Data from CB_067_Reflection_4.txt Node
Date: Sat Nov 14 10:54:50 EST 2015
User: robert
Spectrometer: USB4E03001
Autoset integration time: false
Trigger mode: 4
Integration Time (sec): 1.000000E-1
Scans to average: 15
Electric dark correction enabled: true
Nonlinearity correction enabled: false
Boxcar width: 5
Stray light correction enabled: false
XAxis mode: Wavelengths
Stop averaging: false
Number of Pixels in Spectrum: 3648
>>>>>Begin Spectral Data<<<<<
177.566	-239.47
177.785	-252.25
178.005	-879.33
178.225	-207.34
178.445	-102.12
178.665	-253.32
178.885	129.74
179.105	-48.77
179.324	-138.37
179.544	-273.86
179.764	-93.83
179.984	-134.58
180.204	-161.64
180.423	-620.48
180.643	-389.85
180.863	-481.2
181.083	-1965.22
181.302	-10396.83
181.522	1110.89
181.742	1116.37
181.961	1245.24
182.181	165.82
182.401	163.8
182.621	231.4
182.84	980.79
183.06	-2796.95
183.279	-414.7
183.499	-318.37
183.719	-383.61
183.938	-242.23
184.158	-149.78
184.377	-147.93
184.597	-110.87
184.816	-63.82
185.036	-122.76
185.256	-128.36
185.475	-311.21
185.695	-194.39
185.914	-114.07
186.134	-96.74
186.353	-87.59
186.572	-113.17
186.792	-341.66
187.011	1473.11
187.231	-665.58
187.45	-61.34
187.67	-576.16
187.889	405.51
188.108	260.99
188.328	255.06
188.547	208.93
188.766	199.31
188.986	174.52
189.205	173.73
189.424	181.26
189.644	146.75
189.863	200.96
190.082	215.45
190.302	258.19
190.521	198.3
190.74	187.27
190.959	524.81
191.178	387.84
191.398	283.77
191.617	962.94
191.836	3457.53
192.055	775.72
192.274	225.78
192.494	263.43
192.713	9951.79
192.932	-1050.8
193.151	239100
193.37	342.3
193.589	-9510.62
193.808	-1003.9
194.027	-1710.87
194.246	3617.94
194.465	-2377.29
194.685	562.55
194.904	722.31
195.123	467.18
195.342	391.34
195.561	295.76
195.78	934.66
195.999	2068.32
196.218	662.38
196.436	126.36
196.655	165.87
196.874	120.19
197.093	235.76
197.312	186.75
197.531	243.79
197.75	279.85
197.969	619.96
198.188	125.13
198.407	109.78
198.625	167.07
198.844	236.56
199.063	321.26
199.282	428.99
199.501	-1547.27
199.719	-901.19
199.938	560.57
200.157	376.32
200.376	-2470.36
200.594	-154.82
200.813	-439.73
201.032	-840.92
201.251	-381.3
201.469	-224.48
201.688	-1093.74
201.907	2605.41
202.125	713.81
202.344	2784.5
202.563	13163.77
202.781	736.95
203	244.73
203.218	190.33
203.437	329.05
203.656	233.33
203.874	483.58
204.093	443.98
204.311	296.9
204.53	764.49
204.748	234.18
204.967	325.67
205.185	220.76
205.404	185.7
205.622	190.14
205.841	182.39
206.059	177.91
206.278	148.07
206.496	195.91
206.715	181.09
206.933	170.57
207.151	271.19
207.37	221.58
207.588	286.69
207.806	385.4
208.025	541.89
208.243	770.79
208.461	-57536.36
208.68	1666.49
208.898	734.65
209.116	465.57
209.335	299.93
209.553	163.44
209.771	70.33
209.989	74.35
210.208	76.05
210.426	45.89
210.644	61.36
210.862	43.26
211.081	59.91
211.299	47.88
211.517	55.71
211.735	60.65
211.953	71.14
212.171	84.5
212.39	80.86
212.608	71.61
212.826	88.29
213.044	83.75
213.262	85.9
213.48	88.83
213.698	130.05
213.916	60.95
214.134	77.94
214.352	148.37
214.57	144.1
214.788	139.32
215.006	145.59
215.224	202.29
215.442	529.95
215.66	923.92
215.878	195.35
216.096	90.26
216.314	431.02
216.532	1473.86
216.75	-181.25
216.968	-365.94
217.185	-3344.25
217.403	792.2
217.621	-26822.22
217.839	-41.28
218.057	-6329.17
218.275	-133.44
218.492	-19.27
218.71	-849.33
218.928	712.27
219.146	421.4
219.363	161.48
219.581	204.47
219.799	-322.74
220.017	214.59
220.234	198.67
220.452	273.39
220.67	368.7
220.887	201.71
221.105	293.01
221.323	178.43
221.54	164.86
221.758	184.16
221.976	161.91
222.193	132.65
222.411	112.86
222.629	117.35
222.846	92.82
223.064	85.82
223.281	83.01
223.499	82.16
223.716	78.8
223.934	65.88
224.151	60.94
224.369	49.73
224.586	57.09
224.804	73.94
225.021	93.91
225.239	95.44
225.456	103.55
225.674	100.8
225.891	94.69
226.108	94.84
226.326	87.62
226.543	90.3
226.76	84.31
226.978	77.08
227.195	75.79
227.413	64.54
227.63	62.56
227.847	64.84
228.064	55.52
228.282	54.98
228.499	57.41
228.716	53.24
228.934	49.7
229.151	48.2
229.368	44.29
229.585	38.94
229.802	40.16
230.02	41.63
230.237	38.89
230.454	37.98
230.671	40.49
230.888	35.47
231.105	38.81
231.323	41.05
231.54	44.51
231.757	50.08
231.974	61.9
232.191	59.6
232.408	55.53
232.625	54.99
232.842	51.06
233.059	43.6
233.276	43.51
233.493	46.55
233.71	41.34
233.927	38.29
234.144	34.37
234.361	31.25
234.578	29.99
234.795	27.66
235.012	30.05
235.229	32.17
235.446	34.59
235.663	33.91
235.879	30.38
236.096	36.27
236.313	40.12
236.53	37.91
236.747	36.85
236.964	40.26
237.181	44.05
237.397	44.72
237.614	50.21
237.831	53.62
238.048	58.21
238.264	56.87
238.481	49.95
238.698	49.57
238.915	50.55
239.131	43.42
239.348	33.36
239.565	31.38
239.781	30.86
239.998	32.01
240.215	23.82
240.431	23.49
240.648	24.7
240.865	25.53
241.081	23.54
241.298	24.47
241.514	26.51
241.731	28.03
241.947	26.8
242.164	24.73
242.38	20.74
242.597	20.88
242.814	20.54
243.03	22.1
243.246	23.82
243.463	25.17
243.679	23.69
243.896	24.7
244.112	23.82
244.329	26.1
244.545	28.32
244.762	28.85
244.978	31.35
245.194	29.62
245.411	26.89
245.627	23.52
245.843	22.8
246.06	22.86
246.276	20.74
246.492	22.94
246.709	22.1
246.925	20.93
247.141	22.74
247.357	22
247.574	21.6
247.79	20.67
248.006	20.59
248.222	19.92
248.439	19.02
248.655	19.31
248.871	17.74
249.087	17.9
249.303	18.39
249.519	15.75
249.736	15.5
249.952	16.07
250.168	21.27
250.384	21.47
250.6	22.49
250.816	24.28
251.032	23.31
251.248	24.56
251.464	24.39
251.68	22.12
251.896	19.96
252.112	18.04
252.328	17.69
252.544	15.68
252.76	15.05
252.976	12.25
253.192	11.82
253.408	12.04
253.624	10.45
253.84	9.94
254.056	9.52
254.272	13.71
254.487	15.77
254.703	15
254.919	10.92
255.135	14.5
255.351	18.49
255.567	17.45
255.782	18.74
255.998	21.95
256.214	19.66
256.43	22.1
256.646	19.69
256.861	21.1
257.077	18.57
257.293	18.53
257.508	16.12
257.724	16.61
257.94	14.99
258.155	14.53
258.371	13.8
258.587	14.22
258.802	12.83
259.018	12.92
259.234	12.02
259.449	12.76
259.665	12.6
259.88	12.75
260.096	12.7
260.312	12.66
260.527	12.87
260.743	13
260.958	12.65
261.174	13.3
261.389	14.26
261.605	14.14
261.82	13.96
262.036	14.13
262.251	14.13
262.466	14.42
262.682	15.34
262.897	16.24
263.113	15.41
263.328	15.8
263.543	16.67
263.759	16.41
263.974	17.01
264.189	15.35
264.405	14.8
264.62	16.65
264.835	14.67
265.051	15.57
265.266	12.82
265.481	12.87
265.696	15.12
265.912	12.16
266.127	9.8
266.342	10.06
266.557	11.12
266.773	13.07
266.988	12.83
267.203	12.98
267.418	12.39
267.633	12.89
267.848	13.24
268.064	10.09
268.279	10.85
268.494	11.02
268.709	9.36
268.924	9.92
269.139	8.19
269.354	5.89
269.569	6.57
269.784	6.77
269.999	6.96
270.214	8.39
270.429	10.18
270.644	11.11
270.859	11.61
271.074	12.94
271.289	14.99
271.504	15
271.719	16.02
271.934	15.7
272.149	15.64
272.363	17.42
272.578	15.56
272.793	15.12
273.008	14.87
273.223	14.09
273.438	14.3
273.653	13.24
273.867	13.67
274.082	14.76
274.297	15.54
274.512	16.25
274.726	14.01
274.941	14.29
275.156	16.45
275.371	15.34
275.585	17.03
275.8	19
276.015	18.03
276.229	17.17
276.444	15.96
276.659	14.76
276.873	13.7
277.088	15.92
277.302	17.61
277.517	16.02
277.732	17.55
277.946	16.17
278.161	14.3
278.375	14.97
278.59	15.46
278.804	14.59
279.019	15.59
279.233	15.61
279.448	12.76
279.662	12.31
279.877	12.44
280.091	10.26
280.306	10.87
280.52	8.25
280.735	8.19
280.949	9.87
281.163	11.78
281.378	10.55
281.592	11.31
281.806	11.21
282.021	9.58
282.235	8.83
282.449	11.23
282.664	10.38
282.878	13.49
283.092	12.54
283.307	10.32
283.521	8.85
283.735	9.76
283.949	10.19
284.164	11.19
284.378	11.26
284.592	11.85
284.806	11.33
285.02	12.71
285.234	11.3
285.449	12.25
285.663	13.54
285.877	12.85
286.091	12.32
286.305	11.68
286.519	11.41
286.733	11.65
286.947	11.76
287.161	11.53
287.375	10.82
287.589	10.69
287.803	11.32
288.017	11.08
288.231	12.54
288.445	13.72
288.659	13.68
288.873	14.29
289.087	15.15
289.301	15.56
289.515	15.62
289.729	16.11
289.943	16.88
290.157	17.18
290.371	17.66
290.584	17.28
290.798	17.15
291.012	17.83
291.226	17.35
291.44	18.18
291.654	17.72
291.867	17.31
292.081	16.76
292.295	17.36
292.509	16.11
292.722	14.25
292.936	13.67
293.15	12.87
293.364	11
293.577	11.61
293.791	11.79
294.005	11.79
294.218	12.32
294.432	11.96
294.645	11.49
294.859	11.88
295.073	12.08
295.286	12.61
295.5	12.51
295.713	12.16
295.927	12.58
296.14	11.06
296.354	11.11
296.568	10.48
296.781	10.99
296.994	11.56
297.208	11.05
297.421	11.57
297.635	12.21
297.848	12.09
298.062	12.49
298.275	12.55
298.489	13.57
298.702	14.91
298.915	15.16
299.129	15.7
299.342	15.24
299.555	16.56
299.769	17.88
299.982	18.12
300.195	17.53
300.409	18.22
300.622	16.62
300.835	15.74
301.048	13.35
301.262	13.77
301.475	13.6
301.688	13.05
301.901	12.92
302.115	11.66
302.328	10.37
302.541	11.37
302.754	11.63
302.967	12.51
303.18	14.01
303.393	14.87
303.607	15.14
303.82	14.22
304.033	15.19
304.246	14.65
304.459	15.25
304.672	15.85
304.885	16.24
305.098	16.35
305.311	16.92
305.524	15.21
305.737	16.31
305.95	16.31
306.163	17.99
306.376	17.41
306.589	18.25
306.802	19.61
307.015	20.55
307.228	20.55
307.44	20.5
307.653	20.45
307.866	21.36
308.079	21.41
308.292	19.98
308.505	19.18
308.718	19.63
308.93	19.41
309.143	18.32
309.356	17.82
309.569	16.82
309.781	17.06
309.994	17.15
310.207	16.27
310.42	15.01
310.632	16.06
310.845	16.08
311.058	16.05
311.27	15.21
311.483	15.39
311.696	14.63
311.908	14.39
312.121	14.52
312.333	15.74
312.546	16.48
312.759	15.97
312.971	15.92
313.184	16.41
313.396	16.33
313.609	16.13
313.821	16.54
314.034	16.96
314.246	17.87
314.459	18.05
314.671	16.37
314.884	15.81
315.096	16.87
315.309	17.89
315.521	18.12
315.733	17.93
315.946	18.57
316.158	18.46
316.371	19.65
316.583	18.79
316.795	18.28
317.008	19.34
317.22	20.41
317.432	21.07
317.644	20.37
317.857	19.99
318.069	19.56
318.281	20.9
318.494	19.77
318.706	19.7
318.918	20.52
319.13	20.74
319.342	19.57
319.555	19.16
319.767	18.62
319.979	18.31
320.191	17.85
320.403	17.82
320.615	16.99
320.827	18.13
321.039	17.79
321.252	20.01
321.464	20.56
321.676	20.72
321.888	20.7
322.1	20.51
322.312	20.83
322.524	22.46
322.736	21.76
322.948	21.39
323.16	21.38
323.372	20.97
323.584	19.53
323.796	19.32
324.007	19.64
324.219	20.63
324.431	21.76
324.643	22.61
324.855	23.11
325.067	24.75
325.279	24.85
325.491	25.24
325.702	25.62
325.914	26.42
326.126	27.36
326.338	27.03
326.55	27.2
326.761	27.75
326.973	28.27
327.185	27.39
327.396	26.66
327.608	27.46
327.82	26.81
328.032	28.08
328.243	28.26
328.455	29.09
328.666	30.44
328.878	30.56
329.09	30.19
329.301	29.93
329.513	29.76
329.725	31.49
329.936	31.8
330.148	32.55
330.359	32.99
330.571	33.63
330.782	32.64
330.994	34.17
331.205	34.6
331.417	35.95
331.628	35.96
331.84	37.15
332.051	37.37
332.262	38.28
332.474	38.39
332.685	38.26
332.897	38.33
333.108	38.92
333.319	37.09
333.531	37.2
333.742	36.69
333.953	36.89
334.165	36.63
334.376	36.58
334.587	36.76
334.799	36.29
335.01	35.71
335.221	36.08
335.432	34.97
335.644	35.14
335.855	34.91
336.066	35.06
336.277	36.21
336.488	37.58
336.7	37.62
336.911	38.09
337.122	38.53
337.333	38.78
337.544	38.1
337.755	39.31
337.966	39.46
338.177	39.15
338.388	38.61
338.599	37.73
338.811	36.73
339.022	36.58
339.233	36.28
339.444	36.25
339.655	36
339.866	35.93
340.076	35.34
340.287	34.72
340.498	35.74
340.709	36.65
340.92	36.67
341.131	36.26
341.342	36.66
341.553	35.62
341.764	35.93
341.975	36.29
342.185	36.76
342.396	37.51
342.607	38.12
342.818	37.85
343.029	36.76
343.239	36.55
343.45	36.65
343.661	36.51
343.872	36.81
344.082	36.87
344.293	36.71
344.504	36.93
344.714	36.51
344.925	37.09
345.136	36.04
345.346	35.39
345.557	34.74
345.768	34.26
345.978	34.37
346.189	35.06
346.399	34.65
346.61	34.53
346.821	33.96
347.031	34.01
347.242	33.33
347.452	33.41
347.663	34.77
347.873	36.23
348.084	36.99
348.294	36.21
348.504	35.75
348.715	36.3
348.925	36.66
349.136	35.95
349.346	36.12
349.557	35.66
349.767	37.29
349.977	37.27
350.188	36.41
350.398	36.58
350.608	36.71
350.819	36.71
351.029	35.85
351.239	36.27
351.449	36.84
351.66	36.47
351.87	36.51
352.08	36.03
352.29	35.8
352.501	35.9
352.711	35.14
352.921	35.57
353.131	35.32
353.341	35.58
353.552	34.6
353.762	33.89
353.972	33.49
354.182	34.25
354.392	33.97
354.602	34.28
354.812	34.43
355.022	34.02
355.232	33.68
355.442	33.36
355.652	33.21
355.862	32.7
356.072	33.77
356.282	33.27
356.492	32.37
356.702	31.68
356.912	31.21
357.122	31.87
357.332	32.18
357.542	31.97
357.752	31.92
357.962	32.15
358.171	32.7
358.381	32.13
358.591	32.88
358.801	33.12
359.011	33.72
359.221	33.93
359.43	33.34
359.64	33.26
359.85	33.28
360.06	33.42
360.269	33.12
360.479	33.18
360.689	33.38
360.899	33.17
361.108	33.71
361.318	32.99
361.528	32.42
361.737	32.22
361.947	32.31
362.156	32.57
362.366	32.32
362.576	32.29
362.785	32.05
362.995	31.92
363.204	31.65
363.414	31.17
363.623	31.85
363.833	32.39
364.042	32.47
364.252	32.44
364.461	32.38
364.671	32.52
364.88	32.6
365.09	33.4
365.299	33.61
365.509	34.27
365.718	33.96
365.927	33.52
366.137	32.89
366.346	32.41
366.555	32.27
366.765	32
366.974	32.05
367.183	31.75
367.393	30.12
367.602	29.54
367.811	29.3
368.021	29.95
368.23	30.35
368.439	30.41
368.648	30.44
368.857	30.29
369.067	30.5
369.276	30.15
369.485	30.43
369.694	31.36
369.903	31.01
370.112	30.67
370.321	29.41
370.531	28.79
370.74	29.32
370.949	29.59
371.158	29.36
371.367	28.93
371.576	28.64
371.785	27.99
371.994	27.52
372.203	27.39
372.412	26.69
372.621	27.18
372.83	27.46
373.039	27.02
373.248	25.76
373.457	26.11
373.666	25.54
373.874	25.6
374.083	26.05
374.292	25.94
374.501	26.32
374.71	26.58
374.919	26.51
375.128	25.73
375.336	25.15
375.545	25.97
375.754	25.65
375.963	25.91
376.171	26.01
376.38	25.4
376.589	25.06
376.798	24.61
377.006	24.91
377.215	24.85
377.424	24.49
377.632	24.38
377.841	24.24
378.05	24.12
378.258	24.12
378.467	24.09
378.675	24.32
378.884	24.66
379.093	24.79
379.301	24.41
379.51	24.16
379.718	24.78
379.927	25.1
380.135	25.03
380.344	24.51
380.552	24.37
380.761	24.15
380.969	23.98
381.177	23.4
381.386	24.18
381.594	23.76
381.803	23.94
382.011	23.65
382.219	23.01
382.428	22.94
382.636	23.46
382.845	22.78
383.053	22.72
383.261	22.46
383.469	22.57
383.678	21.88
383.886	21.71
384.094	21.61
384.302	21.88
384.511	22.2
384.719	21.83
384.927	21.31
385.135	21.59
385.343	21.39
385.552	21.47
385.76	21.1
385.968	20.59
386.176	20.59
386.384	19.9
386.592	18.95
386.8	18.78
387.008	18.83
387.216	18.98
387.424	19.22
387.633	19.08
387.841	19.05
388.049	19.48
388.257	19.86
388.465	19.66
388.672	20.1
388.88	20.74
389.088	20.31
389.296	20.11
389.504	19.77
389.712	19.63
389.92	19.71
390.128	19.98
390.336	19.85
390.544	19.65
390.751	20.04
390.959	20.14
391.167	19.66
391.375	19.98
391.583	19.86
391.79	19.96
391.998	19.78
392.206	19.62
392.414	19.19
392.621	19.29
392.829	19.08
393.037	18.68
393.244	18.29
393.452	18.24
393.66	17.78
393.867	17.65
394.075	17.47
394.283	17.36
394.49	17.14
394.698	16.91
394.905	16.65
395.113	16.83
395.32	16.87
395.528	16.7
395.735	16.87
395.943	17.09
396.15	17.15
396.358	17.17
396.565	16.89
396.773	17.02
396.98	17.33
397.188	16.78
397.395	16.71
397.602	16.72
397.81	16.7
398.017	16.49
398.225	16.68
398.432	16.64
398.639	16.5
398.847	16.6
399.054	16.38
399.261	16.16
399.468	16.32
399.676	16.2
399.883	16.1
400.09	16.39
400.297	16.41
400.505	16.05
400.712	16.13
400.919	16.21
401.126	15.98
401.333	16.42
401.54	16.08
401.748	16.2
401.955	16.11
402.162	16.01
402.369	15.81
402.576	15.63
402.783	15.27
402.99	15.01
403.197	14.73
403.404	14.57
403.611	14.05
403.818	14.27
404.025	14.18
404.232	14.12
404.439	14.02
404.646	13.87
404.853	13.88
405.06	13.85
405.267	14.09
405.474	14.22
405.681	14.75
405.887	14.89
406.094	15.11
406.301	14.96
406.508	15.09
406.715	15.39
406.922	15.5
407.128	15.73
407.335	15.82
407.542	15.58
407.749	15.46
407.955	15
408.162	14.64
408.369	14.27
408.575	14.61
408.782	14.7
408.989	14.26
409.195	14.06
409.402	14.13
409.609	13.86
409.815	13.63
410.022	13.71
410.228	13.7
410.435	13.95
410.642	14.02
410.848	13.82
411.055	13.67
411.261	13.83
411.468	14.17
411.674	13.85
411.881	14.21
412.087	14.28
412.294	13.94
412.5	14.21
412.706	14.3
412.913	14.34
413.119	14.3
413.326	14.17
413.532	13.86
413.738	13.59
413.945	13.45
414.151	13.73
414.357	13.82
414.564	13.76
414.77	13.61
414.976	13.54
415.182	13.57
415.389	13.24
415.595	12.9
415.801	12.92
416.007	12.74
416.214	12.68
416.42	12.36
416.626	12.29
416.832	12.51
417.038	12.42
417.244	12.36
417.45	12.06
417.657	12.33
417.863	12.57
418.069	12.61
418.275	12.55
418.481	12.57
418.687	12.63
418.893	12.53
419.099	12.41
419.305	12.35
419.511	12.31
419.717	12.35
419.923	12.23
420.129	12.15
420.335	12.22
420.541	12.16
420.746	12.11
420.952	12.09
421.158	12.2
421.364	12.16
421.57	12.12
421.776	12.09
421.982	12.18
422.187	12.2
422.393	12.22
422.599	12.26
422.805	12.37
423.01	12.4
423.216	12.34
423.422	12.35
423.628	12.47
423.833	12.47
424.039	12.27
424.245	12.29
424.45	12.24
424.656	12.16
424.862	12.18
425.067	12
425.273	12
425.478	12.02
425.684	11.95
425.889	11.99
426.095	12.01
426.301	12.18
426.506	11.98
426.712	12.09
426.917	12.16
427.123	12.01
427.328	12.17
427.533	12.16
427.739	12.25
427.944	12.15
428.15	11.88
428.355	11.79
428.561	12.04
428.766	12.13
428.971	12.02
429.177	11.96
429.382	11.85
429.587	11.79
429.793	11.93
429.998	11.83
430.203	12.01
430.408	12.32
430.614	12.39
430.819	12.16
431.024	12.01
431.229	12.02
431.434	12.01
431.64	11.96
431.845	12.09
432.05	11.98
432.255	11.87
432.46	11.77
432.665	11.46
432.87	11.34
433.076	11.21
433.281	11.38
433.486	11.37
433.691	11.3
433.896	11.32
434.101	11.16
434.306	11.02
434.511	11.19
434.716	11.15
434.921	11.36
435.126	11.55
435.331	11.56
435.535	11.52
435.74	11.64
435.945	11.72
436.15	11.76
436.355	11.87
436.56	12.01
436.765	11.97
436.97	11.84
437.174	11.89
437.379	11.86
437.584	12.05
437.789	12.11
437.993	11.93
438.198	11.95
438.403	11.8
438.608	11.83
438.812	11.76
439.017	11.56
439.222	11.55
439.426	11.53
439.631	11.29
439.836	11.21
440.04	11.16
440.245	11.16
440.45	11.12
440.654	11.24
440.859	11.06
441.063	11.04
441.268	11.25
441.472	11.3
441.677	11.06
441.881	11.13
442.086	11.14
442.29	11.04
442.495	11.03
442.699	10.9
442.904	10.69
443.108	10.84
443.312	10.97
443.517	10.87
443.721	10.83
443.925	11.05
444.13	11.07
444.334	10.95
444.538	11.04
444.743	11.13
444.947	11.12
445.151	11.25
445.356	11.23
445.56	11.15
445.764	11.09
445.968	11.27
446.173	11.19
446.377	11.27
446.581	11.24
446.785	11.08
446.989	11.05
447.193	11.05
447.398	11.11
447.602	10.99
447.806	11.01
448.01	11.1
448.214	10.98
448.418	10.98
448.622	10.87
448.826	10.97
449.03	11.06
449.234	11.19
449.438	11.4
449.642	11.32
449.846	11.52
450.05	11.49
450.254	11.42
450.458	11.31
450.662	11.48
450.866	11.41
451.069	11.43
451.273	11.54
451.477	11.38
451.681	11.28
451.885	11.09
452.089	11.07
452.292	10.83
452.496	10.74
452.7	10.78
452.904	10.58
453.107	10.77
453.311	10.6
453.515	10.61
453.719	10.56
453.922	10.66
454.126	10.82
454.33	10.65
454.533	10.73
454.737	10.73
454.94	10.66
455.144	10.8
455.348	10.66
455.551	10.93
455.755	10.89
455.958	10.86
456.162	10.8
456.365	10.82
456.569	10.88
456.772	11.03
456.976	11.14
457.179	11.26
457.383	11.22
457.586	11.19
457.79	11.01
457.993	10.92
458.196	10.97
458.4	11.1
458.603	11.02
458.807	10.98
459.01	10.89
459.213	10.87
459.417	10.92
459.62	10.84
459.823	10.8
460.026	10.72
460.23	10.79
460.433	10.72
460.636	10.56
460.839	10.51
461.042	10.41
461.246	10.48
461.449	10.39
461.652	10.28
461.855	10.34
462.058	10.31
462.261	10.38
462.464	10.14
462.668	10.23
462.871	10.47
463.074	10.44
463.277	10.42
463.48	10.29
463.683	10.43
463.886	10.22
464.089	10.18
464.292	10.18
464.495	10.33
464.698	10.5
464.901	10.36
465.104	10
465.306	10.02
465.509	10.36
465.712	10.66
465.915	10.69
466.118	10.8
466.321	10.63
466.524	10.51
466.726	10.46
466.929	10.52
467.132	10.51
467.335	10.82
467.538	10.95
467.74	10.77
467.943	10.53
468.146	10.41
468.348	10.36
468.551	10.37
468.754	10.52
468.956	10.53
469.159	10.46
469.362	10.49
469.564	10.39
469.767	10.4
469.969	10.48
470.172	10.53
470.375	10.52
470.577	10.78
470.78	10.92
470.982	10.95
471.185	10.89
471.387	10.93
471.59	10.98
471.792	11
471.995	11.11
472.197	11.12
472.399	11.25
472.602	11.15
472.804	11.07
473.007	11.15
473.209	11.28
473.411	11.29
473.614	11.47
473.816	11.46
474.018	11.45
474.22	11.39
474.423	11.29
474.625	11.19
474.827	11.39
475.03	11.4
475.232	11.35
475.434	11.08
475.636	10.99
475.838	10.9
476.04	10.83
476.243	10.6
476.445	10.48
476.647	10.49
476.849	10.48
477.051	10.37
477.253	10.7
477.455	10.65
477.657	10.64
477.859	10.82
478.061	10.62
478.263	10.65
478.465	10.73
478.667	10.75
478.869	10.73
479.071	10.79
479.273	10.69
479.475	10.49
479.677	10.54
479.879	10.67
480.081	10.41
480.283	10.42
480.485	10.34
480.686	10.59
480.888	10.66
481.09	10.63
481.292	10.63
481.494	10.74
481.695	10.56
481.897	10.48
482.099	10.46
482.301	10.52
482.502	10.53
482.704	10.57
482.906	10.36
483.107	10.29
483.309	10.26
483.511	10.2
483.712	10.19
483.914	10.22
484.115	10.16
484.317	10.15
484.519	10.16
484.72	10.13
484.922	10.08
485.123	10.07
485.325	10.08
485.526	10.11
485.728	10.12
485.929	10.07
486.131	9.99
486.332	10.03
486.534	10.04
486.735	10.01
486.936	10.05
487.138	10.07
487.339	10.13
487.541	10.13
487.742	10.12
487.943	10.14
488.144	10.17
488.346	10.25
488.547	10.27
488.748	10.26
488.95	10.25
489.151	10.32
489.352	10.38
489.553	10.4
489.755	10.43
489.956	10.43
490.157	10.43
490.358	10.45
490.559	10.35
490.76	10.37
490.961	10.41
491.163	10.53
491.364	10.51
491.565	10.47
491.766	10.44
491.967	10.45
492.168	10.47
492.369	10.45
492.57	10.49
492.771	10.6
492.972	10.6
493.173	10.63
493.374	10.71
493.575	10.69
493.776	10.81
493.976	10.99
494.177	11.08
494.378	11.12
494.579	11.29
494.78	11.18
494.981	11.32
495.182	11.4
495.382	11.49
495.583	11.41
495.784	11.48
495.985	11.5
496.185	11.43
496.386	11.43
496.587	11.45
496.788	11.37
496.988	11.22
497.189	11.34
497.39	11.21
497.59	11.25
497.791	10.99
497.992	11.01
498.192	10.96
498.393	11.01
498.593	11.02
498.794	11.03
498.994	11.22
499.195	11.48
499.395	11.29
499.596	11.5
499.796	11.36
499.997	11.66
500.197	11.69
500.398	11.73
500.598	11.49
500.799	11.52
500.999	11.58
501.199	11.43
501.4	11.46
501.6	11.65
501.801	11.61
502.001	11.82
502.201	11.87
502.402	11.85
502.602	11.92
502.802	12.13
503.002	12.2
503.203	12.38
503.403	12.57
503.603	12.68
503.803	12.71
504.003	12.85
504.204	13.01
504.404	13.07
504.604	13.19
504.804	13.5
505.004	13.42
505.204	13.43
505.404	13.26
505.604	13.24
505.804	13.17
506.005	13.27
506.205	13.17
506.405	12.93
506.605	12.96
506.805	13
507.005	12.72
507.204	12.91
507.404	12.89
507.604	13.16
507.804	13.35
508.004	13.49
508.204	13.3
508.404	13.37
508.604	13.57
508.804	13.71
509.003	13.77
509.203	13.81
509.403	13.85
509.603	13.98
509.803	13.9
510.002	13.87
510.202	14
510.402	14.25
510.602	14.29
510.801	14.24
511.001	14.18
511.201	14.23
511.4	14.36
511.6	14.6
511.8	14.79
511.999	14.95
512.199	14.92
512.398	14.82
512.598	14.94
512.797	15.27
512.997	15.43
513.197	15.47
513.396	15.62
513.596	15.7
513.795	15.71
513.994	15.65
514.194	15.69
514.393	15.88
514.593	16.18
514.792	16.22
514.992	16.27
515.191	16.34
515.39	16.53
515.59	16.61
515.789	16.71
515.988	16.83
516.188	16.9
516.387	17.07
516.586	17.29
516.786	17.32
516.985	17.35
517.184	17.35
517.383	17.6
517.582	17.64
517.782	17.69
517.981	17.84
518.18	17.83
518.379	17.95
518.578	17.82
518.777	17.84
518.976	17.98
519.176	18.12
519.375	18.11
519.574	18.13
519.773	18.22
519.972	18.33
520.171	18.39
520.37	18.42
520.569	18.61
520.768	18.96
520.967	19.03
521.166	19.14
521.365	19.22
521.564	19.41
521.762	19.5
521.961	19.71
522.16	19.78
522.359	19.82
522.558	20.14
522.757	19.95
522.956	19.96
523.154	19.87
523.353	19.96
523.552	20
523.751	20.12
523.949	20.25
524.148	20.25
524.347	20.46
524.546	20.67
524.744	20.67
524.943	20.88
525.142	20.88
525.34	21.19
525.539	21.17
525.737	21.34
525.936	21.46
526.135	21.49
526.333	21.52
526.532	21.52
526.73	21.57
526.929	21.71
527.127	21.84
527.326	22.01
527.524	22.05
527.723	22.19
527.921	22.27
528.12	22.24
528.318	22.3
528.516	22.47
528.715	22.54
528.913	22.5
529.112	22.54
529.31	22.58
529.508	22.62
529.707	22.61
529.905	22.69
530.103	22.63
530.301	22.7
530.5	22.77
530.698	22.72
530.896	22.83
531.094	23.02
531.293	23.09
531.491	23.28
531.689	23.39
531.887	23.59
532.085	23.53
532.283	23.72
532.481	23.86
532.68	23.95
532.878	24.11
533.076	24.12
533.274	24.14
533.472	24.14
533.67	24.12
533.868	24.27
534.066	24.35
534.264	24.49
534.462	24.54
534.66	24.62
534.858	24.58
535.056	24.69
535.253	24.79
535.451	24.9
535.649	25.14
535.847	25.24
536.045	25.21
536.243	25.37
536.441	25.49
536.638	25.6
536.836	25.75
537.034	26.03
537.232	26.13
537.43	26.17
537.627	26.27
537.825	26.33
538.023	26.45
538.22	26.66
538.418	26.64
538.616	26.86
538.813	26.87
539.011	26.92
539.209	26.93
539.406	26.9
539.604	27.13
539.801	27.22
539.999	27.31
540.196	27.38
540.394	27.41
540.591	27.43
540.789	27.36
540.986	27.48
541.184	27.48
541.381	27.62
541.579	27.72
541.776	27.75
541.974	27.85
542.171	27.89
542.368	27.9
542.566	27.87
542.763	27.87
542.96	27.97
543.158	28.08
543.355	28.2
543.552	28.18
543.75	28.27
543.947	28.28
544.144	28.32
544.341	28.34
544.539	28.5
544.736	28.63
544.933	28.77
545.13	28.73
545.327	28.73
545.524	28.69
545.722	28.84
545.919	28.76
546.116	29.02
546.313	29.14
546.51	29.28
546.707	29.26
546.904	29.44
547.101	29.47
547.298	29.67
547.495	29.76
547.692	29.94
547.889	29.77
548.086	29.93
548.283	29.95
548.48	29.95
548.677	29.98
548.874	29.93
549.07	29.83
549.267	30.12
549.464	30.25
549.661	30.46
549.858	30.6
550.055	31.04
550.251	31.13
550.448	31.09
550.645	31.08
550.842	31.28
551.038	31.58
551.235	31.79
551.432	31.82
551.628	31.8
551.825	31.83
552.022	31.9
552.218	31.86
552.415	31.92
552.612	31.93
552.808	32.25
553.005	32.21
553.201	32.17
553.398	32.27
553.594	32.22
553.791	32.38
553.987	32.29
554.184	32.35
554.38	32.37
554.577	32.51
554.773	32.79
554.97	32.65
555.166	32.83
555.362	33.1
555.559	33.03
555.755	33.37
555.952	33.35
556.148	33.64
556.344	33.58
556.541	33.69
556.737	33.7
556.933	33.7
557.129	33.72
557.326	33.63
557.522	33.4
557.718	33.66
557.914	33.55
558.11	33.64
558.307	33.51
558.503	33.56
558.699	33.9
558.895	33.97
559.091	34.18
559.287	34.46
559.483	34.64
559.679	34.82
559.876	34.7
560.072	34.76
560.268	34.81
560.464	34.95
560.66	35.06
560.856	35.1
561.052	35.18
561.247	34.86
561.443	34.73
561.639	34.87
561.835	35.1
562.031	35.18
562.227	35.25
562.423	35.43
562.619	35.37
562.815	35.45
563.01	35.53
563.206	35.64
563.402	35.66
563.598	35.94
563.793	36.18
563.989	36.19
564.185	36.24
564.381	36.49
564.576	36.54
564.772	36.4
564.968	36.49
565.163	36.47
565.359	36.4
565.555	36.56
565.75	36.39
565.946	36.19
566.141	36.22
566.337	36.3
566.532	36.29
566.728	36.19
566.923	36.4
567.119	36.47
567.314	36.46
567.51	36.64
567.705	36.89
567.901	37.08
568.096	37.08
568.292	37.3
568.487	37.4
568.682	37.24
568.878	37.47
569.073	37.71
569.268	37.69
569.464	37.87
569.659	38.02
569.854	37.85
570.05	37.67
570.245	38.09
570.44	38
570.635	37.92
570.831	38.03
571.026	37.98
571.221	38.14
571.416	38.24
571.611	38.06
571.806	38
572.002	38.26
572.197	38.53
572.392	38.3
572.587	38.52
572.782	38.64
572.977	38.66
573.172	38.73
573.367	38.56
573.562	38.61
573.757	38.76
573.952	38.59
574.147	38.46
574.342	38.45
574.537	38.56
574.732	38.15
574.927	38.24
575.121	38.41
575.316	38.57
575.511	38.8
575.706	38.69
575.901	38.56
576.096	38.84
576.29	38.82
576.485	38.86
576.68	38.84
576.875	39.09
577.069	39.03
577.264	38.82
577.459	38.79
577.654	38.82
577.848	38.96
578.043	39.4
578.238	39.5
578.432	39.6
578.627	39.67
578.821	39.97
579.016	39.94
579.21	40.04
579.405	40.22
579.6	40.19
579.794	40.32
579.989	40.25
580.183	40.06
580.378	40.05
580.572	40.36
580.766	40.51
580.961	40.23
581.155	40.17
581.35	40.29
581.544	40.46
581.738	40.66
581.933	40.36
582.127	40.54
582.321	40.62
582.516	40.77
582.71	40.52
582.904	40.53
583.099	40.59
583.293	40.83
583.487	40.67
583.681	40.84
583.875	40.73
584.07	41.07
584.264	41.16
584.458	41.02
584.652	40.85
584.846	41.15
585.04	41.03
585.234	41.33
585.428	41.56
585.623	41.76
585.817	41.51
586.011	41.23
586.205	41.06
586.399	41.23
586.593	41.65
586.787	41.65
586.981	41.54
587.174	41.6
587.368	41.42
587.562	41.16
587.756	41.07
587.95	41.3
588.144	41.8
588.338	41.77
588.532	41.72
588.725	41.6
588.919	41.72
589.113	41.71
589.307	41.81
589.501	41.83
589.694	41.99
589.888	42.01
590.082	41.92
590.275	41.82
590.469	41.9
590.663	41.93
590.856	41.6
591.05	41.49
591.244	41.41
591.437	41.5
591.631	41.38
591.824	41.5
592.018	41.66
592.212	41.86
592.405	41.77
592.599	41.84
592.792	41.74
592.986	41.98
593.179	42.19
593.372	42.3
593.566	41.76
593.759	41.72
593.953	41.7
594.146	41.5
594.339	41.42
594.533	41.66
594.726	41.56
594.92	41.55
595.113	41.47
595.306	41.45
595.499	41.65
595.693	42.26
595.886	42.43
596.079	42.41
596.272	42.55
596.466	42.67
596.659	42.63
596.852	42.9
597.045	42.9
597.238	42.99
597.431	42.96
597.624	42.81
597.818	42.67
598.011	42.82
598.204	42.78
598.397	42.7
598.59	42.61
598.783	42.44
598.976	42.27
599.169	42.15
599.362	42.34
599.555	42.42
599.748	42.45
599.941	42.24
600.134	42
600.326	42.08
600.519	42.52
600.712	42.75
600.905	43.12
601.098	43.19
601.291	43.42
601.483	43.07
601.676	42.81
601.869	42.86
602.062	43.05
602.255	43.39
602.447	43.32
602.64	43.03
602.833	42.6
603.025	42.56
603.218	42.64
603.411	42.83
603.603	43.11
603.796	43.3
603.989	43.15
604.181	43.23
604.374	43.18
604.566	43.43
604.759	43.24
604.951	43.29
605.144	43.22
605.336	43.28
605.529	43.1
605.721	42.92
605.914	42.97
606.106	43.23
606.299	43.12
606.491	43.05
606.683	43.01
606.876	43.11
607.068	43.28
607.26	42.98
607.453	42.8
607.645	42.83
607.837	43
608.03	42.92
608.222	42.75
608.414	42.93
608.606	42.89
608.799	42.9
608.991	43.07
609.183	43.05
609.375	43.53
609.567	43.4
609.759	43.67
609.952	43.49
610.144	43.5
610.336	43.59
610.528	43.37
610.72	43.54
610.912	43.48
611.104	43.66
611.296	43.65
611.488	43.78
611.68	44.22
611.872	44.02
612.064	44.53
612.256	44.66
612.448	44.99
612.64	45.1
612.832	45.17
613.023	44.98
613.215	44.72
613.407	45.05
613.599	44.28
613.791	43.96
613.983	43.87
614.174	43.42
614.366	43.52
614.558	43.29
614.75	43.72
614.941	43.32
615.133	43.49
615.325	43.66
615.516	43.6
615.708	44.08
615.9	44.36
616.091	44.23
616.283	44.52
616.475	44.22
616.666	44.29
616.858	44.16
617.049	44.19
617.241	44.2
617.432	44.22
617.624	44.1
617.815	43.63
618.007	43.39
618.198	43.79
618.39	43.8
618.581	43.93
618.773	43.67
618.964	43.29
619.155	43.13
619.347	43.15
619.538	43.25
619.729	43.35
619.921	43.71
620.112	43.96
620.303	43.68
620.494	43.37
620.686	43.33
620.877	43.54
621.068	43.61
621.259	43.85
621.451	44.12
621.642	43.98
621.833	43.68
622.024	43.51
622.215	43.37
622.406	43.35
622.597	43.29
622.788	43.3
622.98	43.15
623.171	43.56
623.362	43.82
623.553	43.75
623.744	43.79
623.935	43.87
624.126	44.25
624.317	44.5
624.508	44.54
624.698	44.85
624.889	45.13
625.08	45.58
625.271	45.48
625.462	45.52
625.653	45.27
625.844	45.19
626.034	45.12
626.225	45.22
626.416	44.73
626.607	44.79
626.798	44.74
626.988	44.58
627.179	44.22
627.37	44.23
627.56	44.25
627.751	44.61
627.942	44.77
628.132	44.93
628.323	44.74
628.514	45.07
628.704	45.1
628.895	44.97
629.085	45.01
629.276	45.09
629.466	45.09
629.657	45.01
629.847	44.82
630.038	45.05
630.228	45.35
630.419	45.7
630.609	45.77
630.8	45.75
630.99	46.25
631.181	46.76
631.371	47.09
631.561	46.82
631.752	46.8
631.942	46.92
632.132	46.28
632.323	45.95
632.513	45.74
632.703	45.43
632.893	45.54
633.084	45.29
633.274	44.72
633.464	44.44
633.654	44.79
633.844	44.58
634.034	44.23
634.225	44.51
634.415	44.69
634.605	44.79
634.795	44.66
634.985	44.69
635.175	44.92
635.365	45.2
635.555	45.19
635.745	44.88
635.935	45.52
636.125	45.47
636.315	45.72
636.505	45.65
636.695	45.24
636.885	45.53
637.075	45.71
637.265	45.4
637.455	45.35
637.644	45.63
637.834	45.85
638.024	45.59
638.214	46.23
638.404	46.03
638.593	46.12
638.783	46.49
638.973	46.6
639.163	46.74
639.352	46.77
639.542	46.47
639.732	46.18
639.921	46.28
640.111	46.52
640.301	46.35
640.49	46.39
640.68	46.78
640.87	47.18
641.059	47.23
641.249	46.88
641.438	46.95
641.628	47.14
641.817	47.15
642.007	46.98
642.196	46.87
642.386	46.54
642.575	46.75
642.764	45.85
642.954	45.47
643.143	45.46
643.333	45.64
643.522	45.85
643.711	45.77
643.901	45.93
644.09	46.01
644.279	46.16
644.469	46.32
644.658	46.22
644.847	46.62
645.036	47.08
645.226	47.36
645.415	47.26
645.604	46.93
645.793	46.97
645.982	46.71
646.171	46.66
646.361	46.09
646.55	46.42
646.739	46.52
646.928	46.66
647.117	46.29
647.306	46.05
647.495	46.16
647.684	46.34
647.873	46.55
648.062	46.47
648.251	46.63
648.44	46.23
648.629	45.91
648.818	45.75
649.007	46.15
649.196	46.15
649.384	46.08
649.573	45.91
649.762	45.85
649.951	45.8
650.14	46.42
650.328	46.25
650.517	46.61
650.706	46.74
650.895	46.69
651.083	46.58
651.272	46.64
651.461	46.57
651.65	46.76
651.838	46.78
652.027	46.67
652.216	46.22
652.404	46.25
652.593	46.61
652.781	46.58
652.97	46.56
653.158	45.98
653.347	46.01
653.535	46.23
653.724	45.68
653.912	45.99
654.101	45.93
654.289	45.89
654.478	46.02
654.666	45.59
654.855	45.52
655.043	45.84
655.231	46.52
655.42	46.5
655.608	46.64
655.796	47.25
655.985	47.14
656.173	47.04
656.361	47.06
656.55	47.22
656.738	47.66
656.926	47.74
657.114	47.23
657.302	46.93
657.491	46.66
657.679	46.37
657.867	46.44
658.055	46.25
658.243	46.62
658.431	46.98
658.619	46.93
658.807	46.95
658.996	46.61
659.184	46.94
659.372	47.05
659.56	46.88
659.748	47
659.936	47.04
660.124	47.03
660.311	47.06
660.499	46.93
660.687	46.84
660.875	46.71
661.063	47.11
661.251	46.93
661.439	46.84
661.627	47.46
661.814	47.24
662.002	47.08
662.19	47.42
662.378	47.25
662.565	47.2
662.753	47.34
662.941	47.57
663.129	47.24
663.316	47.38
663.504	47.28
663.692	46.84
663.879	46.89
664.067	46.92
664.254	46.61
664.442	46.71
664.63	47.18
664.817	47.74
665.005	47.58
665.192	48.01
665.38	47.67
665.567	47.57
665.755	47.97
665.942	47.8
666.13	47.93
666.317	47.9
666.504	47.61
666.692	47.39
666.879	46.91
667.067	46.85
667.254	47.22
667.441	47.53
667.629	47.85
667.816	47.39
668.003	47.74
668.19	47.53
668.378	47.78
668.565	48.16
668.752	48.05
668.939	47.9
669.127	48.09
669.314	47.47
669.501	47.8
669.688	47.67
669.875	48.04
670.062	48.02
670.249	47.85
670.436	48.08
670.623	48.12
670.81	47.94
670.997	48.01
671.184	47.8
671.371	48.27
671.558	47.86
671.745	48.21
671.932	47.96
672.119	47.65
672.306	48.1
672.493	47.73
672.68	47.91
672.867	48.42
673.054	48.36
673.24	48.6
673.427	48.44
673.614	48.65
673.801	48.61
673.988	48.73
674.174	49.11
674.361	49.01
674.548	48.92
674.734	48.35
674.921	47.82
675.108	48.03
675.294	47.49
675.481	47.22
675.668	47.7
675.854	47.65
676.041	47.65
676.227	47.41
676.414	47.74
676.601	48.07
676.787	48.05
676.974	48.06
677.16	47.6
677.347	48.08
677.533	48.13
677.719	47.89
677.906	47.64
678.092	47.85
678.279	48.43
678.465	48.02
678.651	47.78
678.838	47.78
679.024	47.76
679.21	47.44
679.397	47.3
679.583	47.59
679.769	47.07
679.955	46.87
680.142	46.29
680.328	46.2
680.514	45.97
680.7	45.92
680.886	46.14
681.073	46.4
681.259	47.04
681.445	47.36
681.631	47.26
681.817	47.4
682.003	47.49
682.189	47.67
682.375	47.59
682.561	48.03
682.747	48.06
682.933	48.13
683.119	47.87
683.305	47.72
683.491	47.07
683.677	47.29
683.863	47.2
684.049	47.35
684.235	47.76
684.42	47.95
684.606	47.41
684.792	48.21
684.978	47.49
685.164	47.57
685.349	48.1
685.535	48.45
685.721	47.96
685.907	48.3
686.092	48.23
686.278	48.22
686.464	47.98
686.649	48.37
686.835	47.51
687.021	48.34
687.206	48.18
687.392	47.97
687.577	48.55
687.763	48.82
687.948	49.05
688.134	49.29
688.319	49.26
688.505	49.24
688.69	49.29
688.876	49.56
689.061	49.19
689.247	49.44
689.432	49
689.618	48.5
689.803	48.22
689.988	48.02
690.174	48.03
690.359	47.82
690.544	48
690.73	48.19
690.915	48.07
691.1	47.97
691.285	48.14
691.471	48.74
691.656	48.77
691.841	48.72
692.026	48.34
692.211	48.23
692.396	48.75
692.582	49.34
692.767	49.33
692.952	49.22
693.137	49.1
693.322	49.07
693.507	48.94
693.692	48.84
693.877	49.2
694.062	49.79
694.247	50.33
694.432	50.47
694.617	49.81
694.802	49.87
694.987	49.95
695.172	50.36
695.357	50.91
695.541	50.6
695.726	50.72
695.911	51.18
696.096	51.29
696.281	51.12
696.466	50.81
696.65	51.32
696.835	51.08
697.02	50.77
697.204	50.86
697.389	50.09
697.574	50.08
697.759	50.01
697.943	49.48
698.128	49.5
698.312	49.18
698.497	49.17
698.682	49.16
698.866	49.41
699.051	49.86
699.235	49.84
699.42	49.97
699.604	49.94
699.789	50.12
699.973	50.26
700.158	50.28
700.342	50.44
700.527	50.57
700.711	49.83
700.895	49.77
701.08	49.41
701.264	49.14
701.448	48.98
701.633	49.17
701.817	48.7
702.001	49.2
702.186	48.91
702.37	48.45
702.554	48.23
702.738	48.78
702.923	48.4
703.107	47.87
703.291	48.77
703.475	49.49
703.659	49.29
703.843	48.99
704.027	48.52
704.212	47.62
704.396	48.13
704.58	47.79
704.764	47.2
704.948	47.36
705.132	48.3
705.316	47.94
705.5	48.02
705.684	47.84
705.868	48.22
706.052	47.89
706.235	49.74
706.419	49.69
706.603	50.02
706.787	50.01
706.971	50.01
707.155	49.32
707.339	49.08
707.522	48.48
707.706	48.59
707.89	49.09
708.074	49.9
708.257	49.03
708.441	49.55
708.625	49.39
708.808	50.04
708.992	49.66
709.176	49.98
709.359	50.19
709.543	49.49
709.727	49.59
709.91	49.65
710.094	48.57
710.277	48.76
710.461	48.53
710.644	48.91
710.828	49.52
711.011	49.68
711.195	49.99
711.378	49.26
711.562	49.63
711.745	49.43
711.928	49.21
712.112	49.51
712.295	49.49
712.478	49.19
712.662	49.71
712.845	49.13
713.028	48.89
713.212	48.93
713.395	49.06
713.578	49.46
713.761	50.24
713.945	50.04
714.128	50.37
714.311	50.34
714.494	49.87
714.677	49.13
714.86	48.94
715.043	49.21
715.227	49.06
715.41	50.1
715.593	49.82
715.776	50.18
715.959	50.35
716.142	50.56
716.325	50.79
716.508	51.6
716.691	51.62
716.874	51.75
717.057	51.85
717.239	52
717.422	51.1
717.605	51.24
717.788	50.25
717.971	50.83
718.154	50.73
718.337	50.28
718.519	50.46
718.702	51.31
718.885	51
719.068	51.19
719.25	51.43
719.433	52.06
719.616	52.99
719.798	53.87
719.981	53.24
720.164	52.98
720.346	52.94
720.529	52.87
720.712	51.95
720.894	52.72
721.077	51.81
721.259	52.24
721.442	52.27
721.624	51.9
721.807	50.76
721.989	50.2
722.172	50.34
722.354	50.95
722.537	50.46
722.719	50.07
722.901	49.36
723.084	49.7
723.266	48.98
723.448	49.15
723.631	48.58
723.813	48.55
723.995	48.81
724.178	48.87
724.36	47.84
724.542	47.95
724.724	48.81
724.907	49.26
725.089	50.4
725.271	50.78
725.453	50.66
725.635	50.69
725.817	51.56
725.999	52.53
726.181	52.09
726.364	52.92
726.546	53.44
726.728	52.77
726.91	51.87
727.092	51.1
727.274	50.98
727.456	50.64
727.638	50.44
727.819	50.5
728.001	50.63
728.183	51.12
728.365	51.07
728.547	50.85
728.729	51.91
728.911	52.65
729.093	52.85
729.274	51.85
729.456	51.78
729.638	52.84
729.82	52.07
730.001	51.17
730.183	50.97
730.365	50.76
730.546	50.72
730.728	50.2
730.91	49.69
731.091	50.19
731.273	50.91
731.455	50.9
731.636	50.86
731.818	51.98
731.999	52.22
732.181	51.88
732.362	51.92
732.544	51.93
732.725	51.05
732.907	51.16
733.088	50.62
733.27	51.12
733.451	51.25
733.633	51.26
733.814	50.25
733.995	49.88
734.177	50.86
734.358	50.53
734.539	49.81
734.721	50.38
734.902	51.05
735.083	51.65
735.264	51.21
735.446	51.63
735.627	51
735.808	51.3
735.989	52.52
736.17	51.73
736.351	53.06
736.533	53.77
736.714	53.7
736.895	52.79
737.076	51.63
737.257	51.86
737.438	51.58
737.619	52.5
737.8	52.32
737.981	51.75
738.162	51.76
738.343	51.11
738.524	49.96
738.705	50.1
738.886	50.03
739.067	51.64
739.247	51.52
739.428	50.23
739.609	49.38
739.79	50.88
739.971	50.72
740.151	50.66
740.332	50
740.513	50.79
740.694	50.48
740.874	51.41
741.055	49.84
741.236	50.65
741.417	51.42
741.597	50.79
741.778	49.98
741.958	50.42
742.139	50.37
742.32	51.1
742.5	51.5
742.681	51.76
742.861	50.93
743.042	51.04
743.222	50.53
743.403	51.51
743.583	53.1
743.764	53.53
743.944	52.18
744.124	53.3
744.305	51.93
744.485	50.67
744.666	51.64
744.846	52.28
745.026	52.94
745.207	53.29
745.387	52.53
745.567	51.84
745.747	50.34
745.928	50.28
746.108	49.45
746.288	50.93
746.468	53.27
746.648	52.12
746.829	51.66
747.009	52.05
747.189	50.93
747.369	50.52
747.549	51.04
747.729	50.79
747.909	51.4
748.089	52.14
748.269	51.58
748.449	51.01
748.629	52.05
748.809	52.46
748.989	52.31
749.169	52.92
749.349	52.49
749.529	51.92
749.709	52.9
749.889	53.28
750.068	51.43
750.248	51.7
750.428	51.6
750.608	50.54
750.788	50.7
750.967	49.15
751.147	48.32
751.327	50.21
751.507	49.19
751.686	48.31
751.866	49.11
752.046	50.79
752.225	50.45
752.405	49.89
752.585	50.32
752.764	50.96
752.944	51.22
753.123	51.73
753.303	50.71
753.482	51.21
753.662	50.79
753.841	49.25
754.021	48.38
754.2	47.86
754.38	47.16
754.559	47.59
754.739	47.18
754.918	48
755.097	47.9
755.277	47.85
755.456	47.42
755.635	49.61
755.815	50.39
755.994	51.17
756.173	50.89
756.352	52.14
756.532	51.8
756.711	50.85
756.89	51.62
757.069	52.33
757.248	52.38
757.427	52.91
757.607	50.53
757.786	50.68
757.965	50.61
758.144	50.62
758.323	50.37
758.502	50.57
758.681	50.26
758.86	50.34
759.039	49.89
759.218	50
759.397	50.12
759.576	51.47
759.755	51.02
759.934	50.5
760.113	52.3
760.291	51.86
760.47	52.4
760.649	53.45
760.828	52.41
761.007	51.42
761.186	51.95
761.364	51.14
761.543	50.84
761.722	50.77
761.901	50.56
762.079	50.61
762.258	51.38
762.437	50.46
762.615	49.99
762.794	50.14
762.972	51.48
763.151	50.77
763.33	51.02
763.508	51.37
763.687	52.59
763.865	53.25
764.044	52.58
764.222	52.14
764.401	52.45
764.579	52.93
764.758	52.77
764.936	52.2
765.114	52.3
765.293	53.27
765.471	52.8
765.65	51.25
765.828	51
766.006	51.6
766.184	51.46
766.363	51.25
766.541	50.02
766.719	49.04
766.898	49.33
767.076	49.97
767.254	49.78
767.432	49.93
767.61	51.22
767.788	51.25
767.967	50.98
768.145	52.15
768.323	52.67
768.501	52.51
768.679	52.73
768.857	52.96
769.035	53.87
769.213	54.35
769.391	53.93
769.569	52.87
769.747	52.7
769.925	51.75
770.103	50.67
770.281	49.57
770.459	50.51
770.636	51.44
770.814	50.56
770.992	49.57
771.17	49.17
771.348	49.78
771.525	50.51
771.703	50.44
771.881	52.01
772.059	53.06
772.236	53.63
772.414	54.31
772.592	55.7
772.769	56.18
772.947	57.03
773.125	56.92
773.302	57.57
773.48	57.72
773.657	57.4
773.835	55.05
774.013	55.17
774.19	54.96
774.368	54.53
774.545	54.25
774.723	54.07
774.9	53.91
775.077	52.68
775.255	52.21
775.432	52.24
775.61	51.34
775.787	52.53
775.964	51.63
776.142	50.33
776.319	50.97
776.496	52.66
776.674	52.45
776.851	52.57
777.028	54.57
777.205	54.35
777.382	54.11
777.56	55.32
777.737	58.71
777.914	59.86
778.091	61.04
778.268	60.49
778.445	59.82
778.622	59.41
778.8	58.15
778.977	56.3
779.154	58.44
779.331	57.51
779.508	56.58
779.685	52.4
779.862	52.1
780.038	51.17
780.215	53.11
780.392	51.92
780.569	54.5
780.746	54.53
780.923	53.55
781.1	51.26
781.277	52.32
781.453	51.52
781.63	52.24
781.807	52.49
781.984	53.94
782.16	53.68
782.337	54.96
782.514	52.59
782.691	53.17
782.867	54.02
783.044	56.77
783.221	56.74
783.397	58.32
783.574	58.54
783.75	56.63
783.927	57.99
784.103	56.45
784.28	55.47
784.456	55.53
784.633	54.85
784.809	55.49
784.986	50.8
785.162	50.24
785.339	49.55
785.515	50.23
785.692	50.38
785.868	49.33
786.044	50.4
786.221	49.76
786.397	52.17
786.573	51.01
786.749	51.21
786.926	53.29
787.102	52.81
787.278	52.97
787.454	53.54
787.631	55.33
787.807	55.5
787.983	56.68
788.159	57.22
788.335	57.07
788.511	59.06
788.687	57.64
788.863	58.5
789.039	60.29
789.216	59.5
789.392	59.3
789.568	58.32
789.744	57.73
789.919	55.7
790.095	55.49
790.271	53.73
790.447	52.42
790.623	53.82
790.799	55.23
790.975	54.02
791.151	55.77
791.327	54.68
791.502	53.56
791.678	54.95
791.854	56.33
792.03	55.43
792.205	56.49
792.381	55.94
792.557	55.14
792.733	52.28
792.908	54.7
793.084	55.04
793.259	54.27
793.435	53.56
793.611	54.46
793.786	53.21
793.962	52.87
794.137	52.09
794.313	52.35
794.488	54.7
794.664	55.93
794.839	54.15
795.015	54.25
795.19	54.97
795.366	57.44
795.541	56.25
795.716	53.41
795.892	53.8
796.067	53.83
796.242	56.44
796.418	54.13
796.593	55.05
796.768	55.19
796.944	55.13
797.119	55.82
797.294	55.8
797.469	54.8
797.644	55.19
797.82	57.67
797.995	60.08
798.17	56.72
798.345	59.45
798.52	59.26
798.695	60
798.87	58.25
799.045	58.54
799.22	57.6
799.395	57.46
799.57	58.35
799.745	58.93
799.92	55.88
800.095	55.91
800.27	52.73
800.445	53.5
800.62	51.42
800.795	51.44
800.97	52.56
801.145	51.43
801.319	51.28
801.494	52.44
801.669	53.26
801.844	53.58
802.018	56.13
802.193	57.26
802.368	52.08
802.543	50.93
802.717	54.49
802.892	50.76
803.067	55.11
803.241	55.14
803.416	54.76
803.59	55.87
803.765	55.8
803.94	57.99
804.114	56.79
804.289	60.09
804.463	63.48
804.638	61.33
804.812	61.33
804.986	58.25
805.161	59.11
805.335	62.4
805.51	59.59
805.684	62.32
805.858	59.78
806.033	63.95
806.207	65.01
806.381	64.59
806.556	66.52
806.73	69.23
806.904	68.19
807.078	68.19
807.253	66.57
807.427	63.3
807.601	61.5
807.775	62.41
807.949	59.91
808.123	57.5
808.298	56.11
808.472	53.75
808.646	53.39
808.82	54.46
808.994	51.69
809.168	51.12
809.342	56.99
809.516	56.48
809.69	54.24
809.864	55.07
810.038	53.95
810.212	55.84
810.385	55.76
810.559	56.44
810.733	56.69
810.907	58.52
811.081	58.17
811.255	54.65
811.428	54.91
811.602	54.92
811.776	55.38
811.95	59.17
812.123	57.7
812.297	60.59
812.471	59.77
812.644	63.63
812.818	62.07
812.992	65.82
813.165	67.6
813.339	69.59
813.512	69.57
813.686	68.86
813.86	68.56
814.033	67.69
814.207	63.33
814.38	63.62
814.554	60.7
814.727	64.71
814.9	64.54
815.074	58.26
815.247	54.08
815.421	52.26
815.594	53.89
815.767	53.24
815.941	51.49
816.114	54.46
816.287	55.23
816.46	55.5
816.634	53.72
816.807	51.97
816.98	53.64
817.153	55.28
817.327	58.31
817.5	56.75
817.673	58.68
817.846	59.81
818.019	59.36
818.192	58.26
818.365	57.67
818.538	58.16
818.711	57.05
818.884	55.73
819.057	57.44
819.23	56.53
819.403	56.41
819.576	54.6
819.749	57.64
819.922	57.46
820.095	57.24
820.268	55.5
820.441	55.61
820.614	57.68
820.786	59.44
820.959	58.38
821.132	56.73
821.305	53.72
821.477	53.05
821.65	50.75
821.823	51.65
821.996	51.31
822.168	51.69
822.341	50.68
822.514	49.58
822.686	49.17
822.859	49.31
823.031	49.46
823.204	50.01
823.376	49.88
823.549	50.34
823.722	49.54
823.894	49.74
824.067	49.92
824.239	50.34
824.411	50.46
824.584	50.8
824.756	50.47
824.929	50.52
825.101	50.95
825.273	51.4
825.446	51.57
825.618	52.13
825.79	52.16
825.963	51.52
826.135	51.54
826.307	51.87
826.479	51.35
826.652	51.72
826.824	52.47
826.996	51.96
827.168	52.17
827.34	52.65
827.512	53.1
827.684	53.35
827.856	53.88
828.029	53.86
828.201	53.82
828.373	54.3
828.545	54.35
828.717	53.23
828.889	54.46
829.061	55.17
829.232	55.1
829.404	55.32
829.576	55.53
829.748	55.78
829.92	57.62
830.092	58.41
830.264	58.65
830.436	58.75
830.607	60.02
830.779	60.86
830.951	59.7
831.123	59.44
831.294	58.06
831.466	57.51
831.638	57.48
831.809	55.17
831.981	54.76
832.153	54.24
832.324	53.89
832.496	54.25
832.667	54.54
832.839	59
833.011	57.25
833.182	58.34
833.354	57.88
833.525	57.66
833.697	55.28
833.868	54.02
834.039	55.65
834.211	54.72
834.382	55.82
834.554	53.42
834.725	50.88
834.896	50.57
835.068	50.92
835.239	51.71
835.41	52.18
835.581	53.12
835.753	53.99
835.924	53.53
836.095	54.08
836.266	53.07
836.438	54.91
836.609	54.32
836.78	56.44
836.951	57.61
837.122	59.14
837.293	59.53
837.464	60.37
837.635	61.35
837.806	58.71
837.977	59.43
838.148	61.24
838.319	60.52
838.49	63.16
838.661	61.48
838.832	62.02
839.003	59.63
839.174	58.95
839.345	65.73
839.516	67.88
839.687	73.87
839.857	73.58
840.028	74.87
840.199	73.63
840.37	74.78
840.54	77.73
840.711	74.65
840.882	74.07
841.053	76.1
841.223	74.46
841.394	75.51
841.564	81.56
841.735	84.03
841.906	81.84
842.076	81.68
842.247	77.53
842.417	77.75
842.588	75.45
842.758	79.87
842.929	74.36
843.099	71.01
843.27	65.16
843.44	57.17
843.611	58.53
843.781	57.63
843.951	61.53
844.122	61.82
844.292	50.31
844.462	54.16
844.633	55.79
844.803	59.48
844.973	59.49
845.144	65.97
845.314	65.62
845.484	65.05
845.654	61.47
845.824	61.49
845.995	58.27
846.165	65.99
846.335	65.68
846.505	60.09
846.675	57.5
846.845	54.37
847.015	58.67
847.185	55.39
847.355	50.34
847.525	57.35
847.695	55.9
847.865	51.49
848.035	62.96
848.205	57.89
848.375	70.65
848.545	68.35
848.715	68.26
848.884	54.84
849.054	58.18
849.224	60.65
849.394	61.76
849.564	60.39
849.733	72.33
849.903	66.36
850.073	67.41
850.243	63.36
850.412	82.52
850.582	88.32
850.752	89.15
850.921	86
851.091	88.82
851.26	94.25
851.43	86.36
851.599	82.77
851.769	80.11
851.939	84.94
852.108	71.12
852.278	55.55
852.447	45.39
852.616	52.81
852.786	57.09
852.955	62.58
853.125	64.09
853.294	74.81
853.463	75.56
853.633	75.35
853.802	79.93
853.971	99.2
854.141	99.42
854.31	112.16
854.479	104.4
854.648	113.53
854.818	99.22
854.987	96.52
855.156	85.28
855.325	76.68
855.494	84.28
855.663	75.09
855.832	82.21
856.001	73.58
856.171	56.57
856.34	68.56
856.509	72.49
856.678	95.43
856.847	84.55
857.016	90.5
857.185	85.41
857.353	92.58
857.522	98.25
857.691	84.18
857.86	86.53
858.029	92.38
858.198	85.01
858.367	90.68
858.535	76.94
858.704	88.25
858.873	92.26
859.042	93.53
859.21	93.56
859.379	77.66
859.548	70.94
859.717	75.72
859.885	78.98
860.054	80.23
860.222	56.85
860.391	48.93
860.56	50.11
860.728	45.45
860.897	48.05
861.065	44.05
861.234	46.04
861.402	50.66
861.571	49.79
861.739	55.37
861.908	52.84
862.076	66.91
862.244	79.34
862.413	78.6
862.581	82.15
862.749	75.13
862.918	63.7
863.086	74.93
863.254	82.42
863.423	86.92
863.591	66.35
863.759	78.13
863.927	70.68
864.096	58.94
864.264	57.91
864.432	57.27
864.6	67.33
864.768	90.61
864.936	79.24
865.104	79.52
865.272	80.53
865.44	83.47
865.608	78.45
865.776	86.55
865.944	96.11
866.112	100.86
866.28	105.43
866.448	100.27
866.616	95.86
866.784	82.18
866.952	79.03
867.12	83.21
867.288	85.97
867.455	91.98
867.623	83.39
867.791	80.11
867.959	75.75
868.127	64.9
868.294	56.26
868.462	46.08
868.63	53.85
868.797	54.59
868.965	48.97
869.133	66.43
869.3	63.11
869.468	82.1
869.636	69.32
869.803	80.38
869.971	75.09
870.138	82.37
870.306	91.29
870.473	97.61
870.641	94.98
870.808	85.14
870.975	78.77
871.143	75.82
871.31	57.88
871.478	57.16
871.645	50.55
871.812	69.48
871.98	67.74
872.147	56.04
872.314	50.07
872.482	54.69
872.649	58.49
872.816	62.47
872.983	72.17
873.15	78.16
873.318	81.2
873.485	83.27
873.652	73.45
873.819	78.19
873.986	99.37
874.153	106.34
874.32	119.45
874.487	137.3
874.654	153.28
874.821	154.62
874.988	157.44
875.155	171.2
875.322	131.03
875.489	131.2
875.656	117.51
875.823	110.45
875.99	105.8
876.157	82.61
876.324	76.1
876.49	69.38
876.657	74.53
876.824	75.79
876.991	69.17
877.157	66.93
877.324	66.22
877.491	70.49
877.658	61.53
877.824	61.24
877.991	62.55
878.157	68.47
878.324	71.18
878.491	63.88
878.657	61.37
878.824	68.63
878.99	73.12
879.157	78.63
879.323	78.95
879.49	84.36
879.656	82.93
879.823	91.13
879.989	88.75
880.156	90.52
880.322	83.58
880.488	84.23
880.655	75.4
880.821	73.36
880.987	76.96
881.154	75.06
881.32	75.94
881.486	73.5
881.652	73.78
881.819	68.42
881.985	68.48
882.151	70.26
882.317	67.06
882.483	68.8
882.649	68.29
882.816	63.16
882.982	62.34
883.148	59.54
883.314	58.47
883.48	55.07
883.646	53.95
883.812	52.67
883.978	52.72
884.144	52.86
884.31	53.28
884.476	52.3
884.642	53.44
884.807	52.38
884.973	51.06
885.139	51.99
885.305	53.2
885.471	53.72
885.637	54.54
885.802	55.48
885.968	57.38
886.134	56.63
886.3	59.31
886.465	59.07
886.631	60.97
886.797	65.38
886.962	65.9
887.128	67.59
887.293	71.79
887.459	64.64
887.625	65.83
887.79	61.99
887.956	61.28
888.121	57.27
888.287	57.54
888.452	56.44
888.618	52.23
888.783	51.72
