Data from CB_011_Reflection_1.txt Node
Date: Wed Nov 11 18:47:12 EST 2015
User: robert
Spectrometer: USB4E03001
Autoset integration time: false
Trigger mode: 4
Integration Time (sec): 1.000000E-1
Scans to average: 15
Electric dark correction enabled: true
Nonlinearity correction enabled: false
Boxcar width: 5
Stray light correction enabled: false
XAxis mode: Wavelengths
Stop averaging: false
Number of Pixels in Spectrum: 3648
>>>>>Begin Spectral Data<<<<<
177.566	86.19
177.785	280.61
178.005	63.57
178.225	-80.79
178.445	77.46
178.665	135.84
178.885	7.23
179.105	113.27
179.324	58.6
179.544	16.54
179.764	32.82
179.984	105.95
180.204	-27.73
180.423	108.24
180.643	89.12
180.863	319.76
181.083	1937.19
181.302	277.79
181.522	-1024.85
181.742	-371
181.961	292.89
182.181	174.1
182.401	233.22
182.621	948.05
182.84	213.98
183.06	224.13
183.279	246.93
183.499	640.32
183.719	593.94
183.938	303.29
184.158	597.84
184.377	-922.05
184.597	-189.19
184.816	-107.44
185.036	-452.27
185.256	-108.76
185.475	526.21
185.695	-6429.89
185.914	236.29
186.134	157.84
186.353	230.23
186.572	376.26
186.792	253.51
187.011	187.6
187.231	199.35
187.45	238.32
187.67	232.29
187.889	1868.99
188.108	649.81
188.328	863.52
188.547	-485.26
188.766	-574.07
188.986	323.44
189.205	-12131.82
189.424	411.49
189.644	2366.94
189.863	234.91
190.082	217.96
190.302	181.14
190.521	108.14
190.74	106.3
190.959	116.15
191.178	133.32
191.398	110.53
191.617	94.71
191.836	92.56
192.055	96.4
192.274	69.84
192.494	79.4
192.713	82.91
192.932	75.01
193.151	75.41
193.37	93.76
193.589	78.91
193.808	77.63
194.027	90.84
194.246	105.24
194.465	102.27
194.685	110.61
194.904	149.12
195.123	322.02
195.342	1895.52
195.561	240.12
195.78	146.97
195.999	213.29
196.218	810.94
196.436	-440.06
196.655	-1331.12
196.874	856.31
197.093	709.79
197.312	529.19
197.531	-96.12
197.75	-99.72
197.969	-15.48
198.188	1.91
198.407	45.86
198.625	-66.14
198.844	49.55
199.063	-103.52
199.282	-50.76
199.501	7.54
199.719	-84.48
199.938	-2032.81
200.157	212.89
200.376	141.85
200.594	192.94
200.813	-10782.86
201.032	698
201.251	174.78
201.469	177.1
201.688	119.58
201.907	148.57
202.125	71.97
202.344	56.78
202.563	62.8
202.781	112.05
203	95.4
203.218	69.98
203.437	88.84
203.656	83.8
203.874	69.3
204.093	68.83
204.311	59.49
204.53	44.83
204.748	32.44
204.967	19.92
205.185	17.77
205.404	27.59
205.622	26.83
205.841	35.61
206.059	16.22
206.278	10.11
206.496	0.85
206.715	35.21
206.933	174.76
207.151	181.91
207.37	205.77
207.588	203.13
207.806	246.71
208.025	191.1
208.243	74.02
208.461	121.85
208.68	136.38
208.898	140.5
209.116	98.79
209.335	71.78
209.553	61.88
209.771	145.63
209.989	-1375.22
210.208	-1024.87
210.426	-656.05
210.644	-200.41
210.862	-111.38
211.081	-117.02
211.299	-141.36
211.517	-267.89
211.735	-173.85
211.953	-356.16
212.171	-60.22
212.39	-499.67
212.608	-2195.31
212.826	330.85
213.044	283.06
213.262	187.96
213.48	132.29
213.698	277.08
213.916	-1318.72
214.134	-331.33
214.352	-805.81
214.57	424
214.788	98.21
215.006	55
215.224	79.73
215.442	45.55
215.66	70.48
215.878	106.38
216.096	92.68
216.314	77.14
216.532	96.43
216.75	111.24
216.968	113.26
217.185	179.67
217.403	218.69
217.621	267.56
217.839	303.27
218.057	4888.44
218.275	-1936.85
218.492	-189.54
218.71	-141
218.928	-132.42
219.146	-1.3
219.363	-0.04
219.581	-44.28
219.799	-40.62
220.017	-17.84
220.234	-30.39
220.452	-49.26
220.67	-11.91
220.887	-35.23
221.105	-5.92
221.323	-51.36
221.54	0.12
221.758	29.5
221.976	43.19
222.193	34.63
222.411	4.39
222.629	3.36
222.846	6.33
223.064	26.2
223.281	3.24
223.499	-45.45
223.716	-49.12
223.934	-308.08
224.151	-935.51
224.369	-482.03
224.586	208425
224.804	-588.53
225.021	-238.13
225.239	-155.95
225.456	-176.21
225.674	-159.53
225.891	-37.71
226.108	-53.08
226.326	-44.74
226.543	-22.23
226.76	-16.21
226.978	-5.47
227.195	-1.58
227.413	-1.38
227.63	-5.05
227.847	-9.32
228.064	-7.41
228.282	-4.24
228.499	4.04
228.716	4.59
228.934	6.55
229.151	6.24
229.368	7.97
229.585	2.29
229.802	2.42
230.02	2.58
230.237	0.59
230.454	4.73
230.671	8.16
230.888	1.44
231.105	-1.17
231.323	1.53
231.54	3.7
231.757	-2.19
231.974	2.82
232.191	2.16
232.408	4.33
232.625	7.13
232.842	8.87
233.059	7.69
233.276	11.74
233.493	17.65
233.71	12.25
233.927	12.47
234.144	18.7
234.361	19.75
234.578	24.24
234.795	25.62
235.012	27.82
235.229	20.79
235.446	18.01
235.663	11.8
235.879	15.73
236.096	18.04
236.313	6.38
236.53	2.51
236.747	0.91
236.964	-3.91
237.181	-12.89
237.397	-7.28
237.614	-5.74
237.831	-10.25
238.048	-1.25
238.264	-5.89
238.481	-6.32
238.698	4.14
238.915	-4.41
239.131	-2.45
239.348	-0.71
239.565	8.14
239.781	4.41
239.998	9.93
240.215	12.66
240.431	13.94
240.648	14.61
240.865	15.75
241.081	10.32
241.298	13.4
241.514	12.94
241.731	13.67
241.947	11.4
242.164	10.42
242.38	8.79
242.597	8.62
242.814	6.29
243.03	4.9
243.246	4.86
243.463	7.59
243.679	8.1
243.896	9.02
244.112	7.6
244.329	8.69
244.545	9.87
244.762	9.7
244.978	12.09
245.194	13.51
245.411	13.21
245.627	9.14
245.843	8.92
246.06	8.06
246.276	8.19
246.492	6.69
246.709	7.35
246.925	6.58
247.141	6.87
247.357	6.3
247.574	7.1
247.79	7.41
248.006	8.25
248.222	8.13
248.439	8.2
248.655	8.3
248.871	9.48
249.087	10.7
249.303	11.25
249.519	11.63
249.736	10.27
249.952	9.33
250.168	8.83
250.384	7.75
250.6	5.57
250.816	6.82
251.032	4.61
251.248	4.87
251.464	1.54
251.68	1.25
251.896	1.38
252.112	1.68
252.328	2.62
252.544	3.76
252.76	4.4
252.976	7.31
253.192	7.3
253.408	7.6
253.624	7.79
253.84	3.97
254.056	2.98
254.272	1.82
254.487	3.48
254.703	4.46
254.919	3.14
255.135	4.26
255.351	-1.38
255.567	-3.55
255.782	-1.23
255.998	-2.96
256.214	1.03
256.43	3.01
256.646	3.3
256.861	0.45
257.077	-1.68
257.293	-4.63
257.508	-4.53
257.724	-2.85
257.94	-2.15
258.155	-3.82
258.371	-1.19
258.587	0.12
258.802	-0.34
259.018	0.82
259.234	2.19
259.449	2.78
259.665	3.78
259.88	4.26
260.096	4.22
260.312	5.04
260.527	5.7
260.743	5.24
260.958	5.22
261.174	5.81
261.389	4.99
261.605	4.97
261.82	4.75
262.036	4.21
262.251	3.59
262.466	3.92
262.682	1.65
262.897	1.69
263.113	1.19
263.328	0.9
263.543	0.6
263.759	0.85
263.974	-0.29
264.189	1.04
264.405	1.02
264.62	1.49
264.835	1.24
265.051	2.69
265.266	0.26
265.481	1.24
265.696	1.54
265.912	1.97
266.127	3.87
266.342	3.22
266.557	-0.51
266.773	0.67
266.988	0.22
267.203	-0.39
267.418	-0.91
267.633	-0.82
267.848	-1.93
268.064	-1.83
268.279	-3
268.494	-3.65
268.709	-1.84
268.924	0.7
269.139	0.6
269.354	2.84
269.569	4.13
269.784	5.27
269.999	5.6
270.214	6.45
270.429	4.85
270.644	5.19
270.859	4.19
271.074	4.63
271.289	4.76
271.504	5.21
271.719	4.27
271.934	3.82
272.149	3.17
272.363	3.88
272.578	3.51
272.793	6.08
273.008	6.04
273.223	7.29
273.438	6.67
273.653	6.41
273.867	6.44
274.082	4.63
274.297	4.88
274.512	4.4
274.726	4.35
274.941	5.13
275.156	4.13
275.371	4.49
275.585	2.79
275.8	2.81
276.015	2.33
276.229	-0.11
276.444	1.39
276.659	-0.39
276.873	-1.3
277.088	-1.34
277.302	-2.17
277.517	-2.17
277.732	-2.46
277.946	-2.27
278.161	-3.22
278.375	-3.66
278.59	-0.69
278.804	-1.23
279.019	2.55
279.233	5.2
279.448	5.6
279.662	6.08
279.877	4.4
280.091	5.65
280.306	6.77
280.52	6.21
280.735	5.56
280.949	6.28
281.163	8.7
281.378	7.47
281.592	7.55
281.806	6.71
282.021	5.7
282.235	5.98
282.449	4.55
282.664	3.61
282.878	4.92
283.092	7.45
283.307	6.39
283.521	6.26
283.735	6.95
283.949	5.51
284.164	6.09
284.378	8.42
284.592	9.08
284.806	8.96
285.02	9.28
285.234	9.76
285.449	9.59
285.663	8.81
285.877	8.03
286.091	7.41
286.305	8.31
286.519	8.28
286.733	7.41
286.947	7.53
287.161	8.09
287.375	8.35
287.589	7.58
287.803	7.54
288.017	7.56
288.231	6.87
288.445	7.96
288.659	7.64
288.873	7.35
289.087	7.48
289.301	7.15
289.515	7.32
289.729	6.33
289.943	6.96
290.157	5.49
290.371	5.45
290.584	6.98
290.798	6.89
291.012	6.89
291.226	8.24
291.44	7.59
291.654	7.36
291.867	8.49
292.081	9.15
292.295	8.78
292.509	9.17
292.722	10.07
292.936	8.29
293.15	7.19
293.364	7.27
293.577	7.45
293.791	8.04
294.005	9.09
294.218	7.61
294.432	7.44
294.645	8.15
294.859	8.64
295.073	8.64
295.286	9.37
295.5	9.78
295.713	9.66
295.927	9.07
296.14	8.88
296.354	8.34
296.568	8.68
296.781	8.47
296.994	7.41
297.208	7.07
297.421	8.47
297.635	8.49
297.848	8.6
298.062	9.18
298.275	8.42
298.489	7.99
298.702	8.26
298.915	8.58
299.129	9.4
299.342	9.73
299.555	10.03
299.769	8.92
299.982	8.64
300.195	8.77
300.409	8.16
300.622	9.71
300.835	10.26
301.048	9.97
301.262	9.52
301.475	9.81
301.688	10.98
301.901	10.24
302.115	10.24
302.328	9.96
302.541	9.32
302.754	10.2
302.967	7.79
303.18	8.83
303.393	10.28
303.607	11.01
303.82	10.35
304.033	10.61
304.246	11.91
304.459	11.05
304.672	12.06
304.885	13.12
305.098	11.9
305.311	13.7
305.524	11.72
305.737	10.11
305.95	9.05
306.163	10.64
306.376	10.37
306.589	10.13
306.802	11.5
307.015	10.66
307.228	9.8
307.44	11.11
307.653	11.1
307.866	12.68
308.079	13.65
308.292	15.01
308.505	14.61
308.718	14.27
308.93	14.11
309.143	15.22
309.356	14.79
309.569	15.15
309.781	15.2
309.994	14.02
310.207	14.16
310.42	14.05
310.632	13.62
310.845	13.59
311.058	14.45
311.27	14.24
311.483	13.29
311.696	13.82
311.908	13.86
312.121	13.59
312.333	13.48
312.546	13.73
312.759	13.15
312.971	12.84
313.184	12.41
313.396	12.35
313.609	14.19
313.821	14
314.034	13.91
314.246	13
314.459	13.06
314.671	15.12
314.884	15.38
315.096	16.09
315.309	15.89
315.521	15.69
315.733	14.2
315.946	12.56
316.158	12.55
316.371	13.02
316.583	12.97
316.795	13.19
317.008	11.57
317.22	11.75
317.432	12.32
317.644	11.74
317.857	11.75
318.069	11.77
318.281	10.62
318.494	9.69
318.706	9.58
318.918	10.17
319.13	9.57
319.342	10.53
319.555	9.53
319.767	8.08
319.979	9.55
320.191	8.36
320.403	8.66
320.615	10.52
320.827	10.71
321.039	10.72
321.252	11.24
321.464	10.62
321.676	10.82
321.888	10.38
322.1	11.27
322.312	10.73
322.524	13.87
322.736	13.95
322.948	13.97
323.16	15.48
323.372	15.39
323.584	15.39
323.796	16.24
324.007	15.88
324.219	16.17
324.431	16.66
324.643	17.33
324.855	15.55
325.067	15.88
325.279	16.07
325.491	15.04
325.702	16.09
325.914	16.38
326.126	16.03
326.338	15.33
326.55	16.55
326.761	16.77
326.973	17.06
327.185	18.24
327.396	17.97
327.608	17.52
327.82	19.35
328.032	18.53
328.243	18.2
328.455	17.92
328.666	18.81
328.878	18.2
329.09	17.46
329.301	16
329.513	15.59
329.725	15.65
329.936	15.35
330.148	13.69
330.359	12.87
330.571	13.31
330.782	14.33
330.994	14.11
331.205	12.93
331.417	13.98
331.628	14.69
331.84	15.18
332.051	15.55
332.262	16.19
332.474	17.18
332.685	18.12
332.897	18.24
333.108	18.43
333.319	19.12
333.531	19.92
333.742	19.5
333.953	19.84
334.165	18.57
334.376	18.16
334.587	17.81
334.799	16.62
335.01	17.37
335.221	17.75
335.432	18.35
335.644	18.24
335.855	18.56
336.066	18.18
336.277	17.78
336.488	18.49
336.7	18.61
336.911	20.05
337.122	20.5
337.333	20.28
337.544	19.83
337.755	18.92
337.966	18.57
338.177	18.84
338.388	18.7
338.599	18.96
338.811	19.61
339.022	19.77
339.233	17.75
339.444	17.94
339.655	18.6
339.866	19.37
340.076	19.73
340.287	19.5
340.498	19.01
340.709	19.59
340.92	18.88
341.131	18.42
341.342	18.52
341.553	19.59
341.764	19.59
341.975	18.27
342.185	17.66
342.396	18.39
342.607	18.19
342.818	17.09
343.029	16.45
343.239	17.65
343.45	17.33
343.661	17.22
343.872	17.51
344.082	17.06
344.293	16.91
344.504	17.41
344.714	16.52
344.925	17.14
345.136	17.67
345.346	18.48
345.557	18.24
345.768	18.06
345.978	18.37
346.189	17.81
346.399	18.64
346.61	19.45
346.821	19.62
347.031	19.23
347.242	18.57
347.452	18.38
347.663	18.21
347.873	17.95
348.084	18.2
348.294	17.39
348.504	16.74
348.715	16.75
348.925	16.62
349.136	15.84
349.346	16.94
349.557	18.41
349.767	18.57
349.977	18.34
350.188	18.85
350.398	18.52
350.608	19.19
350.819	19.92
351.029	19.12
351.239	19.82
351.449	19.37
351.66	19.21
351.87	18.06
352.08	18.97
352.29	19.06
352.501	18.72
352.711	19.16
352.921	18.19
353.131	18.12
353.341	18.54
353.552	17.67
353.762	18.25
353.972	17.98
354.182	18.65
354.392	17.52
354.602	17.63
354.812	16.34
355.022	16.57
355.232	17
355.442	16.31
355.652	15.57
355.862	15.73
356.072	15.19
356.282	15.11
356.492	14.77
356.702	16.12
356.912	15.15
357.122	15.55
357.332	15.1
357.542	15.22
357.752	15.92
357.962	16.37
358.171	16.14
358.381	16.12
358.591	16.12
358.801	16.61
359.011	15.81
359.221	15.91
359.43	16.26
359.64	16.89
359.85	17.92
360.06	18.08
360.269	18.27
360.479	18.2
360.689	18.25
360.899	18.3
361.108	18.09
361.318	17.98
361.528	18.39
361.737	18.29
361.947	17.91
362.156	17.06
362.366	17.25
362.576	17.07
362.785	16.99
362.995	17.32
363.204	16.93
363.414	16.67
363.623	16.49
363.833	16.28
364.042	16.42
364.252	16.73
364.461	17.14
364.671	16.52
364.88	16.24
365.09	15.71
365.299	15.52
365.509	15.87
365.718	15.73
365.927	15.89
366.137	16.05
366.346	15.63
366.555	15.01
366.765	14.73
366.974	14.74
367.183	14.83
367.393	15.74
367.602	15.37
367.811	15.63
368.021	15.31
368.23	15.85
368.439	15.31
368.648	15.9
368.857	16.03
369.067	15.4
369.276	15.66
369.485	15.66
369.694	15.57
369.903	15.1
370.112	14.25
370.321	14.1
370.531	13.63
370.74	13.15
370.949	12.24
371.158	11.7
371.367	11.9
371.576	11.33
371.785	11.63
371.994	11.06
372.203	11.04
372.412	11.43
372.621	12.2
372.83	12.13
373.039	13.21
373.248	13.62
373.457	13.52
373.666	13.75
373.874	13.74
374.083	13.79
374.292	13.96
374.501	14.21
374.71	13.98
374.919	13.55
375.128	13.69
375.336	13.15
375.545	12.57
375.754	12.41
375.963	12.04
376.171	12.44
376.38	11.96
376.589	11.68
376.798	11.46
377.006	11.47
377.215	11.34
377.424	11.04
377.632	10.72
377.841	10.97
378.05	10.68
378.258	10.35
378.467	9.83
378.675	9.78
378.884	9.3
379.093	9.32
379.301	9.25
379.51	9.41
379.718	9.48
379.927	9.93
380.135	9.94
380.344	10.41
380.552	10.8
380.761	11.06
380.969	11.15
381.177	11.68
381.386	11.56
381.594	11.51
381.803	10.88
382.011	10.81
382.219	10.4
382.428	10.13
382.636	10.49
382.845	10.34
383.053	10.33
383.261	9.64
383.469	10.01
383.678	10.13
383.886	10.25
384.094	10.36
384.302	10.05
384.511	10.13
384.719	10.5
384.927	10.77
385.135	10.61
385.343	10.59
385.552	11.02
385.76	10.6
385.968	10.61
386.176	10.7
386.384	10.86
386.592	10.52
386.8	10.22
387.008	10.06
387.216	9.29
387.424	9.79
387.633	9.58
387.841	9.48
388.049	9.37
388.257	9.44
388.465	9.17
388.672	8.62
388.88	8.89
389.088	8.95
389.296	8.7
389.504	8.81
389.712	8.32
389.92	8.09
390.128	8.18
390.336	7.79
390.544	7.61
390.751	7.45
390.959	7.49
391.167	7.61
391.375	7.94
391.583	8.07
391.79	7.89
391.998	8.1
392.206	8.06
392.414	7.95
392.621	8.29
392.829	8.17
393.037	7.96
393.244	7.99
393.452	7.77
393.66	7.63
393.867	7.84
394.075	7.96
394.283	7.54
394.49	7.64
394.698	7.46
394.905	7.16
395.113	7.07
395.32	7.12
395.528	7.15
395.735	7.24
395.943	6.72
396.15	6.34
396.358	6.13
396.565	6.23
396.773	6.19
396.98	6.16
397.188	6.15
397.395	6.42
397.602	6.64
397.81	6.69
398.017	6.84
398.225	7.21
398.432	7.25
398.639	7.69
398.847	7.69
399.054	7.56
399.261	7.49
399.468	7.5
399.676	7.49
399.883	7.35
400.09	7.45
400.297	7.1
400.505	6.91
400.712	6.88
400.919	6.32
401.126	6.51
401.333	6.58
401.54	6.7
401.748	6.62
401.955	6.37
402.162	6.1
402.369	6.08
402.576	6.08
402.783	5.96
402.99	6.02
403.197	6.3
403.404	5.56
403.611	5.35
403.818	4.88
404.025	5.22
404.232	5.26
404.439	5.1
404.646	4.86
404.853	5.05
405.06	5.22
405.267	5.07
405.474	4.88
405.681	5.57
405.887	5.73
406.094	6.45
406.301	6.4
406.508	6.6
406.715	6.92
406.922	7.15
407.128	7.06
407.335	6.92
407.542	6.81
407.749	6.82
407.955	6.45
408.162	6.8
408.369	6.79
408.575	6.62
408.782	6.69
408.989	6.76
409.195	6.99
409.402	7.17
409.609	7.34
409.815	7.7
410.022	7.92
410.228	7.9
410.435	7.78
410.642	7.62
410.848	7.75
411.055	7.44
411.261	7.37
411.468	7.09
411.674	6.9
411.881	6.61
412.087	6.37
412.294	6.17
412.5	6.37
412.706	6.3
412.913	5.86
413.119	5.95
413.326	6.12
413.532	6
413.738	5.91
413.945	5.74
414.151	5.82
414.357	5.86
414.564	5.87
414.77	5.85
414.976	5.49
415.182	5.83
415.389	5.64
415.595	5.46
415.801	5.57
416.007	5.71
416.214	5.89
416.42	5.91
416.626	6.03
416.832	6.23
417.038	6.07
417.244	6.09
417.45	6.01
417.657	5.92
417.863	6
418.069	6.07
418.275	6.08
418.481	6
418.687	6
418.893	5.89
419.099	5.8
419.305	6.05
419.511	6.18
419.717	6.29
419.923	6.31
420.129	6.41
420.335	6.26
420.541	6.2
420.746	6.32
420.952	6.36
421.158	6.4
421.364	6.33
421.57	6.21
421.776	6.1
421.982	5.83
422.187	5.92
422.393	5.77
422.599	5.9
422.805	5.89
423.01	5.84
423.216	5.71
423.422	5.65
423.628	5.71
423.833	5.77
424.039	5.8
424.245	6.09
424.45	6
424.656	6
424.862	5.97
425.067	6.03
425.273	6.06
425.478	6.23
425.684	6.37
425.889	6.42
426.095	6.29
426.301	6.38
426.506	6.39
426.712	6.41
426.917	6.64
427.123	6.5
427.328	6.39
427.533	6.34
427.739	6.32
427.944	6.18
428.15	6
428.355	6.26
428.561	6.15
428.766	5.81
428.971	5.82
429.177	5.68
429.382	5.74
429.587	5.75
429.793	5.42
429.998	5.3
430.203	5.31
430.408	5.27
430.614	4.84
430.819	4.89
431.024	4.97
431.229	5.15
431.434	5.06
431.64	4.97
431.845	5.04
432.05	5.52
432.255	5.44
432.46	5.4
432.665	5.5
432.87	5.69
433.076	5.77
433.281	5.63
433.486	5.36
433.691	5.35
433.896	5.36
434.101	5.43
434.306	5.34
434.511	5.25
434.716	5.21
434.921	5.3
435.126	5.33
435.331	5.03
435.535	5.28
435.74	5.63
435.945	5.64
436.15	5.64
436.355	5.57
436.56	5.45
436.765	5.64
436.97	5.66
437.174	5.61
437.379	5.65
437.584	5.86
437.789	5.75
437.993	5.6
438.198	5.71
438.403	5.89
438.608	5.85
438.812	5.86
439.017	5.73
439.222	5.76
439.426	5.73
439.631	5.64
439.836	5.73
440.04	5.89
440.245	5.91
440.45	5.81
440.654	5.77
440.859	5.81
441.063	5.62
441.268	5.79
441.472	5.8
441.677	5.64
441.881	5.65
442.086	5.53
442.29	5.37
442.495	5.26
442.699	5.13
442.904	5.08
443.108	5.09
443.312	5.08
443.517	4.91
443.721	5.03
443.925	5.22
444.13	5.32
444.334	5.52
444.538	5.62
444.743	5.66
444.947	5.78
445.151	5.73
445.356	5.77
445.56	5.77
445.764	5.76
445.968	5.72
446.173	5.72
446.377	5.76
446.581	5.6
446.785	5.58
446.989	5.72
447.193	5.65
447.398	5.73
447.602	5.68
447.806	5.86
448.01	5.9
448.214	5.82
448.418	5.76
448.622	5.73
448.826	5.74
449.03	5.72
449.234	5.54
449.438	5.57
449.642	5.52
449.846	5.32
450.05	5.18
450.254	5.21
450.458	5.24
450.662	5.23
450.866	5.13
451.069	5.19
451.273	5.14
451.477	5.24
451.681	5.32
451.885	5.16
452.089	5.12
452.292	5.19
452.496	5.26
452.7	5.32
452.904	5.48
453.107	5.43
453.311	5.18
453.515	5.13
453.719	4.98
453.922	4.88
454.126	5.07
454.33	5.27
454.533	5.12
454.737	5.24
454.94	4.98
455.144	4.84
455.348	4.84
455.551	5.12
455.755	5.17
455.958	5.11
456.162	5.09
456.365	4.9
456.569	4.75
456.772	4.9
456.976	4.61
457.179	4.59
457.383	4.64
457.586	4.52
457.79	4.48
457.993	4.59
458.196	4.66
458.4	4.79
458.603	4.93
458.807	5.15
459.01	5.1
459.213	5.24
459.417	5.3
459.62	5.26
459.823	5.3
460.026	5.29
460.23	5.24
460.433	5.28
460.636	5.18
460.839	5.23
461.042	5.14
461.246	5.15
461.449	5.08
461.652	5.08
461.855	5.02
462.058	5.07
462.261	4.95
462.464	5.07
462.668	4.98
462.871	5.25
463.074	5.24
463.277	5.39
463.48	5.32
463.683	5.41
463.886	5.59
464.089	5.68
464.292	5.68
464.495	5.73
464.698	5.83
464.901	6.21
465.104	5.96
465.306	5.72
465.509	5.55
465.712	5.61
465.915	5.67
466.118	5.76
466.321	5.65
466.524	5.64
466.726	5.89
466.929	5.48
467.132	4.94
467.335	5.04
467.538	5.14
467.74	5.24
467.943	5.41
468.146	5.43
468.348	5.26
468.551	5.3
468.754	5.37
468.956	5.11
469.159	5.22
469.362	5.49
469.564	5.38
469.767	5.43
469.969	5.5
470.172	5.36
470.375	5.06
470.577	5.03
470.78	5.14
470.982	5.13
471.185	5.37
471.387	5.52
471.59	5.45
471.792	5.54
471.995	5.62
472.197	5.53
472.399	5.52
472.602	5.83
472.804	5.82
473.007	5.87
473.209	5.83
473.411	5.49
473.614	5.42
473.816	5.37
474.018	5.36
474.22	5.12
474.423	5.13
474.625	5.05
474.827	4.76
475.03	4.81
475.232	4.7
475.434	4.65
475.636	4.92
475.838	4.79
476.04	4.88
476.243	4.86
476.445	5.05
476.647	4.98
476.849	5.17
477.051	5.33
477.253	5.26
477.455	5.25
477.657	5.32
477.859	5.37
478.061	5.43
478.263	5.54
478.465	5.45
478.667	5.51
478.869	5.55
479.071	5.37
479.273	5.45
479.475	5.38
479.677	5.41
479.879	5.26
480.081	5.25
480.283	5.24
480.485	5.13
480.686	5.21
480.888	5.02
481.09	4.97
481.292	5.11
481.494	5.07
481.695	5.06
481.897	5.04
482.099	5.18
482.301	5.2
482.502	5.26
482.704	5.23
482.906	5.29
483.107	5.34
483.309	5.38
483.511	5.37
483.712	5.36
483.914	5.38
484.115	5.4
484.317	5.41
484.519	5.4
484.72	5.37
484.922	5.41
485.123	5.39
485.325	5.39
485.526	5.42
485.728	5.44
485.929	5.47
486.131	5.53
486.332	5.48
486.534	5.44
486.735	5.42
486.936	5.48
487.138	5.47
487.339	5.45
487.541	5.37
487.742	5.29
487.943	5.28
488.144	5.33
488.346	5.34
488.547	5.39
488.748	5.43
488.95	5.44
489.151	5.43
489.352	5.41
489.553	5.4
489.755	5.49
489.956	5.5
490.157	5.46
490.358	5.4
490.559	5.38
490.76	5.4
490.961	5.42
491.163	5.29
491.364	5.31
491.565	5.3
491.766	5.39
491.967	5.39
492.168	5.48
492.369	5.46
492.57	5.44
492.771	5.45
492.972	5.41
493.173	5.41
493.374	5.48
493.575	5.37
493.776	5.32
493.976	5.25
494.177	5.18
494.378	5.15
494.579	5.2
494.78	5.28
494.981	5.24
495.182	5.31
495.382	5.23
495.583	5.34
495.784	5.59
495.985	5.64
496.185	5.72
496.386	5.62
496.587	5.62
496.788	5.59
496.988	5.5
497.189	5.58
497.39	5.53
497.59	5.49
497.791	5.47
497.992	5.48
498.192	5.51
498.393	5.52
498.593	5.67
498.794	5.76
498.994	5.95
499.195	5.95
499.395	5.98
499.596	6.04
499.796	6.03
499.997	6.08
500.197	5.88
500.398	5.91
500.598	5.96
500.799	6.03
500.999	5.8
501.199	5.84
501.4	5.85
501.6	5.95
501.801	5.95
502.001	5.91
502.201	5.87
502.402	5.98
502.602	5.96
502.802	6.01
503.002	6.02
503.203	6.18
503.403	5.98
503.603	5.94
503.803	5.72
504.003	5.62
504.204	5.84
504.404	5.99
504.604	6.02
504.804	5.95
505.004	5.77
505.204	5.8
505.404	5.7
505.604	5.66
505.804	5.72
506.005	5.84
506.205	6.05
506.405	6
506.605	6.05
506.805	5.94
507.005	5.92
507.204	5.99
507.404	6.05
507.604	6.19
507.804	6.31
508.004	6.43
508.204	6.49
508.404	6.49
508.604	6.51
508.804	6.58
509.003	6.84
509.203	7.09
509.403	7.15
509.603	7.16
509.803	7.2
510.002	7.29
510.202	7.27
510.402	7.35
510.602	7.29
510.801	7.37
511.001	7.32
511.201	7.24
511.4	7.31
511.6	7.58
511.8	7.57
511.999	7.46
512.199	7.4
512.398	7.46
512.598	7.46
512.797	7.68
512.997	7.68
513.197	7.75
513.396	7.94
513.596	7.98
513.795	7.84
513.994	7.86
514.194	8.12
514.393	8.33
514.593	8.48
514.792	8.53
514.992	8.61
515.191	8.73
515.39	8.7
515.59	8.76
515.789	8.8
515.988	8.81
516.188	9.03
516.387	9.14
516.586	9.17
516.786	9.16
516.985	9.33
517.184	9.21
517.383	9.37
517.582	9.45
517.782	9.44
517.981	9.42
518.18	9.45
518.379	9.47
518.578	9.57
518.777	9.61
518.976	9.73
519.176	9.8
519.375	9.97
519.574	10.08
519.773	10.2
519.972	10.19
520.171	10.27
520.37	10.4
520.569	10.38
520.768	10.32
520.967	10.35
521.166	10.27
521.365	10.24
521.564	10.19
521.762	10.09
521.961	10.08
522.16	10.16
522.359	10.33
522.558	10.44
522.757	10.7
522.956	10.82
523.154	10.92
523.353	11.24
523.552	11.37
523.751	11.58
523.949	11.72
524.148	11.78
524.347	11.99
524.546	12.01
524.744	12.21
524.943	12.21
525.142	12.26
525.34	12.36
525.539	12.32
525.737	12.51
525.936	12.54
526.135	12.64
526.333	12.82
526.532	12.9
526.73	12.91
526.929	12.84
527.127	12.88
527.326	12.99
527.524	13.08
527.723	13.2
527.921	13.19
528.12	13.3
528.318	13.31
528.516	13.45
528.715	13.5
528.913	13.59
529.112	13.7
529.31	13.79
529.508	13.82
529.707	13.87
529.905	13.88
530.103	13.94
530.301	13.91
530.5	13.98
530.698	13.91
530.896	13.9
531.094	14.03
531.293	14.13
531.491	14.17
531.689	14.21
531.887	14.32
532.085	14.48
532.283	14.53
532.481	14.71
532.68	14.83
532.878	14.99
533.076	15.19
533.274	15.3
533.472	15.26
533.67	15.35
533.868	15.51
534.066	15.54
534.264	15.57
534.462	15.63
534.66	15.7
534.858	15.74
535.056	15.72
535.253	15.68
535.451	15.64
535.649	15.84
535.847	15.98
536.045	15.99
536.243	16.09
536.441	16.12
536.638	16.14
536.836	16.19
537.034	16.3
537.232	16.34
537.43	16.44
537.627	16.53
537.825	16.6
538.023	16.65
538.22	16.77
538.418	16.81
538.616	16.96
538.813	17.16
539.011	17.27
539.209	17.23
539.406	17.33
539.604	17.46
539.801	17.44
539.999	17.48
540.196	17.59
540.394	17.84
540.591	17.99
540.789	18.05
540.986	18.07
541.184	18.08
541.381	18.22
541.579	18.25
541.776	18.27
541.974	18.44
542.171	18.5
542.368	18.51
542.566	18.38
542.763	18.33
542.96	18.33
543.158	18.35
543.355	18.43
543.552	18.38
543.75	18.48
543.947	18.53
544.144	18.53
544.341	18.61
544.539	18.68
544.736	18.79
544.933	18.86
545.13	19.08
545.327	19.14
545.524	19.28
545.722	19.37
545.919	19.47
546.116	19.58
546.313	19.61
546.51	19.63
546.707	19.72
546.904	19.69
547.101	19.81
547.298	19.82
547.495	20.09
547.692	20.11
547.889	20.18
548.086	20.23
548.283	20.33
548.48	20.39
548.677	20.38
548.874	20.42
549.07	20.53
549.267	20.65
549.464	20.62
549.661	20.45
549.858	20.48
550.055	20.52
550.251	20.6
550.448	20.73
550.645	20.72
550.842	20.7
551.038	20.65
551.235	20.88
551.432	20.97
551.628	21.07
551.825	21.27
552.022	21.4
552.218	21.57
552.415	21.65
552.612	21.51
552.808	21.51
553.005	21.7
553.201	21.89
553.398	21.73
553.594	21.68
553.791	21.73
553.987	21.83
554.184	21.99
554.38	21.86
554.577	21.86
554.773	21.96
554.97	22.21
555.166	22.16
555.362	22.25
555.559	22.48
555.755	22.5
555.952	22.67
556.148	22.67
556.344	22.59
556.541	23.03
556.737	22.98
556.933	22.78
557.129	22.67
557.326	22.89
557.522	23
557.718	22.97
557.914	23.16
558.11	23.02
558.307	22.94
558.503	23.05
558.699	22.92
558.895	23.09
559.091	23.36
559.287	23.35
559.483	23.5
559.679	23.5
559.876	23.54
560.072	23.56
560.268	23.57
560.464	23.5
560.66	23.49
560.856	23.36
561.052	23.42
561.247	23.71
561.443	23.91
561.639	23.9
561.835	23.87
562.031	24.06
562.227	23.98
562.423	24.35
562.619	24.7
562.815	24.8
563.01	25.04
563.206	25.25
563.402	25.21
563.598	25.41
563.793	25.3
563.989	25.39
564.185	25.31
564.381	25.46
564.576	25.39
564.772	25.48
564.968	25.55
565.163	25.77
565.359	25.64
565.555	25.58
565.75	25.57
565.946	25.7
566.141	25.73
566.337	26.11
566.532	26.17
566.728	26.2
566.923	26.11
567.119	26.15
567.314	26.02
567.51	26.19
567.705	26.32
567.901	26.4
568.096	26.46
568.292	26.34
568.487	26.09
568.682	26.28
568.878	26.43
569.073	26.73
569.268	26.75
569.464	26.99
569.659	26.89
569.854	26.81
570.05	26.84
570.245	26.74
570.44	26.82
570.635	26.92
570.831	26.92
571.026	27.07
571.221	26.85
571.416	26.85
571.611	26.78
571.806	26.77
572.002	26.87
572.197	26.79
572.392	26.91
572.587	27.06
572.782	26.94
572.977	26.98
573.172	26.82
573.367	27.02
573.562	27.01
573.757	27.05
573.952	27.32
574.147	27.25
574.342	27.28
574.537	27.33
574.732	27.31
574.927	27.47
575.121	27.31
575.316	27.25
575.511	27.09
575.706	27.05
575.901	27.13
576.096	26.84
576.29	26.99
576.485	27.3
576.68	27.38
576.875	27.34
577.069	27.3
577.264	27.39
577.459	27.65
577.654	27.94
577.848	28.22
578.043	28.19
578.238	28.59
578.432	28.68
578.627	28.54
578.821	28.71
579.016	29.02
579.21	29.14
579.405	29.41
579.6	29.23
579.794	28.94
579.989	28.75
580.183	28.58
580.378	28.44
580.572	28.6
580.766	28.71
580.961	28.6
581.155	28.76
581.35	28.64
581.544	28.26
581.738	28.32
581.933	28.57
582.127	28.75
582.321	28.94
582.516	29.12
582.71	28.84
582.904	28.75
583.099	28.92
583.293	28.67
583.487	28.81
583.681	28.74
583.875	29.07
584.07	28.98
584.264	28.91
584.458	28.92
584.652	28.89
584.846	29.11
585.04	28.95
585.234	28.77
585.428	28.93
585.623	28.94
585.817	29.26
586.011	29.01
586.205	28.9
586.399	28.97
586.593	29.02
586.787	29.03
586.981	29.12
587.174	29.52
587.368	29.66
587.562	29.66
587.756	29.54
587.95	29.74
588.144	29.74
588.338	29.84
588.532	30.05
588.725	30.41
588.919	30.38
589.113	30.23
589.307	30.05
589.501	30.17
589.694	30.34
589.888	30.59
590.082	30.25
590.275	30.5
590.469	30.6
590.663	30.58
590.856	30.15
591.05	30.23
591.244	30.3
591.437	30.14
591.631	30.16
591.824	30.06
592.018	30.06
592.212	30.18
592.405	29.98
592.599	29.85
592.792	29.67
592.986	29.98
593.179	29.85
593.372	30.08
593.566	30.21
593.759	30.13
593.953	29.98
594.146	30.34
594.339	30.51
594.533	30.45
594.726	30.72
594.92	31.02
595.113	30.7
595.306	30.73
595.499	30.76
595.693	30.88
595.886	30.77
596.079	31.19
596.272	31.03
596.466	31.08
596.659	31.24
596.852	31.11
597.045	31.05
597.238	31.38
597.431	31.37
597.624	31.17
597.818	31.42
598.011	31.65
598.204	31.32
598.397	31.32
598.59	31.45
598.783	31.51
598.976	31.51
599.169	31.5
599.362	31.42
599.555	31.29
599.748	31.48
599.941	31.18
600.134	30.93
600.326	31.23
600.519	31.24
600.712	31.18
600.905	30.96
601.098	30.93
601.291	30.77
601.483	30.7
601.676	31.08
601.869	30.92
602.062	30.88
602.255	30.85
602.447	30.62
602.64	30.4
602.833	30.5
603.025	30.68
603.218	31.04
603.411	31
603.603	31.17
603.796	31.19
603.989	31.26
604.181	31.3
604.374	31.4
604.566	31.62
604.759	31.79
604.951	31.7
605.144	31.71
605.336	31.52
605.529	31.66
605.721	31.53
605.914	31.52
606.106	31.51
606.299	31.75
606.491	31.69
606.683	31.61
606.876	31.65
607.068	31.67
607.26	31.88
607.453	32.1
607.645	32.07
607.837	32.17
608.03	32.23
608.222	32.54
608.414	32.2
608.606	32.43
608.799	32.57
608.991	32.59
609.183	32.78
609.375	32.83
609.567	33.08
609.759	33.36
609.952	33.66
610.144	33.85
610.336	33.88
610.528	34.2
610.72	34.58
610.912	34.6
611.104	34.78
611.296	34.89
611.488	34.74
611.68	34.71
611.872	34.75
612.064	34.66
612.256	34.64
612.448	34.8
612.64	34.96
612.832	34.57
613.023	34.56
613.215	34.47
613.407	34.02
613.599	33.83
613.791	33.74
613.983	33.62
614.174	33.48
614.366	33.47
614.558	33.46
614.75	33.08
614.941	33.13
615.133	33.14
615.325	33.39
615.516	33.79
615.708	34.17
615.9	33.81
616.091	33.62
616.283	33.64
616.475	33.36
616.666	33.07
616.858	32.77
617.049	32.98
617.241	32.81
617.432	32.43
617.624	32.24
617.815	32.03
618.007	32.07
618.198	32.32
618.39	32.29
618.581	32.26
618.773	32.19
618.964	32.43
619.155	31.94
619.347	32.31
619.538	32.67
619.729	32.96
619.921	33.05
620.112	32.94
620.303	32.72
620.494	32.7
620.686	32.78
620.877	32.83
621.068	32.99
621.259	33.3
621.451	32.99
621.642	32.66
621.833	32.44
622.024	32.68
622.215	32.68
622.406	32.85
622.597	33.08
622.788	33.28
622.98	33.61
623.171	33.3
623.362	33.28
623.553	33.51
623.744	33.48
623.935	33.59
624.126	33.4
624.317	33.57
624.508	33.44
624.698	33.2
624.889	33.18
625.08	32.89
625.271	33.18
625.462	32.89
625.653	32.69
625.844	32.84
626.034	32.72
626.225	32.58
626.416	32.71
626.607	32.77
626.798	32.76
626.988	32.68
627.179	32.75
627.37	32.7
627.56	33.09
627.751	33.05
627.942	33.11
628.132	33.29
628.323	33.3
628.514	33.39
628.704	33.27
628.895	33.29
629.085	33.24
629.276	33.17
629.466	33.42
629.657	32.94
629.847	33.08
630.038	33.18
630.228	33.18
630.419	33.3
630.609	32.86
630.8	32.93
630.99	33.07
631.181	33.37
631.371	33.78
631.561	33.6
631.752	34.09
631.942	33.86
632.132	33.87
632.323	33.78
632.513	33.73
632.703	33.93
632.893	33.83
633.084	33.86
633.274	33.7
633.464	33.23
633.654	33.16
633.844	32.79
634.034	32.86
634.225	32.86
634.415	32.79
634.605	32.8
634.795	33.05
634.985	33.08
635.175	33.01
635.365	32.82
635.555	32.54
635.745	32.83
635.935	32.68
636.125	32.86
636.315	32.83
636.505	33.04
636.695	33.14
636.885	33.04
637.075	33.04
637.265	32.92
637.455	33.14
637.644	33.37
637.834	33.26
638.024	33.72
638.214	33.64
638.404	33.54
638.593	33.18
638.783	33.39
638.973	33.52
639.163	33.42
639.352	33.51
639.542	33.16
639.732	33.42
639.921	33.8
640.111	33.75
640.301	33.66
640.49	33.13
640.68	33.19
640.87	33
641.059	32.84
641.249	33.02
641.438	33.27
641.628	33.52
641.817	33.74
642.007	33.06
642.196	33.02
642.386	33.06
642.575	33.73
642.764	34.16
642.954	33.99
643.143	33.92
643.333	34.19
643.522	33.97
643.711	34.09
643.901	33.63
644.09	33.79
644.279	34.05
644.469	34.4
644.658	34.25
644.847	34.05
645.036	34.39
645.226	34.37
645.415	34.47
645.604	34.25
645.793	34.29
645.982	34.6
646.171	34.12
646.361	33.69
646.55	33.75
646.739	33.37
646.928	33.36
647.117	33.11
647.306	33.02
647.495	32.73
647.684	32.89
647.873	33.12
648.062	32.68
648.251	33.11
648.44	33.11
648.629	32.74
648.818	32.63
649.007	32.57
649.196	32.45
649.384	32.75
649.573	32.78
649.762	33.04
649.951	32.57
650.14	32.9
650.328	33.01
650.517	33.26
650.706	33.22
650.895	33.43
651.083	33.3
651.272	34.04
651.461	33.69
651.65	33.87
651.838	33.49
652.027	33.5
652.216	33.47
652.404	33.58
652.593	33.62
652.781	33.73
652.97	33.98
653.158	33.79
653.347	33.61
653.535	34.01
653.724	33.74
653.912	33.71
654.101	33.52
654.289	33.73
654.478	33.41
654.666	32.65
654.855	32.78
655.043	32.87
655.231	33.03
655.42	32.71
655.608	32.13
655.796	32.24
655.985	32.36
656.173	32.74
656.361	32.24
656.55	32.85
656.738	33.7
656.926	33.71
657.114	33.6
657.302	34
657.491	34.01
657.679	34.3
657.867	34.26
658.055	34.53
658.243	34.69
658.431	34.68
658.619	34.14
658.807	34.01
658.996	33.54
659.184	33.76
659.372	33.49
659.56	33.53
659.748	34.06
659.936	34.27
660.124	33.77
660.311	33.66
660.499	33.96
660.687	34.02
660.875	34.16
661.063	34.61
661.251	34.12
661.439	34.39
661.627	34.08
661.814	34.01
662.002	33.85
662.19	34.44
662.378	34.45
662.565	34.63
662.753	34.84
662.941	34.68
663.129	35.17
663.316	35.58
663.504	35.38
663.692	35.51
663.879	35.16
664.067	35.1
664.254	35.42
664.442	35.24
664.63	35.17
664.817	35.23
665.005	35.1
665.192	34.57
665.38	34.63
665.567	34.75
665.755	34.31
665.942	34.58
666.13	34.88
666.317	34.17
666.504	34.22
666.692	34.21
666.879	34.25
667.067	34.76
667.254	34.64
667.441	34.17
667.629	34.33
667.816	34.85
668.003	34.22
668.19	33.95
668.378	34.44
668.565	34.44
668.752	34.38
668.939	34.25
669.127	34.01
669.314	34.28
669.501	34.82
669.688	34.41
669.875	34.26
670.062	34.43
670.249	34.21
670.436	33.93
670.623	33.77
670.81	33.63
670.997	33.49
671.184	33.15
671.371	33.07
671.558	32.65
671.745	32.92
671.932	32.93
672.119	33.41
672.306	33.95
672.493	33.57
672.68	33.65
672.867	33.66
673.054	33.39
673.24	33.47
673.427	33.3
673.614	33.04
673.801	32.91
673.988	33.15
674.174	32.61
674.361	32.45
674.548	32.98
674.734	33.04
674.921	33.15
675.108	33.44
675.294	33.63
675.481	33.54
675.668	34.03
675.854	34.02
676.041	34.15
676.227	33.98
676.414	33.61
676.601	33.53
676.787	33.58
676.974	33.41
677.16	33.77
677.347	34.01
677.533	33.43
677.719	33.42
677.906	33.6
678.092	32.87
678.279	32.99
678.465	33.2
678.651	33.05
678.838	33.3
679.024	33.23
679.21	33.23
679.397	32.86
679.583	33.4
679.769	33.51
679.955	33.39
680.142	33.85
680.328	33.99
680.514	33.83
680.7	34.17
680.886	33.85
681.073	33.99
681.259	33.95
681.445	34.23
681.631	34.5
681.817	34.54
682.003	34.54
682.189	34.74
682.375	35.17
682.561	35.55
682.747	35.54
682.933	35.54
683.119	35.17
683.305	35.15
683.491	34.9
683.677	35.04
683.863	35.05
684.049	35.2
684.235	34.67
684.42	34.17
684.606	34.1
684.792	33.9
684.978	34.07
685.164	34.64
685.349	34.74
685.535	34.76
685.721	34.48
685.907	33.84
686.092	33.82
686.278	34.57
686.464	34.32
686.649	33.95
686.835	33.95
687.021	34.03
687.206	33.63
687.392	33.5
687.577	33.84
687.763	33.81
687.948	34.37
688.134	34.25
688.319	33.59
688.505	33.58
688.69	33.93
688.876	34.2
689.061	34.44
689.247	34.86
689.432	34.61
689.618	34.48
689.803	34.21
689.988	34.19
690.174	34.09
690.359	34.43
690.544	34.74
690.73	34.9
690.915	34.31
691.1	33.97
691.285	33.6
691.471	33.68
691.656	34.16
691.841	34.69
692.026	34.58
692.211	34.72
692.396	34.53
692.582	34.43
692.767	34.18
692.952	34.66
693.137	35.32
693.322	35.77
693.507	35.78
693.692	34.88
693.877	34.48
694.062	34.37
694.247	34.02
694.432	34.32
694.617	34.98
694.802	35.04
694.987	34.39
695.172	34.42
695.357	34.07
695.541	34.3
695.726	34.49
695.911	34.41
696.096	35.31
696.281	36.2
696.466	36.07
696.65	35.38
696.835	35.5
697.02	35.8
697.204	35.2
697.389	35.06
697.574	35.17
697.759	35.58
697.943	35.71
698.128	35.41
698.312	35.23
698.497	35.16
698.682	35.06
698.866	34.79
699.051	34.82
699.235	35.06
699.42	35.25
699.604	34.95
699.789	34.72
699.973	34.65
700.158	34.48
700.342	34.65
700.527	34.63
700.711	34.78
700.895	34.93
701.08	34.82
701.264	34.44
701.448	34.1
701.633	34.77
701.817	34.86
702.001	35.2
702.186	35.06
702.37	34.32
702.554	34.11
702.738	34.93
702.923	34.9
703.107	35.58
703.291	35.9
703.475	36.79
703.659	36.29
703.843	36.26
704.027	35.83
704.212	35.94
704.396	36.01
704.58	36.15
704.764	35.58
704.948	36.16
705.132	35.52
705.316	35.37
705.5	34.58
705.684	34.2
705.868	34.1
706.052	33.97
706.235	33.97
706.419	34.58
706.603	34.8
706.787	34.7
706.971	33.74
707.155	34.03
707.339	34.08
707.522	34.82
707.706	35.53
707.89	35.37
708.074	35.26
708.257	35.33
708.441	35.21
708.625	35.12
708.808	34.86
708.992	35.26
709.176	35.43
709.359	35.6
709.543	34.87
709.727	34.71
709.91	34.41
710.094	34.89
710.277	34.42
710.461	34.51
710.644	34.6
710.828	34.63
711.011	34.78
711.195	34.63
711.378	34.75
711.562	34.52
711.745	34.17
711.928	34.44
712.112	34.2
712.295	34.68
712.478	34.75
712.662	34.67
712.845	34.74
713.028	34.6
713.212	33.53
713.395	32.94
713.578	33.43
713.761	33.61
713.945	33.77
714.128	34.03
714.311	33.52
714.494	33.33
714.677	33.7
714.86	33.57
715.043	34.05
715.227	35.23
715.41	35.09
715.593	35.31
715.776	35.32
715.959	34.78
716.142	34.71
716.325	35.09
716.508	35.23
716.691	35.42
716.874	35.14
717.057	34.55
717.239	34.52
717.422	34.84
717.605	34.17
717.788	33.2
717.971	33.67
718.154	33.13
718.337	32.59
718.519	32.44
718.702	31.85
718.885	32.34
719.068	32.46
719.25	32.11
719.433	31.71
719.616	32.45
719.798	33.2
719.981	33.16
720.164	33.24
720.346	34.17
720.529	33.55
720.712	33.86
720.894	34.27
721.077	34.8
721.259	33.85
721.442	34.7
721.624	34.72
721.807	35.43
721.989	34.96
722.172	34.78
722.354	34.09
722.537	34.13
722.719	33.61
722.901	33.37
723.084	32.47
723.266	33.72
723.448	33.82
723.631	33.56
723.813	32.79
723.995	34.09
724.178	33.85
724.36	33.82
724.542	33.49
724.724	33.83
724.907	33.48
725.089	33.44
725.271	33.07
725.453	32.69
725.635	32.93
725.817	33.5
725.999	32.23
726.181	32.48
726.364	32.72
726.546	32.97
726.728	32.26
726.91	31.76
727.092	32.26
727.274	32.34
727.456	32.51
727.638	32.74
727.819	33.33
728.001	34.28
728.183	34.75
728.365	34.39
728.547	34.36
728.729	34.55
728.911	35.98
729.093	35.69
729.274	35.39
729.456	35.42
729.638	34.55
729.82	33.86
730.001	33.24
730.183	33.09
730.365	33.95
730.546	34.34
730.728	34.17
730.91	33.74
731.091	33.59
731.273	34.37
731.455	34.1
731.636	33.74
731.818	33.61
731.999	33.03
732.181	33.75
732.362	33.48
732.544	34.22
732.725	34.95
732.907	34.91
733.088	35.35
733.27	34.61
733.451	34.72
733.633	35.6
733.814	36.11
733.995	36.68
734.177	35.72
734.358	35.96
734.539	35.01
734.721	35.1
734.902	35.24
735.083	35.16
735.264	36.01
735.446	35.86
735.627	34.94
735.808	34.65
735.989	34.7
736.17	34.81
736.351	34.32
736.533	35.05
736.714	35.38
736.895	34.77
737.076	34.99
737.257	34.03
737.438	33.83
737.619	33.65
737.8	33.34
737.981	34.55
738.162	35.27
738.343	35.05
738.524	34.51
738.705	33.8
738.886	33.13
739.067	32.47
739.247	33.03
739.428	32.87
739.609	33.29
739.79	34.02
739.971	33.48
740.151	33.17
740.332	32.89
740.513	32.84
740.694	31.71
740.874	31.92
741.055	31.28
741.236	30.75
741.417	30.96
741.597	31.4
741.778	31
741.958	31.89
742.139	32.2
742.32	33.31
742.5	34.11
742.681	36.26
742.861	36.12
743.042	37.82
743.222	38.21
743.403	39.2
743.583	39.72
743.764	38.88
743.944	37.78
744.124	37.71
744.305	37.15
744.485	36.04
744.666	33.92
744.846	36.2
745.026	35.25
745.207	35.44
745.387	34.22
745.567	33.66
745.747	33.23
745.928	33.71
746.108	33.61
746.288	32.63
746.468	33.3
746.648	34.94
746.829	34.6
747.009	34.84
747.189	34.53
747.369	35
747.549	35.28
747.729	36.1
747.909	35.32
748.089	36.28
748.269	38.26
748.449	37.74
748.629	36.76
748.809	35.74
748.989	35.37
749.169	35.98
749.349	35.59
749.529	35.89
749.709	36.35
749.889	36.74
750.068	35.52
750.248	34.36
750.428	34.06
750.608	35.05
750.788	35
750.967	35.31
751.147	34.29
751.327	34.45
751.507	34.31
751.686	34.07
751.866	34.07
752.046	33.64
752.225	34.43
752.405	34.65
752.585	34.01
752.764	33.57
752.944	33.87
753.123	33.18
753.303	33.07
753.482	32.39
753.662	32.02
753.841	32.13
754.021	32.92
754.2	33.29
754.38	33.31
754.559	33.28
754.739	33.9
754.918	33.41
755.097	34.67
755.277	34.58
755.456	35.76
755.635	37.04
755.815	37.28
755.994	37.26
756.173	36.5
756.352	37.17
756.532	36.41
756.711	35.62
756.89	36.5
757.069	36.89
757.248	36.88
757.427	35.78
757.607	34.74
757.786	34.31
757.965	33.89
758.144	33.35
758.323	33.4
758.502	33.87
758.681	33.38
758.86	33.95
759.039	33.69
759.218	33.9
759.397	34.74
759.576	34.57
759.755	34.28
759.934	34.86
760.113	35.88
760.291	35.77
760.47	36.08
760.649	37.5
760.828	35.22
761.007	34
761.186	34.52
761.364	34.4
761.543	35.1
761.722	34.43
761.901	34.22
762.079	34.15
762.258	33.7
762.437	34.25
762.615	33.9
762.794	35.33
762.972	35.99
763.151	35.61
763.33	34.74
763.508	34.01
763.687	35.63
763.865	35.52
764.044	34.8
764.222	33.97
764.401	33.79
764.579	33.83
764.758	33.73
764.936	33.39
765.114	33.49
765.293	34.25
765.471	34.87
765.65	33.01
765.828	33.73
766.006	34.4
766.184	35.11
766.363	35.64
766.541	35.22
766.719	34.45
766.898	34.58
767.076	35
767.254	34.85
767.432	34.27
767.61	35.27
767.788	33.77
767.967	32.71
768.145	32.82
768.323	32.51
768.501	33.85
768.679	34.11
768.857	34.06
769.035	32.2
769.213	32.11
769.391	31.88
769.569	31.01
769.747	31.49
769.925	31.81
770.103	31.55
770.281	30.09
770.459	30
770.636	29.53
770.814	31.24
770.992	31.34
771.17	30.14
771.348	29.4
771.525	30.42
771.703	32.1
771.881	32.72
772.059	32.62
772.236	33.78
772.414	32.48
772.592	32.35
772.769	30.06
772.947	30.3
773.125	31.42
773.302	34.29
773.48	34.36
773.657	33.82
773.835	33.23
774.013	34.42
774.19	32.84
774.368	31.53
774.545	32.4
774.723	33.47
774.9	34.12
775.077	33.1
775.255	31.11
775.432	29.18
775.61	29.22
775.787	29.83
775.964	30.45
776.142	30.4
776.319	29.48
776.496	29.44
776.674	30.58
776.851	31.84
777.028	33.03
777.205	31.5
777.382	32.2
777.56	30.59
777.737	29.3
777.914	27.37
778.091	28.46
778.268	29.5
778.445	29.08
778.622	26.82
778.8	25.68
778.977	26.1
779.154	46.84
779.331	46.26
779.508	46.22
779.685	46.87
779.862	49.18
780.038	49.7
780.215	49.8
780.392	51.11
780.569	52.39
780.746	53.71
780.923	52.41
781.1	30.72
781.277	34.15
781.453	36.14
781.63	35.88
781.807	34.45
781.984	32.31
782.16	33.24
782.337	32.08
782.514	31.36
782.691	31.94
782.867	32.88
783.044	33.01
783.221	30.82
783.397	28.99
783.574	29.65
783.75	28.81
783.927	28.36
784.103	27.33
784.28	26.29
784.456	26.21
784.633	27.68
784.809	29.22
784.986	28.49
785.162	29.96
785.339	31.66
785.515	29.86
785.692	30.72
785.868	33.46
786.044	35.28
786.221	34.57
786.397	35.47
786.573	33.04
786.749	30.37
786.926	32.75
787.102	31.35
787.278	31.27
787.454	33.88
787.631	35.09
787.807	35.59
787.983	34.84
788.159	36.48
788.335	35.06
788.511	36.07
788.687	38.32
788.863	37.79
789.039	38.35
789.216	37.48
789.392	36.22
789.568	33.91
789.744	30.94
789.919	30.89
790.095	30.28
790.271	32.88
790.447	33.5
790.623	34.35
790.799	36.48
790.975	37.54
791.151	37.76
791.327	38.89
791.502	42.07
791.678	46.26
791.854	43.16
792.03	43.31
792.205	41.24
792.381	36.16
792.557	33.78
792.733	31.98
792.908	29.97
793.084	29.9
793.259	29.63
793.435	28.39
793.611	27.55
793.786	30.17
793.962	32.26
794.137	34.69
794.313	37.24
794.488	36.71
794.664	35
794.839	34.86
795.015	33.45
795.19	34.05
795.366	32.49
795.541	31.91
795.716	31.03
795.892	27.77
796.067	25.59
796.242	27.46
796.418	29.08
796.593	28.97
796.768	29.21
796.944	29.02
797.119	28.17
797.294	29.72
797.469	28.48
797.644	29.82
797.82	31.2
797.995	31.89
798.17	30.51
798.345	28.8
798.52	29.7
798.695	30.64
798.87	33.07
799.045	33.59
799.22	32.83
799.395	33.62
799.57	31.25
799.745	31.37
799.92	31.24
800.095	30.98
800.27	31.87
800.445	32.69
800.62	31.76
800.795	30.07
800.97	29.84
801.145	29.83
801.319	30.29
801.494	31.71
801.669	30.16
801.844	33.08
802.018	32.99
802.193	31.72
802.368	30.95
802.543	30.98
802.717	30.07
802.892	28.68
803.067	30.7
803.241	33.15
803.416	35.25
803.59	34.61
803.765	30.54
803.94	30.59
804.114	31.4
804.289	28.25
804.463	28.26
804.638	30.37
804.812	29.97
804.986	26.03
805.161	23.76
805.335	22
805.51	26.47
805.684	26.99
805.858	26.08
806.033	26.23
806.207	28.44
806.381	24.62
806.556	24.16
806.73	26.67
806.904	26.66
807.078	26.04
807.253	27.1
807.427	25.14
807.601	26.37
807.775	28.94
807.949	31.79
808.123	29.61
808.298	31.56
808.472	33.06
808.646	31.89
808.82	33.68
808.994	33.41
809.168	31.94
809.342	30.59
809.516	28.1
809.69	26.98
809.864	25.1
810.038	29.23
810.212	34.13
810.385	30.31
810.559	31.05
810.733	30.36
810.907	28.47
811.081	29.62
811.255	29.26
811.428	31.85
811.602	35.58
811.776	34.82
811.95	34.66
812.123	29.68
812.297	32.92
812.471	33.36
812.644	34.94
812.818	34.07
812.992	32.59
813.165	36.78
813.339	37.75
813.512	33.81
813.686	35.92
813.86	36.95
814.033	39.29
814.207	41.79
814.38	43.35
814.554	40.42
814.727	41.6
814.9	40.11
815.074	38.17
815.247	35.57
815.421	38.19
815.594	37.88
815.767	34.56
815.941	35.73
816.114	32.91
816.287	28.79
816.46	30.2
816.634	31.35
816.807	37.8
816.98	37.32
817.153	40.01
817.327	37.5
817.5	37.97
817.673	41.4
817.846	41.94
818.019	41.89
818.192	40.77
818.365	41.51
818.538	41.94
818.711	38.43
818.884	39.38
819.057	36.77
819.23	36.86
819.403	35.11
819.576	33
819.749	31.77
819.922	28.85
820.095	29.27
820.268	29.17
820.441	29.96
820.614	28.93
820.786	28.98
820.959	31.44
821.132	32.46
821.305	30.92
821.477	31.03
821.65	30.93
821.823	32.17
821.996	32.87
822.168	33.02
822.341	33.49
822.514	33.87
822.686	33.91
822.859	33.54
823.031	33.34
823.204	33.84
823.376	34.01
823.549	34.41
823.722	34.11
823.894	33.99
824.067	33.87
824.239	33.6
824.411	33.79
824.584	33.73
824.756	34.63
824.929	34.52
825.101	34.4
825.273	34.72
825.446	33.99
825.618	34.91
825.79	34.57
825.963	33.96
826.135	34.01
826.307	34.76
826.479	35.16
826.652	34.21
826.824	34.75
826.996	35.03
827.168	34.08
827.34	34.72
827.512	34.69
827.684	35.5
827.856	36.87
828.029	37.39
828.201	36.38
828.373	35.37
828.545	35.49
828.717	36.01
828.889	36.73
829.061	37.98
829.232	37.81
829.404	35.87
829.576	34.54
829.748	33.35
829.92	29.88
830.092	29.5
830.264	29.19
830.436	28.15
830.607	26.78
830.779	24.91
830.951	23.92
831.123	23.08
831.294	26.76
831.466	26.85
831.638	28.18
831.809	32.17
831.981	32.57
832.153	35.3
832.324	35.37
832.496	35.97
832.667	35.8
832.839	34.33
833.011	36.64
833.182	32.88
833.354	36.04
833.525	35.29
833.697	34.96
833.868	33.85
834.039	32.19
834.211	32.64
834.382	32.11
834.554	34.06
834.725	34.89
834.896	32.98
835.068	32.73
835.239	30.56
835.41	29.33
835.581	30.13
835.753	31.68
835.924	29.91
836.095	30.71
836.266	30.69
836.438	31.28
836.609	31.74
836.78	30.43
836.951	32.01
837.122	35.2
837.293	35.74
837.464	34.69
837.635	35.51
837.806	36.94
837.977	32.03
838.148	31.98
838.319	27.83
838.49	27.25
838.661	32.14
838.832	32.15
839.003	32.37
839.174	29.56
839.345	28
839.516	25.07
839.687	26.48
839.857	31.29
840.028	28.44
840.199	29.77
840.37	29.1
840.54	27.6
840.711	31.84
840.882	31.21
841.053	37.12
841.223	37.05
841.394	34.31
841.564	35.16
841.735	38.68
841.906	37.38
842.076	37.28
842.247	39.1
842.417	39.89
842.588	34.77
842.758	29.99
842.929	30.61
843.099	37.07
843.27	40.29
843.44	40.44
843.611	38.31
843.781	41.3
843.951	45.96
844.122	42.18
844.292	43.82
844.462	45
844.633	48.57
844.803	48.57
844.973	42.33
845.144	41.76
845.314	35.95
845.484	35.63
845.654	35.3
845.824	27.37
845.995	31.18
846.165	31.7
846.335	30.59
846.505	29.32
846.675	31.14
846.845	28.79
847.015	21.93
847.185	33.49
847.355	31.74
847.525	30.46
847.695	32.02
847.865	31.28
848.035	30.54
848.205	26.31
848.375	27.44
848.545	7.8
848.715	19.98
848.884	24.9
849.054	7.6
849.224	8.95
849.394	22.88
849.564	29.93
849.733	34.48
849.903	39.06
850.073	28.17
850.243	18.21
850.412	31.67
850.582	23.24
850.752	7.57
850.921	12.99
851.091	17.51
851.26	19.42
851.43	-16.37
851.599	-20.42
851.769	-39.43
851.939	-9.04
852.108	0.07
852.278	6.12
852.447	-4.59
852.616	16.83
852.786	28.7
852.955	27.49
853.125	8.67
853.294	24.56
853.463	32.89
853.633	19.09
853.802	9.57
853.971	9.79
854.141	3.4
854.31	25.42
854.479	23.4
854.648	27.79
854.818	19.62
854.987	23.76
855.156	16.91
855.325	12.25
855.494	19.92
855.663	24.29
855.832	15.59
856.001	21.18
856.171	10.71
856.34	12.39
856.509	3.44
856.678	5.81
856.847	13.17
857.016	29.59
857.185	36.54
857.353	42.55
857.522	35.78
857.691	34.27
857.86	37.93
858.029	39.81
858.198	29.44
858.367	24.42
858.535	26.93
858.704	24.57
858.873	22.37
859.042	7.63
859.21	-4.57
859.379	3.88
859.548	9.49
859.717	-4.54
859.885	4.86
860.054	11.29
860.222	23.45
860.391	21.13
860.56	23.78
860.728	16.33
860.897	19.26
861.065	15.16
861.234	25.99
861.402	36.97
861.571	39.16
861.739	32.4
861.908	33.12
862.076	24.22
862.244	33.2
862.413	34.71
862.581	33.54
862.749	33.66
862.918	42.26
863.086	30.87
863.254	20.44
863.423	18.25
863.591	20.66
863.759	0.51
863.927	25.25
864.096	6.67
864.264	-70.25
864.432	-51.61
864.6	-43.6
864.768	-44.11
864.936	-38.45
865.104	-36.09
865.272	-30.89
865.44	-46.35
865.608	-33.04
865.776	-43.97
865.944	-41.34
866.112	-9.33
866.28	12.51
866.448	8.21
866.616	32.92
866.784	43.88
866.952	39.54
867.12	22.95
867.288	36.59
867.455	48.99
867.623	28.72
867.791	59.51
867.959	43.18
868.127	20.34
868.294	26.79
868.462	5.76
868.63	13.18
868.797	14.38
868.965	6.83
869.133	8.01
869.3	14.95
869.468	22.51
869.636	1.53
869.803	11.38
869.971	20.84
870.138	8.75
870.306	18.34
870.473	19.72
870.641	13.02
870.808	27.9
870.975	19.05
871.143	-3.54
871.31	-11.85
871.478	-15.43
871.645	-13.51
871.812	-32.72
871.98	-11.66
872.147	-20.11
872.314	-34.29
872.482	-17.5
872.649	-18.44
872.816	-3.72
872.983	14.49
873.15	17.01
873.318	19.52
873.485	12.52
873.652	26.71
873.819	15.29
873.986	14.58
874.153	24.98
874.32	18.96
874.487	19.05
874.654	29.91
874.821	24.64
874.988	30.43
875.155	31.8
875.322	34.25
875.489	25.08
875.656	38.63
875.823	42.22
875.99	43.28
876.157	41.74
876.324	41.89
876.49	31.26
876.657	28.37
876.824	20.49
876.991	17.91
877.157	25.44
877.324	21.55
877.491	18.9
877.658	13.68
877.824	4.87
877.991	24.19
878.157	7.37
878.324	23.75
878.491	9.02
878.657	28.81
878.824	48.28
878.99	28.42
879.157	30.7
879.323	24.74
879.49	27.91
879.656	21.07
879.823	19.89
879.989	29.53
880.156	19.78
880.322	32.79
880.488	31.27
880.655	26.94
880.821	29.32
880.987	42.09
881.154	40.53
881.32	48.98
881.486	54.02
881.652	45.6
881.819	37.45
881.985	36.27
882.151	36.94
882.317	35.54
882.483	37.68
882.649	34.87
882.816	29.98
882.982	30.56
883.148	25.53
883.314	25.25
883.48	27.57
883.646	31.16
883.812	31.13
883.978	29.23
884.144	28.81
884.31	26.72
884.476	27.69
884.642	28.7
884.807	29
884.973	29.75
885.139	28.05
885.305	26.96
885.471	24.27
885.637	26.45
885.802	24.63
885.968	24.16
886.134	23.76
886.3	26.57
886.465	24.32
886.631	24.06
886.797	23.2
886.962	21.9
887.128	20.62
887.293	22.86
887.459	17.31
887.625	19.23
887.79	19.94
887.956	18.23
888.121	8.97
888.287	9.4
888.452	5.59
888.618	-0.17
888.783	4.09
