Data from CB_037_Reflection_21-38-19-440.txt Node
Date: Wed Nov 11 21:38:19 EST 2015
User: robert
Spectrometer: USB4E03001
Autoset integration time: false
Trigger mode: 4
Integration Time (sec): 1.000000E-1
Scans to average: 15
Electric dark correction enabled: true
Nonlinearity correction enabled: false
Boxcar width: 5
Stray light correction enabled: false
XAxis mode: Wavelengths
Stop averaging: false
Number of Pixels in Spectrum: 3648
>>>>>Begin Spectral Data<<<<<
177.566	-4.84
177.785	-914.47
178.005	34.6
178.225	-6.14
178.445	41.75
178.665	25.06
178.885	501.91
179.105	6.07
179.324	212.92
179.544	180.71
179.764	186.91
179.984	129.46
180.204	109.57
180.423	204.21
180.643	162.38
180.863	126.35
181.083	118.04
181.302	128.42
181.522	106.22
181.742	79.67
181.961	77.65
182.181	74.53
182.401	88.54
182.621	75.89
182.84	53.29
183.06	62.47
183.279	61.5
183.499	69.41
183.719	78.64
183.938	110.97
184.158	102.06
184.377	87.47
184.597	112.6
184.816	112.42
185.036	109.97
185.256	118.41
185.475	105.39
185.695	105.75
185.914	83.67
186.134	108.91
186.353	85.11
186.572	65.12
186.792	72.13
187.011	50.97
187.231	38.41
187.45	47.37
187.67	66.92
187.889	63.44
188.108	62.79
188.328	65.19
188.547	49.52
188.766	35.59
188.986	47.65
189.205	31.67
189.424	47.86
189.644	62.49
189.863	49.55
190.082	43.27
190.302	42.75
190.521	54.59
190.74	52.07
190.959	53.72
191.178	59.45
191.398	56.47
191.617	79.08
191.836	76.32
192.055	66.98
192.274	68.69
192.494	70.42
192.713	85.26
192.932	80.67
193.151	88.08
193.37	100.31
193.589	118.57
193.808	137.64
194.027	116.2
194.246	98.37
194.465	110.38
194.685	103.57
194.904	93.21
195.123	84.48
195.342	83.85
195.561	87.79
195.78	84.64
195.999	77.6
196.218	73.89
196.436	90.82
196.655	111.99
196.874	109.34
197.093	100.5
197.312	94.56
197.531	102.28
197.75	96.07
197.969	102.72
198.188	93.64
198.407	97.81
198.625	103.73
198.844	103.2
199.063	89.26
199.282	87.14
199.501	126.15
199.719	197.93
199.938	183.42
200.157	254.65
200.376	147.38
200.594	153.19
200.813	124.32
201.032	113.6
201.251	184.23
201.469	149.85
201.688	128.79
201.907	83.56
202.125	60.12
202.344	48.1
202.563	70.47
202.781	73.31
203	88.97
203.218	89.19
203.437	112.44
203.656	70.53
203.874	65.7
204.093	58.28
204.311	68.08
204.53	77.01
204.748	71.47
204.967	61.95
205.185	67.1
205.404	69.79
205.622	64.27
205.841	53.2
206.059	48.44
206.278	79.12
206.496	85.65
206.715	70.96
206.933	69.51
207.151	71.64
207.37	66.83
207.588	61.14
207.806	56.95
208.025	66.04
208.243	55.98
208.461	60.62
208.68	49.6
208.898	57.63
209.116	42.57
209.335	42.11
209.553	34.07
209.771	36.91
209.989	43.39
210.208	33.23
210.426	3.02
210.644	9.44
210.862	39.41
211.081	30.68
211.299	9.09
211.517	71.7
211.735	59.39
211.953	70.27
212.171	94.48
212.39	98.9
212.608	94.97
212.826	103.48
213.044	111.54
213.262	88.5
213.48	110.54
213.698	113.42
213.916	121.51
214.134	135.91
214.352	157.51
214.57	98.36
214.788	121.92
215.006	149.32
215.224	146.66
215.442	117.23
215.66	159.48
215.878	99.93
216.096	91.85
216.314	99.16
216.532	81.43
216.75	73.89
216.968	81.78
217.185	67.86
217.403	72.97
217.621	66.51
217.839	67.75
218.057	65.99
218.275	78.26
218.492	89.29
218.71	91.69
218.928	102.07
219.146	96.4
219.363	95.75
219.581	101.55
219.799	87.2
220.017	105.39
220.234	96.65
220.452	101.35
220.67	75.46
220.887	55.24
221.105	36.5
221.323	-7.62
221.54	-0.1
221.758	34.54
221.976	46.18
222.193	49.15
222.411	34.93
222.629	46.7
222.846	42.04
223.064	36.79
223.281	54.31
223.499	59.23
223.716	68.47
223.934	81.87
224.151	71.54
224.369	69.61
224.586	82.15
224.804	101.68
225.021	107.1
225.239	114.72
225.456	113.91
225.674	93.59
225.891	91.04
226.108	88.8
226.326	65.65
226.543	63.33
226.76	51.18
226.978	34.01
227.195	18.71
227.413	14.86
227.63	14.48
227.847	13.68
228.064	11.56
228.282	5.88
228.499	5.57
228.716	8.28
228.934	11.68
229.151	12.05
229.368	14.18
229.585	15.44
229.802	13.65
230.02	13.84
230.237	11.97
230.454	13.38
230.671	10.42
230.888	10.91
231.105	10.23
231.323	8.65
231.54	15.35
231.757	12.88
231.974	12.99
232.191	17.53
232.408	19.25
232.625	20.32
232.842	23.57
233.059	26.73
233.276	27.62
233.493	26.48
233.71	31.76
233.927	26.6
234.144	29.83
234.361	32.71
234.578	26.93
234.795	26.05
235.012	26.07
235.229	21.67
235.446	26.38
235.663	25.37
235.879	25.54
236.096	19.02
236.313	17.77
236.53	17.8
236.747	16.14
236.964	20.27
237.181	19.7
237.397	20.8
237.614	22.21
237.831	19.49
238.048	21.81
238.264	24.55
238.481	22.75
238.698	25.43
238.915	24.05
239.131	19.84
239.348	23.26
239.565	20.83
239.781	16.59
239.998	18.25
240.215	15.34
240.431	10.3
240.648	11.82
240.865	10.88
241.081	12.72
241.298	14.03
241.514	13.46
241.731	13.09
241.947	12.74
242.164	14.91
242.38	15.11
242.597	14.96
242.814	17.26
243.03	15.91
243.246	17.52
243.463	16.43
243.679	15.7
243.896	17.48
244.112	15.81
244.329	18.61
244.545	15.62
244.762	13.32
244.978	14.63
245.194	11.49
245.411	11.66
245.627	12.57
245.843	11.73
246.06	10.95
246.276	9.77
246.492	10.16
246.709	9.15
246.925	10.16
247.141	10.15
247.357	9.2
247.574	9.57
247.79	9.81
248.006	9.14
248.222	9.55
248.439	9.9
248.655	10.78
248.871	10.73
249.087	10.81
249.303	11.99
249.519	13.3
249.736	14.93
249.952	14.99
250.168	16.67
250.384	17.6
250.6	16.07
250.816	15.6
251.032	14.68
251.248	15.85
251.464	12.09
251.68	10.75
251.896	10.51
252.112	10.43
252.328	10.9
252.544	8.77
252.76	8.5
252.976	9.59
253.192	8.33
253.408	8.81
253.624	8.66
253.84	13.12
254.056	13.31
254.272	15.23
254.487	13.72
254.703	15.69
254.919	15.6
255.135	15.55
255.351	15.12
255.567	18.92
255.782	18.36
255.998	17.05
256.214	14.15
256.43	15.82
256.646	14.27
256.861	16.18
257.077	13.34
257.293	12.22
257.508	10.54
257.724	11.12
257.94	9.46
258.155	10.21
258.371	8.84
258.587	10.14
258.802	8.9
259.018	9.09
259.234	7.28
259.449	8.05
259.665	8.21
259.88	8.81
260.096	8.65
260.312	8.69
260.527	8.14
260.743	8.57
260.958	7.44
261.174	7.04
261.389	6.83
261.605	8.32
261.82	8.3
262.036	9.32
262.251	10.57
262.466	11.05
262.682	11.34
262.897	11.37
263.113	11.4
263.328	13.05
263.543	13.98
263.759	11.59
263.974	11.06
264.189	10.39
264.405	10.19
264.62	7.19
264.835	7.61
265.051	7.1
265.266	7.37
265.481	6.32
265.696	5.61
265.912	6.1
266.127	7.64
266.342	6.76
266.557	6.63
266.773	6.33
266.988	7.79
267.203	5.82
267.418	7.18
267.633	8.57
267.848	9.79
268.064	8.92
268.279	9.59
268.494	8.91
268.709	11.08
268.924	13.22
269.139	13.17
269.354	13.29
269.569	14.63
269.784	14.19
269.999	12.49
270.214	11.84
270.429	12.29
270.644	11.43
270.859	13.04
271.074	11.25
271.289	10.6
271.504	11.35
271.719	9.97
271.934	9.63
272.149	9.9
272.363	11.04
272.578	11.81
272.793	12.08
273.008	11.68
273.223	11.22
273.438	12.35
273.653	13
273.867	12.69
274.082	13.45
274.297	13.23
274.512	12.8
274.726	11.48
274.941	11.73
275.156	12.55
275.371	12.59
275.585	11.98
275.8	11.64
276.015	10.11
276.229	9.44
276.444	8.89
276.659	9.58
276.873	9.93
277.088	10.56
277.302	8.85
277.517	8.57
277.732	9.18
277.946	10.07
278.161	10.2
278.375	10.02
278.59	11
278.804	11.02
279.019	10.37
279.233	9.61
279.448	9.08
279.662	9.98
279.877	9.38
280.091	9.2
280.306	9.74
280.52	9.02
280.735	9.66
280.949	9.03
281.163	10.07
281.378	10.39
281.592	9.35
281.806	10.17
282.021	9.03
282.235	8.73
282.449	8.4
282.664	7.18
282.878	6.99
283.092	6.11
283.307	7.05
283.521	5.98
283.735	6.28
283.949	7.91
284.164	7.99
284.378	9.02
284.592	10.02
284.806	10.1
285.02	9.85
285.234	10.92
285.449	11
285.663	10.24
285.877	11.14
286.091	10.5
286.305	10.12
286.519	9.56
286.733	9.63
286.947	9.42
287.161	8.98
287.375	9.42
287.589	8.85
287.803	9
288.017	8.74
288.231	9.38
288.445	9.99
288.659	9.2
288.873	9.92
289.087	9.67
289.301	9.61
289.515	11.78
289.729	12
289.943	10.41
290.157	10.63
290.371	10.42
290.584	9.79
290.798	9.74
291.012	11.06
291.226	10.91
291.44	10.39
291.654	9.98
291.867	8.33
292.081	7.4
292.295	9.69
292.509	9.13
292.722	9.43
292.936	8.54
293.15	8.66
293.364	7.92
293.577	6.36
293.791	8.15
294.005	7.15
294.218	7.8
294.432	9.21
294.645	8.05
294.859	7.12
295.073	7.44
295.286	7.56
295.5	7.23
295.713	6.85
295.927	7.02
296.14	5.55
296.354	6.45
296.568	6.75
296.781	5.78
296.994	6.06
297.208	7.76
297.421	7.31
297.635	7.64
297.848	8.35
298.062	8.44
298.275	8.86
298.489	9.51
298.702	9.79
298.915	9.44
299.129	11.51
299.342	12.14
299.555	12.25
299.769	12.54
299.982	12.92
300.195	12.19
300.409	12.76
300.622	13.45
300.835	13.17
301.048	12.78
301.262	13.22
301.475	12.22
301.688	11.25
301.901	11.17
302.115	11.26
302.328	11.76
302.541	11.9
302.754	11.71
302.967	11.25
303.18	12.21
303.393	12.83
303.607	12.22
303.82	11.14
304.033	10.61
304.246	9.08
304.459	9.86
304.672	8.34
304.885	9.54
305.098	9.81
305.311	10.29
305.524	9.89
305.737	9.9
305.95	9.65
306.163	10.05
306.376	12.67
306.589	13.85
306.802	13.13
307.015	14.43
307.228	12.97
307.44	12.62
307.653	13.39
307.866	12.82
308.079	12.36
308.292	11.86
308.505	12.5
308.718	11.33
308.93	11.35
309.143	11.57
309.356	10.86
309.569	11.65
309.781	11.02
309.994	10.6
310.207	10.96
310.42	10.8
310.632	12.38
310.845	12.11
311.058	11.49
311.27	11.72
311.483	11.2
311.696	11.53
311.908	11.6
312.121	12
312.333	11.56
312.546	11.43
312.759	12.22
312.971	11.86
313.184	11.98
313.396	12.77
313.609	12.51
313.821	13.71
314.034	14.83
314.246	14.47
314.459	14.15
314.671	14.32
314.884	14.89
315.096	13.81
315.309	11.77
315.521	10.9
315.733	11.96
315.946	11.57
316.158	11.12
316.371	10.65
316.583	10.08
316.795	10.96
317.008	11
317.22	10.71
317.432	11.46
317.644	13.14
317.857	14.64
318.069	12.93
318.281	12.81
318.494	13.53
318.706	14.15
318.918	15.3
319.13	16.04
319.342	15.48
319.555	14.89
319.767	15.26
319.979	15.01
320.191	13.64
320.403	15.74
320.615	15.6
320.827	15.28
321.039	14.26
321.252	14.03
321.464	13.04
321.676	14.23
321.888	14.65
322.1	13.81
322.312	13.74
322.524	14.86
322.736	12.77
322.948	13.32
323.16	13.01
323.372	12.52
323.584	12.22
323.796	12.54
324.007	12.19
324.219	13.65
324.431	14.86
324.643	15.44
324.855	15.69
325.067	16.12
325.279	16.74
325.491	17.45
325.702	17.98
325.914	18.2
326.126	18.51
326.338	17.42
326.55	16.75
326.761	16.81
326.973	16.48
327.185	16.63
327.396	17.11
327.608	16.59
327.82	16.87
328.032	17.8
328.243	18.3
328.455	18.88
328.666	20.73
328.878	19.96
329.09	19.78
329.301	20.91
329.513	19.75
329.725	19.6
329.936	21.57
330.148	20.59
330.359	20.18
330.571	20.2
330.782	19.82
330.994	20.17
331.205	22.41
331.417	23.41
331.628	23.61
331.84	24.59
332.051	25.25
332.262	24.59
332.474	24.96
332.685	25.18
332.897	24.64
333.108	26
333.319	26.75
333.531	26.7
333.742	26.91
333.953	26.57
334.165	27.38
334.376	27.66
334.587	27.54
334.799	28.17
335.01	27.65
335.221	28.18
335.432	27.5
335.644	26.65
335.855	25.8
336.066	25.38
336.277	26.28
336.488	25.9
336.7	25.99
336.911	26.07
337.122	25.8
337.333	26.58
337.544	26.97
337.755	26.97
337.966	27.28
338.177	27.36
338.388	26.86
338.599	27.44
338.811	27.22
339.022	26.71
339.233	27.13
339.444	27.39
339.655	27.26
339.866	27.85
340.076	27.68
340.287	28.16
340.498	28.38
340.709	29.84
340.92	28.89
341.131	29.62
341.342	29.93
341.553	29.25
341.764	29.49
341.975	29.66
342.185	29.31
342.396	29.38
342.607	29.02
342.818	28.98
343.029	27.44
343.239	27.42
343.45	26.89
343.661	26.08
343.872	26.03
344.082	25.33
344.293	25.12
344.504	24.7
344.714	25.19
344.925	24.98
345.136	25.11
345.346	26.06
345.557	25.41
345.768	25.68
345.978	27.19
346.189	27.2
346.399	27.45
346.61	27.62
346.821	28.26
347.031	27.32
347.242	27.34
347.452	27.24
347.663	28.17
347.873	28.55
348.084	28.57
348.294	27.81
348.504	27.75
348.715	28.86
348.925	29.18
349.136	28.44
349.346	28.7
349.557	28.69
349.767	29.23
349.977	28.3
350.188	27.94
350.398	27.44
350.608	27.35
350.819	28.01
351.029	26.49
351.239	25.98
351.449	26.51
351.66	26.33
351.87	26.7
352.08	26.24
352.29	25.49
352.501	26.82
352.711	27.32
352.921	27.37
353.131	27.24
353.341	27.63
353.552	27.28
353.762	26.36
353.972	27.08
354.182	26.04
354.392	26.24
354.602	26.83
354.812	25.66
355.022	25.66
355.232	25.84
355.442	25.9
355.652	26.24
355.862	26.58
356.072	27.02
356.282	26.84
356.492	27.77
356.702	27.9
356.912	27.15
357.122	27.4
357.332	27.74
357.542	28.02
357.752	28.25
357.962	28.22
358.171	28.29
358.381	28.13
358.591	27.14
358.801	26.12
359.011	25.31
359.221	25.62
359.43	26.03
359.64	24.9
359.85	23.89
360.06	23.41
360.269	23.17
360.479	23.46
360.689	23.67
360.899	24.81
361.108	25.78
361.318	26.05
361.528	26.32
361.737	25.85
361.947	26.54
362.156	26.73
362.366	27.03
362.576	27.1
362.785	27
362.995	26.72
363.204	26.47
363.414	25.99
363.623	25.96
363.833	25.93
364.042	25.89
364.252	25.93
364.461	25.95
364.671	25.36
364.88	25.49
365.09	24.82
365.299	24.89
365.509	24.62
365.718	25.03
365.927	25.18
366.137	24.53
366.346	24.52
366.555	24.69
366.765	24.84
366.974	25.38
367.183	25.28
367.393	25.63
367.602	25.83
367.811	26.16
368.021	25.73
368.23	25.15
368.439	25.22
368.648	24.82
368.857	24.37
369.067	23.91
369.276	23.33
369.485	23.72
369.694	23.94
369.903	23.72
370.112	23.15
370.321	23.43
370.531	23.68
370.74	24.26
370.949	24.33
371.158	23.97
371.367	24.23
371.576	24.31
371.785	23.81
371.994	23.69
372.203	23.84
372.412	24.11
372.621	23.36
372.83	22.71
373.039	22.37
373.248	22.31
373.457	22.42
373.666	22.16
373.874	21.99
374.083	21.68
374.292	20.87
374.501	21.24
374.71	20.94
374.919	21.01
375.128	21.78
375.336	21.67
375.545	21.66
375.754	21.6
375.963	21.54
376.171	21.37
376.38	21.48
376.589	21.66
376.798	21.17
377.006	20.92
377.215	21.06
377.424	20.98
377.632	20.62
377.841	20.2
378.05	19.7
378.258	19.39
378.467	19.34
378.675	19.35
378.884	19.43
379.093	18.98
379.301	19.13
379.51	18.88
379.718	18.58
379.927	18.59
380.135	18.69
380.344	18.7
380.552	18.76
380.761	18.67
380.969	18.25
381.177	18.28
381.386	18.76
381.594	18.61
381.803	18.71
382.011	18.74
382.219	18.91
382.428	18.95
382.636	19.02
382.845	19.34
383.053	19.31
383.261	18.97
383.469	18.52
383.678	17.85
383.886	17.54
384.094	17.52
384.302	17.69
384.511	17.72
384.719	17.84
384.927	17.88
385.135	18.23
385.343	18.47
385.552	18.95
385.76	19.15
385.968	18.99
386.176	19.27
386.384	18.81
386.592	18.61
386.8	18.61
387.008	18.55
387.216	18.65
387.424	18.21
387.633	17.67
387.841	17
388.049	16.82
388.257	17.3
388.465	17.4
388.672	17.52
388.88	17.46
389.088	17.16
389.296	16.85
389.504	16.43
389.712	15.8
389.92	16.13
390.128	16.3
390.336	16.46
390.544	16.29
390.751	16.13
390.959	16.61
391.167	16.41
391.375	16.62
391.583	17
391.79	17.11
391.998	17.42
392.206	17.17
392.414	17.39
392.621	16.84
392.829	16.87
393.037	16.69
393.244	16.44
393.452	16.85
393.66	16.69
393.867	16.64
394.075	16.73
394.283	16.69
394.49	16.85
394.698	16.78
394.905	17.3
395.113	17.23
395.32	17.22
395.528	17.25
395.735	16.83
395.943	16.42
396.15	16.26
396.358	16.18
396.565	16.33
396.773	16.08
396.98	16.38
397.188	15.99
397.395	15.73
397.602	15.55
397.81	15.63
398.017	15.39
398.225	15.48
398.432	15.46
398.639	15.56
398.847	15.17
399.054	15.11
399.261	14.56
399.468	14.86
399.676	14.83
399.883	15.39
400.09	14.97
400.297	15.32
400.505	15.28
400.712	15.4
400.919	15.11
401.126	15.59
401.333	15.76
401.54	15.75
401.748	15.54
401.955	15.8
402.162	15.53
402.369	15.55
402.576	15.31
402.783	15.59
402.99	15.2
403.197	15.07
403.404	14.67
403.611	14.85
403.818	15.08
404.025	15.14
404.232	15
404.439	14.88
404.646	14.76
404.853	14.59
405.06	14.39
405.267	14.45
405.474	14.5
405.681	14.55
405.887	14.32
406.094	14.13
406.301	14.29
406.508	14.19
406.715	14.2
406.922	14.5
407.128	14.77
407.335	14.88
407.542	14.87
407.749	14.99
407.955	14.72
408.162	14.78
408.369	14.59
408.575	14.5
408.782	14.67
408.989	14.59
409.195	14.43
409.402	14.36
409.609	14.34
409.815	14.44
410.022	14.4
410.228	14.86
410.435	14.82
410.642	14.95
410.848	14.62
411.055	14.62
411.261	14.49
411.468	14.33
411.674	14.44
411.881	14.24
412.087	13.85
412.294	13.87
412.5	13.9
412.706	13.58
412.913	13.54
413.119	13.76
413.326	13.72
413.532	13.89
413.738	13.95
413.945	13.44
414.151	13.35
414.357	13.75
414.564	13.66
414.77	13.47
414.976	13.66
415.182	13.68
415.389	13.35
415.595	13.22
415.801	12.98
416.007	13.09
416.214	12.93
416.42	13.06
416.626	13.02
416.832	13.07
417.038	13.1
417.244	13.22
417.45	13.15
417.657	13.31
417.863	13.4
418.069	13.42
418.275	13.47
418.481	13.77
418.687	13.78
418.893	13.73
419.099	13.9
419.305	13.76
419.511	13.67
419.717	13.82
419.923	13.73
420.129	13.55
420.335	13.62
420.541	13.5
420.746	13.3
420.952	13.18
421.158	12.98
421.364	12.64
421.57	12.65
421.776	12.61
421.982	12.41
422.187	12.43
422.393	12.42
422.599	12.35
422.805	12.3
423.01	12.47
423.216	12.36
423.422	12.46
423.628	12.46
423.833	12.34
424.039	12.31
424.245	12.41
424.45	12.43
424.656	12.51
424.862	12.53
425.067	12.7
425.273	12.62
425.478	12.73
425.684	12.8
425.889	12.86
426.095	12.95
426.301	12.92
426.506	12.87
426.712	12.78
426.917	12.65
427.123	12.66
427.328	12.31
427.533	12.19
427.739	12.26
427.944	12.28
428.15	12.27
428.355	12.29
428.561	12.28
428.766	12.16
428.971	12.24
429.177	12.41
429.382	12.28
429.587	12.48
429.793	12.64
429.998	12.59
430.203	12.22
430.408	12.15
430.614	12.03
430.819	11.98
431.024	12.08
431.229	11.97
431.434	11.94
431.64	12.02
431.845	12.06
432.05	11.97
432.255	11.9
432.46	12.01
432.665	12.04
432.87	12.26
433.076	12.39
433.281	12.37
433.486	12.36
433.691	12.22
433.896	12.16
434.101	12.01
434.306	12.06
434.511	12.11
434.716	12.14
434.921	12.24
435.126	12.02
435.331	11.76
435.535	11.62
435.74	11.57
435.945	11.44
436.15	11.44
436.355	11.63
436.56	11.55
436.765	11.46
436.97	11.53
437.174	11.46
437.379	11.55
437.584	11.67
437.789	11.89
437.993	12.17
438.198	12.26
438.403	12.22
438.608	11.93
438.812	11.98
439.017	12.14
439.222	12.19
439.426	12.12
439.631	12.09
439.836	12.23
440.04	12.04
440.245	11.81
440.45	11.81
440.654	11.9
440.859	12.11
441.063	12.07
441.268	12
441.472	12.02
441.677	12.02
441.881	12.07
442.086	11.89
442.29	11.96
442.495	12.05
442.699	12.03
442.904	12.07
443.108	12.01
443.312	11.91
443.517	11.77
443.721	11.79
443.925	11.75
444.13	11.64
444.334	11.67
444.538	11.76
444.743	11.62
444.947	11.59
445.151	11.48
445.356	11.51
445.56	11.59
445.764	11.69
445.968	11.55
446.173	11.56
446.377	11.55
446.581	11.6
446.785	11.54
446.989	11.61
447.193	11.79
447.398	11.74
447.602	11.64
447.806	11.67
448.01	11.61
448.214	11.6
448.418	11.62
448.622	11.55
448.826	11.58
449.03	11.65
449.234	11.54
449.438	11.44
449.642	11.47
449.846	11.58
450.05	11.67
450.254	11.55
450.458	11.68
450.662	11.63
450.866	11.77
451.069	11.62
451.273	11.36
451.477	11.33
451.681	11.28
451.885	11.31
452.089	11.37
452.292	11.35
452.496	11.52
452.7	11.37
452.904	11.33
453.107	11.4
453.311	11.38
453.515	11.45
453.719	11.69
453.922	11.64
454.126	11.69
454.33	11.61
454.533	11.45
454.737	11.5
454.94	11.7
455.144	11.6
455.348	11.59
455.551	11.59
455.755	11.54
455.958	11.56
456.162	11.64
456.365	11.72
456.569	11.59
456.772	11.69
456.976	11.51
457.179	11.44
457.383	11.58
457.586	11.4
457.79	11.22
457.993	11.19
458.196	11.03
458.4	11.03
458.603	10.9
458.807	10.86
459.01	10.75
459.213	10.77
459.417	10.61
459.62	10.77
459.823	10.85
460.026	11.05
460.23	11.17
460.433	11.19
460.636	11.1
460.839	11.2
461.042	11.33
461.246	11.26
461.449	11.19
461.652	11.37
461.855	11.37
462.058	11.38
462.261	11.3
462.464	11.24
462.668	11.15
462.871	11.26
463.074	11.05
463.277	11.01
463.48	11.2
463.683	11.37
463.886	11.31
464.089	11.29
464.292	11.49
464.495	11.56
464.698	11.69
464.901	11.89
465.104	11.93
465.306	11.9
465.509	11.93
465.712	11.92
465.915	12.01
466.118	11.97
466.321	11.86
466.524	11.75
466.726	11.84
466.929	11.9
467.132	11.83
467.335	11.85
467.538	12.02
467.74	11.91
467.943	11.95
468.146	11.81
468.348	11.98
468.551	11.93
468.754	11.99
468.956	11.88
469.159	11.68
469.362	11.54
469.564	11.61
469.767	11.55
469.969	11.64
470.172	11.45
470.375	11.54
470.577	11.38
470.78	11.44
470.982	11.41
471.185	11.45
471.387	11.68
471.59	11.73
471.792	11.53
471.995	11.56
472.197	11.67
472.399	11.71
472.602	11.71
472.804	11.96
473.007	12.01
473.209	11.89
473.411	11.84
473.614	11.61
473.816	11.47
474.018	11.62
474.22	11.69
474.423	11.51
474.625	11.62
474.827	11.81
475.03	11.63
475.232	11.58
475.434	11.53
475.636	11.59
475.838	11.63
476.04	11.74
476.243	11.7
476.445	11.65
476.647	11.84
476.849	11.99
477.051	11.74
477.253	11.76
477.455	11.75
477.657	11.75
477.859	11.69
478.061	11.86
478.263	11.82
478.465	11.96
478.667	11.88
478.869	11.77
479.071	11.63
479.273	11.66
479.475	11.56
479.677	11.61
479.879	11.71
480.081	11.82
480.283	11.63
480.485	11.85
480.686	11.67
480.888	11.67
481.09	11.61
481.292	11.72
481.494	11.72
481.695	11.63
481.897	11.54
482.099	11.44
482.301	11.33
482.502	11.29
482.704	11.19
482.906	11.17
483.107	11.12
483.309	11.04
483.511	10.99
483.712	10.98
483.914	10.98
484.115	11
484.317	10.98
484.519	10.99
484.72	11.02
484.922	10.99
485.123	11
485.325	11
485.526	11.07
485.728	11.06
485.929	11.03
486.131	11.09
486.332	11.14
486.534	11.19
486.735	11.15
486.936	11.12
487.138	11.18
487.339	11.18
487.541	11.23
487.742	11.24
487.943	11.29
488.144	11.26
488.346	11.16
488.547	11.1
488.748	10.98
488.95	10.99
489.151	10.94
489.352	10.88
489.553	10.89
489.755	10.77
489.956	10.72
490.157	10.72
490.358	10.87
490.559	10.83
490.76	10.8
490.961	10.91
491.163	10.96
491.364	10.98
491.565	11.06
491.766	11.1
491.967	11.2
492.168	11.2
492.369	11.09
492.57	10.99
492.771	11.2
492.972	11.21
493.173	11.26
493.374	11.24
493.575	11.34
493.776	11.28
493.976	11.28
494.177	11.31
494.378	11.36
494.579	11.48
494.78	11.56
494.981	11.38
495.182	11.47
495.382	11.54
495.583	11.53
495.784	11.58
495.985	11.76
496.185	11.74
496.386	11.76
496.587	11.73
496.788	11.71
496.988	11.57
497.189	11.61
497.39	11.74
497.59	11.71
497.791	11.76
497.992	11.79
498.192	11.78
498.393	11.69
498.593	11.73
498.794	11.7
498.994	11.68
499.195	11.89
499.395	12.04
499.596	11.91
499.796	11.87
499.997	12.01
500.197	12.1
500.398	12.09
500.598	12.22
500.799	12.11
500.999	12.17
501.199	12.29
501.4	12.27
501.6	12.26
501.801	12.26
502.001	12.34
502.201	12.32
502.402	12.24
502.602	12.3
502.802	12.39
503.002	12.55
503.203	12.65
503.403	12.67
503.603	12.81
503.803	12.95
504.003	12.99
504.204	13.18
504.404	13.27
504.604	13.16
504.804	13.29
505.004	13.46
505.204	13.4
505.404	13.48
505.604	13.49
505.804	13.49
506.005	13.42
506.205	13.48
506.405	13.42
506.605	13.35
506.805	13.52
507.005	13.61
507.204	13.43
507.404	13.55
507.604	13.58
507.804	13.75
508.004	13.77
508.204	13.77
508.404	13.79
508.604	13.67
508.804	13.86
509.003	13.91
509.203	13.81
509.403	13.94
509.603	14.04
509.803	14.15
510.002	14.16
510.202	14.12
510.402	14.31
510.602	14.48
510.801	14.54
511.001	14.39
511.201	14.46
511.4	14.48
511.6	14.62
511.8	14.67
511.999	14.71
512.199	14.68
512.398	14.97
512.598	15.1
512.797	15.06
512.997	15.43
513.197	15.61
513.396	15.52
513.596	15.63
513.795	15.68
513.994	15.79
514.194	15.82
514.393	16.01
514.593	15.92
514.792	15.92
514.992	16.07
515.191	16.03
515.39	16.16
515.59	16.34
515.789	16.39
515.988	16.43
516.188	16.38
516.387	16.43
516.586	16.7
516.786	16.82
516.985	16.93
517.184	17.01
517.383	17.24
517.582	17.3
517.782	17.55
517.981	17.7
518.18	17.82
518.379	18.04
518.578	18.32
518.777	18.29
518.976	18.51
519.176	18.41
519.375	18.5
519.574	18.54
519.773	18.7
519.972	18.68
520.171	18.71
520.37	18.95
520.569	18.97
520.768	18.91
520.967	19.14
521.166	19.18
521.365	19.61
521.564	19.87
521.762	19.88
521.961	20.04
522.16	20.23
522.359	20.47
522.558	20.45
522.757	20.55
522.956	20.73
523.154	20.68
523.353	20.66
523.552	20.84
523.751	20.88
523.949	21.06
524.148	21.18
524.347	21.45
524.546	21.67
524.744	21.9
524.943	22.22
525.142	22.31
525.34	22.45
525.539	22.55
525.737	22.54
525.936	22.71
526.135	22.94
526.333	23.04
526.532	23.08
526.73	23.15
526.929	23.21
527.127	23.26
527.326	23.49
527.524	23.74
527.723	24.01
527.921	24.17
528.12	24.25
528.318	24.33
528.516	24.41
528.715	24.55
528.913	24.6
529.112	24.76
529.31	24.83
529.508	24.82
529.707	24.84
529.905	24.9
530.103	24.93
530.301	25.01
530.5	25.13
530.698	25.33
530.896	25.47
531.094	25.65
531.293	25.85
531.491	26.06
531.689	26.35
531.887	26.58
532.085	26.88
532.283	27.11
532.481	27.24
532.68	27.36
532.878	27.41
533.076	27.51
533.274	27.6
533.472	27.64
533.67	27.8
533.868	27.88
534.066	28.06
534.264	28.05
534.462	28.12
534.66	28.27
534.858	28.36
535.056	28.61
535.253	28.8
535.451	28.91
535.649	29
535.847	29.14
536.045	29.38
536.243	29.25
536.441	29.38
536.638	29.43
536.836	29.6
537.034	29.63
537.232	29.55
537.43	29.58
537.627	29.65
537.825	29.72
538.023	29.68
538.22	29.7
538.418	30
538.616	29.88
538.813	30.26
539.011	30.38
539.209	30.64
539.406	30.88
539.604	30.99
539.801	31.22
539.999	31.52
540.196	31.74
540.394	31.85
540.591	31.94
540.789	32.13
540.986	32.09
541.184	32.1
541.381	32.2
541.579	32.25
541.776	32.3
541.974	32.25
542.171	32.24
542.368	32.27
542.566	32.29
542.763	32.33
542.96	32.29
543.158	32.34
543.355	32.35
543.552	32.38
543.75	32.47
543.947	32.5
544.144	32.69
544.341	32.7
544.539	32.76
544.736	32.73
544.933	32.77
545.13	33.17
545.327	33.28
545.524	33.42
545.722	33.38
545.919	33.32
546.116	33.34
546.313	33.49
546.51	33.57
546.707	33.72
546.904	33.96
547.101	34.01
547.298	33.86
547.495	33.77
547.692	33.88
547.889	34.01
548.086	34.32
548.283	34.5
548.48	34.61
548.677	34.78
548.874	34.84
549.07	34.91
549.267	35.02
549.464	35.28
549.661	35.63
549.858	35.65
550.055	35.83
550.251	35.81
550.448	35.91
550.645	36.02
550.842	35.67
551.038	35.7
551.235	35.78
551.432	35.76
551.628	35.73
551.825	35.61
552.022	35.7
552.218	35.54
552.415	35.58
552.612	35.61
552.808	35.63
553.005	35.99
553.201	36.03
553.398	35.98
553.594	36
553.791	36.07
553.987	36.16
554.184	36.06
554.38	36.19
554.577	36.05
554.773	36.08
554.97	36.1
555.166	35.98
555.362	36.05
555.559	36.32
555.755	36.23
555.952	36.24
556.148	36.37
556.344	36.68
556.541	36.65
556.737	36.78
556.933	36.9
557.129	36.89
557.326	37.01
557.522	36.96
557.718	36.88
557.914	37.35
558.11	37.48
558.307	37.58
558.503	37.43
558.699	37.67
558.895	37.69
559.091	37.72
559.287	37.81
559.483	37.68
559.679	37.83
559.876	37.82
560.072	37.57
560.268	37.48
560.464	37.47
560.66	37.45
560.856	37.44
561.052	37.43
561.247	37.46
561.443	37.28
561.639	37.42
561.835	37.4
562.031	37.29
562.227	37.18
562.423	37.27
562.619	37.14
562.815	37.24
563.01	37.12
563.206	37.3
563.402	37.48
563.598	37.56
563.793	37.63
563.989	37.5
564.185	37.73
564.381	37.78
564.576	37.83
564.772	37.86
564.968	37.84
565.163	37.95
565.359	37.66
565.555	37.52
565.75	37.47
565.946	37.48
566.141	37.72
566.337	37.63
566.532	37.79
566.728	37.71
566.923	37.78
567.119	37.85
567.314	37.97
567.51	38.14
567.705	38.16
567.901	38.18
568.096	38.32
568.292	38.22
568.487	38.13
568.682	37.97
568.878	38.2
569.073	38.25
569.268	38.16
569.464	37.88
569.659	37.85
569.854	37.83
570.05	38.07
570.245	38.09
570.44	38.15
570.635	38.25
570.831	38.35
571.026	38.42
571.221	38.44
571.416	38.38
571.611	38.44
571.806	38.66
572.002	38.66
572.197	38.65
572.392	38.6
572.587	38.62
572.782	38.61
572.977	38.62
573.172	38.39
573.367	38.31
573.562	38.39
573.757	38.52
573.952	38.43
574.147	38.51
574.342	38.66
574.537	38.53
574.732	38.47
574.927	38.67
575.121	38.58
575.316	38.59
575.511	38.7
575.706	38.75
575.901	38.72
576.096	38.63
576.29	38.69
576.485	38.56
576.68	38.69
576.875	38.78
577.069	38.74
577.264	38.76
577.459	38.9
577.654	38.79
577.848	38.91
578.043	38.94
578.238	39.1
578.432	39.01
578.627	39.01
578.821	39.17
579.016	39.05
579.21	38.84
579.405	39.04
579.6	38.88
579.794	39.08
579.989	38.95
580.183	38.96
580.378	39
580.572	38.91
580.766	38.91
580.961	38.93
581.155	38.92
581.35	39.11
581.544	38.95
581.738	39.14
581.933	39.29
582.127	39.44
582.321	39.35
582.516	39.24
582.71	39.39
582.904	39.28
583.099	38.86
583.293	39.16
583.487	39.24
583.681	39.48
583.875	39.25
584.07	39.02
584.264	39.04
584.458	39.26
584.652	39.42
584.846	39.26
585.04	39.51
585.234	39.74
585.428	39.7
585.623	39.73
585.817	39.76
586.011	39.8
586.205	39.88
586.399	39.98
586.593	40.03
586.787	39.85
586.981	39.92
587.174	39.85
587.368	39.84
587.562	39.94
587.756	39.99
587.95	39.67
588.144	40.04
588.338	40.14
588.532	40.03
588.725	40.18
588.919	40.12
589.113	40.26
589.307	40.17
589.501	40.36
589.694	40.15
589.888	40.1
590.082	40.27
590.275	39.93
590.469	39.94
590.663	39.89
590.856	39.86
591.05	39.83
591.244	39.88
591.437	39.98
591.631	40.18
591.824	39.98
592.018	40.02
592.212	39.98
592.405	39.94
592.599	39.89
592.792	39.99
592.986	39.79
593.179	40.02
593.372	40.03
593.566	39.96
593.759	39.44
593.953	39.72
594.146	39.53
594.339	39.7
594.533	39.92
594.726	39.69
594.92	39.4
595.113	39.51
595.306	39.14
595.499	39.23
595.693	39.23
595.886	39.36
596.079	39.32
596.272	39.38
596.466	39.42
596.659	39.33
596.852	39.55
597.045	39.76
597.238	39.63
597.431	39.61
597.624	39.45
597.818	39.68
598.011	39.65
598.204	39.62
598.397	39.88
598.59	39.66
598.783	39.78
598.976	39.66
599.169	39.54
599.362	39.62
599.555	40.35
599.748	40.28
599.941	40.19
600.134	40.41
600.326	40.46
600.519	40.47
600.712	40.51
600.905	40.42
601.098	40.36
601.291	40.61
601.483	40.73
601.676	40.15
601.869	40.21
602.062	40.03
602.255	39.93
602.447	40.01
602.64	39.89
602.833	40.09
603.025	40.28
603.218	40.31
603.411	40.28
603.603	40.25
603.796	40.43
603.989	40.56
604.181	40.61
604.374	40.59
604.566	40.5
604.759	40.53
604.951	40.55
605.144	40.38
605.336	40.42
605.529	40.31
605.721	40.33
605.914	40.3
606.106	40.23
606.299	40.11
606.491	40.16
606.683	40.13
606.876	40.12
607.068	39.89
607.26	39.96
607.453	39.63
607.645	39.55
607.837	39.76
608.03	39.96
608.222	40.25
608.414	40.51
608.606	40.41
608.799	40.56
608.991	40.51
609.183	40.73
609.375	40.59
609.567	40.91
609.759	41.04
609.952	40.89
610.144	40.75
610.336	40.57
610.528	40.34
610.72	40.49
610.912	40.67
611.104	40.75
611.296	40.65
611.488	40.72
611.68	41
611.872	40.99
612.064	40.92
612.256	40.98
612.448	41.11
612.64	41.26
612.832	41.33
613.023	41.04
613.215	40.73
613.407	40.81
613.599	41.17
613.791	40.84
613.983	41.15
614.174	41.18
614.366	41.36
614.558	41.31
614.75	41.24
614.941	41.31
615.133	41.09
615.325	41.16
615.516	41.03
615.708	40.7
615.9	40.65
616.091	40.35
616.283	40.46
616.475	40.32
616.666	40.5
616.858	40.48
617.049	40.16
617.241	40.36
617.432	40.21
617.624	40.63
617.815	40.56
618.007	40.58
618.198	40.73
618.39	40.75
618.581	40.69
618.773	40.7
618.964	40.79
619.155	40.51
619.347	40.56
619.538	40.96
619.729	40.7
619.921	40.87
620.112	41.05
620.303	40.9
620.494	40.76
620.686	40.87
620.877	40.74
621.068	41.06
621.259	41.33
621.451	41.25
621.642	41.15
621.833	41.48
622.024	41.53
622.215	41.52
622.406	41.86
622.597	41.98
622.788	41.78
622.98	41.88
623.171	41.42
623.362	41.69
623.553	41.84
623.744	42.14
623.935	41.91
624.126	41.67
624.317	41.44
624.508	41.26
624.698	41.09
624.889	41.04
625.08	40.66
625.271	40.69
625.462	40.32
625.653	40.41
625.844	40.34
626.034	40.05
626.225	40.25
626.416	40.33
626.607	40.21
626.798	40.09
626.988	40.08
627.179	40.27
627.37	40.26
627.56	40.51
627.751	40.12
627.942	39.86
628.132	39.98
628.323	39.84
628.514	39.87
628.704	39.97
628.895	40.09
629.085	40.04
629.276	40.02
629.466	40.13
629.657	40.09
629.847	40.57
630.038	40.71
630.228	40.96
630.419	40.8
630.609	41.18
630.8	41.11
630.99	41.44
631.181	41.45
631.371	40.93
631.561	40.88
631.752	40.96
631.942	40.5
632.132	40.44
632.323	39.85
632.513	40.37
632.703	40.09
632.893	39.81
633.084	39.5
633.274	39.76
633.464	40.22
633.654	40.04
633.844	40.02
634.034	40.47
634.225	40.69
634.415	40.95
634.605	40.77
634.795	41.04
634.985	41.24
635.175	41.33
635.365	41.25
635.555	41.3
635.745	41.69
635.935	41.56
636.125	41.47
636.315	41.1
636.505	41.31
636.695	41.37
636.885	41.14
637.075	41.38
637.265	41.28
637.455	41.21
637.644	41.24
637.834	40.81
638.024	40.86
638.214	40.46
638.404	40.74
638.593	40.81
638.783	40.7
638.973	40.43
639.163	39.99
639.352	40.13
639.542	40.33
639.732	40.57
639.921	40.99
640.111	41.01
640.301	41.18
640.49	41.35
640.68	41.47
640.87	41.61
641.059	41.87
641.249	41.96
641.438	41.67
641.628	41.3
641.817	40.91
642.007	40.82
642.196	41.17
642.386	41.36
642.575	41.04
642.764	40.76
642.954	41.12
643.143	41.15
643.333	41.62
643.522	41.98
643.711	42.28
643.901	42.6
644.09	42.27
644.279	42.24
644.469	42.35
644.658	41.91
644.847	42.13
645.036	41.9
645.226	41.72
645.415	41.16
645.604	40.88
645.793	40.85
645.982	40.5
646.171	40.85
646.361	40.55
646.55	40.38
646.739	40.63
646.928	40.69
647.117	40.39
647.306	40.56
647.495	41.14
647.684	41.06
647.873	41.04
648.062	41.1
648.251	40.93
648.44	41.09
648.629	41.24
648.818	41.27
649.007	41.03
649.196	41.39
649.384	41.45
649.573	41.34
649.762	41.94
649.951	41.89
650.14	41.98
650.328	42.17
650.517	42.33
650.706	42.2
650.895	42.56
651.083	42.35
651.272	41.86
651.461	41.35
651.65	41.34
651.838	40.47
652.027	40.79
652.216	41.14
652.404	41.19
652.593	41.05
652.781	41.34
652.97	41.06
653.158	41.26
653.347	41.62
653.535	41.68
653.724	41.47
653.912	41.81
654.101	41.43
654.289	41.18
654.478	40.95
654.666	40.53
654.855	39.98
655.043	40.2
655.231	40.16
655.42	39.97
655.608	40.62
655.796	40.84
655.985	40.96
656.173	41.25
656.361	41.41
656.55	41.51
656.738	41.82
656.926	41.94
657.114	41.35
657.302	41.06
657.491	41.41
657.679	40.97
657.867	41.24
658.055	41.24
658.243	41.57
658.431	41.1
658.619	41.21
658.807	41.31
658.996	41.23
659.184	41.49
659.372	41.7
659.56	41.51
659.748	41.2
659.936	40.5
660.124	40.4
660.311	39.83
660.499	39.62
660.687	39.27
660.875	39.27
661.063	39.28
661.251	39.25
661.439	39.46
661.627	39.18
661.814	39.84
662.002	40.39
662.19	40.55
662.378	40.41
662.565	40.96
662.753	41.27
662.941	40.77
663.129	41.1
663.316	41.33
663.504	40.68
663.692	40.67
663.879	40.07
664.067	40.05
664.254	39.84
664.442	40.45
664.63	40.35
664.817	40.51
665.005	40.7
665.192	40.7
665.38	40.67
665.567	41.29
665.755	41.66
665.942	41.81
666.13	41.43
666.317	41.59
666.504	41.58
666.692	41.92
666.879	41.66
667.067	41.64
667.254	41.24
667.441	41.16
667.629	41.05
667.816	41
668.003	41.2
668.19	41.39
668.378	41.56
668.565	41.42
668.752	41.02
668.939	41.28
669.127	41.15
669.314	41.39
669.501	41.09
669.688	41.32
669.875	41.38
670.062	41.09
670.249	41.07
670.436	41.34
670.623	41.04
670.81	41.25
670.997	41.1
671.184	41.18
671.371	41.22
671.558	41.37
671.745	41.2
671.932	41.25
672.119	41.52
672.306	41.46
672.493	40.47
672.68	40.32
672.867	40.16
673.054	39.68
673.24	39.57
673.427	39.5
673.614	39.65
673.801	40
673.988	40.22
674.174	39.81
674.361	40.05
674.548	40.82
674.734	40.73
674.921	40.74
675.108	40.53
675.294	40.97
675.481	41.05
675.668	41.26
675.854	40.75
676.041	40.31
676.227	40.54
676.414	40.27
676.601	40.27
676.787	40.75
676.974	40.56
677.16	41.04
677.347	40.96
677.533	41.05
677.719	40.74
677.906	40.46
678.092	40.63
678.279	40.88
678.465	41.47
678.651	41.47
678.838	41.7
679.024	41.86
679.21	42.09
679.397	42.13
679.583	42.09
679.769	42.14
679.955	41.87
680.142	41.8
680.328	41.49
680.514	41.58
680.7	41.76
680.886	41.52
681.073	41.36
681.259	41.24
681.445	40.96
681.631	40.75
681.817	40.87
682.003	41.53
682.189	41.77
682.375	41.48
682.561	41.07
682.747	40.71
682.933	40.47
683.119	40.7
683.305	41.02
683.491	41.48
683.677	41.51
683.863	41.31
684.049	41.15
684.235	40.83
684.42	41.62
684.606	41.93
684.792	42.13
684.978	42.18
685.164	41.91
685.349	41.57
685.535	40.73
685.721	40.93
685.907	40.55
686.092	40.47
686.278	40.37
686.464	40.23
686.649	39.93
686.835	39.84
687.021	40.12
687.206	39.97
687.392	39.58
687.577	40.15
687.763	40.25
687.948	40.91
688.134	40.68
688.319	40.68
688.505	40.66
688.69	40.87
688.876	40.54
689.061	40.55
689.247	40.83
689.432	41.29
689.618	41.73
689.803	41.52
689.988	41.82
690.174	41.99
690.359	41.76
690.544	41.54
690.73	41.34
690.915	41.52
691.1	41.21
691.285	41.53
691.471	41.67
691.656	41.29
691.841	41.05
692.026	40.23
692.211	40.16
692.396	40.41
692.582	40.16
692.767	40.53
692.952	40.13
693.137	40.07
693.322	39.42
693.507	39.42
693.692	39.09
693.877	39.37
694.062	39.7
694.247	39.39
694.432	39.69
694.617	40.27
694.802	39.37
694.987	39.33
695.172	39.92
695.357	40.94
695.541	40.55
695.726	40.82
695.911	40.56
696.096	40.77
696.281	41.25
696.466	41.08
696.65	41.22
696.835	41.46
697.02	41.92
697.204	41.35
697.389	41.06
697.574	41.21
697.759	41
697.943	41.2
698.128	40.88
698.312	40.96
698.497	40.69
698.682	40.01
698.866	39.95
699.051	39.97
699.235	39.87
699.42	39.3
699.604	39.45
699.789	39.33
699.973	39.46
700.158	39.63
700.342	39.64
700.527	40.17
700.711	40.65
700.895	40.92
701.08	40.55
701.264	41.24
701.448	41.29
701.633	41.27
701.817	41.96
702.001	41.95
702.186	41.83
702.37	41.55
702.554	40.94
702.738	41.1
702.923	40.48
703.107	41.04
703.291	40.42
703.475	40.89
703.659	40.71
703.843	40.71
704.027	40.83
704.212	40.96
704.396	41.19
704.58	41.25
704.764	41.46
704.948	41.73
705.132	42.08
705.316	42.63
705.5	42.62
705.684	42.68
705.868	42.68
706.052	42.38
706.235	42.34
706.419	42.27
706.603	42.1
706.787	41.91
706.971	42.45
707.155	41.67
707.339	41.58
707.522	41.33
707.706	41.58
707.89	41.45
708.074	42.02
708.257	42.69
708.441	42.74
708.625	43.04
708.808	43.27
708.992	43.22
709.176	43.78
709.359	43.63
709.543	44.13
709.727	43.18
709.91	43.3
710.094	43.28
710.277	43.06
710.461	43.07
710.644	42.86
710.828	42.7
711.011	42.85
711.195	42.49
711.378	42.33
711.562	42.09
711.745	42.51
711.928	42.46
712.112	41.56
712.295	40.85
712.478	40.08
712.662	40.64
712.845	40.6
713.028	40.47
713.212	40.27
713.395	39.23
713.578	39.59
713.761	39.12
713.945	39.26
714.128	39.36
714.311	40.05
714.494	40.94
714.677	40.63
714.86	40.61
715.043	40.36
715.227	40.59
715.41	41.2
715.593	40.67
715.776	40.74
715.959	40.25
716.142	40.67
716.325	40.25
716.508	39.83
716.691	39.97
716.874	40.29
717.057	40.43
717.239	40.74
717.422	40.7
717.605	40.56
717.788	40.7
717.971	40.71
718.154	40.52
718.337	40.58
718.519	40.48
718.702	40.19
718.885	40.23
719.068	40.29
719.25	39.41
719.433	40.09
719.616	40.28
719.798	40.72
719.981	40.21
720.164	40.46
720.346	40.02
720.529	40.36
720.712	40.17
720.894	39.09
721.077	39.4
721.259	40.08
721.442	39.8
721.624	39.93
721.807	40.16
721.989	41.73
722.172	41.47
722.354	41.83
722.537	41.42
722.719	41.64
722.901	41.46
723.084	41.18
723.266	40.38
723.448	40.45
723.631	40.69
723.813	40.91
723.995	40.67
724.178	40.04
724.36	40.61
724.542	41.72
724.724	42.12
724.907	43.26
725.089	42.57
725.271	43.36
725.453	43.22
725.635	43.91
725.817	43.96
725.999	43.1
726.181	43.29
726.364	43.12
726.546	42.09
726.728	42.09
726.91	40.85
727.092	40.92
727.274	40.81
727.456	40.9
727.638	40.57
727.819	40.03
728.001	39.88
728.183	40.29
728.365	40.05
728.547	40.72
728.729	41.67
728.911	42.62
729.093	42.69
729.274	42.61
729.456	42.83
729.638	42.72
729.82	42.84
730.001	43.39
730.183	43.9
730.365	44.4
730.546	43.98
730.728	43.52
730.91	43.7
731.091	44.1
731.273	44.52
731.455	44.14
731.636	44.06
731.818	43.73
731.999	43.58
732.181	42.52
732.362	42.49
732.544	42.73
732.725	41.82
732.907	41.46
733.088	41.19
733.27	40.2
733.451	40.75
733.633	40.85
733.814	41.3
733.995	40.85
734.177	41.97
734.358	41.21
734.539	41.36
734.721	42.1
734.902	41.85
735.083	41.77
735.264	42.47
735.446	43.04
735.627	42.72
735.808	42.15
735.989	42.55
736.17	41.65
736.351	43.24
736.533	42.5
736.714	42.58
736.895	42.21
737.076	43.08
737.257	43.34
737.438	42.91
737.619	42.52
737.8	42.87
737.981	42.27
738.162	43.33
738.343	42.55
738.524	42.6
738.705	42.44
738.886	43.16
739.067	42.87
739.247	42.77
739.428	42.4
739.609	42.5
739.79	43.79
739.971	44.55
740.151	43.64
740.332	43.08
740.513	43.76
740.694	43.59
740.874	43.84
741.055	43.35
741.236	43.42
741.417	42.6
741.597	42.77
741.778	41.64
741.958	41.52
742.139	42.63
742.32	42.83
742.5	43.06
742.681	42.54
742.861	42.74
743.042	43.33
743.222	42.99
743.403	44.73
743.583	45.55
743.764	44.94
743.944	44.93
744.124	43.26
744.305	43.43
744.485	42.14
744.666	41.73
744.846	40.84
745.026	39.89
745.207	40.48
745.387	39.4
745.567	39.33
745.747	40.59
745.928	40.22
746.108	39.85
746.288	38.94
746.468	39.86
746.648	41.1
746.829	41.91
747.009	43.13
747.189	42.62
747.369	42.89
747.549	41.71
747.729	40.46
747.909	39.66
748.089	39.56
748.269	39.98
748.449	39.85
748.629	39.27
748.809	37.96
748.989	37.06
749.169	36.5
749.349	36.16
749.529	36.37
749.709	38.5
749.889	40.04
750.068	42.17
750.248	42.52
750.428	42.01
750.608	42.07
750.788	42.16
750.967	42.29
751.147	42.18
751.327	42.41
751.507	42.03
751.686	41.18
751.866	41.06
752.046	39.58
752.225	38.83
752.405	39.03
752.585	39.68
752.764	41.32
752.944	41.92
753.123	43.43
753.303	43.72
753.482	44.14
753.662	43.54
753.841	44.33
754.021	43.48
754.2	43.74
754.38	44.25
754.559	42.41
754.739	41.1
754.918	41.21
755.097	41.09
755.277	40.93
755.456	41.67
755.635	40.79
755.815	39.69
755.994	40.6
756.173	40.08
756.352	40.34
756.532	40.83
756.711	41.4
756.89	41.09
757.069	40.66
757.248	41.26
757.427	40.19
757.607	40.74
757.786	40.18
757.965	41.02
758.144	42
758.323	40.97
758.502	41.26
758.681	42.25
758.86	41.77
759.039	41.53
759.218	41.09
759.397	40.6
759.576	40.48
759.755	40.82
759.934	40.2
760.113	40.27
760.291	39.82
760.47	40.43
760.649	38.99
760.828	39.99
761.007	40.32
761.186	39.59
761.364	40.61
761.543	40.76
761.722	40.65
761.901	40.85
762.079	40.57
762.258	42.16
762.437	41.43
762.615	41.69
762.794	41.12
762.972	40.46
763.151	41.08
763.33	41.05
763.508	40.68
763.687	40.26
763.865	40.41
764.044	40.01
764.222	39.8
764.401	39.92
764.579	39.89
764.758	39.15
764.936	39.02
765.114	38.9
765.293	38.82
765.471	39.19
765.65	39.99
765.828	40.37
766.006	40.64
766.184	39.91
766.363	39.55
766.541	38.84
766.719	40.35
766.898	41.25
767.076	41.27
767.254	41.09
767.432	40.96
767.61	39.94
767.788	39.88
767.967	39.93
768.145	39.44
768.323	40.02
768.501	41
768.679	39.57
768.857	39.61
769.035	40.49
769.213	41.68
769.391	41.57
769.569	41.86
769.747	41.44
769.925	41.06
770.103	41.84
770.281	42.7
770.459	41.69
770.636	43.53
770.814	42.94
770.992	42.12
771.17	40.21
771.348	40.4
771.525	41.4
771.703	40.78
771.881	41.31
772.059	41.52
772.236	40.68
772.414	43.19
772.592	41.4
772.769	41.88
772.947	41.39
773.125	43.23
773.302	43.18
773.48	43.16
773.657	44.04
773.835	45.1
774.013	46.72
774.19	48.56
774.368	46.39
774.545	47.88
774.723	47.01
774.9	46.4
775.077	46.01
775.255	45.95
775.432	45.52
775.61	44.81
775.787	43.73
775.964	41.8
776.142	40.57
776.319	40.26
776.496	36.77
776.674	35.84
776.851	35.65
777.028	33.34
777.205	34.87
777.382	35.62
777.56	36.3
777.737	35.38
777.914	35.43
778.091	34.14
778.268	36.72
778.445	38.21
778.622	38.32
778.8	38.78
778.977	40.04
779.154	38.54
779.331	39.72
779.508	38.25
779.685	40.28
779.862	42.29
780.038	43.04
780.215	42.03
780.392	42.59
780.569	43.9
780.746	44.18
780.923	46.16
781.1	47.86
781.277	45.03
781.453	45.19
781.63	43.98
781.807	41.64
781.984	41.33
782.16	42.34
782.337	42.1
782.514	43.29
782.691	43.16
782.867	40.92
783.044	38.75
783.221	39.14
783.397	39.76
783.574	40.23
783.75	40.15
783.927	40.78
784.103	39.71
784.28	41.39
784.456	41.27
784.633	43.31
784.809	44.51
784.986	44.14
785.162	46.08
785.339	46.5
785.515	45.41
785.692	45.54
785.868	45.5
786.044	45.9
786.221	44.09
786.397	43.14
786.573	41.95
786.749	41.39
786.926	41.45
787.102	42.6
787.278	42.3
787.454	43.05
787.631	43.2
787.807	41.95
787.983	40.46
788.159	42.35
788.335	43.17
788.511	42.76
788.687	42.3
788.863	41.33
789.039	38.4
789.216	39.67
789.392	38.68
789.568	39.97
789.744	41.67
789.919	42.13
790.095	39.2
790.271	38.92
790.447	39.51
790.623	40.39
790.799	41.39
790.975	43.01
791.151	43.43
791.327	44.95
791.502	45.61
791.678	44.15
791.854	45.23
792.03	47.04
792.205	47.01
792.381	48.01
792.557	49.05
792.733	49.42
792.908	49.11
793.084	48.22
793.259	48.21
793.435	47.17
793.611	46.89
793.786	47.19
793.962	45.9
794.137	45.31
794.313	42.52
794.488	40.45
794.664	40.02
794.839	40.15
795.015	39.4
795.19	38.59
795.366	37
795.541	37.28
795.716	36.76
795.892	38.82
796.067	40.85
796.242	41.41
796.418	40.41
796.593	41.21
796.768	41.29
796.944	41.87
797.119	42.25
797.294	43.22
797.469	42.52
797.644	41.09
797.82	39.84
797.995	38.7
798.17	40.48
798.345	41.94
798.52	41.87
798.695	41.16
798.87	40.15
799.045	40
799.22	41.8
799.395	45.57
799.57	45.5
799.745	48.25
799.92	47.51
800.095	45.68
800.27	44.05
800.445	44.62
800.62	46.55
800.795	46.56
800.97	45.85
801.145	42.08
801.319	38.83
801.494	38.38
801.669	35.98
801.844	37.01
802.018	38.74
802.193	40.84
802.368	41.53
802.543	41.04
802.717	40.57
802.892	38.81
803.067	41.39
803.241	43.51
803.416	44.08
803.59	43.59
803.765	42.45
803.94	41.74
804.114	41.08
804.289	40.85
804.463	38.56
804.638	39.83
804.812	40.53
804.986	42.72
805.161	40.66
805.335	41.2
805.51	43.12
805.684	44.08
805.858	44.71
806.033	46.53
806.207	44.98
806.381	47
806.556	46.05
806.73	45.97
806.904	45.29
807.078	47.82
807.253	45.65
807.427	43.1
807.601	42.87
807.775	41.24
807.949	39.17
808.123	42.28
808.298	41.5
808.472	40.9
808.646	42.89
808.82	40.94
808.994	39.24
809.168	41.81
809.342	45.45
809.516	46.61
809.69	47.04
809.864	47.53
810.038	44.72
810.212	46.81
810.385	47.85
810.559	45.86
810.733	46.86
810.907	44.31
811.081	45.57
811.255	42.58
811.428	40.27
811.602	36.67
811.776	34.37
811.95	34.73
812.123	33.72
812.297	32.17
812.471	35.82
812.644	35.53
812.818	37.56
812.992	37.34
813.165	37.93
813.339	40.49
813.512	42.25
813.686	44.73
813.86	46.46
814.033	48.18
814.207	52.01
814.38	52.72
814.554	55.46
814.727	53.46
814.9	53.05
815.074	54.84
815.247	52.17
815.421	53.76
815.594	52.61
815.767	52.78
815.941	47.16
816.114	46.27
816.287	43.98
816.46	38.86
816.634	40.66
816.807	38.78
816.98	38.25
817.153	42.05
817.327	43.29
817.5	42.72
817.673	42.72
817.846	43.2
818.019	41.43
818.192	42.67
818.365	42.05
818.538	43.25
818.711	47.19
818.884	46.25
819.057	42.46
819.23	41.75
819.403	44.44
819.576	41.39
819.749	42.61
819.922	41.07
820.095	39.13
820.268	43.95
820.441	44.56
820.614	42.58
820.786	41.91
820.959	42.5
821.132	42.01
821.305	42.15
821.477	41.82
821.65	41.34
821.823	41.46
821.996	42.07
822.168	40.37
822.341	39.4
822.514	39.78
822.686	39.9
822.859	39.89
823.031	40.06
823.204	39.96
823.376	40.24
823.549	40.73
823.722	40.59
823.894	40.35
824.067	40.94
824.239	40.98
824.411	40.32
824.584	40.05
824.756	40.12
824.929	40.53
825.101	39.73
825.273	39.82
825.446	39.42
825.618	40.16
825.79	40.04
825.963	39.47
826.135	39.83
826.307	40.19
826.479	40.16
826.652	40.12
826.824	39.99
826.996	40.67
827.168	40.82
827.34	41.49
827.512	41.04
827.684	40.52
827.856	40.64
828.029	40.78
828.201	40.6
828.373	41.13
828.545	40.75
828.717	40.54
828.889	40.9
829.061	41.35
829.232	41.91
829.404	42.45
829.576	43.12
829.748	42.55
829.92	43.16
830.092	44.06
830.264	44.37
830.436	45.39
830.607	45.65
830.779	46.07
830.951	46.34
831.123	44.71
831.294	44.44
831.466	44.4
831.638	46.81
831.809	47.38
831.981	46.88
832.153	48.74
832.324	49.52
832.496	47
832.667	46.07
832.839	42.1
833.011	43.1
833.182	43.59
833.354	41.97
833.525	40.3
833.697	41.24
833.868	41.7
834.039	39.68
834.211	40.17
834.382	41.72
834.554	42.72
834.725	45.32
834.896	43.33
835.068	44.15
835.239	46.57
835.41	48.29
835.581	46.82
835.753	46.68
835.924	47.67
836.095	47.55
836.266	45.74
836.438	43
836.609	41.8
836.78	43.3
836.951	41.67
837.122	39.82
837.293	38.92
837.464	40.54
837.635	39.85
837.806	41.25
837.977	39.43
838.148	40.49
838.319	44.87
838.49	45.78
838.661	44.84
838.832	44.07
839.003	42.4
839.174	41.76
839.345	41.9
839.516	48.32
839.687	43.38
839.857	40.82
840.028	44.63
840.199	44.48
840.37	41.13
840.54	44.47
840.711	46.57
840.882	51.07
841.053	50.57
841.223	51.28
841.394	47.3
841.564	46.66
841.735	48.18
841.906	45.61
842.076	39.79
842.247	45.84
842.417	42.62
842.588	45.24
842.758	43.45
842.929	44.06
843.099	37.6
843.27	41.32
843.44	45.26
843.611	43.79
843.781	43.43
843.951	47.69
844.122	45.78
844.292	47.01
844.462	40.23
844.633	40.57
844.803	39.56
844.973	42.51
845.144	36.1
845.314	30.24
845.484	28.29
845.654	34.31
845.824	35.14
845.995	35.45
846.165	37.44
846.335	34.74
846.505	33.25
846.675	35.23
846.845	42.77
847.015	49.33
847.185	54.76
847.355	67.77
847.525	65.39
847.695	62.23
847.865	58.89
848.035	61.4
848.205	61.2
848.375	64.4
848.545	63.83
848.715	57.59
848.884	58.39
849.054	58.86
849.224	52.61
849.394	50.21
849.564	54.16
849.733	54.78
849.903	49.5
850.073	49.04
850.243	44.62
850.412	34.73
850.582	34.91
850.752	28.11
850.921	27.24
851.091	24.65
851.26	22.72
851.43	19.92
851.599	18.94
851.769	18.45
851.939	25.1
852.108	27.88
852.278	37.39
852.447	35.57
852.616	31.34
852.786	31.82
852.955	36.92
853.125	44.76
853.294	48.25
853.463	48.35
853.633	46.34
853.802	42.49
853.971	48.48
854.141	44.38
854.31	47.55
854.479	50.41
854.648	46.79
854.818	47.84
854.987	44.91
855.156	44.64
855.325	51.93
855.494	51.87
855.663	55.04
855.832	49.82
856.001	52.01
856.171	52.19
856.34	53.74
856.509	55.62
856.678	59.58
856.847	59.92
857.016	60.96
857.185	56.52
857.353	60.52
857.522	57.93
857.691	53.37
857.86	55.34
858.029	54.6
858.198	59.31
858.367	61.49
858.535	54.47
858.704	54.48
858.873	60.87
859.042	67.93
859.21	68.01
859.379	60.91
859.548	67.66
859.717	70.33
859.885	66.02
860.054	67.55
860.222	66.12
860.391	67.84
860.56	69.09
860.728	61.9
860.897	61.47
861.065	62.82
861.234	68.29
861.402	66.14
861.571	66
861.739	68.79
861.908	69.99
862.076	63.97
862.244	69.7
862.413	65.49
862.581	68.04
862.749	62.18
862.918	58.83
863.086	56.02
863.254	58.44
863.423	52.81
863.591	49.54
863.759	39.87
863.927	38.43
864.096	33.44
864.264	26.88
864.432	25.58
864.6	33.89
864.768	22.4
864.936	19.65
865.104	19.52
865.272	16.05
865.44	13.55
865.608	18.69
865.776	35.56
865.944	32.82
866.112	41.05
866.28	43.06
866.448	44.23
866.616	51.77
866.784	56.55
866.952	56.5
867.12	59.41
867.288	62.52
867.455	68.68
867.623	69.13
867.791	75.26
867.959	83.08
868.127	74.35
868.294	66.55
868.462	80.8
868.63	80.59
868.797	82.61
868.965	78.97
869.133	79.66
869.3	74.62
869.468	67.12
869.636	58.6
869.803	50.99
869.971	64.95
870.138	65.34
870.306	57.53
870.473	57.52
870.641	60.92
870.808	59.29
870.975	53.17
871.143	53.79
871.31	58.06
871.478	68.77
871.645	70.79
871.812	67.12
871.98	74.78
872.147	87.75
872.314	91.48
872.482	71.1
872.649	65.62
872.816	77.65
872.983	64.76
873.15	64.04
873.318	54.83
873.485	54.63
873.652	57.7
873.819	52.89
873.986	53.94
874.153	52.61
874.32	55.89
874.487	56.92
874.654	52.36
874.821	64.46
874.988	68.23
875.155	69.18
875.322	70.85
875.489	63.94
875.656	67.28
875.823	59.61
875.99	60.27
876.157	70.51
876.324	65.26
876.49	64.63
876.657	64.78
876.824	45.79
876.991	55.04
877.157	59.05
877.324	61.62
877.491	53.75
877.658	51.18
877.824	43.54
877.991	37.44
878.157	40.22
878.324	38.39
878.491	25.92
878.657	44.73
878.824	34.94
878.99	30.97
879.157	34.98
879.323	41.7
879.49	44.79
879.656	45.6
879.823	43.55
879.989	43.64
880.156	44.81
880.322	48
880.488	42.29
880.655	43.61
880.821	45.77
880.987	44.79
881.154	46.76
881.32	50.67
881.486	56.77
881.652	57.74
881.819	58.24
881.985	54.74
882.151	52.21
882.317	52.18
882.483	49.76
882.649	44.66
882.816	42.2
882.982	40.51
883.148	38.29
883.314	36.85
883.48	35.08
883.646	34.23
883.812	34.47
883.978	33.09
884.144	33.99
884.31	34.22
884.476	37.52
884.642	39.18
884.807	37.99
884.973	38.11
885.139	38.68
885.305	40.54
885.471	41.39
885.637	43.19
885.802	47.02
885.968	45.71
886.134	48.06
886.3	47.95
886.465	47.48
886.631	47.2
886.797	48.65
886.962	48.43
887.128	49.41
887.293	52.75
887.459	51.91
887.625	49.3
887.79	50.86
887.956	49.52
888.121	48.41
888.287	49.91
888.452	55.48
888.618	54.95
888.783	57.74
