Data from CB_044_Reflection_00002.txt Node
Date: Wed Nov 11 22:11:07 EST 2015
User: robert
Spectrometer: USB4E03001
Autoset integration time: false
Trigger mode: 4
Integration Time (sec): 1.000000E-1
Scans to average: 15
Electric dark correction enabled: true
Nonlinearity correction enabled: false
Boxcar width: 5
Stray light correction enabled: false
XAxis mode: Wavelengths
Stop averaging: false
Number of Pixels in Spectrum: 3648
>>>>>Begin Spectral Data<<<<<
177.566	-110.31
177.785	273.68
178.005	131.91
178.225	-221.84
178.445	102.69
178.665	99.49
178.885	634.06
179.105	-39.48
179.324	16.69
179.544	25.16
179.764	72.83
179.984	44.11
180.204	75.44
180.423	49.4
180.643	59.54
180.863	63.11
181.083	72.61
181.302	70
181.522	58
181.742	58.29
181.961	70.98
182.181	62.11
182.401	66.65
182.621	63.23
182.84	55.34
183.06	69.11
183.279	69.2
183.499	70.78
183.719	65.7
183.938	67.4
184.158	51.51
184.377	55.05
184.597	66.44
184.816	84.24
185.036	83.28
185.256	89.95
185.475	98.64
185.695	88.76
185.914	77.01
186.134	127.32
186.353	124.84
186.572	99.34
186.792	108.5
187.011	75.48
187.231	77.86
187.45	116.73
187.67	90.05
187.889	74.26
188.108	75.36
188.328	72.49
188.547	48.14
188.766	61.77
188.986	102.14
189.205	70.64
189.424	68.68
189.644	52.97
189.863	37.35
190.082	75.61
190.302	57.19
190.521	57.06
190.74	66.07
190.959	86.79
191.178	66.2
191.398	60.52
191.617	72.63
191.836	80.64
192.055	77.59
192.274	66.17
192.494	51.9
192.713	75.58
192.932	93.29
193.151	84.42
193.37	101.5
193.589	116.44
193.808	113.61
194.027	113.89
194.246	129.88
194.465	128.61
194.685	146.47
194.904	132.26
195.123	109.69
195.342	87.95
195.561	95.12
195.78	74.53
195.999	80.32
196.218	64.43
196.436	61.64
196.655	32.94
196.874	13.21
197.093	-5.91
197.312	39.7
197.531	47.47
197.75	69.03
197.969	78.08
198.188	61.29
198.407	51.42
198.625	49.86
198.844	59.11
199.063	53.5
199.282	34.04
199.501	40.72
199.719	18.64
199.938	49.15
200.157	43.6
200.376	42.01
200.594	86.57
200.813	90.72
201.032	120.8
201.251	152.98
201.469	133.33
201.688	149.81
201.907	124.61
202.125	99.93
202.344	85.33
202.563	93.16
202.781	88.72
203	68.04
203.218	44.69
203.437	53.81
203.656	49.85
203.874	50.46
204.093	57.55
204.311	69.53
204.53	83.81
204.748	78.55
204.967	66.07
205.185	72.05
205.404	76.93
205.622	96.3
205.841	84.22
206.059	79.36
206.278	94.36
206.496	75.67
206.715	52.11
206.933	67.77
207.151	64.56
207.37	67.76
207.588	60.91
207.806	59.5
208.025	64.78
208.243	54.54
208.461	62.33
208.68	50.88
208.898	61.14
209.116	51.9
209.335	27.85
209.553	23.23
209.771	21.41
209.989	26.25
210.208	31.1
210.426	14.31
210.644	30.67
210.862	39.69
211.081	66.23
211.299	59.05
211.517	106.48
211.735	104.08
211.953	133.59
212.171	137.43
212.39	158.62
212.608	135.75
212.826	126.87
213.044	126.49
213.262	92.57
213.48	95.05
213.698	107.16
213.916	103.82
214.134	105.11
214.352	101.37
214.57	80.39
214.788	67.13
215.006	47.06
215.224	61.41
215.442	42.18
215.66	104.63
215.878	60.29
216.096	46.62
216.314	32.22
216.532	48.31
216.75	41.48
216.968	58.9
217.185	59.07
217.403	70.02
217.621	57.44
217.839	61.25
218.057	54.71
218.275	64.28
218.492	80.4
218.71	88.97
218.928	86.16
219.146	87.47
219.363	86.17
219.581	90.03
219.799	78.21
220.017	94.2
220.234	68.09
220.452	81.75
220.67	66.16
220.887	39.56
221.105	17.48
221.323	-2.27
221.54	11.93
221.758	5.84
221.976	10.12
222.193	25.07
222.411	23.05
222.629	30.97
222.846	25.78
223.064	19.5
223.281	19.24
223.499	28.08
223.716	31.86
223.934	26.51
224.151	21.24
224.369	14.06
224.586	3.81
224.804	1.34
225.021	-12.65
225.239	-3.37
225.456	-0.23
225.674	6.15
225.891	14.5
226.108	26.95
226.326	15.38
226.543	22.65
226.76	35.97
226.978	27.21
227.195	30.5
227.413	30.14
227.63	32.5
227.847	21.98
228.064	18.93
228.282	13.05
228.499	9.01
228.716	9.69
228.934	8.89
229.151	6.44
229.368	9.9
229.585	11.78
229.802	9.26
230.02	3.5
230.237	7.68
230.454	7.29
230.671	6.85
230.888	5.72
231.105	5.78
231.323	9.32
231.54	12.49
231.757	7.97
231.974	5.95
232.191	7.27
232.408	12.85
232.625	13.17
232.842	13.28
233.059	16.73
233.276	20.65
233.493	22.12
233.71	17.4
233.927	14.5
234.144	15.65
234.361	14.7
234.578	17.45
234.795	16.25
235.012	14.42
235.229	15.88
235.446	18.66
235.663	10.72
235.879	14.39
236.096	13.92
236.313	15.58
236.53	19.24
236.747	25.62
236.964	27.81
237.181	29.71
237.397	29.23
237.614	30.22
237.831	25.37
238.048	29.44
238.264	26.1
238.481	22.22
238.698	23.42
238.915	25.91
239.131	21.12
239.348	16.78
239.565	13.69
239.781	12.29
239.998	11.89
240.215	14.47
240.431	14.3
240.648	15.4
240.865	13.7
241.081	14.05
241.298	10.17
241.514	9.18
241.731	13.37
241.947	12.59
242.164	14.89
242.38	13.18
242.597	12.49
242.814	12.7
243.03	12.22
243.246	13.76
243.463	12.25
243.679	12.61
243.896	14.2
244.112	11.45
244.329	15.55
244.545	13.51
244.762	13.55
244.978	13.97
245.194	13.11
245.411	12.96
245.627	11.83
245.843	11.65
246.06	11.5
246.276	10.83
246.492	9.83
246.709	6.76
246.925	7.5
247.141	8.84
247.357	8.7
247.574	9.08
247.79	8.24
248.006	8.76
248.222	9.08
248.439	9.5
248.655	9.62
248.871	9.69
249.087	10.52
249.303	10.75
249.519	10.5
249.736	9.62
249.952	9.39
250.168	10
250.384	9.2
250.6	9.03
250.816	7.82
251.032	6.23
251.248	8.59
251.464	8.3
251.68	9.46
251.896	9.28
252.112	10.38
252.328	10.01
252.544	11.75
252.76	12.13
252.976	12.82
253.192	13.51
253.408	13.58
253.624	13.87
253.84	14.95
254.056	13.96
254.272	15.33
254.487	15.74
254.703	16.38
254.919	17.52
255.135	17.88
255.351	17.47
255.567	18.16
255.782	19.05
255.998	18.85
256.214	18.56
256.43	19.78
256.646	18.08
256.861	14.86
257.077	13.65
257.293	11.17
257.508	12.37
257.724	12.91
257.94	11.84
258.155	10.88
258.371	9.29
258.587	10.16
258.802	10.11
259.018	10.25
259.234	10.19
259.449	10.14
259.665	9.81
259.88	9.74
260.096	9.51
260.312	9.51
260.527	10.23
260.743	10.42
260.958	9.57
261.174	9.54
261.389	8.92
261.605	10.28
261.82	11.22
262.036	12.1
262.251	11.81
262.466	12.24
262.682	13.09
262.897	14.42
263.113	13.71
263.328	13.5
263.543	11.7
263.759	12.53
263.974	12.06
264.189	10.66
264.405	10.21
264.62	9.61
264.835	7.77
265.051	7.67
265.266	6.83
265.481	8.14
265.696	9.17
265.912	10.57
266.127	11.33
266.342	10.8
266.557	10.96
266.773	9.66
266.988	10.83
267.203	10.08
267.418	10.16
267.633	10.33
267.848	10.32
268.064	9.36
268.279	9.34
268.494	8.5
268.709	8.95
268.924	10.47
269.139	11.09
269.354	10.28
269.569	10.9
269.784	12.02
269.999	10.45
270.214	9.63
270.429	10.39
270.644	9.66
270.859	9.7
271.074	8.28
271.289	7.64
271.504	9.21
271.719	8.7
271.934	8.72
272.149	7.22
272.363	8.28
272.578	9.13
272.793	9.23
273.008	9.15
273.223	8.41
273.438	8.66
273.653	8.29
273.867	8.13
274.082	8.5
274.297	7.99
274.512	8.9
274.726	7.71
274.941	7.21
275.156	7.85
275.371	7.13
275.585	7.69
275.8	6.66
276.015	6.42
276.229	5.48
276.444	6.67
276.659	7.02
276.873	6.81
277.088	7.36
277.302	7.34
277.517	6.42
277.732	8.01
277.946	8
278.161	10.03
278.375	11.24
278.59	11.08
278.804	9.95
279.019	10.25
279.233	9.57
279.448	9.59
279.662	8.98
279.877	9.01
280.091	8.64
280.306	9.87
280.52	8.6
280.735	8.37
280.949	7.73
281.163	7.2
281.378	7
281.592	6.11
281.806	6.11
282.021	6.04
282.235	5.45
282.449	5.52
282.664	4.93
282.878	5.3
283.092	5.08
283.307	6.48
283.521	6.75
283.735	6.61
283.949	8.54
284.164	8.55
284.378	9.66
284.592	10.71
284.806	11.54
285.02	11.5
285.234	11.95
285.449	11.85
285.663	10.65
285.877	10.78
286.091	11.18
286.305	9.81
286.519	9.51
286.733	9.15
286.947	9.05
287.161	7.91
287.375	8.67
287.589	8.52
287.803	8.53
288.017	8.32
288.231	9.38
288.445	9.64
288.659	10.28
288.873	11.19
289.087	10.8
289.301	10.56
289.515	12.72
289.729	12.28
289.943	11.27
290.157	11.46
290.371	12.19
290.584	11.96
290.798	12.01
291.012	12.18
291.226	12.14
291.44	12.2
291.654	11.24
291.867	9.24
292.081	8.64
292.295	9.43
292.509	8.6
292.722	7.91
292.936	6.85
293.15	7.43
293.364	6.9
293.577	6.07
293.791	6.75
294.005	6.58
294.218	8.3
294.432	10.2
294.645	10.25
294.859	10.13
295.073	10.49
295.286	10.09
295.5	9.35
295.713	9.59
295.927	9.54
296.14	10.13
296.354	10.81
296.568	9.63
296.781	8.3
296.994	8.75
297.208	10.22
297.421	10.48
297.635	11.42
297.848	11.78
298.062	11.72
298.275	12.15
298.489	11.99
298.702	12.59
298.915	13.07
299.129	14.57
299.342	15.13
299.555	14.75
299.769	15.72
299.982	15.54
300.195	14.92
300.409	15.71
300.622	15.86
300.835	15.23
301.048	14.55
301.262	14.93
301.475	13.88
301.688	13.47
301.901	12.86
302.115	12.23
302.328	12.64
302.541	13.52
302.754	12.64
302.967	12.98
303.18	14.26
303.393	14.48
303.607	13.78
303.82	14.23
304.033	14.17
304.246	14.06
304.459	14.57
304.672	14.49
304.885	14.37
305.098	14.71
305.311	15.14
305.524	13.71
305.737	14.5
305.95	13.98
306.163	13.48
306.376	14.48
306.589	14.8
306.802	13.99
307.015	15.65
307.228	14.42
307.44	14.62
307.653	14.84
307.866	16.15
308.079	15.5
308.292	15.85
308.505	15.08
308.718	14.46
308.93	14.95
309.143	14.97
309.356	13.52
309.569	13.96
309.781	13.7
309.994	12.91
310.207	13.16
310.42	13.27
310.632	14.39
310.845	14.53
311.058	14.26
311.27	14.34
311.483	14.53
311.696	14.63
311.908	16.27
312.121	16.18
312.333	15.45
312.546	15.18
312.759	15.69
312.971	15.19
313.184	15.63
313.396	15.34
313.609	15.11
313.821	15.43
314.034	14.65
314.246	12.61
314.459	13.33
314.671	13.98
314.884	14.33
315.096	14.13
315.309	12.66
315.521	12.39
315.733	12.52
315.946	11.51
316.158	10.77
316.371	11.24
316.583	11.31
316.795	11.74
317.008	12.44
317.22	11.52
317.432	11.62
317.644	12.9
317.857	14.62
318.069	14.44
318.281	14.9
318.494	15.81
318.706	16.88
318.918	17.11
319.13	16.6
319.342	15.71
319.555	16.39
319.767	16.04
319.979	16.38
320.191	15.23
320.403	17.14
320.615	17.28
320.827	17.15
321.039	16.15
321.252	16.53
321.464	16.2
321.676	15.8
321.888	15.77
322.1	15.15
322.312	14.7
322.524	15.61
322.736	14.96
322.948	16.09
323.16	15.43
323.372	15.42
323.584	15.5
323.796	15.89
324.007	16.58
324.219	17.12
324.431	17.78
324.643	18.52
324.855	18.43
325.067	17.92
325.279	18.49
325.491	19.77
325.702	19.54
325.914	19.93
326.126	19.92
326.338	19.86
326.55	19.47
326.761	19.73
326.973	19.24
327.185	19.27
327.396	19.59
327.608	17.71
327.82	17.3
328.032	17.83
328.243	17.8
328.455	18.41
328.666	19.31
328.878	18.4
329.09	18.08
329.301	17.36
329.513	17.42
329.725	16.63
329.936	17.54
330.148	17.31
330.359	17.32
330.571	18.02
330.782	17.39
330.994	17.43
331.205	19
331.417	19.84
331.628	21.16
331.84	20.37
332.051	20.87
332.262	20.78
332.474	21.52
332.685	21.31
332.897	20.05
333.108	20.56
333.319	21.05
333.531	20.7
333.742	21.53
333.953	21.1
334.165	21.07
334.376	21.83
334.587	21.36
334.799	21.23
335.01	21.95
335.221	23.24
335.432	23.29
335.644	22.12
335.855	21.92
336.066	20.7
336.277	21.22
336.488	20.97
336.7	20.23
336.911	21.33
337.122	20.43
337.333	20.02
337.544	20.06
337.755	20.53
337.966	21.03
338.177	20.71
338.388	20.24
338.599	20.75
338.811	20.72
339.022	20.74
339.233	20.62
339.444	21.63
339.655	22.01
339.866	21.61
340.076	20.93
340.287	21.17
340.498	21.77
340.709	22.35
340.92	22.2
341.131	22.28
341.342	22.45
341.553	22.35
341.764	21.05
341.975	21.16
342.185	20.39
342.396	20.53
342.607	20.04
342.818	19.97
343.029	19.23
343.239	19.13
343.45	19.65
343.661	19.12
343.872	18.31
344.082	18.3
344.293	17.79
344.504	17.68
344.714	17.53
344.925	17.25
345.136	17.02
345.346	17.75
345.557	16.96
345.768	16.75
345.978	17.22
346.189	18.74
346.399	19.14
346.61	19.72
346.821	19.98
347.031	19.5
347.242	20.6
347.452	20.94
347.663	21.74
347.873	22.09
348.084	22.59
348.294	22.74
348.504	20.83
348.715	20.99
348.925	21.1
349.136	21.19
349.346	21.7
349.557	20.9
349.767	21.18
349.977	20.71
350.188	20.7
350.398	20.07
350.608	19.92
350.819	21.12
351.029	20.34
351.239	19.55
351.449	19.5
351.66	18.2
351.87	18.67
352.08	18.1
352.29	17.69
352.501	17.88
352.711	18.26
352.921	17.93
353.131	17.57
353.341	18.37
353.552	19.02
353.762	18.76
353.972	20.64
354.182	19.38
354.392	18.94
354.602	19.11
354.812	18.39
355.022	18.06
355.232	18.37
355.442	18.73
355.652	18.83
355.862	18.25
356.072	18.71
356.282	17.83
356.492	18.46
356.702	18.66
356.912	18.22
357.122	18.25
357.332	18.7
357.542	18.86
357.752	18.34
357.962	17.99
358.171	18.52
358.381	18.54
358.591	18.11
358.801	18.11
359.011	17.89
359.221	18.51
359.43	19.15
359.64	18.38
359.85	17.98
360.06	17.79
360.269	17.8
360.479	17.72
360.689	17.21
360.899	17.51
361.108	17.77
361.318	18.04
361.528	17.62
361.737	16.6
361.947	16.93
362.156	16.8
362.366	17.22
362.576	17.29
362.785	17.15
362.995	17.8
363.204	17.99
363.414	18.11
363.623	17.88
363.833	17.86
364.042	17.94
364.252	17.96
364.461	17.78
364.671	17.42
364.88	17.3
365.09	16.97
365.299	16.66
365.509	16.66
365.718	16.3
365.927	16.34
366.137	15.92
366.346	16.77
366.555	16.62
366.765	16.76
366.974	16.66
367.183	16.57
367.393	16.61
367.602	16.44
367.811	16.23
368.021	15.61
368.23	15.51
368.439	15.83
368.648	15.66
368.857	15.42
369.067	15.3
369.276	15.41
369.485	15.81
369.694	16.46
369.903	15.97
370.112	15.87
370.321	16.37
370.531	16.05
370.74	16.34
370.949	16.1
371.158	15.99
371.367	15.83
371.576	15.68
371.785	15.06
371.994	14.63
372.203	14.99
372.412	15.08
372.621	14.92
372.83	14.87
373.039	14.55
373.248	14.41
373.457	14.62
373.666	15.15
373.874	15.01
374.083	14.95
374.292	14.27
374.501	14.16
374.71	13.94
374.919	14.23
375.128	14.75
375.336	14.67
375.545	14.65
375.754	14.78
375.963	14.29
376.171	13.95
376.38	13.9
376.589	14.47
376.798	14.01
377.006	13.72
377.215	13.53
377.424	13.36
377.632	13.13
377.841	13.08
378.05	12.73
378.258	12.37
378.467	12.37
378.675	12.92
378.884	12.42
379.093	12.48
379.301	12.42
379.51	12.22
379.718	11.97
379.927	11.96
380.135	11.79
380.344	11.84
380.552	11.88
380.761	11.69
380.969	10.79
381.177	11.21
381.386	11.04
381.594	11.02
381.803	10.86
382.011	10.72
382.219	10.78
382.428	11.22
382.636	11.1
382.845	11.64
383.053	11.66
383.261	11.7
383.469	11.14
383.678	10.96
383.886	10.78
384.094	10.52
384.302	10.85
384.511	10.84
384.719	10.45
384.927	10.72
385.135	10.69
385.343	11.08
385.552	11.36
385.76	11.71
385.968	11.67
386.176	12
386.384	12.04
386.592	11.96
386.8	12.05
387.008	11.98
387.216	11.55
387.424	11.29
387.633	11.06
387.841	10.66
388.049	9.97
388.257	10
388.465	9.48
388.672	9.69
388.88	9.35
389.088	9.17
389.296	9.12
389.504	8.76
389.712	8.81
389.92	8.62
390.128	8.78
390.336	8.96
390.544	9.18
390.751	9.42
390.959	9.36
391.167	9.46
391.375	9.44
391.583	9.46
391.79	9.55
391.998	9.56
392.206	9.71
392.414	9.56
392.621	9.53
392.829	9.39
393.037	9.15
393.244	9.24
393.452	9.17
393.66	9.07
393.867	9.09
394.075	9.16
394.283	9.17
394.49	9.2
394.698	9.38
394.905	9.62
395.113	9.24
395.32	9.41
395.528	9.14
395.735	8.99
395.943	8.93
396.15	8.85
396.358	8.58
396.565	8.42
396.773	8.44
396.98	8.25
397.188	8.11
397.395	8.61
397.602	8.86
397.81	9.1
398.017	9.03
398.225	8.83
398.432	8.9
398.639	9.1
398.847	8.78
399.054	8.49
399.261	8.59
399.468	8.63
399.676	8.48
399.883	8.45
400.09	7.6
400.297	7.6
400.505	7.52
400.712	7.45
400.919	7.16
401.126	7.17
401.333	7.08
401.54	6.66
401.748	6.39
401.955	6.44
402.162	6.07
402.369	6.7
402.576	6.73
402.783	6.95
402.99	6.68
403.197	6.85
403.404	6.84
403.611	7.06
403.818	7.43
404.025	7.64
404.232	7.66
404.439	7.66
404.646	7.32
404.853	7.18
405.06	7.08
405.267	7
405.474	7
405.681	7
405.887	6.95
406.094	6.82
406.301	6.79
406.508	6.62
406.715	6.75
406.922	7.03
407.128	7.42
407.335	7.42
407.542	7.53
407.749	7.54
407.955	7.47
408.162	7.13
408.369	7.05
408.575	6.84
408.782	6.87
408.989	6.93
409.195	6.67
409.402	6.31
409.609	6.47
409.815	6.34
410.022	6.51
410.228	6.66
410.435	6.96
410.642	6.95
410.848	7
411.055	7.07
411.261	6.92
411.468	6.86
411.674	6.87
411.881	6.63
412.087	6.74
412.294	6.65
412.5	6.87
412.706	6.58
412.913	6.43
413.119	6.47
413.326	6.43
413.532	6.28
413.738	6.28
413.945	6.23
414.151	6.28
414.357	6.18
414.564	6.07
414.77	5.79
414.976	6.01
415.182	6.18
415.389	6.01
415.595	5.75
415.801	6.11
416.007	6.38
416.214	6.16
416.42	6.32
416.626	6.26
416.832	6.2
417.038	6.45
417.244	6.23
417.45	6.12
417.657	6.25
417.863	6.27
418.069	5.8
418.275	5.77
418.481	5.83
418.687	5.97
418.893	6
419.099	6.27
419.305	5.84
419.511	6.02
419.717	6.13
419.923	6.05
420.129	6.01
420.335	6.3
420.541	6.35
420.746	6.32
420.952	6.29
421.158	6.24
421.364	6.02
421.57	6.1
421.776	6.03
421.982	5.9
422.187	5.94
422.393	6.08
422.599	5.96
422.805	5.86
423.01	5.82
423.216	5.59
423.422	5.64
423.628	5.69
423.833	5.69
424.039	5.68
424.245	5.85
424.45	5.88
424.656	5.84
424.862	5.76
425.067	5.82
425.273	5.99
425.478	6.05
425.684	6.03
425.889	6.01
426.095	6.17
426.301	6.24
426.506	6.22
426.712	6.14
426.917	6.2
427.123	6.29
427.328	6.2
427.533	5.96
427.739	5.96
427.944	5.98
428.15	5.94
428.355	5.9
428.561	5.79
428.766	5.67
428.971	5.86
429.177	5.58
429.382	5.56
429.587	5.59
429.793	5.69
429.998	5.61
430.203	5.53
430.408	5.6
430.614	5.71
430.819	5.74
431.024	6
431.229	5.77
431.434	5.78
431.64	5.82
431.845	5.88
432.05	6.06
432.255	6.22
432.46	6.32
432.665	6.05
432.87	6.16
433.076	6.18
433.281	6.01
433.486	6.01
433.691	6.25
433.896	6.17
434.101	6.01
434.306	6.1
434.511	5.83
434.716	5.78
434.921	6.13
435.126	5.72
435.331	5.51
435.535	5.41
435.74	5.34
435.945	5.05
436.15	5.29
436.355	5.49
436.56	5.26
436.765	5.41
436.97	5.57
437.174	5.46
437.379	5.57
437.584	5.61
437.789	5.67
437.993	5.8
438.198	5.89
438.403	5.74
438.608	5.59
438.812	5.61
439.017	5.61
439.222	5.54
439.426	5.48
439.631	5.44
439.836	5.72
440.04	5.65
440.245	5.62
440.45	5.62
440.654	5.67
440.859	5.72
441.063	5.75
441.268	5.67
441.472	5.55
441.677	5.66
441.881	5.88
442.086	5.73
442.29	5.74
442.495	5.67
442.699	5.72
442.904	5.66
443.108	5.89
443.312	5.88
443.517	5.95
443.721	6.2
443.925	5.99
444.13	5.63
444.334	5.52
444.538	5.48
444.743	5.51
444.947	5.42
445.151	5.44
445.356	5.34
445.56	5.24
445.764	5.35
445.968	5.24
446.173	5.36
446.377	5.38
446.581	5.53
446.785	5.64
446.989	5.57
447.193	5.63
447.398	5.56
447.602	5.44
447.806	5.51
448.01	5.43
448.214	5.52
448.418	5.43
448.622	5.53
448.826	5.42
449.03	5.35
449.234	5.46
449.438	5.54
449.642	5.53
449.846	5.67
450.05	5.67
450.254	5.49
450.458	5.34
450.662	5.45
450.866	5.36
451.069	5.35
451.273	5.24
451.477	5.27
451.681	5.17
451.885	5.2
452.089	4.89
452.292	4.92
452.496	5.01
452.7	5.17
452.904	5.17
453.107	5.42
453.311	5.5
453.515	5.66
453.719	5.73
453.922	5.69
454.126	5.71
454.33	5.84
454.533	5.91
454.737	6.03
454.94	5.9
455.144	5.81
455.348	5.68
455.551	5.69
455.755	5.45
455.958	5.31
456.162	5.34
456.365	5.39
456.569	5.57
456.772	5.59
456.976	5.37
457.179	5.39
457.383	5.34
457.586	5.28
457.79	5.15
457.993	5.16
458.196	5.27
458.4	5.19
458.603	5.18
458.807	5.08
459.01	5.08
459.213	5.17
459.417	5.28
459.62	5.34
459.823	5.3
460.026	5.44
460.23	5.41
460.433	5.3
460.636	5.34
460.839	5.33
461.042	5.35
461.246	5.32
461.449	5.39
461.652	5.28
461.855	5.25
462.058	5.42
462.261	5.24
462.464	5.44
462.668	5.49
462.871	5.46
463.074	5.3
463.277	5.37
463.48	5.4
463.683	5.34
463.886	5.29
464.089	5.49
464.292	5.42
464.495	5.38
464.698	5.43
464.901	5.23
465.104	5.28
465.306	5.27
465.509	5.17
465.712	5.08
465.915	5.02
466.118	5.12
466.321	4.99
466.524	4.92
466.726	4.95
466.929	4.88
467.132	4.98
467.335	5.03
467.538	5.31
467.74	5.46
467.943	5.44
468.146	5.52
468.348	5.52
468.551	5.4
468.754	5.45
468.956	5.48
469.159	5.48
469.362	5.6
469.564	5.8
469.767	5.77
469.969	5.63
470.172	5.65
470.375	5.69
470.577	5.69
470.78	5.75
470.982	5.76
471.185	5.8
471.387	5.79
471.59	5.76
471.792	5.44
471.995	5.17
472.197	5.46
472.399	5.36
472.602	5.14
472.804	5.14
473.007	5.27
473.209	5.39
473.411	5.38
473.614	5.37
473.816	5.4
474.018	5.47
474.22	5.77
474.423	5.54
474.625	5.59
474.827	5.85
475.03	5.82
475.232	5.78
475.434	5.6
475.636	5.43
475.838	5.49
476.04	5.44
476.243	5.41
476.445	5.04
476.647	4.97
476.849	5.22
477.051	5.09
477.253	5.06
477.455	4.9
477.657	4.97
477.859	5.21
478.061	5.16
478.263	5.24
478.465	5.26
478.667	5.31
478.869	5.44
479.071	5.26
479.273	5.45
479.475	5.51
479.677	5.69
479.879	5.76
480.081	5.84
480.283	5.84
480.485	5.92
480.686	5.82
480.888	5.99
481.09	5.93
481.292	5.96
481.494	5.77
481.695	5.75
481.897	5.65
482.099	5.57
482.301	5.38
482.502	5.31
482.704	5.21
482.906	5.18
483.107	5.16
483.309	5.09
483.511	5.11
483.712	5.11
483.914	5.09
484.115	5.1
484.317	5.05
484.519	5.08
484.72	5.14
484.922	5.1
485.123	5.2
485.325	5.14
485.526	5.18
485.728	5.19
485.929	5.21
486.131	5.26
486.332	5.27
486.534	5.32
486.735	5.25
486.936	5.23
487.138	5.25
487.339	5.18
487.541	5.25
487.742	5.25
487.943	5.27
488.144	5.27
488.346	5.25
488.547	5.24
488.748	5.21
488.95	5.26
489.151	5.17
489.352	5.2
489.553	5.24
489.755	5.22
489.956	5.17
490.157	5.08
490.358	5.08
490.559	5.02
490.76	5.03
490.961	5.05
491.163	5.03
491.364	5.06
491.565	5.16
491.766	5.16
491.967	5.17
492.168	5.16
492.369	5.17
492.57	5.08
492.771	5.11
492.972	5.09
493.173	5.12
493.374	5.1
493.575	5.08
493.776	4.94
493.976	4.89
494.177	4.93
494.378	5.06
494.579	5
494.78	5.12
494.981	5
495.182	5.02
495.382	5.22
495.583	5.34
495.784	5.42
495.985	5.4
496.185	5.31
496.386	5.31
496.587	5.26
496.788	5.28
496.988	5.13
497.189	5.14
497.39	5.1
497.59	5.03
497.791	5.03
497.992	5.09
498.192	5.2
498.393	5.21
498.593	5.29
498.794	5.18
498.994	5.24
499.195	5.56
499.395	5.69
499.596	5.85
499.796	5.75
499.997	5.8
500.197	5.85
500.398	5.87
500.598	5.99
500.799	5.99
500.999	6.1
501.199	6.11
501.4	5.87
501.6	5.78
501.801	5.57
502.001	5.49
502.201	5.45
502.402	5.29
502.602	5.26
502.802	5.25
503.002	5.24
503.203	5.21
503.403	5.2
503.603	5.41
503.803	5.73
504.003	5.93
504.204	6.31
504.404	6.46
504.604	6.53
504.804	6.71
505.004	6.81
505.204	6.85
505.404	6.86
505.604	6.84
505.804	6.89
506.005	6.83
506.205	6.83
506.405	6.68
506.605	6.46
506.805	6.55
507.005	6.48
507.204	6.53
507.404	6.67
507.604	6.79
507.804	7.06
508.004	7.09
508.204	7.06
508.404	7.09
508.604	7.2
508.804	7.49
509.003	7.64
509.203	7.74
509.403	7.69
509.603	7.68
509.803	7.75
510.002	7.68
510.202	7.74
510.402	7.94
510.602	8.03
510.801	7.93
511.001	7.83
511.201	7.67
511.4	7.72
511.6	7.87
511.8	7.79
511.999	7.85
512.199	7.94
512.398	7.91
512.598	7.92
512.797	7.98
512.997	8.17
513.197	8.28
513.396	8.48
513.596	8.47
513.795	8.55
513.994	8.76
514.194	8.79
514.393	8.83
514.593	8.83
514.792	8.78
514.992	8.8
515.191	8.92
515.39	9.06
515.59	9.21
515.789	9.3
515.988	9.42
516.188	9.4
516.387	9.57
516.586	9.8
516.786	10.07
516.985	10.29
517.184	10.33
517.383	10.36
517.582	10.36
517.782	10.33
517.981	10.46
518.18	10.5
518.379	10.72
518.578	10.78
518.777	10.64
518.976	10.72
519.176	10.6
519.375	10.76
519.574	10.91
519.773	11.04
519.972	11.18
520.171	11.25
520.37	11.3
520.569	11.41
520.768	11.43
520.967	11.82
521.166	11.89
521.365	12.07
521.564	12.27
521.762	12.27
521.961	12.41
522.16	12.6
522.359	12.47
522.558	12.48
522.757	12.37
522.956	12.58
523.154	12.63
523.353	12.79
523.552	13.01
523.751	12.97
523.949	13.09
524.148	13.19
524.347	13.35
524.546	13.78
524.744	13.93
524.943	14.11
525.142	14.12
525.34	14.24
525.539	14.32
525.737	14.45
525.936	14.52
526.135	14.76
526.333	14.8
526.532	14.86
526.73	14.92
526.929	15.06
527.127	15.2
527.326	15.38
527.524	15.58
527.723	15.74
527.921	15.86
528.12	16.03
528.318	16.08
528.516	16.14
528.715	16.25
528.913	16.28
529.112	16.43
529.31	16.43
529.508	16.47
529.707	16.39
529.905	16.42
530.103	16.46
530.301	16.51
530.5	16.49
530.698	16.61
530.896	16.71
531.094	16.87
531.293	16.95
531.491	17.21
531.689	17.4
531.887	17.53
532.085	17.66
532.283	17.72
532.481	17.77
532.68	17.93
532.878	18
533.076	18.1
533.274	18.18
533.472	18.21
533.67	18.18
533.868	18.26
534.066	18.49
534.264	18.57
534.462	18.75
534.66	18.91
534.858	19.02
535.056	19.23
535.253	19.29
535.451	19.41
535.649	19.54
535.847	19.71
536.045	19.87
536.243	19.75
536.441	19.83
536.638	19.84
536.836	19.91
537.034	20.04
537.232	20.13
537.43	20.19
537.627	20.31
537.825	20.47
538.023	20.54
538.22	20.64
538.418	20.97
538.616	20.97
538.813	21.17
539.011	21.29
539.209	21.36
539.406	21.35
539.604	21.51
539.801	21.61
539.999	21.68
540.196	21.86
540.394	21.9
540.591	21.89
540.789	22.04
540.986	21.95
541.184	21.97
541.381	21.99
541.579	22.07
541.776	22.05
541.974	21.98
542.171	21.95
542.368	22.02
542.566	22.03
542.763	22.12
542.96	22.17
543.158	22.39
543.355	22.53
543.552	22.63
543.75	22.74
543.947	22.77
544.144	22.92
544.341	23.13
544.539	23.11
544.736	23.16
544.933	23.26
545.13	23.34
545.327	23.24
545.524	23.2
545.722	23.24
545.919	23.32
546.116	23.41
546.313	23.62
546.51	23.54
546.707	23.61
546.904	23.73
547.101	23.79
547.298	23.87
547.495	23.85
547.692	23.81
547.889	23.81
548.086	23.79
548.283	23.93
548.48	24.01
548.677	24.21
548.874	24.23
549.07	24.44
549.267	24.47
549.464	24.44
549.661	24.7
549.858	25.08
550.055	25.23
550.251	25.32
550.448	25.46
550.645	25.34
550.842	25.39
551.038	25.51
551.235	25.39
551.432	25.43
551.628	25.65
551.825	25.76
552.022	25.74
552.218	25.86
552.415	26.08
552.612	26.12
552.808	26.29
553.005	26.39
553.201	26.44
553.398	26.55
553.594	26.73
553.791	26.8
553.987	26.76
554.184	26.82
554.38	26.86
554.577	26.92
554.773	27.16
554.97	27.19
555.166	27.12
555.362	27.17
555.559	27.23
555.755	27.07
555.952	27.24
556.148	27.46
556.344	27.6
556.541	27.6
556.737	27.57
556.933	27.57
557.129	27.86
557.326	27.85
557.522	27.98
557.718	28.04
557.914	28.2
558.11	28.04
558.307	28.05
558.503	28.02
558.699	28.14
558.895	28.06
559.091	28.12
559.287	28.13
559.483	28.05
559.679	27.99
559.876	28.12
560.072	28.34
560.268	28.27
560.464	28.38
560.66	28.31
560.856	28.55
561.052	28.64
561.247	28.33
561.443	28.24
561.639	28.56
561.835	28.62
562.031	28.48
562.227	28.24
562.423	28.29
562.619	28.25
562.815	28.41
563.01	28.13
563.206	28.27
563.402	28.63
563.598	28.59
563.793	28.56
563.989	28.64
564.185	29.01
564.381	29.22
564.576	29.52
564.772	29.6
564.968	29.59
565.163	29.73
565.359	29.84
565.555	29.74
565.75	29.69
565.946	29.69
566.141	29.73
566.337	29.4
566.532	29.52
566.728	29.29
566.923	29.38
567.119	29.63
567.314	29.78
567.51	29.56
567.705	29.52
567.901	29.61
568.096	29.67
568.292	29.69
568.487	29.68
568.682	29.58
568.878	29.81
569.073	29.8
569.268	29.73
569.464	29.69
569.659	29.81
569.854	29.94
570.05	30.24
570.245	30.4
570.44	30.34
570.635	30.39
570.831	30.56
571.026	30.7
571.221	30.66
571.416	30.62
571.611	30.67
571.806	30.68
572.002	30.82
572.197	30.7
572.392	30.63
572.587	30.82
572.782	30.87
572.977	30.84
573.172	30.63
573.367	30.56
573.562	30.49
573.757	30.34
573.952	30.47
574.147	30.34
574.342	30.33
574.537	30.54
574.732	30.53
574.927	30.75
575.121	30.61
575.316	30.7
575.511	30.63
575.706	30.49
575.901	30.67
576.096	30.59
576.29	30.66
576.485	30.68
576.68	30.59
576.875	30.49
577.069	30.27
577.264	30.4
577.459	30.56
577.654	30.86
577.848	31.03
578.043	31.28
578.238	31.6
578.432	31.68
578.627	31.53
578.821	31.55
579.016	31.68
579.21	31.74
579.405	31.81
579.6	31.7
579.794	31.6
579.989	31.69
580.183	31.15
580.378	31.01
580.572	31.03
580.766	31.06
580.961	31.25
581.155	31.16
581.35	31.26
581.544	31.35
581.738	31.38
581.933	31.74
582.127	31.92
582.321	32.13
582.516	32.03
582.71	32.14
582.904	32.2
583.099	31.77
583.293	32.09
583.487	32.19
583.681	32.16
583.875	32.12
584.07	32.04
584.264	32.02
584.458	32.12
584.652	32.13
584.846	31.79
585.04	32.06
585.234	32.22
585.428	31.83
585.623	32.08
585.817	32.28
586.011	32.22
586.205	32.09
586.399	32.11
586.593	32.22
586.787	32.12
586.981	32.23
587.174	31.99
587.368	32.1
587.562	32.57
587.756	32.31
587.95	31.98
588.144	32.36
588.338	32.31
588.532	32.25
588.725	32.12
588.919	32.21
589.113	32.36
589.307	32.47
589.501	32.49
589.694	32.38
589.888	32.33
590.082	32.65
590.275	32.48
590.469	32.42
590.663	32.59
590.856	32.65
591.05	32.69
591.244	32.68
591.437	32.56
591.631	32.78
591.824	32.55
592.018	32.58
592.212	32.44
592.405	32.33
592.599	32.66
592.792	32.37
592.986	32.46
593.179	32.59
593.372	32.91
593.566	33.01
593.759	32.75
593.953	32.92
594.146	32.97
594.339	32.77
594.533	32.91
594.726	32.89
594.92	32.88
595.113	32.96
595.306	32.93
595.499	32.54
595.693	32.5
595.886	32.59
596.079	32.55
596.272	32.65
596.466	32.8
596.659	32.79
596.852	32.97
597.045	33.28
597.238	33.08
597.431	32.86
597.624	33.04
597.818	33.3
598.011	33.21
598.204	33.53
598.397	33.35
598.59	33.21
598.783	33.27
598.976	33.17
599.169	32.93
599.362	33.42
599.555	33.88
599.748	33.8
599.941	33.83
600.134	34.16
600.326	33.87
600.519	34.33
600.712	34.65
600.905	34.52
601.098	34.4
601.291	34.59
601.483	34.29
601.676	33.99
601.869	34.1
602.062	33.91
602.255	33.79
602.447	33.76
602.64	33.69
602.833	33.76
603.025	33.9
603.218	33.72
603.411	33.62
603.603	33.7
603.796	33.85
603.989	33.94
604.181	34.04
604.374	34.05
604.566	34.23
604.759	34.18
604.951	34.18
605.144	34.23
605.336	34.32
605.529	34.4
605.721	34.32
605.914	34.4
606.106	34.21
606.299	34.21
606.491	34.36
606.683	34.18
606.876	34.2
607.068	34.14
607.26	34.13
607.453	34.09
607.645	33.89
607.837	33.92
608.03	33.73
608.222	34.05
608.414	34.06
608.606	33.69
608.799	33.66
608.991	33.58
609.183	33.49
609.375	33.37
609.567	33.28
609.759	33.23
609.952	33.14
610.144	33.1
610.336	32.65
610.528	32.29
610.72	32.39
610.912	32.23
611.104	32.23
611.296	32.11
611.488	31.85
611.68	31.92
611.872	31.86
612.064	31.92
612.256	31.93
612.448	31.89
612.64	32.35
612.832	32.24
613.023	32.59
613.215	32.38
613.407	32.56
613.599	32.86
613.791	32.88
613.983	33.4
614.174	33.21
614.366	33.15
614.558	33.58
614.75	33.7
614.941	34
615.133	33.94
615.325	34.16
615.516	34.1
615.708	34.07
615.9	34.17
616.091	33.92
616.283	34.32
616.475	34.53
616.666	34.73
616.858	34.68
617.049	34.54
617.241	34.55
617.432	34.88
617.624	35.23
617.815	35.25
618.007	35.1
618.198	35.41
618.39	35.26
618.581	34.97
618.773	34.89
618.964	34.58
619.155	34.79
619.347	34.94
619.538	34.72
619.729	34.68
619.921	34.55
620.112	34.82
620.303	34.63
620.494	34.49
620.686	34.79
620.877	34.89
621.068	35.36
621.259	35.23
621.451	35.09
621.642	34.97
621.833	35
622.024	35.5
622.215	35.27
622.406	35.32
622.597	35.43
622.788	35.4
622.98	35.28
623.171	34.99
623.362	34.9
623.553	35.07
623.744	35.31
623.935	35.14
624.126	34.67
624.317	34.79
624.508	34.64
624.698	34.82
624.889	35.18
625.08	35.25
625.271	35.21
625.462	35.2
625.653	34.87
625.844	34.83
626.034	34.87
626.225	34.89
626.416	34.61
626.607	34.61
626.798	34.52
626.988	34.18
627.179	34.28
627.37	34.11
627.56	34.31
627.751	34.27
627.942	33.95
628.132	34.05
628.323	34.19
628.514	34.57
628.704	34.53
628.895	34.42
629.085	34.7
629.276	34.55
629.466	34.42
629.657	34.47
629.847	34.64
630.038	35.01
630.228	34.75
630.419	34.62
630.609	34.62
630.8	34.38
630.99	34.59
631.181	34.29
631.371	34
631.561	34.47
631.752	34.22
631.942	34.44
632.132	34.25
632.323	34.27
632.513	34.68
632.703	34.35
632.893	34.61
633.084	34.68
633.274	34.95
633.464	34.95
633.654	35.02
633.844	34.92
634.034	34.68
634.225	34.87
634.415	34.91
634.605	34.88
634.795	35.31
634.985	35.59
635.175	35.29
635.365	35.41
635.555	35.68
635.745	35.67
635.935	35.76
636.125	35.89
636.315	35.66
636.505	35.7
636.695	35.61
636.885	35.53
637.075	35.58
637.265	35.59
637.455	35.29
637.644	34.99
637.834	34.63
638.024	34.59
638.214	34.61
638.404	34.77
638.593	34.7
638.783	34.54
638.973	34.28
639.163	34.25
639.352	34.59
639.542	34.73
639.732	35.12
639.921	35.5
640.111	35.6
640.301	35.32
640.49	35.61
640.68	36.05
640.87	36.36
641.059	36.55
641.249	36.32
641.438	36.1
641.628	36.06
641.817	36.3
642.007	36.31
642.196	36.29
642.386	36.58
642.575	36.47
642.764	36.24
642.954	36.41
643.143	36.04
643.333	36.78
643.522	36.98
643.711	36.97
643.901	36.77
644.09	36.58
644.279	37.36
644.469	37.07
644.658	36.59
644.847	36.66
645.036	36.39
645.226	36.89
645.415	36.28
645.604	36.16
645.793	35.91
645.982	35.71
646.171	35.81
646.361	35.2
646.55	35.94
646.739	36.23
646.928	36.25
647.117	36.14
647.306	35.91
647.495	35.91
647.684	35.96
647.873	36.22
648.062	36.56
648.251	36.19
648.44	36.23
648.629	35.98
648.818	35.73
649.007	35.28
649.196	35.33
649.384	35.92
649.573	36.15
649.762	35.93
649.951	35.78
650.14	35.49
650.328	36.34
650.517	36.26
650.706	35.77
650.895	36.17
651.083	36.35
651.272	36.18
651.461	35.78
651.65	35.57
651.838	35.81
652.027	35.71
652.216	35.56
652.404	34.87
652.593	35.1
652.781	35.61
652.97	35.57
653.158	35.37
653.347	35.79
653.535	35.74
653.724	35.53
653.912	35.2
654.101	35.8
654.289	36.42
654.478	36.59
654.666	36.04
654.855	35.81
655.043	35.96
655.231	36.56
655.42	36.53
655.608	36.56
655.796	37
655.985	37.63
656.173	37.29
656.361	36.69
656.55	36.82
656.738	37.17
656.926	37.3
657.114	37.01
657.302	36.79
657.491	36.6
657.679	36.67
657.867	36.39
658.055	36.18
658.243	36.17
658.431	36.41
658.619	36.31
658.807	36.29
658.996	36.04
659.184	36.08
659.372	36
659.56	36.03
659.748	36
659.936	35.78
660.124	35.76
660.311	35.69
660.499	35.35
660.687	35.52
660.875	35.26
661.063	35.58
661.251	35.71
661.439	35.83
661.627	35.66
661.814	35.52
662.002	35.93
662.19	35.64
662.378	36.1
662.565	36.1
662.753	36.2
662.941	36.23
663.129	36.08
663.316	36.34
663.504	35.98
663.692	35.97
663.879	36.05
664.067	35.83
664.254	36.16
664.442	36.05
664.63	36.68
664.817	36.49
665.005	36.53
665.192	36.33
665.38	36.27
665.567	36.76
665.755	36.92
665.942	37.12
666.13	37.28
666.317	37.1
666.504	36.67
666.692	36.52
666.879	36.28
667.067	36.76
667.254	36.99
667.441	36.96
667.629	36.66
667.816	36.76
668.003	36.87
668.19	36.65
668.378	36.99
668.565	37.19
668.752	36.94
668.939	37.08
669.127	36.65
669.314	36.61
669.501	36.24
669.688	36.4
669.875	36.65
670.062	36.8
670.249	36.89
670.436	36.73
670.623	36.91
670.81	37.14
670.997	37.62
671.184	37.8
671.371	37.88
671.558	38.05
671.745	38.04
671.932	37.8
672.119	37.02
672.306	37.28
672.493	37.16
672.68	36.67
672.867	36.41
673.054	35.83
673.24	35.6
673.427	35.87
673.614	35.98
673.801	36.29
673.988	36.47
674.174	36.69
674.361	36.61
674.548	36.71
674.734	36.96
674.921	37.3
675.108	37.26
675.294	37.96
675.481	37.86
675.668	37.57
675.854	37.04
676.041	36.92
676.227	36.66
676.414	36.36
676.601	36.09
676.787	35.89
676.974	35.18
677.16	35.43
677.347	35.22
677.533	35.29
677.719	35.54
677.906	35.77
678.092	35.37
678.279	36.18
678.465	36.65
678.651	37.06
678.838	37
679.024	37.52
679.21	37.09
679.397	37.13
679.583	36.73
679.769	36.74
679.955	36.43
680.142	36.42
680.328	35.94
680.514	35.88
680.7	36.01
680.886	36.12
681.073	35.92
681.259	36.52
681.445	36.4
681.631	36.42
681.817	36.35
682.003	36.6
682.189	36.88
682.375	36.77
682.561	36.59
682.747	36.43
682.933	36.68
683.119	36.79
683.305	36.52
683.491	36.31
683.677	36.55
683.863	36.41
684.049	36.28
684.235	36.74
684.42	37.14
684.606	37.14
684.792	36.86
684.978	36.99
685.164	36.93
685.349	37.22
685.535	37.33
685.721	37.72
685.907	37.64
686.092	37.83
686.278	37.13
686.464	37.34
686.649	37.01
686.835	36.96
687.021	36.48
687.206	36.74
687.392	36.52
687.577	36.75
687.763	36.28
687.948	36.42
688.134	36.25
688.319	36.22
688.505	36.14
688.69	37.02
688.876	36.7
689.061	36.59
689.247	36.31
689.432	35.86
689.618	35.81
689.803	35.94
689.988	36.02
690.174	35.99
690.359	35.91
690.544	35.6
690.73	35.58
690.915	36.34
691.1	36.31
691.285	36.95
691.471	37.34
691.656	37.32
691.841	36.9
692.026	36.61
692.211	36.86
692.396	37.05
692.582	37.05
692.767	36.35
692.952	36.07
693.137	36.37
693.322	36.07
693.507	36.16
693.692	35.95
693.877	36.62
694.062	37.09
694.247	36.71
694.432	36.46
694.617	36.53
694.802	36.72
694.987	36.52
695.172	36.14
695.357	36.65
695.541	36.32
695.726	37.02
695.911	36.6
696.096	37.12
696.281	36.84
696.466	37.46
696.65	37.69
696.835	37.57
697.02	38.07
697.204	38.44
697.389	38.24
697.574	38.47
697.759	37.93
697.943	38.21
698.128	37.61
698.312	38.19
698.497	38.07
698.682	37.71
698.866	37.91
699.051	37.59
699.235	37.65
699.42	37.47
699.604	37.59
699.789	37.37
699.973	37.36
700.158	37.45
700.342	37.18
700.527	37.01
700.711	37.22
700.895	37.19
701.08	37.58
701.264	37.53
701.448	37.23
701.633	36.74
701.817	36.71
702.001	36.31
702.186	36.55
702.37	36.65
702.554	36.86
702.738	36.92
702.923	36.37
703.107	36.5
703.291	36.16
703.475	35.96
703.659	36.06
703.843	36.65
704.027	36.8
704.212	36.88
704.396	36.32
704.58	36.09
704.764	35.81
704.948	35.77
705.132	35.32
705.316	35.87
705.5	36.77
705.684	37.27
705.868	37.31
706.052	37.56
706.235	37.11
706.419	37.56
706.603	37.89
706.787	37.38
706.971	38.37
707.155	38.5
707.339	38.35
707.522	37.42
707.706	37.08
707.89	36.69
708.074	36.58
708.257	37.15
708.441	37.42
708.625	37.41
708.808	37.77
708.992	37.55
709.176	37.35
709.359	37.5
709.543	38.01
709.727	37.65
709.91	37.75
710.094	38.48
710.277	38.21
710.461	38.62
710.644	38.34
710.828	39.06
711.011	39.27
711.195	39.57
711.378	39.55
711.562	39.67
711.745	39.82
711.928	40.61
712.112	39.63
712.295	38.86
712.478	38.29
712.662	38.95
712.845	38.27
713.028	38.25
713.212	37.79
713.395	37.35
713.578	37.09
713.761	37.55
713.945	36.41
714.128	36.71
714.311	37.31
714.494	37.04
714.677	36.28
714.86	37.43
715.043	37.16
715.227	37.4
715.41	38.01
715.593	37.89
715.776	37.28
715.959	37.03
716.142	36.62
716.325	36.49
716.508	36.61
716.691	36.88
716.874	36.68
717.057	36.11
717.239	36.33
717.422	35.79
717.605	36.19
717.788	35.98
717.971	36.72
718.154	37.26
718.337	37.42
718.519	37.7
718.702	37.28
718.885	37.08
719.068	37.96
719.25	37.06
719.433	37.26
719.616	36.71
719.798	36.78
719.981	35.68
720.164	35.38
720.346	35.44
720.529	35.61
720.712	35.18
720.894	33.67
721.077	33.39
721.259	33.74
721.442	33.9
721.624	33.83
721.807	34.83
721.989	36.36
722.172	36.18
722.354	36.53
722.537	36.3
722.719	37.27
722.901	37.92
723.084	37.17
723.266	37.83
723.448	38.27
723.631	37.47
723.813	37.11
723.995	36.72
724.178	37.21
724.36	36.91
724.542	37.37
724.724	37.6
724.907	37.63
725.089	38.07
725.271	37.35
725.453	36.35
725.635	38.55
725.817	38.54
725.999	38.71
726.181	38.07
726.364	38.1
726.546	37.54
726.728	37.89
726.91	38.15
727.092	38.57
727.274	39.27
727.456	39.96
727.638	39.53
727.819	39.17
728.001	38.45
728.183	39.04
728.365	38.81
728.547	39.72
728.729	39.48
728.911	39.01
729.093	37.91
729.274	38.25
729.456	37.95
729.638	36.54
729.82	36.96
730.001	37.23
730.183	36.14
730.365	36.82
730.546	36.31
730.728	36.31
730.91	36.93
731.091	37.12
731.273	37.21
731.455	36.61
731.636	37.66
731.818	37.51
731.999	38
732.181	38.89
732.362	38.49
732.544	37.94
732.725	37.77
732.907	37.43
733.088	38.14
733.27	37.02
733.451	38.03
733.633	38.01
733.814	38.42
733.995	37.9
734.177	38.05
734.358	37.51
734.539	38.29
734.721	38.42
734.902	38.67
735.083	38.48
735.264	38.59
735.446	38.45
735.627	38.28
735.808	37.85
735.989	38.34
736.17	37.83
736.351	39.43
736.533	38.99
736.714	38.75
736.895	38.77
737.076	38.8
737.257	39.37
737.438	39.58
737.619	39.14
737.8	39.36
737.981	39.08
738.162	39.41
738.343	39.09
738.524	39.17
738.705	38.82
738.886	38.34
739.067	39.12
739.247	39.29
739.428	38.93
739.609	39.32
739.79	39.5
739.971	39.16
740.151	39
740.332	37.96
740.513	37.84
740.694	37.32
740.874	37.58
741.055	35.83
741.236	35.2
741.417	34.02
741.597	34.23
741.778	33.69
741.958	33.48
742.139	33.96
742.32	34.94
742.5	34.71
742.681	35.87
742.861	35.72
743.042	37.9
743.222	37.95
743.403	39.67
743.583	39.52
743.764	39.08
743.944	39.46
744.124	40.13
744.305	40.39
744.485	40.51
744.666	39.37
744.846	39.96
745.026	38.15
745.207	38.8
745.387	38.32
745.567	38.66
745.747	39.37
745.928	39.85
746.108	37.65
746.288	36.24
746.468	36.88
746.648	37.33
746.829	36.8
747.009	37.68
747.189	36.77
747.369	36.21
747.549	35.77
747.729	35.96
747.909	34.49
748.089	35.12
748.269	34.75
748.449	33.76
748.629	34.47
748.809	33.74
748.989	33.51
749.169	33.37
749.349	34.06
749.529	33.49
749.709	33.63
749.889	34.46
750.068	35.18
750.248	36.04
750.428	36.59
750.608	36.76
750.788	37.43
750.967	36.62
751.147	37.19
751.327	36.82
751.507	37.06
751.686	37.27
751.866	39.08
752.046	38.44
752.225	38.31
752.405	38.9
752.585	38.85
752.764	39.33
752.944	40.33
753.123	40.44
753.303	40.06
753.482	40.81
753.662	39.76
753.841	39.03
754.021	38.25
754.2	37.27
754.38	36.84
754.559	36.39
754.739	35.14
754.918	34.6
755.097	34.61
755.277	35.41
755.456	35.84
755.635	36.77
755.815	35.33
755.994	36.14
756.173	36.78
756.352	37.48
756.532	37.64
756.711	40.15
756.89	40.03
757.069	40.54
757.248	40.51
757.427	38.55
757.607	38.03
757.786	38.85
757.965	39.99
758.144	40.79
758.323	39.59
758.502	39.6
758.681	38.93
758.86	39.76
759.039	39.57
759.218	39.59
759.397	40.57
759.576	40.62
759.755	40.4
759.934	39.58
760.113	40.05
760.291	40.37
760.47	40.54
760.649	39.61
760.828	39.44
761.007	39.32
761.186	38.11
761.364	37.55
761.543	37.42
761.722	37.73
761.901	38.16
762.079	37.2
762.258	37.31
762.437	36.98
762.615	36.88
762.794	37.03
762.972	36.6
763.151	37.03
763.33	37.65
763.508	37.07
763.687	37.01
763.865	36.81
764.044	36.75
764.222	36.64
764.401	36.44
764.579	37.58
764.758	36.87
764.936	36.69
765.114	37.18
765.293	37.15
765.471	37.68
765.65	38.12
765.828	37.79
766.006	37.04
766.184	36.49
766.363	37.01
766.541	34.41
766.719	35.83
766.898	36.37
767.076	36.03
767.254	36.07
767.432	35.8
767.61	34.76
767.788	35.35
767.967	36.02
768.145	35.6
768.323	33.65
768.501	35.5
768.679	33.9
768.857	33.75
769.035	34.08
769.213	33.62
769.391	34.63
769.569	33.95
769.747	33.06
769.925	33.22
770.103	33.89
770.281	35.19
770.459	35.59
770.636	36.46
770.814	36.71
770.992	37.08
771.17	37.39
771.348	37.66
771.525	38.92
771.703	38.47
771.881	38
772.059	39.39
772.236	39.81
772.414	39.37
772.592	37.89
772.769	39.71
772.947	39.09
773.125	39.07
773.302	38.59
773.48	39.03
773.657	40.21
773.835	40.67
774.013	40.36
774.19	40.65
774.368	40.05
774.545	41.05
774.723	39.19
774.9	39.88
775.077	40.46
775.255	40.36
775.432	38.56
775.61	38.96
775.787	40.74
775.964	39.89
776.142	40.2
776.319	41.52
776.496	41.23
776.674	39.93
776.851	37.94
777.028	35.57
777.205	35.89
777.382	37.95
777.56	37.35
777.737	34.63
777.914	35.5
778.091	35.27
778.268	34.28
778.445	35.7
778.622	36.52
778.8	39.39
778.977	41.54
779.154	40.52
779.331	40.34
779.508	40.14
779.685	42.23
779.862	41.77
780.038	40.37
780.215	38.15
780.392	37.86
780.569	36.99
780.746	36.04
780.923	35.41
781.1	37.02
781.277	37.17
781.453	36.9
781.63	36
781.807	34.89
781.984	36.05
782.16	38.27
782.337	37.26
782.514	39.43
782.691	38.97
782.867	39.22
783.044	38.47
783.221	39.08
783.397	41.51
783.574	42
783.75	42.89
783.927	42.14
784.103	41.99
784.28	41.3
784.456	40.51
784.633	41.41
784.809	41.49
784.986	41.42
785.162	39.25
785.339	35.94
785.515	35.82
785.692	36.16
785.868	38.7
786.044	39.66
786.221	38.5
786.397	38.64
786.573	38.58
786.749	37.81
786.926	38.25
787.102	41.52
787.278	40.35
787.454	39.29
787.631	37.06
787.807	34.41
787.983	34.03
788.159	36.79
788.335	37.18
788.511	37.3
788.687	37.05
788.863	35.78
789.039	33.56
789.216	34.4
789.392	34.77
789.568	36.71
789.744	38.58
789.919	36.05
790.095	36.55
790.271	37.25
790.447	34.93
790.623	34.54
790.799	34.91
790.975	35.2
791.151	35.95
791.327	37.45
791.502	37.79
791.678	37.02
791.854	39.64
792.03	40.79
792.205	39.75
792.381	39.44
792.557	42.56
792.733	41.83
792.908	40.86
793.084	42.68
793.259	40.65
793.435	39.81
793.611	39.54
793.786	39.92
793.962	38.29
794.137	38.12
794.313	37.7
794.488	34.37
794.664	36.24
794.839	37.98
795.015	37.51
795.19	36.35
795.366	37.45
795.541	36.51
795.716	36.97
795.892	35.64
796.067	35.87
796.242	37.79
796.418	38.47
796.593	38.96
796.768	38.87
796.944	37.46
797.119	38.8
797.294	37.36
797.469	37.95
797.644	37.51
797.82	39.16
797.995	38.99
798.17	40.08
798.345	41.13
798.52	39.27
798.695	39.78
798.87	39.13
799.045	39.98
799.22	42.53
799.395	44.51
799.57	43.26
799.745	43.35
799.92	42.43
800.095	39.99
800.27	40.5
800.445	40.51
800.62	39.96
800.795	40.3
800.97	41.55
801.145	38.57
801.319	36.66
801.494	35.27
801.669	31.93
801.844	33.39
802.018	34.19
802.193	32.03
802.368	32.29
802.543	32.78
802.717	33.86
802.892	32.82
803.067	34.74
803.241	34.96
803.416	37.45
803.59	39.74
803.765	38.2
803.94	39.25
804.114	38.46
804.289	39.72
804.463	39.54
804.638	39.98
804.812	37.15
804.986	36.01
805.161	34.48
805.335	34.27
805.51	35.97
805.684	34.26
805.858	33.93
806.033	37.62
806.207	38.26
806.381	37.78
806.556	36.33
806.73	38.61
806.904	37.15
807.078	39.55
807.253	40.26
807.427	38.98
807.601	43.78
807.775	43.47
807.949	40.15
808.123	40.09
808.298	38.14
808.472	40.96
808.646	40.88
808.82	44.56
808.994	44.39
809.168	43.02
809.342	43.83
809.516	40.38
809.69	41.5
809.864	44.5
810.038	41.28
810.212	44.86
810.385	42.93
810.559	41.71
810.733	40.36
810.907	39.96
811.081	38.99
811.255	37.2
811.428	38.01
811.602	36.99
811.776	35.57
811.95	38.49
812.123	35.97
812.297	33.74
812.471	34.36
812.644	35.5
812.818	35.15
812.992	36.46
813.165	36.52
813.339	37.85
813.512	39.14
813.686	39.96
813.86	39.83
814.033	43.11
814.207	46.45
814.38	51.26
814.554	51.42
814.727	50.68
814.9	50.68
815.074	50.95
815.247	48.82
815.421	49.29
815.594	49.1
815.767	49.01
815.941	43.98
816.114	45.85
816.287	39.11
816.46	38.62
816.634	40
816.807	39.62
816.98	40.24
817.153	42.65
817.327	40.93
817.5	37.68
817.673	37.02
817.846	38.52
818.019	36.25
818.192	40.28
818.365	39.16
818.538	40.45
818.711	41.32
818.884	38.96
819.057	37.73
819.23	38.82
819.403	43.39
819.576	44.46
819.749	46.04
819.922	42.89
820.095	39.05
820.268	39.92
820.441	40.32
820.614	40.36
820.786	42.76
820.959	41.24
821.132	40.55
821.305	40.1
821.477	38.32
821.65	37.92
821.823	38.41
821.996	38.97
822.168	39.01
822.341	37.66
822.514	37.47
822.686	37.29
822.859	37.67
823.031	37.74
823.204	37.7
823.376	38.54
823.549	38.25
823.722	38.61
823.894	38.6
824.067	38.81
824.239	39.15
824.411	38.98
824.584	38.95
824.756	39.06
824.929	39.37
825.101	38.95
825.273	37.97
825.446	38.4
825.618	38.18
825.79	37.81
825.963	36.98
826.135	37.73
826.307	37.66
826.479	36.75
826.652	36.57
826.824	36.09
826.996	35.85
827.168	37.52
827.34	38.26
827.512	38.53
827.684	39.1
827.856	39.68
828.029	39.44
828.201	38.85
828.373	39.54
828.545	40.07
828.717	40.26
828.889	40.11
829.061	39.52
829.232	38.58
829.404	38
829.576	38.39
829.748	38.37
829.92	37.86
830.092	40.12
830.264	41.36
830.436	42.52
830.607	41.45
830.779	42.02
830.951	42.88
831.123	43.99
831.294	44.83
831.466	44.77
831.638	44.37
831.809	43.91
831.981	45.02
832.153	43.47
832.324	42.98
832.496	45.18
832.667	45.94
832.839	41.77
833.011	40.84
833.182	41.75
833.354	38.74
833.525	39
833.697	40.27
833.868	40.3
834.039	39.69
834.211	35.81
834.382	36.11
834.554	37.01
834.725	39.52
834.896	39.37
835.068	38.49
835.239	40.78
835.41	41.08
835.581	40.45
835.753	40.38
835.924	41.25
836.095	43.11
836.266	41.1
836.438	39.78
836.609	39.53
836.78	37.86
836.951	37.22
837.122	37.11
837.293	37.14
837.464	36.78
837.635	33.21
837.806	33.92
837.977	35.71
838.148	36.8
838.319	39.36
838.49	38.55
838.661	39.39
838.832	41.87
839.003	38.85
839.174	39.62
839.345	41.09
839.516	44.47
839.687	44.67
839.857	41.18
840.028	41.66
840.199	38.88
840.37	36.72
840.54	42.46
840.711	40.85
840.882	41.17
841.053	38.5
841.223	42.34
841.394	43.52
841.564	36.89
841.735	40.8
841.906	39.43
842.076	40.64
842.247	48.04
842.417	45.3
842.588	48.8
842.758	51.41
842.929	52.82
843.099	45.55
843.27	43.11
843.44	50.4
843.611	49.81
843.781	54.29
843.951	55.39
844.122	52.81
844.292	51.86
844.462	46.72
844.633	48.78
844.803	45.44
844.973	45.73
845.144	46.23
845.314	42.76
845.484	38.68
845.654	39.2
845.824	36.7
845.995	39.69
846.165	37.62
846.335	38.89
846.505	39.37
846.675	44.8
846.845	55.78
847.015	65.5
847.185	69.84
847.355	70.63
847.525	71.23
847.695	67.32
847.865	57.76
848.035	55.2
848.205	49.21
848.375	53
848.545	54.4
848.715	44.46
848.884	32.51
849.054	31.99
849.224	31.35
849.394	33.93
849.564	38.71
849.733	32.32
849.903	40.19
850.073	41.72
850.243	31.54
850.412	24.54
850.582	21.07
850.752	26.54
850.921	26.11
851.091	21.36
851.26	14.83
851.43	15.06
851.599	19.57
851.769	13.34
851.939	20.5
852.108	22.84
852.278	27.78
852.447	32.26
852.616	30.69
852.786	29.55
852.955	39.21
853.125	51.84
853.294	52.66
853.463	54.37
853.633	52.86
853.802	48.62
853.971	58.37
854.141	53.8
854.31	54.28
854.479	56.1
854.648	53.6
854.818	51.04
854.987	43.66
855.156	41
855.325	35.6
855.494	37.36
855.663	40
855.832	39.03
856.001	42.16
856.171	43.88
856.34	43.13
856.509	44.02
856.678	43.58
856.847	47.48
857.016	50.73
857.185	58.77
857.353	64.2
857.522	58.51
857.691	50.65
857.86	50.66
858.029	48.65
858.198	54.1
858.367	56.56
858.535	51.74
858.704	53.16
858.873	63.74
859.042	66.05
859.21	59.17
859.379	61.23
859.548	62.87
859.717	69.69
859.885	65.91
860.054	63.56
860.222	63.68
860.391	62.92
860.56	60.48
860.728	52.42
860.897	55.97
861.065	60.09
861.234	58.79
861.402	57.33
861.571	56.39
861.739	56.02
861.908	57.76
862.076	57.04
862.244	57.21
862.413	48.23
862.581	47.15
862.749	41.07
862.918	44.36
863.086	44.58
863.254	44.26
863.423	43.05
863.591	42.48
863.759	39.73
863.927	36.82
864.096	43.92
864.264	42.23
864.432	43.1
864.6	43.94
864.768	27.55
864.936	29.4
865.104	29.11
865.272	26.11
865.44	24.51
865.608	16.72
865.776	20.79
865.944	16.1
866.112	25.17
866.28	25.48
866.448	23.92
866.616	32.71
866.784	29.7
866.952	30.35
867.12	19.96
867.288	18.93
867.455	27.12
867.623	29.52
867.791	31.48
867.959	34.18
868.127	32.68
868.294	40.98
868.462	47.2
868.63	54.93
868.797	69.17
868.965	76.42
869.133	74.82
869.3	73.75
869.468	75.31
869.636	68.43
869.803	69.8
869.971	71.12
870.138	66.78
870.306	63.06
870.473	62.32
870.641	59.39
870.808	56.11
870.975	62.29
871.143	62.65
871.31	62.72
871.478	66.33
871.645	59.5
871.812	64.02
871.98	65.97
872.147	61.28
872.314	52.31
872.482	33.39
872.649	34.2
872.816	32.61
872.983	27.07
873.15	20.82
873.318	24.2
873.485	31.31
873.652	27.45
873.819	21.18
873.986	29.84
874.153	25.99
874.32	32.76
874.487	39.15
874.654	39.65
874.821	50.08
874.988	57.04
875.155	54.89
875.322	54.48
875.489	57.14
875.656	67.04
875.823	65.91
875.99	74.86
876.157	78.57
876.324	75.09
876.49	75.17
876.657	71.26
876.824	69.79
876.991	65.12
877.157	66.33
877.324	60.29
877.491	54.51
877.658	58.18
877.824	43.35
877.991	45.29
878.157	45.6
878.324	44.7
878.491	39.31
878.657	42.14
878.824	49.25
878.99	49.84
879.157	47.91
879.323	46.13
879.49	37.02
879.656	44.31
879.823	35.62
879.989	27.49
880.156	30.61
880.322	30.51
880.488	27.11
880.655	27.71
880.821	22.72
880.987	26.96
881.154	37.85
881.32	40.22
881.486	45.37
881.652	46.87
881.819	50.03
881.985	47.69
882.151	46.7
882.317	47.57
882.483	47.73
882.649	47.75
882.816	46.83
882.982	43.22
883.148	42.97
883.314	42.64
883.48	43.75
883.646	43.96
883.812	42.52
883.978	41.92
884.144	41.75
884.31	40.52
884.476	41
884.642	40.44
884.807	40.07
884.973	39.67
885.139	36.91
885.305	36.6
885.471	34.45
885.637	35.2
885.802	34.99
885.968	33.68
886.134	32.89
886.3	33.83
886.465	33.9
886.631	32.5
886.797	34.82
886.962	37.15
887.128	34.97
887.293	37.07
887.459	39.82
887.625	43.25
887.79	43.47
887.956	40.99
888.121	39.24
888.287	41.4
888.452	42.6
888.618	37.76
888.783	37.23
