Data from CB_001_Reflection_3.txt Node
Date: Wed Nov 11 18:10:32 EST 2015
User: robert
Spectrometer: USB4E03001
Autoset integration time: false
Trigger mode: 4
Integration Time (sec): 1.000000E-1
Scans to average: 15
Electric dark correction enabled: true
Nonlinearity correction enabled: false
Boxcar width: 5
Stray light correction enabled: false
XAxis mode: Wavelengths
Stop averaging: false
Number of Pixels in Spectrum: 3648
>>>>>Begin Spectral Data<<<<<
177.566	-49.82
177.785	-86.24
178.005	22.24
178.225	-268.21
178.445	133.18
178.665	55.64
178.885	52.2
179.105	412.76
179.324	291.23
179.544	-197.4
179.764	-160.01
179.984	-54.5
180.204	123.14
180.423	58.39
180.643	117.4
180.863	293.81
181.083	2244.63
181.302	415.21
181.522	-1354.19
181.742	-309.34
181.961	304.51
182.181	139.11
182.401	220.76
182.621	929.93
182.84	202.52
183.06	261.59
183.279	304.22
183.499	721.62
183.719	760.15
183.938	403.44
184.158	713.7
184.377	-1140.07
184.597	-293.99
184.816	-251.77
185.036	-795.23
185.256	-294.26
185.475	775.04
185.695	-7828.74
185.914	246.52
186.134	121.84
186.353	165.15
186.572	271.47
186.792	205.27
187.011	198.92
187.231	149.28
187.45	197.74
187.67	196.24
187.889	2073.1
188.108	787.62
188.328	1511.36
188.547	-1432.01
188.766	-2459.76
188.986	1155.89
189.205	-71259.09
189.424	1578.67
189.644	9625.62
189.863	466.73
190.082	449.48
190.302	382.01
190.521	247.12
190.74	168.9
190.959	122.89
191.178	105.62
191.398	71.54
191.617	47.96
191.836	45.71
192.055	58.15
192.274	52.27
192.494	32.22
192.713	34.56
192.932	40.57
193.151	36.45
193.37	24.34
193.589	38.29
193.808	76.25
194.027	95.04
194.246	134.37
194.465	171.72
194.685	140.81
194.904	170.32
195.123	368.27
195.342	2273.32
195.561	295.31
195.78	258.73
195.999	277.9
196.218	1101.22
196.436	-454.15
196.655	-1629.39
196.874	668.74
197.093	696.12
197.312	792.94
197.531	-295.05
197.75	-379.05
197.969	-135.1
198.188	-118.3
198.407	-136.31
198.625	-479.61
198.844	-478.2
199.063	-436.31
199.282	-402.17
199.501	-242.94
199.719	-262.89
199.938	-4387.11
200.157	441.99
200.376	580.73
200.594	1014.38
200.813	-34168.57
201.032	2465.09
201.251	505.1
201.469	524.79
201.688	439.83
201.907	413.33
202.125	317.49
202.344	193.72
202.563	234.67
202.781	228.78
203	207.66
203.218	156.34
203.437	133.57
203.656	141.89
203.874	98.4
204.093	87.04
204.311	49.34
204.53	61.99
204.748	28.47
204.967	16.09
205.185	30.3
205.404	36.95
205.622	37.39
205.841	48.2
206.059	46.87
206.278	105.78
206.496	115.53
206.715	340.44
206.933	440.67
207.151	355.8
207.37	400.93
207.588	379.99
207.806	556.97
208.025	779.37
208.243	864.93
208.461	298.83
208.68	239.76
208.898	246
209.116	130.86
209.335	155.66
209.553	-294.72
209.771	184.64
209.989	-1378.7
210.208	-474.61
210.426	-261.05
210.644	-98.78
210.862	-102.87
211.081	-135.27
211.299	-180.9
211.517	-452.48
211.735	-326.02
211.953	-620.03
212.171	-268.33
212.39	-1237.73
212.608	-3732.03
212.826	600.05
213.044	426.85
213.262	345.34
213.48	291.25
213.698	517.54
213.916	-2412.79
214.134	-715.12
214.352	-1130
214.57	645.25
214.788	289.26
215.006	282.43
215.224	168.81
215.442	100.48
215.66	109.89
215.878	128.56
216.096	94.71
216.314	62.88
216.532	78.67
216.75	85.28
216.968	85.54
217.185	105.83
217.403	134.14
217.621	160.05
217.839	199.47
218.057	2847.74
218.275	-817.89
218.492	-108.55
218.71	-112.61
218.928	-142.78
219.146	-80.49
219.363	-46.96
219.581	-109.75
219.799	-156.31
220.017	-120.47
220.234	-63.83
220.452	-78.64
220.67	-88.71
220.887	-181.22
221.105	-141.21
221.323	-142.88
221.54	-81.19
221.758	-57.06
221.976	-31.36
222.193	-16.86
222.411	-49.41
222.629	-124.91
222.846	-127.81
223.064	-96.98
223.281	-83.37
223.499	-48.47
223.716	-66.33
223.934	-264.36
224.151	-667.03
224.369	-427.54
224.586	158250
224.804	-221.01
225.021	-15.06
225.239	-35.86
225.456	-76.89
225.674	-96.35
225.891	-58.3
226.108	-39.15
226.326	-27.85
226.543	-20.1
226.76	-8.75
226.978	-10.06
227.195	-8.48
227.413	-5.28
227.63	-5.74
227.847	-10.02
228.064	-3.38
228.282	3.61
228.499	10.3
228.716	11.81
228.934	10.46
229.151	9.73
229.368	9.16
229.585	2.87
229.802	5.38
230.02	6.44
230.237	8.06
230.454	8.49
230.671	3.79
230.888	-4.79
231.105	-8.34
231.323	-8.04
231.54	-2.57
231.757	-8.93
231.974	-1.02
232.191	-5.23
232.408	-3.64
232.625	-7.72
232.842	-9.93
233.059	-4.21
233.276	2.9
233.493	4.55
233.71	3.09
233.927	-2.57
234.144	4.94
234.361	-2.42
234.578	-3.63
234.795	-9.49
235.012	-7.38
235.229	-9.24
235.446	-16.76
235.663	-21.55
235.879	-21.04
236.096	-23.04
236.313	-35.39
236.53	-43.77
236.747	-34.86
236.964	-34.92
237.181	-42.12
237.397	-28.94
237.614	-20.62
237.831	-27.58
238.048	-28.38
238.264	-34.98
238.481	-28.77
238.698	-17.69
238.915	-18.33
239.131	-22.05
239.348	-23.66
239.565	-16.57
239.781	-22.98
239.998	-26.95
240.215	-14.8
240.431	-9.69
240.648	-4.88
240.865	-1.38
241.081	-4.42
241.298	0.08
241.514	2.93
241.731	5.89
241.947	6.98
242.164	8.18
242.38	8.97
242.597	8.31
242.814	9.3
243.03	7.73
243.246	8.13
243.463	9.69
243.679	9.03
243.896	10.1
244.112	7.43
244.329	6.05
244.545	5
244.762	6.93
244.978	8.11
245.194	3.74
245.411	3.84
245.627	-0.51
245.843	-0.25
246.06	1.98
246.276	2.65
246.492	3.96
246.709	5.58
246.925	4.66
247.141	3.48
247.357	3.61
247.574	5.06
247.79	5.98
248.006	5.93
248.222	7.49
248.439	6.83
248.655	6.01
248.871	5.99
249.087	5.76
249.303	6.4
249.519	5.62
249.736	2.39
249.952	-0.24
250.168	-3.99
250.384	-2.71
250.6	-7.09
250.816	-8.76
251.032	-8.82
251.248	-10.78
251.464	-12.34
251.68	-12.57
251.896	-8.95
252.112	-6.37
252.328	-3.6
252.544	-0.24
252.76	-1.65
252.976	-0.73
253.192	0.64
253.408	-0.18
253.624	3.03
253.84	2.92
254.056	2.18
254.272	0.47
254.487	2.33
254.703	1.27
254.919	-0.83
255.135	-0.49
255.351	0.07
255.567	-0.7
255.782	1.01
255.998	-3.57
256.214	-4.33
256.43	-2.06
256.646	-1.3
256.861	-3.49
257.077	-4.76
257.293	-6.54
257.508	-3.79
257.724	-5.46
257.94	-6.68
258.155	-6.39
258.371	-3.29
258.587	-1.52
258.802	-1.85
259.018	-0.88
259.234	0.95
259.449	2.01
259.665	2.49
259.88	2.53
260.096	3.42
260.312	4.57
260.527	4.86
260.743	5.2
260.958	5.33
261.174	5.1
261.389	5.04
261.605	4.36
261.82	4.55
262.036	5.12
262.251	4.44
262.466	4.73
262.682	2.27
262.897	3.12
263.113	0.33
263.328	-1.6
263.543	1.26
263.759	0.86
263.974	-0.04
264.189	-1.71
264.405	-1.22
264.62	-0.34
264.835	-1.74
265.051	-0.28
265.266	-4.18
265.481	-0.44
265.696	0.26
265.912	-1.58
266.127	-2.49
266.342	-3.19
266.557	-4.78
266.773	-6.36
266.988	-6.85
267.203	-8.26
267.418	-7.66
267.633	-6.02
267.848	-6.64
268.064	-4.66
268.279	-5.13
268.494	-5.28
268.709	-3.65
268.924	-2.09
269.139	-0.73
269.354	1.34
269.569	4.46
269.784	4.94
269.999	4.52
270.214	2.98
270.429	0.49
270.644	1.41
270.859	2.62
271.074	2.74
271.289	3.05
271.504	2.96
271.719	1.02
271.934	-0.62
272.149	-0.69
272.363	0.37
272.578	0.56
272.793	1.69
273.008	1.58
273.223	2.65
273.438	3.46
273.653	3.79
273.867	5.18
274.082	4.9
274.297	5.35
274.512	3.65
274.726	3.95
274.941	4.73
275.156	4.66
275.371	4.51
275.585	1.17
275.8	-0.4
276.015	-2.85
276.229	-6.08
276.444	-3.64
276.659	-4.83
276.873	-5.21
277.088	-5.62
277.302	-6.64
277.517	-7.58
277.732	-7.44
277.946	-6.35
278.161	-6.53
278.375	-5.62
278.59	-4.28
278.804	-4.38
279.019	-0.81
279.233	2.22
279.448	0.74
279.662	1.2
279.877	1.61
280.091	2.46
280.306	3.76
280.52	3.26
280.735	3.49
280.949	4.46
281.163	4.92
281.378	4.11
281.592	3.97
281.806	4.57
282.021	4.02
282.235	4.58
282.449	4.3
282.664	2.87
282.878	3.99
283.092	5.56
283.307	4.49
283.521	4.85
283.735	5.8
283.949	5.43
284.164	5.32
284.378	6.49
284.592	5.98
284.806	6.18
285.02	6.98
285.234	6.75
285.449	6.37
285.663	6.61
285.877	5.95
286.091	4.53
286.305	3.91
286.519	4.65
286.733	4.33
286.947	5.01
287.161	4.77
287.375	5.08
287.589	5.27
287.803	5.34
288.017	4.78
288.231	4.55
288.445	5.76
288.659	6.24
288.873	4.93
289.087	4.42
289.301	4.29
289.515	3.57
289.729	3.14
289.943	2.62
290.157	1.68
290.371	1.58
290.584	1.76
290.798	0.68
291.012	0.77
291.226	1.51
291.44	1.94
291.654	1.54
291.867	1.59
292.081	0.5
292.295	0.19
292.509	0.35
292.722	1.18
292.936	1.06
293.15	1.28
293.364	1.97
293.577	1.31
293.791	1.55
294.005	1.52
294.218	3.59
294.432	5.24
294.645	6.34
294.859	6.22
295.073	6.18
295.286	6.01
295.5	7.22
295.713	7.06
295.927	7.91
296.14	7.77
296.354	7.9
296.568	6.94
296.781	5.73
296.994	4.3
297.208	4.46
297.421	5.38
297.635	5.8
297.848	5.65
298.062	6.3
298.275	6.04
298.489	5.87
298.702	6.07
298.915	6.43
299.129	6.81
299.342	8.08
299.555	8.73
299.769	8.26
299.982	8.32
300.195	8.93
300.409	7.16
300.622	8.03
300.835	8.48
301.048	8.99
301.262	8.01
301.475	8.09
301.688	8.84
301.901	8.75
302.115	8.31
302.328	8
302.541	6.08
302.754	7.3
302.967	5.42
303.18	4.85
303.393	6.47
303.607	6.75
303.82	7.63
304.033	6.26
304.246	5.94
304.459	5.05
304.672	4.7
304.885	4.6
305.098	3.91
305.311	5.37
305.524	4.22
305.737	2.24
305.95	3.41
306.163	2.86
306.376	3.97
306.589	3.72
306.802	4.87
307.015	4.77
307.228	4.65
307.44	6.1
307.653	6.31
307.866	7.23
308.079	7.19
308.292	7.21
308.505	7.78
308.718	7.16
308.93	7.48
309.143	8.75
309.356	8.96
309.569	9.38
309.781	8.81
309.994	6.87
310.207	8.08
310.42	8.56
310.632	8.44
310.845	8.71
311.058	10.17
311.27	10.35
311.483	9.77
311.696	10.06
311.908	9.96
312.121	10.82
312.333	11.1
312.546	11.38
312.759	10.06
312.971	9
313.184	9.33
313.396	9.02
313.609	9.57
313.821	9.38
314.034	9.92
314.246	10.13
314.459	9.26
314.671	10.98
314.884	9.92
315.096	11.98
315.309	12.19
315.521	11.07
315.733	9.58
315.946	9.67
316.158	9.32
316.371	8.3
316.583	7.43
316.795	8.06
317.008	7.46
317.22	6.88
317.432	6.82
317.644	6.75
317.857	6.37
318.069	7.03
318.281	5.65
318.494	5.88
318.706	4.96
318.918	7.75
319.13	7.26
319.342	7.36
319.555	8.13
319.767	6.45
319.979	8.38
320.191	8.42
320.403	8.07
320.615	8.41
320.827	7.85
321.039	9.01
321.252	7.17
321.464	5.91
321.676	5.92
321.888	6.21
322.1	6.5
322.312	5.96
322.524	7.54
322.736	8.47
322.948	8.53
323.16	10.55
323.372	11.49
323.584	11.58
323.796	13.15
324.007	14.11
324.219	13.99
324.431	15.62
324.643	15.7
324.855	16.26
325.067	16.32
325.279	16.82
325.491	15.36
325.702	15.78
325.914	17.2
326.126	17.25
326.338	17.06
326.55	18.17
326.761	17.61
326.973	18.47
327.185	18.13
327.396	18.62
327.608	18.56
327.82	19.81
328.032	19.72
328.243	19.54
328.455	20.13
328.666	20.37
328.878	19.2
329.09	18.75
329.301	17.44
329.513	17.23
329.725	16.64
329.936	18.04
330.148	17.92
330.359	17.77
330.571	17.87
330.782	18.11
330.994	18.21
331.205	19.89
331.417	20.94
331.628	21.7
331.84	23.41
332.051	24.09
332.262	22.52
332.474	22.21
332.685	23.24
332.897	23.55
333.108	23.7
333.319	24.57
333.531	24.81
333.742	23.64
333.953	24.34
334.165	22.98
334.376	22.26
334.587	24.12
334.799	24.01
335.01	24.01
335.221	24.48
335.432	24.11
335.644	23.29
335.855	23.15
336.066	25.51
336.277	25.1
336.488	25.79
336.7	27
336.911	27.5
337.122	28.28
337.333	28.18
337.544	28.65
337.755	29.29
337.966	28.79
338.177	27.59
338.388	26.66
338.599	27.42
338.811	27.71
339.022	27.3
339.233	26.07
339.444	26.94
339.655	27.83
339.866	27.47
340.076	26.87
340.287	27.87
340.498	29.88
340.709	30.65
340.92	29.98
341.131	29.51
341.342	29.13
341.553	28.86
341.764	27.32
341.975	25.89
342.185	25.41
342.396	26.06
342.607	25.96
342.818	24.03
343.029	22.83
343.239	23.14
343.45	23.38
343.661	23.71
343.872	24.57
344.082	24.7
344.293	25.39
344.504	25.75
344.714	25.89
344.925	26.57
345.136	27.74
345.346	28.37
345.557	28.75
345.768	28.54
345.978	28.89
346.189	28.72
346.399	29.91
346.61	29.43
346.821	29.82
347.031	29.17
347.242	28.92
347.452	28.58
347.663	28.86
347.873	28.68
348.084	29.17
348.294	29.08
348.504	28.75
348.715	27.78
348.925	28.53
349.136	27.83
349.346	28.48
349.557	28.29
349.767	28.29
349.977	27.85
350.188	27.86
350.398	28.22
350.608	28.16
350.819	28.63
351.029	28.39
351.239	28.25
351.449	27.93
351.66	27.63
351.87	27.77
352.08	28.12
352.29	28.49
352.501	27.73
352.711	27.03
352.921	27.3
353.131	27.04
353.341	27.42
353.552	26.56
353.762	27.04
353.972	26.99
354.182	26.62
354.392	25.83
354.602	24.86
354.812	24.93
355.022	25.11
355.232	24.74
355.442	24.25
355.652	24.17
355.862	25.22
356.072	25.43
356.282	25.61
356.492	26.46
356.702	27.42
356.912	27.75
357.122	27.79
357.332	27.81
357.542	27.85
357.752	28.52
357.962	28.8
358.171	28.53
358.381	28.01
358.591	28.19
358.801	27.54
359.011	27.5
359.221	27.41
359.43	27.56
359.64	28.08
359.85	28.42
360.06	28.65
360.269	29.17
360.479	29.18
360.689	29.64
360.899	29.85
361.108	30.12
361.318	29.83
361.528	30.19
361.737	30.12
361.947	29.7
362.156	29.2
362.366	29.22
362.576	28.62
362.785	28.06
362.995	27.82
363.204	27.25
363.414	26.93
363.623	26.69
363.833	26.95
364.042	26.99
364.252	27.02
364.461	27.85
364.671	27.07
364.88	27.24
365.09	27.73
365.299	27.84
365.509	27.04
365.718	26.95
365.927	26.54
366.137	26
366.346	26.12
366.555	25.54
366.765	24.77
366.974	24.85
367.183	24.53
367.393	24.09
367.602	23.87
367.811	24.59
368.021	24.43
368.23	25.28
368.439	25.01
368.648	24.74
368.857	25.11
369.067	24.86
369.276	24.53
369.485	24.27
369.694	24.54
369.903	24.41
370.112	24.39
370.321	23.85
370.531	23.08
370.74	22.88
370.949	22.28
371.158	21.82
371.367	21.97
371.576	22.25
371.785	22.47
371.994	22.31
372.203	21.96
372.412	21.85
372.621	22.27
372.83	22.74
373.039	22.86
373.248	23.53
373.457	23.94
373.666	23.79
373.874	23.73
374.083	23.62
374.292	23.19
374.501	23.07
374.71	22.31
374.919	22.33
375.128	22.06
375.336	21.32
375.545	20.96
375.754	20.27
375.963	19.82
376.171	19.52
376.38	19.2
376.589	19.39
376.798	19.51
377.006	19.41
377.215	19.07
377.424	19.25
377.632	19.23
377.841	18.99
378.05	18.43
378.258	18.38
378.467	18.65
378.675	18.32
378.884	18.15
379.093	17.62
379.301	18.2
379.51	18.42
379.718	17.53
379.927	17.82
380.135	17.72
380.344	17.92
380.552	17.52
380.761	17.21
380.969	17.5
381.177	17.71
381.386	17.68
381.594	17.26
381.803	16.44
382.011	17.16
382.219	17.39
382.428	16.92
382.636	17.55
382.845	17.86
383.053	17.55
383.261	17.19
383.469	17.14
383.678	16.97
383.886	16.77
384.094	17.15
384.302	16.69
384.511	16.07
384.719	16.21
384.927	16.01
385.135	16.03
385.343	16.03
385.552	16.28
385.76	16.04
385.968	16.12
386.176	15.99
386.384	15.8
386.592	15.59
386.8	15.69
387.008	15.81
387.216	15.24
387.424	15.11
387.633	15.22
387.841	15.07
388.049	14.47
388.257	14.46
388.465	14.33
388.672	14.12
388.88	13.94
389.088	13.63
389.296	13.44
389.504	13.68
389.712	13.61
389.92	13.26
390.128	12.88
390.336	13
390.544	12.7
390.751	12.72
390.959	12.65
391.167	12.89
391.375	13.12
391.583	13.12
391.79	12.79
391.998	12.6
392.206	12.44
392.414	12.45
392.621	12.6
392.829	12.86
393.037	12.7
393.244	12.59
393.452	12.39
393.66	12.01
393.867	11.74
394.075	11.75
394.283	11.56
394.49	11.67
394.698	11.67
394.905	11.45
395.113	11.21
395.32	11.5
395.528	11.59
395.735	11.35
395.943	11.23
396.15	11.35
396.358	11.06
396.565	11.13
396.773	10.81
396.98	10.57
397.188	10.55
397.395	10.41
397.602	10.05
397.81	9.98
398.017	9.82
398.225	10.16
398.432	10.02
398.639	10.67
398.847	10.59
399.054	10.47
399.261	10.58
399.468	10.65
399.676	10.87
399.883	10.9
400.09	11.04
400.297	10.93
400.505	10.46
400.712	10.49
400.919	10.13
401.126	10.11
401.333	10.29
401.54	10.24
401.748	9.96
401.955	9.73
402.162	9.69
402.369	9.41
402.576	9.59
402.783	9.9
402.99	9.78
403.197	9.84
403.404	9.38
403.611	9.32
403.818	9.29
404.025	9.42
404.232	9.65
404.439	9.81
404.646	9.54
404.853	9.57
405.06	9.71
405.267	9.73
405.474	9.46
405.681	10
405.887	10.01
406.094	10.2
406.301	10.09
406.508	9.81
406.715	9.64
406.922	9.99
407.128	10.03
407.335	9.82
407.542	9.55
407.749	9.64
407.955	9.44
408.162	9.37
408.369	9.32
408.575	9.55
408.782	9.66
408.989	9.77
409.195	9.85
409.402	9.81
409.609	9.79
409.815	10.11
410.022	10.19
410.228	10.23
410.435	10.36
410.642	10.03
410.848	9.78
411.055	9.71
411.261	9.55
411.468	9.46
411.674	9.26
411.881	9.04
412.087	8.93
412.294	8.81
412.5	8.83
412.706	8.67
412.913	8.57
413.119	8.49
413.326	8.57
413.532	8.4
413.738	8.37
413.945	8.49
414.151	8.74
414.357	8.64
414.564	8.56
414.77	8.44
414.976	8.4
415.182	8.84
415.389	8.93
415.595	8.8
415.801	8.84
416.007	8.87
416.214	8.69
416.42	8.56
416.626	8.75
416.832	8.83
417.038	8.75
417.244	8.71
417.45	8.38
417.657	8.41
417.863	8.6
418.069	8.66
418.275	8.65
418.481	8.78
418.687	8.76
418.893	8.55
419.099	8.62
419.305	8.8
419.511	8.99
419.717	9.17
419.923	9.23
420.129	9.03
420.335	9.06
420.541	9
420.746	9.1
420.952	9.24
421.158	9.37
421.364	9.29
421.57	9.15
421.776	8.87
421.982	8.7
422.187	8.58
422.393	8.6
422.599	8.64
422.805	8.64
423.01	8.55
423.216	8.3
423.422	8.14
423.628	8.16
423.833	8.17
424.039	8.4
424.245	8.48
424.45	8.52
424.656	8.5
424.862	8.43
425.067	8.39
425.273	8.45
425.478	8.51
425.684	8.71
425.889	8.77
426.095	8.64
426.301	8.56
426.506	8.6
426.712	8.64
426.917	8.84
427.123	8.85
427.328	8.75
427.533	8.66
427.739	8.73
427.944	8.57
428.15	8.37
428.355	8.8
428.561	8.63
428.766	8.26
428.971	8.24
429.177	7.98
429.382	7.74
429.587	8.08
429.793	7.93
429.998	8.15
430.203	8.13
430.408	8.24
430.614	7.95
430.819	8.08
431.024	8.1
431.229	8.06
431.434	8.01
431.64	7.97
431.845	7.77
432.05	8.02
432.255	7.87
432.46	7.91
432.665	7.84
432.87	8.09
433.076	8.21
433.281	8.32
433.486	8.23
433.691	8.19
433.896	8.23
434.101	8.11
434.306	8.05
434.511	7.92
434.716	7.92
434.921	7.94
435.126	7.61
435.331	7.28
435.535	7.34
435.74	7.49
435.945	7.62
436.15	7.7
436.355	7.84
436.56	7.66
436.765	7.57
436.97	7.5
437.174	7.54
437.379	7.76
437.584	7.94
437.789	7.97
437.993	7.93
438.198	7.91
438.403	8.09
438.608	8.08
438.812	8.11
439.017	8.16
439.222	8.24
439.426	8.15
439.631	7.99
439.836	8.03
440.04	8
440.245	8.02
440.45	7.93
440.654	7.96
440.859	7.91
441.063	7.95
441.268	8
441.472	7.92
441.677	7.98
441.881	8.02
442.086	7.94
442.29	7.92
442.495	7.84
442.699	7.83
442.904	7.57
443.108	7.58
443.312	7.64
443.517	7.67
443.721	7.75
443.925	7.72
444.13	7.88
444.334	8.02
444.538	8.07
444.743	8.11
444.947	8.12
445.151	8.21
445.356	8.36
445.56	8.21
445.764	8.19
445.968	8.13
446.173	8.13
446.377	7.94
446.581	7.88
446.785	7.92
446.989	7.98
447.193	8.07
447.398	7.97
447.602	7.81
447.806	7.87
448.01	7.84
448.214	7.82
448.418	7.85
448.622	8
448.826	7.91
449.03	7.85
449.234	7.77
449.438	7.7
449.642	7.74
449.846	7.77
450.05	7.72
450.254	7.76
450.458	7.61
450.662	7.7
450.866	7.43
451.069	7.51
451.273	7.63
451.477	7.6
451.681	7.43
451.885	7.46
452.089	7.4
452.292	7.47
452.496	7.49
452.7	7.63
452.904	7.47
453.107	7.48
453.311	7.5
453.515	7.29
453.719	7.27
453.922	7.36
454.126	7.48
454.33	7.54
454.533	7.48
454.737	7.52
454.94	7.35
455.144	7.32
455.348	7.31
455.551	7.22
455.755	7.16
455.958	7.17
456.162	7.03
456.365	6.88
456.569	6.75
456.772	6.72
456.976	6.51
457.179	6.59
457.383	6.68
457.586	6.67
457.79	6.67
457.993	6.65
458.196	6.56
458.4	6.68
458.603	6.68
458.807	6.79
459.01	6.88
459.213	6.92
459.417	6.91
459.62	6.93
459.823	7.07
460.026	7.15
460.23	7.29
460.433	7.33
460.636	7.3
460.839	7.38
461.042	7.49
461.246	7.46
461.449	7.53
461.652	7.45
461.855	7.33
462.058	7.21
462.261	7.01
462.464	6.94
462.668	7.07
462.871	7.09
463.074	7
463.277	6.87
463.48	7.01
463.683	6.89
463.886	7.03
464.089	7.08
464.292	7.12
464.495	7.28
464.698	7.38
464.901	7.49
465.104	7.45
465.306	7.69
465.509	7.48
465.712	7.21
465.915	7.47
466.118	7.69
466.321	7.74
466.524	7.79
466.726	7.8
466.929	7.87
467.132	7.57
467.335	7.65
467.538	7.45
467.74	7.72
467.943	8.01
468.146	7.92
468.348	7.71
468.551	7.76
468.754	7.86
468.956	7.94
469.159	7.74
469.362	7.83
469.564	7.8
469.767	7.74
469.969	7.78
470.172	7.55
470.375	7.49
470.577	7.41
470.78	7.27
470.982	7.16
471.185	7.12
471.387	7.33
471.59	7.47
471.792	7.42
471.995	7.46
472.197	7.27
472.399	7.42
472.602	7.4
472.804	7.62
473.007	7.76
473.209	7.74
473.411	7.53
473.614	7.32
473.816	7.16
474.018	7.29
474.22	7.29
474.423	7.47
474.625	7.24
474.827	7.34
475.03	7.1
475.232	7.03
475.434	7.14
475.636	7.39
475.838	7.53
476.04	7.63
476.243	7.67
476.445	7.74
476.647	7.56
476.849	7.7
477.051	7.66
477.253	7.8
477.455	7.95
477.657	7.84
477.859	8.01
478.061	7.95
478.263	7.92
478.465	7.83
478.667	7.89
478.869	7.89
479.071	7.8
479.273	7.77
479.475	7.78
479.677	7.58
479.879	7.58
480.081	7.41
480.283	7.26
480.485	7.36
480.686	7.33
480.888	7.17
481.09	7.23
481.292	7.34
481.494	7.33
481.695	7.17
481.897	7.35
482.099	7.49
482.301	7.52
482.502	7.61
482.704	7.54
482.906	7.64
483.107	7.66
483.309	7.69
483.511	7.75
483.712	7.78
483.914	7.81
484.115	7.81
484.317	7.78
484.519	7.78
484.72	7.79
484.922	7.84
485.123	7.79
485.325	7.85
485.526	7.84
485.728	7.86
485.929	7.9
486.131	8.02
486.332	7.91
486.534	7.87
486.735	7.87
486.936	7.9
487.138	7.89
487.339	7.93
487.541	7.86
487.742	7.88
487.943	7.82
488.144	7.76
488.346	7.7
488.547	7.77
488.748	7.77
488.95	7.7
489.151	7.69
489.352	7.69
489.553	7.57
489.755	7.68
489.956	7.58
490.157	7.55
490.358	7.6
490.559	7.63
490.76	7.66
490.961	7.74
491.163	7.83
491.364	7.86
491.565	7.77
491.766	7.92
491.967	7.89
492.168	7.98
492.369	8.01
492.57	7.99
492.771	7.96
492.972	7.97
493.173	7.96
493.374	7.92
493.575	7.85
493.776	7.89
493.976	7.81
494.177	7.74
494.378	7.71
494.579	7.69
494.78	7.68
494.981	7.7
495.182	7.73
495.382	7.71
495.583	7.77
495.784	7.77
495.985	7.88
496.185	7.95
496.386	7.85
496.587	7.84
496.788	7.75
496.988	7.77
497.189	7.83
497.39	7.83
497.59	7.74
497.791	7.65
497.992	7.7
498.192	7.7
498.393	7.68
498.593	7.74
498.794	7.77
498.994	7.88
499.195	7.92
499.395	8.02
499.596	7.94
499.796	8.09
499.997	8.27
500.197	8.23
500.398	8.23
500.598	8.43
500.799	8.52
500.999	8.53
501.199	8.73
501.4	8.72
501.6	8.77
501.801	8.77
502.001	8.85
502.201	8.74
502.402	9
502.602	8.96
502.802	8.74
503.002	8.81
503.203	8.89
503.403	8.83
503.603	8.76
503.803	8.63
504.003	8.68
504.204	8.81
504.404	9.13
504.604	9.06
504.804	9.2
505.004	9.17
505.204	9.15
505.404	9.17
505.604	9.09
505.804	9.23
506.005	9.33
506.205	9.51
506.405	9.39
506.605	9.4
506.805	9.51
507.005	9.57
507.204	9.78
507.404	9.87
507.604	9.91
507.804	10.13
508.004	10.34
508.204	10.54
508.404	10.5
508.604	10.6
508.804	10.54
509.003	10.57
509.203	10.7
509.403	10.72
509.603	10.96
509.803	11.21
510.002	11.22
510.202	11.32
510.402	11.36
510.602	11.56
510.801	11.76
511.001	11.92
511.201	12
511.4	12.06
511.6	12.35
511.8	12.28
511.999	12.27
512.199	12.36
512.398	12.36
512.598	12.5
512.797	12.68
512.997	12.58
513.197	12.62
513.396	12.71
513.596	12.9
513.795	12.84
513.994	13.04
514.194	13.27
514.393	13.59
514.593	13.84
514.792	13.84
514.992	14.01
515.191	14.32
515.39	14.51
515.59	14.83
515.789	14.85
515.988	15.17
516.188	15.41
516.387	15.58
516.586	15.61
516.786	15.81
516.985	16.15
517.184	16.13
517.383	16.31
517.582	16.5
517.782	16.6
517.981	16.82
518.18	16.87
518.379	16.96
518.578	17.12
518.777	17.21
518.976	17.39
519.176	17.48
519.375	17.63
519.574	17.9
519.773	17.94
519.972	18.04
520.171	18.23
520.37	18.46
520.569	18.64
520.768	18.75
520.967	18.92
521.166	18.83
521.365	18.93
521.564	19.02
521.762	18.98
521.961	19.16
522.16	19.26
522.359	19.32
522.558	19.65
522.757	19.8
522.956	19.97
523.154	20.24
523.353	20.45
523.552	20.52
523.751	20.88
523.949	21.2
524.148	21.57
524.347	21.96
524.546	22.14
524.744	22.18
524.943	22.37
525.142	22.45
525.34	22.67
525.539	22.88
525.737	23.2
525.936	23.31
526.135	23.38
526.333	23.42
526.532	23.48
526.73	23.61
526.929	23.81
527.127	23.83
527.326	24.1
527.524	24.2
527.723	24.35
527.921	24.42
528.12	24.65
528.318	24.76
528.516	24.89
528.715	25.04
528.913	25.15
529.112	25.2
529.31	25.39
529.508	25.36
529.707	25.44
529.905	25.57
530.103	25.62
530.301	25.63
530.5	25.74
530.698	25.86
530.896	25.87
531.094	26.03
531.293	26.19
531.491	26.24
531.689	26.39
531.887	26.53
532.085	26.68
532.283	26.77
532.481	26.94
532.68	27.13
532.878	27.24
533.076	27.43
533.274	27.49
533.472	27.53
533.67	27.61
533.868	27.78
534.066	27.85
534.264	27.86
534.462	28
534.66	28.08
534.858	28.02
535.056	28.08
535.253	28.2
535.451	28.24
535.649	28.47
535.847	28.55
536.045	28.57
536.243	28.76
536.441	28.94
536.638	29.02
536.836	29.09
537.034	29.31
537.232	29.41
537.43	29.44
537.627	29.64
537.825	29.72
538.023	29.98
538.22	30.14
538.418	30.11
538.616	30.19
538.813	30.31
539.011	30.35
539.209	30.42
539.406	30.56
539.604	30.73
539.801	30.81
539.999	30.85
540.196	30.91
540.394	31.03
540.591	31.22
540.789	31.24
540.986	31.4
541.184	31.48
541.381	31.58
541.579	31.61
541.776	31.64
541.974	31.76
542.171	31.75
542.368	31.82
542.566	31.82
542.763	31.88
542.96	31.96
543.158	31.9
543.355	31.96
543.552	31.87
543.75	31.97
543.947	32.07
544.144	32.02
544.341	32.14
544.539	32.12
544.736	32.32
544.933	32.28
545.13	32.48
545.327	32.66
545.524	32.72
545.722	32.89
545.919	33
546.116	33.15
546.313	33.2
546.51	33.27
546.707	33.41
546.904	33.47
547.101	33.63
547.298	33.61
547.495	33.67
547.692	33.74
547.889	33.82
548.086	33.83
548.283	33.91
548.48	34.06
548.677	34.01
548.874	33.97
549.07	33.91
549.267	33.96
549.464	33.97
549.661	33.95
549.858	34.15
550.055	34.22
550.251	34.26
550.448	34.13
550.645	34.26
550.842	34.31
551.038	34.52
551.235	34.53
551.432	34.43
551.628	34.7
551.825	34.95
552.022	35.06
552.218	35.03
552.415	35.14
552.612	35.14
552.808	35.08
553.005	35.29
553.201	35.24
553.398	35.44
553.594	35.53
553.791	35.36
553.987	35.43
554.184	35.32
554.38	35.38
554.577	35.3
554.773	35.32
554.97	35.18
555.166	35.08
555.362	35.21
555.559	35.2
555.755	35.29
555.952	35.43
556.148	35.45
556.344	35.38
556.541	35.57
556.737	35.59
556.933	35.74
557.129	35.95
557.326	36.03
557.522	36
557.718	36.05
557.914	36.22
558.11	36.3
558.307	36.18
558.503	36.5
558.699	36.53
558.895	36.63
559.091	36.8
559.287	36.9
559.483	36.89
559.679	36.84
559.876	36.87
560.072	36.75
560.268	36.72
560.464	36.92
560.66	37
560.856	36.98
561.052	36.96
561.247	36.91
561.443	36.9
561.639	37.19
561.835	37.28
562.031	37.26
562.227	37.23
562.423	37.24
562.619	37.26
562.815	37.27
563.01	37.35
563.206	37.55
563.402	37.69
563.598	37.78
563.793	37.43
563.989	37.46
564.185	37.78
564.381	37.96
564.576	38.08
564.772	37.99
564.968	37.83
565.163	37.88
565.359	37.9
565.555	37.81
565.75	37.73
565.946	38.11
566.141	38.16
566.337	37.92
566.532	37.99
566.728	38.14
566.923	38.26
567.119	38.36
567.314	38.49
567.51	38.55
567.705	38.67
567.901	38.8
568.096	38.95
568.292	38.96
568.487	39.16
568.682	39.28
568.878	39.09
569.073	39.26
569.268	39.23
569.464	39.49
569.659	39.42
569.854	39.28
570.05	39.39
570.245	39.13
570.44	39
570.635	38.87
570.831	38.96
571.026	39.04
571.221	38.92
571.416	39.13
571.611	38.87
571.806	38.82
572.002	39.03
572.197	38.98
572.392	39.1
572.587	39.28
572.782	39.2
572.977	39.09
573.172	39.14
573.367	39.35
573.562	39.26
573.757	39.11
573.952	39.18
574.147	39.03
574.342	39.01
574.537	38.9
574.732	38.84
574.927	39.09
575.121	39.02
575.316	39.24
575.511	39.02
575.706	39.01
575.901	39.23
576.096	39.2
576.29	39.36
576.485	39.47
576.68	39.42
576.875	39.3
577.069	39.14
577.264	39.27
577.459	38.93
577.654	39.24
577.848	39.2
578.043	39.01
578.238	39.07
578.432	38.99
578.627	39.13
578.821	39.24
579.016	39.55
579.21	39.63
579.405	39.59
579.6	39.65
579.794	39.53
579.989	39.55
580.183	39.79
580.378	40.01
580.572	39.95
580.766	39.97
580.961	40.13
581.155	40
581.35	40.17
581.544	39.99
581.738	39.94
581.933	39.63
582.127	39.76
582.321	39.68
582.516	39.47
582.71	39.43
582.904	39.18
583.099	39.29
583.293	39.54
583.487	39.61
583.681	39.93
583.875	40.01
584.07	40.11
584.264	40.07
584.458	40.21
584.652	40.56
584.846	40.84
585.04	40.97
585.234	40.65
585.428	40.48
585.623	40.38
585.817	40.15
586.011	40.09
586.205	40.01
586.399	40.1
586.593	39.98
586.787	39.68
586.981	39.64
587.174	39.54
587.368	39.65
587.562	39.75
587.756	39.62
587.95	39.82
588.144	40.11
588.338	40.34
588.532	40.7
588.725	40.88
588.919	41.08
589.113	40.93
589.307	41.19
589.501	41.29
589.694	41.32
589.888	41.49
590.082	41.24
590.275	41.33
590.469	41.5
590.663	41.33
590.856	41.03
591.05	41.16
591.244	40.84
591.437	40.65
591.631	40.67
591.824	40.52
592.018	40.42
592.212	40.52
592.405	40.23
592.599	39.97
592.792	39.77
592.986	39.96
593.179	39.73
593.372	40.21
593.566	40.33
593.759	40.37
593.953	40.59
594.146	40.69
594.339	40.73
594.533	40.7
594.726	40.87
594.92	41.07
595.113	41.13
595.306	41.03
595.499	41.04
595.693	40.98
595.886	41.04
596.079	40.98
596.272	40.98
596.466	41.02
596.659	41.33
596.852	41.36
597.045	41.29
597.238	41.29
597.431	41.21
597.624	41.31
597.818	41.36
598.011	41.44
598.204	41.41
598.397	41.47
598.59	41.57
598.783	41.5
598.976	41.33
599.169	41.21
599.362	41.2
599.555	41.41
599.748	41.26
599.941	41.42
600.134	41.22
600.326	41.25
600.519	41.39
600.712	41.47
600.905	41.39
601.098	41.36
601.291	41.12
601.483	41.27
601.676	41.5
601.869	41.61
602.062	41.53
602.255	41.48
602.447	41.67
602.64	41.36
602.833	41.45
603.025	41.49
603.218	41.91
603.411	42.36
603.603	42.47
603.796	42.42
603.989	42.29
604.181	42.31
604.374	42.48
604.566	42.33
604.759	42.59
604.951	42.49
605.144	42.5
605.336	42.23
605.529	42.28
605.721	42.25
605.914	42.23
606.106	42.4
606.299	42.44
606.491	42.51
606.683	42.58
606.876	42.47
607.068	42.51
607.26	42.78
607.453	42.96
607.645	42.55
607.837	42.42
608.03	42.61
608.222	42.58
608.414	42.47
608.606	42.35
608.799	42.67
608.991	42.69
609.183	42.61
609.375	42.4
609.567	42.34
609.759	42.43
609.952	42.31
610.144	42.27
610.336	42.23
610.528	42.25
610.72	42.31
610.912	42.06
611.104	42.1
611.296	42.2
611.488	41.99
611.68	42.15
611.872	42.34
612.064	42.43
612.256	42.2
612.448	42.22
612.64	42.35
612.832	42.27
613.023	42.12
613.215	42.04
613.407	41.96
613.599	41.87
613.791	41.68
613.983	41.75
614.174	41.6
614.366	41.63
614.558	41.86
614.75	41.67
614.941	42.04
615.133	41.97
615.325	41.89
615.516	42.31
615.708	42.66
615.9	42.65
616.091	42.54
616.283	42.64
616.475	42.65
616.666	42.38
616.858	42.42
617.049	42.28
617.241	42.56
617.432	42.44
617.624	42.18
617.815	42.09
618.007	42.14
618.198	42.01
618.39	41.83
618.581	41.68
618.773	41.69
618.964	41.77
619.155	41.47
619.347	41.29
619.538	41.53
619.729	41.57
619.921	41.63
620.112	41.61
620.303	41.73
620.494	41.9
620.686	42.23
620.877	42.06
621.068	42.09
621.259	41.97
621.451	42.16
621.642	42.01
621.833	42.06
622.024	42.06
622.215	41.82
622.406	41.69
622.597	41.7
622.788	41.5
622.98	41.68
623.171	41.58
623.362	42.06
623.553	42.16
623.744	42.37
623.935	42.46
624.126	42.28
624.317	42.47
624.508	42.73
624.698	42.9
624.889	43.05
625.08	43.12
625.271	42.92
625.462	42.71
625.653	42.53
625.844	42.51
626.034	42.41
626.225	42.57
626.416	42.41
626.607	42.51
626.798	42.32
626.988	42.35
627.179	42.39
627.37	42.59
627.56	42.62
627.751	42.81
627.942	42.83
628.132	43
628.323	43.02
628.514	43.51
628.704	43.33
628.895	43.4
629.085	43.58
629.276	43.52
629.466	43.49
629.657	43.59
629.847	43.55
630.038	43.59
630.228	43.15
630.419	43.13
630.609	42.64
630.8	42.55
630.99	43
631.181	42.81
631.371	43.06
631.561	42.83
631.752	42.63
631.942	42.25
632.132	42.68
632.323	43.1
632.513	43.24
632.703	43.38
632.893	43.25
633.084	42.84
633.274	42.54
633.464	42.33
633.654	42.63
633.844	42.94
634.034	43.28
634.225	42.72
634.415	42.74
634.605	42.83
634.795	42.82
634.985	42.84
635.175	42.93
635.365	43.16
635.555	43.05
635.745	43.26
635.935	43.09
636.125	42.98
636.315	43.11
636.505	43.09
636.695	43.09
636.885	42.99
637.075	43.21
637.265	42.94
637.455	43
637.644	42.94
637.834	42.94
638.024	42.99
638.214	43.04
638.404	43.01
638.593	42.73
638.783	42.6
638.973	42.88
639.163	42.72
639.352	43.12
639.542	43.19
639.732	43.23
639.921	43.16
640.111	43.15
640.301	43.18
640.49	43.52
640.68	43.79
640.87	43.8
641.059	43.89
641.249	44.21
641.438	44.28
641.628	44.37
641.817	44.64
642.007	44.55
642.196	44.35
642.386	44.34
642.575	44.19
642.764	44.18
642.954	43.98
643.143	43.83
643.333	43.87
643.522	43.47
643.711	43.54
643.901	43.46
644.09	43.35
644.279	43.56
644.469	43.93
644.658	44.09
644.847	43.86
645.036	44.22
645.226	44.2
645.415	43.98
645.604	44.05
645.793	44.12
645.982	44.08
646.171	43.67
646.361	43.5
646.55	43.07
646.739	42.67
646.928	42.94
647.117	42.99
647.306	43.05
647.495	43.26
647.684	43.56
647.873	43.4
648.062	43.05
648.251	43.54
648.44	43.52
648.629	43.56
648.818	43.46
649.007	43.29
649.196	42.9
649.384	42.95
649.573	42.81
649.762	42.48
649.951	42.16
650.14	42.08
650.328	41.8
650.517	41.71
650.706	41.71
650.895	42.3
651.083	41.97
651.272	42.2
651.461	42.13
651.65	42.19
651.838	42.66
652.027	43.15
652.216	43.68
652.404	44.09
652.593	44.52
652.781	44.71
652.97	44.48
653.158	44.37
653.347	44.17
653.535	44.26
653.724	43.79
653.912	43.34
654.101	43.08
654.289	43.38
654.478	43.17
654.666	42.74
654.855	42.61
655.043	42.29
655.231	42.65
655.42	42.93
655.608	42.73
655.796	43.02
655.985	43.37
656.173	43.35
656.361	42.89
656.55	42.8
656.738	42.85
656.926	42.87
657.114	43.33
657.302	43.49
657.491	43.35
657.679	43.39
657.867	43.6
658.055	43.48
658.243	43.61
658.431	43.56
658.619	43.76
658.807	43.47
658.996	43.13
659.184	43.05
659.372	42.73
659.56	42.78
659.748	42.98
659.936	43.01
660.124	42.88
660.311	42.91
660.499	43.04
660.687	42.85
660.875	43.18
661.063	43.3
661.251	43.06
661.439	43.28
661.627	43.19
661.814	42.94
662.002	42.64
662.19	43.13
662.378	43.14
662.565	43.03
662.753	43.52
662.941	43.75
663.129	44.21
663.316	43.92
663.504	43.89
663.692	44.21
663.879	44.41
664.067	44.3
664.254	44.46
664.442	44.42
664.63	44.33
664.817	44.04
665.005	44.11
665.192	43.64
665.38	44.22
665.567	44.46
665.755	44.2
665.942	44.22
666.13	44.86
666.317	44.55
666.504	44.29
666.692	44.54
666.879	44.58
667.067	44.34
667.254	44.63
667.441	44.52
667.629	44.51
667.816	44.34
668.003	44.11
668.19	43.79
668.378	43.95
668.565	44.31
668.752	44.24
668.939	44.43
669.127	44.02
669.314	43.89
669.501	43.88
669.688	43.41
669.875	43.86
670.062	43.99
670.249	44.08
670.436	43.84
670.623	43.39
670.81	43.57
670.997	43.63
671.184	44.03
671.371	43.74
671.558	43.65
671.745	43.97
671.932	43.7
672.119	43.53
672.306	43.33
672.493	43.03
672.68	43.25
672.867	42.54
673.054	42.21
673.24	41.93
673.427	42.63
673.614	42.5
673.801	42.62
673.988	42.69
674.174	42.93
674.361	43.24
674.548	43.42
674.734	43.34
674.921	44.12
675.108	44.22
675.294	44.61
675.481	44.06
675.668	44.4
675.854	44.28
676.041	44.23
676.227	43.94
676.414	43.93
676.601	43.79
676.787	43.89
676.974	43.65
677.16	43.25
677.347	43.37
677.533	43.62
677.719	43.58
677.906	43.96
678.092	43.79
678.279	44.18
678.465	44.12
678.651	44.36
678.838	44.38
679.024	44.61
679.21	44.8
679.397	44.51
679.583	44.74
679.769	44.84
679.955	44.8
680.142	44.96
680.328	44.97
680.514	44.43
680.7	44.39
680.886	44.28
681.073	44.12
681.259	44.22
681.445	44.32
681.631	44.62
681.817	44.23
682.003	43.98
682.189	44.02
682.375	44.28
682.561	44.44
682.747	44.34
682.933	44.12
683.119	43.56
683.305	43.12
683.491	43.23
683.677	42.84
683.863	43.51
684.049	43.67
684.235	43.01
684.42	42.78
684.606	42.6
684.792	42.57
684.978	42.58
685.164	42.66
685.349	43.52
685.535	42.88
685.721	42.74
685.907	42.12
686.092	41.63
686.278	42.38
686.464	42.01
686.649	42.61
686.835	42.59
687.021	42.69
687.206	43.14
687.392	42.58
687.577	43.66
687.763	43.28
687.948	44
688.134	44.25
688.319	44.16
688.505	44.37
688.69	44.37
688.876	44.63
689.061	44.88
689.247	45
689.432	44.86
689.618	44.3
689.803	44.6
689.988	44.06
690.174	44.12
690.359	44.12
690.544	44.04
690.73	44.48
690.915	44.13
691.1	43.44
691.285	43.44
691.471	43.92
691.656	43.65
691.841	43.55
692.026	43.43
692.211	42.87
692.396	42.38
692.582	42.62
692.767	42.17
692.952	42.37
693.137	43.14
693.322	43.29
693.507	43.43
693.692	43.58
693.877	43.92
694.062	43.7
694.247	44.48
694.432	45.13
694.617	45.41
694.802	45.39
694.987	45.11
695.172	45.32
695.357	45.02
695.541	44.25
695.726	44.27
695.911	43.79
696.096	44.69
696.281	44.84
696.466	44.9
696.65	44.39
696.835	44.69
697.02	44.57
697.204	44.73
697.389	44.27
697.574	44.75
697.759	44.73
697.943	45.11
698.128	44.65
698.312	44.15
698.497	44.1
698.682	43.83
698.866	43.56
699.051	43.57
699.235	43.26
699.42	43.51
699.604	43.16
699.789	42.98
699.973	42.67
700.158	42.8
700.342	43.24
700.527	42.99
700.711	43.36
700.895	43.76
701.08	43.97
701.264	43.53
701.448	43.66
701.633	43.8
701.817	43.96
702.001	44.12
702.186	43.77
702.37	43.4
702.554	43.37
702.738	43.46
702.923	43.29
703.107	43.24
703.291	44.05
703.475	43.84
703.659	43.65
703.843	43.28
704.027	44.05
704.212	44.46
704.396	44.89
704.58	45.02
704.764	44.77
704.948	44.63
705.132	45.01
705.316	44.34
705.5	44.8
705.684	45.14
705.868	46.01
706.052	45.1
706.235	44.76
706.419	44.98
706.603	45.13
706.787	45.55
706.971	44.94
707.155	44.37
707.339	44.5
707.522	43.85
707.706	44.16
707.89	43.96
708.074	44.16
708.257	44.2
708.441	43.65
708.625	43.16
708.808	43.17
708.992	43.28
709.176	43.54
709.359	43.51
709.543	43.96
709.727	43.2
709.91	42.81
710.094	43.02
710.277	43
710.461	43.04
710.644	42.82
710.828	41.44
711.011	41.91
711.195	42.79
711.378	43.17
711.562	43.31
711.745	44.1
711.928	44.37
712.112	44.94
712.295	45.08
712.478	45.38
712.662	45.83
712.845	46.38
713.028	46.07
713.212	44.18
713.395	43.93
713.578	44.22
713.761	42.82
713.945	42.42
714.128	40.94
714.311	40.8
714.494	40.6
714.677	40.47
714.86	40.3
715.043	40.97
715.227	41.75
715.41	41.68
715.593	41.16
715.776	41.86
715.959	41.97
716.142	42.5
716.325	42.63
716.508	42.54
716.691	42.27
716.874	42.85
717.057	41.53
717.239	41.33
717.422	41.87
717.605	41.73
717.788	42.01
717.971	41.76
718.154	41.55
718.337	41.55
718.519	41.5
718.702	41.5
718.885	41.91
719.068	42.66
719.25	42.81
719.433	42.67
719.616	43.43
719.798	43.05
719.981	44.22
720.164	44.26
720.346	44.17
720.529	44.05
720.712	44.36
720.894	43.87
721.077	43.18
721.259	43.53
721.442	44.29
721.624	43.34
721.807	44.67
721.989	43.83
722.172	44.04
722.354	43.56
722.537	43.7
722.719	45.06
722.901	43.83
723.084	43.67
723.266	43.4
723.448	42.33
723.631	42.19
723.813	41.08
723.995	41.25
724.178	41.37
724.36	42.21
724.542	41.54
724.724	40.09
724.907	41.16
725.089	41.86
725.271	42.21
725.453	42.19
725.635	43.16
725.817	43.57
725.999	43.09
726.181	43.26
726.364	42.46
726.546	42.83
726.728	42.4
726.91	43.28
727.092	43.64
727.274	43.06
727.456	43.29
727.638	43.3
727.819	43.77
728.001	44.53
728.183	44.02
728.365	44.32
728.547	44.94
728.729	45.37
728.911	44.79
729.093	44.37
729.274	44.21
729.456	44.27
729.638	44.36
729.82	43.11
730.001	42.23
730.183	42.87
730.365	43.29
730.546	43.67
730.728	43.7
730.91	44.04
731.091	43.72
731.273	43.93
731.455	43.32
731.636	42.58
731.818	42.91
731.999	43.21
732.181	43.57
732.362	43.31
732.544	42.99
732.725	43.34
732.907	42.82
733.088	43.44
733.27	44.01
733.451	44.36
733.633	44.16
733.814	44.8
733.995	45.09
734.177	43.59
734.358	43.54
734.539	42.76
734.721	42.57
734.902	42.3
735.083	42.42
735.264	42.07
735.446	41.83
735.627	41.72
735.808	41.64
735.989	41.28
736.17	41.13
736.351	41.18
736.533	41.68
736.714	42.11
736.895	42.56
737.076	42.86
737.257	42.17
737.438	41.97
737.619	42.53
737.8	42.59
737.981	43.56
738.162	44.63
738.343	44.67
738.524	44.76
738.705	44.04
738.886	43.98
739.067	42.41
739.247	42.83
739.428	42.87
739.609	43.06
739.79	42.24
739.971	41.39
740.151	41.42
740.332	40.77
740.513	40.75
740.694	40.41
740.874	39.94
741.055	40.68
741.236	40.6
741.417	41.52
741.597	40.95
741.778	41.55
741.958	42.39
742.139	42.32
742.32	42.71
742.5	42.53
742.681	43.24
742.861	42.66
743.042	43.11
743.222	42.57
743.403	42.33
743.583	43.12
743.764	42.44
743.944	42.79
744.124	42.3
744.305	42.7
744.485	43.21
744.666	42
744.846	41.81
745.026	42.25
745.207	43.48
745.387	43.48
745.567	43.45
745.747	43.18
745.928	43
746.108	42.94
746.288	41.44
746.468	41.13
746.648	41.97
746.829	44.07
747.009	43.53
747.189	44.01
747.369	43.48
747.549	43.21
747.729	43.99
747.909	42.96
748.089	44.62
748.269	46.34
748.449	46.65
748.629	47.54
748.809	46.15
748.989	45.12
749.169	45.39
749.349	45.5
749.529	45.23
749.709	44.79
749.889	44.57
750.068	43.01
750.248	42.3
750.428	42.23
750.608	41.28
750.788	42.09
750.967	42.57
751.147	40.85
751.327	41.54
751.507	42.09
751.686	42.58
751.866	42.91
752.046	42.28
752.225	43.19
752.405	42.59
752.585	43.69
752.764	42.82
752.944	43.21
753.123	42.99
753.303	41.92
753.482	40.97
753.662	40.61
753.841	41.95
754.021	43.63
754.2	42.48
754.38	41.99
754.559	41.29
754.739	42.83
754.918	41.78
755.097	43.14
755.277	42.85
755.456	44.41
755.635	44.84
755.815	43.43
755.994	42.83
756.173	42.34
756.352	42.74
756.532	42.91
756.711	41.8
756.89	42.53
757.069	43.18
757.248	44.97
757.427	45.27
757.607	43.98
757.786	43.9
757.965	43.1
758.144	44.19
758.323	44.87
758.502	44.28
758.681	44.47
758.86	45.46
759.039	44.98
759.218	44.61
759.397	42.98
759.576	43.41
759.755	42.88
759.934	43.73
760.113	42.65
760.291	43.27
760.47	43.93
760.649	43.46
760.828	42.92
761.007	42.67
761.186	42.47
761.364	42.39
761.543	42.66
761.722	43.36
761.901	42.38
762.079	42.98
762.258	42.51
762.437	42.9
762.615	43.68
762.794	44.02
762.972	44.48
763.151	44.26
763.33	44.94
763.508	45.05
763.687	45.77
763.865	46.45
764.044	46.2
764.222	45.21
764.401	44.5
764.579	43.69
764.758	43.55
764.936	42.01
765.114	41.59
765.293	41.12
765.471	41.16
765.65	39.71
765.828	39.24
766.006	39.18
766.184	38.42
766.363	39.03
766.541	39.04
766.719	39.05
766.898	39.97
767.076	41.64
767.254	40.34
767.432	40.16
767.61	40.53
767.788	40.38
767.967	40.15
768.145	41.15
768.323	41.11
768.501	41.95
768.679	41.15
768.857	42.15
769.035	40.71
769.213	43.37
769.391	41.99
769.569	42.37
769.747	42.85
769.925	44.21
770.103	45.53
770.281	44.71
770.459	44.7
770.636	44.56
770.814	44.5
770.992	44.01
771.17	43.25
771.348	44.92
771.525	43.81
771.703	44.61
771.881	44.71
772.059	43.93
772.236	44.31
772.414	45.65
772.592	46
772.769	45.21
772.947	44.78
773.125	42.73
773.302	42.23
773.48	42.51
773.657	42.21
773.835	41.49
774.013	41.38
774.19	41.14
774.368	39.35
774.545	40.23
774.723	40.95
774.9	40.74
775.077	42.72
775.255	43.15
775.432	42.05
775.61	42.13
775.787	41.45
775.964	42.55
776.142	41.9
776.319	41.39
776.496	40.59
776.674	40.49
776.851	41.06
777.028	38.85
777.205	38.41
777.382	40.47
777.56	38.6
777.737	38.38
777.914	37.59
778.091	39.01
778.268	36.96
778.445	36.5
778.622	36.32
778.8	35.65
778.977	38.15
779.154	31.24
779.331	30.8
779.508	30.66
779.685	30.98
779.862	32.52
780.038	32.75
780.215	33.44
780.392	34.59
780.569	32.7
780.746	31.16
780.923	29.02
781.1	35.87
781.277	36.29
781.453	37.07
781.63	37.2
781.807	35.11
781.984	32.85
782.16	35.45
782.337	33.9
782.514	35.86
782.691	38.39
782.867	39.74
783.044	41.89
783.221	41.67
783.397	41.43
783.574	44.3
783.75	45.03
783.927	45.7
784.103	44.11
784.28	45.25
784.456	42.3
784.633	42.77
784.809	42.48
784.986	41.14
785.162	40.71
785.339	41.68
785.515	38.56
785.692	37.82
785.868	36.29
786.044	36.58
786.221	34.68
786.397	36.1
786.573	34.37
786.749	34.99
786.926	36.35
787.102	35.12
787.278	35.11
787.454	34.91
787.631	35.49
787.807	37.3
787.983	38.45
788.159	39.42
788.335	37.99
788.511	39.99
788.687	40.99
788.863	40.55
789.039	43.25
789.216	45.13
789.392	46.34
789.568	44.86
789.744	45.16
789.919	44.62
790.095	44.86
790.271	48.77
790.447	48.39
790.623	46.74
790.799	47.27
790.975	47.75
791.151	42.75
791.327	42.49
791.502	45.06
791.678	47.23
791.854	46.35
792.03	46.34
792.205	44.85
792.381	43.47
792.557	43.56
792.733	44.18
792.908	43.15
793.084	44.35
793.259	44.25
793.435	43.42
793.611	40.28
793.786	41.65
793.962	42.3
794.137	41.31
794.313	41.47
794.488	39.04
794.664	36.64
794.839	34.42
795.015	35.64
795.19	37.29
795.366	36.96
795.541	37.78
795.716	35.64
795.892	34.04
796.067	31.35
796.242	31.1
796.418	32.98
796.593	33.31
796.768	34.45
796.944	35.66
797.119	32.36
797.294	32.94
797.469	32.98
797.644	34.49
797.82	36.14
797.995	38.9
798.17	38.59
798.345	38.92
798.52	39.47
798.695	39.37
798.87	39.08
799.045	41.4
799.22	42.86
799.395	41.58
799.57	41.34
799.745	40.14
799.92	40.98
800.095	40.9
800.27	40.87
800.445	42.36
800.62	41.4
800.795	38
800.97	37.11
801.145	34.38
801.319	35.03
801.494	34.01
801.669	34.97
801.844	33.94
802.018	35.45
802.193	34.93
802.368	34.81
802.543	34.99
802.717	39.26
802.892	36.72
803.067	37.18
803.241	36.27
803.416	36.88
803.59	35.67
803.765	35.06
803.94	34.88
804.114	33.86
804.289	31.28
804.463	33.2
804.638	31.41
804.812	33.43
804.986	30.47
805.161	33.61
805.335	35.05
805.51	33.4
805.684	31.51
805.858	30.33
806.033	29.91
806.207	30.59
806.381	26.67
806.556	28.53
806.73	28.06
806.904	30.37
807.078	28.49
807.253	24.19
807.427	25.15
807.601	26.53
807.775	27.93
807.949	29.47
808.123	28.27
808.298	28.98
808.472	27.02
808.646	30.16
808.82	28.27
808.994	28.39
809.168	31.25
809.342	33.44
809.516	33.74
809.69	28.98
809.864	30.76
810.038	29.88
810.212	34.62
810.385	37.38
810.559	32.71
810.733	36.42
810.907	34.78
811.081	35.67
811.255	31.96
811.428	32.79
811.602	39.02
811.776	37.03
811.95	39.78
812.123	37.29
812.297	36.48
812.471	38.47
812.644	36.18
812.818	36.99
812.992	36.2
813.165	42.29
813.339	47.43
813.512	46.03
813.686	45.79
813.86	45.08
814.033	40.18
814.207	42.5
814.38	44.58
814.554	47.84
814.727	47.37
814.9	49.42
815.074	50.81
815.247	43.96
815.421	40.28
815.594	38.75
815.767	35.1
815.941	37.89
816.114	34.09
816.287	31.43
816.46	27.49
816.634	30.05
816.807	27.44
816.98	25.17
817.153	27.14
817.327	28.45
817.5	30.05
817.673	34.53
817.846	37.27
818.019	38.82
818.192	39.04
818.365	39.14
818.538	39.32
818.711	39.92
818.884	39.98
819.057	37.43
819.23	38.2
819.403	38.85
819.576	36.85
819.749	34.89
819.922	35.35
820.095	34.33
820.268	35.14
820.441	37.18
820.614	37.03
820.786	37.09
820.959	39.75
821.132	41.93
821.305	41.26
821.477	41.72
821.65	42.14
821.823	42.24
821.996	43.03
822.168	43.61
822.341	43.91
822.514	44.76
822.686	44.46
822.859	44.46
823.031	44.32
823.204	44.58
823.376	44.63
823.549	45.04
823.722	44.87
823.894	44.61
824.067	44.05
824.239	43.45
824.411	42.82
824.584	43.1
824.756	42.9
824.929	43.16
825.101	43.36
825.273	43.88
825.446	43.71
825.618	44.42
825.79	44.82
825.963	44.75
826.135	44.75
826.307	45.78
826.479	46.2
826.652	45.97
826.824	44.4
826.996	43.44
827.168	42.71
827.34	42.78
827.512	41.99
827.684	41.85
827.856	43.42
828.029	44.15
828.201	42.97
828.373	42.32
828.545	42.9
828.717	43.41
828.889	45.04
829.061	45.87
829.232	46.2
829.404	46.47
829.576	47.05
829.748	44.67
829.92	43.31
830.092	43.33
830.264	41.45
830.436	41.49
830.607	42.41
830.779	40.14
830.951	38.26
831.123	35.58
831.294	35.87
831.466	36.21
831.638	38.35
831.809	40.22
831.981	40.41
832.153	42.73
832.324	42.97
832.496	44.78
832.667	43.86
832.839	45.83
833.011	49.44
833.182	45.44
833.354	44.35
833.525	42.74
833.697	41.38
833.868	40.39
834.039	41.07
834.211	41.24
834.382	38.03
834.554	40.01
834.725	40.18
834.896	37.23
835.068	40.07
835.239	39.33
835.41	40.22
835.581	41.13
835.753	41.78
835.924	40.72
836.095	40.42
836.266	41.6
836.438	41.92
836.609	40.53
836.78	43.17
836.951	40.29
837.122	40.77
837.293	39.82
837.464	39.37
837.635	41.37
837.806	40.94
837.977	37.46
838.148	39.33
838.319	36.27
838.49	36.39
838.661	35.37
838.832	38.28
839.003	41.35
839.174	36.93
839.345	34.41
839.516	29.98
839.687	28.78
839.857	34.05
840.028	25.57
840.199	29.6
840.37	28.16
840.54	24.99
840.711	27.65
840.882	24.12
841.053	27.11
841.223	26.53
841.394	26.53
841.564	29.98
841.735	27.06
841.906	26.49
842.076	21.29
842.247	26.34
842.417	26.68
842.588	20.07
842.758	17.17
842.929	19.48
843.099	20.93
843.27	27.94
843.44	20.02
843.611	21.01
843.781	24.91
843.951	31.25
844.122	29.07
844.292	33.71
844.462	34.25
844.633	32.39
844.803	30.9
844.973	30.34
845.144	27.25
845.314	27.29
845.484	28.12
845.654	28.11
845.824	21.06
845.995	18.84
846.165	13.71
846.335	12.98
846.505	14.43
846.675	16.12
846.845	12.54
847.015	8.75
847.185	17.56
847.355	8.13
847.525	10.22
847.695	17.8
847.865	24.35
848.035	28.06
848.205	30.43
848.375	29.07
848.545	26.15
848.715	31.63
848.884	26.3
849.054	34.3
849.224	38.23
849.394	31.2
849.564	32.6
849.733	30.31
849.903	26.94
850.073	4.47
850.243	20
850.412	21.04
850.582	13.92
850.752	3.96
850.921	-8.67
851.091	-4.2
851.26	4.61
851.43	-13.37
851.599	-20.39
851.769	-30.06
851.939	-14.06
852.108	-33.3
852.278	-26.6
852.447	-28.07
852.616	-0.74
852.786	-1.57
852.955	6.97
853.125	2.39
853.294	5.96
853.463	6.74
853.633	6.24
853.802	13.26
853.971	20.07
854.141	16.09
854.31	27.53
854.479	23.05
854.648	29.78
854.818	22.4
854.987	17.33
855.156	11.83
855.325	15.87
855.494	18.47
855.663	20.5
855.832	22.06
856.001	27.33
856.171	27.75
856.34	23.86
856.509	13.09
856.678	18.21
856.847	21.65
857.016	49.76
857.185	51.84
857.353	52.06
857.522	45.28
857.691	36.16
857.86	34.35
858.029	32.45
858.198	28.24
858.367	28.15
858.535	18
858.704	22.54
858.873	5.38
859.042	-38.1
859.21	-43.77
859.379	-36.2
859.548	-26.62
859.717	-40.75
859.885	-39.96
860.054	-19.27
860.222	9.23
860.391	20.98
860.56	4.32
860.728	4.29
860.897	35.65
861.065	22.24
861.234	29.26
861.402	18.92
861.571	31.23
861.739	31.95
861.908	24.97
862.076	9.04
862.244	28.2
862.413	35.59
862.581	28.12
862.749	6.17
862.918	14.92
863.086	-20.84
863.254	-15.35
863.423	-28.94
863.591	-13.54
863.759	-33.85
863.927	-16.97
864.096	-50.83
864.264	-149.12
864.432	-86.34
864.6	-59.8
864.768	-40.45
864.936	-18.66
865.104	-9.42
865.272	-7.8
865.44	-26.44
865.608	-15.38
865.776	-31.88
865.944	-45.68
866.112	-15.81
866.28	2.58
866.448	-11.23
866.616	-19.98
866.784	-24.87
866.952	-37.79
867.12	-45.34
867.288	-34.56
867.455	-43.49
867.623	-56.31
867.791	-18.64
867.959	-19.45
868.127	-68.43
868.294	-27.17
868.462	-5.9
868.63	13.5
868.797	12.94
868.965	6.13
869.133	14.59
869.3	21.28
869.468	35.29
869.636	24.98
869.803	33.7
869.971	33.27
870.138	38.16
870.306	38.73
870.473	38.27
870.641	37.15
870.808	40.8
870.975	35.21
871.143	21.24
871.31	2.53
871.478	-0.84
871.645	-19.24
871.812	-15.85
871.98	-15.01
872.147	-24.55
872.314	-13.05
872.482	-3.57
872.649	-12.33
872.816	-6.27
872.983	18.19
873.15	21.14
873.318	25.03
873.485	28.64
873.652	26.66
873.819	17.41
873.986	9.11
874.153	3.74
874.32	10.47
874.487	1.31
874.654	6.18
874.821	-10.88
874.988	-0.85
875.155	3.61
875.322	11.1
875.489	-0.6
875.656	-1.42
875.823	1.89
875.99	-4.45
876.157	-8.25
876.324	5.19
876.49	9.89
876.657	9
876.824	1.61
876.991	-1.97
877.157	1.32
877.324	18.66
877.491	25.49
877.658	27.48
877.824	39.22
877.991	44.33
878.157	20.4
878.324	25.81
878.491	31.3
878.657	38.16
878.824	31.84
878.99	14.35
879.157	-6.12
879.323	-4.72
879.49	9.31
879.656	21.09
879.823	15.65
879.989	31.11
880.156	15.7
880.322	21.79
880.488	19.33
880.655	28.35
880.821	31.3
880.987	36.75
881.154	35.44
881.32	36.55
881.486	37.79
881.652	42.39
881.819	43.11
881.985	42.88
882.151	44.77
882.317	44.55
882.483	46.16
882.649	42.84
882.816	40.96
882.982	40.72
883.148	40.17
883.314	40.16
883.48	38.68
883.646	38.22
883.812	39.7
883.978	37.3
884.144	38.4
884.31	37.3
884.476	38.96
884.642	40.31
884.807	42.01
884.973	39.72
885.139	38.3
885.305	38.96
885.471	38.34
885.637	38.44
885.802	39.34
885.968	38.42
886.134	36.79
886.3	37.81
886.465	33.58
886.631	32.86
886.797	36.17
886.962	35.76
887.128	35.06
887.293	35.36
887.459	32.57
887.625	27.45
887.79	23.27
887.956	21.7
888.121	16.35
888.287	20.17
888.452	17
888.618	8.37
888.783	3.04
