Data from CB_006_Reflection_1.txt Node
Date: Wed Nov 11 18:27:57 EST 2015
User: robert
Spectrometer: USB4E03001
Autoset integration time: false
Trigger mode: 4
Integration Time (sec): 1.000000E-1
Scans to average: 15
Electric dark correction enabled: true
Nonlinearity correction enabled: false
Boxcar width: 5
Stray light correction enabled: false
XAxis mode: Wavelengths
Stop averaging: false
Number of Pixels in Spectrum: 3648
>>>>>Begin Spectral Data<<<<<
177.566	3.54
177.785	-52.54
178.005	-77.52
178.225	-1101.32
178.445	256.53
178.665	399
178.885	160.7
179.105	148.47
179.324	139.57
179.544	-19.81
179.764	25.02
179.984	15.1
180.204	134.94
180.423	-56.78
180.643	-176
180.863	382.38
181.083	317.36
181.302	194.2
181.522	-535.33
181.742	-110.4
181.961	193.19
182.181	103.45
182.401	98.34
182.621	498.26
182.84	126.37
183.06	102.57
183.279	118.89
183.499	320.53
183.719	250.62
183.938	168.05
184.158	422.87
184.377	-747.47
184.597	-273.32
184.816	-216.96
185.036	-569.37
185.256	-180.2
185.475	553.91
185.695	-8047.13
185.914	307.39
186.134	125.12
186.353	90.84
186.572	85.37
186.792	99.46
187.011	30.92
187.231	26.4
187.45	-25.55
187.67	-101.8
187.889	2.22
188.108	152.54
188.328	297.85
188.547	-412.91
188.766	-804.38
188.986	352.27
189.205	-16931.82
189.424	273.85
189.644	1789.26
189.863	162.11
190.082	210.95
190.302	139.05
190.521	61.67
190.74	11.26
190.959	46.2
191.178	32.4
191.398	31.76
191.617	14.3
191.836	23.09
192.055	25.62
192.274	-0.46
192.494	6.64
192.713	15.8
192.932	25.94
193.151	38.55
193.37	33.1
193.589	44.17
193.808	53.56
194.027	75.34
194.246	78.33
194.465	85.12
194.685	63.29
194.904	50.17
195.123	51.94
195.342	365.92
195.561	124.55
195.78	127.21
195.999	108.79
196.218	12.5
196.436	-51.63
196.655	-331.7
196.874	150.1
197.093	389.57
197.312	625.96
197.531	-166.7
197.75	-110.06
197.969	-42.62
198.188	4.28
198.407	11.04
198.625	-97.31
198.844	-24.56
199.063	-0.29
199.282	-39.41
199.501	38.4
199.719	14.37
199.938	-881.25
200.157	159.82
200.376	-3.52
200.594	-6.12
200.813	-2062.86
201.032	93.45
201.251	82.19
201.469	60.16
201.688	60.92
201.907	127.29
202.125	72.59
202.344	73.13
202.563	79.5
202.781	83.4
203	55.67
203.218	28.29
203.437	57.95
203.656	27.52
203.874	40.31
204.093	19.58
204.311	-7.38
204.53	-13.6
204.748	-65.19
204.967	-122.92
205.185	-61.63
205.404	-10.86
205.622	9.72
205.841	-4.08
206.059	-8.83
206.278	-0.43
206.496	13.2
206.715	72.44
206.933	120.28
207.151	108.77
207.37	128.77
207.588	149
207.806	107.21
208.025	19.91
208.243	-119.41
208.461	-8.87
208.68	-0.73
208.898	-6.91
209.116	-40.06
209.335	-32.58
209.553	451.71
209.771	-5.36
209.989	1449.57
210.208	1284.72
210.426	214.91
210.644	34.61
210.862	62.94
211.081	44.83
211.299	5.99
211.517	-35.43
211.735	-51.97
211.953	-86.35
212.171	6.44
212.39	-217.46
212.608	-1668.36
212.826	294.87
213.044	224.66
213.262	221.45
213.48	151.2
213.698	182.09
213.916	-22.37
214.134	117.82
214.352	168.71
214.57	-264.86
214.788	-5.89
215.006	-67.92
215.224	-59.79
215.442	-59.1
215.66	-24.46
215.878	21.84
216.096	31.16
216.314	49.99
216.532	71.72
216.75	80.23
216.968	83.63
217.185	110.67
217.403	147.2
217.621	147.79
217.839	254.5
218.057	3184.92
218.275	-676.72
218.492	-75.5
218.71	-51.12
218.928	-53.04
219.146	-29.14
219.363	-6.62
219.581	-30.74
219.799	-52.26
220.017	-54.2
220.234	-19.91
220.452	-36.87
220.67	-25.89
220.887	-23.37
221.105	-3.05
221.323	28
221.54	67.07
221.758	94.02
221.976	110.31
222.193	93.99
222.411	85.25
222.629	100.81
222.846	103.75
223.064	106.28
223.281	76.68
223.499	76.7
223.716	70.83
223.934	79.3
224.151	-180.11
224.369	-210.31
224.586	68100
224.804	242.01
225.021	84.7
225.239	22.85
225.456	-60.68
225.674	-2.6
225.891	6.85
226.108	-5.72
226.326	-0.07
226.543	6.31
226.76	23.95
226.978	18.36
227.195	17.78
227.413	14.4
227.63	12.94
227.847	10.51
228.064	12.46
228.282	17.31
228.499	15.78
228.716	15.6
228.934	14.78
229.151	14.66
229.368	15.71
229.585	9.58
229.802	10.06
230.02	9.55
230.237	10.81
230.454	14.36
230.671	14.16
230.888	10.45
231.105	10.7
231.323	10.92
231.54	11.8
231.757	6.81
231.974	16.75
232.191	20.84
232.408	18.39
232.625	15.86
232.842	7.58
233.059	0.56
233.276	8.84
233.493	11.19
233.71	15.4
233.927	9.93
234.144	18.79
234.361	15.65
234.578	14.31
234.795	20.64
235.012	22.77
235.229	21.12
235.446	18.46
235.663	14.16
235.879	15.25
236.096	8.8
236.313	3.35
236.53	2.24
236.747	0.7
236.964	-0.83
237.181	-17.5
237.397	-16.37
237.614	-13.98
237.831	-21.16
238.048	-19.74
238.264	-26.58
238.481	-26.27
238.698	-17.41
238.915	-21.78
239.131	-23.58
239.348	-29.82
239.565	-15.41
239.781	-14.74
239.998	-12.01
240.215	-5.63
240.431	0.98
240.648	4.63
240.865	8.98
241.081	8.2
241.298	9.96
241.514	10.52
241.731	14.13
241.947	13.27
242.164	12.81
242.38	11.82
242.597	13.47
242.814	12.43
243.03	10.43
243.246	9.88
243.463	10.37
243.679	8.9
243.896	9.72
244.112	6.84
244.329	7.75
244.545	9.15
244.762	9.53
244.978	9.54
245.194	7.06
245.411	8.73
245.627	6.45
245.843	7.28
246.06	9.03
246.276	9.26
246.492	11.25
246.709	11.76
246.925	10.54
247.141	9.81
247.357	9.83
247.574	10.08
247.79	10.5
248.006	10.58
248.222	11.5
248.439	11.46
248.655	11.77
248.871	10.9
249.087	10.75
249.303	11.91
249.519	13.36
249.736	12
249.952	13.73
250.168	13.16
250.384	13.22
250.6	12.75
250.816	12.55
251.032	11.75
251.248	11.71
251.464	9
251.68	6.54
251.896	7.32
252.112	9.24
252.328	10.37
252.544	11.49
252.76	11.96
252.976	11.36
253.192	12.92
253.408	11.62
253.624	12.38
253.84	11.82
254.056	13.45
254.272	12.78
254.487	13.23
254.703	13.05
254.919	11.6
255.135	9.31
255.351	6.96
255.567	3.91
255.782	6.48
255.998	6.78
256.214	8.9
256.43	8.72
256.646	9.86
256.861	7.28
257.077	3.63
257.293	0.81
257.508	4.17
257.724	3.93
257.94	4.51
258.155	3.27
258.371	3.18
258.587	2.84
258.802	3.51
259.018	3.49
259.234	4.73
259.449	5.74
259.665	6.41
259.88	6.84
260.096	7.73
260.312	7.86
260.527	8.17
260.743	8.33
260.958	8.79
261.174	9.13
261.389	8.52
261.605	8.6
261.82	8.8
262.036	8.93
262.251	8.78
262.466	8.9
262.682	7.83
262.897	8.9
263.113	7.2
263.328	6.6
263.543	6.98
263.759	7.1
263.974	5.83
264.189	4.9
264.405	4.97
264.62	4.94
264.835	2.65
265.051	4.91
265.266	0.63
265.481	4.07
265.696	5.24
265.912	3.92
266.127	5.46
266.342	6.6
266.557	4.71
266.773	5.53
266.988	3.56
267.203	2.64
267.418	1.34
267.633	2.54
267.848	2.32
268.064	1.59
268.279	1.43
268.494	-0.62
268.709	0.54
268.924	2.78
269.139	2.02
269.354	2.81
269.569	5.46
269.784	6.25
269.999	4.95
270.214	4.68
270.429	3.6
270.644	4.22
270.859	5.08
271.074	4.75
271.289	4.53
271.504	3.98
271.719	3.21
271.934	2.61
272.149	2.64
272.363	4.32
272.578	4.32
272.793	5.8
273.008	5.2
273.223	5.98
273.438	5.64
273.653	5.21
273.867	6.76
274.082	7.54
274.297	7.99
274.512	7.38
274.726	7.04
274.941	7.2
275.156	7.35
275.371	7.47
275.585	5.59
275.8	5.6
276.015	4.54
276.229	1.86
276.444	1.83
276.659	0.49
276.873	-0.54
277.088	-0.8
277.302	-2.11
277.517	-3.98
277.732	-3.7
277.946	-2.46
278.161	-4.25
278.375	-3.11
278.59	-1.08
278.804	-1.25
279.019	0.84
279.233	4.7
279.448	4.62
279.662	6.2
279.877	7.25
280.091	7.71
280.306	8.99
280.52	10.02
280.735	10.18
280.949	11.29
281.163	13.87
281.378	11.07
281.592	9.9
281.806	9.94
282.021	8.55
282.235	7.87
282.449	7.37
282.664	6.16
282.878	6.26
283.092	7.27
283.307	7.29
283.521	6.4
283.735	9.46
283.949	9.26
284.164	9.76
284.378	11.64
284.592	11.7
284.806	11.45
285.02	11.4
285.234	12.11
285.449	11.69
285.663	10.89
285.877	10.59
286.091	9.49
286.305	9.58
286.519	9.9
286.733	8.77
286.947	8.94
287.161	8.98
287.375	9.23
287.589	8.58
287.803	9.48
288.017	9.86
288.231	9.22
288.445	9.68
288.659	8.79
288.873	7.59
289.087	7.62
289.301	7.83
289.515	8.3
289.729	7.92
289.943	7.92
290.157	7.43
290.371	6.44
290.584	7.02
290.798	7.07
291.012	7.43
291.226	8.35
291.44	8.64
291.654	8.6
291.867	9
292.081	8.8
292.295	8.9
292.509	7.9
292.722	9.27
292.936	8.49
293.15	8.8
293.364	9.81
293.577	9.67
293.791	10.38
294.005	10.71
294.218	11.57
294.432	11.64
294.645	12.67
294.859	12.41
295.073	10.81
295.286	10.6
295.5	10.7
295.713	10.58
295.927	11.28
296.14	10.92
296.354	10.58
296.568	9.23
296.781	8.98
296.994	7.37
297.208	7.37
297.421	9.03
297.635	9.62
297.848	9.91
298.062	10.52
298.275	9.4
298.489	8.93
298.702	9.81
298.915	10.43
299.129	10.99
299.342	11.95
299.555	12.56
299.769	11.79
299.982	12.07
300.195	12.5
300.409	11.58
300.622	13.44
300.835	14.18
301.048	14.08
301.262	13.55
301.475	14.6
301.688	15.8
301.901	16.49
302.115	16.37
302.328	15.97
302.541	14.39
302.754	14.3
302.967	13.16
303.18	12.43
303.393	12.8
303.607	13.15
303.82	11.97
304.033	10.92
304.246	9.64
304.459	8.88
304.672	9.21
304.885	9.12
305.098	8.43
305.311	8.2
305.524	7.22
305.737	5.92
305.95	6.65
306.163	7.64
306.376	7.84
306.589	9.13
306.802	10.65
307.015	10.87
307.228	9.92
307.44	11.27
307.653	11.53
307.866	13.95
308.079	15.39
308.292	15.16
308.505	14.91
308.718	14.9
308.93	14.27
309.143	14.26
309.356	13.62
309.569	14.91
309.781	14.23
309.994	13.37
310.207	13.1
310.42	11.91
310.632	12.13
310.845	12.28
311.058	12.56
311.27	11.87
311.483	11.76
311.696	12.21
311.908	11.62
312.121	11.58
312.333	11.38
312.546	11.69
312.759	11.95
312.971	10.43
313.184	8.98
313.396	8.8
313.609	10
313.821	10.38
314.034	9.83
314.246	10.6
314.459	10.91
314.671	11.33
314.884	11.1
315.096	12.08
315.309	12.93
315.521	14.15
315.733	13.22
315.946	12.24
316.158	12.19
316.371	11.4
316.583	11.04
316.795	10.78
317.008	11.61
317.22	9.88
317.432	7.91
317.644	7.95
317.857	8.31
318.069	9.2
318.281	9.21
318.494	8.05
318.706	9.07
318.918	8.74
319.13	7.91
319.342	8.36
319.555	8.17
319.767	8.39
319.979	9.63
320.191	8.55
320.403	7.24
320.615	7.82
320.827	7.74
321.039	7.14
321.252	8.68
321.464	8.58
321.676	7.42
321.888	8.58
322.1	8.92
322.312	8.93
322.524	9.87
322.736	11.66
322.948	11.26
323.16	12.54
323.372	13.33
323.584	11.81
323.796	11.94
324.007	11.97
324.219	12.52
324.431	13.9
324.643	12.59
324.855	12.72
325.067	11.88
325.279	12.49
325.491	11.49
325.702	11.55
325.914	12.41
326.126	12.92
326.338	12.87
326.55	12.84
326.761	12.2
326.973	13.65
327.185	13.46
327.396	13.56
327.608	12.54
327.82	14.09
328.032	13.63
328.243	14.15
328.455	15.17
328.666	15.62
328.878	14.66
329.09	14.07
329.301	12.11
329.513	12.23
329.725	12.01
329.936	12.95
330.148	12.03
330.359	12.39
330.571	11.95
330.782	11.39
330.994	11.71
331.205	12.7
331.417	12.64
331.628	12.77
331.84	13.14
332.051	12.88
332.262	12.71
332.474	12.3
332.685	13.21
332.897	13.01
333.108	12.59
333.319	13.57
333.531	14.42
333.742	14.43
333.953	15.05
334.165	14.71
334.376	15.52
334.587	15.7
334.799	15.36
335.01	13.72
335.221	14.48
335.432	15.26
335.644	14.68
335.855	13.95
336.066	14.76
336.277	14.45
336.488	14.75
336.7	14.35
336.911	14.44
337.122	14.79
337.333	15.4
337.544	14.97
337.755	14.93
337.966	13.81
338.177	12.74
338.388	12.16
338.599	13.01
338.811	13.09
339.022	13.69
339.233	13.56
339.444	14.51
339.655	15.92
339.866	16.55
340.076	15.83
340.287	16.66
340.498	17.84
340.709	18.11
340.92	17.53
341.131	17.18
341.342	17.28
341.553	16.96
341.764	16.12
341.975	15
342.185	14.43
342.396	14.76
342.607	14.84
342.818	14.15
343.029	13.7
343.239	13.26
343.45	12.38
343.661	11.68
343.872	11.49
344.082	10.58
344.293	10.42
344.504	11.17
344.714	11.35
344.925	11.49
345.136	12.06
345.346	12.05
345.557	13.1
345.768	13.54
345.978	14.37
346.189	14.67
346.399	15.95
346.61	16.23
346.821	15.73
347.031	15.11
347.242	15.04
347.452	14.58
347.663	14.88
347.873	14.18
348.084	14.41
348.294	14.49
348.504	13.93
348.715	13.81
348.925	13.88
349.136	12.86
349.346	14.19
349.557	14.55
349.767	14.3
349.977	13.94
350.188	14.14
350.398	14.63
350.608	14.12
350.819	14.62
351.029	13.36
351.239	12.68
351.449	12.8
351.66	11.99
351.87	11.94
352.08	11.95
352.29	12.82
352.501	12.7
352.711	12.07
352.921	10.89
353.131	11.48
353.341	12.25
353.552	12.78
353.762	13.03
353.972	12.94
354.182	12.81
354.392	12.92
354.602	12.69
354.812	12.55
355.022	12.92
355.232	13.31
355.442	12.58
355.652	12.21
355.862	12.52
356.072	11.86
356.282	11.93
356.492	11.06
356.702	11.87
356.912	11.65
357.122	11.6
357.332	11.25
357.542	11.42
357.752	11.67
357.962	12.18
358.171	11.6
358.381	11.62
358.591	12.07
358.801	13.06
359.011	12.26
359.221	11.82
359.43	11.75
359.64	12.72
359.85	13.44
360.06	13.35
360.269	13.53
360.479	13.51
360.689	13.83
360.899	13.75
361.108	13.36
361.318	13.46
361.528	13.88
361.737	13.76
361.947	13.12
362.156	12.29
362.366	12.36
362.576	11.61
362.785	11.34
362.995	11.19
363.204	10.68
363.414	10.38
363.623	10.49
363.833	10.18
364.042	10.63
364.252	11.27
364.461	12.3
364.671	11.76
364.88	12.16
365.09	12.27
365.299	12.5
365.509	11.92
365.718	12.19
365.927	12.14
366.137	12.32
366.346	11.86
366.555	10.78
366.765	9.9
366.974	10.5
367.183	10.32
367.393	9.72
367.602	9.81
367.811	10.22
368.021	9.87
368.23	9.94
368.439	9.27
368.648	9.39
368.857	9.48
369.067	9
369.276	8.9
369.485	8.99
369.694	9.85
369.903	9.75
370.112	10.01
370.321	9.63
370.531	9.14
370.74	9.01
370.949	8.47
371.158	8.49
371.367	9.25
371.576	9.41
371.785	9.56
371.994	9.68
372.203	9.49
372.412	9.59
372.621	10.44
372.83	11.13
373.039	11.64
373.248	12.29
373.457	12.63
373.666	12.44
373.874	12.21
374.083	12.71
374.292	12.4
374.501	12.33
374.71	12.02
374.919	11.83
375.128	10.99
375.336	10.7
375.545	9.97
375.754	9.19
375.963	8.86
376.171	8.63
376.38	7.96
376.589	8.11
376.798	8.02
377.006	7.57
377.215	7.23
377.424	7.61
377.632	7.93
377.841	8.4
378.05	8.03
378.258	7.92
378.467	8.05
378.675	7.68
378.884	7.35
379.093	7.35
379.301	7.73
379.51	8.03
379.718	7.33
379.927	7.24
380.135	6.98
380.344	7.77
380.552	7.72
380.761	7.63
380.969	7.86
381.177	8.06
381.386	8.1
381.594	8.07
381.803	7.45
382.011	8.12
382.219	7.68
382.428	7.49
382.636	7.45
382.845	7.25
383.053	7.14
383.261	6.77
383.469	7.04
383.678	6.76
383.886	6.68
384.094	6.85
384.302	6.78
384.511	6.81
384.719	7.03
384.927	7.1
385.135	7.58
385.343	7.5
385.552	7.74
385.76	7.13
385.968	7
386.176	6.86
386.384	6.58
386.592	6.21
386.8	6.24
387.008	5.86
387.216	5.55
387.424	5.67
387.633	5.65
387.841	5.53
388.049	5.47
388.257	5.6
388.465	5.82
388.672	5.9
388.88	5.73
389.088	5.56
389.296	5.52
389.504	5.67
389.712	5.33
389.92	5.25
390.128	5.11
390.336	4.87
390.544	4.96
390.751	4.69
390.959	4.89
391.167	5.04
391.375	5.17
391.583	5.2
391.79	4.8
391.998	4.86
392.206	4.81
392.414	4.92
392.621	5.3
392.829	5.66
393.037	5.5
393.244	5.33
393.452	5.15
393.66	4.82
393.867	4.96
394.075	5.13
394.283	4.86
394.49	4.77
394.698	4.92
394.905	4.98
395.113	4.29
395.32	4.57
395.528	4.46
395.735	4.63
395.943	4.71
396.15	4.52
396.358	4.5
396.565	4.67
396.773	4.79
396.98	4.54
397.188	3.95
397.395	4.2
397.602	3.98
397.81	3.93
398.017	3.93
398.225	4.19
398.432	3.91
398.639	4.17
398.847	3.89
399.054	3.93
399.261	4.1
399.468	4.5
399.676	4.61
399.883	4.53
400.09	4.74
400.297	4.55
400.505	4.37
400.712	4.72
400.919	4.43
401.126	4.48
401.333	4.6
401.54	4.5
401.748	4.25
401.955	3.93
402.162	3.77
402.369	3.79
402.576	3.89
402.783	4.13
402.99	4.1
403.197	4.04
403.404	3.73
403.611	3.23
403.818	3.21
404.025	3.15
404.232	3.55
404.439	3.77
404.646	3.64
404.853	3.69
405.06	3.64
405.267	3.69
405.474	3.86
405.681	4.37
405.887	4.43
406.094	4.63
406.301	4.82
406.508	4.51
406.715	4.48
406.922	4.59
407.128	4.57
407.335	4.34
407.542	4.09
407.749	3.93
407.955	3.78
408.162	4.09
408.369	4.01
408.575	3.67
408.782	3.85
408.989	3.84
409.195	3.79
409.402	3.73
409.609	3.78
409.815	3.92
410.022	3.8
410.228	3.55
410.435	3.73
410.642	3.43
410.848	3.81
411.055	3.64
411.261	3.59
411.468	3.75
411.674	3.62
411.881	3.49
412.087	3.35
412.294	3.5
412.5	3.78
412.706	3.44
412.913	3.2
413.119	3.22
413.326	3.2
413.532	3.29
413.738	3.08
413.945	3.07
414.151	3.32
414.357	3.49
414.564	3.5
414.77	3.57
414.976	3.4
415.182	3.98
415.389	3.81
415.595	3.88
415.801	3.84
416.007	3.78
416.214	3.86
416.42	3.73
416.626	3.81
416.832	3.75
417.038	3.52
417.244	3.61
417.45	3.57
417.657	3.4
417.863	3.27
418.069	3.26
418.275	3.24
418.481	3.05
418.687	3.01
418.893	2.82
419.099	2.87
419.305	3.08
419.511	3.09
419.717	3.02
419.923	3.06
420.129	3.1
420.335	3.03
420.541	3.05
420.746	3.4
420.952	3.52
421.158	3.81
421.364	3.77
421.57	3.65
421.776	3.58
421.982	3.46
422.187	3.4
422.393	3.48
422.599	3.64
422.805	3.58
423.01	3.36
423.216	3.25
423.422	3.02
423.628	3.21
423.833	3.22
424.039	3.4
424.245	3.47
424.45	3.65
424.656	3.59
424.862	3.56
425.067	3.65
425.273	3.81
425.478	3.89
425.684	4.01
425.889	3.86
426.095	3.88
426.301	3.87
426.506	4.05
426.712	4.04
426.917	4.19
427.123	4.09
427.328	3.98
427.533	3.77
427.739	3.62
427.944	3.5
428.15	3.45
428.355	3.59
428.561	3.3
428.766	2.9
428.971	2.82
429.177	2.63
429.382	2.6
429.587	2.87
429.793	2.67
429.998	2.74
430.203	2.88
430.408	2.7
430.614	2.43
430.819	2.72
431.024	2.7
431.229	2.96
431.434	2.92
431.64	2.86
431.845	2.71
432.05	3.06
432.255	3.05
432.46	2.82
432.665	2.94
432.87	3.08
433.076	3.19
433.281	3.24
433.486	3.05
433.691	2.95
433.896	2.9
434.101	2.81
434.306	2.89
434.511	2.91
434.716	2.97
434.921	2.9
435.126	2.88
435.331	2.55
435.535	2.65
435.74	2.76
435.945	2.96
436.15	3.03
436.355	3.22
436.56	2.95
436.765	2.83
436.97	2.93
437.174	3
437.379	3.02
437.584	3.05
437.789	3.08
437.993	3.1
438.198	3.21
438.403	3.29
438.608	3.22
438.812	3.17
439.017	3.25
439.222	3.28
439.426	3.27
439.631	3.18
439.836	3.28
440.04	3.3
440.245	3.21
440.45	3.16
440.654	3.15
440.859	3.12
441.063	3.2
441.268	3.27
441.472	3.29
441.677	3.33
441.881	3.26
442.086	3.2
442.29	3.08
442.495	3.21
442.699	3.11
442.904	3.09
443.108	3.1
443.312	3.15
443.517	3.11
443.721	3.11
443.925	3.06
444.13	3.2
444.334	3.29
444.538	3.41
444.743	3.3
444.947	3.26
445.151	3.33
445.356	3.39
445.56	3.34
445.764	3.23
445.968	3.12
446.173	3.11
446.377	3.08
446.581	3.09
446.785	3.12
446.989	3.18
447.193	3.24
447.398	3.21
447.602	3.17
447.806	3.28
448.01	3.27
448.214	3.3
448.418	3.35
448.622	3.41
448.826	3.26
449.03	3.18
449.234	3.1
449.438	3.05
449.642	3.1
449.846	3.01
450.05	2.89
450.254	3.08
450.458	3.18
450.662	3.18
450.866	3.16
451.069	3.3
451.273	3.42
451.477	3.36
451.681	3.51
451.885	3.44
452.089	3.37
452.292	3.26
452.496	3.27
452.7	3.27
452.904	3.34
453.107	3.15
453.311	3.03
453.515	2.88
453.719	3.04
453.922	2.79
454.126	2.82
454.33	2.88
454.533	2.89
454.737	2.85
454.94	2.56
455.144	2.27
455.348	2.38
455.551	2.48
455.755	2.64
455.958	2.57
456.162	2.56
456.365	2.39
456.569	2.33
456.772	2.35
456.976	2.17
457.179	2.19
457.383	2.35
457.586	2.21
457.79	2.22
457.993	2.02
458.196	1.89
458.4	2.14
458.603	2.33
458.807	2.59
459.01	2.56
459.213	2.6
459.417	2.53
459.62	2.56
459.823	2.63
460.026	2.61
460.23	2.68
460.433	2.69
460.636	2.53
460.839	2.5
461.042	2.51
461.246	2.57
461.449	2.64
461.652	2.69
461.855	2.66
462.058	2.72
462.261	2.74
462.464	2.8
462.668	2.91
462.871	2.96
463.074	2.7
463.277	2.62
463.48	2.64
463.683	2.66
463.886	2.82
464.089	2.83
464.292	2.83
464.495	2.84
464.698	2.98
464.901	3.15
465.104	3.05
465.306	3.37
465.509	3.3
465.712	3.11
465.915	3.08
466.118	3.39
466.321	3.32
466.524	3.42
466.726	3.39
466.929	3.05
467.132	2.78
467.335	2.93
467.538	2.86
467.74	2.9
467.943	3.17
468.146	3.16
468.348	2.95
468.551	3.1
468.754	3.02
468.956	2.96
469.159	3.17
469.362	3.33
469.564	3.36
469.767	3.33
469.969	3.52
470.172	3.53
470.375	3.4
470.577	3.24
470.78	3.24
470.982	3.36
471.185	3.46
471.387	3.55
471.59	3.44
471.792	3.34
471.995	3.3
472.197	3.28
472.399	3.24
472.602	3.39
472.804	3.49
473.007	3.31
473.209	3.17
473.411	3.11
473.614	2.88
473.816	3.09
474.018	3.14
474.22	3.08
474.423	2.82
474.625	2.69
474.827	2.65
475.03	2.58
475.232	2.61
475.434	2.79
475.636	3.03
475.838	3
476.04	2.91
476.243	2.93
476.445	3.14
476.647	3.07
476.849	3.01
477.051	2.95
477.253	2.99
477.455	3.15
477.657	2.87
477.859	2.84
478.061	2.92
478.263	3.06
478.465	2.82
478.667	2.89
478.869	3.04
479.071	2.95
479.273	2.98
479.475	3
479.677	2.92
479.879	3.02
480.081	2.89
480.283	2.77
480.485	2.69
480.686	2.81
480.888	2.47
481.09	2.36
481.292	2.65
481.494	2.69
481.695	2.52
481.897	2.56
482.099	2.66
482.301	2.8
482.502	2.81
482.704	2.69
482.906	2.73
483.107	2.88
483.309	2.89
483.511	2.89
483.712	2.84
483.914	2.87
484.115	2.85
484.317	2.84
484.519	2.79
484.72	2.78
484.922	2.83
485.123	2.84
485.325	2.8
485.526	2.82
485.728	2.79
485.929	2.9
486.131	3
486.332	2.96
486.534	2.93
486.735	2.89
486.936	2.99
487.138	2.96
487.339	2.96
487.541	2.91
487.742	2.87
487.943	2.84
488.144	2.78
488.346	2.71
488.547	2.79
488.748	2.82
488.95	2.74
489.151	2.69
489.352	2.7
489.553	2.65
489.755	2.65
489.956	2.64
490.157	2.62
490.358	2.64
490.559	2.62
490.76	2.58
490.961	2.57
491.163	2.66
491.364	2.73
491.565	2.65
491.766	2.71
491.967	2.73
492.168	2.84
492.369	2.84
492.57	2.81
492.771	2.9
492.972	2.9
493.173	2.85
493.374	2.87
493.575	2.75
493.776	2.79
493.976	2.79
494.177	2.71
494.378	2.59
494.579	2.45
494.78	2.48
494.981	2.38
495.182	2.48
495.382	2.63
495.583	2.67
495.784	2.72
495.985	2.76
496.185	2.84
496.386	2.82
496.587	2.9
496.788	2.94
496.988	2.89
497.189	2.96
497.39	2.8
497.59	2.76
497.791	2.69
497.992	2.85
498.192	2.93
498.393	2.8
498.593	2.88
498.794	2.79
498.994	2.96
499.195	3
499.395	2.87
499.596	2.91
499.796	2.85
499.997	2.8
500.197	2.56
500.398	2.42
500.598	2.6
500.799	2.62
500.999	2.75
501.199	2.95
501.4	2.91
501.6	3.04
501.801	3.21
502.001	3.16
502.201	3.36
502.402	3.44
502.602	3.49
502.802	3.54
503.002	3.68
503.203	3.81
503.403	3.52
503.603	3.56
503.803	3.36
504.003	3.24
504.204	3.48
504.404	3.44
504.604	3.51
504.804	3.52
505.004	3.4
505.204	3.29
505.404	3.07
505.604	3.07
505.804	3.11
506.005	3.32
506.205	3.37
506.405	3.25
506.605	3.41
506.805	3.41
507.005	3.46
507.204	3.37
507.404	3.39
507.604	3.59
507.804	3.64
508.004	3.84
508.204	3.87
508.404	3.81
508.604	3.75
508.804	3.75
509.003	3.8
509.203	3.86
509.403	3.82
509.603	3.88
509.803	3.77
510.002	3.89
510.202	3.86
510.402	3.91
510.602	4.14
510.801	4.27
511.001	4.28
511.201	4.16
511.4	4.25
511.6	4.46
511.8	4.43
511.999	4.33
512.199	4.2
512.398	4.1
512.598	4.09
512.797	4
512.997	4.03
513.197	3.99
513.396	4.12
513.596	4.19
513.795	4.16
513.994	4.22
514.194	4.49
514.393	4.68
514.593	4.87
514.792	4.85
514.992	5.02
515.191	5.02
515.39	5.13
515.59	5.45
515.789	5.39
515.988	5.46
516.188	5.58
516.387	5.65
516.586	5.67
516.786	5.54
516.985	5.72
517.184	5.61
517.383	5.7
517.582	5.71
517.782	5.58
517.981	5.64
518.18	5.68
518.379	5.82
518.578	5.9
518.777	6
518.976	6.2
519.176	6.25
519.375	6.41
519.574	6.53
519.773	6.64
519.972	6.64
520.171	6.72
520.37	6.86
520.569	6.76
520.768	6.83
520.967	6.81
521.166	6.77
521.365	6.74
521.564	6.66
521.762	6.65
521.961	6.67
522.16	6.96
522.359	7.06
522.558	7.21
522.757	7.41
522.956	7.26
523.154	7.4
523.353	7.52
523.552	7.69
523.751	7.93
523.949	8.1
524.148	8.24
524.347	8.29
524.546	8.41
524.744	8.63
524.943	8.69
525.142	9
525.34	9.14
525.539	9.17
525.737	9.35
525.936	9.37
526.135	9.41
526.333	9.27
526.532	9.39
526.73	9.37
526.929	9.37
527.127	9.51
527.326	9.57
527.524	9.58
527.723	9.72
527.921	9.69
528.12	9.78
528.318	9.85
528.516	10.06
528.715	10.1
528.913	10.18
529.112	10.24
529.31	10.24
529.508	10.3
529.707	10.35
529.905	10.36
530.103	10.43
530.301	10.44
530.5	10.55
530.698	10.61
530.896	10.63
531.094	10.79
531.293	10.8
531.491	10.88
531.689	10.91
531.887	11.01
532.085	11.09
532.283	11.14
532.481	11.3
532.68	11.32
532.878	11.36
533.076	11.47
533.274	11.51
533.472	11.62
533.67	11.68
533.868	11.76
534.066	11.87
534.264	11.97
534.462	12.12
534.66	12.16
534.858	12.23
535.056	12.26
535.253	12.34
535.451	12.43
535.649	12.53
535.847	12.65
536.045	12.77
536.243	13
536.441	13.11
536.638	13.18
536.836	13.35
537.034	13.43
537.232	13.55
537.43	13.6
537.627	13.62
537.825	13.61
538.023	13.77
538.22	13.82
538.418	13.68
538.616	13.72
538.813	13.82
539.011	13.89
539.209	13.9
539.406	13.95
539.604	13.99
539.801	13.97
539.999	14.04
540.196	14.05
540.394	14.15
540.591	14.27
540.789	14.34
540.986	14.37
541.184	14.32
541.381	14.44
541.579	14.55
541.776	14.69
541.974	14.8
542.171	14.91
542.368	14.88
542.566	14.86
542.763	14.9
542.96	14.97
543.158	15.02
543.355	15.09
543.552	15.04
543.75	15.13
543.947	15.13
544.144	15.19
544.341	15.27
544.539	15.48
544.736	15.58
544.933	15.63
545.13	15.79
545.327	15.83
545.524	15.93
545.722	16.12
545.919	16.16
546.116	16.3
546.313	16.41
546.51	16.37
546.707	16.43
546.904	16.65
547.101	16.66
547.298	16.62
547.495	16.82
547.692	16.93
547.889	16.98
548.086	16.96
548.283	16.97
548.48	17.13
548.677	17.22
548.874	17.38
549.07	17.3
549.267	17.51
549.464	17.58
549.661	17.5
549.858	17.66
550.055	17.63
550.251	17.74
550.448	17.69
550.645	17.68
550.842	17.64
551.038	17.63
551.235	17.54
551.432	17.47
551.628	17.49
551.825	17.74
552.022	17.89
552.218	18.07
552.415	18.31
552.612	18.35
552.808	18.27
553.005	18.58
553.201	18.56
553.398	18.72
553.594	18.84
553.791	18.87
553.987	18.8
554.184	18.82
554.38	18.67
554.577	18.43
554.773	18.47
554.97	18.63
555.166	18.31
555.362	18.45
555.559	18.62
555.755	18.52
555.952	18.7
556.148	18.81
556.344	18.68
556.541	18.96
556.737	19.11
556.933	19.23
557.129	19.27
557.326	19.47
557.522	19.33
557.718	19.3
557.914	19.53
558.11	19.48
558.307	19.42
558.503	19.51
558.699	19.52
558.895	19.64
559.091	19.67
559.287	19.63
559.483	19.59
559.679	19.71
559.876	19.76
560.072	19.72
560.268	19.68
560.464	19.8
560.66	19.83
560.856	19.96
561.052	19.9
561.247	20.11
561.443	20.19
561.639	20.41
561.835	20.46
562.031	20.45
562.227	20.53
562.423	20.78
562.619	20.93
562.815	21.02
563.01	21.13
563.206	21.22
563.402	21.21
563.598	21.19
563.793	21.15
563.989	21.29
564.185	21.38
564.381	21.29
564.576	21
564.772	21.05
564.968	21.03
565.163	21.09
565.359	21.18
565.555	21.13
565.75	21.26
565.946	21.25
566.141	21.25
566.337	21.35
566.532	21.55
566.728	21.88
566.923	21.74
567.119	21.69
567.314	21.75
567.51	21.92
567.705	21.92
567.901	21.87
568.096	22.09
568.292	22.07
568.487	22.11
568.682	22.21
568.878	22.14
569.073	22.23
569.268	22.35
569.464	22.28
569.659	22.09
569.854	22.07
570.05	22.09
570.245	21.99
570.44	22.14
570.635	22.22
570.831	22.05
571.026	22.12
571.221	22.18
571.416	22.14
571.611	22.2
571.806	22.27
572.002	22.37
572.197	22.55
572.392	22.59
572.587	22.73
572.782	22.62
572.977	22.79
573.172	22.77
573.367	22.97
573.562	23.03
573.757	22.93
573.952	23.1
574.147	23
574.342	23.06
574.537	23.08
574.732	23.04
574.927	23.17
575.121	23.24
575.316	23.43
575.511	23.23
575.706	23.31
575.901	23.37
576.096	23.11
576.29	23.15
576.485	23.16
576.68	23.12
576.875	23.01
577.069	22.85
577.264	22.61
577.459	22.52
577.654	22.89
577.848	22.78
578.043	22.85
578.238	23.22
578.432	23.3
578.627	23.38
578.821	23.6
579.016	23.5
579.21	23.59
579.405	24.18
579.6	24.19
579.794	23.89
579.989	24.27
580.183	24.16
580.378	24.03
580.572	24.19
580.766	24.17
580.961	24.14
581.155	24.33
581.35	24.24
581.544	23.83
581.738	23.93
581.933	23.97
582.127	23.67
582.321	24.19
582.516	24.33
582.71	24.37
582.904	24.14
583.099	24.53
583.293	24.55
583.487	24.77
583.681	24.68
583.875	24.73
584.07	24.57
584.264	24.63
584.458	24.6
584.652	24.6
584.846	24.7
585.04	24.85
585.234	24.32
585.428	24.44
585.623	24.41
585.817	24.45
586.011	24.24
586.205	24.26
586.399	24.19
586.593	24.07
586.787	24.33
586.981	24.36
587.174	24.29
587.368	24.62
587.562	24.54
587.756	24.56
587.95	24.81
588.144	24.84
588.338	24.98
588.532	25.47
588.725	25.52
588.919	25.35
589.113	25.37
589.307	25.58
589.501	25.52
589.694	25.62
589.888	25.7
590.082	25.45
590.275	25.65
590.469	25.64
590.663	25.52
590.856	25.06
591.05	25.07
591.244	24.93
591.437	24.62
591.631	24.74
591.824	24.66
592.018	24.71
592.212	24.91
592.405	24.85
592.599	24.97
592.792	25.03
592.986	25.32
593.179	25.27
593.372	25.38
593.566	25.61
593.759	25.76
593.953	25.61
594.146	25.77
594.339	25.76
594.533	25.71
594.726	25.71
594.92	25.56
595.113	25.56
595.306	25.56
595.499	25.55
595.693	25.5
595.886	25.28
596.079	25.45
596.272	25.46
596.466	25.57
596.659	25.73
596.852	25.67
597.045	25.77
597.238	25.95
597.431	25.99
597.624	25.88
597.818	26.06
598.011	26.12
598.204	26.31
598.397	26.18
598.59	25.97
598.783	25.91
598.976	25.91
599.169	25.82
599.362	25.76
599.555	25.61
599.748	25.92
599.941	25.69
600.134	25.53
600.326	25.33
600.519	25.41
600.712	25.71
600.905	25.79
601.098	25.93
601.291	25.75
601.483	25.98
601.676	26.23
601.869	25.85
602.062	26.12
602.255	26.24
602.447	26.42
602.64	26.25
602.833	25.98
603.025	26.08
603.218	26.2
603.411	26.45
603.603	26.33
603.796	26.22
603.989	26.42
604.181	26.35
604.374	26.51
604.566	26.27
604.759	26.35
604.951	26.59
605.144	26.53
605.336	26.23
605.529	26.37
605.721	26.34
605.914	26.11
606.106	26.06
606.299	26.18
606.491	26.01
606.683	26.23
606.876	26.23
607.068	26.17
607.26	26.17
607.453	26.68
607.645	26.28
607.837	25.97
608.03	26.5
608.222	26.62
608.414	26.54
608.606	26.61
608.799	26.82
608.991	26.91
609.183	26.91
609.375	27.04
609.567	26.91
609.759	27.17
609.952	27.56
610.144	27.35
610.336	27.29
610.528	27.4
610.72	27.41
610.912	27.22
611.104	27.2
611.296	27.31
611.488	27.11
611.68	27.03
611.872	26.95
612.064	26.68
612.256	26.77
612.448	26.92
612.64	26.89
612.832	26.75
613.023	26.64
613.215	26.53
613.407	26.35
613.599	26.35
613.791	26.58
613.983	26.78
614.174	26.89
614.366	26.86
614.558	27.04
614.75	26.8
614.941	27.03
615.133	27.18
615.325	27.29
615.516	27.52
615.708	27.75
615.9	27.61
616.091	27.4
616.283	27.6
616.475	27.79
616.666	27.49
616.858	27.62
617.049	27.54
617.241	27.36
617.432	27.19
617.624	26.92
617.815	26.87
618.007	26.66
618.198	26.8
618.39	26.46
618.581	26.22
618.773	26.37
618.964	26.67
619.155	26.82
619.347	26.92
619.538	27.15
619.729	27.41
619.921	27.37
620.112	27.55
620.303	27.43
620.494	27.64
620.686	27.49
620.877	27.34
621.068	27.14
621.259	27.11
621.451	27.29
621.642	27.28
621.833	27.33
622.024	27.62
622.215	27.68
622.406	27.43
622.597	27.39
622.788	27.61
622.98	27.79
623.171	27.56
623.362	27.69
623.553	27.79
623.744	27.83
623.935	27.83
624.126	27.73
624.317	27.56
624.508	27.79
624.698	27.75
624.889	27.71
625.08	27.66
625.271	27.8
625.462	27.42
625.653	27.36
625.844	27.15
626.034	26.98
626.225	26.84
626.416	26.87
626.607	26.88
626.798	26.94
626.988	27
627.179	26.85
627.37	26.94
627.56	27.37
627.751	27.36
627.942	27.41
628.132	27.53
628.323	27.42
628.514	27.63
628.704	27.68
628.895	27.9
629.085	28.13
629.276	28.22
629.466	28.28
629.657	27.92
629.847	27.85
630.038	28.26
630.228	28.23
630.419	28.49
630.609	28.24
630.8	28.1
630.99	27.97
631.181	27.95
631.371	28.17
631.561	27.91
631.752	28.12
631.942	28.19
632.132	28.12
632.323	28.35
632.513	28.4
632.703	28.5
632.893	28.61
633.084	28.44
633.274	28.14
633.464	28
633.654	27.87
633.844	27.61
634.034	27.67
634.225	27.73
634.415	27.29
634.605	27.36
634.795	27.32
634.985	27.38
635.175	27.43
635.365	27.51
635.555	27.31
635.745	27.6
635.935	27.64
636.125	27.57
636.315	27.52
636.505	27.79
636.695	27.46
636.885	27.75
637.075	27.54
637.265	27.54
637.455	27.65
637.644	27.76
637.834	27.97
638.024	28.03
638.214	28.04
638.404	28.01
638.593	27.82
638.783	27.87
638.973	27.66
639.163	27.77
639.352	28.01
639.542	28.13
639.732	28.55
639.921	28.61
640.111	28.77
640.301	28.86
640.49	28.87
640.68	29.11
640.87	29.37
641.059	29.92
641.249	30.01
641.438	30.13
641.628	30.29
641.817	30.28
642.007	29.86
642.196	30.11
642.386	30.11
642.575	29.88
642.764	30.03
642.954	30.16
643.143	29.54
643.333	29.72
643.522	29.24
643.711	28.84
643.901	28.46
644.09	28.55
644.279	28.47
644.469	28.56
644.658	28.85
644.847	28.7
645.036	28.14
645.226	28.21
645.415	28.24
645.604	28.6
645.793	28.8
645.982	28.88
646.171	28.56
646.361	28.48
646.55	28.31
646.739	28.16
646.928	28.29
647.117	28.8
647.306	28.85
647.495	28.97
647.684	28.49
647.873	28.59
648.062	28.66
648.251	29.2
648.44	29.02
648.629	28.97
648.818	28.79
649.007	28.42
649.196	27.73
649.384	27.86
649.573	27.75
649.762	28.21
649.951	27.71
650.14	27.2
650.328	27.56
650.517	27.49
650.706	27.62
650.895	27.54
651.083	27.6
651.272	28.09
651.461	27.79
651.65	27.48
651.838	27.44
652.027	27.97
652.216	28.34
652.404	28.05
652.593	28.01
652.781	27.95
652.97	28.31
653.158	27.92
653.347	27.99
653.535	28.23
653.724	28.25
653.912	28.05
654.101	27.7
654.289	28.03
654.478	28.04
654.666	28.44
654.855	27.99
655.043	27.78
655.231	28.41
655.42	28.15
655.608	28
655.796	27.79
655.985	28.17
656.173	28.18
656.361	28
656.55	27.82
656.738	27.38
656.926	27.91
657.114	28.18
657.302	28.31
657.491	28.63
657.679	28.58
657.867	29
658.055	29.04
658.243	29.28
658.431	28.97
658.619	29.25
658.807	29.29
658.996	28.96
659.184	29.09
659.372	28.94
659.56	29.15
659.748	29.26
659.936	29.36
660.124	29.19
660.311	28.92
660.499	29.22
660.687	28.91
660.875	28.8
661.063	29.22
661.251	28.68
661.439	28.65
661.627	28.16
661.814	28.51
662.002	28.31
662.19	28.34
662.378	28.33
662.565	28.08
662.753	28.13
662.941	28.5
663.129	28.39
663.316	28.29
663.504	28.24
663.692	28.21
663.879	28.12
664.067	28.13
664.254	28.37
664.442	28.46
664.63	28.72
664.817	29.1
665.005	29.05
665.192	28.68
665.38	29.39
665.567	29.53
665.755	29.64
665.942	29.14
666.13	29.19
666.317	29.37
666.504	29.77
666.692	29.66
666.879	29.15
667.067	29.4
667.254	29.76
667.441	29.44
667.629	29.75
667.816	29.65
668.003	29.91
668.19	29.67
668.378	29.46
668.565	29.05
668.752	29.07
668.939	29.71
669.127	29.26
669.314	29.06
669.501	28.92
669.688	28.58
669.875	28.63
670.062	28.61
670.249	28.86
670.436	28.9
670.623	28.47
670.81	28.49
670.997	28.12
671.184	28.32
671.371	28.36
671.558	28.57
671.745	28.75
671.932	28.89
672.119	28.82
672.306	29.18
672.493	28.58
672.68	29.28
672.867	29.47
673.054	29.5
673.24	29.24
673.427	29.17
673.614	28.82
673.801	28.82
673.988	29.03
674.174	29.03
674.361	28.54
674.548	28.96
674.734	29.32
674.921	29.51
675.108	29.2
675.294	29.5
675.481	29.91
675.668	30.78
675.854	30.28
676.041	29.9
676.227	29.7
676.414	29.43
676.601	29.31
676.787	28.8
676.974	28.51
677.16	28.36
677.347	28.28
677.533	28.33
677.719	28.11
677.906	28.63
678.092	28.5
678.279	28.82
678.465	29.13
678.651	29.44
678.838	29.45
679.024	29.24
679.21	29.94
679.397	30.05
679.583	29.87
679.769	29.73
679.955	29.48
680.142	29.84
680.328	29.67
680.514	29.41
680.7	29.63
680.886	29.97
681.073	30.14
681.259	29.92
681.445	30.13
681.631	30.19
681.817	30.22
682.003	30.53
682.189	30.77
682.375	31.38
682.561	31.56
682.747	31.6
682.933	31.26
683.119	31.07
683.305	30.58
683.491	30.35
683.677	30.57
683.863	30.94
684.049	31.01
684.235	30.21
684.42	30
684.606	30.09
684.792	29.66
684.978	29.59
685.164	29.62
685.349	30.43
685.535	30.11
685.721	29.59
685.907	29.48
686.092	29.47
686.278	29.81
686.464	29.4
686.649	29.35
686.835	29.09
687.021	29.53
687.206	29.52
687.392	29.05
687.577	29.74
687.763	29.66
687.948	29.15
688.134	28.9
688.319	28.52
688.505	28.55
688.69	28.71
688.876	28.86
689.061	28.69
689.247	29.19
689.432	29.31
689.618	29.12
689.803	29.21
689.988	29.34
690.174	29.68
690.359	30.3
690.544	30.41
690.73	30.41
690.915	30.83
691.1	30.73
691.285	30.3
691.471	30.94
691.656	31.35
691.841	31.57
692.026	32
692.211	31.62
692.396	31.28
692.582	31.44
692.767	30.83
692.952	30.49
693.137	30.82
693.322	30.9
693.507	30.53
693.692	29.78
693.877	30
694.062	29.24
694.247	29.38
694.432	29.6
694.617	29.95
694.802	30.91
694.987	30.66
695.172	30.55
695.357	30.14
695.541	29.76
695.726	29.73
695.911	29.33
696.096	30.5
696.281	30.39
696.466	30.35
696.65	30.02
696.835	29.87
697.02	29.94
697.204	30.02
697.389	30.6
697.574	30.85
697.759	31.33
697.943	31.39
698.128	30.84
698.312	30.95
698.497	31
698.682	30.66
698.866	30.67
699.051	30.49
699.235	30.22
699.42	30.28
699.604	30.04
699.789	29.61
699.973	29.44
700.158	29.65
700.342	29.85
700.527	29.89
700.711	29.71
700.895	29.92
701.08	30.09
701.264	30.27
701.448	29.84
701.633	30.14
701.817	30.64
702.001	31.08
702.186	30.77
702.37	30.37
702.554	30.39
702.738	31.28
702.923	30.56
703.107	31
703.291	30.63
703.475	31.21
703.659	31.07
703.843	30.75
704.027	30.41
704.212	30.34
704.396	29.97
704.58	29.59
704.764	29.12
704.948	30.22
705.132	30.01
705.316	30.85
705.5	30.35
705.684	30.59
705.868	30.25
706.052	30.34
706.235	30.25
706.419	30.98
706.603	31.47
706.787	31.69
706.971	31.02
707.155	31.6
707.339	31.16
707.522	31.51
707.706	30.75
707.89	30.94
708.074	30.66
708.257	30.83
708.441	30.61
708.625	29.97
708.808	30.07
708.992	30.36
709.176	29.88
709.359	30.45
709.543	30.34
709.727	30.79
709.91	31.04
710.094	31.88
710.277	31.85
710.461	31.96
710.644	32.15
710.828	31.64
711.011	31.58
711.195	31.36
711.378	30.21
711.562	30.08
711.745	30.23
711.928	30.04
712.112	30.11
712.295	30.31
712.478	30.04
712.662	30.35
712.845	31.06
713.028	30.61
713.212	30.09
713.395	30.84
713.578	31.22
713.761	30.68
713.945	30.97
714.128	30.86
714.311	30.69
714.494	30.72
714.677	30.66
714.86	29.84
715.043	30.75
715.227	31.02
715.41	30.94
715.593	30.66
715.776	31
715.959	30.11
716.142	29.98
716.325	30.02
716.508	30.36
716.691	30.75
716.874	30.87
717.057	29.82
717.239	30.28
717.422	30.63
717.605	30.63
717.788	31.2
717.971	32.63
718.154	32.83
718.337	33.28
718.519	32.73
718.702	31.95
718.885	32.46
719.068	32.29
719.25	32.42
719.433	32.22
719.616	32.72
719.798	32.25
719.981	32.08
720.164	31.57
720.346	30.87
720.529	30.82
720.712	31.09
720.894	31.51
721.077	32.45
721.259	32.49
721.442	31.61
721.624	30.38
721.807	30.96
721.989	29.95
722.172	29.85
722.354	29.35
722.537	30.3
722.719	30.31
722.901	29.54
723.084	28.75
723.266	28.86
723.448	29.61
723.631	30.51
723.813	29.32
723.995	29.85
724.178	30.02
724.36	30.98
724.542	30.32
724.724	30.09
724.907	30.2
725.089	30.38
725.271	29.64
725.453	29.79
725.635	29.97
725.817	31.83
725.999	31.67
726.181	31.18
726.364	30.87
726.546	30.82
726.728	30.24
726.91	31.18
727.092	31.64
727.274	31.63
727.456	31.47
727.638	31.21
727.819	30.33
728.001	30.78
728.183	31.27
728.365	31.15
728.547	31.44
728.729	31.66
728.911	30.52
729.093	30.46
729.274	30.44
729.456	30.43
729.638	30.26
729.82	30.24
730.001	28.58
730.183	28.9
730.365	29.23
730.546	29.46
730.728	29.48
730.91	30.02
731.091	30.37
731.273	29.91
731.455	28.85
731.636	28.59
731.818	28.61
731.999	28.93
732.181	29.1
732.362	29.4
732.544	29.12
732.725	30.07
732.907	30.04
733.088	30.01
733.27	30.63
733.451	31.33
733.633	31.76
733.814	32
733.995	33.23
734.177	33.15
734.358	32.87
734.539	32.78
734.721	33.02
734.902	33.3
735.083	32.52
735.264	33.35
735.446	33.83
735.627	33.38
735.808	32.89
735.989	32.86
736.17	32.85
736.351	32.68
736.533	32.99
736.714	32.12
736.895	32.35
737.076	33.26
737.257	32.23
737.438	32.07
737.619	32.28
737.8	32.21
737.981	32.17
738.162	31.3
738.343	31.24
738.524	30.5
738.705	30.48
738.886	29.57
739.067	28.51
739.247	28.97
739.428	28.31
739.609	28.82
739.79	27.87
739.971	26.92
740.151	27.03
740.332	26.63
740.513	27.13
740.694	26.5
740.874	26.35
741.055	26.77
741.236	26.41
741.417	27.51
741.597	27.92
741.778	28.98
741.958	30.33
742.139	30.35
742.32	30.28
742.5	30.95
742.681	31.6
742.861	31.99
743.042	33.41
743.222	34.11
743.403	34.23
743.583	33.94
743.764	33.35
743.944	32.68
744.124	32.31
744.305	32.96
744.485	32.49
744.666	31.46
744.846	31.65
745.026	30.14
745.207	29.38
745.387	28.95
745.567	28.08
745.747	28.15
745.928	29.17
746.108	29.23
746.288	28.26
746.468	28.34
746.648	30.41
746.829	30.84
747.009	31.73
747.189	32.83
747.369	33.08
747.549	33.91
747.729	34.42
747.909	33.68
748.089	35.63
748.269	36.27
748.449	36.51
748.629	36.35
748.809	36.1
748.989	34.85
749.169	35
749.349	34.54
749.529	34.33
749.709	34.6
749.889	34.32
750.068	33.52
750.248	33.9
750.428	33.68
750.608	32.5
750.788	32.52
750.967	33.53
751.147	32.26
751.327	32.24
751.507	32.08
751.686	32.35
751.866	32.92
752.046	32.86
752.225	33.16
752.405	32.22
752.585	32.84
752.764	32.78
752.944	32.97
753.123	33
753.303	32.72
753.482	31.21
753.662	31.61
753.841	31.95
754.021	32.11
754.2	32.54
754.38	32.8
754.559	33.07
754.739	33.24
754.918	32.24
755.097	32.93
755.277	32.7
755.456	34.7
755.635	34.24
755.815	33.46
755.994	33.28
756.173	32.99
756.352	33.34
756.532	32.59
756.711	31.89
756.89	32.04
757.069	32.07
757.248	32.38
757.427	31.97
757.607	31.05
757.786	32.01
757.965	31.6
758.144	30.69
758.323	31.86
758.502	32.56
758.681	32.96
758.86	33.92
759.039	34.66
759.218	35.54
759.397	35.68
759.576	35.73
759.755	34.93
759.934	36.16
760.113	36.5
760.291	35.69
760.47	36.45
760.649	36.58
760.828	35.31
761.007	34.32
761.186	33.55
761.364	33.29
761.543	32.81
761.722	32.74
761.901	30.94
762.079	31.17
762.258	31.14
762.437	30.75
762.615	31.29
762.794	32.2
762.972	31.56
763.151	31.15
763.33	31.25
763.508	31.98
763.687	32.16
763.865	33
764.044	32.63
764.222	32.63
764.401	31.8
764.579	31.04
764.758	31.28
764.936	31.32
765.114	31.67
765.293	31.47
765.471	31.76
765.65	31.31
765.828	31.11
766.006	31.12
766.184	30.35
766.363	31.04
766.541	31.65
766.719	30.13
766.898	30.32
767.076	32.17
767.254	31.77
767.432	30.65
767.61	32.1
767.788	31.84
767.967	31.62
768.145	32.2
768.323	33.43
768.501	33.65
768.679	35.9
768.857	36.74
769.035	35.22
769.213	35.97
769.391	36.07
769.569	35.1
769.747	34.6
769.925	35.61
770.103	33.32
770.281	31.83
770.459	30.88
770.636	28.84
770.814	27.97
770.992	26.84
771.17	27.18
771.348	29.91
771.525	30.34
771.703	31.25
771.881	30.53
772.059	33.62
772.236	34.05
772.414	35.57
772.592	36.69
772.769	37.13
772.947	37.37
773.125	36.06
773.302	34.05
773.48	31.65
773.657	31.12
773.835	31.92
774.013	31.51
774.19	30.24
774.368	28.86
774.545	28.6
774.723	30.26
774.9	29.34
775.077	31.09
775.255	31.68
775.432	32.24
775.61	33.96
775.787	33.42
775.964	33.01
776.142	34.45
776.319	34.3
776.496	34.89
776.674	33.54
776.851	35.09
777.028	34.57
777.205	34.7
777.382	36.32
777.56	33.46
777.737	31.09
777.914	31.21
778.091	30.38
778.268	29.25
778.445	28.7
778.622	28.96
778.8	28.45
778.977	29.03
779.154	35.41
779.331	34.42
779.508	35.81
779.685	37.27
779.862	37.73
780.038	38.73
780.215	38.55
780.392	39.92
780.569	39.77
780.746	40.3
780.923	39.87
781.1	31.36
781.277	33.35
781.453	33.72
781.63	32.47
781.807	32.09
781.984	30.09
782.16	32.44
782.337	29.93
782.514	30.42
782.691	30.49
782.867	29.55
783.044	28.32
783.221	27.05
783.397	26.08
783.574	28.49
783.75	29.03
783.927	28.3
784.103	26.99
784.28	27.78
784.456	27.6
784.633	28.9
784.809	29.7
784.986	33.99
785.162	32.83
785.339	33.42
785.515	31.66
785.692	31.03
785.868	32.16
786.044	32.45
786.221	30.79
786.397	28.27
786.573	26.43
786.749	27.04
786.926	25.77
787.102	25.53
787.278	26.99
787.454	28.89
787.631	31.5
787.807	33.79
787.983	33.63
788.159	35.83
788.335	37.49
788.511	39.31
788.687	38.66
788.863	36.13
789.039	36.56
789.216	36.1
789.392	35.25
789.568	30.09
789.744	26.69
789.919	24.56
790.095	22.76
790.271	24.12
790.447	22.95
790.623	22.41
790.799	25.59
790.975	26.62
791.151	25.12
791.327	27.03
791.502	31.39
791.678	36.04
791.854	37.46
792.03	38.91
792.205	38.46
792.381	37.47
792.557	37.79
792.733	35.85
792.908	35.62
793.084	34.65
793.259	32.67
793.435	30.18
793.611	27.23
793.786	28.41
793.962	28.58
794.137	26.97
794.313	26.27
794.488	28.97
794.664	30.92
794.839	30.19
795.015	29.86
795.19	29.89
795.366	33.87
795.541	33.43
795.716	33.1
795.892	31.76
796.067	32.27
796.242	32.53
796.418	31.47
796.593	29.81
796.768	30.38
796.944	31.62
797.119	32.7
797.294	28.87
797.469	30.85
797.644	31.49
797.82	32.89
797.995	33.23
798.17	33.79
798.345	33.15
798.52	32.22
798.695	33.24
798.87	34.56
799.045	33.54
799.22	35.54
799.395	33.76
799.57	33.53
799.745	31.83
799.92	33.65
800.095	32.83
800.27	31.81
800.445	33.9
800.62	31.9
800.795	29.02
800.97	30.93
801.145	28.46
801.319	29.23
801.494	26.64
801.669	28.31
801.844	29.11
802.018	27.1
802.193	28.11
802.368	27.4
802.543	28.09
802.717	28.51
802.892	24.63
803.067	27.29
803.241	25.61
803.416	27.39
803.59	26.12
803.765	22.26
803.94	24.51
804.114	25.02
804.289	24.99
804.463	27.06
804.638	27.63
804.812	29.27
804.986	29.59
805.161	31.11
805.335	30.23
805.51	30.6
805.684	27.41
805.858	28.05
806.033	27
806.207	25.53
806.381	21.02
806.556	20.74
806.73	19.88
806.904	18.23
807.078	18.01
807.253	21.95
807.427	21.54
807.601	24.34
807.775	23.96
807.949	25.34
808.123	25.16
808.298	24.92
808.472	28.85
808.646	31.06
808.82	30.83
808.994	30.96
809.168	28.52
809.342	32.26
809.516	33.7
809.69	30.5
809.864	29.14
810.038	31.02
810.212	37.33
810.385	35.03
810.559	32.53
810.733	30.75
810.907	28.98
811.081	30
811.255	25.89
811.428	26.53
811.602	31.91
811.776	33.6
811.95	31.94
812.123	28.39
812.297	29.31
812.471	28.44
812.644	32.28
812.818	32.78
812.992	31.65
813.165	35.62
813.339	39.33
813.512	38.2
813.686	37.36
813.86	36.99
814.033	40.49
814.207	42.29
814.38	45.57
814.554	45.85
814.727	46.23
814.9	45.15
815.074	42.02
815.247	37.13
815.421	36.61
815.594	36.36
815.767	34.62
815.941	30.25
816.114	26.93
816.287	21.28
816.46	17.33
816.634	21.12
816.807	22.69
816.98	24.9
817.153	26.92
817.327	26.65
817.5	24.58
817.673	28.98
817.846	27.75
818.019	30.05
818.192	36.22
818.365	37.39
818.538	38.94
818.711	38.46
818.884	36.78
819.057	32.93
819.23	31.58
819.403	31.36
819.576	31.1
819.749	32.77
819.922	30.01
820.095	28.01
820.268	28.78
820.441	27.09
820.614	27.3
820.786	29.02
820.959	32.08
821.132	33.62
821.305	32.63
821.477	31.28
821.65	30.61
821.823	31.9
821.996	32.87
822.168	32.93
822.341	32.83
822.514	33.33
822.686	31.81
822.859	31.05
823.031	30.99
823.204	31.29
823.376	31.62
823.549	31.92
823.722	31.33
823.894	30.84
824.067	30.07
824.239	29.85
824.411	29.19
824.584	30.33
824.756	31.03
824.929	30.6
825.101	31.07
825.273	31.16
825.446	30.62
825.618	31.07
825.79	31.03
825.963	31.17
826.135	31.6
826.307	32.48
826.479	32.9
826.652	32.65
826.824	33.52
826.996	33.31
827.168	33.24
827.34	33.33
827.512	33.93
827.684	34.87
827.856	36.6
828.029	36.87
828.201	37
828.373	35.59
828.545	35.98
828.717	35.65
828.889	36.43
829.061	36.86
829.232	37.32
829.404	35.25
829.576	33.49
829.748	31.39
829.92	30.24
830.092	29.82
830.264	30.61
830.436	29.65
830.607	30.08
830.779	29.29
830.951	29.05
831.123	29.58
831.294	31.42
831.466	31.86
831.638	33.15
831.809	33.42
831.981	31.59
832.153	33.17
832.324	32.96
832.496	33.62
832.667	34.09
832.839	34.69
833.011	36.47
833.182	37.6
833.354	39.61
833.525	37.52
833.697	37.54
833.868	37.29
834.039	33.67
834.211	34.68
834.382	33.24
834.554	33.56
834.725	33.29
834.896	31.66
835.068	32.86
835.239	31.23
835.41	32.72
835.581	33.46
835.753	33.75
835.924	36.59
836.095	38.01
836.266	38.29
836.438	39.12
836.609	37.74
836.78	38.12
836.951	33.82
837.122	33.4
837.293	32.75
837.464	32.15
837.635	33.81
837.806	33.21
837.977	29.09
838.148	30.48
838.319	29.35
838.49	32.62
838.661	35.11
838.832	41.08
839.003	45.71
839.174	45.57
839.345	44.83
839.516	39.77
839.687	39.38
839.857	41.08
840.028	39.85
840.199	36.8
840.37	32.69
840.54	30.41
840.711	27.27
840.882	24.91
841.053	18.55
841.223	12.5
841.394	17.19
841.564	18.26
841.735	19.72
841.906	11.46
842.076	13.64
842.247	19.24
842.417	14.83
842.588	14.35
842.758	14.55
842.929	24.05
843.099	32.17
843.27	33.98
843.44	38.15
843.611	37.74
843.781	39.61
843.951	39.83
844.122	36.67
844.292	37.53
844.462	33.65
844.633	31.38
844.803	27.85
844.973	27.53
845.144	28.44
845.314	24.44
845.484	26.21
845.654	33.91
845.824	30.96
845.995	29.18
846.165	37.03
846.335	52.39
846.505	42.91
846.675	42.84
846.845	46.78
847.015	45.72
847.185	55.63
847.355	52.35
847.525	48.77
847.695	50.93
847.865	53.54
848.035	49.82
848.205	43.19
848.375	47.79
848.545	53.71
848.715	52.46
848.884	48.09
849.054	38.27
849.224	46.24
849.394	41.84
849.564	48.68
849.733	42.6
849.903	46.9
850.073	48.95
850.243	58.11
850.412	57.57
850.582	61.34
850.752	56.4
850.921	54.11
851.091	47.06
851.26	55.42
851.43	37.58
851.599	42.41
851.769	35.57
851.939	35.71
852.108	25.86
852.278	37.88
852.447	30.13
852.616	51.69
852.786	51.09
852.955	47.96
853.125	41.95
853.294	48
853.463	49.46
853.633	47.03
853.802	44.87
853.971	56.2
854.141	50.41
854.31	59.72
854.479	57.68
854.648	55.54
854.818	53.93
854.987	60.02
855.156	55.17
855.325	60.39
855.494	59.14
855.663	56.12
855.832	50.11
856.001	50.09
856.171	56.35
856.34	44.91
856.509	41.6
856.678	44.67
856.847	50.52
857.016	66.37
857.185	71.13
857.353	76.03
857.522	80.09
857.691	76.5
857.86	79.21
858.029	81.44
858.198	81.84
858.367	83.17
858.535	91.54
858.704	84.63
858.873	82.64
859.042	66.43
859.21	52.22
859.379	32.67
859.548	20.45
859.717	11.76
859.885	12.85
860.054	28.43
860.222	44.44
860.391	31.36
860.56	9.47
860.728	7.46
860.897	21.52
861.065	30.25
861.234	50.9
861.402	60.24
861.571	55.46
861.739	53.05
861.908	38.89
862.076	37.22
862.244	56.71
862.413	66.18
862.581	80.18
862.749	79.92
862.918	60.6
863.086	71.3
863.254	80.49
863.423	79.87
863.591	42.6
863.759	37.82
863.927	30.55
864.096	0.89
864.264	-54.7
864.432	-40.26
864.6	-49.95
864.768	-10.91
864.936	-7.17
865.104	-16.61
865.272	-9.8
865.44	-4.11
865.608	5.41
865.776	-0.56
865.944	2.38
866.112	33.93
866.28	28.64
866.448	24.11
866.616	36.18
866.784	42.15
866.952	36.69
867.12	24.63
867.288	23.37
867.455	30.3
867.623	21.8
867.791	17.05
867.959	5.27
868.127	-13.91
868.294	4.68
868.462	1.95
868.63	0.33
868.797	7.71
868.965	22.2
869.133	25.95
869.3	31.07
869.468	51.65
869.636	61.38
869.803	58.76
869.971	58.85
870.138	72.17
870.306	72.1
870.473	77.77
870.641	79.27
870.808	68.48
870.975	70.21
871.143	56.87
871.31	22.03
871.478	17.15
871.645	18.7
871.812	29.43
871.98	17.27
872.147	9.85
872.314	2.4
872.482	9.28
872.649	11.81
872.816	28.48
872.983	43.15
873.15	55.74
873.318	47.94
873.485	48
873.652	42.13
873.819	42.89
873.986	27.05
874.153	40.52
874.32	38.41
874.487	38.52
874.654	38.43
874.821	25.43
874.988	24.32
875.155	40.62
875.322	33.9
875.489	37.61
875.656	47.75
875.823	63.02
875.99	51.03
876.157	53.44
876.324	53.66
876.49	47.5
876.657	49.04
876.824	48.81
876.991	33.39
877.157	46.2
877.324	53.15
877.491	45.4
877.658	48.6
877.824	42.12
877.991	41.01
878.157	25.31
878.324	16.67
878.491	13.81
878.657	24.22
878.824	34.6
878.99	17.03
879.157	-9.47
879.323	2.45
879.49	13.31
879.656	20.79
879.823	21.54
879.989	27.64
880.156	26.01
880.322	37.83
880.488	26.37
880.655	30.69
880.821	36.34
880.987	43.26
881.154	43.44
881.32	44.28
881.486	43.93
881.652	43.37
881.819	42.28
881.985	38.78
882.151	37.15
882.317	37.99
882.483	37.4
882.649	33.87
882.816	30.57
882.982	29.86
883.148	27.92
883.314	27.36
883.48	27.68
883.646	29.44
883.812	30.94
883.978	30.85
884.144	31.75
884.31	30.87
884.476	31.6
884.642	33.85
884.807	35.02
884.973	33.44
885.139	33.2
885.305	32.69
885.471	32.07
885.637	32.34
885.802	29.07
885.968	28.85
886.134	28.77
886.3	28.8
886.465	26.74
886.631	25.58
886.797	28.46
886.962	26.66
887.128	28.29
887.293	27.63
887.459	29.43
887.625	34.02
887.79	31.62
887.956	34
888.121	32.81
888.287	33.62
888.452	33.98
888.618	29.52
888.783	37.59
