Data from CB_047_Reflection_2.txt Node
Date: Wed Nov 11 22:26:13 EST 2015
User: robert
Spectrometer: USB4E03001
Autoset integration time: false
Trigger mode: 4
Integration Time (sec): 1.000000E-1
Scans to average: 15
Electric dark correction enabled: true
Nonlinearity correction enabled: false
Boxcar width: 5
Stray light correction enabled: false
XAxis mode: Wavelengths
Stop averaging: false
Number of Pixels in Spectrum: 3648
>>>>>Begin Spectral Data<<<<<
177.566	-68.07
177.785	-894.74
178.005	50.61
178.225	4.78
178.445	43.13
178.665	34.46
178.885	114.99
179.105	49.38
179.324	43.56
179.544	7.5
179.764	5.78
179.984	11.26
180.204	0.1
180.423	-17.92
180.643	15.19
180.863	39.12
181.083	44.3
181.302	42.26
181.522	35.08
181.742	46.78
181.961	83.03
182.181	85.9
182.401	81.36
182.621	80.23
182.84	78.77
183.06	80.61
183.279	72.84
183.499	67.95
183.719	73.87
183.938	80.96
184.158	90.89
184.377	54.56
184.597	42.81
184.816	32.42
185.036	58.44
185.256	69.99
185.475	66.29
185.695	20.15
185.914	21.16
186.134	69.45
186.353	40.37
186.572	11.46
186.792	13.39
187.011	14.8
187.231	29.06
187.45	36.47
187.67	-3.97
187.889	-0.4
188.108	25.24
188.328	32.73
188.547	10.16
188.766	12.77
188.986	15.15
189.205	0.73
189.424	3.24
189.644	-28.65
189.863	-16.77
190.082	22.35
190.302	2.62
190.521	17.37
190.74	-14.4
190.959	9.69
191.178	21.37
191.398	14.75
191.617	31.41
191.836	34.68
192.055	27.34
192.274	13.87
192.494	-14.46
192.713	-1.51
192.932	8.29
193.151	17.65
193.37	3.26
193.589	16.35
193.808	36.22
194.027	40.36
194.246	47.21
194.465	59.49
194.685	68.9
194.904	59.97
195.123	61.4
195.342	47.89
195.561	68.42
195.78	68.06
195.999	78.62
196.218	50.1
196.436	44.63
196.655	43.21
196.874	54.23
197.093	53.28
197.312	78.97
197.531	69.01
197.75	56.3
197.969	42.83
198.188	26.16
198.407	-2.42
198.625	2
198.844	10.94
199.063	-5.97
199.282	-21.07
199.501	-38.81
199.719	-105.11
199.938	-51.11
200.157	-102.25
200.376	-33.68
200.594	5.8
200.813	57.49
201.032	73.92
201.251	53.54
201.469	96.2
201.688	104.5
201.907	80.77
202.125	65.64
202.344	54.97
202.563	68.46
202.781	50.4
203	44.18
203.218	30.69
203.437	34.82
203.656	37.37
203.874	26.62
204.093	23.09
204.311	23.63
204.53	7.04
204.748	15.94
204.967	20.69
205.185	34.72
205.404	34.54
205.622	46.58
205.841	54.15
206.059	47.18
206.278	76.21
206.496	94.76
206.715	98.44
206.933	96.69
207.151	93.24
207.37	87.74
207.588	80.57
207.806	74.32
208.025	69.92
208.243	64.02
208.461	76.4
208.68	69.95
208.898	54.56
209.116	35.39
209.335	39.81
209.553	27.69
209.771	33.16
209.989	49.83
210.208	63.14
210.426	60.66
210.644	80.76
210.862	75.24
211.081	84.17
211.299	100.97
211.517	129.78
211.735	123.44
211.953	151.28
212.171	142.47
212.39	125.42
212.608	126.98
212.826	120.55
213.044	106.19
213.262	91.32
213.48	97.16
213.698	93.23
213.916	99.96
214.134	85.7
214.352	62.25
214.57	50.55
214.788	78.89
215.006	49.32
215.224	51.22
215.442	1.77
215.66	5.03
215.878	-10.8
216.096	5.64
216.314	-2.53
216.532	6.24
216.75	12.47
216.968	21.99
217.185	4.95
217.403	17.6
217.621	15.75
217.839	23.48
218.057	29.56
218.275	48.13
218.492	42.23
218.71	40.52
218.928	39.27
219.146	37.9
219.363	35.06
219.581	60.91
219.799	59.92
220.017	59.65
220.234	68.69
220.452	63.41
220.67	49.82
220.887	55.07
221.105	57.37
221.323	50.59
221.54	51.99
221.758	58.88
221.976	37.53
222.193	32.29
222.411	26.93
222.629	34.02
222.846	24.17
223.064	2.65
223.281	13.33
223.499	19.19
223.716	19.87
223.934	34.38
224.151	28.46
224.369	24.73
224.586	17.78
224.804	26.54
225.021	15.97
225.239	31.63
225.456	45.44
225.674	38.64
225.891	40.51
226.108	45.28
226.326	21.41
226.543	4.88
226.76	12.4
226.978	3.07
227.195	-2.94
227.413	1.12
227.63	8.76
227.847	8.98
228.064	9.64
228.282	7.98
228.499	7.97
228.716	11.99
228.934	16.18
229.151	13.95
229.368	18.12
229.585	18.55
229.802	18.18
230.02	13.52
230.237	10.02
230.454	9.73
230.671	7.84
230.888	7.77
231.105	6.76
231.323	7.61
231.54	10.94
231.757	6.6
231.974	8.02
232.191	8.77
232.408	9.3
232.625	11.91
232.842	10.32
233.059	11.43
233.276	9.89
233.493	6.37
233.71	2.93
233.927	-1.23
234.144	0.77
234.361	-1.27
234.578	-0.01
234.795	1.22
235.012	4.15
235.229	6.22
235.446	8.4
235.663	9.49
235.879	14.94
236.096	13.61
236.313	14.39
236.53	17.1
236.747	20.41
236.964	19.11
237.181	20.66
237.397	16.27
237.614	17.48
237.831	11.76
238.048	12.04
238.264	7.38
238.481	7.78
238.698	6.27
238.915	9.14
239.131	7.38
239.348	9.1
239.565	4.59
239.781	7.85
239.998	10.13
240.215	15.67
240.431	16
240.648	16.7
240.865	18.11
241.081	19.92
241.298	17.16
241.514	15.52
241.731	15.61
241.947	16.29
242.164	16.1
242.38	13.6
242.597	11.6
242.814	10.7
243.03	12.06
243.246	12.04
243.463	11.43
243.679	11.46
243.896	15.44
244.112	14.72
244.329	17.37
244.545	15.56
244.762	16.36
244.978	18.17
245.194	17.63
245.411	16.27
245.627	18.33
245.843	18.76
246.06	18.78
246.276	15.31
246.492	13.92
246.709	11.95
246.925	13.4
247.141	13.12
247.357	12.19
247.574	12.14
247.79	12.58
248.006	12.38
248.222	11.71
248.439	11.83
248.655	12.63
248.871	12.47
249.087	12.92
249.303	12.15
249.519	12.39
249.736	12.11
249.952	12.84
250.168	12.67
250.384	10.83
250.6	12.14
250.816	8.29
251.032	6.51
251.248	9.65
251.464	10.95
251.68	12.41
251.896	12.97
252.112	13.2
252.328	11.61
252.544	11.17
252.76	12.01
252.976	10.74
253.192	13.08
253.408	14.01
253.624	14.15
253.84	12.02
254.056	11.08
254.272	11.99
254.487	12.81
254.703	16.17
254.919	16.54
255.135	16.07
255.351	19.17
255.567	19.28
255.782	20.16
255.998	19.56
256.214	19.87
256.43	21.78
256.646	20.24
256.861	17.62
257.077	15.62
257.293	12.98
257.508	12.31
257.724	11.06
257.94	9.18
258.155	7.45
258.371	7.13
258.587	8.9
258.802	7.88
259.018	9.23
259.234	8.7
259.449	9.47
259.665	10.38
259.88	9.98
260.096	9.48
260.312	9.68
260.527	10.68
260.743	10.65
260.958	10.03
261.174	10.16
261.389	9.27
261.605	11.31
261.82	10.82
262.036	11.32
262.251	12.59
262.466	13.97
262.682	13.72
262.897	13.35
263.113	11.88
263.328	9.99
263.543	9.7
263.759	7.67
263.974	5.29
264.189	5.1
264.405	3.62
264.62	1.8
264.835	1.61
265.051	3.68
265.266	2.35
265.481	4.45
265.696	6.98
265.912	6.68
266.127	9.92
266.342	9.95
266.557	9.86
266.773	8.69
266.988	9.1
267.203	7.19
267.418	7.12
267.633	8.21
267.848	9.54
268.064	8.45
268.279	9.64
268.494	7.85
268.709	9.74
268.924	11.83
269.139	12.7
269.354	13.42
269.569	13.65
269.784	13.65
269.999	11.82
270.214	9.86
270.429	11.14
270.644	9.77
270.859	11.07
271.074	9.83
271.289	9.12
271.504	10.46
271.719	9.76
271.934	9.99
272.149	10.66
272.363	11.59
272.578	12.49
272.793	13.24
273.008	12.91
273.223	12.2
273.438	11.77
273.653	12.2
273.867	11.36
274.082	11.97
274.297	12.48
274.512	11.85
274.726	11.94
274.941	11.96
275.156	12.07
275.371	12.02
275.585	11.35
275.8	12.8
276.015	11.79
276.229	11.45
276.444	10.97
276.659	11.91
276.873	11.79
277.088	13.39
277.302	12.69
277.517	12.24
277.732	13.44
277.946	14.74
278.161	14.86
278.375	13.73
278.59	13.99
278.804	13.56
279.019	13.01
279.233	12.88
279.448	10.85
279.662	11.12
279.877	10.49
280.091	9.95
280.306	10.4
280.52	7.73
280.735	9.32
280.949	8.45
281.163	8.75
281.378	6.71
281.592	6.22
281.806	7.41
282.021	6.88
282.235	6.5
282.449	6.74
282.664	6.04
282.878	6.11
283.092	5.31
283.307	6.62
283.521	6.52
283.735	8.07
283.949	8.84
284.164	7.77
284.378	8.3
284.592	8.78
284.806	8.56
285.02	8.9
285.234	10.37
285.449	10.31
285.663	9.67
285.877	10.04
286.091	9.7
286.305	8.82
286.519	9.05
286.733	8.6
286.947	8.77
287.161	8.73
287.375	9.39
287.589	9.12
287.803	10.02
288.017	9.34
288.231	10.01
288.445	11.24
288.659	11.07
288.873	11.71
289.087	12.65
289.301	12.23
289.515	13.22
289.729	12.23
289.943	12.54
290.157	11.89
290.371	11.65
290.584	11.55
290.798	11.52
291.012	12.8
291.226	13.15
291.44	13.49
291.654	13.82
291.867	13.08
292.081	13.17
292.295	13.28
292.509	12.7
292.722	14.64
292.936	13.43
293.15	12.43
293.364	12.72
293.577	11.73
293.791	11.05
294.005	9.48
294.218	11.83
294.432	12.87
294.645	12.31
294.859	11.3
295.073	9.59
295.286	10.15
295.5	10.18
295.713	9.01
295.927	8.38
296.14	8.64
296.354	10.16
296.568	8.18
296.781	7.85
296.994	8.1
297.208	10.08
297.421	10.85
297.635	10.84
297.848	11.22
298.062	11.96
298.275	13.18
298.489	12.97
298.702	13.15
298.915	13.63
299.129	14.23
299.342	15.01
299.555	14.09
299.769	14.71
299.982	14.62
300.195	14.31
300.409	13.01
300.622	12.62
300.835	12.3
301.048	10.85
301.262	10.14
301.475	9.5
301.688	8.41
301.901	8.91
302.115	7.99
302.328	8.37
302.541	7.94
302.754	9.46
302.967	9.62
303.18	11.75
303.393	12.21
303.607	12.83
303.82	12
304.033	11.43
304.246	11.14
304.459	12.07
304.672	12.25
304.885	14.08
305.098	13.75
305.311	13.77
305.524	12.01
305.737	12.38
305.95	12.26
306.163	13.02
306.376	13.76
306.589	14.06
306.802	14.14
307.015	14.77
307.228	13.71
307.44	14.76
307.653	14.22
307.866	14.57
308.079	14.31
308.292	14.08
308.505	14.01
308.718	14.68
308.93	15.38
309.143	14.71
309.356	13.02
309.569	13.18
309.781	12.84
309.994	12.48
310.207	12.05
310.42	11.23
310.632	12.75
310.845	12.73
311.058	11.75
311.27	11.17
311.483	10.84
311.696	11.54
311.908	11.66
312.121	11.03
312.333	11.26
312.546	11.01
312.759	11.9
312.971	9.91
313.184	9.33
313.396	9.47
313.609	10.1
313.821	10.55
314.034	11.21
314.246	10.93
314.459	11.73
314.671	11.6
314.884	12.48
315.096	12.53
315.309	12.28
315.521	12.01
315.733	11.87
315.946	10.41
316.158	9.47
316.371	7.53
316.583	7.31
316.795	6.13
317.008	7.15
317.22	8.15
317.432	9.1
317.644	10.62
317.857	11.91
318.069	12.26
318.281	11.85
318.494	13.84
318.706	16.78
318.918	17.09
319.13	19.18
319.342	17.9
319.555	16.09
319.767	14.81
319.979	15.17
320.191	15.35
320.403	17.24
320.615	17.88
320.827	17.86
321.039	15.84
321.252	15.82
321.464	14.4
321.676	15.41
321.888	16.56
322.1	17.3
322.312	16.83
322.524	17.26
322.736	15.74
322.948	16.99
323.16	15.78
323.372	15.47
323.584	16.3
323.796	16.28
324.007	15.86
324.219	16.92
324.431	16.64
324.643	16.98
324.855	17.04
325.067	17.38
325.279	17.42
325.491	18.19
325.702	18.8
325.914	18.13
326.126	17.76
326.338	16.61
326.55	15.76
326.761	16.54
326.973	16.47
327.185	15.93
327.396	16.58
327.608	16.23
327.82	16.55
328.032	17.19
328.243	17.97
328.455	19.34
328.666	20.76
328.878	20.25
329.09	20.17
329.301	19.45
329.513	18.64
329.725	17.04
329.936	17.84
330.148	17.56
330.359	17.14
330.571	16.53
330.782	15.95
330.994	16.81
331.205	17.89
331.417	18.16
331.628	17.96
331.84	18.35
332.051	18.72
332.262	17.61
332.474	17.85
332.685	18.03
332.897	17.69
333.108	17.61
333.319	17.29
333.531	16.99
333.742	16.94
333.953	17.06
334.165	17.2
334.376	18.71
334.587	19.47
334.799	19.33
335.01	18.95
335.221	18.64
335.432	18.98
335.644	19.41
335.855	19.96
336.066	19.84
336.277	20.8
336.488	20.8
336.7	19
336.911	18.87
337.122	19.33
337.333	19.91
337.544	21.2
337.755	21.17
337.966	20.93
338.177	20.61
338.388	21.11
338.599	21.01
338.811	20.18
339.022	21.34
339.233	21.13
339.444	20.78
339.655	20.54
339.866	19.72
340.076	19.45
340.287	19.65
340.498	19.3
340.709	19.38
340.92	18.88
341.131	19.99
341.342	19.37
341.553	19.6
341.764	18.74
341.975	19.15
342.185	17.92
342.396	17.65
342.607	17.32
342.818	17
343.029	16.45
343.239	17.39
343.45	17.14
343.661	17.7
343.872	17
344.082	17.41
344.293	16.37
344.504	16.81
344.714	17.1
344.925	16.71
345.136	16.68
345.346	16.59
345.557	15.12
345.768	14.38
345.978	14.34
346.189	14.83
346.399	14.72
346.61	15.41
346.821	16.52
347.031	16.58
347.242	16.97
347.452	17.93
347.663	18.41
347.873	19.65
348.084	21.07
348.294	20.65
348.504	20.92
348.715	20.76
348.925	20.82
349.136	20.28
349.346	19.29
349.557	18.98
349.767	17.88
349.977	17.46
350.188	16.95
350.398	15.93
350.608	16.02
350.819	15.89
351.029	16.28
351.239	14.93
351.449	15.28
351.66	14.69
351.87	15.55
352.08	15.93
352.29	15.95
352.501	16.58
352.711	17.01
352.921	16.33
353.131	15.85
353.341	15.85
353.552	16.43
353.762	15.62
353.972	17.24
354.182	16.44
354.392	16.65
354.602	15.81
354.812	14.58
355.022	14.4
355.232	15
355.442	14.92
355.652	14.45
355.862	14.94
356.072	15.32
356.282	15.02
356.492	15.36
356.702	15.24
356.912	15.7
357.122	15.94
357.332	16.38
357.542	16.93
357.752	16.89
357.962	17.21
358.171	16.83
358.381	16.79
358.591	16.26
358.801	15.96
359.011	15.27
359.221	15.57
359.43	16.08
359.64	15.3
359.85	14.77
360.06	14.86
360.269	14.8
360.479	15.48
360.689	15.14
360.899	15.31
361.108	15.56
361.318	16.32
361.528	16.2
361.737	15.74
361.947	15.87
362.156	15.68
362.366	15.7
362.576	15.7
362.785	15.36
362.995	15.97
363.204	16.42
363.414	16.51
363.623	16.35
363.833	16.36
364.042	16.74
364.252	17.59
364.461	17.64
364.671	17.89
364.88	17.5
365.09	17.12
365.299	16.61
365.509	16.21
365.718	15.87
365.927	15.72
366.137	15.37
366.346	15.11
366.555	14.54
366.765	14.56
366.974	14.4
367.183	14.81
367.393	14.86
367.602	14.96
367.811	14.71
368.021	14.96
368.23	15.06
368.439	15.6
368.648	15.51
368.857	15.26
369.067	14.51
369.276	14.45
369.485	14.62
369.694	15.09
369.903	14.61
370.112	14.32
370.321	13.89
370.531	13.79
370.74	13.33
370.949	13.09
371.158	12.41
371.367	12.86
371.576	12.75
371.785	12.27
371.994	12.07
372.203	11.89
372.412	12.46
372.621	12.46
372.83	11.8
373.039	11.68
373.248	11.87
373.457	12.52
373.666	12.5
373.874	12.44
374.083	11.84
374.292	10.62
374.501	11.09
374.71	10.27
374.919	10.68
375.128	11.37
375.336	11.77
375.545	11.69
375.754	11.61
375.963	11.44
376.171	11.35
376.38	11.27
376.589	12.02
376.798	11.8
377.006	12.02
377.215	11.78
377.424	11.62
377.632	10.68
377.841	10.55
378.05	10.55
378.258	10.82
378.467	10.53
378.675	11.19
378.884	11.18
379.093	10.88
379.301	10.94
379.51	10.53
379.718	10.31
379.927	10.45
380.135	10.17
380.344	10.05
380.552	9.53
380.761	9.31
380.969	8.71
381.177	8.46
381.386	8.71
381.594	8.47
381.803	8.4
382.011	8.14
382.219	8.29
382.428	8.7
382.636	8.42
382.845	8.95
383.053	9.33
383.261	9.25
383.469	9.47
383.678	8.96
383.886	8.58
384.094	8.48
384.302	9.06
384.511	9.23
384.719	8.99
384.927	8.97
385.135	8.81
385.343	8.68
385.552	9.26
385.76	9.2
385.968	9.31
386.176	9.97
386.384	9.94
386.592	9.64
386.8	9.32
387.008	9.51
387.216	9.58
387.424	9.45
387.633	8.98
387.841	8.49
388.049	8.03
388.257	8.06
388.465	7.85
388.672	7.82
388.88	7.36
389.088	7.29
389.296	7.05
389.504	6.84
389.712	6.71
389.92	7.09
390.128	7
390.336	7.3
390.544	7.42
390.751	7.32
390.959	7.23
391.167	7.68
391.375	7.8
391.583	8.13
391.79	8.14
391.998	8
392.206	8.06
392.414	8.03
392.621	7.53
392.829	7.47
393.037	7.4
393.244	7.56
393.452	7.41
393.66	7.34
393.867	7.06
394.075	7.22
394.283	7.54
394.49	7.38
394.698	7.66
394.905	8.09
395.113	7.82
395.32	7.67
395.528	7.5
395.735	7.32
395.943	7.39
396.15	7.24
396.358	7.06
396.565	7.07
396.773	6.93
396.98	6.76
397.188	6.45
397.395	6.55
397.602	6.7
397.81	6.97
398.017	6.77
398.225	6.45
398.432	6.72
398.639	6.49
398.847	6.2
399.054	6.14
399.261	5.56
399.468	5.84
399.676	5.82
399.883	5.82
400.09	5.4
400.297	5.25
400.505	5.15
400.712	4.77
400.919	5.12
401.126	5.19
401.333	5.05
401.54	4.99
401.748	4.95
401.955	5.13
402.162	5.14
402.369	5.15
402.576	5.4
402.783	5.61
402.99	5.28
403.197	5.07
403.404	4.9
403.611	5.11
403.818	5.5
404.025	5.48
404.232	5.42
404.439	5.06
404.646	4.57
404.853	4.51
405.06	4.51
405.267	4.47
405.474	4.32
405.681	4.25
405.887	4.34
406.094	4.44
406.301	4.27
406.508	3.83
406.715	3.86
406.922	4.49
407.128	4.58
407.335	4.5
407.542	4.65
407.749	4.8
407.955	4.67
408.162	4.28
408.369	4.01
408.575	4.27
408.782	4.87
408.989	5.32
409.195	5.16
409.402	4.93
409.609	4.98
409.815	5.02
410.022	5
410.228	5.14
410.435	5.4
410.642	5.41
410.848	4.99
411.055	4.84
411.261	4.64
411.468	4.6
411.674	4.77
411.881	4.61
412.087	4.61
412.294	4.57
412.5	4.88
412.706	4.58
412.913	4.54
413.119	4.64
413.326	4.38
413.532	4.3
413.738	4.38
413.945	4.07
414.151	4.09
414.357	4.13
414.564	3.92
414.77	3.66
414.976	3.86
415.182	4.05
415.389	3.79
415.595	3.63
415.801	3.59
416.007	3.51
416.214	3.6
416.42	3.6
416.626	3.48
416.832	3.47
417.038	3.64
417.244	3.5
417.45	3.35
417.657	3.74
417.863	4.06
418.069	4.03
418.275	4.17
418.481	4.2
418.687	4.24
418.893	4.33
419.099	4.58
419.305	4.35
419.511	4.37
419.717	4.4
419.923	4.17
420.129	3.99
420.335	4.03
420.541	4.01
420.746	3.97
420.952	3.85
421.158	3.71
421.364	3.5
421.57	3.47
421.776	3.44
421.982	3.39
422.187	3.49
422.393	3.48
422.599	3.44
422.805	3.41
423.01	3.49
423.216	3.49
423.422	3.64
423.628	3.58
423.833	3.66
424.039	3.76
424.245	3.82
424.45	3.82
424.656	3.88
424.862	3.71
425.067	3.77
425.273	3.77
425.478	3.83
425.684	3.67
425.889	3.62
426.095	3.6
426.301	3.48
426.506	3.58
426.712	3.49
426.917	3.39
427.123	3.49
427.328	3.21
427.533	2.92
427.739	2.85
427.944	3.03
428.15	3.11
428.355	3.01
428.561	3.11
428.766	3.02
428.971	3.19
429.177	3.19
429.382	3.23
429.587	3.32
429.793	3.47
429.998	3.48
430.203	3.1
430.408	3.07
430.614	3.55
430.819	3.31
431.024	3.41
431.229	3.46
431.434	3.38
431.64	3.6
431.845	3.67
432.05	3.82
432.255	3.71
432.46	4.04
432.665	4
432.87	3.82
433.076	4.11
433.281	3.88
433.486	3.68
433.691	3.88
433.896	3.77
434.101	3.54
434.306	3.5
434.511	3.49
434.716	3.4
434.921	3.64
435.126	3.5
435.331	3.28
435.535	3.12
435.74	3.05
435.945	2.8
436.15	2.75
436.355	3
436.56	2.83
436.765	2.8
436.97	2.83
437.174	2.7
437.379	2.72
437.584	2.91
437.789	3.02
437.993	3.11
438.198	3.23
438.403	3.28
438.608	3.15
438.812	3.28
439.017	3.27
439.222	3.34
439.426	3.34
439.631	3.25
439.836	3.27
440.04	3.17
440.245	3.06
440.45	2.97
440.654	2.99
440.859	2.96
441.063	2.84
441.268	2.96
441.472	2.86
441.677	2.91
441.881	3.08
442.086	2.93
442.29	3.02
442.495	3.18
442.699	3.29
442.904	3.26
443.108	3.31
443.312	3.45
443.517	3.38
443.721	3.42
443.925	3.26
444.13	3.01
444.334	3.07
444.538	3.1
444.743	3.05
444.947	2.95
445.151	2.85
445.356	2.86
445.56	2.75
445.764	2.89
445.968	2.87
446.173	3.03
446.377	3.11
446.581	3.09
446.785	2.88
446.989	2.8
447.193	2.88
447.398	2.93
447.602	2.71
447.806	2.78
448.01	2.82
448.214	2.85
448.418	2.66
448.622	2.53
448.826	2.44
449.03	2.74
449.234	2.82
449.438	2.82
449.642	2.78
449.846	3.06
450.05	3.08
450.254	2.66
450.458	2.79
450.662	2.86
450.866	2.76
451.069	2.76
451.273	2.61
451.477	2.57
451.681	2.58
451.885	2.57
452.089	2.37
452.292	2.28
452.496	2.5
452.7	2.4
452.904	2.52
453.107	2.99
453.311	3
453.515	3.15
453.719	3.32
453.922	3.14
454.126	3.23
454.33	3.48
454.533	3.63
454.737	3.79
454.94	3.68
455.144	3.61
455.348	3.28
455.551	3.47
455.755	3.24
455.958	3.26
456.162	3.39
456.365	3.52
456.569	3.5
456.772	3.36
456.976	2.97
457.179	3.25
457.383	3.25
457.586	3.14
457.79	3.02
457.993	2.93
458.196	2.6
458.4	2.6
458.603	2.42
458.807	2.36
459.01	2.46
459.213	2.55
459.417	2.49
459.62	2.54
459.823	2.69
460.026	2.7
460.23	2.8
460.433	2.89
460.636	2.87
460.839	3
461.042	3.12
461.246	3.1
461.449	3.15
461.652	3.05
461.855	3.07
462.058	2.99
462.261	2.88
462.464	2.91
462.668	2.9
462.871	2.91
463.074	2.69
463.277	2.5
463.48	2.61
463.683	2.76
463.886	2.69
464.089	2.6
464.292	2.79
464.495	2.78
464.698	2.85
464.901	2.77
465.104	2.81
465.306	2.71
465.509	2.85
465.712	2.78
465.915	2.8
466.118	2.81
466.321	2.83
466.524	2.47
466.726	2.59
466.929	2.53
467.132	2.73
467.335	2.6
467.538	2.88
467.74	2.88
467.943	2.91
468.146	2.9
468.348	3.07
468.551	2.98
468.754	3.29
468.956	3.2
469.159	3.17
469.362	3.04
469.564	3.18
469.767	2.94
469.969	3.06
470.172	2.92
470.375	2.84
470.577	2.8
470.78	2.74
470.982	2.71
471.185	2.89
471.387	3
471.59	3.01
471.792	3.02
471.995	3.05
472.197	2.95
472.399	2.85
472.602	2.77
472.804	2.8
473.007	3.06
473.209	2.98
473.411	2.95
473.614	2.91
473.816	2.84
474.018	2.93
474.22	3.04
474.423	2.91
474.625	3
474.827	3.21
475.03	3.08
475.232	2.92
475.434	2.93
475.636	2.7
475.838	2.73
476.04	2.75
476.243	2.59
476.445	2.59
476.647	2.78
476.849	2.94
477.051	2.82
477.253	2.83
477.455	2.9
477.657	2.8
477.859	2.99
478.061	3.07
478.263	3.22
478.465	3.28
478.667	3.23
478.869	3.24
479.071	3.23
479.273	3.37
479.475	3.43
479.677	3.41
479.879	3.49
480.081	3.51
480.283	3.41
480.485	3.36
480.686	3.31
480.888	3.45
481.09	3.46
481.292	3.42
481.494	3.23
481.695	3.18
481.897	3.24
482.099	3.21
482.301	3.13
482.502	3.09
482.704	3.03
482.906	3
483.107	2.96
483.309	2.83
483.511	2.83
483.712	2.9
483.914	2.92
484.115	2.9
484.317	2.89
484.519	2.88
484.72	2.93
484.922	2.9
485.123	2.95
485.325	2.9
485.526	2.95
485.728	2.94
485.929	2.89
486.131	2.88
486.332	2.9
486.534	2.91
486.735	2.92
486.936	2.86
487.138	2.89
487.339	2.86
487.541	2.93
487.742	2.96
487.943	2.96
488.144	2.96
488.346	2.95
488.547	2.91
488.748	2.84
488.95	2.82
489.151	2.78
489.352	2.84
489.553	2.84
489.755	2.83
489.956	2.77
490.157	2.75
490.358	2.85
490.559	2.74
490.76	2.75
490.961	2.8
491.163	2.8
491.364	2.8
491.565	2.76
491.766	2.77
491.967	2.79
492.168	2.77
492.369	2.78
492.57	2.67
492.771	2.73
492.972	2.7
493.173	2.67
493.374	2.68
493.575	2.72
493.776	2.62
493.976	2.62
494.177	2.49
494.378	2.65
494.579	2.71
494.78	2.87
494.981	2.85
495.182	2.86
495.382	3.14
495.583	3.17
495.784	3.17
495.985	3.26
496.185	3.28
496.386	3.34
496.587	3.21
496.788	3.14
496.988	2.96
497.189	2.98
497.39	3.08
497.59	2.96
497.791	2.85
497.992	2.88
498.192	2.95
498.393	2.82
498.593	2.96
498.794	2.89
498.994	2.89
499.195	2.99
499.395	3.07
499.596	3.04
499.796	2.94
499.997	3.21
500.197	3.46
500.398	3.46
500.598	3.63
500.799	3.47
500.999	3.67
501.199	3.75
501.4	3.66
501.6	3.69
501.801	3.7
502.001	3.76
502.201	3.72
502.402	3.52
502.602	3.44
502.802	3.34
503.002	3.47
503.203	3.26
503.403	3.22
503.603	3.44
503.803	3.64
504.003	3.62
504.204	3.82
504.404	3.93
504.604	3.83
504.804	4.13
505.004	4.28
505.204	4.26
505.404	4.36
505.604	4.3
505.804	4.36
506.005	4.25
506.205	4.35
506.405	4.35
506.605	4.3
506.805	4.57
507.005	4.55
507.204	4.57
507.404	4.75
507.604	4.95
507.804	5.17
508.004	5.11
508.204	5.03
508.404	5.12
508.604	5.15
508.804	5.2
509.003	5.22
509.203	5.17
509.403	5.11
509.603	5.16
509.803	5.1
510.002	5.01
510.202	5.11
510.402	5.45
510.602	5.53
510.801	5.51
511.001	5.55
511.201	5.48
511.4	5.5
511.6	5.78
511.8	5.78
511.999	5.93
512.199	6.05
512.398	6.17
512.598	6.02
512.797	5.94
512.997	6.13
513.197	6.25
513.396	6.37
513.596	6.59
513.795	6.57
513.994	6.56
514.194	6.5
514.393	6.6
514.593	6.65
514.792	6.78
514.992	6.91
515.191	6.9
515.39	7.07
515.59	7.2
515.789	7.17
515.988	7.34
516.188	7.43
516.387	7.51
516.586	7.69
516.786	7.72
516.985	7.78
517.184	7.82
517.383	8.06
517.582	7.95
517.782	7.96
517.981	8.08
518.18	8.04
518.379	8.25
518.578	8.43
518.777	8.33
518.976	8.42
519.176	8.49
519.375	8.59
519.574	8.64
519.773	8.84
519.972	9
520.171	9.1
520.37	9.28
520.569	9.19
520.768	9.29
520.967	9.63
521.166	9.78
521.365	9.87
521.564	10.08
521.762	10.14
521.961	10.2
522.16	10.17
522.359	10.17
522.558	10.21
522.757	10.35
522.956	10.44
523.154	10.45
523.353	10.56
523.552	10.69
523.751	10.86
523.949	11.09
524.148	11.04
524.347	11.17
524.546	11.42
524.744	11.6
524.943	11.67
525.142	11.68
525.34	11.82
525.539	11.96
525.737	12.02
525.936	11.94
526.135	12.02
526.333	12.24
526.532	12.25
526.73	12.29
526.929	12.39
527.127	12.55
527.326	12.65
527.524	12.73
527.723	12.76
527.921	12.91
528.12	13.03
528.318	13.09
528.516	13.1
528.715	13.28
528.913	13.37
529.112	13.46
529.31	13.46
529.508	13.52
529.707	13.54
529.905	13.6
530.103	13.58
530.301	13.62
530.5	13.67
530.698	13.82
530.896	13.88
531.094	13.93
531.293	14.01
531.491	14.14
531.689	14.36
531.887	14.53
532.085	14.77
532.283	14.88
532.481	15.05
532.68	15.06
532.878	15.11
533.076	15.2
533.274	15.25
533.472	15.29
533.67	15.4
533.868	15.48
534.066	15.58
534.264	15.54
534.462	15.67
534.66	15.68
534.858	15.78
535.056	15.93
535.253	15.97
535.451	16.14
535.649	16.13
535.847	16.25
536.045	16.32
536.243	16.23
536.441	16.34
536.638	16.5
536.836	16.6
537.034	16.67
537.232	16.64
537.43	16.69
537.627	16.8
537.825	17.08
538.023	17.13
538.22	17.15
538.418	17.47
538.616	17.42
538.813	17.42
539.011	17.6
539.209	17.76
539.406	17.9
539.604	18.1
539.801	18.09
539.999	18.11
540.196	18.28
540.394	18.26
540.591	18.29
540.789	18.49
540.986	18.49
541.184	18.53
541.381	18.59
541.579	18.62
541.776	18.56
541.974	18.61
542.171	18.59
542.368	18.62
542.566	18.8
542.763	18.85
542.96	18.79
543.158	18.94
543.355	19.01
543.552	19.02
543.75	19.11
543.947	19.13
544.144	19.21
544.341	19.25
544.539	19.21
544.736	19.09
544.933	19.1
545.13	19.33
545.327	19.43
545.524	19.45
545.722	19.42
545.919	19.45
546.116	19.63
546.313	19.67
546.51	19.86
546.707	20.08
546.904	20.36
547.101	20.42
547.298	20.44
547.495	20.39
547.692	20.42
547.889	20.55
548.086	20.73
548.283	20.88
548.48	21.09
548.677	21.15
548.874	21.12
549.07	21.02
549.267	20.97
549.464	20.97
549.661	21.07
549.858	21.23
550.055	21.54
550.251	21.56
550.448	21.51
550.645	21.55
550.842	21.46
551.038	21.53
551.235	21.82
551.432	22.17
551.628	22.23
551.825	22.38
552.022	22.17
552.218	22.09
552.415	22.28
552.612	22.48
552.808	22.37
553.005	22.66
553.201	22.72
553.398	22.56
553.594	22.63
553.791	22.77
553.987	22.65
554.184	22.8
554.38	22.95
554.577	22.79
554.773	22.88
554.97	23.06
555.166	22.92
555.362	22.95
555.559	23.08
555.755	22.88
555.952	22.89
556.148	23.11
556.344	23.33
556.541	23.26
556.737	23.2
556.933	23.33
557.129	23.41
557.326	23.39
557.522	23.31
557.718	23.34
557.914	23.6
558.11	23.82
558.307	23.9
558.503	23.89
558.699	23.92
558.895	24.04
559.091	23.93
559.287	23.88
559.483	23.85
559.679	23.99
559.876	24.12
560.072	24.11
560.268	24
560.464	23.99
560.66	24.01
560.856	24.01
561.052	24.11
561.247	24.07
561.443	24.13
561.639	24.36
561.835	24.39
562.031	24.06
562.227	24.05
562.423	23.94
562.619	23.8
562.815	23.91
563.01	24.13
563.206	24.27
563.402	24.58
563.598	24.7
563.793	24.82
563.989	24.89
564.185	25.24
564.381	25.31
564.576	25.49
564.772	25.49
564.968	25.55
565.163	25.4
565.359	25.31
565.555	25.31
565.75	25.17
565.946	25.12
566.141	25.12
566.337	24.99
566.532	25.08
566.728	25.1
566.923	25.31
567.119	25.26
567.314	25.24
567.51	25.18
567.705	25.04
567.901	25.17
568.096	25.36
568.292	25.33
568.487	25.29
568.682	25.35
568.878	25.47
569.073	25.45
569.268	25.49
569.464	25.55
569.659	25.74
569.854	25.63
570.05	25.84
570.245	25.83
570.44	25.79
570.635	25.9
570.831	25.84
571.026	25.87
571.221	25.79
571.416	25.84
571.611	25.98
571.806	26.04
572.002	26
572.197	25.75
572.392	25.76
572.587	25.83
572.782	25.8
572.977	25.79
573.172	25.64
573.367	25.71
573.562	25.62
573.757	25.45
573.952	25.26
574.147	25.44
574.342	25.7
574.537	25.58
574.732	25.58
574.927	25.83
575.121	25.89
575.316	26.02
575.511	25.91
575.706	25.96
575.901	26.17
576.096	26.17
576.29	26.23
576.485	26.07
576.68	26.05
576.875	26.11
577.069	25.99
577.264	25.98
577.459	26.1
577.654	26.24
577.848	26.29
578.043	26.35
578.238	26.54
578.432	26.52
578.627	26.43
578.821	26.71
579.016	26.73
579.21	26.65
579.405	26.48
579.6	26.36
579.794	26.16
579.989	26.09
580.183	25.62
580.378	25.54
580.572	25.3
580.766	25.72
580.961	25.77
581.155	25.79
581.35	25.8
581.544	26.02
581.738	26.07
581.933	26.51
582.127	26.86
582.321	27.12
582.516	27.02
582.71	27.14
582.904	26.88
583.099	26.74
583.293	27
583.487	27.31
583.681	27.38
583.875	27.17
584.07	27.05
584.264	27.02
584.458	27.04
584.652	27.36
584.846	27.49
585.04	27.35
585.234	27.19
585.428	26.86
585.623	26.78
585.817	26.66
586.011	26.74
586.205	26.44
586.399	26.4
586.593	26.66
586.787	26.36
586.981	26.42
587.174	26.56
587.368	27.05
587.562	27.24
587.756	27.42
587.95	27.45
588.144	27.73
588.338	27.97
588.532	28.06
588.725	27.94
588.919	28.28
589.113	28.39
589.307	28.34
589.501	28.21
589.694	28.3
589.888	28.09
590.082	28.2
590.275	28.06
590.469	28.05
590.663	27.88
590.856	27.95
591.05	27.84
591.244	27.85
591.437	27.91
591.631	27.73
591.824	27.66
592.018	27.75
592.212	27.45
592.405	27.43
592.599	27.41
592.792	27.4
592.986	27.45
593.179	27.71
593.372	27.69
593.566	27.81
593.759	27.58
593.953	27.51
594.146	27.49
594.339	27.78
594.533	27.85
594.726	28.02
594.92	28.04
595.113	27.88
595.306	27.55
595.499	27.57
595.693	27.35
595.886	27.75
596.079	27.84
596.272	27.91
596.466	27.92
596.659	27.81
596.852	27.84
597.045	27.95
597.238	28.06
597.431	28.14
597.624	28.15
597.818	28.41
598.011	28.21
598.204	28.38
598.397	28.37
598.59	28.28
598.783	28.54
598.976	28.61
599.169	28.28
599.362	28.36
599.555	28.72
599.748	28.84
599.941	28.91
600.134	29.16
600.326	29.05
600.519	29.37
600.712	29.54
600.905	29.62
601.098	29.45
601.291	29.73
601.483	29.78
601.676	29.39
601.869	29.31
602.062	29.32
602.255	29.24
602.447	29.14
602.64	29.15
602.833	29.17
603.025	29.1
603.218	29.35
603.411	29.64
603.603	29.56
603.796	29.89
603.989	29.84
604.181	29.82
604.374	29.7
604.566	29.94
604.759	29.87
604.951	29.87
605.144	29.92
605.336	29.81
605.529	29.48
605.721	29.54
605.914	29.39
606.106	29.54
606.299	29.45
606.491	29.46
606.683	29.12
606.876	28.97
607.068	29.02
607.26	28.97
607.453	28.64
607.645	28.77
607.837	28.74
608.03	28.68
608.222	28.65
608.414	28.6
608.606	28.61
608.799	28.84
608.991	28.72
609.183	28.55
609.375	28.54
609.567	28.65
609.759	28.64
609.952	28.62
610.144	28.58
610.336	28.27
610.528	28.11
610.72	28.16
610.912	27.93
611.104	27.9
611.296	27.83
611.488	27.56
611.68	27.55
611.872	27.52
612.064	27.45
612.256	27.41
612.448	27.57
612.64	27.86
612.832	27.78
613.023	27.77
613.215	27.55
613.407	27.58
613.599	27.85
613.791	27.89
613.983	28.26
614.174	28.2
614.366	28.21
614.558	28.18
614.75	28.19
614.941	28.43
615.133	28.55
615.325	29.12
615.516	29.5
615.708	29.37
615.9	29.58
616.091	29.19
616.283	29.41
616.475	29.64
616.666	29.8
616.858	29.77
617.049	29.84
617.241	29.92
617.432	29.88
617.624	30.16
617.815	30.4
618.007	30.61
618.198	31
618.39	30.87
618.581	30.69
618.773	31.11
618.964	31.16
619.155	31.11
619.347	31.34
619.538	31.4
619.729	30.85
619.921	30.78
620.112	30.45
620.303	30.28
620.494	30.14
620.686	30.4
620.877	30.16
621.068	30.58
621.259	30.62
621.451	30.35
621.642	30.18
621.833	30.72
622.024	30.82
622.215	30.95
622.406	30.97
622.597	31.31
622.788	31.07
622.98	30.8
623.171	30.25
623.362	30.45
623.553	30.48
623.744	30.65
623.935	30.24
624.126	30.27
624.317	30.18
624.508	30.19
624.698	29.85
624.889	29.97
625.08	30.08
625.271	30.39
625.462	30.03
625.653	29.91
625.844	30.01
626.034	29.95
626.225	29.99
626.416	29.8
626.607	29.74
626.798	30
626.988	29.92
627.179	30.06
627.37	29.71
627.56	29.79
627.751	29.79
627.942	29.72
628.132	29.65
628.323	29.58
628.514	29.74
628.704	29.78
628.895	29.73
629.085	29.9
629.276	29.87
629.466	30.14
629.657	30.38
629.847	30.56
630.038	30.46
630.228	30.67
630.419	30.52
630.609	30.71
630.8	30.47
630.99	30.27
631.181	30.01
631.371	29.93
631.561	29.9
631.752	29.84
631.942	30.01
632.132	30.05
632.323	29.85
632.513	30.4
632.703	30.28
632.893	30.45
633.084	30.43
633.274	30.69
633.464	30.76
633.654	30.82
633.844	30.51
634.034	30.33
634.225	30.44
634.415	30.36
634.605	30.05
634.795	30.27
634.985	30.29
635.175	30.47
635.365	30.3
635.555	30.39
635.745	30.21
635.935	30.46
636.125	30.42
636.315	30.1
636.505	30.35
636.695	30.36
636.885	30.38
637.075	30.54
637.265	30.91
637.455	30.89
637.644	30.46
637.834	30.19
638.024	29.82
638.214	29.86
638.404	30.09
638.593	30.2
638.783	29.81
638.973	29.48
639.163	29.33
639.352	29.14
639.542	29.35
639.732	29.83
639.921	30.38
640.111	30.74
640.301	30.74
640.49	30.91
640.68	30.7
640.87	31.25
641.059	31.4
641.249	31.45
641.438	31.36
641.628	31.27
641.817	31.13
642.007	30.98
642.196	30.95
642.386	30.6
642.575	30.38
642.764	30.33
642.954	30.34
643.143	30.41
643.333	30.67
643.522	30.86
643.711	31.06
643.901	31.14
644.09	31.07
644.279	31.1
644.469	31.34
644.658	31.18
644.847	31.21
645.036	31.32
645.226	31.4
645.415	30.83
645.604	30.45
645.793	30.11
645.982	29.99
646.171	30.07
646.361	29.9
646.55	29.92
646.739	30.08
646.928	30.63
647.117	30.09
647.306	30.19
647.495	30.7
647.684	30.63
647.873	31.07
648.062	31.17
648.251	30.94
648.44	31.3
648.629	31.16
648.818	31.09
649.007	30.4
649.196	30.7
649.384	30.92
649.573	30.78
649.762	30.86
649.951	30.59
650.14	30.71
650.328	31.07
650.517	30.81
650.706	30.83
650.895	30.97
651.083	31.14
651.272	30.94
651.461	30.44
651.65	30.4
651.838	30.33
652.027	30.39
652.216	30.28
652.404	30.3
652.593	30.43
652.781	30.85
652.97	30.61
653.158	30.7
653.347	30.94
653.535	31.12
653.724	31.08
653.912	30.92
654.101	30.68
654.289	30.64
654.478	30.63
654.666	30.27
654.855	29.86
655.043	30.04
655.231	30.25
655.42	30.58
655.608	30.64
655.796	30.53
655.985	30.73
656.173	31.13
656.361	31.04
656.55	30.97
656.738	31.21
656.926	31.55
657.114	31.36
657.302	31.2
657.491	31.17
657.679	30.76
657.867	30.91
658.055	31.19
658.243	31.09
658.431	31.02
658.619	31.22
658.807	31.01
658.996	30.86
659.184	31.03
659.372	31.08
659.56	30.86
659.748	30.98
659.936	30.75
660.124	30.4
660.311	30.13
660.499	30.09
660.687	29.73
660.875	29.96
661.063	29.73
661.251	29.78
661.439	30
661.627	29.72
661.814	30.23
662.002	30.78
662.19	30.99
662.378	30.9
662.565	31.1
662.753	31.34
662.941	31.12
663.129	31.59
663.316	31.65
663.504	30.57
663.692	30.6
663.879	30.09
664.067	29.8
664.254	29.96
664.442	30.57
664.63	30.66
664.817	30.41
665.005	30.94
665.192	31.1
665.38	31.05
665.567	32.22
665.755	32.5
665.942	32.93
666.13	33.15
666.317	33.04
666.504	32.68
666.692	32.89
666.879	32.86
667.067	32.7
667.254	32.38
667.441	32.75
667.629	32.73
667.816	32.11
668.003	31.58
668.19	31.5
668.378	31.97
668.565	32.59
668.752	31.88
668.939	32.29
669.127	31.9
669.314	32.13
669.501	31.48
669.688	31.15
669.875	32.15
670.062	32.51
670.249	32.57
670.436	32.22
670.623	32.04
670.81	32.64
670.997	33.01
671.184	33.55
671.371	33.33
671.558	33.57
671.745	33.92
671.932	33.55
672.119	33.55
672.306	33.25
672.493	32.79
672.68	31.97
672.867	31.54
673.054	30.69
673.24	30.41
673.427	30.63
673.614	30.81
673.801	30.61
673.988	30.97
674.174	30.47
674.361	30.7
674.548	31.06
674.734	31.21
674.921	31.67
675.108	31.42
675.294	31.69
675.481	31.48
675.668	31.14
675.854	30.6
676.041	30.41
676.227	30.79
676.414	30.21
676.601	30.59
676.787	31.04
676.974	30.64
677.16	31.28
677.347	31.17
677.533	31.93
677.719	32.08
677.906	32.13
678.092	32.09
678.279	32.24
678.465	32.69
678.651	32.52
678.838	32.25
679.024	31.99
679.21	31.65
679.397	31.82
679.583	31.36
679.769	31.33
679.955	31.39
680.142	31.12
680.328	30.97
680.514	30.81
680.7	30.96
680.886	31.03
681.073	31.23
681.259	31.36
681.445	31.03
681.631	30.9
681.817	31.04
682.003	31.11
682.189	31.06
682.375	31.44
682.561	31.6
682.747	31.36
682.933	31.35
683.119	31.57
683.305	31.64
683.491	31.8
683.677	32.12
683.863	31.99
684.049	32.59
684.235	32.82
684.42	32.6
684.606	32.51
684.792	32.58
684.978	32.56
685.164	32.56
685.349	32.83
685.535	32.45
685.721	32.4
685.907	32.31
686.092	31.59
686.278	31.67
686.464	31.73
686.649	31.81
686.835	31.56
687.021	31.54
687.206	31.66
687.392	31.16
687.577	31.7
687.763	31.54
687.948	32.15
688.134	32.42
688.319	31.84
688.505	31.46
688.69	31.34
688.876	31.41
689.061	31.4
689.247	31
689.432	31.32
689.618	31.34
689.803	32.01
689.988	31.65
690.174	31.38
690.359	31.47
690.544	31.39
690.73	31.43
690.915	31.43
691.1	31.41
691.285	31.98
691.471	32.35
691.656	32.04
691.841	31.48
692.026	30.85
692.211	31.16
692.396	31.15
692.582	31.71
692.767	31.04
692.952	30.95
693.137	31.14
693.322	30.54
693.507	30.64
693.692	30.58
693.877	30.73
694.062	31.21
694.247	30.93
694.432	31.32
694.617	30.99
694.802	31.56
694.987	32.15
695.172	32.07
695.357	32.7
695.541	32.21
695.726	32.81
695.911	32.57
696.096	33.27
696.281	33.56
696.466	33.78
696.65	33.94
696.835	33.86
697.02	33.93
697.204	33.94
697.389	33.63
697.574	33.65
697.759	33.16
697.943	32.89
698.128	32.14
698.312	32.1
698.497	31.75
698.682	31.89
698.866	31.94
699.051	31.66
699.235	31.65
699.42	31.38
699.604	31.57
699.789	31.6
699.973	31.84
700.158	31.98
700.342	32.1
700.527	32.49
700.711	32.67
700.895	32.72
701.08	32.36
701.264	32.53
701.448	32.44
701.633	32.17
701.817	32.29
702.001	32.45
702.186	32.02
702.37	31.77
702.554	31.38
702.738	30.29
702.923	29.87
703.107	30.5
703.291	30.2
703.475	30.13
703.659	30.04
703.843	30.15
704.027	29.29
704.212	30.17
704.396	29.93
704.58	30.5
704.764	30.79
704.948	30.79
705.132	30.53
705.316	30.99
705.5	31.29
705.684	31.02
705.868	30.51
706.052	31.31
706.235	30.52
706.419	31.1
706.603	30.39
706.787	30.08
706.971	31.12
707.155	31.42
707.339	31.3
707.522	31.65
707.706	32.65
707.89	32.66
708.074	33.02
708.257	33.63
708.441	33.35
708.625	33.47
708.808	34.71
708.992	34.16
709.176	34.44
709.359	34.32
709.543	34.29
709.727	32.88
709.91	33.35
710.094	33.18
710.277	33.31
710.461	33.85
710.644	34.5
710.828	34.01
711.011	34.25
711.195	33.77
711.378	33.83
711.562	34.12
711.745	34.34
711.928	34.2
712.112	33.53
712.295	33.2
712.478	32.5
712.662	32.09
712.845	31.39
713.028	31.25
713.212	30.75
713.395	29.48
713.578	29.47
713.761	29.94
713.945	30.44
714.128	30.96
714.311	30.99
714.494	31.34
714.677	31.03
714.86	31.94
715.043	31.71
715.227	32.49
715.41	33.31
715.593	33.04
715.776	32.82
715.959	32.32
716.142	32.27
716.325	32.31
716.508	32.43
716.691	32.76
716.874	32.74
717.057	32.79
717.239	32.8
717.422	32.94
717.605	32.6
717.788	31.76
717.971	31.6
718.154	31.76
718.337	31.39
718.519	30.95
718.702	30.5
718.885	30.67
719.068	30.54
719.25	30.29
719.433	30.55
719.616	31.16
719.798	32.02
719.981	32.35
720.164	31.93
720.346	32.43
720.529	32.74
720.712	33.04
720.894	31.74
721.077	32.82
721.259	32.6
721.442	32.99
721.624	32.81
721.807	33.34
721.989	33.37
722.172	33.26
722.354	32.61
722.537	32.85
722.719	33.27
722.901	32.82
723.084	32.31
723.266	32.15
723.448	31.65
723.631	31.15
723.813	30.74
723.995	30.66
724.178	30.71
724.36	32.35
724.542	32.09
724.724	31.51
724.907	32.56
725.089	31.64
725.271	32.22
725.453	32.37
725.635	32.55
725.817	32.52
725.999	32.03
726.181	31
726.364	30.35
726.546	30.16
726.728	30.72
726.91	30.92
727.092	31.11
727.274	31.2
727.456	31.27
727.638	31.16
727.819	31.37
728.001	31.18
728.183	32.72
728.365	32.54
728.547	32.39
728.729	32.53
728.911	32.46
729.093	32.61
729.274	32.75
729.456	32.68
729.638	32.99
729.82	32.9
730.001	33.03
730.183	32.76
730.365	33.42
730.546	34.2
730.728	34.6
730.91	34.47
731.091	34.97
731.273	34.99
731.455	35.06
731.636	35.64
731.818	35.91
731.999	36.31
732.181	35.83
732.362	35.28
732.544	34.19
732.725	33.14
732.907	33.35
733.088	33.41
733.27	33.2
733.451	33.55
733.633	33.12
733.814	33.1
733.995	33
734.177	33.37
734.358	32.9
734.539	33.41
734.721	33.16
734.902	32.79
735.083	31.71
735.264	30.86
735.446	31.37
735.627	30.73
735.808	30.24
735.989	29.94
736.17	30.8
736.351	31.43
736.533	32.18
736.714	32.46
736.895	32.45
737.076	33.63
737.257	34.6
737.438	34
737.619	34.5
737.8	34.53
737.981	35.12
738.162	34.61
738.343	34.85
738.524	34.3
738.705	34.79
738.886	34.96
739.067	35.36
739.247	34.67
739.428	34.19
739.609	34.52
739.79	35.1
739.971	35.38
740.151	35.3
740.332	34.81
740.513	35.36
740.694	35.55
740.874	36.21
741.055	34.83
741.236	35.11
741.417	34.46
741.597	34.06
741.778	33.62
741.958	33.53
742.139	33.16
742.32	33.28
742.5	33.25
742.681	32.59
742.861	31.9
743.042	33.13
743.222	32.88
743.403	34.23
743.583	34.28
743.764	33.92
743.944	33.55
744.124	34.51
744.305	35.17
744.485	34.54
744.666	35.12
744.846	35.01
745.026	34.32
745.207	35.73
745.387	34.11
745.567	34.81
745.747	35.91
745.928	36.73
746.108	35.65
746.288	34.81
746.468	34.05
746.648	33.97
746.829	33.76
747.009	34.67
747.189	34.79
747.369	35.22
747.549	34.44
747.729	34.07
747.909	32.77
748.089	32.27
748.269	32.89
748.449	32.84
748.629	33.41
748.809	33.6
748.989	32.49
749.169	31.04
749.349	31.79
749.529	31.38
749.709	31.4
749.889	30.96
750.068	31.78
750.248	32.27
750.428	32.82
750.608	32.47
750.788	32.72
750.967	32.44
751.147	32.68
751.327	33.44
751.507	33.51
751.686	33.24
751.866	34.11
752.046	34.06
752.225	33.8
752.405	33.91
752.585	34.09
752.764	34.62
752.944	35.64
753.123	35.13
753.303	34.58
753.482	34.03
753.662	34.13
753.841	34.51
754.021	33.74
754.2	32.66
754.38	32.14
754.559	31.05
754.739	29.51
754.918	28.23
755.097	29.01
755.277	28.06
755.456	29.86
755.635	29.89
755.815	28.4
755.994	29.48
756.173	29.97
756.352	31.38
756.532	32
756.711	33.45
756.89	34.68
757.069	34.56
757.248	35.63
757.427	34.87
757.607	35.34
757.786	35.71
757.965	36.2
758.144	36.88
758.323	35.77
758.502	34.3
758.681	35.19
758.86	33.56
759.039	33.36
759.218	32.97
759.397	32.65
759.576	31.97
759.755	32.79
759.934	31.25
760.113	31.73
760.291	31.62
760.47	32.82
760.649	30.87
760.828	32.63
761.007	33.45
761.186	33.46
761.364	33.77
761.543	33.34
761.722	32.93
761.901	33.92
762.079	33.05
762.258	33.24
762.437	33.73
762.615	33.73
762.794	33.43
762.972	32.63
763.151	32.6
763.33	32.67
763.508	32.8
763.687	32.94
763.865	32.66
764.044	32.41
764.222	32.3
764.401	32.23
764.579	32.54
764.758	32.48
764.936	32.52
765.114	32.95
765.293	33.05
765.471	33.41
765.65	33.66
765.828	34.32
766.006	34.56
766.184	34.55
766.363	34.27
766.541	33.56
766.719	34.38
766.898	34.66
767.076	34.08
767.254	33.59
767.432	34.15
767.61	33.56
767.788	32.84
767.967	32.67
768.145	32.64
768.323	31.62
768.501	33.53
768.679	30.85
768.857	30.46
769.035	29.91
769.213	30.79
769.391	31.14
769.569	30.42
769.747	30.59
769.925	30.17
770.103	30.43
770.281	30.69
770.459	29.64
770.636	32.5
770.814	31.53
770.992	32.13
771.17	30.91
771.348	29.67
771.525	30.77
771.703	30.96
771.881	31.32
772.059	33.24
772.236	34.12
772.414	34.6
772.592	34.16
772.769	36.43
772.947	36.04
773.125	36.32
773.302	36.07
773.48	35
773.657	35.81
773.835	35.17
774.013	32.68
774.19	33.87
774.368	32.72
774.545	31.33
774.723	30.69
774.9	31.16
775.077	32.96
775.255	32.84
775.432	33.64
775.61	34.07
775.787	35.15
775.964	35.97
776.142	34.8
776.319	36.21
776.496	36.14
776.674	35.59
776.851	36.69
777.028	34.89
777.205	35.34
777.382	35.32
777.56	33.43
777.737	33.72
777.914	32.67
778.091	33.22
778.268	33.25
778.445	34.27
778.622	34.88
778.8	34.4
778.977	35.36
779.154	35.01
779.331	36.53
779.508	37.19
779.685	36.97
779.862	38.44
780.038	37.84
780.215	36.6
780.392	36.5
780.569	37.4
780.746	36.84
780.923	36.89
781.1	36.69
781.277	34.73
781.453	32.42
781.63	31.54
781.807	32.28
781.984	31.63
782.16	32.95
782.337	33.95
782.514	34.14
782.691	32.92
782.867	31.92
783.044	32.74
783.221	33.86
783.397	34.26
783.574	33.84
783.75	31.75
783.927	33.86
784.103	32.7
784.28	31.84
784.456	31.08
784.633	32.75
784.809	32.71
784.986	31.81
785.162	29.71
785.339	28.88
785.515	28.63
785.692	29.12
785.868	29.27
786.044	29.39
786.221	28.24
786.397	28.11
786.573	27.82
786.749	26.88
786.926	29.73
787.102	33.88
787.278	34.89
787.454	34.65
787.631	33.9
787.807	30.8
787.983	30.94
788.159	30.98
788.335	30.2
788.511	29.3
788.687	29.96
788.863	28.32
789.039	26.71
789.216	26.54
789.392	26.13
789.568	27.97
789.744	29.64
789.919	29.05
790.095	29.87
790.271	31.65
790.447	31.65
790.623	32.39
790.799	32.52
790.975	33.7
791.151	36.41
791.327	38.39
791.502	38.32
791.678	38.63
791.854	41.18
792.03	40.75
792.205	39.19
792.381	40.24
792.557	38.69
792.733	37.98
792.908	35.27
793.084	35.34
793.259	36.4
793.435	35.27
793.611	35.28
793.786	33.94
793.962	32.8
794.137	32.47
794.313	30.71
794.488	32.45
794.664	34.08
794.839	36.33
795.015	35.23
795.19	33.14
795.366	32.99
795.541	33.37
795.716	32.71
795.892	35.53
796.067	35.73
796.242	36.78
796.418	36.39
796.593	36.8
796.768	36.71
796.944	36.17
797.119	37.75
797.294	39.31
797.469	38.47
797.644	38.29
797.82	38.85
797.995	39.77
798.17	40.24
798.345	41.34
798.52	37.87
798.695	38.09
798.87	35.97
799.045	33.57
799.22	35.09
799.395	37.43
799.57	36.51
799.745	36.15
799.92	34.11
800.095	33.86
800.27	33.35
800.445	34.4
800.62	32.94
800.795	34.07
800.97	36.44
801.145	32.6
801.319	32.1
801.494	33.56
801.669	31.86
801.844	34.71
802.018	35.91
802.193	33.92
802.368	35.9
802.543	36
802.717	36.87
802.892	38.1
803.067	39.35
803.241	40.15
803.416	38.47
803.59	39.89
803.765	37.63
803.94	35.03
804.114	35.92
804.289	36.11
804.463	37.6
804.638	37.48
804.812	33.15
804.986	32.8
805.161	31.69
805.335	33.95
805.51	31.3
805.684	32.48
805.858	33.58
806.033	35.86
806.207	36.25
806.381	36.09
806.556	35.82
806.73	36.46
806.904	36.49
807.078	35.27
807.253	34.04
807.427	34.55
807.601	33.27
807.775	31.63
807.949	32
808.123	32.64
808.298	32.87
808.472	29.83
808.646	29.87
808.82	30.57
808.994	30.2
809.168	27.78
809.342	29.36
809.516	31.17
809.69	31.71
809.864	27.19
810.038	24.88
810.212	23.23
810.385	29.3
810.559	31.36
810.733	31.39
810.907	31.61
811.081	33.48
811.255	32.14
811.428	31.39
811.602	32.89
811.776	34.53
811.95	33.52
812.123	32.82
812.297	29.31
812.471	27.1
812.644	27.24
812.818	27.66
812.992	31.11
813.165	32.79
813.339	34.28
813.512	35.47
813.686	37.48
813.86	39.78
814.033	39.91
814.207	42.38
814.38	43.77
814.554	44.35
814.727	40.97
814.9	39.12
815.074	38.25
815.247	35.7
815.421	33.55
815.594	32.06
815.767	32.14
815.941	31.78
816.114	29.82
816.287	28.74
816.46	27.9
816.634	33.53
816.807	32.94
816.98	33.82
817.153	36.19
817.327	36.95
817.5	36.36
817.673	35.15
817.846	36.05
818.019	37.21
818.192	38.33
818.365	38.34
818.538	35.67
818.711	37.78
818.884	36.6
819.057	35.25
819.23	34.83
819.403	35.84
819.576	35.92
819.749	35.52
819.922	33.76
820.095	32.13
820.268	31.25
820.441	32.72
820.614	31.42
820.786	32.14
820.959	33.42
821.132	33.82
821.305	33.68
821.477	32.78
821.65	32.96
821.823	32.85
821.996	33.74
822.168	34.15
822.341	33.03
822.514	33.59
822.686	33.95
822.859	33.38
823.031	33.9
823.204	34.32
823.376	34.32
823.549	34.54
823.722	34.33
823.894	33.9
824.067	34.2
824.239	34.57
824.411	34.51
824.584	34.68
824.756	35.45
824.929	34.89
825.101	33.79
825.273	34.37
825.446	33.76
825.618	34.88
825.79	35.46
825.963	35.19
826.135	35.44
826.307	35.59
826.479	35.34
826.652	33.9
826.824	34.12
826.996	34.57
827.168	34.3
827.34	35.31
827.512	35.33
827.684	34.4
827.856	34.26
828.029	34.83
828.201	34.21
828.373	33.73
828.545	34.72
828.717	35.06
828.889	35.83
829.061	35.31
829.232	34.54
829.404	33.84
829.576	34.93
829.748	33.94
829.92	33.28
830.092	32.75
830.264	33.08
830.436	33.68
830.607	32.73
830.779	33.35
830.951	35.24
831.123	35.2
831.294	36.3
831.466	36.7
831.638	40.26
831.809	41.73
831.981	43.36
832.153	44.7
832.324	44.12
832.496	44.88
832.667	45.11
832.839	42.48
833.011	42.14
833.182	41.64
833.354	38.25
833.525	37.16
833.697	36.57
833.868	35.63
834.039	34.68
834.211	33.39
834.382	33.24
834.554	33.48
834.725	35.56
834.896	36.24
835.068	36.13
835.239	38.74
835.41	39.04
835.581	39.36
835.753	40.59
835.924	40.01
836.095	41.08
836.266	40.75
836.438	39.8
836.609	38.47
836.78	39.54
836.951	37.28
837.122	35.93
837.293	35.26
837.464	33.42
837.635	31.04
837.806	30.64
837.977	29.67
838.148	28.12
838.319	28.48
838.49	28.5
838.661	26.3
838.832	26.07
839.003	24.56
839.174	23.31
839.345	25.47
839.516	27.56
839.687	28.41
839.857	26.24
840.028	30.06
840.199	30.8
840.37	30.29
840.54	33.81
840.711	38.61
840.882	37.43
841.053	36.3
841.223	37.74
841.394	36.32
841.564	31.32
841.735	32.41
841.906	31.75
842.076	26.26
842.247	30.62
842.417	23.31
842.588	25.57
842.758	25.54
842.929	24.17
843.099	19.89
843.27	25.01
843.44	30.01
843.611	32.79
843.781	28.83
843.951	33.65
844.122	30.32
844.292	35.01
844.462	31.37
844.633	36.02
844.803	36.81
844.973	39.18
845.144	41.05
845.314	35.71
845.484	30.63
845.654	37.42
845.824	36.49
845.995	35.19
846.165	31.1
846.335	25.07
846.505	18.08
846.675	16.26
846.845	24.51
847.015	19.84
847.185	25.35
847.355	31.88
847.525	24.91
847.695	16.59
847.865	20.86
848.035	25.23
848.205	31.49
848.375	42.45
848.545	48.14
848.715	36.46
848.884	33.25
849.054	35.8
849.224	41.25
849.394	45.85
849.564	49.58
849.733	44.53
849.903	41.92
850.073	38.43
850.243	32.21
850.412	26.92
850.582	22.04
850.752	21.66
850.921	24.74
851.091	19.36
851.26	17.62
851.43	17.25
851.599	15.23
851.769	11.99
851.939	19.04
852.108	24.84
852.278	22.45
852.447	30.92
852.616	30.04
852.786	25.88
852.955	26.37
853.125	34.2
853.294	41.79
853.463	43.07
853.633	42.66
853.802	43
853.971	41.91
854.141	39.24
854.31	35.47
854.479	44.19
854.648	37.1
854.818	38.11
854.987	32.59
855.156	26.86
855.325	32.08
855.494	35.39
855.663	35.91
855.832	35.08
856.001	39.93
856.171	39.42
856.34	33.93
856.509	41.38
856.678	39.85
856.847	43.7
857.016	44.06
857.185	47.26
857.353	54.37
857.522	51.19
857.691	47.06
857.86	52.99
858.029	53.67
858.198	52.61
858.367	54.9
858.535	53.21
858.704	55.54
858.873	56.6
859.042	48.26
859.21	45.68
859.379	41.03
859.548	44.1
859.717	45.56
859.885	43.95
860.054	48.41
860.222	44.92
860.391	44.68
860.56	39.58
860.728	44.57
860.897	44.44
861.065	37.81
861.234	45.26
861.402	41.21
861.571	41.38
861.739	39.23
861.908	44.12
862.076	39.2
862.244	42.14
862.413	41.85
862.581	33.74
862.749	42.16
862.918	46.78
863.086	43.13
863.254	49.88
863.423	48.75
863.591	53.32
863.759	40.31
863.927	32.48
864.096	40.35
864.264	35.82
864.432	36.49
864.6	36.67
864.768	26.23
864.936	25.62
865.104	23.72
865.272	32.43
865.44	27.21
865.608	33.36
865.776	45.03
865.944	42.17
866.112	38.83
866.28	35.09
866.448	34.56
866.616	40.55
866.784	36.62
866.952	32.22
867.12	17.67
867.288	15.91
867.455	16.17
867.623	18.41
867.791	17.79
867.959	25.18
868.127	24.57
868.294	28.99
868.462	27.95
868.63	37.57
868.797	58.04
868.965	57.54
869.133	58.48
869.3	63.69
869.468	65.45
869.636	57.62
869.803	53.91
869.971	60.67
870.138	53.86
870.306	51.15
870.473	46.01
870.641	35.29
870.808	31.63
870.975	37.52
871.143	38.15
871.31	33.42
871.478	36.47
871.645	39.58
871.812	32.11
871.98	39.02
872.147	43.12
872.314	44.58
872.482	39.5
872.649	32.84
872.816	33.1
872.983	25.24
873.15	30.48
873.318	24.95
873.485	29.85
873.652	29.73
873.819	23.72
873.986	28.92
874.153	26.96
874.32	32.24
874.487	37.83
874.654	35.66
874.821	45.98
874.988	45.41
875.155	48.48
875.322	41.94
875.489	44.86
875.656	55.59
875.823	49.64
875.99	51.38
876.157	60.57
876.324	60.74
876.49	62.78
876.657	61.06
876.824	59.47
876.991	61.32
877.157	59.67
877.324	60.55
877.491	49.72
877.658	48.33
877.824	46.29
877.991	41.06
878.157	43.66
878.324	44.2
878.491	31.73
878.657	33.18
878.824	31.84
878.99	35.66
879.157	35.43
879.323	31.08
879.49	33.3
879.656	35.28
879.823	30.34
879.989	27.93
880.156	22.33
880.322	29.03
880.488	32.85
880.655	35.19
880.821	34.86
880.987	35.43
881.154	40.38
881.32	38.71
881.486	40.56
881.652	42.38
881.819	42.21
881.985	41.81
882.151	38.52
882.317	35.79
882.483	33.02
882.649	31.91
882.816	31.3
882.982	31.39
883.148	33.05
883.314	31.97
883.48	30.29
883.646	30.44
883.812	31.55
883.978	31.45
884.144	32.02
884.31	33.99
884.476	35.08
884.642	36.66
884.807	36.32
884.973	34.99
885.139	34.86
885.305	36.36
885.471	35.32
885.637	36.1
885.802	36.44
885.968	37.05
886.134	35.44
886.3	36.67
886.465	35.59
886.631	35.17
886.797	37.05
886.962	39.08
887.128	40.95
887.293	42.84
887.459	43.33
887.625	42.73
887.79	43.11
887.956	44.47
888.121	43.7
888.287	46.03
888.452	48.06
888.618	46.48
888.783	44.77
