Data from CB_016_Reflection_1.txt Node
Date: Wed Nov 11 19:06:05 EST 2015
User: robert
Spectrometer: USB4E03001
Autoset integration time: false
Trigger mode: 4
Integration Time (sec): 1.000000E-1
Scans to average: 15
Electric dark correction enabled: true
Nonlinearity correction enabled: false
Boxcar width: 5
Stray light correction enabled: false
XAxis mode: Wavelengths
Stop averaging: false
Number of Pixels in Spectrum: 3648
>>>>>Begin Spectral Data<<<<<
177.566	10.07
177.785	28.06
178.005	-8.29
178.225	-262.91
178.445	0.23
178.665	90.48
178.885	54.35
179.105	147.96
179.324	127.24
179.544	-9.65
179.764	-27.91
179.984	-65.06
180.204	175.52
180.423	-26.78
180.643	-13.58
180.863	879.76
181.083	4106.61
181.302	624.73
181.522	-1935.33
181.742	-679.29
181.961	563.56
182.181	226.65
182.401	288.89
182.621	1696.51
182.84	307.65
183.06	373.28
183.279	368.86
183.499	993.5
183.719	901.18
183.938	626.96
184.158	1398.49
184.377	-1968.01
184.597	-516.03
184.816	-386.68
185.036	-939.3
185.256	-341.41
185.475	1057.12
185.695	-13929.89
185.914	447.8
186.134	278.75
186.353	249.99
186.572	299.67
186.792	211.46
187.011	164.44
187.231	144.01
187.45	239.09
187.67	204.16
187.889	2111.39
188.108	645.79
188.328	1273.92
188.547	-1104.78
188.766	-1827.95
188.986	897.66
189.205	-48468.18
189.424	1270.46
189.644	8436.36
189.863	336.77
190.082	293.73
190.302	210.57
190.521	141.93
190.74	104.13
190.959	84.74
191.178	97.72
191.398	85.84
191.617	84.39
191.836	79.98
192.055	93.81
192.274	97.88
192.494	108.96
192.713	87.99
192.932	91.48
193.151	106.62
193.37	125.32
193.589	105.12
193.808	118.66
194.027	117.25
194.246	137.42
194.465	163.84
194.685	164.14
194.904	182.8
195.123	521.05
195.342	2344.17
195.561	269.6
195.78	219.17
195.999	252.48
196.218	1147.05
196.436	-393.69
196.655	-2185.01
196.874	846.79
197.093	766.11
197.312	1070.22
197.531	-261.84
197.75	-457.71
197.969	-136.51
198.188	-109.8
198.407	-139.87
198.625	-448.14
198.844	-504.68
199.063	-343.77
199.282	-314.17
199.501	-124.52
199.719	-128.59
199.938	-3271.48
200.157	310.19
200.376	369.09
200.594	554.52
200.813	-15497.14
201.032	1262.73
201.251	312.68
201.469	319.19
201.688	296.6
201.907	328.7
202.125	282.05
202.344	181.72
202.563	216.59
202.781	266.32
203	210.52
203.218	163.82
203.437	156.1
203.656	124.65
203.874	102.93
204.093	85.71
204.311	60.61
204.53	48.97
204.748	26.08
204.967	2.39
205.185	13.87
205.404	49.87
205.622	66.51
205.841	70.68
206.059	130.47
206.278	165.7
206.496	151.73
206.715	304.25
206.933	332.61
207.151	266.49
207.37	330.52
207.588	291.3
207.806	488.97
208.025	756.45
208.243	795.62
208.461	284.36
208.68	278.62
208.898	332.17
209.116	371
209.335	369.84
209.553	-968.62
209.771	378.91
209.989	-3895.65
210.208	-1479.27
210.426	-417.63
210.644	-192.87
210.862	-127.83
211.081	-173.93
211.299	-194.48
211.517	-353.06
211.735	-284.63
211.953	-575
212.171	-234.2
212.39	-1409.72
212.608	-3957.03
212.826	603.91
213.044	332.78
213.262	286.81
213.48	192.13
213.698	360.06
213.916	-1455.02
214.134	-343.29
214.352	-782.58
214.57	613.79
214.788	180.17
215.006	195.55
215.224	161.08
215.442	138.17
215.66	142.34
215.878	187.18
216.096	145.71
216.314	113.53
216.532	131.53
216.75	132.23
216.968	127.67
217.185	205.01
217.403	225.24
217.621	287.9
217.839	401.89
218.057	6926.13
218.275	-2673.49
218.492	-331.35
218.71	-255.2
218.928	-344.86
219.146	-188.64
219.363	-109.97
219.581	-190.26
219.799	-232.77
220.017	-150.79
220.234	-88.36
220.452	-150.77
220.67	-140.88
220.887	-275.82
221.105	-183.89
221.323	-218.38
221.54	-88.61
221.758	-104.17
221.976	-88.39
222.193	-69.65
222.411	-119.25
222.629	-186.9
222.846	-154.63
223.064	-128.47
223.281	-160.21
223.499	-196.65
223.716	-196.9
223.934	-941.83
224.151	-1401.82
224.369	-755.13
224.586	392350
224.804	-1834.79
225.021	-813.28
225.239	-587.31
225.456	-463.22
225.674	-365.9
225.891	-134.49
226.108	-121.65
226.326	-70.56
226.543	-64.02
226.76	-62.45
226.978	-35.45
227.195	-25.29
227.413	-17.5
227.63	-9.99
227.847	-13.25
228.064	-3.93
228.282	-0.24
228.499	8.65
228.716	12.35
228.934	12.85
229.151	14.01
229.368	13.46
229.585	10.56
229.802	10.68
230.02	9.12
230.237	10.13
230.454	11.49
230.671	11.37
230.888	5.22
231.105	-1.61
231.323	-3.06
231.54	-6.54
231.757	-11.96
231.974	-8.51
232.191	-7.3
232.408	-11.27
232.625	-17.29
232.842	-26.85
233.059	-26.32
233.276	-19.2
233.493	-15.15
233.71	-21.52
233.927	-17.89
234.144	-8.8
234.361	-8.35
234.578	-12.34
234.795	-8.68
235.012	-10.83
235.229	-6.6
235.446	-14.68
235.663	-24.34
235.879	-17.38
236.096	-9.35
236.313	-17.08
236.53	-24.65
236.747	-17.56
236.964	-10.67
237.181	-13.69
237.397	-1.99
237.614	-5.49
237.831	-8.7
238.048	-8.75
238.264	-13.22
238.481	-23.04
238.698	-20.71
238.915	-20.15
239.131	-28.22
239.348	-36.03
239.565	-34.97
239.781	-36.04
239.998	-28.45
240.215	-18.37
240.431	-14.15
240.648	-12.93
240.865	-10.2
241.081	-7.8
241.298	-5.23
241.514	-2.86
241.731	0.23
241.947	2.91
242.164	5.17
242.38	3.64
242.597	2.77
242.814	2.7
243.03	2.43
243.246	4.22
243.463	4.34
243.679	3.44
243.896	3.78
244.112	1.44
244.329	-0.79
244.545	-4.98
244.762	-4.48
244.978	-3.19
245.194	-4.07
245.411	-3.18
245.627	-5.04
245.843	-2.37
246.06	1.8
246.276	4.6
246.492	5.36
246.709	5.49
246.925	6.23
247.141	6.05
247.357	5.81
247.574	6.56
247.79	7.46
248.006	7.92
248.222	8.17
248.439	7.34
248.655	6.15
248.871	6.14
249.087	7.04
249.303	6.17
249.519	6.93
249.736	5.2
249.952	2.6
250.168	-1.2
250.384	-0.66
250.6	-1.63
250.816	-3.32
251.032	-3.73
251.248	-2.96
251.464	-5.08
251.68	-3.57
251.896	-2.42
252.112	-1.81
252.328	0.42
252.544	0.23
252.76	-0.51
252.976	-2.51
253.192	-2.26
253.408	-4.4
253.624	-4.93
253.84	-3.65
254.056	-3.67
254.272	-7.64
254.487	-9.58
254.703	-9.36
254.919	-8.27
255.135	-12.84
255.351	-10.75
255.567	-11.38
255.782	-8.62
255.998	-7.93
256.214	-10.67
256.43	-8.53
256.646	-6.25
256.861	-4.26
257.077	-6.22
257.293	-6.53
257.508	-2.63
257.724	-4.42
257.94	-5.61
258.155	-5.4
258.371	-3.37
258.587	-2.21
258.802	-2.76
259.018	-2.32
259.234	-1.09
259.449	0.49
259.665	1
259.88	0.72
260.096	1.27
260.312	2.19
260.527	2.97
260.743	2.73
260.958	2.59
261.174	2.64
261.389	2.4
261.605	2.03
261.82	1.45
262.036	1.21
262.251	1.94
262.466	2.41
262.682	-0.43
262.897	-1.49
263.113	-3.06
263.328	-4.26
263.543	-5.24
263.759	-5.07
263.974	-6.55
264.189	-7.68
264.405	-9.69
264.62	-12.3
264.835	-14.05
265.051	-9.26
265.266	-10.1
265.481	-8.93
265.696	-7.72
265.912	-8.33
266.127	-9.26
266.342	-7.87
266.557	-8.28
266.773	-7.04
266.988	-6.68
267.203	-6.63
267.418	-6.71
267.633	-8.99
267.848	-9.39
268.064	-8.54
268.279	-8.81
268.494	-8.69
268.709	-8.59
268.924	-6.79
269.139	-6.07
269.354	-6.44
269.569	-3.9
269.784	-4.77
269.999	-3.61
270.214	-3.13
270.429	-4.49
270.644	-2.01
270.859	-1.79
271.074	-1.29
271.289	-1.47
271.504	-1.02
271.719	-0.22
271.934	-0.89
272.149	0.83
272.363	1.35
272.578	1.36
272.793	4.11
273.008	3.67
273.223	4.72
273.438	4.9
273.653	5.49
273.867	6.3
274.082	6.05
274.297	5.35
274.512	4
274.726	5.43
274.941	5.74
275.156	3.32
275.371	3.04
275.585	0.91
275.8	1.08
276.015	-0.65
276.229	-3.01
276.444	-1.94
276.659	-2.06
276.873	-3.03
277.088	-4.09
277.302	-4.45
277.517	-4.42
277.732	-5.53
277.946	-5.68
278.161	-7.66
278.375	-8.14
278.59	-7.29
278.804	-6.18
279.019	-5.41
279.233	-2.37
279.448	-2.62
279.662	-2.15
279.877	-2.69
280.091	-0.79
280.306	1.05
280.52	3.04
280.735	2.15
280.949	3.1
281.163	3.76
281.378	3.36
281.592	2.78
281.806	3.09
282.021	2.79
282.235	3.58
282.449	3.29
282.664	3.08
282.878	2.81
283.092	4.84
283.307	3.98
283.521	3.45
283.735	4.58
283.949	3.1
284.164	2.87
284.378	4.02
284.592	4.02
284.806	3.32
285.02	3.15
285.234	4.05
285.449	4.86
285.663	5.34
285.877	4.23
286.091	2.71
286.305	3.58
286.519	4.47
286.733	4.38
286.947	4.45
287.161	4.99
287.375	4.69
287.589	3.32
287.803	2.22
288.017	2.52
288.231	2.5
288.445	3.65
288.659	2.61
288.873	2.01
289.087	1.83
289.301	2.45
289.515	3.07
289.729	2.51
289.943	2.37
290.157	2.55
290.371	1.78
290.584	2.76
290.798	3.74
291.012	4.6
291.226	4.96
291.44	5.13
291.654	4.81
291.867	5.21
292.081	6.27
292.295	6.26
292.509	6.41
292.722	6.61
292.936	4.81
293.15	4.56
293.364	4.29
293.577	3.49
293.791	2.95
294.005	2.44
294.218	2.03
294.432	2.87
294.645	4.75
294.859	4.85
295.073	4.22
295.286	5.06
295.5	4.95
295.713	5.99
295.927	6.85
296.14	7.08
296.354	7.34
296.568	7.51
296.781	6.9
296.994	4.96
297.208	4.37
297.421	5.63
297.635	5.84
297.848	5.79
298.062	5.61
298.275	4.84
298.489	3.28
298.702	3.62
298.915	3.46
299.129	4.11
299.342	5.38
299.555	5.36
299.769	4.63
299.982	4.29
300.195	5.05
300.409	4.54
300.622	6.17
300.835	7.92
301.048	7.39
301.262	7.11
301.475	6.95
301.688	7.27
301.901	8.56
302.115	8.42
302.328	8.41
302.541	6.9
302.754	7.58
302.967	5.14
303.18	5.26
303.393	5.41
303.607	5.58
303.82	5.41
304.033	4.7
304.246	3.76
304.459	3.36
304.672	4.17
304.885	4.51
305.098	2.76
305.311	4.71
305.524	3.67
305.737	3.96
305.95	5.23
306.163	5.74
306.376	6.92
306.589	5.94
306.802	5.99
307.015	5.1
307.228	4.35
307.44	7.14
307.653	6.8
307.866	8.89
308.079	8.31
308.292	8.41
308.505	8.99
308.718	8.72
308.93	9.57
309.143	10.05
309.356	10.78
309.569	11.7
309.781	10.56
309.994	9.07
310.207	7.79
310.42	8.57
310.632	7.85
310.845	7.3
311.058	7.4
311.27	7.23
311.483	8.58
311.696	8.01
311.908	7.85
312.121	7.61
312.333	8.24
312.546	8.51
312.759	7.75
312.971	6.62
313.184	6.37
313.396	7
313.609	7.34
313.821	5.22
314.034	5.76
314.246	6.44
314.459	6.6
314.671	7.33
314.884	8.47
315.096	8.89
315.309	8.89
315.521	8.46
315.733	6.71
315.946	7.16
316.158	7.8
316.371	6.92
316.583	6.14
316.795	6.92
317.008	6.33
317.22	6.01
317.432	6.55
317.644	6.69
317.857	7.31
318.069	8.35
318.281	7.57
318.494	7.47
318.706	7.32
318.918	8.03
319.13	6.66
319.342	8.01
319.555	6.8
319.767	5.25
319.979	6.86
320.191	4.88
320.403	4.41
320.615	4.44
320.827	4.68
321.039	6.07
321.252	5.8
321.464	6.14
321.676	4.11
321.888	4.34
322.1	5.28
322.312	3.79
322.524	5.92
322.736	6.75
322.948	7.02
323.16	8.23
323.372	7.15
323.584	7.34
323.796	8.28
324.007	9.13
324.219	9
324.431	8.96
324.643	9.19
324.855	9.33
325.067	9.76
325.279	9.28
325.491	8.35
325.702	9.12
325.914	8.88
326.126	8.51
326.338	8.09
326.55	9.33
326.761	10.65
326.973	11.32
327.185	11.4
327.396	9.46
327.608	10.4
327.82	11.83
328.032	11.98
328.243	12.48
328.455	12.96
328.666	13.94
328.878	12.47
329.09	11.97
329.301	11.81
329.513	11.72
329.725	13.99
329.936	13.97
330.148	12.36
330.359	12.27
330.571	11.23
330.782	11.39
330.994	11.66
331.205	12.08
331.417	12.7
331.628	13.36
331.84	13.59
332.051	13.67
332.262	13.06
332.474	14.85
332.685	16.38
332.897	17.04
333.108	16.24
333.319	16.78
333.531	18.32
333.742	17.69
333.953	18.19
334.165	18.39
334.376	17.34
334.587	17.89
334.799	17.47
335.01	16.5
335.221	16.97
335.432	18.38
335.644	18.08
335.855	17.71
336.066	17.87
336.277	17.14
336.488	17.63
336.7	18.36
336.911	19.14
337.122	18.89
337.333	19.21
337.544	19.62
337.755	19.66
337.966	19.07
338.177	19.13
338.388	18.91
338.599	18.99
338.811	19.75
339.022	19.41
339.233	18.35
339.444	18.3
339.655	20.21
339.866	19.71
340.076	18.59
340.287	20.33
340.498	20.59
340.709	20.92
340.92	20.96
341.131	19.95
341.342	19.97
341.553	20.25
341.764	20.07
341.975	18.13
342.185	18.31
342.396	19.01
342.607	17.54
342.818	17.15
343.029	17.07
343.239	17.43
343.45	17.39
343.661	18.3
343.872	18.69
344.082	18.76
344.293	18.7
344.504	19.58
344.714	19.28
344.925	19.79
345.136	19.66
345.346	20.71
345.557	20.77
345.768	20.89
345.978	20.49
346.189	20.38
346.399	20.19
346.61	20.25
346.821	19.64
347.031	19.44
347.242	19.41
347.452	19.78
347.663	19.09
347.873	19.77
348.084	19.76
348.294	19.58
348.504	19.46
348.715	19.79
348.925	20.05
349.136	20.01
349.346	20.03
349.557	19.96
349.767	19.63
349.977	18.65
350.188	17.3
350.398	17.46
350.608	17.53
350.819	17.5
351.029	17.18
351.239	17.08
351.449	16.28
351.66	16.53
351.87	16.66
352.08	16.73
352.29	17.84
352.501	18.66
352.711	18.17
352.921	17.86
353.131	18.2
353.341	19.17
353.552	19.21
353.762	20.27
353.972	19.63
354.182	19.93
354.392	18.57
354.602	17.94
354.812	17.29
355.022	17.74
355.232	18.34
355.442	17.45
355.652	16.55
355.862	16.69
356.072	16.76
356.282	17.76
356.492	17.83
356.702	18.84
356.912	19.13
357.122	18.37
357.332	17.95
357.542	17.7
357.752	18.47
357.962	18.39
358.171	18.2
358.381	17.09
358.591	17.14
358.801	16.69
359.011	16.68
359.221	15.96
359.43	16.85
359.64	17.03
359.85	17.62
360.06	17.98
360.269	18.29
360.479	18.48
360.689	19.15
360.899	19.19
361.108	19.69
361.318	19.72
361.528	20.17
361.737	19.95
361.947	19.81
362.156	18.9
362.366	18.36
362.576	17.59
362.785	17.2
362.995	17.06
363.204	16.56
363.414	16.02
363.623	15.62
363.833	15.62
364.042	15.65
364.252	15.63
364.461	16.53
364.671	16.52
364.88	17.51
365.09	17.01
365.299	17.43
365.509	16.96
365.718	17.18
365.927	17.12
366.137	16.59
366.346	16.62
366.555	16.06
366.765	15.41
366.974	15.8
367.183	15.49
367.393	16.54
367.602	16.03
367.811	16.53
368.021	16.37
368.23	16.8
368.439	17.11
368.648	17.61
368.857	18.41
369.067	18.06
369.276	17.83
369.485	18.13
369.694	17.82
369.903	18
370.112	17.53
370.321	16.7
370.531	16
370.74	15.54
370.949	14.85
371.158	14.69
371.367	15.02
371.576	14.44
371.785	14.26
371.994	14
372.203	13.35
372.412	13.35
372.621	13.95
372.83	14.8
373.039	15.21
373.248	15.96
373.457	15.75
373.666	15.47
373.874	15.9
374.083	16.14
374.292	16.06
374.501	16.59
374.71	16.52
374.919	16.53
375.128	16.06
375.336	15.39
375.545	14
375.754	13.3
375.963	12.78
376.171	12.84
376.38	11.86
376.589	11.82
376.798	11.65
377.006	11.54
377.215	11.49
377.424	11.82
377.632	12.33
377.841	13.14
378.05	12.97
378.258	13.18
378.467	13.11
378.675	13.46
378.884	13.29
379.093	12.87
379.301	13.53
379.51	12.9
379.718	12.38
379.927	11.78
380.135	11.43
380.344	12.25
380.552	12.9
380.761	12.82
380.969	12.99
381.177	13.33
381.386	13.4
381.594	12.77
381.803	12.86
382.011	12.83
382.219	13.11
382.428	12.87
382.636	12.76
382.845	12.42
383.053	12.16
383.261	11.49
383.469	11.35
383.678	11.54
383.886	11.61
384.094	11.71
384.302	11.68
384.511	11.44
384.719	11.59
384.927	12.13
385.135	11.82
385.343	11.74
385.552	12.32
385.76	12.1
385.968	11.86
386.176	11.56
386.384	11.57
386.592	11.53
386.8	11.27
387.008	10.96
387.216	10.12
387.424	10.29
387.633	10.27
387.841	10.08
388.049	9.99
388.257	10.15
388.465	10.58
388.672	10.49
388.88	10.08
389.088	10.26
389.296	10.4
389.504	10.39
389.712	9.94
389.92	9.73
390.128	9.48
390.336	9.04
390.544	8.68
390.751	8.44
390.959	8.45
391.167	9.02
391.375	9.14
391.583	9.12
391.79	9.01
391.998	9.12
392.206	8.95
392.414	9.32
392.621	9.76
392.829	9.99
393.037	9.92
393.244	9.79
393.452	9.52
393.66	9.06
393.867	9.25
394.075	9.43
394.283	9.39
394.49	9.88
394.698	9.69
394.905	9.71
395.113	9.5
395.32	9.68
395.528	9.71
395.735	9.77
395.943	9.96
396.15	9.41
396.358	9.27
396.565	9.4
396.773	8.96
396.98	8.73
397.188	8.68
397.395	8.67
397.602	8.39
397.81	8.55
398.017	8.39
398.225	8.63
398.432	9.01
398.639	9.31
398.847	9.31
399.054	9.31
399.261	9.1
399.468	9.16
399.676	9.26
399.883	9.16
400.09	9.1
400.297	8.74
400.505	8.3
400.712	8.49
400.919	8.28
401.126	8.24
401.333	8.01
401.54	8.35
401.748	8.02
401.955	7.66
402.162	7.78
402.369	7.65
402.576	8.03
402.783	8.27
402.99	7.95
403.197	7.91
403.404	7.48
403.611	7.63
403.818	7.36
404.025	7.56
404.232	7.85
404.439	7.69
404.646	7.66
404.853	7.59
405.06	7.79
405.267	7.82
405.474	7.87
405.681	8.22
405.887	8.37
406.094	8.76
406.301	8.62
406.508	8.71
406.715	9.01
406.922	8.95
407.128	8.82
407.335	8.66
407.542	8.56
407.749	8.36
407.955	8.2
408.162	8.24
408.369	8.02
408.575	8.08
408.782	8.14
408.989	7.96
409.195	8.21
409.402	8.39
409.609	8.33
409.815	8.51
410.022	8.34
410.228	8.32
410.435	8.22
410.642	8.24
410.848	8.15
411.055	7.95
411.261	7.76
411.468	7.57
411.674	7.57
411.881	7.32
412.087	7.29
412.294	7.82
412.5	7.91
412.706	7.75
412.913	7.31
413.119	7.38
413.326	7.18
413.532	7.13
413.738	7.23
413.945	7.01
414.151	7.4
414.357	7.32
414.564	7.03
414.77	6.89
414.976	6.91
415.182	7.2
415.389	7.55
415.595	7.88
415.801	7.94
416.007	8.05
416.214	7.93
416.42	7.62
416.626	7.55
416.832	7.56
417.038	7.58
417.244	7.4
417.45	7.5
417.657	7.17
417.863	7.08
418.069	7.07
418.275	7.02
418.481	7.26
418.687	7.27
418.893	7.22
419.099	7.24
419.305	7.38
419.511	7.73
419.717	7.76
419.923	7.81
420.129	7.84
420.335	7.83
420.541	7.79
420.746	7.85
420.952	8.04
421.158	8.11
421.364	8.05
421.57	7.98
421.776	7.78
421.982	7.52
422.187	7.49
422.393	7.49
422.599	7.63
422.805	7.59
423.01	7.55
423.216	7.38
423.422	7.32
423.628	7.32
423.833	7.27
424.039	7.46
424.245	7.68
424.45	7.73
424.656	7.56
424.862	7.49
425.067	7.66
425.273	7.75
425.478	7.8
425.684	7.87
425.889	7.79
426.095	7.8
426.301	7.64
426.506	7.56
426.712	7.51
426.917	7.74
427.123	7.8
427.328	7.47
427.533	7.24
427.739	7.14
427.944	7.09
428.15	7.36
428.355	7.5
428.561	7.55
428.766	7.42
428.971	7.34
429.177	7.24
429.382	7.12
429.587	7.24
429.793	7.1
429.998	7.16
430.203	7.11
430.408	6.84
430.614	6.71
430.819	6.73
431.024	6.74
431.229	6.97
431.434	7.15
431.64	7.1
431.845	7.02
432.05	7.34
432.255	7.24
432.46	7.38
432.665	7.48
432.87	7.58
433.076	7.59
433.281	7.6
433.486	7.51
433.691	7.1
433.896	7.17
434.101	7.32
434.306	7.33
434.511	7.27
434.716	7.1
434.921	7.16
435.126	7.11
435.331	6.91
435.535	7.07
435.74	7.05
435.945	7.35
436.15	7.2
436.355	7.27
436.56	6.93
436.765	6.97
436.97	7.07
437.174	7.04
437.379	6.99
437.584	7.07
437.789	6.99
437.993	7.06
438.198	7.12
438.403	7.39
438.608	7.21
438.812	7.4
439.017	7.57
439.222	7.55
439.426	7.52
439.631	7.51
439.836	7.53
440.04	7.5
440.245	7.47
440.45	7.37
440.654	7.43
440.859	7.37
441.063	7.26
441.268	7.16
441.472	7.22
441.677	7.17
441.881	7.15
442.086	7.25
442.29	7.4
442.495	7.38
442.699	7.3
442.904	7.1
443.108	7.14
443.312	7.1
443.517	7.12
443.721	7.11
443.925	7.19
444.13	7.27
444.334	7.22
444.538	7.15
444.743	7.23
444.947	7.27
445.151	7.33
445.356	7.46
445.56	7.48
445.764	7.5
445.968	7.39
446.173	7.32
446.377	7.22
446.581	7.22
446.785	7.14
446.989	7.12
447.193	7.13
447.398	7.09
447.602	7.03
447.806	7.13
448.01	7.02
448.214	7.04
448.418	7.12
448.622	7.21
448.826	7.15
449.03	7.3
449.234	7.12
449.438	7.15
449.642	7.16
449.846	7
450.05	6.76
450.254	7
450.458	7.01
450.662	6.87
450.866	6.74
451.069	6.74
451.273	6.68
451.477	6.88
451.681	6.96
451.885	6.8
452.089	6.85
452.292	6.97
452.496	7.05
452.7	7.02
452.904	7.19
453.107	7.21
453.311	7.17
453.515	6.95
453.719	6.94
453.922	6.81
454.126	7.01
454.33	6.98
454.533	6.92
454.737	6.83
454.94	6.64
455.144	6.4
455.348	6.54
455.551	6.57
455.755	6.72
455.958	6.49
456.162	6.44
456.365	6.28
456.569	6.4
456.772	6.42
456.976	6.17
457.179	6.38
457.383	6.58
457.586	6.39
457.79	6.41
457.993	6.33
458.196	6.41
458.4	6.43
458.603	6.51
458.807	6.62
459.01	6.66
459.213	6.7
459.417	6.71
459.62	6.69
459.823	6.79
460.026	6.85
460.23	6.9
460.433	6.98
460.636	7.03
460.839	7.01
461.042	6.87
461.246	6.94
461.449	6.99
461.652	6.93
461.855	6.84
462.058	6.86
462.261	6.84
462.464	6.81
462.668	6.77
462.871	6.63
463.074	6.55
463.277	6.73
463.48	6.7
463.683	6.64
463.886	6.77
464.089	6.86
464.292	6.79
464.495	6.63
464.698	6.8
464.901	7.05
465.104	7.05
465.306	7.15
465.509	7.05
465.712	7.15
465.915	7.41
466.118	7.49
466.321	7.28
466.524	7.38
466.726	7.54
466.929	7.37
467.132	6.98
467.335	7.16
467.538	7.03
467.74	7.06
467.943	7.05
468.146	6.95
468.348	6.78
468.551	7.01
468.754	6.97
468.956	6.9
469.159	6.95
469.362	7.15
469.564	7.15
469.767	7.24
469.969	7.35
470.172	7.3
470.375	7.21
470.577	7.16
470.78	7.19
470.982	7.3
471.185	7.29
471.387	7.34
471.59	7.37
471.792	7.31
471.995	7.35
472.197	7.21
472.399	7.19
472.602	7.21
472.804	7.37
473.007	7.25
473.209	7.21
473.411	7.21
473.614	7.06
473.816	6.87
474.018	6.85
474.22	6.79
474.423	6.79
474.625	6.68
474.827	6.73
475.03	6.5
475.232	6.61
475.434	6.55
475.636	6.36
475.838	6.33
476.04	6.4
476.243	6.48
476.445	6.56
476.647	6.57
476.849	6.55
477.051	6.55
477.253	6.57
477.455	6.61
477.657	6.54
477.859	6.72
478.061	6.86
478.263	6.93
478.465	6.9
478.667	6.93
478.869	6.98
479.071	6.9
479.273	6.9
479.475	6.96
479.677	6.81
479.879	6.81
480.081	6.73
480.283	6.69
480.485	6.71
480.686	6.59
480.888	6.42
481.09	6.26
481.292	6.42
481.494	6.31
481.695	6.24
481.897	6.45
482.099	6.49
482.301	6.7
482.502	6.87
482.704	6.84
482.906	6.95
483.107	7.01
483.309	7.09
483.511	7.08
483.712	7.14
483.914	7.14
484.115	7.08
484.317	7.1
484.519	7.04
484.72	6.95
484.922	6.99
485.123	6.95
485.325	6.95
485.526	6.95
485.728	6.94
485.929	7
486.131	7.12
486.332	7.11
486.534	7.13
486.735	7.13
486.936	7.16
487.138	7.15
487.339	7.21
487.541	7.23
487.742	7.19
487.943	7.21
488.144	7.13
488.346	7.09
488.547	7.18
488.748	7.21
488.95	7.2
489.151	7.18
489.352	7.15
489.553	7.1
489.755	7.07
489.956	7.09
490.157	7.07
490.358	7.09
490.559	7.09
490.76	6.98
490.961	6.95
491.163	6.92
491.364	6.95
491.565	6.92
491.766	6.97
491.967	7.01
492.168	7.11
492.369	7.08
492.57	7.05
492.771	7.05
492.972	7.01
493.173	6.99
493.374	7.06
493.575	7
493.776	6.99
493.976	6.93
494.177	6.88
494.378	6.76
494.579	6.73
494.78	6.8
494.981	6.85
495.182	6.93
495.382	6.88
495.583	6.9
495.784	6.99
495.985	7.03
496.185	7.03
496.386	6.91
496.587	6.92
496.788	6.9
496.988	6.88
497.189	6.87
497.39	6.89
497.59	6.9
497.791	6.81
497.992	6.82
498.192	6.88
498.393	6.86
498.593	6.96
498.794	6.95
498.994	7.06
499.195	7.01
499.395	7.01
499.596	6.95
499.796	7.01
499.997	7.08
500.197	7.01
500.398	7.02
500.598	7.11
500.799	7.2
500.999	7.15
501.199	7.4
501.4	7.48
501.6	7.51
501.801	7.61
502.001	7.65
502.201	7.68
502.402	7.84
502.602	7.72
502.802	7.83
503.002	7.91
503.203	7.93
503.403	7.73
503.603	7.69
503.803	7.65
504.003	7.55
504.204	7.58
504.404	7.77
504.604	7.66
504.804	7.86
505.004	7.8
505.204	7.79
505.404	7.68
505.604	7.61
505.804	7.63
506.005	7.63
506.205	7.81
506.405	7.79
506.605	7.76
506.805	7.78
507.005	7.75
507.204	7.8
507.404	7.71
507.604	7.92
507.804	8.02
508.004	8.37
508.204	8.54
508.404	8.49
508.604	8.39
508.804	8.37
509.003	8.51
509.203	8.66
509.403	8.55
509.603	8.68
509.803	8.76
510.002	8.83
510.202	8.66
510.402	8.64
510.602	8.59
510.801	8.77
511.001	8.87
511.201	8.8
511.4	8.84
511.6	9.09
511.8	9.05
511.999	8.91
512.199	8.99
512.398	8.96
512.598	9.02
512.797	9.42
512.997	9.36
513.197	9.35
513.396	9.51
513.596	9.51
513.795	9.5
513.994	9.54
514.194	9.75
514.393	9.88
514.593	10.07
514.792	10.06
514.992	9.97
515.191	10.14
515.39	10.22
515.59	10.51
515.789	10.53
515.988	10.53
516.188	10.75
516.387	11.03
516.586	11.06
516.786	11.03
516.985	11.15
517.184	11.2
517.383	11.21
517.582	11.22
517.782	11.12
517.981	11.27
518.18	11.32
518.379	11.3
518.578	11.25
518.777	11.34
518.976	11.41
519.176	11.44
519.375	11.51
519.574	11.72
519.773	11.86
519.972	11.8
520.171	11.94
520.37	12
520.569	12.06
520.768	12.14
520.967	12.2
521.166	12.26
521.365	12.41
521.564	12.47
521.762	12.34
521.961	12.31
522.16	12.53
522.359	12.44
522.558	12.71
522.757	12.96
522.956	13.03
523.154	13.13
523.353	13.29
523.552	13.34
523.751	13.48
523.949	13.8
524.148	14.02
524.347	14.13
524.546	14.4
524.744	14.46
524.943	14.48
525.142	14.54
525.34	14.64
525.539	14.74
525.737	14.88
525.936	14.86
526.135	14.87
526.333	14.9
526.532	15.06
526.73	15.09
526.929	15.11
527.127	15.26
527.326	15.34
527.524	15.34
527.723	15.47
527.921	15.52
528.12	15.67
528.318	15.67
528.516	15.82
528.715	15.85
528.913	15.92
529.112	16.02
529.31	16.02
529.508	16.1
529.707	16.15
529.905	16.18
530.103	16.24
530.301	16.23
530.5	16.38
530.698	16.33
530.896	16.3
531.094	16.33
531.293	16.44
531.491	16.44
531.689	16.48
531.887	16.66
532.085	16.77
532.283	16.85
532.481	17.07
532.68	17.2
532.878	17.27
533.076	17.45
533.274	17.52
533.472	17.52
533.67	17.65
533.868	17.72
534.066	17.76
534.264	17.75
534.462	17.86
534.66	17.85
534.858	17.77
535.056	17.86
535.253	17.96
535.451	17.96
535.649	18.1
535.847	18.17
536.045	18.2
536.243	18.31
536.441	18.47
536.638	18.41
536.836	18.49
537.034	18.62
537.232	18.67
537.43	18.64
537.627	18.66
537.825	18.71
538.023	18.78
538.22	18.94
538.418	18.88
538.616	18.86
538.813	18.99
539.011	18.96
539.209	18.98
539.406	19
539.604	19.08
539.801	19.12
539.999	19.13
540.196	19.19
540.394	19.28
540.591	19.5
540.789	19.54
540.986	19.7
541.184	19.77
541.381	19.88
541.579	19.94
541.776	20.02
541.974	20.16
542.171	20.22
542.368	20.24
542.566	20.23
542.763	20.18
542.96	20.33
543.158	20.28
543.355	20.37
543.552	20.36
543.75	20.39
543.947	20.38
544.144	20.41
544.341	20.45
544.539	20.56
544.736	20.46
544.933	20.39
545.13	20.33
545.327	20.37
545.524	20.39
545.722	20.44
545.919	20.65
546.116	20.76
546.313	20.83
546.51	20.92
546.707	20.9
546.904	21.11
547.101	21.29
547.298	21.31
547.495	21.53
547.692	21.63
547.889	21.56
548.086	21.51
548.283	21.64
548.48	21.6
548.677	21.49
548.874	21.69
549.07	21.8
549.267	21.92
549.464	21.9
549.661	21.74
549.858	21.82
550.055	21.85
550.251	21.9
550.448	21.93
550.645	21.99
550.842	22.15
551.038	22.11
551.235	22.22
551.432	22.16
551.628	22.34
551.825	22.48
552.022	22.63
552.218	22.81
552.415	23.04
552.612	22.79
552.808	22.69
553.005	22.81
553.201	22.93
553.398	22.98
553.594	23.18
553.791	23.2
553.987	23.24
554.184	23.25
554.38	23.33
554.577	23.24
554.773	23.55
554.97	23.78
555.166	23.7
555.362	23.74
555.559	23.75
555.755	23.53
555.952	23.73
556.148	23.73
556.344	23.61
556.541	23.73
556.737	23.67
556.933	23.62
557.129	23.61
557.326	23.64
557.522	23.69
557.718	23.72
557.914	24.05
558.11	23.83
558.307	23.93
558.503	23.9
558.699	23.91
558.895	24.12
559.091	24.16
559.287	24.17
559.483	24.25
559.679	24.09
559.876	24.26
560.072	24.14
560.268	24.28
560.464	24.16
560.66	24.26
560.856	24.09
561.052	23.97
561.247	24.28
561.443	24.29
561.639	24.55
561.835	24.74
562.031	24.65
562.227	24.67
562.423	24.99
562.619	25.21
562.815	25.45
563.01	25.57
563.206	25.59
563.402	25.51
563.598	25.58
563.793	25.45
563.989	25.59
564.185	25.58
564.381	25.66
564.576	25.53
564.772	25.49
564.968	25.17
565.163	25.41
565.359	25.6
565.555	25.57
565.75	25.66
565.946	25.77
566.141	25.69
566.337	25.7
566.532	25.67
566.728	25.82
566.923	25.97
567.119	26.15
567.314	26.22
567.51	26.25
567.705	26.37
567.901	26.36
568.096	26.47
568.292	26.44
568.487	26.69
568.682	26.82
568.878	26.8
569.073	26.85
569.268	26.94
569.464	26.84
569.659	26.74
569.854	26.66
570.05	26.64
570.245	26.48
570.44	26.57
570.635	26.49
570.831	26.54
571.026	26.73
571.221	26.78
571.416	26.78
571.611	26.83
571.806	26.89
572.002	26.98
572.197	27.07
572.392	27.24
572.587	27.24
572.782	27.28
572.977	27.37
573.172	27.23
573.367	27.32
573.562	27.46
573.757	27.31
573.952	27.38
574.147	27.3
574.342	27.37
574.537	27.43
574.732	27.43
574.927	27.48
575.121	27.4
575.316	27.41
575.511	27.15
575.706	27.07
575.901	27.2
576.096	27.24
576.29	27.33
576.485	27.35
576.68	27.24
576.875	27.25
577.069	27.15
577.264	27.17
577.459	27.05
577.654	27.51
577.848	27.39
578.043	27.34
578.238	27.48
578.432	27.43
578.627	27.54
578.821	27.44
579.016	27.64
579.21	27.54
579.405	27.76
579.6	27.96
579.794	27.75
579.989	27.71
580.183	27.68
580.378	27.69
580.572	27.84
580.766	27.96
580.961	28.14
581.155	28.03
581.35	27.89
581.544	27.57
581.738	27.53
581.933	27.2
582.127	27.3
582.321	27.68
582.516	27.54
582.71	27.31
582.904	27.04
583.099	26.98
583.293	26.86
583.487	27.23
583.681	27.41
583.875	27.34
584.07	27.43
584.264	27.65
584.458	27.67
584.652	27.88
584.846	28.08
585.04	28.19
585.234	28.01
585.428	28.23
585.623	28.18
585.817	28.25
586.011	28.26
586.205	28.09
586.399	28.08
586.593	28.01
586.787	27.74
586.981	27.96
587.174	28.01
587.368	28.5
587.562	28.74
587.756	28.8
587.95	28.77
588.144	29.23
588.338	29.58
588.532	29.74
588.725	29.81
588.919	30.06
589.113	29.97
589.307	30.09
589.501	30.02
589.694	29.8
589.888	29.76
590.082	29.67
590.275	29.46
590.469	29.59
590.663	29.5
590.856	29.29
591.05	29.47
591.244	29.29
591.437	29.22
591.631	29.09
591.824	29.14
592.018	29.17
592.212	29.21
592.405	29.13
592.599	29.01
592.792	29.08
592.986	29.54
593.179	29.26
593.372	29.69
593.566	29.68
593.759	30.11
593.953	30.08
594.146	30.52
594.339	30.64
594.533	30.58
594.726	30.58
594.92	30.7
595.113	30.35
595.306	30.57
595.499	30.59
595.693	30.57
595.886	30.36
596.079	30.64
596.272	30.5
596.466	30.72
596.659	30.83
596.852	30.93
597.045	30.86
597.238	31.05
597.431	30.94
597.624	30.84
597.818	30.97
598.011	30.94
598.204	30.77
598.397	30.7
598.59	30.49
598.783	30.47
598.976	30.42
599.169	30.29
599.362	30.17
599.555	30.04
599.748	30.16
599.941	30.05
600.134	29.99
600.326	30.06
600.519	30.05
600.712	30.23
600.905	30.48
601.098	30.55
601.291	30.66
601.483	30.58
601.676	30.84
601.869	30.66
602.062	30.93
602.255	30.95
602.447	30.94
602.64	31.06
602.833	31.04
603.025	31.15
603.218	31.41
603.411	31.44
603.603	31.68
603.796	31.58
603.989	31.77
604.181	31.6
604.374	31.69
604.566	31.64
604.759	31.62
604.951	31.76
605.144	31.5
605.336	31.25
605.529	31.32
605.721	31.19
605.914	31.17
606.106	31.17
606.299	31.08
606.491	31.02
606.683	31.04
606.876	30.99
607.068	30.67
607.26	30.93
607.453	31.08
607.645	31.14
607.837	31.04
608.03	31.52
608.222	31.37
608.414	31.41
608.606	31.27
608.799	31.44
608.991	31.69
609.183	31.64
609.375	31.45
609.567	31.48
609.759	31.3
609.952	31.41
610.144	31.1
610.336	30.87
610.528	31
610.72	31.15
610.912	31.03
611.104	30.85
611.296	30.96
611.488	30.8
611.68	30.63
611.872	30.67
612.064	30.46
612.256	30.71
612.448	30.99
612.64	30.97
612.832	30.89
613.023	30.72
613.215	30.26
613.407	30.13
613.599	30.1
613.791	30.28
613.983	30.3
614.174	30.49
614.366	30.19
614.558	30.41
614.75	30.43
614.941	30.66
615.133	30.74
615.325	30.95
615.516	31.19
615.708	31.47
615.9	31.41
616.091	31.57
616.283	31.57
616.475	31.47
616.666	31.09
616.858	30.91
617.049	30.77
617.241	30.87
617.432	30.91
617.624	31.14
617.815	31
618.007	30.91
618.198	30.94
618.39	30.98
618.581	31.1
618.773	31.33
618.964	31.77
619.155	31.77
619.347	31.91
619.538	32.29
619.729	32
619.921	32.27
620.112	32.23
620.303	31.84
620.494	31.77
620.686	31.93
620.877	31.9
621.068	31.81
621.259	31.84
621.451	31.87
621.642	31.54
621.833	31.78
622.024	31.78
622.215	31.67
622.406	31.92
622.597	31.84
622.788	31.76
622.98	31.95
623.171	31.54
623.362	31.59
623.553	31.42
623.744	31.56
623.935	31.57
624.126	31.46
624.317	31.79
624.508	31.8
624.698	32.05
624.889	31.93
625.08	31.62
625.271	31.8
625.462	31.7
625.653	31.86
625.844	32.08
626.034	31.99
626.225	31.86
626.416	31.69
626.607	31.76
626.798	31.7
626.988	31.9
627.179	31.93
627.37	32.12
627.56	32.1
627.751	32.21
627.942	31.83
628.132	32.02
628.323	32.12
628.514	32.47
628.704	32.49
628.895	32.74
629.085	32.58
629.276	32.71
629.466	32.8
629.657	32.78
629.847	32.66
630.038	32.95
630.228	32.59
630.419	32.47
630.609	32.05
630.8	32.13
630.99	32.14
631.181	32.18
631.371	32.18
631.561	31.75
631.752	31.84
631.942	31.76
632.132	31.88
632.323	32.21
632.513	32.45
632.703	32.58
632.893	32.44
633.084	32.12
633.274	32.45
633.464	32.17
633.654	32.25
633.844	32.45
634.034	32.55
634.225	32.59
634.415	32.43
634.605	32.42
634.795	32.76
634.985	32.65
635.175	32.95
635.365	32.83
635.555	33
635.745	33.32
635.935	33.09
636.125	33.07
636.315	32.76
636.505	32.99
636.695	32.94
636.885	32.68
637.075	32.75
637.265	32.53
637.455	32.26
637.644	32.34
637.834	32.46
638.024	32.79
638.214	32.88
638.404	33.07
638.593	32.75
638.783	32.89
638.973	33.17
639.163	33.35
639.352	33.67
639.542	33.71
639.732	33.58
639.921	33.73
640.111	33.48
640.301	33.44
640.49	33.51
640.68	33.82
640.87	33.69
641.059	33.6
641.249	33.66
641.438	33.48
641.628	33.93
641.817	34.06
642.007	33.69
642.196	34.22
642.386	34.04
642.575	34.04
642.764	34.13
642.954	34.54
643.143	34.38
643.333	34.27
643.522	34.07
643.711	33.96
643.901	33.89
644.09	33.73
644.279	33.5
644.469	34.13
644.658	34.33
644.847	34
645.036	33.82
645.226	33.91
645.415	33.82
645.604	33.95
645.793	33.82
645.982	33.84
646.171	33.67
646.361	33.24
646.55	32.86
646.739	32.42
646.928	32.96
647.117	33.06
647.306	33
647.495	33.3
647.684	33.21
647.873	33.5
648.062	33.39
648.251	33.73
648.44	33.64
648.629	33.63
648.818	33.54
649.007	33.06
649.196	32.7
649.384	32.75
649.573	32.63
649.762	32.86
649.951	32.32
650.14	32.24
650.328	32.37
650.517	32.6
650.706	32.59
650.895	33.1
651.083	32.91
651.272	33.3
651.461	33.33
651.65	33.29
651.838	33.18
652.027	33.59
652.216	33.94
652.404	33.6
652.593	34.11
652.781	34.12
652.97	33.86
653.158	33.94
653.347	33.43
653.535	33.37
653.724	32.97
653.912	32.75
654.101	32.53
654.289	32.5
654.478	32.71
654.666	32.09
654.855	31.95
655.043	32.01
655.231	32
655.42	32.46
655.608	32.3
655.796	32.62
655.985	33.01
656.173	32.95
656.361	32.37
656.55	32.37
656.738	32.31
656.926	32.83
657.114	33.05
657.302	33.27
657.491	33.42
657.679	33.65
657.867	34.21
658.055	34.09
658.243	34.35
658.431	34.63
658.619	34.65
658.807	34.71
658.996	34.41
659.184	34.51
659.372	34.88
659.56	35.3
659.748	35.29
659.936	35.01
660.124	35.05
660.311	34.98
660.499	35.26
660.687	35.38
660.875	35.47
661.063	35.48
661.251	35.5
661.439	34.95
661.627	34.34
661.814	34.64
662.002	34.31
662.19	34.46
662.378	34.28
662.565	34.11
662.753	34.46
662.941	34.98
663.129	34.79
663.316	34.41
663.504	34.51
663.692	34.03
663.879	33.79
664.067	33.99
664.254	34.19
664.442	34.47
664.63	34.48
664.817	33.9
665.005	34.07
665.192	34.2
665.38	34.28
665.567	34.23
665.755	34.54
665.942	34.53
666.13	34.55
666.317	34.18
666.504	34.36
666.692	34.7
666.879	35.09
667.067	34.8
667.254	35.08
667.441	34.82
667.629	35.01
667.816	34.81
668.003	34.43
668.19	34.86
668.378	35.19
668.565	34.96
668.752	35.15
668.939	35.05
669.127	34.4
669.314	33.95
669.501	34.44
669.688	34.31
669.875	34.63
670.062	34.94
670.249	34.44
670.436	34.29
670.623	34.48
670.81	33.67
670.997	33.43
671.184	34.13
671.371	34.66
671.558	34.18
671.745	34.15
671.932	34.34
672.119	34.36
672.306	34.96
672.493	34.55
672.68	34.33
672.867	34.62
673.054	34.27
673.24	33.86
673.427	33.35
673.614	33.1
673.801	33.17
673.988	32.68
674.174	32.87
674.361	32.76
674.548	32.98
674.734	33.4
674.921	33.38
675.108	34.01
675.294	34.46
675.481	34.58
675.668	34.86
675.854	34.65
676.041	34.95
676.227	34.5
676.414	33.99
676.601	33.85
676.787	33.61
676.974	33.91
677.16	33.48
677.347	33.57
677.533	33.74
677.719	34.46
677.906	35
678.092	34.68
678.279	34.7
678.465	35.19
678.651	35.57
678.838	35.81
679.024	35.58
679.21	35.89
679.397	35.77
679.583	35.76
679.769	36.03
679.955	36.01
680.142	36.2
680.328	36.58
680.514	36.26
680.7	36.75
680.886	36.33
681.073	36.99
681.259	37.07
681.445	37.6
681.631	37.74
681.817	37.26
682.003	37.24
682.189	37.46
682.375	37.69
682.561	37.74
682.747	37.43
682.933	37.43
683.119	36.71
683.305	36.31
683.491	35.61
683.677	35.59
683.863	35.54
684.049	35.44
684.235	35.36
684.42	34.5
684.606	34.8
684.792	34.29
684.978	34.45
685.164	33.93
685.349	34.8
685.535	34.63
685.721	34.56
685.907	34.34
686.092	34.4
686.278	34.73
686.464	35.26
686.649	34.52
686.835	34.33
687.021	34.3
687.206	34.71
687.392	34.2
687.577	34.31
687.763	34.58
687.948	34.88
688.134	34.74
688.319	34.48
688.505	34
688.69	34.5
688.876	34.84
689.061	34.97
689.247	35.7
689.432	35.47
689.618	35.85
689.803	35.38
689.988	34.97
690.174	35.02
690.359	35.23
690.544	35.63
690.73	35.46
690.915	35.1
691.1	35.21
691.285	34.57
691.471	34.8
691.656	34.95
691.841	35.35
692.026	35.46
692.211	35.53
692.396	34.96
692.582	34.76
692.767	34.66
692.952	35.17
693.137	35.18
693.322	35.45
693.507	35.63
693.692	34.79
693.877	34.69
694.062	34.83
694.247	35
694.432	35.7
694.617	36.36
694.802	36.82
694.987	36.12
695.172	36.09
695.357	36.41
695.541	36.32
695.726	37
695.911	36.97
696.096	37.68
696.281	37.23
696.466	36.86
696.65	36.47
696.835	37.03
697.02	37.19
697.204	36.95
697.389	36.55
697.574	36.84
697.759	36.42
697.943	35.92
698.128	35.23
698.312	35.67
698.497	35.87
698.682	35.66
698.866	35.28
699.051	35.42
699.235	35.43
699.42	35.56
699.604	34.77
699.789	35.13
699.973	35.5
700.158	35.83
700.342	35.88
700.527	35.67
700.711	35.82
700.895	36.11
701.08	35.9
701.264	35.67
701.448	35.19
701.633	35.48
701.817	35.14
702.001	35.46
702.186	35.22
702.37	34.81
702.554	34.83
702.738	35.56
702.923	35.49
703.107	35.5
703.291	35.81
703.475	36.76
703.659	36.88
703.843	36.51
704.027	36.12
704.212	36.57
704.396	36.24
704.58	36.21
704.764	35.52
704.948	35.17
705.132	35.94
705.316	36.04
705.5	35.8
705.684	35.79
705.868	36.28
706.052	36.1
706.235	35.98
706.419	36.85
706.603	37.18
706.787	37.91
706.971	37.68
707.155	37.17
707.339	37.2
707.522	37.07
707.706	37.46
707.89	37.03
708.074	37.48
708.257	37.32
708.441	36.56
708.625	35.66
708.808	35.12
708.992	35.43
709.176	35.68
709.359	35.5
709.543	35.41
709.727	35.3
709.91	35.61
710.094	35.95
710.277	35.96
710.461	36.55
710.644	37.11
710.828	36.8
711.011	36.4
711.195	35.96
711.378	36.29
711.562	36.55
711.745	36.76
711.928	36.5
712.112	35.92
712.295	35.89
712.478	36.22
712.662	36.26
712.845	36.49
713.028	36.21
713.212	35.83
713.395	35.96
713.578	35.43
713.761	34.57
713.945	34.87
714.128	34.8
714.311	34.9
714.494	34.46
714.677	34.46
714.86	34.17
715.043	34.69
715.227	35.39
715.41	34.66
715.593	35.04
715.776	35.61
715.959	35.77
716.142	35.8
716.325	36.07
716.508	35.78
716.691	36.13
716.874	35.9
717.057	36.03
717.239	36.48
717.422	36.62
717.605	36.4
717.788	35.98
717.971	35.6
718.154	35.76
718.337	35.27
718.519	35.32
718.702	34.72
718.885	35.42
719.068	35.19
719.25	34.27
719.433	33.71
719.616	33.61
719.798	33.55
719.981	33.48
720.164	33.31
720.346	33.13
720.529	32.82
720.712	32.56
720.894	32.42
721.077	32.51
721.259	31.95
721.442	32.68
721.624	32.68
721.807	33.47
721.989	32.92
722.172	33.78
722.354	34.26
722.537	34.97
722.719	35.39
722.901	34.69
723.084	34.1
723.266	35.29
723.448	35.42
723.631	34.85
723.813	34.19
723.995	35.63
724.178	35.21
724.36	35.06
724.542	34.66
724.724	34.31
724.907	34.34
725.089	34.19
725.271	34.01
725.453	34.46
725.635	35.63
725.817	36.33
725.999	36.2
726.181	36.17
726.364	36.44
726.546	36.43
726.728	35.17
726.91	35.24
727.092	36.08
727.274	36.08
727.456	36.46
727.638	36.37
727.819	35.65
728.001	35.43
728.183	34.68
728.365	33.92
728.547	33.95
728.729	35.28
728.911	36.23
729.093	35.45
729.274	35.8
729.456	35.47
729.638	34.96
729.82	35.11
730.001	34.54
730.183	34.91
730.365	35.49
730.546	35.8
730.728	36.27
730.91	35.83
731.091	36.13
731.273	36.07
731.455	35.71
731.636	35.73
731.818	36.35
731.999	35.97
732.181	37.41
732.362	37.13
732.544	36.8
732.725	36.21
732.907	36.07
733.088	36.2
733.27	35.86
733.451	35.71
733.633	35.85
733.814	35.51
733.995	35.71
734.177	34.52
734.358	34.32
734.539	33.71
734.721	34.19
734.902	34.67
735.083	34.33
735.264	34.64
735.446	35.05
735.627	34.22
735.808	34.72
735.989	35.11
736.17	34.67
736.351	35.08
736.533	35.95
736.714	35.35
736.895	35.18
737.076	35.42
737.257	34.86
737.438	34.22
737.619	35.34
737.8	34.59
737.981	35.66
738.162	36.29
738.343	36.52
738.524	36.54
738.705	36.69
738.886	36.28
739.067	35.75
739.247	35.81
739.428	35.97
739.609	35.96
739.79	36.19
739.971	35.72
740.151	35.88
740.332	35.39
740.513	35.05
740.694	34.59
740.874	33.57
741.055	34.2
741.236	34.21
741.417	34.5
741.597	34.15
741.778	34.41
741.958	33.58
742.139	32.49
742.32	32.88
742.5	33.75
742.681	34.01
742.861	34.6
743.042	35.91
743.222	35.2
743.403	35.08
743.583	35.64
743.764	35.41
743.944	35.62
744.124	35.44
744.305	35.32
744.485	34.97
744.666	35.09
744.846	35.33
745.026	34.3
745.207	35.12
745.387	34.94
745.567	34.25
745.747	33.32
745.928	33.47
746.108	33.64
746.288	32.6
746.468	33.26
746.648	32.95
746.829	32.64
747.009	31.98
747.189	32.28
747.369	31.42
747.549	32.16
747.729	31.65
747.909	31.37
748.089	32.4
748.269	32.29
748.449	31.09
748.629	32.14
748.809	32.35
748.989	32.96
749.169	33.31
749.349	33.85
749.529	33.61
749.709	35.13
749.889	34.63
750.068	33.77
750.248	33.74
750.428	33.96
750.608	33.28
750.788	33.32
750.967	32.8
751.147	32.25
751.327	32.41
751.507	32.94
751.686	33.41
751.866	34.51
752.046	34.48
752.225	36.19
752.405	36.29
752.585	37.42
752.764	36.98
752.944	38.47
753.123	38.03
753.303	38.72
753.482	38.56
753.662	37.3
753.841	36.65
754.021	37.3
754.2	37.6
754.38	37.74
754.559	36.71
754.739	38.12
754.918	36.36
755.097	36.93
755.277	36.25
755.456	35.8
755.635	36.51
755.815	36.92
755.994	36.43
756.173	35.08
756.352	34.5
756.532	35.45
756.711	34.54
756.89	35.03
757.069	36.1
757.248	37.05
757.427	36.8
757.607	36.26
757.786	36
757.965	35.89
758.144	36.25
758.323	37.66
758.502	36.97
758.681	37.86
758.86	39.29
759.039	38.49
759.218	37.26
759.397	38.06
759.576	38.53
759.755	38.56
759.934	39.46
760.113	39.16
760.291	37.67
760.47	38.16
760.649	37.42
760.828	35.43
761.007	36.16
761.186	37.09
761.364	36.7
761.543	36.5
761.722	36.3
761.901	35.7
762.079	35.84
762.258	36.81
762.437	36.5
762.615	36.33
762.794	36.9
762.972	36.61
763.151	35.66
763.33	35.79
763.508	35.89
763.687	36.59
763.865	36.66
764.044	36.69
764.222	36.29
764.401	35.52
764.579	35.13
764.758	35.18
764.936	34.1
765.114	34.61
765.293	34.43
765.471	34.9
765.65	33.59
765.828	33.13
766.006	33.39
766.184	32.8
766.363	34.12
766.541	33.32
766.719	33.63
766.898	34.7
767.076	35.79
767.254	34.91
767.432	34.29
767.61	35.19
767.788	35.38
767.967	34.69
768.145	35.68
768.323	35.14
768.501	37.46
768.679	37.72
768.857	36.89
769.035	34.88
769.213	34.76
769.391	34.35
769.569	33.64
769.747	32.79
769.925	33.68
770.103	31.9
770.281	31.57
770.459	30.38
770.636	30.41
770.814	31.72
770.992	32.68
771.17	34.69
771.348	34.1
771.525	35.42
771.703	36.94
771.881	36.57
772.059	37.04
772.236	37.45
772.414	39.06
772.592	37.42
772.769	35.73
772.947	36.94
773.125	35.49
773.302	35.22
773.48	34.18
773.657	33.98
773.835	34.13
774.013	36.01
774.19	34.76
774.368	32.36
774.545	32.04
774.723	34.08
774.9	31.35
775.077	31.37
775.255	32.46
775.432	30.45
775.61	30.54
775.787	30.62
775.964	29.16
776.142	30.03
776.319	31.6
776.496	32.14
776.674	30.46
776.851	32.28
777.028	32.38
777.205	32.57
777.382	34.97
777.56	34.43
777.737	34.02
777.914	34.1
778.091	33.57
778.268	31.88
778.445	32.44
778.622	31.97
778.8	30.81
778.977	32.17
779.154	49.07
779.331	48.75
779.508	48.13
779.685	46.99
779.862	47.29
780.038	47.91
780.215	47.47
780.392	47.03
780.569	48.21
780.746	47.56
780.923	44.81
781.1	24.36
781.277	26.99
781.453	27.96
781.63	27.24
781.807	27.13
781.984	28.67
782.16	29.54
782.337	29.17
782.514	25.97
782.691	27.66
782.867	28.52
783.044	30.81
783.221	29.55
783.397	27.61
783.574	30.11
783.75	30.95
783.927	26.42
784.103	26.2
784.28	25.69
784.456	28.84
784.633	30.17
784.809	32.14
784.986	29.84
785.162	27.62
785.339	29.65
785.515	27.55
785.692	26.58
785.868	28.7
786.044	30.66
786.221	32.47
786.397	31.69
786.573	28.3
786.749	28.92
786.926	31.09
787.102	31.01
787.278	30.91
787.454	32.11
787.631	31.73
787.807	31.93
787.983	31.32
788.159	28.77
788.335	25.74
788.511	29.06
788.687	27.91
788.863	28.01
789.039	28.25
789.216	28.43
789.392	28.98
789.568	28.25
789.744	27.73
789.919	27.99
790.095	29.63
790.271	32.72
790.447	29.89
790.623	30.14
790.799	29.33
790.975	30.76
791.151	30.6
791.327	30.81
791.502	34.04
791.678	36.88
791.854	34.6
792.03	36.84
792.205	36.32
792.381	38.75
792.557	38.48
792.733	38.94
792.908	37.45
793.084	36.16
793.259	34.54
793.435	29.63
793.611	28.33
793.786	28.27
793.962	25.84
794.137	27.13
794.313	24.11
794.488	23.42
794.664	22.8
794.839	23.95
795.015	24.1
795.19	26.37
795.366	30.71
795.541	30.98
795.716	34.2
795.892	36.07
796.067	36.01
796.242	35.32
796.418	36.21
796.593	37.01
796.768	36.36
796.944	35.15
797.119	33.34
797.294	30.87
797.469	30.29
797.644	28.43
797.82	25.15
797.995	27.03
798.17	28.94
798.345	29.93
798.52	28.49
798.695	29.27
798.87	30.16
799.045	31.67
799.22	33.18
799.395	33.77
799.57	33.64
799.745	34.04
799.92	32.06
800.095	31.61
800.27	30.28
800.445	31.46
800.62	30.64
800.795	30.44
800.97	29.47
801.145	26.7
801.319	24.84
801.494	25.04
801.669	27.26
801.844	26.96
802.018	25.68
802.193	23.33
802.368	24.52
802.543	25.18
802.717	26.35
802.892	23.54
803.067	23.9
803.241	27.45
803.416	26.63
803.59	25.07
803.765	21.58
803.94	23.17
804.114	23.86
804.289	22.45
804.463	22.71
804.638	23.39
804.812	26.86
804.986	28
805.161	26.71
805.335	27.26
805.51	27.58
805.684	30.09
805.858	32.31
806.033	33.26
806.207	36.11
806.381	34.33
806.556	31.03
806.73	30.75
806.904	29.96
807.078	29.47
807.253	30.43
807.427	29.33
807.601	28.71
807.775	28.12
807.949	26.36
808.123	23.24
808.298	25.35
808.472	27.21
808.646	26.6
808.82	27.61
808.994	26.07
809.168	23.66
809.342	28.05
809.516	26.17
809.69	24.12
809.864	26.04
810.038	24.86
810.212	26.33
810.385	24.25
810.559	23.62
810.733	24.86
810.907	22.18
811.081	23.54
811.255	19.73
811.428	24.83
811.602	24.82
811.776	26.15
811.95	26.35
812.123	24.56
812.297	26.92
812.471	26.15
812.644	26.29
812.818	29.98
812.992	30.38
813.165	34.87
813.339	35.87
813.512	36.85
813.686	35.88
813.86	34.87
814.033	33.42
814.207	36.87
814.38	39.65
814.554	40.81
814.727	35.47
814.9	32.75
815.074	29.08
815.247	27.9
815.421	29.98
815.594	30.36
815.767	32.56
815.941	28.06
816.114	22.78
816.287	18.79
816.46	11.31
816.634	16.92
816.807	19.34
816.98	21.02
817.153	22.11
817.327	19.5
817.5	19.34
817.673	21.23
817.846	27.14
818.019	31.33
818.192	33.41
818.365	37.83
818.538	38.2
818.711	40.98
818.884	41.39
819.057	37.88
819.23	37.47
819.403	38.83
819.576	38.02
819.749	36.53
819.922	35.16
820.095	34.95
820.268	31.66
820.441	32.53
820.614	31.75
820.786	31.74
820.959	34.96
821.132	36.2
821.305	34.62
821.477	34.61
821.65	36.07
821.823	36.29
821.996	36.4
822.168	37.78
822.341	38.54
822.514	38.99
822.686	38.05
822.859	37.25
823.031	37.43
823.204	37.36
823.376	37.95
823.549	37.77
823.722	37.61
823.894	37.68
824.067	36.91
824.239	36.26
824.411	36.03
824.584	36.72
824.756	37.66
824.929	37.48
825.101	37.9
825.273	37.13
825.446	36.43
825.618	37.41
825.79	38.03
825.963	38.87
826.135	39.49
826.307	39.17
826.479	39.33
826.652	38.48
826.824	37.97
826.996	38.05
827.168	38.71
827.34	39.23
827.512	38.28
827.684	38.08
827.856	38.95
828.029	38.79
828.201	39.27
828.373	38.75
828.545	38.28
828.717	38.59
828.889	39.46
829.061	39.27
829.232	39.2
829.404	39.06
829.576	37.35
829.748	35.11
829.92	32.17
830.092	30.79
830.264	30.01
830.436	29.26
830.607	29.33
830.779	27.08
830.951	25.23
831.123	24.53
831.294	24.12
831.466	25.04
831.638	24.27
831.809	25.29
831.981	23.99
832.153	26.49
832.324	27.45
832.496	29.11
832.667	29.15
832.839	30.06
833.011	31.39
833.182	34.24
833.354	35.52
833.525	36.42
833.697	38.4
833.868	39.18
834.039	37.21
834.211	37.91
834.382	34.96
834.554	34.42
834.725	35.96
834.896	34.82
835.068	32.68
835.239	31.08
835.41	32.25
835.581	31.49
835.753	30.46
835.924	31.42
836.095	31.95
836.266	32.62
836.438	34.39
836.609	32.33
836.78	32.69
836.951	30.79
837.122	32.32
837.293	30.35
837.464	28.38
837.635	30.32
837.806	28.16
837.977	21.47
838.148	22.76
838.319	21.5
838.49	22.88
838.661	23.08
838.832	24.41
839.003	25.24
839.174	22.2
839.345	24.06
839.516	22.16
839.687	21.22
839.857	26.52
840.028	22.37
840.199	23.4
840.37	18.77
840.54	18.2
840.711	18.74
840.882	16.11
841.053	17.61
841.223	16.71
841.394	13.27
841.564	16.25
841.735	18.35
841.906	14.78
842.076	15.9
842.247	20.05
842.417	16.46
842.588	13.6
842.758	14.39
842.929	18.11
843.099	17.77
843.27	24.27
843.44	17.3
843.611	13.52
843.781	17.38
843.951	14.43
844.122	10.11
844.292	15.55
844.462	14.53
844.633	8.45
844.803	6.68
844.973	5.49
845.144	6.15
845.314	6.14
845.484	9.25
845.654	8.93
845.824	-6.04
845.995	-1.1
846.165	-6.49
846.335	4.86
846.505	8.38
846.675	3.21
846.845	6.43
847.015	-7.37
847.185	8.59
847.355	4.24
847.525	-4.91
847.695	1.35
847.865	0.25
848.035	1.78
848.205	0.99
848.375	8.27
848.545	4.83
848.715	3.43
848.884	-5.17
849.054	-26.09
849.224	-22.37
849.394	-2.94
849.564	14
849.733	1.17
849.903	9.76
850.073	-7.27
850.243	-13.12
850.412	-2.66
850.582	1.95
850.752	-1.34
850.921	15.65
851.091	12.59
851.26	21.06
851.43	-9.73
851.599	15.09
851.769	1.56
851.939	3.75
852.108	9.33
852.278	13.81
852.447	3.15
852.616	23.51
852.786	28.35
852.955	38.15
853.125	20.8
853.294	30.34
853.463	32.49
853.633	28.55
853.802	31.7
853.971	27.6
854.141	27.63
854.31	35.01
854.479	27.74
854.648	21.65
854.818	8.49
854.987	12.29
855.156	3.35
855.325	-4.62
855.494	-4.86
855.663	-4.46
855.832	-10.64
856.001	-11.22
856.171	-17.7
856.34	-11.52
856.509	-25.72
856.678	-23.53
856.847	-19.77
857.016	5.09
857.185	23.03
857.353	23.17
857.522	7.86
857.691	12.3
857.86	-2.44
858.029	2.59
858.198	-7.13
858.367	-0.02
858.535	-4.98
858.704	-13.45
858.873	-37.67
859.042	-80.28
859.21	-75
859.379	-71.79
859.548	-76
859.717	-61.11
859.885	-51.97
860.054	-31.67
860.222	-9.16
860.391	-3.91
860.56	14.15
860.728	24.41
860.897	37.42
861.065	24.99
861.234	38.42
861.402	40.99
861.571	37.02
861.739	33.43
861.908	26.43
862.076	11.86
862.244	8.43
862.413	-7.74
862.581	-6.06
862.749	-13.74
862.918	-14.84
863.086	-37.88
863.254	-59.23
863.423	-77.58
863.591	-49.83
863.759	-69.84
863.927	-46.02
864.096	-31.83
864.264	-71.95
864.432	-84.69
864.6	-91.25
864.768	-64.85
864.936	-36.55
865.104	-13.38
865.272	-18.91
865.44	-37.42
865.608	-30.8
865.776	-51.76
865.944	-62.72
866.112	-32.96
866.28	-14.01
866.448	-15.3
866.616	-15.53
866.784	-22.02
866.952	-25.16
867.12	-38.35
867.288	-24.78
867.455	-20.99
867.623	-23.71
867.791	4.61
867.959	-2.69
868.127	-53.04
868.294	-32.29
868.462	-27.21
868.63	-18.14
868.797	-17.39
868.965	-2.76
869.133	-7.48
869.3	-3.01
869.468	7.48
869.636	-1.57
869.803	11.13
869.971	33.01
870.138	28.28
870.306	29.06
870.473	28.08
870.641	20.03
870.808	22.2
870.975	20.98
871.143	19.82
871.31	-1.76
871.478	-17.05
871.645	-29.52
871.812	-31.16
871.98	-28.18
872.147	-21.44
872.314	-14.45
872.482	-24.57
872.649	-35.33
872.816	-19.87
872.983	-27.3
873.15	-13.78
873.318	-3.83
873.485	-11.54
873.652	-10.84
873.819	-7.71
873.986	-25
874.153	-25.56
874.32	-24.03
874.487	-26.68
874.654	-21.41
874.821	-26.59
874.988	-26.87
875.155	-17.52
875.322	-13.27
875.489	-14.9
875.656	-4.3
875.823	4.21
875.99	13.52
876.157	32.09
876.324	37.59
876.49	31.74
876.657	32.18
876.824	33.92
876.991	17.86
877.157	35.81
877.324	31.34
877.491	29.23
877.658	32.02
877.824	30.43
877.991	12.52
878.157	5.25
878.324	20.56
878.491	15.67
878.657	27.56
878.824	48.99
878.99	21.77
879.157	19.6
879.323	18.99
879.49	25.89
879.656	26.1
879.823	29.55
879.989	34.47
880.156	28.23
880.322	41.02
880.488	30.84
880.655	33.08
880.821	35.06
880.987	39.75
881.154	41.17
881.32	46
881.486	46.86
881.652	45.79
881.819	42.95
881.985	42.81
882.151	41.04
882.317	44.18
882.483	42.15
882.649	39
882.816	35.74
882.982	35.31
883.148	33.65
883.314	32.03
883.48	31.48
883.646	31.28
883.812	30.71
883.978	30.71
884.144	30.19
884.31	29.56
884.476	31.28
884.642	32.84
884.807	31.69
884.973	29.9
885.139	30.66
885.305	31.21
885.471	31.75
885.637	33.86
885.802	32.24
885.968	31.53
886.134	31.49
886.3	29.76
886.465	26.32
886.631	28.01
886.797	28.23
886.962	25.62
887.128	25.69
887.293	20.81
887.459	15.3
887.625	12.16
887.79	10.37
887.956	10.68
888.121	7.38
888.287	12.78
888.452	8.06
888.618	4.37
888.783	4.21
