Data from CB_035_Reflection_21-31-53-977.txt Node
Date: Wed Nov 11 21:31:53 EST 2015
User: robert
Spectrometer: USB4E03001
Autoset integration time: false
Trigger mode: 4
Integration Time (sec): 1.000000E-1
Scans to average: 15
Electric dark correction enabled: true
Nonlinearity correction enabled: false
Boxcar width: 5
Stray light correction enabled: false
XAxis mode: Wavelengths
Stop averaging: false
Number of Pixels in Spectrum: 3648
>>>>>Begin Spectral Data<<<<<
177.566	-20.35
177.785	480.26
178.005	72.37
178.225	49.83
178.445	44.17
178.665	46.81
178.885	-19.89
179.105	94.04
179.324	103.57
179.544	91.19
179.764	73.9
179.984	1.73
180.204	23.44
180.423	15.2
180.643	30.48
180.863	36.77
181.083	49.45
181.302	36.52
181.522	29.74
181.742	46.41
181.961	51.51
182.181	44.81
182.401	62.23
182.621	56.18
182.84	33.73
183.06	36.64
183.279	41.03
183.499	45.7
183.719	49.14
183.938	50.29
184.158	54.45
184.377	39.79
184.597	51.35
184.816	38.75
185.036	45.23
185.256	64
185.475	75.54
185.695	48
185.914	-10.74
186.134	23.48
186.353	19.7
186.572	-34
186.792	-41.55
187.011	-30.01
187.231	-19.97
187.45	-28.47
187.67	-57.62
187.889	-49.19
188.108	6.83
188.328	18.82
188.547	12.98
188.766	16.5
188.986	38.06
189.205	38.17
189.424	26.06
189.644	10.19
189.863	14.89
190.082	33.67
190.302	24.53
190.521	11.11
190.74	7.25
190.959	-5.58
191.178	7.28
191.398	9.24
191.617	16.88
191.836	21.47
192.055	33.12
192.274	28.43
192.494	35.16
192.713	51.76
192.932	60.52
193.151	54.37
193.37	82.55
193.589	97.51
193.808	117.33
194.027	119.47
194.246	98.93
194.465	87.05
194.685	86.15
194.904	58.63
195.123	35.52
195.342	6.51
195.561	14.21
195.78	8.58
195.999	-5.28
196.218	-7.85
196.436	-14.82
196.655	-28.35
196.874	-27.77
197.093	-2.44
197.312	47.6
197.531	61.59
197.75	80.96
197.969	80.05
198.188	58.29
198.407	40.55
198.625	47.98
198.844	58.87
199.063	50.6
199.282	38.31
199.501	35.02
199.719	15.99
199.938	44.68
200.157	9.54
200.376	28.41
200.594	89.65
200.813	91.46
201.032	87.45
201.251	100.69
201.469	103.55
201.688	91.38
201.907	69.41
202.125	57.74
202.344	40.79
202.563	58.28
202.781	63.78
203	44.68
203.218	36.85
203.437	44.09
203.656	39.16
203.874	36.28
204.093	38.65
204.311	47.14
204.53	44.6
204.748	59.01
204.967	69.6
205.185	82.65
205.404	89.17
205.622	103.25
205.841	87.16
206.059	76.96
206.278	84.51
206.496	91.38
206.715	80.22
206.933	80.58
207.151	71.66
207.37	56.51
207.588	49.54
207.806	45.56
208.025	53.09
208.243	44.04
208.461	62.11
208.68	55.12
208.898	50.13
209.116	51.18
209.335	49.76
209.553	50.12
209.771	70.44
209.989	68.58
210.208	68.44
210.426	58.43
210.644	69.58
210.862	73.46
211.081	102.45
211.299	128.25
211.517	107.86
211.735	83.39
211.953	87.54
212.171	63.7
212.39	48.86
212.608	63.73
212.826	53.75
213.044	57.23
213.262	43.92
213.48	34.57
213.698	18.74
213.916	35.39
214.134	44.65
214.352	65.49
214.57	54.25
214.788	55.97
215.006	25.81
215.224	18.94
215.442	-30.32
215.66	2.92
215.878	-7.31
216.096	15.28
216.314	13.85
216.532	25.42
216.75	17.54
216.968	34.89
217.185	34.34
217.403	46.18
217.621	46.65
217.839	54.58
218.057	51.48
218.275	60.5
218.492	63.91
218.71	49.87
218.928	45.73
219.146	40.78
219.363	34.03
219.581	62.31
219.799	36.32
220.017	44.7
220.234	40.57
220.452	49.96
220.67	44.95
220.887	36.51
221.105	41.29
221.323	31.3
221.54	31.23
221.758	30.54
221.976	17.38
222.193	23.62
222.411	10.84
222.629	9.85
222.846	-5.17
223.064	-24.36
223.281	-23.47
223.499	-10.04
223.716	9.57
223.934	20.45
224.151	15.45
224.369	10.49
224.586	9.21
224.804	21.84
225.021	9.09
225.239	10.41
225.456	34.14
225.674	23.31
225.891	16.44
226.108	10.78
226.326	-9.84
226.543	-10.67
226.76	-13.05
226.978	-18.42
227.195	-20.95
227.413	-3.27
227.63	0.38
227.847	-1.99
228.064	2.18
228.282	2.23
228.499	1.06
228.716	7.37
228.934	10.02
229.151	8.6
229.368	11.07
229.585	13.62
229.802	14.34
230.02	14.05
230.237	12.71
230.454	14.62
230.671	15.89
230.888	15.62
231.105	15.03
231.323	13.45
231.54	18.62
231.757	14.82
231.974	12.87
232.191	8.61
232.408	8.96
232.625	9.02
232.842	8.14
233.059	10.01
233.276	13.34
233.493	15.41
233.71	15.42
233.927	12.62
234.144	16.81
234.361	15.42
234.578	18.02
234.795	18.37
235.012	19.63
235.229	19.48
235.446	20.71
235.663	19.64
235.879	16.87
236.096	18.41
236.313	14.64
236.53	14.68
236.747	15.52
236.964	12.7
237.181	15.93
237.397	15.6
237.614	12.57
237.831	7.13
238.048	12.64
238.264	12.6
238.481	9.06
238.698	13.06
238.915	14.54
239.131	13.09
239.348	14.47
239.565	13.66
239.781	10.3
239.998	14.56
240.215	15.6
240.431	9.68
240.648	13.6
240.865	11.58
241.081	12.79
241.298	12.56
241.514	12.23
241.731	12.98
241.947	12.71
242.164	14.7
242.38	13.04
242.597	11.76
242.814	11.39
243.03	9.93
243.246	12.62
243.463	11.5
243.679	11.73
243.896	13.5
244.112	13.43
244.329	14.85
244.545	13.73
244.762	14.01
244.978	17.36
245.194	19.34
245.411	17.29
245.627	15.54
245.843	16
246.06	14.55
246.276	12.9
246.492	11.66
246.709	10.31
246.925	11.03
247.141	10.83
247.357	9.53
247.574	9.08
247.79	10.32
248.006	10.54
248.222	10.58
248.439	10.91
248.655	11.76
248.871	11.87
249.087	12.21
249.303	12.84
249.519	12.49
249.736	11.77
249.952	12.54
250.168	10.94
250.384	8.97
250.6	7.86
250.816	7.87
251.032	7.53
251.248	9.49
251.464	9.46
251.68	8.71
251.896	9.79
252.112	12.68
252.328	11.53
252.544	11.91
252.76	13.92
252.976	13.64
253.192	13.7
253.408	11.47
253.624	12.63
253.84	12.52
254.056	14.72
254.272	16.43
254.487	15.76
254.703	16.72
254.919	18
255.135	16.26
255.351	17.81
255.567	16.51
255.782	16.86
255.998	14.51
256.214	12.56
256.43	10.63
256.646	9.51
256.861	7.46
257.077	7.54
257.293	5.52
257.508	7.48
257.724	8.75
257.94	9.05
258.155	9.67
258.371	8.15
258.587	9.84
258.802	9.62
259.018	9.77
259.234	9.29
259.449	9.61
259.665	10.34
259.88	9.94
260.096	9.24
260.312	9.18
260.527	9.6
260.743	10.56
260.958	10.31
261.174	9.7
261.389	9.64
261.605	10.81
261.82	11.4
262.036	11.85
262.251	12
262.466	12.97
262.682	13.79
262.897	13.6
263.113	12.79
263.328	12.36
263.543	12.37
263.759	12.46
263.974	12.43
264.189	11.42
264.405	8.75
264.62	7.06
264.835	7.38
265.051	7.79
265.266	8.64
265.481	9.71
265.696	11.01
265.912	10.92
266.127	10.87
266.342	11.76
266.557	10.88
266.773	12.31
266.988	14.4
267.203	11.31
267.418	10.99
267.633	11.42
267.848	11.35
268.064	10.12
268.279	11.42
268.494	10.5
268.709	10.65
268.924	11.81
269.139	11.13
269.354	10.23
269.569	11.69
269.784	12.13
269.999	11.4
270.214	11.24
270.429	12.62
270.644	12.92
270.859	13.93
271.074	13.22
271.289	13.78
271.504	14.68
271.719	14.22
271.934	13.81
272.149	13.83
272.363	14.81
272.578	14.9
272.793	14.88
273.008	13.74
273.223	12.61
273.438	12.19
273.653	12.91
273.867	12.9
274.082	13.81
274.297	14.39
274.512	13.67
274.726	10.88
274.941	12.33
275.156	11.79
275.371	11.3
275.585	11.5
275.8	11.71
276.015	10.15
276.229	9.19
276.444	7.97
276.659	7.96
276.873	8.72
277.088	11.11
277.302	9.09
277.517	8.6
277.732	10.04
277.946	9.67
278.161	10.63
278.375	10.96
278.59	11.54
278.804	12.07
279.019	11.38
279.233	9.85
279.448	8.74
279.662	8.81
279.877	8.49
280.091	7.97
280.306	10.22
280.52	7.73
280.735	7.69
280.949	6.95
281.163	5.9
281.378	5.97
281.592	7.16
281.806	8.3
282.021	7.69
282.235	8.76
282.449	8.73
282.664	7.12
282.878	8.03
283.092	8.39
283.307	9.55
283.521	10.78
283.735	11.65
283.949	11.57
284.164	11.1
284.378	12.34
284.592	12.88
284.806	13.29
285.02	13.7
285.234	14.18
285.449	14.07
285.663	13.93
285.877	14.23
286.091	14.5
286.305	14.38
286.519	14.29
286.733	13.6
286.947	12.57
287.161	12.45
287.375	12.27
287.589	12.36
287.803	11.45
288.017	10.79
288.231	10.64
288.445	11.04
288.659	10.62
288.873	10.82
289.087	11.89
289.301	12.3
289.515	13.1
289.729	13.11
289.943	13.17
290.157	13.76
290.371	13.65
290.584	14.01
290.798	13.89
291.012	14.16
291.226	14.44
291.44	14.05
291.654	14.05
291.867	12.57
292.081	12.25
292.295	12.03
292.509	11.54
292.722	12.12
292.936	10.79
293.15	10.99
293.364	11.2
293.577	11.07
293.791	10.71
294.005	10.48
294.218	12.36
294.432	13.65
294.645	13.75
294.859	13.23
295.073	12.93
295.286	12.92
295.5	12.59
295.713	12.28
295.927	11.4
296.14	11.9
296.354	11.52
296.568	10.67
296.781	10.53
296.994	10.55
297.208	11.6
297.421	11.33
297.635	11.72
297.848	11.14
298.062	11.53
298.275	12.5
298.489	12.3
298.702	13.3
298.915	14.04
299.129	15.2
299.342	15.72
299.555	15.86
299.769	16.69
299.982	16.68
300.195	16.65
300.409	16.63
300.622	16.29
300.835	16.51
301.048	15.73
301.262	15.08
301.475	14.45
301.688	14.21
301.901	13.74
302.115	12.92
302.328	13.35
302.541	13.9
302.754	13.42
302.967	12.88
303.18	13.55
303.393	13.95
303.607	14.57
303.82	13.26
304.033	12.79
304.246	12.36
304.459	12.59
304.672	12.38
304.885	13.92
305.098	14.58
305.311	15.41
305.524	13.95
305.737	14.64
305.95	14.02
306.163	15.3
306.376	16.32
306.589	16.98
306.802	16.41
307.015	17.41
307.228	15.88
307.44	16.12
307.653	16.57
307.866	17.61
308.079	17.01
308.292	17.42
308.505	17.26
308.718	16.76
308.93	16.99
309.143	17.31
309.356	16.78
309.569	17.25
309.781	16.59
309.994	16.17
310.207	15.96
310.42	15.6
310.632	16.14
310.845	16.15
311.058	15.57
311.27	15.4
311.483	15.53
311.696	15.37
311.908	15.52
312.121	15.34
312.333	15.13
312.546	14.66
312.759	14.75
312.971	13.82
313.184	13.44
313.396	14.01
313.609	14.66
313.821	15.13
314.034	15.18
314.246	15.06
314.459	16.02
314.671	16.82
314.884	16.98
315.096	17.03
315.309	15.87
315.521	14.17
315.733	14.22
315.946	13.62
316.158	12.75
316.371	11.95
316.583	11.44
316.795	11.46
317.008	11.46
317.22	12.28
317.432	12.28
317.644	13.83
317.857	16.25
318.069	16.07
318.281	14.13
318.494	15.12
318.706	16.32
318.918	16.64
319.13	16.42
319.342	15.72
319.555	15.91
319.767	15.93
319.979	16.15
320.191	14.95
320.403	16.48
320.615	17.94
320.827	17.8
321.039	16.42
321.252	15.7
321.464	15.77
321.676	15
321.888	15.03
322.1	13.98
322.312	14.19
322.524	15.08
322.736	13.04
322.948	13.94
323.16	13.97
323.372	14.67
323.584	15.96
323.796	16.88
324.007	17.65
324.219	17.96
324.431	19.92
324.643	19.58
324.855	19.54
325.067	20.51
325.279	20.04
325.491	21.42
325.702	21.92
325.914	21.75
326.126	20.88
326.338	20.18
326.55	19.33
326.761	19.4
326.973	19.67
327.185	19.51
327.396	19.49
327.608	19.53
327.82	19.16
328.032	19.37
328.243	19.25
328.455	19.59
328.666	20.34
328.878	20.15
329.09	19.01
329.301	19.19
329.513	19.8
329.725	20
329.936	20.53
330.148	20.29
330.359	18.96
330.571	18.78
330.782	19.71
330.994	19.85
331.205	21.19
331.417	22.86
331.628	22.5
331.84	22.6
332.051	22.62
332.262	22.43
332.474	22.04
332.685	22.82
332.897	22.84
333.108	22.94
333.319	23.25
333.531	23.72
333.742	23.47
333.953	23.43
334.165	23.14
334.376	23.66
334.587	23.54
334.799	23.85
335.01	24.13
335.221	24.54
335.432	23.69
335.644	23.5
335.855	22.5
336.066	22.05
336.277	22.72
336.488	22.67
336.7	21.74
336.911	21.7
337.122	21.78
337.333	21.85
337.544	21.13
337.755	21.7
337.966	21.86
338.177	22.43
338.388	22.16
338.599	22.52
338.811	22.49
339.022	22.98
339.233	23.22
339.444	22.65
339.655	22.52
339.866	23.06
340.076	22.37
340.287	23.4
340.498	23.07
340.709	23.46
340.92	22.91
341.131	22.91
341.342	22.24
341.553	21.93
341.764	21.77
341.975	21.74
342.185	21.94
342.396	21.87
342.607	21.2
342.818	21.1
343.029	20.74
343.239	20.1
343.45	19.83
343.661	19.68
343.872	19.87
344.082	19.83
344.293	20.26
344.504	19.92
344.714	20.51
344.925	20.1
345.136	20.37
345.346	21.48
345.557	21.86
345.768	21.81
345.978	21.88
346.189	22.56
346.399	23.04
346.61	22.81
346.821	22.81
347.031	22.06
347.242	22.44
347.452	22.39
347.663	21.8
347.873	21.64
348.084	22.65
348.294	23.35
348.504	22.27
348.715	21.88
348.925	22.01
349.136	22.24
349.346	21.92
349.557	21.83
349.767	21.58
349.977	20.88
350.188	21.94
350.398	20.92
350.608	20.44
350.819	21.31
351.029	21.64
351.239	21.22
351.449	21.83
351.66	21.3
351.87	21.14
352.08	21.1
352.29	21.57
352.501	20.99
352.711	21.08
352.921	21.35
353.131	20.89
353.341	20.87
353.552	21.22
353.762	20
353.972	21.59
354.182	21
354.392	21.27
354.602	21.14
354.812	20.32
355.022	20.64
355.232	20.68
355.442	21.04
355.652	21.36
355.862	21.18
356.072	20.86
356.282	20.24
356.492	20.61
356.702	20.63
356.912	20.18
357.122	19.95
357.332	20.23
357.542	20.61
357.752	20.64
357.962	20.37
358.171	20.62
358.381	20.91
358.591	20.37
358.801	20.04
359.011	19.55
359.221	20.16
359.43	21.15
359.64	20.42
359.85	20.41
360.06	19.98
360.269	19.84
360.479	19.43
360.689	19.54
360.899	19.95
361.108	20.67
361.318	20.75
361.528	20.72
361.737	19.79
361.947	19.99
362.156	19.46
362.366	19.61
362.576	18.87
362.785	19.18
362.995	19.09
363.204	18.84
363.414	18.38
363.623	18.82
363.833	18.22
364.042	18.38
364.252	18.54
364.461	18.32
364.671	18
364.88	18.98
365.09	18.48
365.299	18.55
365.509	18.88
365.718	18.9
365.927	18.44
366.137	18.5
366.346	18.7
366.555	18.59
366.765	18.88
366.974	18.54
367.183	18.52
367.393	19.27
367.602	19.16
367.811	19.22
368.021	18.52
368.23	18.38
368.439	18.56
368.648	18.65
368.857	18.41
369.067	17.41
369.276	17.5
369.485	17.35
369.694	16.85
369.903	16.71
370.112	16.58
370.321	17.1
370.531	17.31
370.74	17.84
370.949	17.31
371.158	16.84
371.367	17.65
371.576	17.88
371.785	17.79
371.994	17.71
372.203	17.62
372.412	17.85
372.621	17.77
372.83	16.72
373.039	16.4
373.248	16.85
373.457	17.32
373.666	17.3
373.874	17.28
374.083	16.96
374.292	16.39
374.501	16.77
374.71	16.43
374.919	16.61
375.128	17.89
375.336	17.33
375.545	17.19
375.754	17.43
375.963	17.43
376.171	17.22
376.38	17.33
376.589	17.73
376.798	17.53
377.006	17.52
377.215	17.44
377.424	17.09
377.632	16.96
377.841	16.99
378.05	16.62
378.258	16.34
378.467	16.46
378.675	16.38
378.884	16.18
379.093	15.62
379.301	15.48
379.51	15.27
379.718	15.3
379.927	15.41
380.135	15.27
380.344	15.11
380.552	15.39
380.761	14.72
380.969	14.67
381.177	14.76
381.386	15.55
381.594	15.39
381.803	15.29
382.011	14.86
382.219	14.74
382.428	14.94
382.636	14.79
382.845	14.65
383.053	14.77
383.261	15.04
383.469	14.81
383.678	13.96
383.886	14.09
384.094	14.1
384.302	14.46
384.511	14.58
384.719	14.05
384.927	14.29
385.135	14.28
385.343	14.64
385.552	14.35
385.76	14.22
385.968	14.49
386.176	14.48
386.384	14.26
386.592	14.14
386.8	14.34
387.008	14.46
387.216	14.47
387.424	14.7
387.633	14.53
387.841	14.27
388.049	14.25
388.257	14.44
388.465	14.44
388.672	14.55
388.88	14.34
389.088	14.21
389.296	14.27
389.504	13.84
389.712	13.32
389.92	12.93
390.128	12.85
390.336	13.13
390.544	13.14
390.751	12.75
390.959	12.77
391.167	12.55
391.375	12.41
391.583	12.58
391.79	12.63
391.998	12.64
392.206	12.67
392.414	12.56
392.621	12.29
392.829	12.35
393.037	12.54
393.244	12.29
393.452	12.34
393.66	12.12
393.867	11.82
394.075	11.98
394.283	11.86
394.49	11.84
394.698	12.02
394.905	12.09
395.113	11.6
395.32	11.63
395.528	11.71
395.735	11.86
395.943	11.74
396.15	11.77
396.358	11.71
396.565	11.86
396.773	11.82
396.98	11.94
397.188	11.92
397.395	12.07
397.602	11.93
397.81	12.27
398.017	11.91
398.225	11.95
398.432	12.07
398.639	12.06
398.847	11.52
399.054	11.65
399.261	11.27
399.468	11.16
399.676	11.28
399.883	11.17
400.09	10.23
400.297	10.38
400.505	10.12
400.712	9.99
400.919	9.86
401.126	10.05
401.333	9.91
401.54	9.76
401.748	9.64
401.955	9.46
402.162	9.43
402.369	9.8
402.576	9.56
402.783	9.71
402.99	9.36
403.197	9.13
403.404	9.27
403.611	9.56
403.818	9.71
404.025	9.76
404.232	9.82
404.439	9.91
404.646	9.45
404.853	9.43
405.06	9.59
405.267	9.67
405.474	9.71
405.681	9.65
405.887	9.41
406.094	9.5
406.301	9.53
406.508	9.33
406.715	9.3
406.922	9.76
407.128	9.86
407.335	9.7
407.542	9.62
407.749	9.54
407.955	9.58
408.162	9.32
408.369	9
408.575	9.01
408.782	9.28
408.989	9.27
409.195	9.32
409.402	9.29
409.609	9.42
409.815	9.23
410.022	9.33
410.228	9.43
410.435	9.43
410.642	9.41
410.848	9.06
411.055	9.07
411.261	8.88
411.468	8.72
411.674	8.8
411.881	8.75
412.087	8.98
412.294	9.14
412.5	9.12
412.706	9.14
412.913	9.12
413.119	9.42
413.326	9.01
413.532	9.06
413.738	9.01
413.945	8.8
414.151	8.52
414.357	8.37
414.564	8.2
414.77	8.02
414.976	8.13
415.182	8.17
415.389	8.08
415.595	8.13
415.801	8.05
416.007	8.25
416.214	8.2
416.42	8.56
416.626	8.52
416.832	8.65
417.038	8.68
417.244	8.56
417.45	8.46
417.657	8.42
417.863	8.39
418.069	8.26
418.275	8.03
418.481	7.95
418.687	7.93
418.893	8.02
419.099	8.15
419.305	7.9
419.511	7.96
419.717	8.21
419.923	8.19
420.129	8.11
420.335	8.3
420.541	8.37
420.746	8.39
420.952	8.26
421.158	8.08
421.364	7.85
421.57	7.85
421.776	7.89
421.982	7.75
422.187	7.83
422.393	7.75
422.599	7.64
422.805	7.53
423.01	7.63
423.216	7.59
423.422	7.72
423.628	7.71
423.833	7.71
424.039	7.61
424.245	7.64
424.45	7.51
424.656	7.65
424.862	7.61
425.067	7.79
425.273	7.75
425.478	7.62
425.684	7.46
425.889	7.25
426.095	7.39
426.301	7.41
426.506	7.36
426.712	7.33
426.917	7.07
427.123	6.96
427.328	6.73
427.533	6.53
427.739	6.64
427.944	6.8
428.15	7.03
428.355	6.98
428.561	6.97
428.766	6.95
428.971	7.09
429.177	7.38
429.382	7.55
429.587	7.46
429.793	7.57
429.998	7.46
430.203	7.45
430.408	7.34
430.614	7.31
430.819	7.21
431.024	7.27
431.229	7.38
431.434	7.23
431.64	7.38
431.845	7.51
432.05	7.63
432.255	7.63
432.46	7.41
432.665	7.32
432.87	7.4
433.076	7.52
433.281	7.48
433.486	7.28
433.691	7.3
433.896	6.95
434.101	6.93
434.306	6.76
434.511	6.8
434.716	6.86
434.921	7.13
435.126	6.94
435.331	6.77
435.535	6.68
435.74	6.48
435.945	6.23
436.15	6.54
436.355	6.74
436.56	6.94
436.765	6.79
436.97	6.89
437.174	6.71
437.379	6.79
437.584	6.91
437.789	6.82
437.993	7.26
438.198	7.41
438.403	7.26
438.608	7.06
438.812	6.9
439.017	7.09
439.222	7.26
439.426	7.28
439.631	7.22
439.836	7.24
440.04	7.29
440.245	7.02
440.45	7.09
440.654	7.18
440.859	7.11
441.063	7.04
441.268	6.95
441.472	6.81
441.677	6.75
441.881	6.88
442.086	6.86
442.29	6.86
442.495	6.9
442.699	6.86
442.904	6.65
443.108	6.71
443.312	6.67
443.517	6.76
443.721	6.76
443.925	6.69
444.13	6.55
444.334	6.47
444.538	6.35
444.743	6.28
444.947	6.15
445.151	6.09
445.356	6.01
445.56	6.03
445.764	5.99
445.968	5.9
446.173	5.96
446.377	6.05
446.581	6.15
446.785	6.21
446.989	6.23
447.193	6.4
447.398	6.43
447.602	6.42
447.806	6.34
448.01	6.4
448.214	6.52
448.418	6.36
448.622	6.28
448.826	6.02
449.03	5.95
449.234	5.84
449.438	5.76
449.642	5.87
449.846	5.99
450.05	6.2
450.254	6.02
450.458	6.06
450.662	6.29
450.866	6.05
451.069	6.28
451.273	6.17
451.477	6.02
451.681	6.14
451.885	6.11
452.089	5.86
452.292	5.82
452.496	5.88
452.7	5.74
452.904	5.68
453.107	5.86
453.311	5.62
453.515	5.74
453.719	5.99
453.922	5.85
454.126	5.88
454.33	6.02
454.533	6.02
454.737	6.12
454.94	6.07
455.144	6.14
455.348	6.24
455.551	6.45
455.755	6.43
455.958	6.52
456.162	6.45
456.365	6.47
456.569	6.58
456.772	6.64
456.976	6.45
457.179	6.67
457.383	6.51
457.586	6.51
457.79	6.4
457.993	6.24
458.196	6.15
458.4	6.09
458.603	5.93
458.807	5.84
459.01	5.86
459.213	5.95
459.417	5.87
459.62	6.03
459.823	5.95
460.026	6.02
460.23	6.2
460.433	6.14
460.636	6.27
460.839	6.42
461.042	6.51
461.246	6.5
461.449	6.43
461.652	6.31
461.855	6.27
462.058	6.37
462.261	6.29
462.464	6.25
462.668	6.18
462.871	6.22
463.074	5.93
463.277	5.75
463.48	5.77
463.683	5.96
463.886	6.01
464.089	5.97
464.292	6.04
464.495	5.98
464.698	6.18
464.901	6.2
465.104	6.12
465.306	6.29
465.509	6.29
465.712	6.35
465.915	6.34
466.118	6.48
466.321	6.43
466.524	6.33
466.726	6.34
466.929	6.13
467.132	6.21
467.335	6.21
467.538	6.29
467.74	6.47
467.943	6.31
468.146	6.12
468.348	6.24
468.551	6.19
468.754	6.11
468.956	6.26
469.159	6.31
469.362	6.35
469.564	6.39
469.767	6.18
469.969	6.13
470.172	6.08
470.375	6.22
470.577	6.17
470.78	6.14
470.982	6.17
471.185	6.14
471.387	6.1
471.59	6.17
471.792	5.97
471.995	6.14
472.197	6.25
472.399	6.1
472.602	6.15
472.804	6.06
473.007	6.29
473.209	6.23
473.411	6.13
473.614	6.04
473.816	5.9
474.018	6.11
474.22	6.27
474.423	6.05
474.625	6.23
474.827	6.39
475.03	6.53
475.232	6.4
475.434	6.46
475.636	6.34
475.838	6.4
476.04	6.37
476.243	6.28
476.445	5.97
476.647	6.2
476.849	6.25
477.051	5.99
477.253	5.81
477.455	5.79
477.657	5.83
477.859	5.93
478.061	6.12
478.263	6.22
478.465	6.19
478.667	6.15
478.869	6.05
479.071	6.05
479.273	6.01
479.475	6.03
479.677	6.05
479.879	6.08
480.081	6.06
480.283	6
480.485	6.04
480.686	5.94
480.888	6.15
481.09	6.22
481.292	6.29
481.494	6.41
481.695	6.36
481.897	6.45
482.099	6.41
482.301	6.42
482.502	6.41
482.704	6.39
482.906	6.37
483.107	6.35
483.309	6.23
483.511	6.13
483.712	6.08
483.914	6.08
484.115	6.02
484.317	5.93
484.519	5.94
484.72	5.94
484.922	5.88
485.123	5.87
485.325	5.8
485.526	5.85
485.728	5.84
485.929	5.82
486.131	5.82
486.332	5.85
486.534	5.86
486.735	5.81
486.936	5.74
487.138	5.74
487.339	5.79
487.541	5.86
487.742	5.85
487.943	5.88
488.144	5.95
488.346	5.92
488.547	5.92
488.748	5.92
488.95	5.92
489.151	5.82
489.352	5.74
489.553	5.75
489.755	5.66
489.956	5.65
490.157	5.58
490.358	5.54
490.559	5.56
490.76	5.58
490.961	5.59
491.163	5.65
491.364	5.69
491.565	5.88
491.766	5.87
491.967	5.93
492.168	5.88
492.369	5.94
492.57	5.88
492.771	5.87
492.972	5.77
493.173	5.8
493.374	5.73
493.575	5.81
493.776	5.62
493.976	5.64
494.177	5.67
494.378	5.78
494.579	5.82
494.78	6.03
494.981	5.99
495.182	6
495.382	6.18
495.583	6.28
495.784	6.45
495.985	6.59
496.185	6.64
496.386	6.6
496.587	6.45
496.788	6.44
496.988	6.25
497.189	6.27
497.39	6.4
497.59	6.34
497.791	6.31
497.992	6.22
498.192	6.24
498.393	6.07
498.593	6.16
498.794	6.21
498.994	6.22
499.195	6.3
499.395	6.42
499.596	6.5
499.796	6.46
499.997	6.66
500.197	6.82
500.398	6.75
500.598	6.9
500.799	6.78
500.999	6.95
501.199	7.05
501.4	7.02
501.6	7.03
501.801	6.93
502.001	7.11
502.201	6.9
502.402	6.74
502.602	6.96
502.802	7.01
503.002	7.22
503.203	7.15
503.403	6.93
503.603	7.01
503.803	7.13
504.003	7.13
504.204	7.06
504.404	7.4
504.604	7.43
504.804	7.54
505.004	7.6
505.204	7.55
505.404	7.57
505.604	7.72
505.804	7.9
506.005	7.94
506.205	8.04
506.405	8.09
506.605	7.93
506.805	8.2
507.005	8.21
507.204	8.22
507.404	8.39
507.604	8.63
507.804	8.96
508.004	8.83
508.204	8.82
508.404	8.9
508.604	8.98
508.804	9.03
509.003	9.09
509.203	9.09
509.403	9.15
509.603	9.15
509.803	9.14
510.002	9.01
510.202	9.24
510.402	9.39
510.602	9.57
510.801	9.49
511.001	9.6
511.201	9.53
511.4	9.58
511.6	9.75
511.8	9.78
511.999	9.78
512.199	9.9
512.398	9.97
512.598	10.05
512.797	10.02
512.997	10.24
513.197	10.25
513.396	10.31
513.596	10.31
513.795	10.43
513.994	10.53
514.194	10.52
514.393	10.45
514.593	10.51
514.792	10.39
514.992	10.48
515.191	10.47
515.39	10.63
515.59	10.73
515.789	10.68
515.988	10.55
516.188	10.46
516.387	10.6
516.586	10.88
516.786	10.91
516.985	11.18
517.184	11.15
517.383	11.38
517.582	11.33
517.782	11.45
517.981	11.71
518.18	11.85
518.379	12.03
518.578	12.29
518.777	12.2
518.976	12.28
519.176	12.25
519.375	12.48
519.574	12.49
519.773	12.61
519.972	12.69
520.171	12.74
520.37	12.88
520.569	12.9
520.768	12.72
520.967	13.02
521.166	12.96
521.365	13.11
521.564	13.1
521.762	13.16
521.961	13.47
522.16	13.52
522.359	13.59
522.558	13.68
522.757	13.69
522.956	14.01
523.154	13.9
523.353	14.17
523.552	14.27
523.751	14.29
523.949	14.38
524.148	14.25
524.347	14.38
524.546	14.48
524.744	14.37
524.943	14.52
525.142	14.53
525.34	14.54
525.539	14.5
525.737	14.47
525.936	14.59
526.135	14.73
526.333	14.78
526.532	14.74
526.73	14.74
526.929	14.89
527.127	14.94
527.326	14.96
527.524	15.16
527.723	15.29
527.921	15.41
528.12	15.42
528.318	15.39
528.516	15.48
528.715	15.55
528.913	15.57
529.112	15.63
529.31	15.59
529.508	15.61
529.707	15.57
529.905	15.51
530.103	15.44
530.301	15.41
530.5	15.48
530.698	15.45
530.896	15.51
531.094	15.64
531.293	15.67
531.491	15.88
531.689	16
531.887	16.12
532.085	16.37
532.283	16.42
532.481	16.55
532.68	16.51
532.878	16.58
533.076	16.59
533.274	16.58
533.472	16.59
533.67	16.64
533.868	16.69
534.066	16.71
534.264	16.65
534.462	16.86
534.66	16.94
534.858	17.09
535.056	17.23
535.253	17.37
535.451	17.39
535.649	17.39
535.847	17.42
536.045	17.54
536.243	17.62
536.441	17.73
536.638	17.71
536.836	17.74
537.034	17.72
537.232	17.77
537.43	17.82
537.627	18.01
537.825	18.22
538.023	18.21
538.22	18.28
538.418	18.29
538.616	18.27
538.813	18.5
539.011	18.58
539.209	18.74
539.406	18.73
539.604	18.92
539.801	18.95
539.999	18.94
540.196	19.14
540.394	19.06
540.591	19.13
540.789	19.25
540.986	19.1
541.184	19.08
541.381	19.11
541.579	19.17
541.776	19.02
541.974	19.01
542.171	19.09
542.368	19.16
542.566	19.28
542.763	19.32
542.96	19.28
543.158	19.38
543.355	19.45
543.552	19.49
543.75	19.53
543.947	19.69
544.144	19.71
544.341	19.67
544.539	19.71
544.736	19.56
544.933	19.71
545.13	19.87
545.327	19.98
545.524	19.99
545.722	19.98
545.919	20.04
546.116	20.12
546.313	20.33
546.51	20.36
546.707	20.32
546.904	20.48
547.101	20.45
547.298	20.62
547.495	20.57
547.692	20.64
547.889	20.64
548.086	20.73
548.283	20.69
548.48	20.75
548.677	21.01
548.874	21.12
549.07	21.25
549.267	21.33
549.464	21.46
549.661	21.6
549.858	21.8
550.055	22.01
550.251	22.06
550.448	22.08
550.645	22.19
550.842	21.82
551.038	21.92
551.235	22.03
551.432	22.17
551.628	22.06
551.825	22.13
552.022	22.19
552.218	22.19
552.415	22.33
552.612	22.57
552.808	22.64
553.005	23.06
553.201	22.99
553.398	22.96
553.594	23.05
553.791	22.97
553.987	23.12
554.184	23.13
554.38	23.26
554.577	23.2
554.773	23.36
554.97	23.37
555.166	23.27
555.362	23.44
555.559	23.64
555.755	23.51
555.952	23.65
556.148	23.69
556.344	23.79
556.541	23.71
556.737	23.77
556.933	23.74
557.129	23.92
557.326	23.97
557.522	24
557.718	23.78
557.914	23.78
558.11	23.9
558.307	23.8
558.503	23.74
558.699	24.17
558.895	24.11
559.091	24.25
559.287	24.3
559.483	24.33
559.679	24.24
559.876	24.4
560.072	24.56
560.268	24.66
560.464	24.81
560.66	24.91
560.856	24.78
561.052	24.96
561.247	24.74
561.443	24.64
561.639	24.9
561.835	25.15
562.031	25.35
562.227	25.36
562.423	25.13
562.619	25.08
562.815	25.07
563.01	24.83
563.206	24.87
563.402	25.14
563.598	25.09
563.793	24.89
563.989	24.84
564.185	24.87
564.381	25.15
564.576	25.27
564.772	25.21
564.968	25.35
565.163	25.49
565.359	25.39
565.555	25.35
565.75	25.49
565.946	25.63
566.141	25.67
566.337	25.57
566.532	25.45
566.728	25.5
566.923	25.81
567.119	25.91
567.314	26.08
567.51	25.99
567.705	25.96
567.901	25.85
568.096	25.94
568.292	25.93
568.487	25.96
568.682	26.01
568.878	26.14
569.073	26.09
569.268	26.02
569.464	26.06
569.659	26.2
569.854	26.3
570.05	26.46
570.245	26.38
570.44	26.41
570.635	26.52
570.831	26.55
571.026	26.49
571.221	26.57
571.416	26.8
571.611	26.77
571.806	27.11
572.002	27.06
572.197	27.16
572.392	27.33
572.587	27.44
572.782	27.46
572.977	27.5
573.172	27.5
573.367	27.41
573.562	27.42
573.757	27.49
573.952	27.44
574.147	27.63
574.342	27.65
574.537	27.41
574.732	27.4
574.927	27.54
575.121	27.78
575.316	27.96
575.511	28.11
575.706	27.99
575.901	27.86
576.096	27.78
576.29	27.71
576.485	27.57
576.68	27.66
576.875	27.75
577.069	27.67
577.264	27.51
577.459	27.44
577.654	27.52
577.848	27.86
578.043	28.11
578.238	28.26
578.432	28.27
578.627	28.31
578.821	28.61
579.016	28.86
579.21	28.89
579.405	28.78
579.6	28.74
579.794	28.54
579.989	28.2
580.183	27.83
580.378	27.86
580.572	27.76
580.766	28.12
580.961	28.28
581.155	28.1
581.35	27.99
581.544	28
581.738	28.17
581.933	28.39
582.127	28.55
582.321	28.82
582.516	28.42
582.71	28.61
582.904	28.24
583.099	27.82
583.293	28.08
583.487	28.35
583.681	28.37
583.875	28.29
584.07	28.23
584.264	28.3
584.458	28.32
584.652	28.67
584.846	28.35
585.04	28.46
585.234	28.46
585.428	28.09
585.623	27.99
585.817	27.92
586.011	27.85
586.205	27.81
586.399	27.78
586.593	27.78
586.787	27.84
586.981	28.08
587.174	28.1
587.368	28.36
587.562	28.44
587.756	28.73
587.95	28.66
588.144	29.01
588.338	28.88
588.532	29
588.725	29.08
588.919	29.2
589.113	29.49
589.307	29.49
589.501	29.65
589.694	29.54
589.888	29.34
590.082	29.45
590.275	29.2
590.469	29.35
590.663	29.17
590.856	29.21
591.05	29.04
591.244	28.86
591.437	28.69
591.631	28.54
591.824	28.54
592.018	28.52
592.212	28.59
592.405	28.74
592.599	28.81
592.792	28.71
592.986	28.72
593.179	28.99
593.372	29.04
593.566	29.32
593.759	29.37
593.953	29.48
594.146	29.5
594.339	29.55
594.533	29.63
594.726	29.56
594.92	29.57
595.113	29.75
595.306	29.6
595.499	29.59
595.693	29.55
595.886	29.45
596.079	29.49
596.272	29.48
596.466	29.54
596.659	29.55
596.852	29.73
597.045	29.96
597.238	29.83
597.431	29.65
597.624	29.7
597.818	29.93
598.011	30.06
598.204	30.17
598.397	30.31
598.59	30.21
598.783	30.26
598.976	30.18
599.169	30.01
599.362	30.01
599.555	30.4
599.748	30.47
599.941	30.28
600.134	30.12
600.326	30.17
600.519	30.48
600.712	30.54
600.905	30.31
601.098	30.33
601.291	30.62
601.483	30.72
601.676	30.46
601.869	30.55
602.062	30.78
602.255	30.74
602.447	30.7
602.64	30.58
602.833	30.69
603.025	30.98
603.218	31.09
603.411	30.96
603.603	31.16
603.796	31.21
603.989	31.21
604.181	31.07
604.374	31.1
604.566	30.94
604.759	31.07
604.951	31.12
605.144	31.15
605.336	31.12
605.529	31.09
605.721	30.84
605.914	30.85
606.106	30.8
606.299	30.97
606.491	31.1
606.683	31.29
606.876	30.96
607.068	30.81
607.26	30.7
607.453	30.45
607.645	30.22
607.837	30.61
608.03	30.83
608.222	30.93
608.414	30.62
608.606	30.58
608.799	30.59
608.991	30.66
609.183	30.6
609.375	30.49
609.567	30.45
609.759	30.58
609.952	30.39
610.144	30.12
610.336	29.94
610.528	29.94
610.72	29.91
610.912	29.6
611.104	29.58
611.296	29.49
611.488	29.47
611.68	29.54
611.872	29.63
612.064	29.56
612.256	29.42
612.448	29.51
612.64	29.5
612.832	29.24
613.023	29.54
613.215	29.43
613.407	29.77
613.599	29.86
613.791	30.01
613.983	30.52
614.174	30.38
614.366	30.99
614.558	30.98
614.75	31.28
614.941	31.88
615.133	31.81
615.325	31.77
615.516	31.93
615.708	31.84
615.9	32.01
616.091	31.37
616.283	31.69
616.475	31.4
616.666	31.42
616.858	31.39
617.049	31.43
617.241	31.43
617.432	31.74
617.624	31.94
617.815	31.99
618.007	31.68
618.198	31.85
618.39	31.48
618.581	31.45
618.773	31.36
618.964	30.89
619.155	30.6
619.347	30.56
619.538	30.64
619.729	30.7
619.921	30.85
620.112	31.23
620.303	31.47
620.494	31.72
620.686	31.75
620.877	32.32
621.068	33.06
621.259	33.18
621.451	33.17
621.642	33.01
621.833	32.79
622.024	33.13
622.215	32.91
622.406	32.89
622.597	32.73
622.788	32.84
622.98	32.64
623.171	32.55
623.362	32.7
623.553	32.88
623.744	33.08
623.935	33.05
624.126	32.56
624.317	32.7
624.508	32.34
624.698	32.34
624.889	32.15
625.08	31.81
625.271	31.77
625.462	31.42
625.653	31.43
625.844	31.27
626.034	31.4
626.225	31.78
626.416	31.85
626.607	31.84
626.798	31.95
626.988	32.16
627.179	32.27
627.37	32.15
627.56	32.4
627.751	32.14
627.942	32.14
628.132	31.98
628.323	31.65
628.514	31.53
628.704	31.73
628.895	31.72
629.085	31.79
629.276	31.89
629.466	31.58
629.657	31.73
629.847	32.14
630.038	32.06
630.228	32.37
630.419	32.36
630.609	32.38
630.8	32.22
630.99	32.31
631.181	32.16
631.371	32.08
631.561	32.56
631.752	32.41
631.942	32.38
632.132	32.37
632.323	31.88
632.513	32.41
632.703	32.45
632.893	32.68
633.084	32.45
633.274	32.58
633.464	32.23
633.654	32.28
633.844	31.99
634.034	32.23
634.225	32.79
634.415	32.78
634.605	32.62
634.795	32.79
634.985	32.84
635.175	32.9
635.365	33.03
635.555	33.41
635.745	33.48
635.935	33.92
636.125	33.68
636.315	33.02
636.505	33.29
636.695	33.25
636.885	32.74
637.075	32.9
637.265	33.04
637.455	33.12
637.644	33.43
637.834	32.92
638.024	32.56
638.214	32.69
638.404	33.12
638.593	33
638.783	32.79
638.973	33.16
639.163	33.12
639.352	33.32
639.542	33.27
639.732	32.99
639.921	33.07
640.111	33.64
640.301	33.29
640.49	33.33
640.68	33.45
640.87	33.55
641.059	33.66
641.249	33.48
641.438	33.28
641.628	32.8
641.817	32.95
642.007	33.2
642.196	32.86
642.386	33.04
642.575	32.66
642.764	32.63
642.954	32.75
643.143	32.69
643.333	32.95
643.522	33.08
643.711	33.3
643.901	33.09
644.09	33.06
644.279	33.17
644.469	33.26
644.658	33.05
644.847	33.18
645.036	33.34
645.226	33.45
645.415	33.09
645.604	32.96
645.793	32.83
645.982	33.05
646.171	33.31
646.361	32.86
646.55	32.73
646.739	33.04
646.928	32.8
647.117	32.55
647.306	32.45
647.495	32.76
647.684	32.56
647.873	32.61
648.062	32.03
648.251	31.86
648.44	32.31
648.629	32.24
648.818	32.54
649.007	32.61
649.196	32.59
649.384	32.79
649.573	32.42
649.762	32.73
649.951	32.84
650.14	33.42
650.328	33.38
650.517	33.35
650.706	33.34
650.895	33.43
651.083	33.43
651.272	33.07
651.461	32.78
651.65	32.83
651.838	32.9
652.027	33.11
652.216	32.89
652.404	33.18
652.593	33.01
652.781	33.32
652.97	32.85
653.158	32.46
653.347	32.93
653.535	32.83
653.724	33.03
653.912	32.63
654.101	32.68
654.289	32.91
654.478	32.66
654.666	32.68
654.855	32.38
655.043	32.76
655.231	33.1
655.42	33.2
655.608	33.63
655.796	33.51
655.985	33.79
656.173	33.64
656.361	33.19
656.55	32.83
656.738	33.01
656.926	33.45
657.114	33.37
657.302	33.49
657.491	33.45
657.679	33.45
657.867	33.54
658.055	33.62
658.243	33.63
658.431	33.84
658.619	34.39
658.807	34.43
658.996	34.18
659.184	34.03
659.372	34
659.56	34.08
659.748	34.07
659.936	33.95
660.124	33.97
660.311	33.81
660.499	33.6
660.687	33.41
660.875	33.33
661.063	33.25
661.251	33.29
661.439	33.49
661.627	33.43
661.814	33.48
662.002	33.61
662.19	33.65
662.378	33.8
662.565	34.3
662.753	34.59
662.941	34.28
663.129	34.29
663.316	34.74
663.504	34.36
663.692	34.11
663.879	33.94
664.067	33.58
664.254	33.35
664.442	33.65
664.63	33.44
664.817	33.53
665.005	34
665.192	34.45
665.38	34.13
665.567	34.34
665.755	34.54
665.942	34.83
666.13	35.21
666.317	35.21
666.504	34.7
666.692	35.07
666.879	34.62
667.067	34.85
667.254	34.79
667.441	34.91
667.629	34.74
667.816	34.84
668.003	34.59
668.19	34.53
668.378	34.77
668.565	35.25
668.752	34.82
668.939	34.93
669.127	34.49
669.314	34.6
669.501	34.44
669.688	34.72
669.875	34.93
670.062	35.14
670.249	34.91
670.436	35.02
670.623	34.7
670.81	34.76
670.997	34.84
671.184	34.59
671.371	34.57
671.558	34.74
671.745	34.51
671.932	34.14
672.119	33.83
672.306	34.06
672.493	33.76
672.68	33.77
672.867	33.55
673.054	33.09
673.24	33.42
673.427	33.62
673.614	33.91
673.801	34.14
673.988	34.69
674.174	34.68
674.361	34.45
674.548	34.77
674.734	34.7
674.921	35.09
675.108	35.49
675.294	35.46
675.481	34.91
675.668	34.9
675.854	34.51
676.041	33.74
676.227	33.65
676.414	33.82
676.601	33.71
676.787	33.8
676.974	33.9
677.16	33.87
677.347	34.32
677.533	34.88
677.719	34.28
677.906	34.32
678.092	34.75
678.279	35.16
678.465	35.81
678.651	35.98
678.838	36.1
679.024	35.79
679.21	35.23
679.397	35.3
679.583	34.48
679.769	34.74
679.955	34.71
680.142	34.47
680.328	34.45
680.514	33.9
680.7	33.99
680.886	34.21
681.073	34.02
681.259	34.59
681.445	34.35
681.631	34.46
681.817	34.3
682.003	34.63
682.189	34.6
682.375	34.3
682.561	34.53
682.747	33.83
682.933	33.26
683.119	33.49
683.305	33.17
683.491	32.98
683.677	33.47
683.863	33.39
684.049	33.25
684.235	33.51
684.42	33.76
684.606	33.7
684.792	33.81
684.978	34.47
685.164	34.62
685.349	34.71
685.535	34.57
685.721	34.7
685.907	34.26
686.092	34.07
686.278	33.56
686.464	33.24
686.649	33.27
686.835	33.61
687.021	33.59
687.206	33.29
687.392	33.35
687.577	33.83
687.763	33.29
687.948	34.12
688.134	34.11
688.319	34.28
688.505	34.65
688.69	34.32
688.876	34.07
689.061	33.62
689.247	33.83
689.432	34.16
689.618	33.66
689.803	34.42
689.988	34.31
690.174	34.78
690.359	34.91
690.544	34.24
690.73	34.72
690.915	35.27
691.1	35.22
691.285	35.31
691.471	35.4
691.656	35.66
691.841	35.53
692.026	34.77
692.211	34.88
692.396	34.84
692.582	35.79
692.767	35.4
692.952	34.74
693.137	35.08
693.322	34.93
693.507	34.51
693.692	34.12
693.877	33.7
694.062	34.51
694.247	34.15
694.432	34.16
694.617	34.16
694.802	34.36
694.987	34.6
695.172	34.37
695.357	34.89
695.541	35.16
695.726	35.87
695.911	36.28
696.096	36.88
696.281	36.38
696.466	36.73
696.65	36.56
696.835	36.54
697.02	36.6
697.204	36.64
697.389	36.49
697.574	36.43
697.759	36.12
697.943	35.65
698.128	35.19
698.312	35.81
698.497	35.82
698.682	35.4
698.866	35.16
699.051	35.08
699.235	35.01
699.42	34.62
699.604	34.61
699.789	34.17
699.973	34.29
700.158	34.29
700.342	33.97
700.527	33.75
700.711	33.66
700.895	34.42
701.08	34.59
701.264	34.92
701.448	35.21
701.633	34.72
701.817	35.4
702.001	35.77
702.186	35.9
702.37	36.37
702.554	36.35
702.738	37.19
702.923	36.26
703.107	36.63
703.291	36.32
703.475	35.94
703.659	36.36
703.843	36.18
704.027	35.7
704.212	35.68
704.396	35.32
704.58	34.95
704.764	34.23
704.948	34.19
705.132	33.72
705.316	33.86
705.5	34.32
705.684	33.89
705.868	34.21
706.052	34.64
706.235	34.47
706.419	34.37
706.603	34.62
706.787	34.97
706.971	35.72
707.155	35.74
707.339	35.74
707.522	35.84
707.706	36.34
707.89	36.17
708.074	35.88
708.257	35.87
708.441	35.55
708.625	35.96
708.808	35.69
708.992	35.62
709.176	35.68
709.359	35.59
709.543	35.54
709.727	35.15
709.91	35.25
710.094	35.81
710.277	36.18
710.461	36.26
710.644	36.2
710.828	36.79
711.011	36.89
711.195	36.69
711.378	36.77
711.562	37.24
711.745	37.43
711.928	37.39
712.112	36.95
712.295	36.31
712.478	36.17
712.662	36.27
712.845	35.87
713.028	35.93
713.212	35.8
713.395	35.47
713.578	34.96
713.761	34.92
713.945	34.57
714.128	34.84
714.311	34.85
714.494	35.48
714.677	34.84
714.86	35.39
715.043	34.98
715.227	35.44
715.41	35.54
715.593	35.59
715.776	34.89
715.959	35.08
716.142	34.68
716.325	34.94
716.508	34.93
716.691	35.66
716.874	35.42
717.057	35.35
717.239	35.31
717.422	35.08
717.605	34.46
717.788	34.6
717.971	33.9
718.154	34.47
718.337	34.53
718.519	34.48
718.702	34.24
718.885	34.04
719.068	34.16
719.25	33.67
719.433	34.43
719.616	35.04
719.798	35.76
719.981	35.89
720.164	34.52
720.346	34.92
720.529	34.23
720.712	33.63
720.894	33.09
721.077	32.51
721.259	33.12
721.442	32.82
721.624	33.39
721.807	33.21
721.989	34.8
722.172	35.72
722.354	35.9
722.537	36.28
722.719	37.1
722.901	36.89
723.084	36.58
723.266	35.63
723.448	35.8
723.631	34.66
723.813	35.54
723.995	34.85
724.178	34.87
724.36	34.46
724.542	35.39
724.724	35.03
724.907	35.69
725.089	36.88
725.271	37.76
725.453	37.86
725.635	38.49
725.817	37.24
725.999	37.19
726.181	37.06
726.364	36.93
726.546	35.94
726.728	36.21
726.91	35.85
727.092	34.79
727.274	33.76
727.456	33.16
727.638	32.82
727.819	33.74
728.001	33.48
728.183	33.65
728.365	34.25
728.547	34.59
728.729	34.91
728.911	35.47
729.093	35.54
729.274	37.61
729.456	37.9
729.638	38.4
729.82	37.51
730.001	37.8
730.183	37.53
730.365	37.84
730.546	37.52
730.728	37.03
730.91	37.15
731.091	37.91
731.273	37.06
731.455	36.96
731.636	36.9
731.818	37.98
731.999	37.44
732.181	36.78
732.362	36.25
732.544	36.96
732.725	36.69
732.907	36.23
733.088	36.29
733.27	35.89
733.451	36.29
733.633	35.99
733.814	35.96
733.995	36.1
734.177	37.2
734.358	35.97
734.539	35.65
734.721	35.86
734.902	35.77
735.083	35.55
735.264	35.42
735.446	35.98
735.627	36.37
735.808	35.24
735.989	36.18
736.17	35.88
736.351	36.87
736.533	37.04
736.714	36.62
736.895	36.99
737.076	37.77
737.257	37.8
737.438	37.93
737.619	37.74
737.8	38.07
737.981	36.32
738.162	36.39
738.343	37.11
738.524	36.02
738.705	36.84
738.886	36.9
739.067	36.71
739.247	36.74
739.428	36.16
739.609	36.29
739.79	36.84
739.971	37.61
740.151	37.04
740.332	36.9
740.513	37.78
740.694	37.76
740.874	38.17
741.055	37.16
741.236	36.13
741.417	35.46
741.597	34.4
741.778	34.16
741.958	34.28
742.139	34.14
742.32	33.4
742.5	32.82
742.681	32.65
742.861	31.89
743.042	33
743.222	33.39
743.403	34.15
743.583	36.16
743.764	35.89
743.944	36.04
744.124	37.05
744.305	37.53
744.485	37.19
744.666	36.66
744.846	35.99
745.026	35.79
745.207	38.68
745.387	37.96
745.567	37.62
745.747	36.82
745.928	37.67
746.108	37.12
746.288	36.72
746.468	37.55
746.648	36.75
746.829	37.08
747.009	36.74
747.189	35.06
747.369	35.66
747.549	34.67
747.729	34.87
747.909	32.25
748.089	32.31
748.269	33.2
748.449	33.14
748.629	34.74
748.809	34.36
748.989	33.5
749.169	32.98
749.349	32.18
749.529	31.33
749.709	32.47
749.889	33.97
750.068	34.76
750.248	34.75
750.428	34.04
750.608	33.08
750.788	33.11
750.967	33.11
751.147	33.43
751.327	34.07
751.507	35.25
751.686	36.41
751.866	37.23
752.046	36.81
752.225	35.62
752.405	35.69
752.585	35.87
752.764	37.64
752.944	39.33
753.123	39.52
753.303	39.73
753.482	39.82
753.662	38.44
753.841	37.21
754.021	37.05
754.2	37.26
754.38	38.2
754.559	38.12
754.739	36.37
754.918	33.96
755.097	34.46
755.277	33.27
755.456	33.87
755.635	33.97
755.815	34.56
755.994	34.52
756.173	34.32
756.352	35.55
756.532	36.11
756.711	36.9
756.89	38.01
757.069	37.77
757.248	39.01
757.427	37.35
757.607	37.72
757.786	38.2
757.965	38.4
758.144	38.4
758.323	36.97
758.502	36.47
758.681	37.28
758.86	38.28
759.039	38.76
759.218	38.78
759.397	40.07
759.576	39.34
759.755	38.72
759.934	38.93
760.113	39.88
760.291	39.09
760.47	38.92
760.649	38.16
760.828	37.13
761.007	36.48
761.186	35.88
761.364	35.26
761.543	35.43
761.722	35.88
761.901	36.65
762.079	36.03
762.258	36.87
762.437	36.34
762.615	36.21
762.794	36.48
762.972	35.98
763.151	36.01
763.33	35.48
763.508	35.83
763.687	35.51
763.865	34.62
764.044	34.79
764.222	34.6
764.401	35.98
764.579	36.33
764.758	35.36
764.936	35.16
765.114	35.61
765.293	35.86
765.471	35.89
765.65	36.23
765.828	36.12
766.006	35.46
766.184	34.14
766.363	32.65
766.541	32.57
766.719	34.08
766.898	34.71
767.076	34.78
767.254	35.62
767.432	35.91
767.61	36.06
767.788	37.16
767.967	38.22
768.145	39.45
768.323	39.9
768.501	40.25
768.679	39.64
768.857	39.55
769.035	39.79
769.213	38.77
769.391	37.81
769.569	36.53
769.747	35.11
769.925	32.97
770.103	33.45
770.281	34.39
770.459	32.6
770.636	33.48
770.814	33.74
770.992	32.72
771.17	32.49
771.348	33.64
771.525	34.88
771.703	36.69
771.881	38.12
772.059	39.78
772.236	39.68
772.414	40.67
772.592	39.09
772.769	39.36
772.947	39.86
773.125	40.78
773.302	39.51
773.48	38.68
773.657	37.14
773.835	37.49
774.013	36.25
774.19	35.61
774.368	35.81
774.545	37.4
774.723	37.84
774.9	37.46
775.077	37.97
775.255	37.63
775.432	37.41
775.61	37.53
775.787	38.84
775.964	38.53
776.142	38.59
776.319	37.72
776.496	35.63
776.674	33.44
776.851	33.78
777.028	33.12
777.205	34.57
777.382	35.51
777.56	34.26
777.737	34.06
777.914	34.35
778.091	35.97
778.268	37.38
778.445	38.17
778.622	39.01
778.8	38.25
778.977	37.97
779.154	33.16
779.331	33.11
779.508	33.14
779.685	33.17
779.862	32.6
780.038	31.77
780.215	30.97
780.392	31.5
780.569	30.73
780.746	32.81
780.923	33.37
781.1	37.58
781.277	36.97
781.453	37.27
781.63	35.78
781.807	37.14
781.984	36.66
782.16	36.76
782.337	35.73
782.514	37.81
782.691	35.33
782.867	34.75
783.044	33.34
783.221	33.1
783.397	34.54
783.574	35.56
783.75	34.53
783.927	35.46
784.103	34.97
784.28	35.83
784.456	34.56
784.633	36.75
784.809	35.84
784.986	37.18
785.162	36.88
785.339	35.26
785.515	33.26
785.692	33.49
785.868	34
786.044	35.15
786.221	34.89
786.397	36.76
786.573	36.27
786.749	36.13
786.926	38.76
787.102	40
787.278	40.49
787.454	41.3
787.631	39.36
787.807	36.85
787.983	35.27
788.159	35.53
788.335	33.92
788.511	33.36
788.687	33.91
788.863	32.23
789.039	31.06
789.216	31.08
789.392	29.99
789.568	31.19
789.744	34.58
789.919	34.3
790.095	34.03
790.271	34.97
790.447	34.4
790.623	33.36
790.799	32.77
790.975	34.07
791.151	34.84
791.327	37.01
791.502	38.03
791.678	34.64
791.854	36.93
792.03	37.98
792.205	36.37
792.381	36.55
792.557	39.18
792.733	40.2
792.908	41.24
793.084	41.52
793.259	41.29
793.435	39.72
793.611	43.12
793.786	43.84
793.962	41.58
794.137	42.03
794.313	41.24
794.488	40.1
794.664	38.22
794.839	37.97
795.015	36.78
795.19	36.69
795.366	36.16
795.541	34.44
795.716	33.69
795.892	34.95
796.067	35.11
796.242	34.96
796.418	36.51
796.593	37.52
796.768	35.21
796.944	34.52
797.119	33.95
797.294	34.04
797.469	32.17
797.644	31.06
797.82	30.83
797.995	30.93
798.17	33.1
798.345	32.49
798.52	31.09
798.695	33.9
798.87	33.11
799.045	31.73
799.22	33.06
799.395	35.47
799.57	35.65
799.745	36.61
799.92	38.27
800.095	37.33
800.27	37.02
800.445	38.01
800.62	38.39
800.795	39.2
800.97	43.2
801.145	42.63
801.319	44.78
801.494	44.62
801.669	43.51
801.844	41.48
802.018	40.86
802.193	41.08
802.368	42.36
802.543	41.63
802.717	44.72
802.892	39.48
803.067	40.26
803.241	38.73
803.416	38.58
803.59	38.65
803.765	39.41
803.94	40.16
804.114	38.71
804.289	39.73
804.463	38.71
804.638	35.52
804.812	37.54
804.986	38.03
805.161	37.39
805.335	38.06
805.51	37.61
805.684	39.15
805.858	39.01
806.033	38.99
806.207	35.86
806.381	37.34
806.556	35.75
806.73	33.01
806.904	32.39
807.078	32.84
807.253	30.83
807.427	31.21
807.601	27.46
807.775	23.63
807.949	26.04
808.123	29.15
808.298	27.17
808.472	28.93
808.646	33.99
808.82	32.74
808.994	30.28
809.168	33.48
809.342	34.75
809.516	35.69
809.69	39.26
809.864	40.32
810.038	35.78
810.212	36.89
810.385	38.63
810.559	36.85
810.733	38
810.907	38.57
811.081	38.34
811.255	40.66
811.428	42.1
811.602	41.93
811.776	39.76
811.95	41.56
812.123	42.13
812.297	39.38
812.471	39.01
812.644	35.89
812.818	37.96
812.992	34.35
813.165	28.15
813.339	28.52
813.512	30.33
813.686	29.73
813.86	31.08
814.033	30.49
814.207	33.94
814.38	38
814.554	41.21
814.727	38.78
814.9	41.23
815.074	46.79
815.247	45.73
815.421	43.57
815.594	46.16
815.767	47.31
815.941	45.83
816.114	45.55
816.287	43.65
816.46	41.74
816.634	46.2
816.807	44.41
816.98	41.06
817.153	44.07
817.327	46.35
817.5	42.28
817.673	38.31
817.846	38.78
818.019	35.7
818.192	36.29
818.365	38.02
818.538	35.12
818.711	34.3
818.884	34.96
819.057	31.88
819.23	31.2
819.403	30.02
819.576	32
819.749	33.07
819.922	34.32
820.095	34.27
820.268	35.68
820.441	35.8
820.614	36.38
820.786	35.67
820.959	35.08
821.132	35.54
821.305	36.27
821.477	35.85
821.65	35.49
821.823	35.1
821.996	34.41
822.168	34.13
822.341	33.47
822.514	34.04
822.686	34.31
822.859	35.24
823.031	35.66
823.204	36.74
823.376	36.8
823.549	37.2
823.722	37.48
823.894	37.57
824.067	37.43
824.239	38.3
824.411	38.11
824.584	38.13
824.756	37.43
824.929	37.4
825.101	36.1
825.273	36.6
825.446	36.31
825.618	36.47
825.79	36.49
825.963	36.72
826.135	36.64
826.307	36.55
826.479	36.12
826.652	36.85
826.824	36.74
826.996	37.19
827.168	36.74
827.34	36.71
827.512	36.24
827.684	36.5
827.856	36.19
828.029	36.85
828.201	37.32
828.373	37.76
828.545	37.45
828.717	36.59
828.889	36.61
829.061	36.87
829.232	37.53
829.404	38.61
829.576	38.67
829.748	39.07
829.92	37.87
830.092	38.6
830.264	39.16
830.436	39.93
830.607	40.12
830.779	41.62
830.951	41.64
831.123	40.92
831.294	38.72
831.466	37.28
831.638	37.8
831.809	40.17
831.981	39.92
832.153	39.68
832.324	40.04
832.496	40.23
832.667	38.86
832.839	36.44
833.011	37.85
833.182	40.85
833.354	41.32
833.525	41.57
833.697	39.2
833.868	39.42
834.039	39.01
834.211	36.22
834.382	36.18
834.554	37.46
834.725	39.93
834.896	38.36
835.068	36.49
835.239	37.58
835.41	37.97
835.581	37.78
835.753	37.3
835.924	36.83
836.095	38.4
836.266	39.2
836.438	37.98
836.609	37.32
836.78	38.46
836.951	39.58
837.122	38.94
837.293	39.07
837.464	38.79
837.635	39.51
837.806	40.92
837.977	41.14
838.148	39.86
838.319	40.69
838.49	39.37
838.661	39.5
838.832	39.16
839.003	39.51
839.174	38.32
839.345	41.36
839.516	39.73
839.687	39.1
839.857	38.16
840.028	38.98
840.199	40.28
840.37	40.38
840.54	43.46
840.711	42.27
840.882	42.56
841.053	38.85
841.223	41.87
841.394	41
841.564	40.68
841.735	43.49
841.906	45.26
842.076	40.31
842.247	41.43
842.417	36.74
842.588	41.25
842.758	40.97
842.929	41.98
843.099	35.6
843.27	36.96
843.44	37.92
843.611	35.05
843.781	31.24
843.951	31.17
844.122	32.48
844.292	32.35
844.462	32.98
844.633	32.9
844.803	35.33
844.973	31.84
845.144	29.71
845.314	21.57
845.484	20.31
845.654	25.43
845.824	28.46
845.995	27.26
846.165	29.14
846.335	23.69
846.505	18.63
846.675	17.65
846.845	20.63
847.015	24.52
847.185	34.92
847.355	42.12
847.525	44.4
847.695	44.45
847.865	47.2
848.035	43.8
848.205	43.11
848.375	55.38
848.545	58.53
848.715	62.64
848.884	51.29
849.054	50.53
849.224	49.11
849.394	49.53
849.564	47.77
849.733	43.18
849.903	47.45
850.073	48
850.243	39.42
850.412	31.84
850.582	22.08
850.752	26.71
850.921	26.03
851.091	21.63
851.26	12.28
851.43	12.84
851.599	11.01
851.769	1.98
851.939	2.76
852.108	5.71
852.278	10.26
852.447	17.84
852.616	20.2
852.786	18.38
852.955	19.98
853.125	21.99
853.294	25.85
853.463	31.13
853.633	34.11
853.802	35.71
853.971	35.22
854.141	36.43
854.31	36.99
854.479	32.61
854.648	30.53
854.818	29.44
854.987	33.95
855.156	33.58
855.325	33.71
855.494	35.76
855.663	36.68
855.832	35.92
856.001	35.3
856.171	34.62
856.34	33.79
856.509	35.63
856.678	38.57
856.847	37.67
857.016	30.96
857.185	31.17
857.353	32.98
857.522	28.41
857.691	25.14
857.86	22.66
858.029	27.21
858.198	26.18
858.367	26.19
858.535	18.47
858.704	36.4
858.873	38.99
859.042	38.22
859.21	39.33
859.379	42.2
859.548	47.68
859.717	53.67
859.885	41.65
860.054	47.72
860.222	47.05
860.391	49.79
860.56	41.56
860.728	41.22
860.897	40.35
861.065	41.59
861.234	43.59
861.402	47.42
861.571	43.36
861.739	45.52
861.908	47.71
862.076	47.43
862.244	50.65
862.413	48.21
862.581	52.13
862.749	54.29
862.918	48.39
863.086	45.42
863.254	35.71
863.423	37.03
863.591	41.22
863.759	33
863.927	27.4
864.096	29.5
864.264	22.57
864.432	25.25
864.6	26.57
864.768	14.04
864.936	11.8
865.104	13.93
865.272	15.59
865.44	7.91
865.608	10.93
865.776	15.67
865.944	19.6
866.112	23.87
866.28	17.89
866.448	17.27
866.616	23.47
866.784	29.82
866.952	38.21
867.12	30.84
867.288	29.48
867.455	29.41
867.623	35.74
867.791	37.07
867.959	41.29
868.127	42.29
868.294	39.87
868.462	49.02
868.63	42.82
868.797	47.67
868.965	52.62
869.133	54.57
869.3	67.35
869.468	59.71
869.636	57.85
869.803	59.72
869.971	65.8
870.138	67.67
870.306	63.62
870.473	70.08
870.641	60.77
870.808	62.56
870.975	65.99
871.143	59.01
871.31	68.3
871.478	62.78
871.645	62.75
871.812	52
871.98	47.02
872.147	39.98
872.314	23.21
872.482	20.43
872.649	21.14
872.816	19.48
872.983	23.98
873.15	13.71
873.318	11.03
873.485	12.77
873.652	15.2
873.819	22.4
873.986	23.66
874.153	31.23
874.32	33.98
874.487	33.33
874.654	38.24
874.821	37.8
874.988	37.52
875.155	39.01
875.322	36.25
875.489	34.81
875.656	31.01
875.823	30.81
875.99	26.88
876.157	26.03
876.324	28.94
876.49	21.9
876.657	28.63
876.824	32.46
876.991	31.32
877.157	28.81
877.324	29.06
877.491	33.73
877.658	39.31
877.824	31.18
877.991	33.96
878.157	31.2
878.324	30.97
878.491	17.22
878.657	23
878.824	24.23
878.99	22.59
879.157	28.78
879.323	25.99
879.49	28.38
879.656	31.4
879.823	22.19
879.989	24.73
880.156	22.51
880.322	29.41
880.488	27.46
880.655	26.55
880.821	26.5
880.987	25.57
881.154	28.03
881.32	27.26
881.486	30.8
881.652	36.22
881.819	33.59
881.985	34
882.151	33.95
882.317	37.42
882.483	38.45
882.649	42.29
882.816	42.75
882.982	42.5
883.148	40.1
883.314	38.64
883.48	37.47
883.646	39.28
883.812	40.09
883.978	39.08
884.144	37.6
884.31	38
884.476	36.91
884.642	36.17
884.807	35.86
884.973	36.96
885.139	36.63
885.305	38.4
885.471	34.56
885.637	35.57
885.802	35.56
885.968	35.21
886.134	33.32
886.3	32.8
886.465	33.61
886.631	30.47
886.797	28.78
886.962	29.31
887.128	24.78
887.293	27.96
887.459	26.92
887.625	26.58
887.79	27.58
887.956	30.14
888.121	28.61
888.287	25.95
888.452	31.02
888.618	33.24
888.783	31.09
