Data from CB_063_Reflection_2.txt Node
Date: Sat Nov 14 10:34:57 EST 2015
User: robert
Spectrometer: USB4E03001
Autoset integration time: false
Trigger mode: 4
Integration Time (sec): 1.000000E-1
Scans to average: 15
Electric dark correction enabled: true
Nonlinearity correction enabled: false
Boxcar width: 5
Stray light correction enabled: false
XAxis mode: Wavelengths
Stop averaging: false
Number of Pixels in Spectrum: 3648
>>>>>Begin Spectral Data<<<<<
177.566	-6.26
177.785	-117.36
178.005	-469.25
178.225	-24.01
178.445	-172.15
178.665	-267.63
178.885	-16.4
179.105	-83.63
179.324	-100.61
179.544	-111.43
179.764	30.85
179.984	72.13
180.204	57.7
180.423	42.57
180.643	91.04
180.863	75.89
181.083	135.35
181.302	145.24
181.522	-224.19
181.742	104.45
181.961	11.95
182.181	26.23
182.401	49.08
182.621	100.72
182.84	276.56
183.06	-193.56
183.279	-40.52
183.499	-32.29
183.719	44.5
183.938	15.86
184.158	55.62
184.377	35.09
184.597	20.28
184.816	28.09
185.036	87.25
185.256	120.25
185.475	142.42
185.695	93.7
185.914	155.6
186.134	172.6
186.353	170.77
186.572	170.53
186.792	543.82
187.011	-3168.49
187.231	2963.31
187.45	347.96
187.67	1297.67
187.889	-302.69
188.108	-92.2
188.328	-53.08
188.547	-5.53
188.766	8.02
188.986	-3.57
189.205	20.36
189.424	41
189.644	66.76
189.863	78.97
190.082	110.09
190.302	128.56
190.521	69.22
190.74	54.53
190.959	-20.45
191.178	48.45
191.398	198.2
191.617	208.24
191.836	-49.46
192.055	50.35
192.274	40.94
192.494	61.76
192.713	-164.29
192.932	-442.04
193.151	90325
193.37	141.77
193.589	-1885.84
193.808	7.32
194.027	-280.92
194.246	616.22
194.465	-205.81
194.685	29.52
194.904	-59.26
195.123	2.81
195.342	-74.5
195.561	-11.95
195.78	140.62
195.999	-154.01
196.218	-223.58
196.436	-276.28
196.655	-63.54
196.874	-11.76
197.093	65.47
197.312	77.3
197.531	48.01
197.75	149.51
197.969	25.24
198.188	-29.65
198.407	49.42
198.625	72.84
198.844	98.75
199.063	107.86
199.282	153.65
199.501	675.78
199.719	-69.58
199.938	92.56
200.157	93.27
200.376	-474.55
200.594	19.09
200.813	-35.14
201.032	54.32
201.251	7.32
201.469	124.59
201.688	-224.71
201.907	1072.97
202.125	292.4
202.344	1580.24
202.563	7421.74
202.781	475.44
203	188.69
203.218	134.06
203.437	279
203.656	206.24
203.874	494.31
204.093	356.13
204.311	153.95
204.53	11.29
204.748	31.92
204.967	-71.83
205.185	-70.69
205.404	-73.77
205.622	-151.4
205.841	-0.64
206.059	-32.21
206.278	-18.95
206.496	49.05
206.715	52.91
206.933	95.02
207.151	77.82
207.37	89.58
207.588	98.74
207.806	102.22
208.025	191.17
208.243	108.98
208.461	-4663.64
208.68	176.52
208.898	-13.46
209.116	10.8
209.335	56.2
209.553	80.21
209.771	78.41
209.989	63.92
210.208	86.53
210.426	73.66
210.644	69.48
210.862	71.47
211.081	70.67
211.299	55.72
211.517	73.01
211.735	38.18
211.953	42.51
212.171	35.41
212.39	48.04
212.608	43.5
212.826	68.77
213.044	64.36
213.262	55.63
213.48	69.53
213.698	139.19
213.916	84.02
214.134	162.37
214.352	210.75
214.57	109.01
214.788	47.32
215.006	8.04
215.224	-16.75
215.442	-0.1
215.66	120.41
215.878	-85.68
216.096	-41.68
216.314	-154.04
216.532	-538.07
216.75	304.78
216.968	205.22
217.185	760.18
217.403	-64.33
217.621	42766.67
217.839	309.03
218.057	10754.17
218.275	447.93
218.492	164.34
218.71	1938.07
218.928	-1031.89
219.146	-371.93
219.363	-162.21
219.581	-173.13
219.799	749.53
220.017	14.2
220.234	-50.87
220.452	57.41
220.67	63.19
220.887	71.6
221.105	131.26
221.323	115.91
221.54	94.6
221.758	104.91
221.976	100.47
222.193	59.93
222.411	43.34
222.629	53.79
222.846	17.34
223.064	28.15
223.281	31.85
223.499	9.61
223.716	8.39
223.934	-5.4
224.151	-5.39
224.369	-11.01
224.586	-10.57
224.804	-8.94
225.021	-0.96
225.239	12.44
225.456	11.3
225.674	11.01
225.891	28.22
226.108	16.65
226.326	12.4
226.543	10.28
226.76	4.38
226.978	17.67
227.195	28.96
227.413	26.85
227.63	24.53
227.847	22.2
228.064	22.03
228.282	18.67
228.499	19.54
228.716	17.28
228.934	19.1
229.151	19.58
229.368	16.12
229.585	13.78
229.802	10.96
230.02	12.74
230.237	15.31
230.454	12.63
230.671	14.15
230.888	16.82
231.105	19.36
231.323	19.93
231.54	19.93
231.757	21.56
231.974	22.03
232.191	24.08
232.408	21.79
232.625	22.31
232.842	19.89
233.059	15.14
233.276	12.55
233.493	9.43
233.71	6.38
233.927	4.91
234.144	5.2
234.361	5.65
234.578	8.51
234.795	8.15
235.012	6.65
235.229	5.65
235.446	14.56
235.663	10.98
235.879	13.7
236.096	15.09
236.313	13.68
236.53	9.84
236.747	3.98
236.964	2.58
237.181	1.01
237.397	1.46
237.614	7.98
237.831	8.31
238.048	11.16
238.264	8.57
238.481	9.5
238.698	12.9
238.915	17.21
239.131	16
239.348	12.53
239.565	12.04
239.781	7.87
239.998	4.16
240.215	-2.3
240.431	2.26
240.648	6.29
240.865	5.25
241.081	6.42
241.298	5.01
241.514	9.49
241.731	10.73
241.947	10.9
242.164	11.98
242.38	11.88
242.597	10.92
242.814	10.8
243.03	10.86
243.246	9.16
243.463	8.51
243.679	8.75
243.896	7.63
244.112	6.79
244.329	8.15
244.545	8.89
244.762	6.23
244.978	8.15
245.194	7.09
245.411	6.75
245.627	10
245.843	11.87
246.06	11.4
246.276	11.73
246.492	13.08
246.709	11.67
246.925	11.08
247.141	13.26
247.357	14.16
247.574	14.37
247.79	14.4
248.006	13.55
248.222	12.86
248.439	13.03
248.655	12.37
248.871	11.58
249.087	12.34
249.303	13.72
249.519	12.46
249.736	10.89
249.952	9.41
250.168	10.33
250.384	10.98
250.6	8.95
250.816	9.8
251.032	10.52
251.248	11.6
251.464	11.55
251.68	8.35
251.896	8.17
252.112	9.51
252.328	10.57
252.544	9.03
252.76	7.46
252.976	8.12
253.192	7.11
253.408	6.92
253.624	4.05
253.84	4.81
254.056	3.61
254.272	3.01
254.487	1.9
254.703	-1.61
254.919	-3.68
255.135	-2.25
255.351	-0.27
255.567	-0.64
255.782	-0.29
255.998	2.15
256.214	1.28
256.43	2.8
256.646	5.26
256.861	2.43
257.077	3.56
257.293	5.35
257.508	7.5
257.724	6.01
257.94	4.73
258.155	5.77
258.371	7.88
258.587	7.35
258.802	7.4
259.018	8.1
259.234	9.25
259.449	9.45
259.665	9.38
259.88	9.24
260.096	9.73
260.312	10.18
260.527	9.74
260.743	10.03
260.958	10.83
261.174	12.27
261.389	11.64
261.605	11.05
261.82	9.74
262.036	9.58
262.251	9.12
262.466	8.31
262.682	8.51
262.897	9.61
263.113	8.12
263.328	5.94
263.543	5.43
263.759	6.74
263.974	5.99
264.189	8.7
264.405	7.07
264.62	8.39
264.835	8.85
265.051	8.42
265.266	5.04
265.481	5.88
265.696	8.67
265.912	5.7
266.127	5.64
266.342	7.25
266.557	7.2
266.773	8.37
266.988	6.64
267.203	7.46
267.418	7.96
267.633	9.23
267.848	8.1
268.064	5.86
268.279	6.16
268.494	4.66
268.709	3.78
268.924	5
269.139	1.97
269.354	3.47
269.569	2.92
269.784	2.51
269.999	3.6
270.214	4.29
270.429	4.01
270.644	5.09
270.859	6.79
271.074	6.66
271.289	6.95
271.504	9.18
271.719	8.97
271.934	9.69
272.149	8.94
272.363	8.79
272.578	8.51
272.793	9.74
273.008	8.44
273.223	7.52
273.438	7.36
273.653	6.17
273.867	6.34
274.082	7.14
274.297	7.93
274.512	9.03
274.726	8.54
274.941	7.58
275.156	8.07
275.371	9.27
275.585	9.45
275.8	11.01
276.015	10.35
276.229	10.48
276.444	9.03
276.659	7.14
276.873	7.3
277.088	7.59
277.302	10.36
277.517	8.68
277.732	8.44
277.946	8.29
278.161	7.78
278.375	9.22
278.59	7.58
278.804	8.54
279.019	9.66
279.233	9.03
279.448	7.04
279.662	3.86
279.877	4.01
280.091	2.91
280.306	3.24
280.52	2.17
280.735	1.25
280.949	3.83
281.163	4.13
281.378	3.38
281.592	4.06
281.806	5.68
282.021	6.45
282.235	7.58
282.449	8.46
282.664	9.28
282.878	10.2
283.092	10.68
283.307	9.3
283.521	7.98
283.735	8.79
283.949	8.23
284.164	7.96
284.378	7.56
284.592	6.5
284.806	6.74
285.02	6.7
285.234	6.2
285.449	5.77
285.663	6.36
285.877	7.01
286.091	5.67
286.305	5.85
286.519	6.78
286.733	7.36
286.947	8.37
287.161	8.37
287.375	7.42
287.589	8.24
287.803	9.97
288.017	9.25
288.231	9.6
288.445	11.12
288.659	11.62
288.873	9.37
289.087	10.34
289.301	9.71
289.515	8.54
289.729	9.39
289.943	8.64
290.157	8.43
290.371	9.62
290.584	8.39
290.798	7.82
291.012	7.75
291.226	9.35
291.44	8.65
291.654	8.85
291.867	9.21
292.081	7.87
292.295	8.93
292.509	8.73
292.722	8.34
292.936	8.26
293.15	7.99
293.364	6.23
293.577	6.65
293.791	7.98
294.005	6.83
294.218	9.22
294.432	9.62
294.645	8.41
294.859	9.44
295.073	9.47
295.286	10.36
295.5	9.87
295.713	10.73
295.927	10.54
296.14	9.27
296.354	10.19
296.568	9.4
296.781	10.23
296.994	10.6
297.208	8.22
297.421	8.04
297.635	8.96
297.848	9.6
298.062	9.75
298.275	9.61
298.489	9.93
298.702	10.33
298.915	10.24
299.129	10.28
299.342	10.09
299.555	11.3
299.769	11.04
299.982	8.8
300.195	8.85
300.409	8.04
300.622	7.38
300.835	7.43
301.048	6.42
301.262	6.04
301.475	6.29
301.688	6.44
301.901	6.63
302.115	7.43
302.328	8.67
302.541	8.62
302.754	10.41
302.967	10.7
303.18	11.12
303.393	11.54
303.607	11.88
303.82	11.72
304.033	12
304.246	12.45
304.459	12.32
304.672	12.4
304.885	13.49
305.098	12.94
305.311	13.86
305.524	12.34
305.737	12.43
305.95	13.32
306.163	12.82
306.376	12.68
306.589	13.03
306.802	13.79
307.015	14.17
307.228	12.9
307.44	12.36
307.653	11.3
307.866	12.37
308.079	14.15
308.292	12.66
308.505	14.09
308.718	15.09
308.93	15.79
309.143	15.42
309.356	15.92
309.569	15.59
309.781	15.84
309.994	17.34
310.207	17.17
310.42	16.09
310.632	17.91
310.845	17.06
311.058	16.28
311.27	14.94
311.483	14.14
311.696	13.81
311.908	13.88
312.121	13.45
312.333	13.21
312.546	13.1
312.759	12.15
312.971	11.2
313.184	11.58
313.396	12.18
313.609	12.48
313.821	13.96
314.034	13.58
314.246	13.69
314.459	14.39
314.671	12.89
314.884	13.44
315.096	14.41
315.309	14.68
315.521	15.65
315.733	14.96
315.946	15.42
316.158	14.21
316.371	14.67
316.583	14.24
316.795	14.87
317.008	16.61
317.22	16.28
317.432	17.15
317.644	16.62
317.857	15.07
318.069	15.49
318.281	15.37
318.494	15.2
318.706	15.37
318.918	16.11
319.13	14.09
319.342	13.3
319.555	13.39
319.767	13.77
319.979	12.16
320.191	11.81
320.403	12.91
320.615	14.22
320.827	14.74
321.039	13.57
321.252	14.61
321.464	15.89
321.676	15.66
321.888	16.33
322.1	15.55
322.312	17.26
322.524	17.25
322.736	15.41
322.948	14.89
323.16	15.12
323.372	16.09
323.584	15.59
323.796	15.92
324.007	16.34
324.219	16.54
324.431	16.19
324.643	17.09
324.855	17.49
325.067	17.55
325.279	16.59
325.491	17.84
325.702	17.65
325.914	17.11
326.126	16.33
326.338	15.68
326.55	15.21
326.761	15.59
326.973	14.93
327.185	14.24
327.396	16.1
327.608	17.18
327.82	16.27
328.032	17.69
328.243	18.3
328.455	20.4
328.666	21.33
328.878	21.9
329.09	22.19
329.301	22.29
329.513	23.12
329.725	22.47
329.936	22.09
330.148	21.52
330.359	21.8
330.571	22.28
330.782	21.26
330.994	22.05
331.205	23.47
331.417	24.67
331.628	25.06
331.84	26.66
332.051	26.45
332.262	26.66
332.474	26.86
332.685	27.23
332.897	27.55
333.108	27.24
333.319	26.57
333.531	25.17
333.742	23.71
333.953	23.53
334.165	21.65
334.376	22.97
334.587	23.08
334.799	22.65
335.01	21.71
335.221	21.03
335.432	20.46
335.644	20.9
335.855	21.42
336.066	22.13
336.277	22.6
336.488	23.04
336.7	21.84
336.911	22.11
337.122	23.3
337.333	22.79
337.544	22.49
337.755	23.27
337.966	24.1
338.177	23.89
338.388	23.21
338.599	22.27
338.811	22.42
339.022	22.84
339.233	22.48
339.444	21.22
339.655	21.46
339.866	22.19
340.076	21.81
340.287	18.54
340.498	18.48
340.709	19.78
340.92	19.92
341.131	20.25
341.342	20.74
341.553	19.43
341.764	20.54
341.975	20.97
342.185	21.34
342.396	22.12
342.607	23.25
342.818	22.84
343.029	21.97
343.239	22.81
343.45	22.48
343.661	21.31
343.872	22.56
344.082	21.38
344.293	21.61
344.504	21.32
344.714	20.83
344.925	21.61
345.136	22.38
345.346	22.46
345.557	21.64
345.768	21.01
345.978	21.9
346.189	21.4
346.399	21.15
346.61	20.17
346.821	19.77
347.031	20.71
347.242	20.17
347.452	19.21
347.663	19.45
347.873	19.7
348.084	20.03
348.294	18.69
348.504	18.37
348.715	19.98
348.925	20.6
349.136	19.76
349.346	18.48
349.557	18.96
349.767	20.41
349.977	20.03
350.188	19.53
350.398	19.67
350.608	20.23
350.819	21.57
351.029	20.35
351.239	20.6
351.449	21.38
351.66	21.21
351.87	20.87
352.08	20.07
352.29	20.38
352.501	20.63
352.711	20.25
352.921	20.59
353.131	19.37
353.341	19.64
353.552	18.78
353.762	18.75
353.972	19.29
354.182	19.58
354.392	18.71
354.602	18.6
354.812	19.09
355.022	19.06
355.232	18.76
355.442	18.82
355.652	19.27
355.862	19.38
356.072	19.94
356.282	20.02
356.492	19.95
356.702	20.6
356.912	19.88
357.122	20.32
357.332	20.67
357.542	19.97
357.752	20.07
357.962	19.84
358.171	19.93
358.381	19.42
358.591	18.98
358.801	18.56
359.011	18.5
359.221	18.93
359.43	17.92
359.64	17.43
359.85	17.83
360.06	17.92
360.269	17.68
360.479	18
360.689	18.41
360.899	18.82
361.108	18.96
361.318	18.44
361.528	18.46
361.737	18.25
361.947	18.84
362.156	19.19
362.366	18.81
362.576	19.11
362.785	18.46
362.995	18.5
363.204	18.15
363.414	17.75
363.623	17.73
363.833	17.57
364.042	18.09
364.252	18.2
364.461	17.73
364.671	17.88
364.88	17.56
365.09	18.3
365.299	17.8
365.509	18.16
365.718	17.9
365.927	18.64
366.137	18.56
366.346	18.85
366.555	18.33
366.765	18.46
366.974	18.61
367.183	18.93
367.393	18.08
367.602	17.51
367.811	17.23
368.021	17.97
368.23	17.38
368.439	16.88
368.648	16.16
368.857	16.22
369.067	16.13
369.276	16.53
369.485	15.93
369.694	16.46
369.903	16.58
370.112	16.38
370.321	15.81
370.531	15.45
370.74	15.42
370.949	15.25
371.158	14.72
371.367	14.41
371.576	13.79
371.785	13.73
371.994	13.37
372.203	13.61
372.412	13.55
372.621	14.02
372.83	14.3
373.039	14.96
373.248	14.82
373.457	15.16
373.666	14.52
373.874	15.02
374.083	15.61
374.292	15.67
374.501	15.31
374.71	15.34
374.919	14.98
375.128	14.68
375.336	14.64
375.545	14.9
375.754	14.83
375.963	15.73
376.171	15.07
376.38	14.48
376.589	14.22
376.798	13.94
377.006	13.99
377.215	14.19
377.424	14.1
377.632	13.58
377.841	13.64
378.05	13.64
378.258	13.33
378.467	13.56
378.675	13.32
378.884	13.81
379.093	14.08
379.301	13.67
379.51	12.8
379.718	13.14
379.927	13.26
380.135	13.29
380.344	12.61
380.552	12.91
380.761	12.63
380.969	12.32
381.177	11.63
381.386	11.84
381.594	11.92
381.803	12.12
382.011	12.07
382.219	11.85
382.428	11.54
382.636	11.9
382.845	10.89
383.053	10.88
383.261	11.36
383.469	11.39
383.678	11.12
383.886	11.31
384.094	11.38
384.302	11.29
384.511	11.6
384.719	11.51
384.927	11.49
385.135	11.86
385.343	11.52
385.552	11.49
385.76	11.25
385.968	11.04
386.176	10.76
386.384	10.23
386.592	9.94
386.8	9.7
387.008	9.8
387.216	9.66
387.424	9.76
387.633	9.85
387.841	10.1
388.049	10.49
388.257	10.79
388.465	10.54
388.672	10.86
388.88	10.9
389.088	10.21
389.296	9.8
389.504	9.58
389.712	9.79
389.92	10.07
390.128	9.7
390.336	9.43
390.544	9.12
390.751	9.26
390.959	9.22
391.167	8.89
391.375	9.57
391.583	9.39
391.79	9.5
391.998	9.43
392.206	9.48
392.414	9.21
392.621	9.2
392.829	9.06
393.037	8.95
393.244	8.88
393.452	9.04
393.66	8.74
393.867	8.97
394.075	8.96
394.283	8.6
394.49	7.83
394.698	7.64
394.905	7.48
395.113	7.87
395.32	7.86
395.528	7.96
395.735	8
395.943	8.05
396.15	7.83
396.358	7.73
396.565	7.67
396.773	8.07
396.98	8.56
397.188	8.54
397.395	8.41
397.602	8.3
397.81	7.86
398.017	7.63
398.225	7.66
398.432	7.5
398.639	7.23
398.847	7.32
399.054	7.46
399.261	7.55
399.468	7.42
399.676	7.39
399.883	7.4
400.09	7.86
400.297	7.9
400.505	7.99
400.712	8.65
400.919	9.06
401.126	8.84
401.333	8.57
401.54	8.3
401.748	8.55
401.955	8.05
402.162	7.89
402.369	7.7
402.576	7.75
402.783	7.33
402.99	6.87
403.197	6.68
403.404	6.7
403.611	6.71
403.818	6.67
404.025	6.47
404.232	6.94
404.439	6.85
404.646	6.85
404.853	6.66
405.06	6.55
405.267	6.76
405.474	6.93
405.681	7.33
405.887	7.34
406.094	7.54
406.301	7.41
406.508	7.25
406.715	7.74
406.922	7.83
407.128	8.36
407.335	8.56
407.542	8.49
407.749	8.16
407.955	7.82
408.162	7.63
408.369	7.23
408.575	7.62
408.782	7.66
408.989	7.08
409.195	7.02
409.402	6.7
409.609	6.33
409.815	6.09
410.022	6.09
410.228	6.11
410.435	6.19
410.642	6.56
410.848	6.15
411.055	6.24
411.261	6.37
411.468	6.39
411.674	6.38
411.881	6.5
412.087	6.61
412.294	6.94
412.5	7.13
412.706	7.16
412.913	6.9
413.119	7.13
413.326	6.62
413.532	6.81
413.738	6.99
413.945	6.62
414.151	6.85
414.357	6.69
414.564	6.62
414.77	6.41
414.976	6.27
415.182	6.38
415.389	6.4
415.595	6.42
415.801	6.36
416.007	6.31
416.214	6.46
416.42	6.39
416.626	6.5
416.832	6.46
417.038	6.6
417.244	6.7
417.45	6.6
417.657	6.63
417.863	6.87
418.069	6.8
418.275	6.65
418.481	6.7
418.687	6.77
418.893	6.71
419.099	6.64
419.305	6.37
419.511	6.42
419.717	6.22
419.923	6.13
420.129	6.02
420.335	6.05
420.541	6.09
420.746	5.99
420.952	5.96
421.158	6.09
421.364	6.02
421.57	6
421.776	6.01
421.982	6.24
422.187	6.2
422.393	6.15
422.599	6.14
422.805	6.08
423.01	6.24
423.216	6.16
423.422	6.07
423.628	6.18
423.833	6.15
424.039	6.04
424.245	5.92
424.45	6.06
424.656	6.14
424.862	6.06
425.067	5.9
425.273	5.76
425.478	5.72
425.684	5.64
425.889	5.58
426.095	5.68
426.301	5.73
426.506	5.77
426.712	5.68
426.917	5.75
427.123	5.77
427.328	5.9
427.533	5.88
427.739	6.02
427.944	6.07
428.15	5.91
428.355	5.92
428.561	5.99
428.766	5.97
428.971	5.83
429.177	5.65
429.382	5.76
429.587	5.8
429.793	5.88
429.998	5.72
430.203	5.66
430.408	5.96
430.614	5.85
430.819	5.67
431.024	5.38
431.229	5.55
431.434	5.51
431.64	5.38
431.845	5.24
432.05	5.39
432.255	5.52
432.46	5.68
432.665	5.35
432.87	5.4
433.076	5.35
433.281	5.5
433.486	5.18
433.691	5.07
433.896	5.09
434.101	5.19
434.306	4.97
434.511	5.06
434.716	4.88
434.921	5.14
435.126	5.02
435.331	4.95
435.535	4.9
435.74	4.98
435.945	5.01
436.15	4.92
436.355	4.95
436.56	4.98
436.765	4.96
436.97	4.91
437.174	4.9
437.379	5.02
437.584	5.11
437.789	5.14
437.993	5.28
438.198	5.39
438.403	5.46
438.608	5.61
438.812	5.62
439.017	5.38
439.222	5.37
439.426	5.39
439.631	5.31
439.836	5.52
440.04	5.64
440.245	5.59
440.45	5.58
440.654	5.53
440.859	5.33
441.063	5.38
441.268	5.44
441.472	5.34
441.677	5.28
441.881	5.26
442.086	5.15
442.29	4.98
442.495	5.13
442.699	5.21
442.904	5.08
443.108	5.2
443.312	5.12
443.517	5.11
443.721	5.31
443.925	5.32
444.13	5.49
444.334	5.28
444.538	5.33
444.743	5.29
444.947	5.23
445.151	5.43
445.356	5.37
445.56	5.44
445.764	5.46
445.968	5.55
446.173	5.44
446.377	5.47
446.581	5.57
446.785	5.57
446.989	5.46
447.193	5.48
447.398	5.56
447.602	5.44
447.806	5.37
448.01	5.52
448.214	5.28
448.418	5.12
448.622	5.05
448.826	5.05
449.03	5.08
449.234	5.18
449.438	5.15
449.642	4.99
449.846	5.23
450.05	5.3
450.254	5.17
450.458	5.18
450.662	5.37
450.866	5.29
451.069	5.28
451.273	5.27
451.477	5.25
451.681	5.25
451.885	5.12
452.089	5.1
452.292	5.04
452.496	4.89
452.7	5.02
452.904	5
453.107	5.14
453.311	4.92
453.515	4.88
453.719	4.76
453.922	4.73
454.126	4.94
454.33	4.83
454.533	4.78
454.737	4.84
454.94	4.74
455.144	5.09
455.348	4.89
455.551	5.1
455.755	5.11
455.958	5.41
456.162	5.51
456.365	5.48
456.569	5.38
456.772	5.22
456.976	5.44
457.179	5.58
457.383	5.24
457.586	5.32
457.79	5.21
457.993	5.21
458.196	5.07
458.4	5.09
458.603	4.92
458.807	5
459.01	5.18
459.213	5.07
459.417	5.12
459.62	5.09
459.823	5.11
460.026	5.14
460.23	5.08
460.433	4.99
460.636	4.98
460.839	4.95
461.042	4.89
461.246	4.89
461.449	4.89
461.652	4.76
461.855	4.91
462.058	4.85
462.261	4.95
462.464	4.94
462.668	5.16
462.871	5.17
463.074	5.15
463.277	5.25
463.48	5.18
463.683	5.24
463.886	5.29
464.089	5.17
464.292	5.04
464.495	4.97
464.698	5.03
464.901	4.8
465.104	4.66
465.306	4.55
465.509	4.74
465.712	4.85
465.915	4.94
466.118	4.85
466.321	4.81
466.524	4.92
466.726	4.91
466.929	4.8
467.132	4.75
467.335	4.77
467.538	5.03
467.74	4.97
467.943	4.71
468.146	4.42
468.348	4.45
468.551	4.31
468.754	4.34
468.956	4.55
469.159	4.64
469.362	4.88
469.564	4.92
469.767	5.02
469.969	4.96
470.172	5.25
470.375	5.35
470.577	5.3
470.78	5.47
470.982	5.46
471.185	5.32
471.387	5.34
471.59	5.25
471.792	5.18
471.995	4.98
472.197	4.91
472.399	4.86
472.602	4.83
472.804	4.8
473.007	4.74
473.209	4.79
473.411	4.84
473.614	5.05
473.816	4.95
474.018	4.89
474.22	5.05
474.423	5.08
474.625	5.01
474.827	5.07
475.03	5.32
475.232	5.26
475.434	5.21
475.636	5.11
475.838	5.07
476.04	5.27
476.243	5.44
476.445	5.33
476.647	5.25
476.849	5.21
477.051	5.18
477.253	5.21
477.455	5.22
477.657	5.16
477.859	5.11
478.061	4.98
478.263	4.85
478.465	4.64
478.667	4.7
478.869	4.62
479.071	4.67
479.273	4.53
479.475	4.46
479.677	4.6
479.879	4.58
480.081	4.51
480.283	4.44
480.485	4.36
480.686	4.71
480.888	4.72
481.09	4.82
481.292	4.83
481.494	4.96
481.695	4.91
481.897	4.87
482.099	4.95
482.301	4.93
482.502	4.94
482.704	5.06
482.906	4.91
483.107	4.85
483.309	4.88
483.511	4.87
483.712	4.86
483.914	4.85
484.115	4.87
484.317	4.87
484.519	4.92
484.72	4.96
484.922	4.89
485.123	4.85
485.325	4.88
485.526	4.92
485.728	4.91
485.929	4.92
486.131	4.91
486.332	4.87
486.534	4.85
486.735	4.83
486.936	4.82
487.138	4.85
487.339	4.93
487.541	4.89
487.742	4.86
487.943	4.85
488.144	4.9
488.346	4.91
488.547	4.9
488.748	4.89
488.95	4.85
489.151	4.86
489.352	4.86
489.553	4.83
489.755	4.88
489.956	4.88
490.157	4.88
490.358	4.8
490.559	4.74
490.76	4.83
490.961	4.72
491.163	4.84
491.364	4.81
491.565	4.87
491.766	4.86
491.967	4.86
492.168	4.85
492.369	4.87
492.57	4.87
492.771	4.91
492.972	4.81
493.173	5.02
493.374	4.9
493.575	4.84
493.776	4.81
493.976	4.85
494.177	4.87
494.378	4.97
494.579	5.05
494.78	5.2
494.981	5.23
495.182	5.3
495.382	5.15
495.583	5.16
495.784	5.31
495.985	5.43
496.185	5.28
496.386	5.3
496.587	5.24
496.788	5.12
496.988	4.99
497.189	4.94
497.39	4.84
497.59	4.99
497.791	4.97
497.992	4.88
498.192	4.64
498.393	4.75
498.593	4.71
498.794	4.7
498.994	4.86
499.195	4.79
499.395	4.95
499.596	5.14
499.796	5.03
499.997	5.21
500.197	5.39
500.398	5.47
500.598	5.4
500.799	5.59
500.999	5.51
501.199	5.38
501.4	5.62
501.6	5.67
501.801	5.57
502.001	5.63
502.201	5.57
502.402	5.51
502.602	5.55
502.802	5.69
503.002	5.48
503.203	5.57
503.403	5.65
503.603	5.61
503.803	5.54
504.003	5.7
504.204	5.69
504.404	5.84
504.604	5.85
504.804	6.01
505.004	5.92
505.204	6.01
505.404	6.04
505.604	6
505.804	6.02
506.005	5.85
506.205	5.7
506.405	5.83
506.605	5.77
506.805	5.71
507.005	5.72
507.204	5.76
507.404	5.66
507.604	5.79
507.804	5.9
508.004	5.99
508.204	6.13
508.404	6.26
508.604	6.1
508.804	6.18
509.003	6.32
509.203	6.3
509.403	6.44
509.603	6.5
509.803	6.47
510.002	6.62
510.202	6.58
510.402	6.83
510.602	6.9
510.801	7.14
511.001	7.13
511.201	7.1
511.4	7.06
511.6	7.17
511.8	7.34
511.999	7.42
512.199	7.22
512.398	7.18
512.598	7.12
512.797	7.3
512.997	7.33
513.197	7.39
513.396	7.6
513.596	7.82
513.795	7.71
513.994	7.74
514.194	7.79
514.393	7.88
514.593	7.98
514.792	8.04
514.992	7.96
515.191	8.06
515.39	8.13
515.59	8.06
515.789	8.02
515.988	8.25
516.188	8.31
516.387	8.37
516.586	8.58
516.786	8.69
516.985	8.81
517.184	8.99
517.383	9.15
517.582	9.22
517.782	9.27
517.981	9.45
518.18	9.4
518.379	9.5
518.578	9.58
518.777	9.79
518.976	9.93
519.176	10.02
519.375	10.11
519.574	10.05
519.773	10.07
519.972	10.27
520.171	10.33
520.37	10.53
520.569	10.59
520.768	10.78
520.967	10.67
521.166	10.74
521.365	10.9
521.564	11.05
521.762	11.23
521.961	11.45
522.16	11.42
522.359	11.48
522.558	11.52
522.757	11.66
522.956	11.56
523.154	11.62
523.353	11.91
523.552	11.83
523.751	11.8
523.949	11.97
524.148	11.98
524.347	12.26
524.546	12.33
524.744	12.58
524.943	12.73
525.142	12.85
525.34	13.11
525.539	12.97
525.737	13.13
525.936	13.24
526.135	13.3
526.333	13.46
526.532	13.3
526.73	13.36
526.929	13.44
527.127	13.58
527.326	13.71
527.524	13.79
527.723	13.97
527.921	14.1
528.12	14.24
528.318	14.31
528.516	14.45
528.715	14.65
528.913	14.76
529.112	14.87
529.31	14.89
529.508	14.92
529.707	14.99
529.905	15.09
530.103	15.11
530.301	15.12
530.5	15.17
530.698	15.13
530.896	15.16
531.094	15.25
531.293	15.32
531.491	15.51
531.689	15.67
531.887	15.8
532.085	15.87
532.283	15.99
532.481	16.16
532.68	16.31
532.878	16.5
533.076	16.64
533.274	16.68
533.472	16.69
533.67	16.65
533.868	16.77
534.066	16.89
534.264	16.92
534.462	17.01
534.66	17.07
534.858	17.14
535.056	17.29
535.253	17.39
535.451	17.55
535.649	17.64
535.847	17.91
536.045	18.03
536.243	18.01
536.441	18.06
536.638	18.1
536.836	18.24
537.034	18.4
537.232	18.26
537.43	18.31
537.627	18.33
537.825	18.45
538.023	18.37
538.22	18.49
538.418	18.71
538.616	18.9
538.813	18.99
539.011	19.03
539.209	19.04
539.406	19.29
539.604	19.46
539.801	19.66
539.999	19.78
540.196	19.91
540.394	20
540.591	20.03
540.789	20.13
540.986	20.26
541.184	20.24
541.381	20.39
541.579	20.4
541.776	20.45
541.974	20.49
542.171	20.53
542.368	20.55
542.566	20.54
542.763	20.56
542.96	20.58
543.158	20.67
543.355	20.88
543.552	20.89
543.75	20.99
543.947	21.02
544.144	21.17
544.341	21.2
544.539	21.36
544.736	21.55
544.933	21.75
545.13	21.8
545.327	21.79
545.524	21.64
545.722	21.72
545.919	21.82
546.116	21.87
546.313	21.78
546.51	21.91
546.707	21.92
546.904	21.96
547.101	21.89
547.298	22.09
547.495	22.21
547.692	22.48
547.889	22.5
548.086	22.47
548.283	22.48
548.48	22.61
548.677	22.73
548.874	22.82
549.07	22.89
549.267	22.93
549.464	22.79
549.661	22.84
549.858	22.7
550.055	22.73
550.251	22.91
550.448	23.18
550.645	23.2
550.842	23.24
551.038	23.23
551.235	23.39
551.432	23.73
551.628	23.91
551.825	23.95
552.022	24.1
552.218	24.12
552.415	24.39
552.612	24.57
552.808	24.65
553.005	24.65
553.201	24.63
553.398	24.64
553.594	24.42
553.791	24.51
553.987	24.69
554.184	24.79
554.38	24.84
554.577	24.69
554.773	24.6
554.97	24.7
555.166	24.77
555.362	24.95
555.559	24.9
555.755	25.14
555.952	25.21
556.148	25.14
556.344	25.22
556.541	25.45
556.737	25.38
556.933	25.47
557.129	25.53
557.326	25.65
557.522	25.68
557.718	25.95
557.914	26.15
558.11	26.07
558.307	26.14
558.503	26.1
558.699	26.3
558.895	26.47
559.091	26.66
559.287	26.77
559.483	26.93
559.679	27.06
559.876	26.58
560.072	26.33
560.268	26.59
560.464	26.67
560.66	26.76
560.856	26.79
561.052	27.02
561.247	26.96
561.443	26.96
561.639	26.9
561.835	27.15
562.031	27.5
562.227	27.63
562.423	27.53
562.619	27.48
562.815	27.7
563.01	27.74
563.206	27.62
563.402	27.6
563.598	27.79
563.793	27.82
563.989	27.72
564.185	27.88
564.381	28
564.576	28.18
564.772	28.08
564.968	27.99
565.163	27.91
565.359	27.91
565.555	27.85
565.75	27.68
565.946	27.77
566.141	27.72
566.337	27.53
566.532	27.61
566.728	27.68
566.923	27.83
567.119	27.91
567.314	28.04
567.51	28.33
567.705	28.48
567.901	28.8
568.096	28.59
568.292	28.9
568.487	29.15
568.682	29.26
568.878	29.29
569.073	29.47
569.268	29.53
569.464	29.54
569.659	29.47
569.854	29.47
570.05	29.05
570.245	29.56
570.44	29.49
570.635	29.74
570.831	29.6
571.026	29.62
571.221	29.66
571.416	29.73
571.611	29.75
571.806	29.74
572.002	29.97
572.197	30.3
572.392	30.18
572.587	30.36
572.782	30.34
572.977	30.46
573.172	30.44
573.367	30.51
573.562	30.62
573.757	30.79
573.952	30.72
574.147	30.72
574.342	30.62
574.537	30.62
574.732	30.42
574.927	30.43
575.121	30.48
575.316	30.58
575.511	30.63
575.706	30.61
575.901	30.39
576.096	30.52
576.29	30.43
576.485	30.58
576.68	30.51
576.875	30.59
577.069	30.57
577.264	30.66
577.459	30.68
577.654	30.78
577.848	30.76
578.043	31.02
578.238	30.88
578.432	31.09
578.627	31.08
578.821	31.36
579.016	31.42
579.21	31.48
579.405	31.7
579.6	31.57
579.794	31.54
579.989	31.52
580.183	31.52
580.378	31.78
580.572	31.86
580.766	31.74
580.961	31.61
581.155	31.63
581.35	31.57
581.544	31.28
581.738	31.81
581.933	31.76
582.127	31.87
582.321	31.87
582.516	31.93
582.71	31.81
582.904	32.1
583.099	32.12
583.293	32.14
583.487	32
583.681	32.21
583.875	31.77
584.07	31.93
584.264	32
584.458	32.01
584.652	32.03
584.846	32.11
585.04	31.96
585.234	32.15
585.428	32.33
585.623	32.66
585.817	32.24
586.011	32.51
586.205	32.34
586.399	32.4
586.593	32.57
586.787	32.67
586.981	32.64
587.174	32.8
587.368	32.74
587.562	32.65
587.756	32.73
587.95	33.14
588.144	33.08
588.338	33.14
588.532	33.23
588.725	33.24
588.919	33.16
589.113	33.07
589.307	33.13
589.501	33.05
589.694	33.13
589.888	32.83
590.082	32.83
590.275	32.7
590.469	32.83
590.663	32.69
590.856	32.57
591.05	32.67
591.244	32.66
591.437	32.65
591.631	32.61
591.824	32.4
592.018	32.65
592.212	32.93
592.405	33.22
592.599	33.3
592.792	33.43
592.986	33.35
593.179	33.3
593.372	33.38
593.566	33.01
593.759	33.46
593.953	33.55
594.146	33.43
594.339	33.28
594.533	33.15
594.726	33.02
594.92	32.89
595.113	33.01
595.306	32.96
595.499	33.19
595.693	33.7
595.886	33.53
596.079	33.46
596.272	33.63
596.466	33.52
596.659	33.68
596.852	33.95
597.045	34.16
597.238	34.23
597.431	34.28
597.624	34.26
597.818	34.21
598.011	34.27
598.204	34.47
598.397	34.39
598.59	34.52
598.783	34.35
598.976	34.26
599.169	34.15
599.362	34.05
599.555	34.14
599.748	34.05
599.941	34.02
600.134	33.93
600.326	33.84
600.519	34.15
600.712	34.19
600.905	34.34
601.098	34.39
601.291	34.35
601.483	34.51
601.676	34.47
601.869	34.5
602.062	34.32
602.255	34.57
602.447	34.7
602.64	34.48
602.833	34.31
603.025	34.28
603.218	34.08
603.411	34.1
603.603	34.05
603.796	34.17
603.989	34.03
604.181	34.2
604.374	33.88
604.566	34.01
604.759	34.14
604.951	34.27
605.144	34.37
605.336	34.55
605.529	34.56
605.721	34.69
605.914	34.75
606.106	34.95
606.299	35.07
606.491	35.42
606.683	35.18
606.876	35.07
607.068	35.03
607.26	34.85
607.453	34.89
607.645	34.75
607.837	34.94
608.03	34.86
608.222	34.82
608.414	34.77
608.606	34.69
608.799	34.82
608.991	34.93
609.183	34.87
609.375	35.09
609.567	35
609.759	35.4
609.952	34.98
610.144	35
610.336	35.07
610.528	35.18
610.72	35.27
610.912	35.31
611.104	35.33
611.296	35.56
611.488	35.54
611.68	35.52
611.872	35.47
612.064	35.99
612.256	35.83
612.448	35.92
612.64	35.77
612.832	35.85
613.023	36.1
613.215	36.17
613.407	35.77
613.599	35.73
613.791	36.1
613.983	35.84
614.174	35.47
614.366	35.61
614.558	35.7
614.75	35.94
614.941	35.7
615.133	35.4
615.325	35.08
615.516	35.63
615.708	35.67
615.9	35.64
616.091	35.87
616.283	35.92
616.475	35.87
616.666	35.6
616.858	35.23
617.049	35.25
617.241	35.28
617.432	35.76
617.624	35.67
617.815	35.49
618.007	35.27
618.198	35.34
618.39	35.4
618.581	35.77
618.773	35.68
618.964	35.79
619.155	35.61
619.347	35.66
619.538	35.61
619.729	35.67
619.921	35.89
620.112	36.05
620.303	35.85
620.494	36.06
620.686	35.69
620.877	35.9
621.068	35.93
621.259	35.92
621.451	36.14
621.642	35.73
621.833	35.62
622.024	35.57
622.215	35.34
622.406	35.59
622.597	35.4
622.788	35.31
622.98	35.02
623.171	35.07
623.362	35.54
623.553	35.47
623.744	35.49
623.935	35.41
624.126	35.58
624.317	36.01
624.508	35.85
624.698	36.04
624.889	36.13
625.08	36.76
625.271	36.68
625.462	36.46
625.653	36.32
625.844	36.23
626.034	36.35
626.225	36.31
626.416	35.98
626.607	36.04
626.798	35.76
626.988	35.86
627.179	35.69
627.37	35.77
627.56	35.77
627.751	35.8
627.942	36.07
628.132	36.07
628.323	35.9
628.514	35.96
628.704	35.75
628.895	35.91
629.085	35.96
629.276	35.57
629.466	35.61
629.657	35.71
629.847	35.63
630.038	35.82
630.228	35.87
630.419	35.98
630.609	36.06
630.8	36.3
630.99	36.49
631.181	36.75
631.371	37
631.561	36.74
631.752	36.57
631.942	36.92
632.132	36.7
632.323	36.64
632.513	36.73
632.703	36.55
632.893	36.68
633.084	36.58
633.274	36.61
633.464	36.66
633.654	36.82
633.844	36.67
634.034	36.2
634.225	35.99
634.415	36.04
634.605	35.96
634.795	36.08
634.985	36.08
635.175	36.05
635.365	35.94
635.555	35.78
635.745	35.7
635.935	36.07
636.125	36.33
636.315	36.89
636.505	36.89
636.695	36.94
636.885	36.87
637.075	36.94
637.265	37.01
637.455	36.98
637.644	37.14
637.834	37.32
638.024	37.38
638.214	37.41
638.404	37.24
638.593	36.76
638.783	36.63
638.973	36.79
639.163	36.62
639.352	36.41
639.542	36.45
639.732	36.9
639.921	36.89
640.111	37.16
640.301	36.98
640.49	37.1
640.68	37.82
640.87	38.08
641.059	37.97
641.249	38.33
641.438	38.46
641.628	38.45
641.817	38.4
642.007	38.49
642.196	38.09
642.386	38.52
642.575	38.71
642.764	38.47
642.954	38.58
643.143	38.89
643.333	38.54
643.522	38.6
643.711	38.62
643.901	38.49
644.09	38.35
644.279	38.66
644.469	38.22
644.658	37.61
644.847	37.65
645.036	37.74
645.226	37.49
645.415	37.55
645.604	37.45
645.793	37.26
645.982	37.27
646.171	37.33
646.361	37.26
646.55	37.76
646.739	38.03
646.928	37.9
647.117	37.77
647.306	37.86
647.495	37.73
647.684	37.88
647.873	37.95
648.062	37.85
648.251	37.84
648.44	37.66
648.629	37.28
648.818	37.38
649.007	37.37
649.196	37.33
649.384	37.13
649.573	37.17
649.762	37.28
649.951	37.13
650.14	37.28
650.328	37.28
650.517	37.4
650.706	37.4
650.895	37.34
651.083	37.71
651.272	37.92
651.461	37.95
651.65	37.94
651.838	37.77
652.027	37.99
652.216	37.66
652.404	37.41
652.593	37.12
652.781	37.32
652.97	37.29
653.158	36.94
653.347	36.76
653.535	36.89
653.724	36.95
653.912	37.82
654.101	37.44
654.289	37.63
654.478	38.2
654.666	38.29
654.855	38.49
655.043	38.34
655.231	38.68
655.42	38.39
655.608	38.22
655.796	38.16
655.985	37.63
656.173	37.84
656.361	37.77
656.55	37.48
656.738	37.99
656.926	37.96
657.114	38.35
657.302	38.56
657.491	38.3
657.679	38.38
657.867	38.74
658.055	38.69
658.243	38.87
658.431	38.89
658.619	38.74
658.807	38.82
658.996	38.72
659.184	38.34
659.372	38.02
659.56	38.36
659.748	38.59
659.936	38.47
660.124	38.31
660.311	38.23
660.499	38.19
660.687	38.25
660.875	37.78
661.063	37.72
661.251	37.96
661.439	38.4
661.627	38.47
661.814	38.12
662.002	37.69
662.19	37.9
662.378	37.9
662.565	37.99
662.753	37.99
662.941	38.1
663.129	37.92
663.316	37.94
663.504	37.6
663.692	37.09
663.879	37.34
664.067	37.85
664.254	37.49
664.442	37.5
664.63	37.53
664.817	37.93
665.005	37.71
665.192	38.39
665.38	38.48
665.567	38.33
665.755	38.92
665.942	38.87
666.13	39
666.317	39.24
666.504	39.15
666.692	39.66
666.879	39.42
667.067	39.67
667.254	39.68
667.441	39.29
667.629	39.45
667.816	39.44
668.003	39.78
668.19	39.92
668.378	40.15
668.565	40.45
668.752	39.85
668.939	40.22
669.127	40.16
669.314	39.48
669.501	39.74
669.688	39.64
669.875	39.72
670.062	39.38
670.249	38.93
670.436	38.75
670.623	38.35
670.81	38.63
670.997	37.99
671.184	37.84
671.371	38.4
671.558	38.11
671.745	38.07
671.932	37.64
672.119	37.18
672.306	37.39
672.493	37.13
672.68	37.36
672.867	37.71
673.054	38.12
673.24	38.55
673.427	38.1
673.614	38.44
673.801	39.12
673.988	38.97
674.174	39.8
674.361	39.89
674.548	39.95
674.734	39.64
674.921	39.21
675.108	39.18
675.294	38.78
675.481	38.35
675.668	38.14
675.854	37.99
676.041	38.21
676.227	38.22
676.414	38.38
676.601	38.46
676.787	38.74
676.974	38.69
677.16	38.63
677.347	39.01
677.533	39.54
677.719	40.19
677.906	39.87
678.092	40.38
678.279	40.19
678.465	39.94
678.651	40.04
678.838	39.73
679.024	39.56
679.21	39.42
679.397	39.15
679.583	39.34
679.769	38.59
679.955	38.56
680.142	38.64
680.328	38.8
680.514	38.84
680.7	38.45
680.886	39.07
681.073	39.21
681.259	39.37
681.445	39.62
681.631	39.51
681.817	39.72
682.003	39.46
682.189	39.31
682.375	39.13
682.561	39.04
682.747	38.93
682.933	38.69
683.119	38.63
683.305	38.97
683.491	38.67
683.677	38.7
683.863	38.53
684.049	38.43
684.235	38.51
684.42	38.57
684.606	38.19
684.792	39.08
684.978	38.68
685.164	38.95
685.349	39.25
685.535	39.51
685.721	39.78
685.907	40.26
686.092	40.35
686.278	40.34
686.464	40.43
686.649	40.97
686.835	40.98
687.021	41.71
687.206	41.59
687.392	40.85
687.577	41.07
687.763	40.72
687.948	40.46
688.134	40.32
688.319	40.59
688.505	40.65
688.69	40.46
688.876	40.3
689.061	39.5
689.247	39.5
689.432	39.88
689.618	39.43
689.803	39.55
689.988	39.59
690.174	40
690.359	39.32
690.544	38.99
690.73	38.92
690.915	38.89
691.1	38.96
691.285	39.42
691.471	39.14
691.656	39.29
691.841	39.35
692.026	39.37
692.211	39.6
692.396	39.74
692.582	40.18
692.767	40.11
692.952	40.15
693.137	40.56
693.322	40.09
693.507	40.59
693.692	40.19
693.877	39.91
694.062	39.8
694.247	40.09
694.432	39.73
694.617	39.9
694.802	40.55
694.987	40.1
695.172	39.92
695.357	40.21
695.541	39.25
695.726	40.01
695.911	40.5
696.096	40.95
696.281	40.68
696.466	41.41
696.65	41.16
696.835	40.62
697.02	40.41
697.204	40.81
697.389	40.17
697.574	40.98
697.759	41.09
697.943	40.93
698.128	40.74
698.312	40.72
698.497	40.39
698.682	40.23
698.866	40.38
699.051	40.47
699.235	40.32
699.42	40.63
699.604	40.16
699.789	40.13
699.973	39.91
700.158	40.03
700.342	39.72
700.527	39.95
700.711	40.57
700.895	40.57
701.08	40.61
701.264	40.44
701.448	40.24
701.633	40.46
701.817	40.4
702.001	40.84
702.186	40.55
702.37	40.69
702.554	40.58
702.738	39.68
702.923	39.52
703.107	39.87
703.291	39.77
703.475	40.55
703.659	40.49
703.843	39.77
704.027	39.71
704.212	39.83
704.396	40.93
704.58	40.55
704.764	40.02
704.948	40.05
705.132	39.8
705.316	40.13
705.5	40.5
705.684	40.5
705.868	41.42
706.052	41.35
706.235	42.14
706.419	41.39
706.603	41.89
706.787	42.61
706.971	42.55
707.155	42.95
707.339	42.97
707.522	42
707.706	42.19
707.89	41.74
708.074	41.92
708.257	40.93
708.441	41.08
708.625	41.16
708.808	41.34
708.992	42.1
709.176	42.32
709.359	42.05
709.543	41.66
709.727	41.65
709.91	41.4
710.094	41.34
710.277	41.88
710.461	41.84
710.644	42.01
710.828	42.07
711.011	41.16
711.195	41
711.378	40.84
711.562	41.46
711.745	40.97
711.928	41.02
712.112	40.84
712.295	40.5
712.478	40.75
712.662	40.43
712.845	39.78
713.028	39.88
713.212	39.65
713.395	40.16
713.578	40.22
713.761	41.12
713.945	41.62
714.128	41.9
714.311	41.65
714.494	41.09
714.677	40.83
714.86	41.51
715.043	41.03
715.227	41.15
715.41	41.07
715.593	41.24
715.776	40.57
715.959	40.42
716.142	40.01
716.325	40.11
716.508	40.04
716.691	40.4
716.874	39.72
717.057	40.58
717.239	40.86
717.422	41.19
717.605	40.31
717.788	40.38
717.971	40.75
718.154	41.24
718.337	41.49
718.519	41.52
718.702	41.4
718.885	41.84
719.068	41.36
719.25	41.57
719.433	41.38
719.616	42.06
719.798	42.34
719.981	41.4
720.164	40.83
720.346	41.57
720.529	41.51
720.712	41.31
720.894	41.31
721.077	41.62
721.259	41.09
721.442	40.91
721.624	41.38
721.807	41.22
721.989	40.94
722.172	41.35
722.354	40.55
722.537	40.84
722.719	41.45
722.901	41.8
723.084	41.82
723.266	41.5
723.448	42.18
723.631	41.21
723.813	41.15
723.995	41.73
724.178	41.63
724.36	41.66
724.542	41.01
724.724	40.74
724.907	40.83
725.089	41.44
725.271	42.18
725.453	41.19
725.635	41.85
725.817	41.8
725.999	42.95
726.181	43.33
726.364	43.3
726.546	43.75
726.728	43.5
726.91	43.16
727.092	42.57
727.274	42.04
727.456	41.96
727.638	41.32
727.819	41.27
728.001	40.38
728.183	40.33
728.365	40.69
728.547	41.34
728.729	41.82
728.911	42.56
729.093	42.75
729.274	42.23
729.456	42.41
729.638	43.46
729.82	43.45
730.001	43.11
730.183	43
730.365	42.69
730.546	41.33
730.728	41.69
730.91	40.51
731.091	40.35
731.273	41.32
731.455	41.59
731.636	41.68
731.818	41.73
731.999	41.58
732.181	41.7
732.362	41.42
732.544	42.12
732.725	40.88
732.907	41.05
733.088	41.2
733.27	41.29
733.451	41.23
733.633	40.61
733.814	40.97
733.995	41.42
734.177	41.82
734.358	42.37
734.539	42.8
734.721	43.08
734.902	43.63
735.083	43.99
735.264	42.79
735.446	42.65
735.627	41.85
735.808	41.35
735.989	41.3
736.17	40.66
736.351	41
736.533	40.37
736.714	40.45
736.895	40.03
737.076	39
737.257	39.75
737.438	39.66
737.619	40.75
737.8	40.93
737.981	41.71
738.162	41.97
738.343	41.49
738.524	41.12
738.705	41.19
738.886	40.85
739.067	41.49
739.247	41.79
739.428	41.32
739.609	40.72
739.79	41.06
739.971	40.28
740.151	39.21
740.332	39.22
740.513	40
740.694	39.84
740.874	39.94
741.055	39.62
741.236	39.39
741.417	39.63
741.597	39.74
741.778	38.98
741.958	38.9
742.139	38.62
742.32	38.04
742.5	37.99
742.681	39.79
742.861	40.99
743.042	41.38
743.222	41
743.403	41.48
743.583	41.52
743.764	42
743.944	41.16
744.124	42.25
744.305	42.49
744.485	41.43
744.666	40.42
744.846	39.72
745.026	39.8
745.207	41.57
745.387	41.49
745.567	41.93
745.747	41.97
745.928	40.99
746.108	41.35
746.288	41.85
746.468	42.91
746.648	42.72
746.829	43.03
747.009	42.96
747.189	41.82
747.369	41.16
747.549	41.05
747.729	41.69
747.909	43.4
748.089	43.16
748.269	43.55
748.449	43.76
748.629	43.36
748.809	41.69
748.989	40.86
749.169	40.58
749.349	41.93
749.529	41.24
749.709	41.08
749.889	41.2
750.068	40.12
750.248	39.93
750.428	39.19
750.608	38.73
750.788	40.29
750.967	40.57
751.147	40.5
751.327	39.72
751.507	41.08
751.686	40.25
751.866	40.37
752.046	41.09
752.225	40.01
752.405	39.64
752.585	40.63
752.764	40.33
752.944	39.94
753.123	39.93
753.303	39.6
753.482	38.74
753.662	39.34
753.841	39.34
754.021	39.26
754.2	40.38
754.38	41.36
754.559	41.35
754.739	42.5
754.918	43.02
755.097	42.74
755.277	43.58
755.456	44.38
755.635	45.11
755.815	45.16
755.994	46.65
756.173	45.51
756.352	45.49
756.532	45.14
756.711	43.6
756.89	43.97
757.069	43.58
757.248	42.02
757.427	40.9
757.607	39.8
757.786	39.67
757.965	38.13
758.144	38.8
758.323	38.88
758.502	39
758.681	38.54
758.86	38.32
759.039	39.33
759.218	40.3
759.397	40.74
759.576	40.68
759.755	40.51
759.934	39.97
760.113	39.45
760.291	38.84
760.47	39.44
760.649	39.99
760.828	40.39
761.007	39.07
761.186	39.67
761.364	39.13
761.543	39.78
761.722	40.67
761.901	41.08
762.079	42.98
762.258	43.12
762.437	42.31
762.615	41.72
762.794	41.23
762.972	42.46
763.151	41.89
763.33	42.08
763.508	42.69
763.687	43.11
763.865	44.28
764.044	42.92
764.222	43.01
764.401	42.8
764.579	43.37
764.758	43.68
764.936	43.49
765.114	43.85
765.293	44.19
765.471	44.15
765.65	42.49
765.828	41.76
766.006	42.75
766.184	42.35
766.363	42.1
766.541	41.68
766.719	40.38
766.898	41.28
767.076	41.68
767.254	41.59
767.432	41.41
767.61	42.29
767.788	41.15
767.967	39.79
768.145	40.63
768.323	41.59
768.501	42.15
768.679	43.44
768.857	42.43
769.035	41.83
769.213	41.5
769.391	40.61
769.569	40.73
769.747	41.36
769.925	41.66
770.103	40.98
770.281	39.98
770.459	38.8
770.636	38.14
770.814	38.14
770.992	38.7
771.17	39.28
771.348	40.35
771.525	40.26
771.703	40.73
771.881	41.24
772.059	42.22
772.236	41.16
772.414	41.96
772.592	42.04
772.769	42.05
772.947	41.99
773.125	39.16
773.302	38.38
773.48	38.32
773.657	40.16
773.835	39.71
774.013	39.7
774.19	42.07
774.368	41.3
774.545	43.36
774.723	44.24
774.9	44.77
775.077	45.43
775.255	44.75
775.432	44.48
775.61	42.61
775.787	42.92
775.964	41.78
776.142	40.62
776.319	42.7
776.496	41.64
776.674	41.55
776.851	41.55
777.028	42.19
777.205	40.82
777.382	41.44
777.56	40.68
777.737	40.75
777.914	41.38
778.091	42.05
778.268	41.19
778.445	41.12
778.622	40.99
778.8	40.29
778.977	42.78
779.154	45.13
779.331	44.67
779.508	44.59
779.685	44.47
779.862	44.25
780.038	44.28
780.215	46.11
780.392	47.38
780.569	47.12
780.746	45.21
780.923	43.27
781.1	42.75
781.277	41.78
781.453	42.74
781.63	42.01
781.807	42.64
781.984	42.24
782.16	41.2
782.337	40.04
782.514	40.01
782.691	40.14
782.867	41.75
783.044	41.51
783.221	43.72
783.397	42.32
783.574	43.26
783.75	42.99
783.927	44.98
784.103	42.55
784.28	42
784.456	41.93
784.633	43.79
784.809	42.93
784.986	41.43
785.162	40.89
785.339	42.82
785.515	40.94
785.692	41.59
785.868	39.33
786.044	41.12
786.221	42.74
786.397	41.7
786.573	40.93
786.749	40.44
786.926	43.48
787.102	43.83
787.278	42.82
787.454	43.82
787.631	41.77
787.807	42.38
787.983	43.46
788.159	41.16
788.335	42.13
788.511	42.18
788.687	42.61
788.863	42.87
789.039	42.45
789.216	43.4
789.392	45.21
789.568	46.18
789.744	46.84
789.919	46.71
790.095	46.93
790.271	46.68
790.447	46.32
790.623	45.69
790.799	45.43
790.975	43.64
791.151	44.48
791.327	42.47
791.502	41.41
791.678	41.51
791.854	41.44
792.03	41.57
792.205	41.13
792.381	41.48
792.557	40.46
792.733	39.4
792.908	40.82
793.084	40.63
793.259	40.77
793.435	41.51
793.611	42.14
793.786	40.74
793.962	41.95
794.137	42.55
794.313	42.11
794.488	41.4
794.664	40.6
794.839	41.23
795.015	40.15
795.19	38.75
795.366	38.75
795.541	37.46
795.716	37.75
795.892	36.75
796.067	35.49
796.242	38.61
796.418	40.33
796.593	39.81
796.768	38.22
796.944	38.35
797.119	39.56
797.294	41.57
797.469	41.64
797.644	41.9
797.82	42.91
797.995	43.78
798.17	40.92
798.345	38.11
798.52	39.31
798.695	41.28
798.87	38.97
799.045	38.68
799.22	35
799.395	34.28
799.57	31.97
799.745	32.08
799.92	34.15
800.095	33.79
800.27	37.28
800.445	36.94
800.62	35.69
800.795	36.98
800.97	36.97
801.145	39.78
801.319	40.83
801.494	44.35
801.669	44.3
801.844	41.9
802.018	42.79
802.193	41.55
802.368	40.09
802.543	40.8
802.717	41.95
802.892	43.72
803.067	44.91
803.241	43.37
803.416	41.17
803.59	42.95
803.765	42.95
803.94	43.85
804.114	44.06
804.289	47.39
804.463	44.72
804.638	44.49
804.812	46.23
804.986	44.11
805.161	45.53
805.335	47.39
805.51	44.39
805.684	42.22
805.858	41.21
806.033	43.54
806.207	38.96
806.381	40.66
806.556	41.65
806.73	37.89
806.904	38.14
807.078	39.54
807.253	38.52
807.427	38.7
807.601	39.37
807.775	40.29
807.949	39.55
808.123	40.48
808.298	40.36
808.472	39.03
808.646	40.61
808.82	40.37
808.994	36.56
809.168	36.45
809.342	39.6
809.516	43.1
809.69	41.83
809.864	41.43
810.038	42.31
810.212	43.89
810.385	42.6
810.559	44.18
810.733	43.06
810.907	46.34
811.081	48.09
811.255	45.64
811.428	41.13
811.602	39.07
811.776	39.91
811.95	42.47
812.123	42.92
812.297	44.4
812.471	42.43
812.644	45.01
812.818	43.11
812.992	46.27
813.165	46.75
813.339	48.77
813.512	50.9
813.686	47.94
813.86	45.71
814.033	44.04
814.207	40.82
814.38	41.35
814.554	41.46
814.727	42.4
814.9	38.89
815.074	35.78
815.247	33.23
815.421	34.85
815.594	37.17
815.767	35.46
815.941	32.4
816.114	37.29
816.287	36.62
816.46	37.3
816.634	36.88
816.807	37.96
816.98	40.99
817.153	44.03
817.327	46.04
817.5	45.74
817.673	49.67
817.846	54.48
818.019	53.69
818.192	54.83
818.365	58.11
818.538	59.73
818.711	56.77
818.884	53.69
819.057	54.12
819.23	51.11
819.403	51.93
819.576	49.83
819.749	50.14
819.922	48.12
820.095	50.02
820.268	46.97
820.441	45.82
820.614	48.04
820.786	47.44
820.959	48.49
821.132	48.73
821.305	45.64
821.477	45.17
821.65	43.69
821.823	44.64
821.996	43.71
822.168	44.07
822.341	44.05
822.514	44.17
822.686	44.13
822.859	43.79
823.031	43.29
823.204	43.79
823.376	44.13
823.549	44.84
823.722	44.43
823.894	44.14
824.067	44.09
824.239	44.3
824.411	43.81
824.584	44.84
824.756	44.6
824.929	44.3
825.101	44.31
825.273	43.98
825.446	44.28
825.618	44.26
825.79	44.49
825.963	43.66
826.135	43.25
826.307	44.78
826.479	43.33
826.652	43.45
826.824	44.51
826.996	44.23
827.168	44.06
827.34	43.18
827.512	43.67
827.684	44.29
827.856	44.7
828.029	43.91
828.201	41.21
828.373	42.24
828.545	41.96
828.717	42.07
828.889	42.68
829.061	44.06
829.232	45.07
829.404	45.39
829.576	44.49
829.748	44.36
829.92	45.94
830.092	47.84
830.264	47.14
830.436	47.14
830.607	47.02
830.779	46.9
830.951	43.27
831.123	43.17
831.294	42.35
831.466	40.63
831.638	41.03
831.809	40.45
831.981	38.43
832.153	37.19
832.324	36.83
832.496	35.22
832.667	38
832.839	44.33
833.011	41.3
833.182	42.41
833.354	42.64
833.525	43.04
833.697	41.87
833.868	44.76
834.039	47.14
834.211	47.12
834.382	47.07
834.554	44.37
834.725	42.42
834.896	41.47
835.068	41.26
835.239	43.22
835.41	44.4
835.581	44.02
835.753	43.73
835.924	43.91
836.095	43.54
836.266	44.42
836.438	44.15
836.609	44.5
836.78	45.37
836.951	45.25
837.122	44.66
837.293	43.05
837.464	44.1
837.635	43.63
837.806	40.17
837.977	40.69
838.148	42.55
838.319	43.57
838.49	42.86
838.661	40.93
838.832	42.91
839.003	40.24
839.174	39.08
839.345	39.56
839.516	40.66
839.687	42.92
839.857	37.68
840.028	36.61
840.199	39.39
840.37	40.29
840.54	46.17
840.711	44.2
840.882	44.59
841.053	47.31
841.223	48.97
841.394	51.1
841.564	55.58
841.735	59.13
841.906	57.32
842.076	53.26
842.247	53.66
842.417	48.44
842.588	49.79
842.758	54.02
842.929	54.47
843.099	53.74
843.27	48.29
843.44	42.98
843.611	44.54
843.781	44.77
843.951	50.11
844.122	46.53
844.292	47.88
844.462	45.72
844.633	46.06
844.803	43.41
844.973	41.82
845.144	42.64
845.314	42.42
845.484	42.3
845.654	40.63
845.824	43.71
845.995	42.55
846.165	42.77
846.335	44.19
846.505	39.46
846.675	35.88
846.845	31.9
847.015	36.55
847.185	41.17
847.355	35.09
847.525	37.24
847.695	36.23
847.865	35.14
848.035	35.32
848.205	31.22
848.375	43.72
848.545	48.07
848.715	42.56
848.884	30.19
849.054	27.99
849.224	32.19
849.394	34.31
849.564	28.7
849.733	35.95
849.903	40.42
850.073	38.35
850.243	35.92
850.412	38.55
850.582	51.1
850.752	59.06
850.921	57.61
851.091	69.38
851.26	72.86
851.43	73.72
851.599	76.47
851.769	67.66
851.939	75.74
852.108	64.03
852.278	59.13
852.447	50.28
852.616	55.46
852.786	54.36
852.955	51.84
853.125	45.37
853.294	41.85
853.463	34.71
853.633	37.59
853.802	34.47
853.971	42.04
854.141	40.61
854.31	47.41
854.479	23.13
854.648	34.23
854.818	31.97
854.987	29.26
855.156	19.18
855.325	11.42
855.494	13.37
855.663	4.1
855.832	4.92
856.001	2.33
856.171	-8.74
856.34	4.83
856.509	0.28
856.678	-4.44
856.847	-9.1
857.016	7.64
857.185	10.92
857.353	18.7
857.522	28.25
857.691	28.08
857.86	29.55
858.029	36.08
858.198	33.19
858.367	29.77
858.535	17.47
858.704	26.09
858.873	17.19
859.042	24.77
859.21	16.52
859.379	15.86
859.548	7.58
859.717	15.45
859.885	25.08
860.054	26.79
860.222	25.16
860.391	33.31
860.56	35.19
860.728	34.45
860.897	29.95
861.065	30.16
861.234	34.07
861.402	35.68
861.571	29.63
861.739	31.1
861.908	31.81
862.076	43.64
862.244	51.48
862.413	48.7
862.581	51.93
862.749	51.59
862.918	50.35
863.086	47.8
863.254	54.83
863.423	51.6
863.591	38.67
863.759	45.19
863.927	30.45
864.096	19.37
864.264	22.7
864.432	22.39
864.6	29.61
864.768	41.1
864.936	41.97
865.104	34.5
865.272	46.57
865.44	47.65
865.608	38.63
865.776	49.58
865.944	58.16
866.112	51
866.28	49.77
866.448	36.17
866.616	26.48
866.784	25.61
866.952	42.1
867.12	55.21
867.288	53.24
867.455	61.59
867.623	49.67
867.791	36.91
867.959	37.4
868.127	47.47
868.294	51.8
868.462	46.75
868.63	59.67
868.797	48.44
868.965	27.8
869.133	26.35
869.3	30.52
869.468	35.49
869.636	37.5
869.803	45.5
869.971	41.16
870.138	44.46
870.306	45.11
870.473	39.78
870.641	35.88
870.808	36.09
870.975	40.46
871.143	29.73
871.31	29.32
871.478	21.72
871.645	15.75
871.812	23.69
871.98	25.58
872.147	9.63
872.314	12.23
872.482	12.65
872.649	17.18
872.816	26.83
872.983	41.98
873.15	43.9
873.318	44.08
873.485	50.39
873.652	55.61
873.819	49.84
873.986	60.84
874.153	58.53
874.32	61.7
874.487	47.1
874.654	39.81
874.821	15.75
874.988	11.07
875.155	11.22
875.322	11.52
875.489	-18.07
875.656	-19.12
875.823	-12.16
875.99	-10.1
876.157	2.3
876.324	6.69
876.49	11.78
876.657	15.73
876.824	18.02
876.991	21.73
877.157	20.72
877.324	25.73
877.491	25.83
877.658	26.02
877.824	32.67
877.991	31.51
878.157	35.96
878.324	32.31
878.491	32.06
878.657	34.87
878.824	35.95
878.99	42.52
879.157	47.35
879.323	48.24
879.49	50.44
879.656	49.36
879.823	55.45
879.989	51.2
880.156	47.36
880.322	46.32
880.488	43.71
880.655	38.45
880.821	39.32
880.987	33.34
881.154	35.79
881.32	47.46
881.486	54.4
881.652	51.11
881.819	50.1
881.985	53.13
882.151	53.56
882.317	52.9
882.483	54.42
882.649	52.67
882.816	48.94
882.982	48.66
883.148	44.69
883.314	42.81
883.48	42.27
883.646	42.93
883.812	43.61
883.978	43.77
884.144	44.27
884.31	45.44
884.476	45.91
884.642	48.83
884.807	47.17
884.973	44.4
885.139	45.35
885.305	46.75
885.471	46.49
885.637	46.4
885.802	43.89
885.968	42.36
886.134	39.78
886.3	38.94
886.465	36.87
886.631	37.62
886.797	40.42
886.962	36.85
887.128	37.92
887.293	39.27
887.459	32.77
887.625	36.63
887.79	39.98
887.956	38.7
888.121	37.5
888.287	38.36
888.452	38.83
888.618	38.38
888.783	41.32
