Data from CB_010_Reflection_1.txt Node
Date: Wed Nov 11 18:43:42 EST 2015
User: robert
Spectrometer: USB4E03001
Autoset integration time: false
Trigger mode: 4
Integration Time (sec): 1.000000E-1
Scans to average: 15
Electric dark correction enabled: true
Nonlinearity correction enabled: false
Boxcar width: 5
Stray light correction enabled: false
XAxis mode: Wavelengths
Stop averaging: false
Number of Pixels in Spectrum: 3648
>>>>>Begin Spectral Data<<<<<
177.566	-152.25
177.785	-412.1
178.005	-117.16
178.225	-1974.17
178.445	333.99
178.665	329.57
178.885	58.65
179.105	321.43
179.324	124.13
179.544	31.55
179.764	99.34
179.984	67.01
180.204	-59.83
180.423	248.68
180.643	491.16
180.863	-799.05
181.083	-2257.85
181.302	-250.55
181.522	973.65
181.742	63.53
181.961	149.37
182.181	121.42
182.401	158.44
182.621	638.39
182.84	142.06
183.06	179.47
183.279	180.29
183.499	223.01
183.719	136.63
183.938	103.88
184.158	141.42
184.377	-32.49
184.597	35.09
184.816	64.28
185.036	10.5
185.256	-13.31
185.475	55.79
185.695	-580.46
185.914	77.54
186.134	75.42
186.353	74.13
186.572	80.29
186.792	55.69
187.011	-6.78
187.231	21.97
187.45	44.33
187.67	20.69
187.889	748.1
188.108	337.43
188.328	553.35
188.547	-335.37
188.766	-614.65
188.986	220.53
189.205	-15827.27
189.424	379.54
189.644	2039.67
189.863	135.66
190.082	135.97
190.302	60.02
190.521	-28.01
190.74	-12.27
190.959	0.24
191.178	-27.67
191.398	-13.72
191.617	-18.3
191.836	-5.52
192.055	-8.32
192.274	-45.72
192.494	-40.33
192.713	-9.04
192.932	5.45
193.151	5.33
193.37	18.46
193.589	34.75
193.808	55.72
194.027	63.7
194.246	55.74
194.465	45.12
194.685	19.62
194.904	13.71
195.123	-90.73
195.342	-455.16
195.561	-1.06
195.78	37.16
195.999	11.78
196.218	-690.97
196.436	310.68
196.655	1131.99
196.874	-150.93
197.093	47.83
197.312	71.29
197.531	-59.41
197.75	-79.78
197.969	6.41
198.188	17.85
198.407	42.25
198.625	-37.39
198.844	-111.86
199.063	-129.92
199.282	-121.99
199.501	-41.66
199.719	-72.47
199.938	-1766.41
200.157	161.98
200.376	184.05
200.594	301.03
200.813	-20794.29
201.032	1278.36
201.251	264.14
201.469	293.93
201.688	310.55
201.907	330.29
202.125	247.8
202.344	156.82
202.563	195.6
202.781	196.11
203	120.69
203.218	93.16
203.437	94.67
203.656	83.72
203.874	71.76
204.093	42.05
204.311	26.36
204.53	12.06
204.748	-39.42
204.967	-48.6
205.185	-8.88
205.404	25.04
205.622	16.14
205.841	16.15
206.059	47.62
206.278	60.96
206.496	43.26
206.715	117.56
206.933	193.72
207.151	189.57
207.37	175.88
207.588	190.11
207.806	228.5
208.025	132.2
208.243	120.57
208.461	5.2
208.68	19.64
208.898	76.9
209.116	15.64
209.335	27.84
209.553	207.33
209.771	43.41
209.989	-134.78
210.208	118.39
210.426	-153.77
210.644	-59.04
210.862	-81.09
211.081	-103.41
211.299	-100.06
211.517	-287.2
211.735	-311.07
211.953	-666.25
212.171	-172.17
212.39	-982.7
212.608	-3863.67
212.826	624.49
213.044	407.07
213.262	343.61
213.48	229.34
213.698	425.55
213.916	-1815.98
214.134	-490.35
214.352	-834.19
214.57	617.26
214.788	200.8
215.006	178.24
215.224	64.54
215.442	40.53
215.66	43.29
215.878	93.71
216.096	77.07
216.314	62.28
216.532	62.5
216.75	68.37
216.968	78.64
217.185	71.79
217.403	89.78
217.621	84.91
217.839	84.41
218.057	462.81
218.275	204.96
218.492	61.35
218.71	69.7
218.928	141.81
219.146	91.65
219.363	95.7
219.581	81.55
219.799	115.29
220.017	45.61
220.234	22.11
220.452	-2.17
220.67	-7.12
220.887	-36.13
221.105	-5.32
221.323	-41.54
221.54	12.53
221.758	-11.19
221.976	-24.9
222.193	-28.15
222.411	-82.92
222.629	-103.46
222.846	-64.68
223.064	-13.96
223.281	-17.93
223.499	-46.46
223.716	-51.42
223.934	-374.01
224.151	-774.39
224.369	-290.92
224.586	109475
224.804	82.35
225.021	-13.4
225.239	-19.6
225.456	-146.54
225.674	-143.8
225.891	-64.63
226.108	-92.53
226.326	-42.28
226.543	-18.13
226.76	-23.06
226.978	-10.89
227.195	-7.09
227.413	1.09
227.63	-1.92
227.847	-0.82
228.064	3.41
228.282	4.52
228.499	12.6
228.716	10.15
228.934	12.24
229.151	12.94
229.368	12.45
229.585	9.84
229.802	12.01
230.02	11.75
230.237	12.42
230.454	14.48
230.671	19.72
230.888	14.15
231.105	14.75
231.323	13.84
231.54	17.17
231.757	15.02
231.974	14.48
232.191	12.85
232.408	11.34
232.625	13.25
232.842	15.55
233.059	11.42
233.276	18.21
233.493	19.34
233.71	17.01
233.927	14.01
234.144	15.7
234.361	16.76
234.578	16.07
234.795	20.39
235.012	15.19
235.229	8.02
235.446	1.51
235.663	-2.92
235.879	-0.74
236.096	1.46
236.313	-10.78
236.53	-6.82
236.747	1.09
236.964	2.82
237.181	-8.78
237.397	1.1
237.614	5.9
237.831	2.79
238.048	0.85
238.264	-2.76
238.481	-4.93
238.698	-1.94
238.915	-13.17
239.131	-25.03
239.348	-33.01
239.565	-22.7
239.781	-20.04
239.998	-15.69
240.215	-9.44
240.431	-5.25
240.648	-1.67
240.865	1
241.081	2.14
241.298	6.56
241.514	9.83
241.731	12.46
241.947	9.75
242.164	8.67
242.38	7.58
242.597	6.92
242.814	7.89
243.03	6.54
243.246	6.67
243.463	8.8
243.679	8.6
243.896	8.46
244.112	9.12
244.329	11.62
244.545	10.05
244.762	11.24
244.978	14.36
245.194	11.97
245.411	13.12
245.627	8.88
245.843	7.95
246.06	9.32
246.276	9.27
246.492	8.32
246.709	7.83
246.925	7.11
247.141	7.1
247.357	6.59
247.574	7.4
247.79	8.31
248.006	8.88
248.222	9.13
248.439	8.9
248.655	9.07
248.871	7.91
249.087	9.47
249.303	10.74
249.519	9.88
249.736	7.65
249.952	5.92
250.168	1.55
250.384	2.22
250.6	1.19
250.816	0.61
251.032	0.55
251.248	2.56
251.464	1.22
251.68	0.97
251.896	4.77
252.112	7.08
252.328	8.56
252.544	10.01
252.76	10.72
252.976	11.41
253.192	11.67
253.408	9.84
253.624	10.25
253.84	8.35
254.056	8.83
254.272	6.81
254.487	5.83
254.703	5.07
254.919	6.15
255.135	3.55
255.351	2.03
255.567	1.55
255.782	4.41
255.998	7.8
256.214	10.43
256.43	11.51
256.646	11.76
256.861	12.24
257.077	10.45
257.293	7.85
257.508	9.43
257.724	7.85
257.94	7.36
258.155	5.56
258.371	4.55
258.587	4.43
258.802	2.89
259.018	2.37
259.234	3.82
259.449	5.05
259.665	5.52
259.88	5.5
260.096	5.5
260.312	5.55
260.527	5.81
260.743	5.15
260.958	4.7
261.174	4.68
261.389	4.81
261.605	3.76
261.82	4.21
262.036	3.8
262.251	3.57
262.466	5
262.682	3.69
262.897	4.75
263.113	4.78
263.328	5.73
263.543	7.02
263.759	6.43
263.974	6.19
264.189	4.01
264.405	4.91
264.62	4.31
264.835	4.05
265.051	6.2
265.266	3.74
265.481	5.7
265.696	3.7
265.912	4.75
266.127	6.28
266.342	7.88
266.557	6.75
266.773	7.35
266.988	6.14
267.203	4.92
267.418	5.09
267.633	4.88
267.848	2.88
268.064	3.87
268.279	2.39
268.494	0.65
268.709	0.84
268.924	1.69
269.139	1.46
269.354	2.95
269.569	4.83
269.784	4.36
269.999	3.4
270.214	3.97
270.429	3.61
270.644	4.76
270.859	6.08
271.074	5.5
271.289	5.16
271.504	5.4
271.719	4.59
271.934	3.45
272.149	3.37
272.363	4.28
272.578	4.84
272.793	6.92
273.008	5.94
273.223	6.07
273.438	6.16
273.653	7.24
273.867	6.9
274.082	6.74
274.297	7.25
274.512	5.91
274.726	6.66
274.941	6.32
275.156	3.73
275.371	3.43
275.585	2.69
275.8	2.05
276.015	0.67
276.229	-1.86
276.444	-0.36
276.659	-1.78
276.873	-1.38
277.088	-2.08
277.302	-2.33
277.517	-3.26
277.732	-3.3
277.946	-3.58
278.161	-4.95
278.375	-4.11
278.59	-2
278.804	-3.09
279.019	-0.52
279.233	1.3
279.448	1.99
279.662	1.92
279.877	2.44
280.091	4.82
280.306	5.72
280.52	6.99
280.735	6.79
280.949	7.97
281.163	9.11
281.378	7.72
281.592	8.4
281.806	8.38
282.021	8.47
282.235	9.42
282.449	8.54
282.664	7.85
282.878	8.11
283.092	8.15
283.307	7.99
283.521	7.83
283.735	9.7
283.949	9.09
284.164	8.08
284.378	8.94
284.592	8.86
284.806	8.11
285.02	8.09
285.234	8.59
285.449	8.72
285.663	7.51
285.877	6.81
286.091	5.21
286.305	4.98
286.519	5.46
286.733	5.46
286.947	5.29
287.161	6.08
287.375	6.23
287.589	4.66
287.803	4.93
288.017	5.44
288.231	5.3
288.445	6.85
288.659	5.95
288.873	6.2
289.087	5.21
289.301	6.02
289.515	6.19
289.729	4.83
289.943	5.85
290.157	5.22
290.371	5.39
290.584	6.6
290.798	5.68
291.012	7.03
291.226	6.92
291.44	7.68
291.654	7.01
291.867	7.5
292.081	8.86
292.295	8.02
292.509	7.22
292.722	6.5
292.936	5.35
293.15	6.25
293.364	5.49
293.577	6.36
293.791	6.6
294.005	6.2
294.218	6.72
294.432	6.8
294.645	8.55
294.859	8.88
295.073	8.54
295.286	8.94
295.5	8.65
295.713	9.59
295.927	9.25
296.14	8.99
296.354	9.84
296.568	8.25
296.781	7.5
296.994	6.22
297.208	6.02
297.421	7.26
297.635	7.35
297.848	7.7
298.062	7.05
298.275	6.29
298.489	5.86
298.702	6.18
298.915	7.56
299.129	8.09
299.342	8.52
299.555	9.26
299.769	9.08
299.982	8.41
300.195	8.25
300.409	7.91
300.622	10.48
300.835	10.93
301.048	10.8
301.262	10.32
301.475	10.41
301.688	11.44
301.901	12.01
302.115	12.46
302.328	12.89
302.541	11.31
302.754	12.14
302.967	10.47
303.18	10.05
303.393	9.32
303.607	9.44
303.82	7.85
304.033	7.04
304.246	6.81
304.459	5.23
304.672	5.54
304.885	5.71
305.098	5.32
305.311	5.75
305.524	4.77
305.737	4.74
305.95	4.52
306.163	6.47
306.376	6.32
306.589	6.36
306.802	7.33
307.015	6.65
307.228	7.59
307.44	7.92
307.653	8.71
307.866	9.95
308.079	10
308.292	9.67
308.505	10.28
308.718	10.74
308.93	10.6
309.143	10.85
309.356	11.11
309.569	10.86
309.781	10.96
309.994	8.79
310.207	9.54
310.42	9.68
310.632	9.5
310.845	9.53
311.058	9.82
311.27	9.92
311.483	9.58
311.696	10.19
311.908	10.63
312.121	10.89
312.333	11.76
312.546	11.35
312.759	11.27
312.971	11.19
313.184	9.8
313.396	9.91
313.609	10.19
313.821	10.81
314.034	11.14
314.246	11.45
314.459	9.76
314.671	10.04
314.884	10.63
315.096	10.89
315.309	11.37
315.521	12.09
315.733	11.31
315.946	10.8
316.158	10.47
316.371	8.98
316.583	8.18
316.795	9.59
317.008	9.8
317.22	9.82
317.432	9.05
317.644	7.52
317.857	7.82
318.069	8.21
318.281	8.72
318.494	8.21
318.706	7.62
318.918	8.01
319.13	6.97
319.342	7.28
319.555	5.6
319.767	4.92
319.979	6.93
320.191	6.88
320.403	7.19
320.615	7.35
320.827	8.36
321.039	11.52
321.252	11.12
321.464	12.56
321.676	11.27
321.888	10.97
322.1	11.38
322.312	11.63
322.524	12.74
322.736	12.15
322.948	11.17
323.16	11.44
323.372	9.89
323.584	9.95
323.796	7.91
324.007	8.02
324.219	8.45
324.431	9.15
324.643	8.37
324.855	7.66
325.067	8.5
325.279	9.37
325.491	8.88
325.702	9.58
325.914	9.44
326.126	10.7
326.338	11.13
326.55	13.55
326.761	14.12
326.973	15.09
327.185	14.75
327.396	13.53
327.608	12.66
327.82	14.18
328.032	13.98
328.243	15.16
328.455	15.32
328.666	16.61
328.878	14.81
329.09	13.73
329.301	13.09
329.513	14.78
329.725	16.67
329.936	16.9
330.148	15.56
330.359	15.11
330.571	14.81
330.782	15.67
330.994	15.1
331.205	15.29
331.417	15.11
331.628	15.14
331.84	15.54
332.051	15.1
332.262	15.25
332.474	15.32
332.685	16.56
332.897	16.33
333.108	16.42
333.319	16.42
333.531	15.6
333.742	16.51
333.953	17.1
334.165	15.18
334.376	14.93
334.587	15.69
334.799	15.56
335.01	15.47
335.221	16.24
335.432	16.08
335.644	16.05
335.855	17.39
336.066	16.96
336.277	17.06
336.488	18.28
336.7	18.52
336.911	18.76
337.122	19.28
337.333	19.1
337.544	18.65
337.755	19.61
337.966	19.57
338.177	18.58
338.388	18.88
338.599	18.61
338.811	18.56
339.022	18.41
339.233	17.71
339.444	17.45
339.655	18.26
339.866	18.64
340.076	17.28
340.287	18.06
340.498	19.47
340.709	19.05
340.92	19.57
341.131	19.29
341.342	19.74
341.553	19.76
341.764	20.29
341.975	19.35
342.185	18.33
342.396	18.74
342.607	17.89
342.818	16.77
343.029	16.86
343.239	16.72
343.45	17
343.661	16.54
343.872	16.73
344.082	15.76
344.293	15.93
344.504	16.9
344.714	16.45
344.925	16.31
345.136	16.7
345.346	17.46
345.557	17.51
345.768	17.09
345.978	17.08
346.189	16.7
346.399	17.52
346.61	17.38
346.821	17.36
347.031	17.53
347.242	17.53
347.452	17.44
347.663	17.08
347.873	16.55
348.084	17.01
348.294	17.09
348.504	17.3
348.715	16.94
348.925	16.47
349.136	16.1
349.346	16.37
349.557	17.13
349.767	16.87
349.977	16.72
350.188	16.84
350.398	16.63
350.608	16.68
350.819	16.14
351.029	15.85
351.239	16.12
351.449	16.19
351.66	16.32
351.87	16.14
352.08	15.92
352.29	16.21
352.501	15.74
352.711	16.16
352.921	15.84
353.131	16.36
353.341	16.46
353.552	16.82
353.762	16.78
353.972	16.24
354.182	16.52
354.392	15.96
354.602	16.23
354.812	16.53
355.022	15.72
355.232	15.6
355.442	15.83
355.652	16.24
355.862	16.11
356.072	16.12
356.282	16.57
356.492	16.27
356.702	17.71
356.912	17.25
357.122	16.83
357.332	17.18
357.542	16.92
357.752	16.66
357.962	16.64
358.171	16.33
358.381	16.05
358.591	16.34
358.801	16.1
359.011	15.73
359.221	15.29
359.43	15.34
359.64	15.71
359.85	17.17
360.06	18.11
360.269	17.9
360.479	18.09
360.689	17.95
360.899	17.71
361.108	17.75
361.318	17.19
361.528	17.68
361.737	17.91
361.947	17.49
362.156	16.24
362.366	15.5
362.576	15.08
362.785	14.83
362.995	15.07
363.204	14.89
363.414	14.76
363.623	14.99
363.833	14.9
364.042	15.07
364.252	15.31
364.461	16.55
364.671	16.63
364.88	17.18
365.09	16.87
365.299	17.33
365.509	16.95
365.718	16.81
365.927	16.68
366.137	16.68
366.346	16.28
366.555	15.64
366.765	14.56
366.974	14.49
367.183	13.99
367.393	14.15
367.602	13.46
367.811	13.56
368.021	13.94
368.23	14.36
368.439	13.84
368.648	14.03
368.857	14.66
369.067	14.93
369.276	14.91
369.485	14.97
369.694	15.27
369.903	15.17
370.112	15.57
370.321	14.7
370.531	14.32
370.74	13.78
370.949	13.05
371.158	12.59
371.367	12.41
371.576	12.35
371.785	12.41
371.994	12.24
372.203	12.18
372.412	11.94
372.621	12.48
372.83	12.42
373.039	13.64
373.248	14.34
373.457	14.54
373.666	14.58
373.874	14.51
374.083	15.03
374.292	14.55
374.501	14.5
374.71	14.04
374.919	14.03
375.128	14.27
375.336	13.25
375.545	12.91
375.754	12.77
375.963	12.58
376.171	12.53
376.38	12.05
376.589	12.68
376.798	13.12
377.006	13.14
377.215	13.2
377.424	12.95
377.632	13.22
377.841	13.22
378.05	12.76
378.258	12.25
378.467	12.6
378.675	12.16
378.884	11.39
379.093	10.47
379.301	10.56
379.51	10.31
379.718	10.16
379.927	10.07
380.135	9.63
380.344	10.29
380.552	11.46
380.761	11.03
380.969	11.09
381.177	11.55
381.386	12.21
381.594	12.12
381.803	11.92
382.011	11.93
382.219	11.84
382.428	12.18
382.636	12.34
382.845	11.34
383.053	11.2
383.261	10.56
383.469	10.69
383.678	10.61
383.886	10.5
384.094	10.74
384.302	10.75
384.511	10.53
384.719	10.75
384.927	10.72
385.135	10.81
385.343	10.8
385.552	11.53
385.76	11.03
385.968	10.76
386.176	10.77
386.384	10.23
386.592	10.11
386.8	10
387.008	9.49
387.216	8.95
387.424	8.94
387.633	9.11
387.841	8.94
388.049	8.95
388.257	9.18
388.465	9.22
388.672	9.45
388.88	9.34
389.088	9.59
389.296	9.62
389.504	9.74
389.712	9.73
389.92	9.48
390.128	9.41
390.336	9.53
390.544	9.23
390.751	9.18
390.959	8.83
391.167	9.07
391.375	9.14
391.583	9.24
391.79	8.95
391.998	9.04
392.206	8.85
392.414	8.89
392.621	8.66
392.829	8.68
393.037	8.42
393.244	8.77
393.452	8.3
393.66	7.83
393.867	7.76
394.075	7.72
394.283	7.43
394.49	7.49
394.698	7.52
394.905	7.47
395.113	7.36
395.32	7.6
395.528	7.58
395.735	7.62
395.943	7.43
396.15	7.52
396.358	7.52
396.565	7.53
396.773	7.41
396.98	7.05
397.188	7.01
397.395	7.39
397.602	7.17
397.81	7.11
398.017	7.33
398.225	7.93
398.432	7.74
398.639	8.04
398.847	8.11
399.054	8.18
399.261	8.29
399.468	8.34
399.676	8.28
399.883	8.43
400.09	8.63
400.297	8.38
400.505	8.1
400.712	8.17
400.919	7.98
401.126	7.83
401.333	7.99
401.54	8.11
401.748	8.19
401.955	7.8
402.162	7.4
402.369	7.21
402.576	7.62
402.783	7.78
402.99	7.79
403.197	7.77
403.404	7.44
403.611	7.1
403.818	7.08
404.025	7.21
404.232	7.34
404.439	7.49
404.646	7.09
404.853	6.77
405.06	6.78
405.267	6.91
405.474	7
405.681	7.39
405.887	7.69
406.094	7.77
406.301	7.73
406.508	7.83
406.715	7.76
406.922	8.02
407.128	8.23
407.335	8.21
407.542	7.97
407.749	7.86
407.955	7.72
408.162	7.77
408.369	7.92
408.575	7.77
408.782	7.74
408.989	8
409.195	8.19
409.402	7.99
409.609	8
409.815	8
410.022	7.9
410.228	7.87
410.435	7.91
410.642	7.66
410.848	7.69
411.055	7.52
411.261	7.3
411.468	7.2
411.674	7.25
411.881	7.12
412.087	7.27
412.294	7.6
412.5	7.92
412.706	7.68
412.913	7.35
413.119	7.4
413.326	7.36
413.532	7.31
413.738	7.51
413.945	7.54
414.151	7.79
414.357	7.64
414.564	7.42
414.77	7.1
414.976	7.14
415.182	7.46
415.389	7.63
415.595	7.65
415.801	7.76
416.007	7.57
416.214	7.26
416.42	6.8
416.626	6.79
416.832	6.72
417.038	6.77
417.244	6.75
417.45	6.88
417.657	6.71
417.863	6.61
418.069	6.54
418.275	6.63
418.481	6.75
418.687	6.8
418.893	6.8
419.099	6.73
419.305	6.96
419.511	6.93
419.717	6.92
419.923	6.83
420.129	7.1
420.335	7.11
420.541	6.97
420.746	7.25
420.952	7.36
421.158	7.41
421.364	7.46
421.57	7.34
421.776	7.35
421.982	7.1
422.187	7.21
422.393	7.12
422.599	7.22
422.805	7.22
423.01	7.1
423.216	6.99
423.422	6.8
423.628	6.86
423.833	6.89
424.039	6.78
424.245	6.98
424.45	7.13
424.656	6.98
424.862	6.93
425.067	7.01
425.273	7.08
425.478	7.17
425.684	7.34
425.889	7.23
426.095	7.08
426.301	7.27
426.506	7.22
426.712	7.05
426.917	7.26
427.123	7.24
427.328	6.99
427.533	6.75
427.739	6.68
427.944	6.62
428.15	6.64
428.355	6.77
428.561	6.71
428.766	6.64
428.971	6.54
429.177	6.38
429.382	6.36
429.587	6.7
429.793	6.54
429.998	6.49
430.203	6.55
430.408	6.35
430.614	6.34
430.819	6.39
431.024	6.3
431.229	6.41
431.434	6.51
431.64	6.41
431.845	6.34
432.05	6.55
432.255	6.75
432.46	6.66
432.665	6.88
432.87	6.83
433.076	6.78
433.281	6.83
433.486	6.82
433.691	6.58
433.896	6.62
434.101	6.74
434.306	6.97
434.511	6.75
434.716	6.64
434.921	6.67
435.126	6.67
435.331	6.51
435.535	6.62
435.74	6.64
435.945	6.96
436.15	7.12
436.355	6.93
436.56	6.68
436.765	6.69
436.97	6.79
437.174	6.73
437.379	6.83
437.584	6.85
437.789	6.71
437.993	6.6
438.198	6.59
438.403	6.57
438.608	6.5
438.812	6.45
439.017	6.66
439.222	6.79
439.426	6.75
439.631	6.66
439.836	6.85
440.04	6.9
440.245	7
440.45	6.88
440.654	6.88
440.859	6.97
441.063	6.94
441.268	6.87
441.472	6.95
441.677	6.96
441.881	6.96
442.086	6.82
442.29	6.85
442.495	6.76
442.699	6.71
442.904	6.57
443.108	6.52
443.312	6.62
443.517	6.54
443.721	6.5
443.925	6.55
444.13	6.54
444.334	6.72
444.538	6.62
444.743	6.67
444.947	6.69
445.151	6.74
445.356	6.81
445.56	6.78
445.764	6.68
445.968	6.6
446.173	6.55
446.377	6.5
446.581	6.35
446.785	6.38
446.989	6.47
447.193	6.42
447.398	6.48
447.602	6.46
447.806	6.5
448.01	6.67
448.214	6.6
448.418	6.69
448.622	6.94
448.826	6.99
449.03	7.04
449.234	6.89
449.438	7.03
449.642	6.86
449.846	6.77
450.05	6.52
450.254	6.55
450.458	6.57
450.662	6.51
450.866	6.33
451.069	6.37
451.273	6.38
451.477	6.4
451.681	6.38
451.885	6.38
452.089	6.27
452.292	6.52
452.496	6.61
452.7	6.59
452.904	6.61
453.107	6.5
453.311	6.48
453.515	6.55
453.719	6.53
453.922	6.61
454.126	6.73
454.33	6.8
454.533	6.61
454.737	6.33
454.94	6.18
455.144	6.05
455.348	6.18
455.551	6.19
455.755	6.12
455.958	6.15
456.162	6.05
456.365	5.96
456.569	6.05
456.772	6.09
456.976	6.06
457.179	6.15
457.383	6.31
457.586	6.13
457.79	6.01
457.993	5.87
458.196	5.79
458.4	5.77
458.603	5.82
458.807	5.88
459.01	5.94
459.213	6.1
459.417	6.13
459.62	6.15
459.823	6.14
460.026	6.22
460.23	6.28
460.433	6.26
460.636	6.16
460.839	6.22
461.042	6.28
461.246	6.22
461.449	6.19
461.652	6.03
461.855	5.93
462.058	6.01
462.261	5.94
462.464	6.02
462.668	6.16
462.871	6.36
463.074	6.14
463.277	5.92
463.48	5.99
463.683	5.99
463.886	6.17
464.089	6.11
464.292	6.09
464.495	6.13
464.698	6.21
464.901	6.33
465.104	6.32
465.306	6.55
465.509	6.58
465.712	6.53
465.915	6.42
466.118	6.67
466.321	6.72
466.524	6.79
466.726	6.86
466.929	6.8
467.132	6.39
467.335	6.45
467.538	6.47
467.74	6.67
467.943	6.89
468.146	6.97
468.348	6.83
468.551	7.05
468.754	7.02
468.956	6.91
469.159	6.79
469.362	7.05
469.564	7.01
469.767	6.88
469.969	6.89
470.172	6.85
470.375	6.95
470.577	6.8
470.78	6.6
470.982	6.67
471.185	6.85
471.387	6.97
471.59	6.96
471.792	6.92
471.995	6.97
472.197	7.04
472.399	6.82
472.602	6.71
472.804	6.69
473.007	6.63
473.209	6.59
473.411	6.44
473.614	6.13
473.816	6.04
474.018	6.1
474.22	6.1
474.423	5.96
474.625	6.05
474.827	6.11
475.03	6.11
475.232	6.11
475.434	5.97
475.636	6.08
475.838	6.3
476.04	6.51
476.243	6.45
476.445	6.43
476.647	6.35
476.849	6.5
477.051	6.52
477.253	6.65
477.455	6.76
477.657	6.97
477.859	6.99
478.061	6.95
478.263	6.91
478.465	6.86
478.667	6.79
478.869	6.95
479.071	6.79
479.273	6.72
479.475	6.56
479.677	6.4
479.879	6.21
480.081	6.06
480.283	6
480.485	6.08
480.686	5.99
480.888	6.03
481.09	5.9
481.292	5.91
481.494	5.91
481.695	5.98
481.897	6.13
482.099	6.32
482.301	6.45
482.502	6.51
482.704	6.42
482.906	6.53
483.107	6.61
483.309	6.61
483.511	6.64
483.712	6.66
483.914	6.68
484.115	6.69
484.317	6.63
484.519	6.66
484.72	6.61
484.922	6.65
485.123	6.6
485.325	6.58
485.526	6.6
485.728	6.65
485.929	6.72
486.131	6.78
486.332	6.76
486.534	6.8
486.735	6.74
486.936	6.83
487.138	6.82
487.339	6.83
487.541	6.73
487.742	6.68
487.943	6.63
488.144	6.55
488.346	6.55
488.547	6.52
488.748	6.5
488.95	6.44
489.151	6.43
489.352	6.46
489.553	6.48
489.755	6.58
489.956	6.6
490.157	6.58
490.358	6.61
490.559	6.57
490.76	6.57
490.961	6.52
491.163	6.6
491.364	6.61
491.565	6.52
491.766	6.58
491.967	6.58
492.168	6.61
492.369	6.59
492.57	6.59
492.771	6.53
492.972	6.5
493.173	6.54
493.374	6.52
493.575	6.45
493.776	6.5
493.976	6.38
494.177	6.29
494.378	6.24
494.579	6.27
494.78	6.29
494.981	6.43
495.182	6.56
495.382	6.47
495.583	6.49
495.784	6.52
495.985	6.5
496.185	6.48
496.386	6.4
496.587	6.48
496.788	6.34
496.988	6.31
497.189	6.19
497.39	6.13
497.59	6.21
497.791	6.17
497.992	6.32
498.192	6.36
498.393	6.48
498.593	6.63
498.794	6.63
498.994	6.81
499.195	6.89
499.395	7.01
499.596	7
499.796	7
499.997	7
500.197	6.83
500.398	6.83
500.598	6.9
500.799	6.95
500.999	6.87
501.199	7.15
501.4	7.16
501.6	7.32
501.801	7.46
502.001	7.51
502.201	7.59
502.402	7.66
502.602	7.67
502.802	7.61
503.002	7.73
503.203	7.87
503.403	7.73
503.603	7.64
503.803	7.44
504.003	7.29
504.204	7.48
504.404	7.63
504.604	7.83
504.804	7.86
505.004	7.74
505.204	7.47
505.404	7.36
505.604	7.27
505.804	7.41
506.005	7.66
506.205	7.74
506.405	7.67
506.605	7.79
506.805	7.58
507.005	7.57
507.204	7.8
507.404	8.07
507.604	8.22
507.804	8.48
508.004	8.51
508.204	8.46
508.404	8.46
508.604	8.53
508.804	8.58
509.003	8.82
509.203	8.93
509.403	8.95
509.603	9.08
509.803	9.12
510.002	9.07
510.202	9.17
510.402	9.31
510.602	9.47
510.801	9.43
511.001	9.47
511.201	9.27
511.4	9.39
511.6	9.58
511.8	9.46
511.999	9.39
512.199	9.31
512.398	9.36
512.598	9.33
512.797	9.48
512.997	9.52
513.197	9.53
513.396	9.72
513.596	9.73
513.795	9.6
513.994	9.69
514.194	9.96
514.393	10.02
514.593	9.98
514.792	9.89
514.992	9.97
515.191	10.08
515.39	10.08
515.59	10.44
515.789	10.51
515.988	10.55
516.188	10.67
516.387	10.75
516.586	10.89
516.786	10.95
516.985	11.18
517.184	11.16
517.383	11.18
517.582	11.17
517.782	11.01
517.981	11.03
518.18	11.07
518.379	11.08
518.578	11.07
518.777	11.21
518.976	11.28
519.176	11.31
519.375	11.42
519.574	11.49
519.773	11.61
519.972	11.56
520.171	11.51
520.37	11.58
520.569	11.67
520.768	11.71
520.967	11.62
521.166	11.62
521.365	11.57
521.564	11.42
521.762	11.43
521.961	11.4
522.16	11.64
522.359	11.95
522.558	12.15
522.757	12.27
522.956	12.35
523.154	12.46
523.353	12.57
523.552	12.67
523.751	12.98
523.949	13.14
524.148	13.29
524.347	13.24
524.546	13.26
524.744	13.26
524.943	13.34
525.142	13.42
525.34	13.51
525.539	13.65
525.737	13.67
525.936	13.66
526.135	13.66
526.333	13.69
526.532	13.79
526.73	13.76
526.929	13.83
527.127	13.84
527.326	13.92
527.524	13.96
527.723	13.98
527.921	14.12
528.12	14.19
528.318	14.23
528.516	14.31
528.715	14.35
528.913	14.42
529.112	14.44
529.31	14.44
529.508	14.42
529.707	14.43
529.905	14.51
530.103	14.48
530.301	14.4
530.5	14.39
530.698	14.4
530.896	14.37
531.094	14.46
531.293	14.57
531.491	14.56
531.689	14.53
531.887	14.64
532.085	14.7
532.283	14.75
532.481	14.98
532.68	15.14
532.878	15.2
533.076	15.26
533.274	15.33
533.472	15.28
533.67	15.36
533.868	15.53
534.066	15.54
534.264	15.54
534.462	15.69
534.66	15.65
534.858	15.65
535.056	15.61
535.253	15.74
535.451	15.68
535.649	15.93
535.847	16.09
536.045	16.12
536.243	16.28
536.441	16.4
536.638	16.35
536.836	16.5
537.034	16.59
537.232	16.63
537.43	16.69
537.627	16.83
537.825	16.67
538.023	16.81
538.22	16.88
538.418	16.84
538.616	16.83
538.813	17.01
539.011	17.05
539.209	17.12
539.406	17.27
539.604	17.32
539.801	17.35
539.999	17.62
540.196	17.6
540.394	17.7
540.591	17.84
540.789	17.83
540.986	17.93
541.184	18.01
541.381	18.11
541.579	18.08
541.776	18.11
541.974	18.24
542.171	18.28
542.368	18.39
542.566	18.46
542.763	18.54
542.96	18.62
543.158	18.53
543.355	18.55
543.552	18.57
543.75	18.68
543.947	18.88
544.144	18.88
544.341	18.95
544.539	19.06
544.736	19.21
544.933	19.23
545.13	19.47
545.327	19.7
545.524	19.88
545.722	19.96
545.919	20.16
546.116	20.26
546.313	20.31
546.51	20.27
546.707	20.29
546.904	20.27
547.101	20.32
547.298	20.27
547.495	20.35
547.692	20.41
547.889	20.49
548.086	20.42
548.283	20.44
548.48	20.67
548.677	20.76
548.874	20.81
549.07	20.99
549.267	21.11
549.464	21.08
549.661	20.98
549.858	21.14
550.055	21.18
550.251	21.5
550.448	21.5
550.645	21.41
550.842	21.45
551.038	21.4
551.235	21.41
551.432	21.34
551.628	21.68
551.825	21.95
552.022	21.91
552.218	21.93
552.415	22.03
552.612	21.92
552.808	21.99
553.005	22.14
553.201	22.31
553.398	22.27
553.594	22.4
553.791	22.3
553.987	22.25
554.184	22.52
554.38	22.56
554.577	22.44
554.773	22.65
554.97	22.64
555.166	22.5
555.362	22.54
555.559	22.64
555.755	22.66
555.952	22.81
556.148	22.91
556.344	22.7
556.541	22.77
556.737	22.96
556.933	22.86
557.129	22.94
557.326	23.1
557.522	23.1
557.718	23.14
557.914	23.33
558.11	23.23
558.307	23.22
558.503	23.38
558.699	23.62
558.895	23.64
559.091	23.69
559.287	23.79
559.483	23.88
559.679	24.08
559.876	24.15
560.072	24.09
560.268	24.06
560.464	24.16
560.66	24.08
560.856	24.11
561.052	24.22
561.247	24.55
561.443	24.52
561.639	24.72
561.835	24.52
562.031	24.57
562.227	24.68
562.423	24.98
562.619	25.15
562.815	25.39
563.01	25.41
563.206	25.45
563.402	25.33
563.598	25.56
563.793	25.6
563.989	25.68
564.185	25.76
564.381	25.7
564.576	25.72
564.772	25.66
564.968	25.76
565.163	25.79
565.359	25.73
565.555	25.73
565.75	25.69
565.946	25.65
566.141	25.79
566.337	25.79
566.532	26.08
566.728	26.13
566.923	26.16
567.119	26.02
567.314	26.12
567.51	26.33
567.705	26.47
567.901	26.59
568.096	26.72
568.292	26.76
568.487	27.01
568.682	27.11
568.878	27.19
569.073	27.28
569.268	27.48
569.464	27.68
569.659	27.66
569.854	27.62
570.05	27.63
570.245	27.53
570.44	27.55
570.635	27.4
570.831	27.36
571.026	27.62
571.221	27.62
571.416	27.55
571.611	27.51
571.806	27.59
572.002	27.72
572.197	27.61
572.392	27.85
572.587	27.9
572.782	28.16
572.977	28.17
573.172	28.11
573.367	28.25
573.562	28.31
573.757	28.19
573.952	28.25
574.147	28.23
574.342	28.26
574.537	28.06
574.732	28.13
574.927	28.07
575.121	27.96
575.316	27.86
575.511	27.8
575.706	27.86
575.901	27.98
576.096	27.94
576.29	28.1
576.485	28.29
576.68	28.46
576.875	28.38
577.069	28.34
577.264	28.32
577.459	28.33
577.654	28.63
577.848	28.68
578.043	28.91
578.238	28.99
578.432	28.86
578.627	28.88
578.821	28.93
579.016	29.18
579.21	29.2
579.405	29.43
579.6	29.47
579.794	29.25
579.989	29.1
580.183	28.92
580.378	29.01
580.572	29.03
580.766	29.26
580.961	29.21
581.155	29.2
581.35	28.95
581.544	28.86
581.738	29.04
581.933	29.11
582.127	29.32
582.321	29.62
582.516	29.91
582.71	29.94
582.904	29.8
583.099	30.19
583.293	30.14
583.487	30.52
583.681	30.66
583.875	30.65
584.07	30.51
584.264	30.62
584.458	30.8
584.652	30.51
584.846	30.59
585.04	30.66
585.234	30.35
585.428	30.64
585.623	30.56
585.817	30.49
586.011	30.43
586.205	30.37
586.399	30.46
586.593	30.18
586.787	30.34
586.981	30.67
587.174	30.69
587.368	30.82
587.562	30.65
587.756	30.62
587.95	30.75
588.144	30.94
588.338	31.14
588.532	31.29
588.725	31.41
588.919	31.4
589.113	31.07
589.307	31.27
589.501	31.37
589.694	31.39
589.888	31.24
590.082	31.05
590.275	30.97
590.469	31.09
590.663	30.98
590.856	30.56
591.05	30.63
591.244	30.72
591.437	30.67
591.631	30.57
591.824	30.54
592.018	30.89
592.212	31.04
592.405	31.18
592.599	31.15
592.792	31.07
592.986	31.46
593.179	31.27
593.372	31.71
593.566	31.5
593.759	31.79
593.953	31.95
594.146	32.01
594.339	32.1
594.533	31.93
594.726	32.07
594.92	32.08
595.113	31.77
595.306	31.77
595.499	31.48
595.693	31.52
595.886	31.29
596.079	31.29
596.272	31.36
596.466	31.44
596.659	31.63
596.852	31.33
597.045	31.38
597.238	31.67
597.431	31.74
597.624	31.81
597.818	32
598.011	32.12
598.204	32.07
598.397	32.13
598.59	32.12
598.783	31.87
598.976	32.16
599.169	32.25
599.362	32.18
599.555	32.29
599.748	32.12
599.941	31.98
600.134	31.9
600.326	32.05
600.519	31.84
600.712	31.88
600.905	32.12
601.098	32.15
601.291	31.85
601.483	32.06
601.676	32.35
601.869	32.39
602.062	32.53
602.255	32.57
602.447	32.3
602.64	32.3
602.833	32.53
603.025	32.64
603.218	32.78
603.411	32.84
603.603	32.72
603.796	32.41
603.989	32.4
604.181	32.26
604.374	32.07
604.566	32.19
604.759	32.37
604.951	32.14
605.144	32.05
605.336	31.85
605.529	32
605.721	31.97
605.914	31.94
606.106	32.19
606.299	32.4
606.491	32.58
606.683	32.69
606.876	32.62
607.068	32.6
607.26	32.56
607.453	32.63
607.645	32.75
607.837	32.87
608.03	33.3
608.222	33.16
608.414	32.97
608.606	33.2
608.799	33.48
608.991	33.34
609.183	33.74
609.375	34.09
609.567	34.4
609.759	34.42
609.952	34.73
610.144	34.9
610.336	35.14
610.528	35.76
610.72	36.04
610.912	36.17
611.104	36.78
611.296	36.88
611.488	37.02
611.68	37.19
611.872	37.6
612.064	37.3
612.256	37.15
612.448	37.28
612.64	37.27
612.832	37.09
613.023	37.07
613.215	36.43
613.407	36.04
613.599	35.69
613.791	35.41
613.983	35.21
614.174	35.18
614.366	35.21
614.558	35.15
614.75	34.76
614.941	34.56
615.133	34.6
615.325	34.75
615.516	35.1
615.708	35.2
615.9	35.3
616.091	34.85
616.283	34.76
616.475	34.44
616.666	34.13
616.858	34.06
617.049	34.07
617.241	33.6
617.432	33.49
617.624	33.36
617.815	33.2
618.007	32.96
618.198	33.08
618.39	33.06
618.581	33.06
618.773	33.14
618.964	33.08
619.155	33.17
619.347	33.22
619.538	33.59
619.729	33.6
619.921	33.59
620.112	33.73
620.303	33.78
620.494	33.98
620.686	34.03
620.877	33.94
621.068	33.89
621.259	33.79
621.451	33.94
621.642	33.54
621.833	33.53
622.024	33.69
622.215	33.47
622.406	33.49
622.597	33.53
622.788	33.67
622.98	33.73
623.171	33.77
623.362	33.99
623.553	33.74
623.744	33.75
623.935	33.62
624.126	33.6
624.317	33.62
624.508	33.56
624.698	33.52
624.889	33.5
625.08	33.64
625.271	33.51
625.462	33.28
625.653	33.49
625.844	33.73
626.034	33.94
626.225	34.16
626.416	33.92
626.607	34.03
626.798	33.85
626.988	33.84
627.179	33.82
627.37	34.03
627.56	34.02
627.751	34
627.942	33.92
628.132	33.8
628.323	33.54
628.514	34.06
628.704	34.08
628.895	34.35
629.085	34.41
629.276	34.26
629.466	34.2
629.657	34.22
629.847	34.53
630.038	34.61
630.228	34.83
630.419	34.82
630.609	34.22
630.8	34.34
630.99	34.64
631.181	34.75
631.371	35.09
631.561	34.85
631.752	34.9
631.942	34.49
632.132	34.53
632.323	34.29
632.513	34.41
632.703	34.74
632.893	34.39
633.084	33.89
633.274	33.68
633.464	33.37
633.654	33.5
633.844	33.41
634.034	33.42
634.225	33.54
634.415	33.75
634.605	33.84
634.795	33.94
634.985	33.96
635.175	34.23
635.365	34.11
635.555	33.98
635.745	34.22
635.935	34.17
636.125	34.13
636.315	33.93
636.505	34.02
636.695	33.96
636.885	34.21
637.075	34.35
637.265	34.11
637.455	34.25
637.644	34.46
637.834	34.35
638.024	34.58
638.214	34.6
638.404	34.54
638.593	34.15
638.783	34.13
638.973	33.95
639.163	33.88
639.352	34.27
639.542	34.24
639.732	34.2
639.921	34.51
640.111	34.52
640.301	34.84
640.49	34.55
640.68	34.49
640.87	34.38
641.059	34.61
641.249	34.65
641.438	34.45
641.628	34.53
641.817	34.55
642.007	34.14
642.196	33.95
642.386	33.5
642.575	33.7
642.764	34.11
642.954	34.55
643.143	34.21
643.333	34.41
643.522	34.2
643.711	34.04
643.901	33.92
644.09	33.69
644.279	34.14
644.469	34.49
644.658	34.64
644.847	34.48
645.036	34.05
645.226	33.79
645.415	33.99
645.604	34.24
645.793	34.47
645.982	34.5
646.171	34.65
646.361	34.25
646.55	34.01
646.739	33.85
646.928	34.11
647.117	34.02
647.306	34.35
647.495	34.08
647.684	33.74
647.873	33.62
648.062	33.77
648.251	34.01
648.44	33.78
648.629	34.05
648.818	34.17
649.007	33.68
649.196	33.71
649.384	33.79
649.573	33.71
649.762	33.96
649.951	33.59
650.14	33.13
650.328	33.22
650.517	33.45
650.706	33.37
650.895	33.22
651.083	32.82
651.272	33.09
651.461	32.91
651.65	33.02
651.838	33.21
652.027	33.8
652.216	34.14
652.404	34.16
652.593	34.27
652.781	34.25
652.97	34.44
653.158	34.99
653.347	34.76
653.535	34.91
653.724	34.38
653.912	33.99
654.101	33.92
654.289	34.19
654.478	33.88
654.666	33.45
654.855	33.11
655.043	32.94
655.231	33.19
655.42	32.98
655.608	32.97
655.796	33.3
655.985	33.79
656.173	33.9
656.361	33.14
656.55	33.12
656.738	33.42
656.926	33.81
657.114	33.93
657.302	33.83
657.491	34.16
657.679	34
657.867	34.32
658.055	34.25
658.243	34.35
658.431	34.84
658.619	35
658.807	35.24
658.996	34.97
659.184	35.14
659.372	34.85
659.56	34.95
659.748	35.38
659.936	34.99
660.124	34.98
660.311	34.77
660.499	35.01
660.687	35.18
660.875	34.97
661.063	35.55
661.251	35.45
661.439	35.83
661.627	35.7
661.814	35.64
662.002	35.86
662.19	36.07
662.378	36.1
662.565	35.67
662.753	35.52
662.941	35.79
663.129	35.57
663.316	35.78
663.504	35.72
663.692	35.76
663.879	35.55
664.067	35.47
664.254	35.41
664.442	35.35
664.63	35.49
664.817	35.67
665.005	35.32
665.192	35.22
665.38	35.33
665.567	35.11
665.755	35.1
665.942	35
666.13	35.19
666.317	34.57
666.504	34.31
666.692	34.52
666.879	34.66
667.067	35.2
667.254	35.34
667.441	35.38
667.629	35.73
667.816	35.71
668.003	35.8
668.19	35.91
668.378	36.33
668.565	36.55
668.752	36.78
668.939	36.99
669.127	36.49
669.314	36.44
669.501	36.62
669.688	36.23
669.875	36.35
670.062	36.29
670.249	36.13
670.436	36.04
670.623	36.16
670.81	36.03
670.997	35.75
671.184	35.79
671.371	35.75
671.558	34.72
671.745	35.3
671.932	34.89
672.119	35.22
672.306	35.12
672.493	35.2
672.68	34.82
672.867	34.43
673.054	34.13
673.24	34.04
673.427	33.65
673.614	33.81
673.801	33.73
673.988	34.15
674.174	33.79
674.361	34.29
674.548	34.21
674.734	34.81
674.921	35.1
675.108	35.31
675.294	35.88
675.481	36.1
675.668	36.82
675.854	36.67
676.041	36.39
676.227	36
676.414	35.68
676.601	35.96
676.787	35.79
676.974	36.15
677.16	36.35
677.347	36.18
677.533	36.23
677.719	36.17
677.906	36.02
678.092	36.02
678.279	36.33
678.465	36.71
678.651	36.78
678.838	36.8
679.024	36.79
679.21	36.49
679.397	36.42
679.583	36.37
679.769	36.28
679.955	36.37
680.142	36.35
680.328	36.49
680.514	35.79
680.7	35.73
680.886	35.58
681.073	35.22
681.259	35.05
681.445	35.32
681.631	35.35
681.817	35.02
682.003	35.1
682.189	35.5
682.375	35.83
682.561	36.39
682.747	36.42
682.933	36.62
683.119	36.19
683.305	36
683.491	35.92
683.677	36.19
683.863	36.77
684.049	36.96
684.235	36.55
684.42	36.3
684.606	35.92
684.792	35.91
684.978	35.73
685.164	36.29
685.349	37.13
685.535	36.63
685.721	36.73
685.907	36.57
686.092	36.39
686.278	36.34
686.464	36.14
686.649	36.61
686.835	35.77
687.021	35.95
687.206	35.72
687.392	35.57
687.577	36.45
687.763	35.77
687.948	35.44
688.134	35.29
688.319	35.83
688.505	35.7
688.69	35.5
688.876	36.08
689.061	36.07
689.247	36.64
689.432	36.43
689.618	35.9
689.803	35.96
689.988	35.68
690.174	35.66
690.359	35.54
690.544	35.53
690.73	35.26
690.915	35.38
691.1	35.05
691.285	34.88
691.471	34.98
691.656	35.03
691.841	35.58
692.026	35.65
692.211	35.61
692.396	35.27
692.582	35.59
692.767	36.08
692.952	36.1
693.137	36.64
693.322	36.47
693.507	35.96
693.692	35.52
693.877	35.36
694.062	35.42
694.247	35.63
694.432	35.89
694.617	36.36
694.802	36.04
694.987	35.68
695.172	35.5
695.357	35.61
695.541	36.08
695.726	36.36
695.911	36.28
696.096	37.2
696.281	37.23
696.466	37.13
696.65	36.78
696.835	37.18
697.02	37.26
697.204	37.26
697.389	37.05
697.574	37.08
697.759	36.78
697.943	36.3
698.128	35.98
698.312	35.94
698.497	35.9
698.682	35.85
698.866	35.78
699.051	35.9
699.235	35.75
699.42	35.93
699.604	35.68
699.789	35.61
699.973	35.87
700.158	35.74
700.342	36.01
700.527	35.98
700.711	36.04
700.895	36.19
701.08	36.29
701.264	36.62
701.448	36.38
701.633	36.75
701.817	37.51
702.001	37.72
702.186	38.15
702.37	37.98
702.554	38.33
702.738	38.22
702.923	38.19
703.107	38.23
703.291	37.83
703.475	38.48
703.659	38.14
703.843	37.65
704.027	37.39
704.212	36.9
704.396	36.79
704.58	36.61
704.764	36.59
704.948	36.08
705.132	36.25
705.316	36.79
705.5	36.74
705.684	36.94
705.868	37.08
706.052	37.52
706.235	37.46
706.419	37.95
706.603	38.2
706.787	38.53
706.971	38.68
707.155	38.21
707.339	38.01
707.522	37.76
707.706	38.15
707.89	38.36
708.074	38.31
708.257	38.54
708.441	38.06
708.625	37.93
708.808	38.3
708.992	38.64
709.176	38.98
709.359	39.51
709.543	39.17
709.727	38.79
709.91	38.35
710.094	39.2
710.277	39.2
710.461	39.4
710.644	39.32
710.828	38.42
711.011	38.09
711.195	38.03
711.378	37.38
711.562	37.82
711.745	37.96
711.928	37.88
712.112	37.53
712.295	37.66
712.478	37.91
712.662	37.65
712.845	37.98
713.028	38.51
713.212	37.68
713.395	38.03
713.578	37.68
713.761	37.03
713.945	37.03
714.128	36.3
714.311	36.1
714.494	35.3
714.677	35.56
714.86	34.97
715.043	34.63
715.227	35.18
715.41	34.56
715.593	34.3
715.776	34.76
715.959	35.24
716.142	36.03
716.325	36.25
716.508	36.24
716.691	36.62
716.874	36.93
717.057	36.35
717.239	36.71
717.422	37.16
717.605	36.57
717.788	36.92
717.971	37.07
718.154	36.6
718.337	36.07
718.519	36.41
718.702	35.82
718.885	36.22
719.068	36.4
719.25	35.84
719.433	35.68
719.616	37.16
719.798	36.12
719.981	36.06
720.164	35.75
720.346	36.78
720.529	36.51
720.712	36.84
720.894	37
721.077	36.93
721.259	37.19
721.442	37.16
721.624	36.46
721.807	38.53
721.989	38.25
722.172	38.91
722.354	37.78
722.537	37.89
722.719	37.56
722.901	37.22
723.084	37.91
723.266	38.54
723.448	38.39
723.631	38.96
723.813	37.82
723.995	38.42
724.178	38.16
724.36	38.53
724.542	38.5
724.724	38.13
724.907	38.4
725.089	38.06
725.271	36.56
725.453	37.24
725.635	37.8
725.817	37.48
725.999	36.45
726.181	36.17
726.364	35.53
726.546	35.77
726.728	35.69
726.91	35.45
727.092	36.13
727.274	36.74
727.456	36.93
727.638	35.97
727.819	36.37
728.001	36.53
728.183	36.42
728.365	36.64
728.547	37.28
728.729	37.77
728.911	37.68
729.093	37.19
729.274	37.48
729.456	37.13
729.638	37.52
729.82	37.18
730.001	37.35
730.183	37.05
730.365	37.68
730.546	37.1
730.728	36.65
730.91	36.97
731.091	37.03
731.273	36.48
731.455	36.35
731.636	35.73
731.818	35.47
731.999	34.42
732.181	35.62
732.362	35.38
732.544	35.42
732.725	36.05
732.907	35.76
733.088	35.38
733.27	36.33
733.451	36.01
733.633	36.97
733.814	37.69
733.995	38.37
734.177	37.79
734.358	37.54
734.539	36.72
734.721	36.77
734.902	36.89
735.083	37.1
735.264	36.8
735.446	37.4
735.627	36.02
735.808	36.6
735.989	37.21
736.17	36.97
736.351	37.19
736.533	38.11
736.714	37.46
736.895	36.27
737.076	36.25
737.257	35.39
737.438	35.21
737.619	35.6
737.8	34.96
737.981	35.88
738.162	35.46
738.343	36.12
738.524	35.69
738.705	36.24
738.886	37.12
739.067	36.5
739.247	36.91
739.428	36.66
739.609	36.24
739.79	34.87
739.971	33.62
740.151	34.01
740.332	33.55
740.513	33.42
740.694	33.89
740.874	33.56
741.055	33.75
741.236	33.81
741.417	34.58
741.597	35.77
741.778	37.31
741.958	37.9
742.139	37
742.32	36.35
742.5	38.02
742.681	37.07
742.861	37.67
743.042	38.45
743.222	38.59
743.403	38.64
743.583	39.64
743.764	39.39
743.944	38.66
744.124	39.95
744.305	40.56
744.485	39.11
744.666	39.18
744.846	39.21
745.026	38.25
745.207	38.95
745.387	37.97
745.567	35.78
745.747	34.66
745.928	34.29
746.108	34.44
746.288	34.17
746.468	34.74
746.648	34.97
746.829	34.77
747.009	35.54
747.189	34.85
747.369	33.91
747.549	34.04
747.729	35.63
747.909	36.4
748.089	36.92
748.269	37.37
748.449	35.99
748.629	35.49
748.809	35.7
748.989	34.8
749.169	35.65
749.349	36.13
749.529	36.85
749.709	36.88
749.889	36.52
750.068	35.37
750.248	35.15
750.428	36.46
750.608	36.56
750.788	36.06
750.967	36.81
751.147	35.35
751.327	35.95
751.507	35.57
751.686	35.08
751.866	35.6
752.046	35.1
752.225	36.23
752.405	35.81
752.585	35.93
752.764	36.84
752.944	37.14
753.123	37.07
753.303	36.96
753.482	37.1
753.662	37.18
753.841	36.96
754.021	36.8
754.2	36.36
754.38	35.99
754.559	36.76
754.739	36.02
754.918	35.45
755.097	35.62
755.277	34.15
755.456	34.93
755.635	34
755.815	33.53
755.994	35.33
756.173	35.32
756.352	35.32
756.532	35.06
756.711	35.54
756.89	34.99
757.069	36.38
757.248	37.86
757.427	38.03
757.607	38.44
757.786	38.76
757.965	37.86
758.144	35.89
758.323	37.19
758.502	36.5
758.681	36.02
758.86	37.89
759.039	36.9
759.218	37.57
759.397	37.4
759.576	37.08
759.755	37.78
759.934	38.95
760.113	40.27
760.291	39.79
760.47	40.37
760.649	40.53
760.828	39.41
761.007	39.93
761.186	38.02
761.364	36.99
761.543	37.77
761.722	35.85
761.901	34.4
762.079	34.92
762.258	35.03
762.437	34.85
762.615	35.51
762.794	35.81
762.972	35.51
763.151	36.02
763.33	36.41
763.508	36.25
763.687	38.56
763.865	38.58
764.044	37.91
764.222	37.31
764.401	37.4
764.579	36.54
764.758	36.62
764.936	35.34
765.114	35.24
765.293	35.33
765.471	34.85
765.65	33.62
765.828	33.87
766.006	34.65
766.184	34.38
766.363	34.08
766.541	34.09
766.719	33.66
766.898	34.4
767.076	35.31
767.254	34.02
767.432	33.85
767.61	34.39
767.788	33.72
767.967	31.84
768.145	32.21
768.323	32.26
768.501	32.66
768.679	32.14
768.857	32.09
769.035	30.84
769.213	31.5
769.391	30.08
769.569	29.04
769.747	30.53
769.925	31.89
770.103	31.99
770.281	32.28
770.459	32.62
770.636	33.39
770.814	35.7
770.992	37.08
771.17	38.86
771.348	41.53
771.525	42.16
771.703	42.18
771.881	41.44
772.059	41.52
772.236	42.24
772.414	43.54
772.592	42.96
772.769	41.17
772.947	40.32
773.125	38.01
773.302	38.55
773.48	37.33
773.657	36.74
773.835	38.38
774.013	38.34
774.19	35.49
774.368	33.51
774.545	34.05
774.723	34.36
774.9	34.5
775.077	35.24
775.255	33.53
775.432	32.75
775.61	33.25
775.787	31.03
775.964	30.62
776.142	30.84
776.319	31.36
776.496	33.13
776.674	34.47
776.851	33.48
777.028	33.36
777.205	33.35
777.382	35.56
777.56	34.35
777.737	33.8
777.914	34.53
778.091	35.86
778.268	35.14
778.445	33.27
778.622	32.4
778.8	34.5
778.977	34.14
779.154	54.5
779.331	52.39
779.508	52.68
779.685	55.47
779.862	57.14
780.038	58.98
780.215	57.77
780.392	59.08
780.569	57.67
780.746	58.89
780.923	60.57
781.1	37.8
781.277	39.56
781.453	39.01
781.63	36.9
781.807	35.84
781.984	33.71
782.16	35.28
782.337	35.03
782.514	37.02
782.691	38.09
782.867	37.25
783.044	39.01
783.221	38.19
783.397	40.08
783.574	42.51
783.75	41.35
783.927	41.05
784.103	39.93
784.28	38.14
784.456	38.33
784.633	37.74
784.809	39.2
784.986	39.3
785.162	40.66
785.339	38.35
785.515	35.34
785.692	34.76
785.868	35.7
786.044	37.18
786.221	36.03
786.397	35.15
786.573	32.04
786.749	30.69
786.926	30.69
787.102	30.32
787.278	30.3
787.454	32.4
787.631	34.1
787.807	36.44
787.983	37.41
788.159	39.41
788.335	38.47
788.511	41.25
788.687	42.7
788.863	43.87
789.039	43.59
789.216	44.88
789.392	44.33
789.568	41.31
789.744	39.61
789.919	37.63
790.095	37.24
790.271	38
790.447	36.43
790.623	34.65
790.799	31.56
790.975	32.07
791.151	31.63
791.327	32.17
791.502	37.53
791.678	37.2
791.854	36.74
792.03	37.58
792.205	38.27
792.381	39.75
792.557	39.86
792.733	43.08
792.908	43.7
793.084	41.06
793.259	41.74
793.435	37.39
793.611	35.29
793.786	35.75
793.962	34.15
794.137	35.87
794.313	33.37
794.488	33.89
794.664	33.71
794.839	33.38
795.015	35.86
795.19	35.32
795.366	37.32
795.541	40.35
795.716	40.99
795.892	41.38
796.067	40.62
796.242	40.75
796.418	40.82
796.593	39.2
796.768	38.99
796.944	38.01
797.119	37.33
797.294	35.89
797.469	34.27
797.644	34.69
797.82	35.65
797.995	35.09
798.17	35.9
798.345	35.75
798.52	36.6
798.695	36.09
798.87	34.78
799.045	35.59
799.22	37.79
799.395	37.18
799.57	36.85
799.745	35.55
799.92	36.1
800.095	33.22
800.27	34.52
800.445	35.3
800.62	35.69
800.795	35.44
800.97	35.6
801.145	34.21
801.319	36.73
801.494	35.59
801.669	36.17
801.844	33.83
802.018	34.63
802.193	34.44
802.368	34.49
802.543	34.07
802.717	36.28
802.892	36.48
803.067	33.67
803.241	32.49
803.416	32.6
803.59	30.86
803.765	31.08
803.94	32.52
804.114	31.23
804.289	28.71
804.463	29.93
804.638	28.78
804.812	27.81
804.986	28.22
805.161	29
805.335	29.06
805.51	31.74
805.684	30.05
805.858	30.77
806.033	31.82
806.207	33.64
806.381	29.57
806.556	32.34
806.73	32.44
806.904	33.67
807.078	34.73
807.253	35.86
807.427	35.37
807.601	38.34
807.775	35.77
807.949	34.93
808.123	33.15
808.298	34.29
808.472	30.96
808.646	29.8
808.82	27.34
808.994	26.9
809.168	24.94
809.342	22.29
809.516	21.11
809.69	20.15
809.864	21.26
810.038	22.58
810.212	23.93
810.385	25.69
810.559	25.91
810.733	29.83
810.907	26.95
811.081	32.28
811.255	35.53
811.428	35.46
811.602	40.5
811.776	38.13
811.95	37.49
812.123	38.9
812.297	38.58
812.471	38.93
812.644	38.05
812.818	37.88
812.992	34.01
813.165	37.41
813.339	39.88
813.512	38.55
813.686	42.21
813.86	40.26
814.033	41.28
814.207	41.96
814.38	42.62
814.554	44.48
814.727	40.71
814.9	42.26
815.074	38.18
815.247	36.74
815.421	35.62
815.594	33.91
815.767	34.11
815.941	31.74
816.114	30.58
816.287	28.7
816.46	27.32
816.634	35.67
816.807	32.62
816.98	32.59
817.153	32.65
817.327	32.16
817.5	35.57
817.673	39.5
817.846	41.27
818.019	40.99
818.192	43.11
818.365	42.1
818.538	39.05
818.711	41.75
818.884	43.17
819.057	41.2
819.23	42.54
819.403	40.06
819.576	38.83
819.749	36.43
819.922	35.96
820.095	34.97
820.268	34.1
820.441	34.23
820.614	34.05
820.786	35.78
820.959	37.35
821.132	36.37
821.305	35.64
821.477	35.27
821.65	35.93
821.823	36.18
821.996	35.77
822.168	35.53
822.341	37.2
822.514	37.76
822.686	36.57
822.859	35.73
823.031	35.63
823.204	35.68
823.376	35.83
823.549	35.9
823.722	36.05
823.894	36.22
824.067	35.92
824.239	34.92
824.411	34.2
824.584	34.79
824.756	35.62
824.929	35.54
825.101	35.57
825.273	35.02
825.446	34.9
825.618	35.46
825.79	35.65
825.963	36.25
826.135	36.87
826.307	36.1
826.479	36.05
826.652	35.93
826.824	36.74
826.996	36.64
827.168	36.72
827.34	36.18
827.512	35.97
827.684	35.85
827.856	36.28
828.029	35.94
828.201	38.12
828.373	36.69
828.545	36.17
828.717	35.73
828.889	36.1
829.061	36.65
829.232	36.23
829.404	33.98
829.576	32.8
829.748	32.23
829.92	29.67
830.092	27.52
830.264	28.9
830.436	29.47
830.607	29.75
830.779	29.54
830.951	29.8
831.123	29.74
831.294	32.7
831.466	33.68
831.638	33.67
831.809	37.54
831.981	36.47
832.153	36.68
832.324	37.42
832.496	38.33
832.667	35.92
832.839	36.32
833.011	39.7
833.182	38.18
833.354	40.15
833.525	39.74
833.697	40.32
833.868	40.58
834.039	39.35
834.211	38.08
834.382	35.97
834.554	36.59
834.725	35.87
834.896	33.48
835.068	33.56
835.239	32.61
835.41	33.5
835.581	32.61
835.753	31.44
835.924	30.79
836.095	31.85
836.266	33.49
836.438	35.93
836.609	35.85
836.78	37.23
836.951	36.61
837.122	37.13
837.293	35.04
837.464	33.72
837.635	34.66
837.806	37.11
837.977	36.58
838.148	35.99
838.319	34.42
838.49	33.85
838.661	34.41
838.832	35.9
839.003	38.26
839.174	39.97
839.345	40.17
839.516	44.91
839.687	41.17
839.857	41.49
840.028	37.01
840.199	36.68
840.37	36.61
840.54	34.56
840.711	34.3
840.882	31.51
841.053	31.97
841.223	26.06
841.394	17.35
841.564	25.73
841.735	23.76
841.906	24.69
842.076	25.4
842.247	27.03
842.417	34.31
842.588	33.51
842.758	30.77
842.929	29.19
843.099	37.54
843.27	47.38
843.44	40.62
843.611	42.78
843.781	40.75
843.951	41.47
844.122	39.53
844.292	32.9
844.462	31.58
844.633	34.14
844.803	36.04
844.973	37.77
845.144	32.61
845.314	35.75
845.484	36.03
845.654	39.08
845.824	32.66
845.995	40.29
846.165	45.43
846.335	58.36
846.505	57.2
846.675	58.64
846.845	42.42
847.015	42.4
847.185	50.39
847.355	47.06
847.525	51.41
847.695	52.45
847.865	42.72
848.035	39.76
848.205	36.38
848.375	38.97
848.545	31.4
848.715	48.19
848.884	41.77
849.054	35.51
849.224	35.25
849.394	39.97
849.564	46.92
849.733	52.81
849.903	54.34
850.073	40.94
850.243	29.39
850.412	27.52
850.582	23.8
850.752	18.77
850.921	22.43
851.091	26.59
851.26	19.66
851.43	-12.65
851.599	-5.46
851.769	-20.43
851.939	-7.89
852.108	-3.98
852.278	5.27
852.447	-8.19
852.616	15.48
852.786	7.77
852.955	12.23
853.125	0.57
853.294	22.77
853.463	22.65
853.633	31.66
853.802	30.07
853.971	26.37
854.141	31.69
854.31	51.6
854.479	48.18
854.648	54.38
854.818	45.76
854.987	48.39
855.156	36.7
855.325	35.45
855.494	34.59
855.663	38.06
855.832	34.04
856.001	33.57
856.171	26.91
856.34	29.07
856.509	10.45
856.678	21.21
856.847	25.37
857.016	39.32
857.185	58.33
857.353	61.06
857.522	53.57
857.691	66.67
857.86	57.75
858.029	70.34
858.198	62.04
858.367	73.26
858.535	65.9
858.704	69.75
858.873	66.24
859.042	37.81
859.21	22.25
859.379	15.24
859.548	12.23
859.717	7.09
859.885	-9.14
860.054	9.03
860.222	18.19
860.391	15.48
860.56	3.08
860.728	-2.74
860.897	17.35
861.065	15.54
861.234	26.25
861.402	21.75
861.571	26.75
861.739	21.07
861.908	22.08
862.076	7.43
862.244	18.95
862.413	26.62
862.581	45.83
862.749	33.18
862.918	34.02
863.086	40.48
863.254	62.84
863.423	58.52
863.591	55.79
863.759	33.46
863.927	50.6
864.096	44.01
864.264	16.96
864.432	8.64
864.6	-9.44
864.768	-6.63
864.936	-24.52
865.104	-38.51
865.272	-38.21
865.44	-73.77
865.608	-64.94
865.776	-95.66
865.944	-72.12
866.112	-49.96
866.28	-31.17
866.448	-17.72
866.616	0.97
866.784	27.67
866.952	30.11
867.12	28.81
867.288	53.92
867.455	60.41
867.623	84.76
867.791	70.79
867.959	57.15
868.127	38.47
868.294	25.69
868.462	24.75
868.63	25.02
868.797	32.16
868.965	30.4
869.133	28.26
869.3	35.02
869.468	34.25
869.636	37.54
869.803	51.02
869.971	58.95
870.138	63.65
870.306	59.36
870.473	60.89
870.641	49.91
870.808	55.99
870.975	64.51
871.143	57.99
871.31	40.34
871.478	22.57
871.645	-1.35
871.812	-8.84
871.98	10.67
872.147	-2.27
872.314	-1.75
872.482	6.09
872.649	2.77
872.816	11.79
872.983	27.21
873.15	35.16
873.318	42.83
873.485	53.65
873.652	55.79
873.819	49.55
873.986	45.77
874.153	36.68
874.32	35.46
874.487	32.95
874.654	40.68
874.821	24.23
874.988	16.48
875.155	32.01
875.322	29.74
875.489	31.65
875.656	26.59
875.823	28.22
875.99	35.19
876.157	40.13
876.324	46.04
876.49	34.32
876.657	46.45
876.824	60.55
876.991	39.71
877.157	49.16
877.324	61.55
877.491	58.56
877.658	69.95
877.824	82.33
877.991	89.04
878.157	71.84
878.324	81.3
878.491	43.63
878.657	32.7
878.824	61.98
878.99	58.87
879.157	37.67
879.323	53.6
879.49	47.86
879.656	51.2
879.823	47.06
879.989	54.01
880.156	50.3
880.322	67.88
880.488	61.07
880.655	57.45
880.821	52.04
880.987	52.38
881.154	47.68
881.32	52.1
881.486	44.57
881.652	45.21
881.819	41.07
881.985	40.5
882.151	35.65
882.317	39.82
882.483	36.2
882.649	35.32
882.816	32.92
882.982	32.78
883.148	30.29
883.314	29.14
883.48	28.48
883.646	30.78
883.812	29.54
883.978	29.74
884.144	27.75
884.31	27.68
884.476	28.42
884.642	28.96
884.807	27.82
884.973	25.66
885.139	26
885.305	25.3
885.471	24.07
885.637	25.43
885.802	24.03
885.968	24.43
886.134	26
886.3	26.38
886.465	27.69
886.631	30.06
886.797	35.49
886.962	40.07
887.128	43.05
887.293	40.91
887.459	44.3
887.625	42.63
887.79	39.76
887.956	36.6
888.121	34.83
888.287	32.51
888.452	31
888.618	20.41
888.783	8.92
