Data from CB_012_Reflection_1.txt Node
Date: Wed Nov 11 18:52:43 EST 2015
User: robert
Spectrometer: USB4E03001
Autoset integration time: false
Trigger mode: 4
Integration Time (sec): 1.000000E-1
Scans to average: 15
Electric dark correction enabled: true
Nonlinearity correction enabled: false
Boxcar width: 5
Stray light correction enabled: false
XAxis mode: Wavelengths
Stop averaging: false
Number of Pixels in Spectrum: 3648
>>>>>Begin Spectral Data<<<<<
177.566	-273.19
177.785	-703.71
178.005	-238
178.225	-2494.04
178.445	340.81
178.665	488.22
178.885	40.47
179.105	613.78
179.324	257.74
179.544	-219.92
179.764	-130.15
179.984	-71.47
180.204	182.27
180.423	-21.66
180.643	31.26
180.863	-120.24
181.083	-428.1
181.302	146.72
181.522	213.47
181.742	-161.74
181.961	253.88
182.181	171.34
182.401	277.39
182.621	1368.32
182.84	256.78
183.06	275.29
183.279	293.59
183.499	640.18
183.719	477.17
183.938	281.59
184.158	383.06
184.377	-339.56
184.597	-26.47
184.816	-78.23
185.036	-348.69
185.256	-68.97
185.475	487.4
185.695	-7144.83
185.914	313.36
186.134	253.37
186.353	323.81
186.572	489.83
186.792	366.47
187.011	293.04
187.231	218.22
187.45	255.7
187.67	245.19
187.889	2456.65
188.108	728.63
188.328	1395.1
188.547	-820.63
188.766	-1155.89
188.986	525.5
189.205	-31504.55
189.424	664.44
189.644	2816.53
189.863	232.84
190.082	178.94
190.302	151.07
190.521	80.64
190.74	22
190.959	59.74
191.178	84.52
191.398	76.32
191.617	55.69
191.836	74.1
192.055	101.28
192.274	98
192.494	120.33
192.713	93.17
192.932	93.98
193.151	121.26
193.37	133.75
193.589	98.5
193.808	96.4
194.027	107.94
194.246	119.62
194.465	108.85
194.685	99.18
194.904	105.43
195.123	204.9
195.342	1143.05
195.561	166.32
195.78	134.44
195.999	167.49
196.218	747.4
196.436	-82.12
196.655	29.39
196.874	79.61
197.093	65
197.312	-114.83
197.531	97.06
197.75	132.79
197.969	116.5
198.188	127.74
198.407	157.65
198.625	213.23
198.844	216.91
199.063	64.39
199.282	92.26
199.501	64.6
199.719	27.53
199.938	-325.78
200.157	82.86
200.376	187.47
200.594	393.2
200.813	-14862.86
201.032	759.09
201.251	233.83
201.469	197.93
201.688	157.52
201.907	132.33
202.125	111.89
202.344	89.98
202.563	105.15
202.781	102.6
203	62.19
203.218	49.01
203.437	59.8
203.656	19.72
203.874	26.8
204.093	45.62
204.311	42.93
204.53	25.53
204.748	-2.42
204.967	-28.21
205.185	-11.95
205.404	11.79
205.622	17.99
205.841	30.14
206.059	26.43
206.278	44.25
206.496	5.68
206.715	82.19
206.933	99.43
207.151	108.05
207.37	87.5
207.588	142.73
207.806	193.16
208.025	162.07
208.243	161.9
208.461	142.19
208.68	151.25
208.898	205.24
209.116	201.43
209.335	198.55
209.553	-485.63
209.771	282.02
209.989	-2199.57
210.208	-653.89
210.426	-507.63
210.644	-176.52
210.862	-107.91
211.081	-105.04
211.299	-71.41
211.517	-129.63
211.735	-159.92
211.953	-297.18
212.171	-60.15
212.39	-587.15
212.608	-2280.86
212.826	366.89
213.044	266.67
213.262	199.16
213.48	204.89
213.698	332.7
213.916	-1276.71
214.134	-348.23
214.352	-614.68
214.57	604.39
214.788	215.23
215.006	247.81
215.224	164.83
215.442	72.02
215.66	83.13
215.878	76.09
216.096	56.95
216.314	56.92
216.532	60.75
216.75	65.79
216.968	64.06
217.185	59.9
217.403	105.75
217.621	104.18
217.839	119.49
218.057	1039.7
218.275	-260.99
218.492	-52.55
218.71	-26.2
218.928	-35.41
219.146	-23.3
219.363	12.92
219.581	-31.52
219.799	4.92
220.017	15.48
220.234	-12.19
220.452	-47.95
220.67	-45.87
220.887	-115.62
221.105	-80.63
221.323	-106.59
221.54	-28.64
221.758	-36.38
221.976	-12.58
222.193	-36.42
222.411	-74.6
222.629	-63.46
222.846	-52.16
223.064	-30.12
223.281	-37.6
223.499	-63.57
223.716	-57.4
223.934	-364.78
224.151	-699.18
224.369	-374.72
224.586	95600
224.804	-258.25
225.021	-253.12
225.239	-207.97
225.456	-215.37
225.674	-221.05
225.891	-51.39
226.108	-39.19
226.326	-30.16
226.543	-30.3
226.76	-25.46
226.978	-26.66
227.195	-11.99
227.413	2.73
227.63	1.84
227.847	-1.18
228.064	2.25
228.282	2.83
228.499	6.02
228.716	5.04
228.934	6.96
229.151	7.38
229.368	8.86
229.585	2.99
229.802	1.07
230.02	1.26
230.237	-0.38
230.454	3.77
230.671	3.29
230.888	-2.2
231.105	-6.17
231.323	-7.55
231.54	-6.99
231.757	-9.33
231.974	-4.07
232.191	-6.34
232.408	-0.19
232.625	-0.82
232.842	-8.5
233.059	-6.43
233.276	3.03
233.493	12.59
233.71	11.24
233.927	16.57
234.144	15.83
234.361	14.59
234.578	14.84
234.795	10.41
235.012	11.11
235.229	14.37
235.446	5.97
235.663	-2.41
235.879	-3.71
236.096	-4.57
236.313	-20.84
236.53	-24.96
236.747	-19.37
236.964	-19.92
237.181	-27.08
237.397	-12.96
237.614	-11.42
237.831	-12.99
238.048	-12.11
238.264	-12.62
238.481	-8.07
238.698	1.29
238.915	-3.36
239.131	-10.97
239.348	-10.87
239.565	0.45
239.781	-4.66
239.998	-7.73
240.215	-3.43
240.431	-1.61
240.648	0.32
240.865	1.13
241.081	-3.15
241.298	-0.38
241.514	-0.16
241.731	0.49
241.947	-1.64
242.164	-1.29
242.38	-1.36
242.597	-0.84
242.814	-0.65
243.03	-1.76
243.246	-1.58
243.463	-0.06
243.679	0.54
243.896	2.2
244.112	1.4
244.329	1.42
244.545	1.77
244.762	4.2
244.978	4.15
245.194	2.56
245.411	1.93
245.627	-0.15
245.843	0.62
246.06	2.88
246.276	4.2
246.492	6.05
246.709	7.31
246.925	6.02
247.141	4.74
247.357	5.37
247.574	6.55
247.79	6.61
248.006	7.44
248.222	7.67
248.439	6.55
248.655	5.59
248.871	4.26
249.087	4.3
249.303	4.63
249.519	5.05
249.736	3.79
249.952	1.77
250.168	1.1
250.384	-0.19
250.6	-0.3
250.816	-0.53
251.032	-0.55
251.248	-0.36
251.464	-1.76
251.68	-3.5
251.896	-1.48
252.112	-0.28
252.328	2.32
252.544	3.8
252.76	3.61
252.976	3.22
253.192	4.36
253.408	2.64
253.624	4.51
253.84	1.76
254.056	3.7
254.272	2.81
254.487	1.05
254.703	-0.19
254.919	1.13
255.135	0.47
255.351	0.62
255.567	-2.11
255.782	0.53
255.998	-0.94
256.214	2.87
256.43	3.93
256.646	2.9
256.861	1.04
257.077	-0.74
257.293	-5.07
257.508	-1.34
257.724	-1.96
257.94	-0.38
258.155	0.1
258.371	0.83
258.587	1.1
258.802	1.51
259.018	1.8
259.234	3.78
259.449	4.2
259.665	4.16
259.88	3.5
260.096	3.49
260.312	3.19
260.527	3.3
260.743	3.03
260.958	2.04
261.174	1.03
261.389	0.39
261.605	-0.73
261.82	-0.23
262.036	0.16
262.251	-0.66
262.466	-0.17
262.682	-0.8
262.897	-0.74
263.113	-1.91
263.328	1.13
263.543	2.35
263.759	3.58
263.974	2.66
264.189	0.42
264.405	-1.02
264.62	-0.97
264.835	-0.93
265.051	0.4
265.266	-1.5
265.481	0.64
265.696	-3.1
265.912	-3.19
266.127	-2.64
266.342	-1.59
266.557	-3.42
266.773	-2.69
266.988	-3.65
267.203	-6.42
267.418	-6.68
267.633	-6.41
267.848	-6.36
268.064	-5.15
268.279	-4.73
268.494	-5.02
268.709	-5.37
268.924	-2.15
269.139	-1.55
269.354	1.3
269.569	4.35
269.784	5.14
269.999	4.35
270.214	2.34
270.429	1.82
270.644	0.59
270.859	0.27
271.074	1.42
271.289	0.35
271.504	0.71
271.719	-0.55
271.934	-1.47
272.149	-1.51
272.363	-1.17
272.578	-0.15
272.793	1.79
273.008	1.59
273.223	1.6
273.438	1.4
273.653	2.18
273.867	1.5
274.082	1.17
274.297	0.31
274.512	-0.8
274.726	1.25
274.941	-0.02
275.156	-2
275.371	-2.1
275.585	-2.45
275.8	-3.82
276.015	-5.28
276.229	-5.55
276.444	-4.97
276.659	-5.15
276.873	-4.7
277.088	-4.56
277.302	-3.86
277.517	-5.58
277.732	-5.65
277.946	-5.71
278.161	-5.2
278.375	-4.34
278.59	-4.02
278.804	-2.77
279.019	-1.88
279.233	-0.54
279.448	-1.33
279.662	-1.29
279.877	-0.67
280.091	0.59
280.306	1.19
280.52	1.47
280.735	0.61
280.949	2.31
281.163	1.8
281.378	1.83
281.592	0.87
281.806	2.2
282.021	2.84
282.235	3.49
282.449	3.4
282.664	2.51
282.878	3.56
283.092	5.04
283.307	4.02
283.521	5.81
283.735	6.85
283.949	6.48
284.164	4.79
284.378	4.87
284.592	5.21
284.806	5.37
285.02	5.54
285.234	5.78
285.449	6.39
285.663	6.23
285.877	4.95
286.091	4.48
286.305	4.82
286.519	4.97
286.733	5.14
286.947	5.74
287.161	5.91
287.375	6.62
287.589	5.42
287.803	4.48
288.017	5.89
288.231	5.4
288.445	6.1
288.659	5.47
288.873	5.39
289.087	5.09
289.301	5.05
289.515	4.66
289.729	3.63
289.943	4.56
290.157	4.03
290.371	3.16
290.584	3.52
290.798	3.3
291.012	3.29
291.226	3.09
291.44	1.89
291.654	1.25
291.867	1.8
292.081	1.8
292.295	0.95
292.509	1.36
292.722	1.13
292.936	0.81
293.15	0.99
293.364	1.59
293.577	2.12
293.791	4.21
294.005	4.64
294.218	4.86
294.432	4.93
294.645	5.68
294.859	4.51
295.073	4.55
295.286	4.13
295.5	4.22
295.713	4.3
295.927	4.73
296.14	4.9
296.354	3.89
296.568	2.72
296.781	2.94
296.994	1.68
297.208	2.01
297.421	2.4
297.635	3.02
297.848	3.2
298.062	3.44
298.275	2.97
298.489	1.52
298.702	2.29
298.915	3.54
299.129	4.27
299.342	5.3
299.555	4.96
299.769	4.65
299.982	4.57
300.195	4.69
300.409	4.62
300.622	5.24
300.835	5.85
301.048	5.8
301.262	5.53
301.475	5.24
301.688	5.32
301.901	6.99
302.115	7.26
302.328	6.87
302.541	6.08
302.754	6.1
302.967	4.59
303.18	4.7
303.393	5.19
303.607	5.07
303.82	3.68
304.033	3.43
304.246	3.17
304.459	2.67
304.672	3.34
304.885	2.96
305.098	2.91
305.311	3.86
305.524	2.97
305.737	2.04
305.95	1.51
306.163	3.15
306.376	3.19
306.589	2.97
306.802	3.46
307.015	3.06
307.228	1.75
307.44	3.25
307.653	4.24
307.866	5.25
308.079	6.77
308.292	8.72
308.505	8.96
308.718	8.55
308.93	8.05
309.143	9.03
309.356	8.84
309.569	10.52
309.781	9.72
309.994	8.6
310.207	8.48
310.42	7.43
310.632	5.96
310.845	6.22
311.058	7.29
311.27	8.08
311.483	6.98
311.696	7.38
311.908	6.56
312.121	6.51
312.333	6.37
312.546	7.87
312.759	7.77
312.971	7.65
313.184	7.15
313.396	7.6
313.609	7.39
313.821	7.03
314.034	7.29
314.246	8.64
314.459	8.48
314.671	9.63
314.884	7.99
315.096	8.97
315.309	9.45
315.521	9.02
315.733	6.84
315.946	6.8
316.158	7.46
316.371	6.35
316.583	5.14
316.795	5.8
317.008	5.41
317.22	6.11
317.432	4.87
317.644	3.66
317.857	4.48
318.069	5.06
318.281	5.27
318.494	6.25
318.706	6.72
318.918	6.89
319.13	4.93
319.342	5.04
319.555	4.69
319.767	4.26
319.979	5.15
320.191	3.84
320.403	2.98
320.615	2.42
320.827	1.73
321.039	2.42
321.252	3.47
321.464	4.93
321.676	3.64
321.888	4.15
322.1	4.97
322.312	5.38
322.524	7.83
322.736	9.72
322.948	9.19
323.16	10.09
323.372	10.42
323.584	9.98
323.796	9.54
324.007	10.33
324.219	9.95
324.431	11.39
324.643	11.43
324.855	9.94
325.067	10.14
325.279	11.1
325.491	10.11
325.702	10.31
325.914	10.59
326.126	11.68
326.338	11.35
326.55	12.79
326.761	12.69
326.973	13.3
327.185	13.39
327.396	11.43
327.608	11.91
327.82	13.54
328.032	13.39
328.243	12.42
328.455	11.72
328.666	12.96
328.878	11
329.09	10.33
329.301	9.86
329.513	11.06
329.725	13.1
329.936	11.61
330.148	10.7
330.359	9.23
330.571	10.93
330.782	11.72
330.994	11.99
331.205	12.43
331.417	11.72
331.628	11.92
331.84	12.41
332.051	12.83
332.262	12.88
332.474	13
332.685	14.26
332.897	14.04
333.108	14.57
333.319	14.7
333.531	14.71
333.742	14.82
333.953	14.14
334.165	13.07
334.376	12.38
334.587	14.04
334.799	13.45
335.01	13.64
335.221	14.19
335.432	13.77
335.644	13.63
335.855	14.51
336.066	14.97
336.277	15.41
336.488	16.53
336.7	16.9
336.911	17.13
337.122	17.91
337.333	18.49
337.544	18.65
337.755	19.37
337.966	18.6
338.177	17.6
338.388	17.97
338.599	19
338.811	18.21
339.022	18.97
339.233	19.39
339.444	19.15
339.655	19.38
339.866	18.86
340.076	17.89
340.287	18.57
340.498	19.95
340.709	20.43
340.92	19.59
341.131	19.6
341.342	18.61
341.553	16.81
341.764	17.17
341.975	16.07
342.185	15.99
342.396	16.79
342.607	16.73
342.818	14.62
343.029	13.9
343.239	13.5
343.45	13.71
343.661	14.12
343.872	14.92
344.082	14.73
344.293	14.58
344.504	14.69
344.714	14.1
344.925	14.31
345.136	15.63
345.346	16.55
345.557	17.34
345.768	17.23
345.978	17.5
346.189	16.73
346.399	17.48
346.61	17.84
346.821	17.77
347.031	17.39
347.242	17.78
347.452	17.83
347.663	16.86
347.873	17.19
348.084	16.6
348.294	16.41
348.504	16.85
348.715	15.61
348.925	16.49
349.136	16.62
349.346	17.48
349.557	17.2
349.767	16.97
349.977	16.43
350.188	16.39
350.398	17.75
350.608	17.74
350.819	17.79
351.029	17.86
351.239	17.34
351.449	16.64
351.66	17.45
351.87	17.01
352.08	17.4
352.29	18.97
352.501	17.72
352.711	16.86
352.921	16.87
353.131	17.08
353.341	17.39
353.552	17.72
353.762	18.27
353.972	16.88
354.182	16.72
354.392	16.57
354.602	15.8
354.812	16.51
355.022	15.68
355.232	15.35
355.442	14.75
355.652	14.57
355.862	15.38
356.072	14.87
356.282	14.81
356.492	15.35
356.702	15.93
356.912	15.34
357.122	14.66
357.332	15.43
357.542	15.16
357.752	16.04
357.962	15.55
358.171	14.64
358.381	14.46
358.591	14.89
358.801	14.88
359.011	14.1
359.221	14.4
359.43	14.52
359.64	14.89
359.85	15.71
360.06	15.42
360.269	15.78
360.479	15.38
360.689	15.86
360.899	16.01
361.108	15.65
361.318	15.98
361.528	15.63
361.737	15.92
361.947	15.59
362.156	14.75
362.366	14.87
362.576	14.46
362.785	14.62
362.995	14.7
363.204	14.64
363.414	14.37
363.623	13.97
363.833	14.56
364.042	14.54
364.252	14.62
364.461	15.53
364.671	14.78
364.88	15
365.09	14.28
365.299	14.19
365.509	13.61
365.718	14.54
365.927	14.63
366.137	14.54
366.346	14.76
366.555	14.19
366.765	13.6
366.974	14.1
367.183	13.91
367.393	14.81
367.602	14.55
367.811	15.25
368.021	14.89
368.23	15.27
368.439	14.64
368.648	14.85
368.857	15.64
369.067	14.83
369.276	14.23
369.485	15
369.694	15.05
369.903	15.18
370.112	14.69
370.321	13.93
370.531	13.63
370.74	13.45
370.949	12.93
371.158	11.93
371.367	12.39
371.576	12.93
371.785	12.48
371.994	12.01
372.203	12.38
372.412	12.47
372.621	13.25
372.83	13.37
373.039	13.71
373.248	14.25
373.457	14.95
373.666	15.24
373.874	14.99
374.083	15.32
374.292	14.75
374.501	14.24
374.71	13.69
374.919	13.18
375.128	13.02
375.336	12.48
375.545	11.43
375.754	10.68
375.963	10.48
376.171	10.69
376.38	10.37
376.589	10.73
376.798	10.51
377.006	10.48
377.215	10.69
377.424	10.75
377.632	11.27
377.841	11.5
378.05	11.22
378.258	11.09
378.467	11.27
378.675	10.56
378.884	10.33
379.093	10.11
379.301	10.66
379.51	10.37
379.718	9.95
379.927	9.81
380.135	10.05
380.344	10.64
380.552	10.85
380.761	10.65
380.969	11.06
381.177	11.63
381.386	12.05
381.594	11.79
381.803	11.57
382.011	12.16
382.219	12.04
382.428	11.81
382.636	11.98
382.845	11.83
383.053	11.61
383.261	11.29
383.469	11.25
383.678	11.12
383.886	11.14
384.094	11.06
384.302	10.65
384.511	10.45
384.719	10.64
384.927	10.71
385.135	10.4
385.343	9.98
385.552	10.27
385.76	10.14
385.968	10.02
386.176	9.52
386.384	9.86
386.592	9.87
386.8	9.71
387.008	9.2
387.216	8.76
387.424	8.96
387.633	9.21
387.841	9.3
388.049	8.88
388.257	9.04
388.465	9.26
388.672	8.9
388.88	8.43
389.088	8.52
389.296	8.74
389.504	8.79
389.712	8.86
389.92	8.92
390.128	8.5
390.336	8.06
390.544	7.62
390.751	7.71
390.959	7.57
391.167	7.88
391.375	7.91
391.583	7.82
391.79	7.38
391.998	7.11
392.206	6.85
392.414	6.96
392.621	7.4
392.829	7.59
393.037	7.37
393.244	7.41
393.452	7.18
393.66	6.85
393.867	6.75
394.075	6.84
394.283	6.73
394.49	6.97
394.698	7.17
394.905	7.09
395.113	6.95
395.32	7.15
395.528	7.31
395.735	7.65
395.943	7.88
396.15	7.69
396.358	7.97
396.565	8.07
396.773	7.96
396.98	7.7
397.188	7.48
397.395	7.49
397.602	7.12
397.81	6.81
398.017	6.43
398.225	6.61
398.432	6.61
398.639	6.74
398.847	6.99
399.054	6.45
399.261	6.38
399.468	6.69
399.676	6.7
399.883	6.84
400.09	7.03
400.297	6.93
400.505	6.49
400.712	6.98
400.919	6.68
401.126	6.25
401.333	6.71
401.54	6.95
401.748	6.52
401.955	6.23
402.162	6.1
402.369	5.91
402.576	6.2
402.783	6.38
402.99	6.21
403.197	6.3
403.404	6.03
403.611	5.91
403.818	5.58
404.025	5.64
404.232	5.9
404.439	5.89
404.646	5.73
404.853	5.35
405.06	5.36
405.267	5.48
405.474	5.37
405.681	5.86
405.887	5.99
406.094	6.3
406.301	6.33
406.508	6.3
406.715	6.27
406.922	6.43
407.128	6.57
407.335	6.56
407.542	6.13
407.749	6.19
407.955	6.1
408.162	6.33
408.369	6.15
408.575	6.27
408.782	6.52
408.989	6.67
409.195	6.87
409.402	7.06
409.609	7.17
409.815	7.43
410.022	7.45
410.228	7.36
410.435	6.96
410.642	7.04
410.848	6.95
411.055	6.39
411.261	6.2
411.468	6.13
411.674	6.07
411.881	5.63
412.087	5.62
412.294	5.77
412.5	5.86
412.706	5.92
412.913	5.59
413.119	5.43
413.326	5.6
413.532	5.63
413.738	5.26
413.945	4.86
414.151	5.31
414.357	5.2
414.564	5.11
414.77	5.11
414.976	5.07
415.182	5.43
415.389	5.69
415.595	6.01
415.801	5.97
416.007	6.17
416.214	6.32
416.42	6.22
416.626	6.19
416.832	6.21
417.038	5.92
417.244	5.8
417.45	5.75
417.657	5.55
417.863	5.41
418.069	5.52
418.275	5.7
418.481	5.69
418.687	5.55
418.893	5.39
419.099	5.42
419.305	5.8
419.511	5.98
419.717	6.04
419.923	6.14
420.129	6.26
420.335	6.2
420.541	6.06
420.746	6.35
420.952	6.42
421.158	6.58
421.364	6.48
421.57	6.24
421.776	6.08
421.982	5.83
422.187	5.75
422.393	5.59
422.599	5.71
422.805	5.66
423.01	5.42
423.216	5.39
423.422	5.16
423.628	5.11
423.833	5.31
424.039	5.36
424.245	5.5
424.45	5.62
424.656	5.47
424.862	5.36
425.067	5.41
425.273	5.54
425.478	5.69
425.684	5.84
425.889	5.89
426.095	5.61
426.301	5.64
426.506	5.7
426.712	5.64
426.917	6.01
427.123	6.06
427.328	5.93
427.533	5.74
427.739	5.54
427.944	5.57
428.15	5.6
428.355	5.96
428.561	6.01
428.766	5.77
428.971	5.78
429.177	5.57
429.382	5.52
429.587	5.7
429.793	5.47
429.998	5.52
430.203	5.69
430.408	5.43
430.614	5.25
430.819	5.34
431.024	5.26
431.229	5.29
431.434	5.36
431.64	5.07
431.845	5.02
432.05	5.4
432.255	5.28
432.46	4.91
432.665	5.05
432.87	4.99
433.076	4.93
433.281	4.92
433.486	4.82
433.691	4.68
433.896	4.75
434.101	4.82
434.306	4.87
434.511	4.91
434.716	5.14
434.921	5.07
435.126	5.03
435.331	4.78
435.535	5.01
435.74	5.24
435.945	5.36
436.15	5.6
436.355	5.62
436.56	5.49
436.765	5.5
436.97	5.47
437.174	5.6
437.379	5.7
437.584	5.76
437.789	5.55
437.993	5.44
438.198	5.46
438.403	5.5
438.608	5.55
438.812	5.63
439.017	5.61
439.222	5.74
439.426	5.76
439.631	5.68
439.836	5.79
440.04	5.97
440.245	5.96
440.45	5.93
440.654	5.9
440.859	5.82
441.063	5.57
441.268	5.61
441.472	5.41
441.677	5.36
441.881	5.23
442.086	5.2
442.29	5.13
442.495	5.04
442.699	4.91
442.904	4.85
443.108	4.83
443.312	4.79
443.517	4.78
443.721	4.95
443.925	4.89
444.13	5.03
444.334	5.21
444.538	5.3
444.743	5.39
444.947	5.4
445.151	5.4
445.356	5.45
445.56	5.5
445.764	5.5
445.968	5.41
446.173	5.47
446.377	5.51
446.581	5.29
446.785	5.31
446.989	5.42
447.193	5.45
447.398	5.48
447.602	5.52
447.806	5.6
448.01	5.57
448.214	5.54
448.418	5.56
448.622	5.67
448.826	5.73
449.03	5.65
449.234	5.43
449.438	5.44
449.642	5.43
449.846	5.17
450.05	5.01
450.254	5.05
450.458	5.09
450.662	5.04
450.866	4.85
451.069	4.98
451.273	5.01
451.477	5.14
451.681	5.17
451.885	5.04
452.089	4.97
452.292	5.01
452.496	5.15
452.7	5.2
452.904	5.29
453.107	5.31
453.311	5.11
453.515	4.88
453.719	4.87
453.922	4.75
454.126	4.92
454.33	5.09
454.533	5.1
454.737	4.95
454.94	4.75
455.144	4.58
455.348	4.55
455.551	4.76
455.755	4.99
455.958	4.88
456.162	4.8
456.365	4.63
456.569	4.59
456.772	4.66
456.976	4.5
457.179	4.54
457.383	4.6
457.586	4.61
457.79	4.58
457.993	4.44
458.196	4.4
458.4	4.59
458.603	4.7
458.807	4.74
459.01	4.71
459.213	4.81
459.417	4.82
459.62	4.87
459.823	4.79
460.026	4.79
460.23	4.85
460.433	4.91
460.636	4.76
460.839	4.76
461.042	4.75
461.246	4.73
461.449	4.79
461.652	4.77
461.855	4.67
462.058	4.74
462.261	4.68
462.464	4.7
462.668	4.78
462.871	4.91
463.074	4.92
463.277	4.99
463.48	5.02
463.683	5.13
463.886	5.26
464.089	5.17
464.292	5.18
464.495	5.16
464.698	5.29
464.901	5.36
465.104	5.19
465.306	5.05
465.509	5
465.712	5
465.915	4.85
466.118	5.26
466.321	5.31
466.524	5.41
466.726	5.63
466.929	5.5
467.132	5.2
467.335	5.53
467.538	5.61
467.74	5.68
467.943	5.67
468.146	5.76
468.348	5.4
468.551	5.6
468.754	5.61
468.956	5.36
469.159	5.23
469.362	5.31
469.564	5.11
469.767	5.09
469.969	5.15
470.172	5.3
470.375	5.11
470.577	5.01
470.78	4.81
470.982	4.85
471.185	5.02
471.387	5.08
471.59	5.23
471.792	5.4
471.995	5.44
472.197	5.34
472.399	5.29
472.602	5.3
472.804	5.4
473.007	5.44
473.209	5.38
473.411	5.3
473.614	5.34
473.816	5.43
474.018	5.29
474.22	5.19
474.423	5.14
474.625	5.19
474.827	5.27
475.03	5.14
475.232	5.15
475.434	5.16
475.636	5.29
475.838	5.22
476.04	5.16
476.243	5.2
476.445	5.3
476.647	5.2
476.849	5.21
477.051	5.09
477.253	5.14
477.455	5.29
477.657	5.22
477.859	5.16
478.061	5.21
478.263	5.27
478.465	5.11
478.667	5.08
478.869	5.25
479.071	5.18
479.273	5.26
479.475	5.21
479.677	5.05
479.879	5.17
480.081	5.12
480.283	5.15
480.485	5.18
480.686	5.24
480.888	5.08
481.09	4.91
481.292	4.98
481.494	4.93
481.695	4.81
481.897	4.9
482.099	4.9
482.301	4.9
482.502	4.92
482.704	4.82
482.906	4.89
483.107	4.98
483.309	5.05
483.511	5.08
483.712	5.16
483.914	5.2
484.115	5.22
484.317	5.23
484.519	5.25
484.72	5.21
484.922	5.24
485.123	5.26
485.325	5.3
485.526	5.31
485.728	5.33
485.929	5.35
486.131	5.41
486.332	5.32
486.534	5.3
486.735	5.34
486.936	5.4
487.138	5.43
487.339	5.44
487.541	5.4
487.742	5.34
487.943	5.27
488.144	5.26
488.346	5.28
488.547	5.38
488.748	5.39
488.95	5.28
489.151	5.27
489.352	5.27
489.553	5.2
489.755	5.25
489.956	5.23
490.157	5.24
490.358	5.17
490.559	5.11
490.76	5.06
490.961	5.05
491.163	5.16
491.364	5.16
491.565	5.06
491.766	5.12
491.967	5.01
492.168	5.11
492.369	5.14
492.57	5.11
492.771	5.15
492.972	5.1
493.173	5.07
493.374	5.02
493.575	4.94
493.776	5.03
493.976	4.96
494.177	5.08
494.378	4.98
494.579	4.87
494.78	4.89
494.981	4.97
495.182	4.95
495.382	5.07
495.583	5.13
495.784	5.23
495.985	5.26
496.185	5.28
496.386	5.04
496.587	5.12
496.788	5.09
496.988	5.26
497.189	5.13
497.39	5.21
497.59	5.14
497.791	5.11
497.992	5.26
498.192	5.27
498.393	5.27
498.593	5.47
498.794	5.52
498.994	5.73
499.195	5.6
499.395	5.71
499.596	5.64
499.796	5.66
499.997	5.8
500.197	5.48
500.398	5.56
500.598	5.64
500.799	5.58
500.999	5.55
501.199	5.65
501.4	5.52
501.6	5.61
501.801	5.63
502.001	5.7
502.201	5.6
502.402	5.87
502.602	5.78
502.802	5.79
503.002	5.99
503.203	6.1
503.403	5.93
503.603	5.98
503.803	5.96
504.003	6
504.204	6.02
504.404	6.01
504.604	5.92
504.804	6
505.004	5.97
505.204	5.91
505.404	5.81
505.604	5.71
505.804	6.03
506.005	6.06
506.205	6.13
506.405	6.21
506.605	6.4
506.805	6.38
507.005	6.33
507.204	6.42
507.404	6.3
507.604	6.42
507.804	6.59
508.004	6.47
508.204	6.51
508.404	6.53
508.604	6.45
508.804	6.38
509.003	6.61
509.203	6.71
509.403	6.64
509.603	6.84
509.803	6.93
510.002	7.03
510.202	7.15
510.402	7.35
510.602	7.47
510.801	7.62
511.001	7.72
511.201	7.62
511.4	7.7
511.6	8.03
511.8	8.01
511.999	7.75
512.199	7.65
512.398	7.73
512.598	7.66
512.797	7.62
512.997	7.51
513.197	7.5
513.396	7.73
513.596	7.76
513.795	7.6
513.994	7.68
514.194	8.09
514.393	8.28
514.593	8.31
514.792	8.15
514.992	8.34
515.191	8.56
515.39	8.68
515.59	8.81
515.789	8.86
515.988	8.89
516.188	8.91
516.387	8.83
516.586	8.93
516.786	8.86
516.985	9.14
517.184	9.09
517.383	9.12
517.582	9.17
517.782	9.08
517.981	9.12
518.18	9.22
518.379	9.27
518.578	9.43
518.777	9.41
518.976	9.56
519.176	9.56
519.375	9.66
519.574	9.74
519.773	9.74
519.972	9.74
520.171	9.8
520.37	9.81
520.569	9.77
520.768	9.77
520.967	9.79
521.166	9.71
521.365	9.78
521.564	9.72
521.762	9.73
521.961	9.77
522.16	9.88
522.359	10.07
522.558	10.2
522.757	10.38
522.956	10.39
523.154	10.53
523.353	10.74
523.552	10.71
523.751	10.96
523.949	11.12
524.148	11.26
524.347	11.3
524.546	11.34
524.744	11.35
524.943	11.43
525.142	11.55
525.34	11.66
525.539	11.75
525.737	11.91
525.936	11.8
526.135	11.69
526.333	11.77
526.532	11.87
526.73	11.84
526.929	11.96
527.127	11.98
527.326	12.05
527.524	12.05
527.723	12.12
527.921	12.17
528.12	12.29
528.318	12.39
528.516	12.44
528.715	12.48
528.913	12.54
529.112	12.6
529.31	12.68
529.508	12.69
529.707	12.75
529.905	12.77
530.103	12.73
530.301	12.76
530.5	12.87
530.698	12.91
530.896	12.87
531.094	13
531.293	13
531.491	12.95
531.689	12.93
531.887	13.03
532.085	13.06
532.283	13.16
532.481	13.29
532.68	13.31
532.878	13.41
533.076	13.66
533.274	13.67
533.472	13.7
533.67	13.81
533.868	13.98
534.066	14.03
534.264	14.14
534.462	14.21
534.66	14.26
534.858	14.28
535.056	14.32
535.253	14.38
535.451	14.42
535.649	14.66
535.847	14.74
536.045	14.81
536.243	14.89
536.441	14.96
536.638	15.07
536.836	15.04
537.034	15.2
537.232	15.35
537.43	15.37
537.627	15.44
537.825	15.39
538.023	15.63
538.22	15.73
538.418	15.79
538.616	15.83
538.813	15.84
539.011	15.91
539.209	15.84
539.406	15.85
539.604	16.06
539.801	16.14
539.999	16.22
540.196	16.12
540.394	16.22
540.591	16.33
540.789	16.43
540.986	16.57
541.184	16.76
541.381	16.9
541.579	16.92
541.776	16.93
541.974	17.01
542.171	17.08
542.368	17.21
542.566	17.21
542.763	17.25
542.96	17.29
543.158	17.27
543.355	17.28
543.552	17.32
543.75	17.46
543.947	17.43
544.144	17.5
544.341	17.5
544.539	17.56
544.736	17.66
544.933	17.7
545.13	17.92
545.327	18.07
545.524	18.13
545.722	18.23
545.919	18.26
546.116	18.51
546.313	18.53
546.51	18.67
546.707	18.8
546.904	18.98
547.101	19.06
547.298	18.91
547.495	19.07
547.692	19.2
547.889	19.17
548.086	19.24
548.283	19.27
548.48	19.4
548.677	19.49
548.874	19.59
549.07	19.48
549.267	19.66
549.464	19.91
549.661	19.95
549.858	20.04
550.055	20.11
550.251	20.27
550.448	20.53
550.645	20.68
550.842	20.78
551.038	20.81
551.235	21.11
551.432	21.17
551.628	21.34
551.825	21.49
552.022	21.56
552.218	21.8
552.415	21.84
552.612	21.61
552.808	21.63
553.005	21.71
553.201	22
553.398	22.07
553.594	22.12
553.791	22.06
553.987	22.09
554.184	22.16
554.38	22.21
554.577	22.25
554.773	22.34
554.97	22.38
555.166	22.3
555.362	22.24
555.559	22.33
555.755	22.29
555.952	22.48
556.148	22.71
556.344	22.71
556.541	22.79
556.737	22.78
556.933	22.77
557.129	22.97
557.326	23.15
557.522	23.2
557.718	23.14
557.914	23.56
558.11	23.34
558.307	23.31
558.503	23.4
558.699	23.52
558.895	23.89
559.091	24.22
559.287	24.15
559.483	24.2
559.679	24.33
559.876	24.59
560.072	24.39
560.268	24.57
560.464	24.6
560.66	24.77
560.856	24.69
561.052	24.72
561.247	24.89
561.443	24.93
561.639	25.39
561.835	25.38
562.031	25.39
562.227	25.59
562.423	25.86
562.619	26.03
562.815	26.24
563.01	26.53
563.206	26.57
563.402	26.54
563.598	26.61
563.793	26.36
563.989	26.4
564.185	26.5
564.381	26.58
564.576	26.77
564.772	26.75
564.968	26.77
565.163	26.84
565.359	26.91
565.555	27.05
565.75	27.14
565.946	27.33
566.141	27.38
566.337	27.43
566.532	27.46
566.728	27.38
566.923	27.47
567.119	27.37
567.314	27.58
567.51	27.69
567.705	27.74
567.901	27.99
568.096	28.09
568.292	28.2
568.487	28.34
568.682	28.48
568.878	28.65
569.073	28.74
569.268	28.85
569.464	28.82
569.659	28.7
569.854	28.68
570.05	28.6
570.245	28.64
570.44	28.59
570.635	28.51
570.831	28.71
571.026	28.89
571.221	29.01
571.416	29.13
571.611	29.24
571.806	29.34
572.002	29.54
572.197	29.66
572.392	29.82
572.587	29.87
572.782	29.9
572.977	29.84
573.172	29.63
573.367	29.6
573.562	29.61
573.757	29.61
573.952	29.77
574.147	29.54
574.342	29.59
574.537	29.56
574.732	29.78
574.927	29.9
575.121	29.8
575.316	29.97
575.511	30.08
575.706	29.99
575.901	29.89
576.096	29.64
576.29	29.81
576.485	29.82
576.68	29.77
576.875	29.64
577.069	29.58
577.264	29.77
577.459	29.54
577.654	29.67
577.848	29.95
578.043	30.22
578.238	30.57
578.432	30.59
578.627	30.82
578.821	30.84
579.016	31.04
579.21	31.18
579.405	31.28
579.6	31.62
579.794	31.73
579.989	31.69
580.183	31.62
580.378	31.55
580.572	31.39
580.766	31.4
580.961	31.41
581.155	31.31
581.35	31.28
581.544	31.13
581.738	31.19
581.933	30.89
582.127	31.12
582.321	31.16
582.516	31.35
582.71	31.61
582.904	31.52
583.099	31.82
583.293	31.89
583.487	32.03
583.681	32.2
583.875	32.3
584.07	32.38
584.264	32.31
584.458	32.55
584.652	32.42
584.846	32.4
585.04	32.38
585.234	32.03
585.428	32.27
585.623	32.2
585.817	31.96
586.011	31.71
586.205	31.75
586.399	31.73
586.593	31.54
586.787	31.79
586.981	32
587.174	31.98
587.368	32.42
587.562	32.3
587.756	32.39
587.95	32.54
588.144	32.63
588.338	32.65
588.532	32.84
588.725	32.92
588.919	32.99
589.113	32.84
589.307	33.04
589.501	32.9
589.694	32.85
589.888	33.03
590.082	33.07
590.275	33.28
590.469	33.45
590.663	33.32
590.856	33.27
591.05	33.2
591.244	33.31
591.437	33.52
591.631	33.48
591.824	33.73
592.018	33.64
592.212	33.74
592.405	33.56
592.599	33.49
592.792	33.48
592.986	33.69
593.179	33.54
593.372	33.68
593.566	33.4
593.759	33.61
593.953	33.39
594.146	33.54
594.339	33.51
594.533	33.79
594.726	33.77
594.92	33.79
595.113	33.53
595.306	33.4
595.499	33.39
595.693	33.42
595.886	33.11
596.079	33.29
596.272	33.28
596.466	33.24
596.659	33.07
596.852	33.18
597.045	33.26
597.238	33.4
597.431	33.41
597.624	33.57
597.818	33.67
598.011	33.79
598.204	33.73
598.397	33.66
598.59	33.89
598.783	34.03
598.976	34.04
599.169	33.84
599.362	33.83
599.555	33.91
599.748	33.71
599.941	33.78
600.134	34.07
600.326	34.24
600.519	34.48
600.712	34.27
600.905	34.2
601.098	34.14
601.291	34.05
601.483	34.12
601.676	34.53
601.869	34.41
602.062	34.37
602.255	34.21
602.447	34.29
602.64	34.13
602.833	34.12
603.025	34.15
603.218	34.27
603.411	34.63
603.603	34.73
603.796	34.68
603.989	34.82
604.181	34.84
604.374	34.74
604.566	34.56
604.759	34.57
604.951	34.68
605.144	34.85
605.336	34.73
605.529	34.84
605.721	34.89
605.914	34.82
606.106	34.76
606.299	34.84
606.491	35.18
606.683	35.43
606.876	35.35
607.068	35.38
607.26	35.48
607.453	35.54
607.645	35.31
607.837	35.08
608.03	35.35
608.222	35.44
608.414	35.5
608.606	35.38
608.799	35.45
608.991	35.85
609.183	35.84
609.375	35.87
609.567	36.16
609.759	36.18
609.952	36.41
610.144	36.26
610.336	36.38
610.528	36.39
610.72	36.47
610.912	36.58
611.104	36.37
611.296	36.62
611.488	36.45
611.68	36.38
611.872	36.49
612.064	36.38
612.256	36.53
612.448	36.46
612.64	36.32
612.832	36.21
613.023	35.84
613.215	35.8
613.407	35.42
613.599	35.36
613.791	35.24
613.983	35.27
614.174	35.41
614.366	35.27
614.558	35.54
614.75	35.64
614.941	35.56
615.133	35.69
615.325	35.68
615.516	36.05
615.708	36.09
615.9	36.11
616.091	35.88
616.283	35.51
616.475	35.55
616.666	35.27
616.858	35.04
617.049	35.39
617.241	35.33
617.432	35.1
617.624	34.87
617.815	34.97
618.007	35.03
618.198	35.43
618.39	35.41
618.581	35.4
618.773	35.3
618.964	35.4
619.155	35.39
619.347	35.43
619.538	35.88
619.729	35.87
619.921	35.94
620.112	35.78
620.303	35.71
620.494	35.77
620.686	35.9
620.877	36.2
621.068	36.07
621.259	36.09
621.451	36.07
621.642	35.87
621.833	35.98
622.024	35.97
622.215	36.05
622.406	35.86
622.597	36.35
622.788	36.22
622.98	35.79
623.171	35.93
623.362	35.88
623.553	35.97
623.744	35.95
623.935	36.09
624.126	36.17
624.317	35.91
624.508	36.03
624.698	35.74
624.889	35.78
625.08	35.95
625.271	35.77
625.462	35.49
625.653	35.52
625.844	35.41
626.034	35.28
626.225	35.33
626.416	35.25
626.607	35.22
626.798	35.32
626.988	35.28
627.179	35.5
627.37	35.9
627.56	35.8
627.751	35.78
627.942	35.95
628.132	36
628.323	35.76
628.514	36.34
628.704	36.36
628.895	36.26
629.085	36.32
629.276	36.12
629.466	35.89
629.657	36.12
629.847	36.2
630.038	36.18
630.228	36.27
630.419	36.38
630.609	36.1
630.8	36.22
630.99	36.48
631.181	36.41
631.371	36.86
631.561	36.75
631.752	36.76
631.942	36.23
632.132	36.34
632.323	36.52
632.513	36.39
632.703	36.24
632.893	35.94
633.084	35.58
633.274	35.51
633.464	34.95
633.654	34.81
633.844	34.67
634.034	34.77
634.225	34.63
634.415	34.21
634.605	34.28
634.795	34.58
634.985	34.53
635.175	34.38
635.365	34.36
635.555	34.5
635.745	34.62
635.935	34.65
636.125	34.96
636.315	35.1
636.505	35.48
636.695	35.41
636.885	35.24
637.075	35.36
637.265	35.67
637.455	35.37
637.644	35.47
637.834	35.63
638.024	35.82
638.214	35.67
638.404	35.92
638.593	35.7
638.783	35.93
638.973	36.06
639.163	36.33
639.352	36.5
639.542	37.09
639.732	36.9
639.921	37.1
640.111	36.96
640.301	37.04
640.49	36.73
640.68	36.83
640.87	37.1
641.059	37.3
641.249	37.21
641.438	37.28
641.628	37.36
641.817	37.33
642.007	37.18
642.196	37.43
642.386	37.63
642.575	37.6
642.764	37.64
642.954	37.15
643.143	36.51
643.333	36.71
643.522	36.32
643.711	36.08
643.901	36.07
644.09	36.16
644.279	36.2
644.469	36.41
644.658	36.45
644.847	36.13
645.036	36.17
645.226	36.39
645.415	36.36
645.604	36.34
645.793	36.67
645.982	36.66
646.171	36.46
646.361	36.26
646.55	35.85
646.739	35.86
646.928	36.12
647.117	36.42
647.306	36.29
647.495	36.07
647.684	36.16
647.873	36
648.062	36.17
648.251	36.19
648.44	35.85
648.629	36.19
648.818	36.6
649.007	36.16
649.196	35.86
649.384	36.28
649.573	36.39
649.762	36.65
649.951	36.44
650.14	36.13
650.328	36.39
650.517	36.72
650.706	36.68
650.895	36.69
651.083	37.05
651.272	37.29
651.461	37.4
651.65	37.45
651.838	37.18
652.027	37.15
652.216	37.55
652.404	37.44
652.593	37.75
652.781	37.44
652.97	37.04
653.158	36.97
653.347	36.62
653.535	36.51
653.724	36.39
653.912	36.57
654.101	36.59
654.289	36.93
654.478	37.06
654.666	36.52
654.855	36.53
655.043	36.79
655.231	37.15
655.42	36.98
655.608	36.77
655.796	36.44
655.985	36.4
656.173	36.53
656.361	36.25
656.55	36.18
656.738	36.51
656.926	36.61
657.114	36.53
657.302	36.47
657.491	36.88
657.679	36.76
657.867	37.26
658.055	37.12
658.243	37.31
658.431	36.99
658.619	36.92
658.807	36.88
658.996	36.73
659.184	36.64
659.372	36.62
659.56	36.93
659.748	36.97
659.936	36.73
660.124	36.76
660.311	36.47
660.499	36.99
660.687	37.27
660.875	37.33
661.063	37.62
661.251	37.74
661.439	37.64
661.627	37.39
661.814	37.68
662.002	37.68
662.19	38.11
662.378	38.1
662.565	37.76
662.753	37.98
662.941	38.17
663.129	38.11
663.316	38.14
663.504	38.05
663.692	38.3
663.879	38.61
664.067	38.73
664.254	38.57
664.442	38.58
664.63	38.66
664.817	38.24
665.005	38.25
665.192	37.97
665.38	37.96
665.567	38.09
665.755	37.78
665.942	37.89
666.13	37.96
666.317	37.95
666.504	38.2
666.692	38.15
666.879	38.06
667.067	38.16
667.254	38.67
667.441	38.36
667.629	38.26
667.816	38.39
668.003	37.71
668.19	37.46
668.378	37.48
668.565	37.5
668.752	37.72
668.939	38
669.127	37.37
669.314	37.03
669.501	37.13
669.688	37.04
669.875	36.87
670.062	37.09
670.249	37.22
670.436	37.23
670.623	36.86
670.81	36.64
670.997	36.57
671.184	36.64
671.371	37.04
671.558	36.71
671.745	37
671.932	36.5
672.119	36.11
672.306	36.73
672.493	36.55
672.68	37.02
672.867	37.39
673.054	36.87
673.24	36.73
673.427	36.4
673.614	36.72
673.801	36.56
673.988	37.36
674.174	37.8
674.361	37.49
674.548	37.71
674.734	37.94
674.921	37.51
675.108	37.53
675.294	38.26
675.481	38.49
675.668	38.4
675.854	38.27
676.041	38.07
676.227	38.1
676.414	38.03
676.601	37.71
676.787	37.56
676.974	37.68
677.16	38.07
677.347	37.82
677.533	37.55
677.719	37.66
677.906	37.81
678.092	37.73
678.279	37.5
678.465	37.46
678.651	37.95
678.838	37.69
679.024	38.07
679.21	38
679.397	38.13
679.583	38.14
679.769	38.12
679.955	38.33
680.142	38.59
680.328	38.61
680.514	38.03
680.7	37.81
680.886	37.92
681.073	37.99
681.259	38.06
681.445	38.09
681.631	38.31
681.817	38.42
682.003	38.6
682.189	38.45
682.375	38.75
682.561	39.64
682.747	39.89
682.933	39.86
683.119	39.24
683.305	39.06
683.491	39.04
683.677	39.4
683.863	39.5
684.049	39.28
684.235	39.19
684.42	39.14
684.606	38.76
684.792	38.23
684.978	38.04
685.164	38.35
685.349	38.75
685.535	38.93
685.721	38.54
685.907	38.56
686.092	38.66
686.278	38.88
686.464	38.86
686.649	38.9
686.835	38.73
687.021	39.01
687.206	38.88
687.392	38.2
687.577	37.96
687.763	38.19
687.948	37.73
688.134	37.49
688.319	37.2
688.505	36.88
688.69	37.08
688.876	37.86
689.061	37.69
689.247	37.95
689.432	38.81
689.618	39
689.803	38.64
689.988	39.1
690.174	39.33
690.359	39.71
690.544	40.22
690.73	40.14
690.915	39.45
691.1	39.51
691.285	38.62
691.471	38.17
691.656	37.94
691.841	38.34
692.026	38.2
692.211	37.64
692.396	37.44
692.582	37.4
692.767	37.37
692.952	37.53
693.137	38.38
693.322	39.02
693.507	38.57
693.692	38.37
693.877	38.19
694.062	38.03
694.247	38.57
694.432	38.75
694.617	38.84
694.802	38.61
694.987	38.98
695.172	38.67
695.357	38.28
695.541	38.33
695.726	38.47
695.911	38.37
696.096	39.07
696.281	39.21
696.466	39.03
696.65	38.57
696.835	39.02
697.02	38.65
697.204	38.55
697.389	39.37
697.574	40
697.759	40.25
697.943	39.65
698.128	39.12
698.312	39.36
698.497	39.53
698.682	39.81
698.866	39.68
699.051	39.52
699.235	39.48
699.42	39.09
699.604	38.47
699.789	38.3
699.973	38.66
700.158	39.01
700.342	38.82
700.527	38.49
700.711	38.28
700.895	38.62
701.08	38.83
701.264	38.64
701.448	38.62
701.633	39.25
701.817	39.22
702.001	39.22
702.186	39.17
702.37	38.43
702.554	38.92
702.738	39.52
702.923	39.14
703.107	39.33
703.291	39.32
703.475	39.79
703.659	39.46
703.843	39.63
704.027	39.71
704.212	38.93
704.396	39.26
704.58	38.69
704.764	38.02
704.948	38.06
705.132	38.54
705.316	38.77
705.5	38.86
705.684	39.43
705.868	39.85
706.052	39.82
706.235	40.92
706.419	41.45
706.603	41.42
706.787	41.45
706.971	40.91
707.155	40.67
707.339	40.22
707.522	39.6
707.706	39.28
707.89	38.37
708.074	38.77
708.257	37.82
708.441	37.48
708.625	37.63
708.808	37.83
708.992	38.11
709.176	38.15
709.359	38.34
709.543	38.57
709.727	38.33
709.91	38.44
710.094	38.43
710.277	38.78
710.461	38.9
710.644	39.33
710.828	38.56
711.011	38.45
711.195	38.65
711.378	38.54
711.562	38.1
711.745	38.85
711.928	38.77
712.112	38.97
712.295	39.44
712.478	39.35
712.662	38.94
712.845	39.63
713.028	39.88
713.212	39.03
713.395	39.38
713.578	40.38
713.761	39.66
713.945	39.89
714.128	39.7
714.311	39.12
714.494	39.67
714.677	39.8
714.86	39.26
715.043	39.32
715.227	39.47
715.41	38.73
715.593	38.43
715.776	38.79
715.959	38.4
716.142	38.13
716.325	38.13
716.508	37.97
716.691	37.97
716.874	38.05
717.057	37.54
717.239	38.07
717.422	38.29
717.605	38.02
717.788	37.64
717.971	38.48
718.154	38.32
718.337	38.21
718.519	37.41
718.702	36.9
718.885	37.02
719.068	37.39
719.25	37.19
719.433	37.72
719.616	37.84
719.798	37.87
719.981	38.07
720.164	38.02
720.346	38.25
720.529	39.29
720.712	40.42
720.894	41.47
721.077	41.94
721.259	41.54
721.442	42.28
721.624	42.12
721.807	42.39
721.989	41.24
722.172	41.23
722.354	41.45
722.537	40.9
722.719	40.42
722.901	39.79
723.084	39.38
723.266	39.79
723.448	39.8
723.631	38.77
723.813	37.78
723.995	38.77
724.178	39.22
724.36	38.61
724.542	38.2
724.724	38.02
724.907	37.53
725.089	37.62
725.271	36.77
725.453	36.36
725.635	38.14
725.817	39.03
725.999	37.8
726.181	38.65
726.364	38.75
726.546	39.06
726.728	38.54
726.91	39.56
727.092	39.4
727.274	39.73
727.456	39.76
727.638	39.18
727.819	39
728.001	39.91
728.183	39.55
728.365	39.38
728.547	40.01
728.729	40.8
728.911	39.96
729.093	40.08
729.274	39.87
729.456	39.69
729.638	39.66
729.82	39.54
730.001	38.7
730.183	38.19
730.365	38.33
730.546	37.98
730.728	38.13
730.91	38.58
731.091	38.43
731.273	38.53
731.455	38.08
731.636	37.54
731.818	37.79
731.999	37.52
732.181	38.66
732.362	38.71
732.544	38.75
732.725	38.32
732.907	37.74
733.088	37.56
733.27	37.88
733.451	37.96
733.633	38.41
733.814	38.54
733.995	39.22
734.177	37.66
734.358	38.39
734.539	38.14
734.721	38.35
734.902	38.45
735.083	38.62
735.264	38.29
735.446	38.32
735.627	38.27
735.808	38.37
735.989	38.35
736.17	38.69
736.351	38.34
736.533	38.7
736.714	38.88
736.895	38.8
737.076	38.64
737.257	38.56
737.438	38.79
737.619	38.86
737.8	38.25
737.981	38.58
738.162	38.86
738.343	38.94
738.524	37.98
738.705	37.16
738.886	37.12
739.067	36.79
739.247	37.67
739.428	37.87
739.609	38.05
739.79	38.07
739.971	38.22
740.151	38.07
740.332	37.4
740.513	37.65
740.694	37.09
740.874	37.35
741.055	37.11
741.236	36.69
741.417	36.63
741.597	36.76
741.778	37.35
741.958	38.92
742.139	38.61
742.32	38.91
742.5	40.37
742.681	41.2
742.861	41.61
743.042	43.07
743.222	41.7
743.403	41.28
743.583	41.93
743.764	41.97
743.944	40.8
744.124	40.88
744.305	41.24
744.485	39.64
744.666	40.38
744.846	39.09
745.026	38.02
745.207	40.25
745.387	40.44
745.567	38.99
745.747	38.5
745.928	37.69
746.108	37.7
746.288	37.46
746.468	38.24
746.648	38.08
746.829	39.14
747.009	38.72
747.189	38.49
747.369	37.46
747.549	37.25
747.729	37.5
747.909	38.25
748.089	38.78
748.269	40.11
748.449	40.05
748.629	40.66
748.809	40.61
748.989	40.27
749.169	40.88
749.349	41.43
749.529	41.8
749.709	42.1
749.889	41.6
750.068	41.16
750.248	40.25
750.428	39.63
750.608	38.79
750.788	39.03
750.967	40.9
751.147	39.6
751.327	39.38
751.507	39.79
751.686	39.16
751.866	39.05
752.046	38.83
752.225	39.52
752.405	40.04
752.585	39.7
752.764	39.02
752.944	38.94
753.123	38.54
753.303	38.96
753.482	38.01
753.662	38.19
753.841	38.07
754.021	38.07
754.2	37.9
754.38	37.42
754.559	38.2
754.739	38.59
754.918	37.39
755.097	38.57
755.277	37.86
755.456	39.22
755.635	39.56
755.815	39.27
755.994	40.01
756.173	38.91
756.352	40.17
756.532	39.41
756.711	38.77
756.89	38.9
757.069	39.34
757.248	40.26
757.427	39.44
757.607	38.69
757.786	37.88
757.965	38.56
758.144	38.42
758.323	37.78
758.502	37.61
758.681	38.2
758.86	40.09
759.039	38.52
759.218	38.38
759.397	39.13
759.576	40.15
759.755	41.07
759.934	39.42
760.113	40.34
760.291	41.02
760.47	41.27
760.649	40.67
760.828	38.39
761.007	38.91
761.186	39.05
761.364	39.03
761.543	38.08
761.722	38.19
761.901	38.06
762.079	38.39
762.258	38.44
762.437	38.53
762.615	38.37
762.794	38.8
762.972	39.72
763.151	39.5
763.33	39.16
763.508	39.19
763.687	40.05
763.865	40.4
764.044	40.09
764.222	39.24
764.401	38.88
764.579	39.89
764.758	40.05
764.936	39.37
765.114	39.69
765.293	39.99
765.471	40.39
765.65	39.76
765.828	39.23
766.006	38.8
766.184	38.98
766.363	39.41
766.541	38.45
766.719	38.65
766.898	38.29
767.076	39.37
767.254	38.4
767.432	38.03
767.61	37.65
767.788	38.39
767.967	37.92
768.145	38.47
768.323	39.28
768.501	40.26
768.679	40.26
768.857	39.91
769.035	38.12
769.213	38.28
769.391	38.66
769.569	39.87
769.747	40.26
769.925	41.96
770.103	40.3
770.281	39.21
770.459	39.47
770.636	38.57
770.814	39.62
770.992	38.65
771.17	40.99
771.348	41.01
771.525	39.8
771.703	40.66
771.881	38.86
772.059	40.26
772.236	41.28
772.414	41.01
772.592	40.67
772.769	41.62
772.947	41.94
773.125	39.31
773.302	38.17
773.48	38.36
773.657	37.12
773.835	38.48
774.013	36.99
774.19	34.4
774.368	33.78
774.545	34.14
774.723	33.22
774.9	34.88
775.077	35.52
775.255	38.05
775.432	35.94
775.61	36.17
775.787	35.67
775.964	38.17
776.142	40
776.319	38.21
776.496	39.29
776.674	39.03
776.851	38.34
777.028	36.51
777.205	34.83
777.382	37.02
777.56	35.06
777.737	34.46
777.914	32.61
778.091	32.79
778.268	33.86
778.445	31.23
778.622	32.05
778.8	30.68
778.977	32.79
779.154	53.32
779.331	53.09
779.508	53.78
779.685	53.81
779.862	54.28
780.038	54.69
780.215	54.92
780.392	56.95
780.569	56.26
780.746	58.06
780.923	58.66
781.1	35.11
781.277	36.19
781.453	38.31
781.63	37.18
781.807	36.29
781.984	34.62
782.16	35.22
782.337	33.3
782.514	32.58
782.691	34.46
782.867	33.69
783.044	34.3
783.221	34.49
783.397	31.37
783.574	33.29
783.75	33.53
783.927	33.76
784.103	32.16
784.28	34.16
784.456	36
784.633	33.34
784.809	34.17
784.986	35.5
785.162	34.51
785.339	37.34
785.515	35.48
785.692	36.08
785.868	36.36
786.044	36.09
786.221	34.79
786.397	32.13
786.573	30.76
786.749	29.73
786.926	28.65
787.102	27.32
787.278	26.02
787.454	30.13
787.631	30.83
787.807	30.98
787.983	32.84
788.159	33.93
788.335	34.25
788.511	36.62
788.687	37.71
788.863	37.9
789.039	41.45
789.216	42.52
789.392	39.89
789.568	37.69
789.744	36.74
789.919	35.11
790.095	34.91
790.271	36.13
790.447	36.86
790.623	37.17
790.799	38.35
790.975	37.56
791.151	35.18
791.327	36.38
791.502	41.93
791.678	44.13
791.854	46.38
792.03	48.85
792.205	47.59
792.381	45.68
792.557	45.14
792.733	45.66
792.908	45.35
793.084	46.35
793.259	47.56
793.435	43.8
793.611	42.26
793.786	43.43
793.962	42.75
794.137	46.19
794.313	46.31
794.488	44.9
794.664	45.23
794.839	43.46
795.015	42.55
795.19	41.99
795.366	40.03
795.541	39.53
795.716	36.16
795.892	34.41
796.067	30.59
796.242	31.6
796.418	30.01
796.593	26.87
796.768	26.67
796.944	26.82
797.119	24.99
797.294	26.22
797.469	26.68
797.644	30.51
797.82	29.98
797.995	31.7
798.17	32.03
798.345	34.85
798.52	35.9
798.695	38.24
798.87	39.48
799.045	40.35
799.22	42.67
799.395	42.37
799.57	38.9
799.745	39.05
799.92	39.42
800.095	40.66
800.27	39.3
800.445	42.76
800.62	42.3
800.795	41.89
800.97	41.99
801.145	40.26
801.319	42.01
801.494	43.89
801.669	41.9
801.844	39.61
802.018	37.34
802.193	37.19
802.368	35.88
802.543	34.34
802.717	34.23
802.892	33.33
803.067	33.81
803.241	33.44
803.416	32.1
803.59	33.7
803.765	33.53
803.94	35.23
804.114	35.19
804.289	32.27
804.463	31.09
804.638	31.3
804.812	31.88
804.986	28.73
805.161	31.24
805.335	33.51
805.51	35.05
805.684	37.11
805.858	36.41
806.033	38.19
806.207	40.06
806.381	41.74
806.556	43
806.73	40.7
806.904	43.49
807.078	41.93
807.253	41.48
807.427	40.31
807.601	40.06
807.775	39.27
807.949	39.93
808.123	37.94
808.298	36.77
808.472	35.73
808.646	38.5
808.82	38.53
808.994	37.2
809.168	35.06
809.342	35.82
809.516	34.86
809.69	34.01
809.864	34.52
810.038	33.27
810.212	39.73
810.385	40.33
810.559	37.87
810.733	38.39
810.907	36.93
811.081	39.7
811.255	36.83
811.428	35.82
811.602	36.02
811.776	33.82
811.95	33.47
812.123	27.16
812.297	25.79
812.471	26.56
812.644	26.47
812.818	27.92
812.992	24.44
813.165	30.22
813.339	31.64
813.512	32.5
813.686	33.96
813.86	34.39
814.033	33.62
814.207	36.35
814.38	35.64
814.554	37.55
814.727	35.43
814.9	34.79
815.074	34.96
815.247	34.94
815.421	36.72
815.594	33.66
815.767	34.98
815.941	33.27
816.114	34.57
816.287	34.17
816.46	30.7
816.634	33.39
816.807	35.6
816.98	33.44
817.153	34.47
817.327	33.83
817.5	37.12
817.673	38.43
817.846	44.55
818.019	41.54
818.192	41.14
818.365	40.15
818.538	41.8
818.711	42.66
818.884	42.42
819.057	38.23
819.23	36.82
819.403	34.72
819.576	35.01
819.749	32.99
819.922	34.11
820.095	34.24
820.268	34.37
820.441	35.05
820.614	34.42
820.786	35.48
820.959	39.15
821.132	39.9
821.305	39.05
821.477	38.08
821.65	38.01
821.823	37.78
821.996	38.28
822.168	38.61
822.341	38.18
822.514	38.85
822.686	38.42
822.859	37.89
823.031	37.83
823.204	38.53
823.376	38.94
823.549	39.04
823.722	39.02
823.894	39.08
824.067	39.06
824.239	38.5
824.411	38
824.584	37.98
824.756	38.86
824.929	39.56
825.101	39.28
825.273	39.22
825.446	39.06
825.618	38.73
825.79	38.49
825.963	38.37
826.135	40.25
826.307	40.4
826.479	40.82
826.652	39.74
826.824	38.76
826.996	38.58
827.168	38.64
827.34	38.24
827.512	39.11
827.684	39.31
827.856	40.93
828.029	40.59
828.201	40.58
828.373	39.89
828.545	39.93
828.717	39.8
828.889	41.12
829.061	41.42
829.232	41.89
829.404	40.7
829.576	40.06
829.748	39.02
829.92	38.54
830.092	37.42
830.264	37.62
830.436	37.44
830.607	38.93
830.779	37.96
830.951	36.86
831.123	35.26
831.294	37.76
831.466	39.2
831.638	37.05
831.809	36.71
831.981	36.5
832.153	37.19
832.324	38.65
832.496	37.84
832.667	34.86
832.839	34.43
833.011	38.74
833.182	36.86
833.354	39.36
833.525	40.95
833.697	40.29
833.868	41.1
834.039	43.03
834.211	43.21
834.382	42.99
834.554	43.52
834.725	44.13
834.896	42.36
835.068	42.25
835.239	39.99
835.41	38.99
835.581	39.86
835.753	40.81
835.924	39.55
836.095	38.4
836.266	39.72
836.438	40.32
836.609	38.99
836.78	38.56
836.951	37.19
837.122	36.59
837.293	35.7
837.464	33.68
837.635	33.96
837.806	34.42
837.977	35.42
838.148	32.83
838.319	34.78
838.49	34.65
838.661	36.73
838.832	41.33
839.003	43.16
839.174	40.35
839.345	42.89
839.516	39.82
839.687	38.75
839.857	36.92
840.028	32.68
840.199	32.16
840.37	32.32
840.54	31.44
840.711	28.6
840.882	28.17
841.053	29.8
841.223	25.63
841.394	24.7
841.564	26.38
841.735	26.2
841.906	24.06
842.076	20.71
842.247	21.58
842.417	21.57
842.588	21.27
842.758	19.76
842.929	27.3
843.099	25.98
843.27	24.91
843.44	23.63
843.611	23.39
843.781	27.67
843.951	29.18
844.122	32.63
844.292	32.79
844.462	32.79
844.633	32.21
844.803	30.32
844.973	35.55
845.144	48.51
845.314	49.58
845.484	49.98
845.654	43.91
845.824	39.55
845.995	36.18
846.165	38.08
846.335	42.4
846.505	37.61
846.675	29.66
846.845	25.42
847.015	12.62
847.185	14.57
847.355	12.7
847.525	21.58
847.695	23.19
847.865	28.23
848.035	25.17
848.205	18.58
848.375	17.13
848.545	15.22
848.715	13.48
848.884	7.04
849.054	-10.64
849.224	-2.72
849.394	-3.17
849.564	-0.67
849.733	-15.03
849.903	-12.42
850.073	-28.28
850.243	-8.52
850.412	3.19
850.582	15.7
850.752	15.49
850.921	36.14
851.091	25.92
851.26	33.52
851.43	16.56
851.599	30.02
851.769	16.46
851.939	39.24
852.108	22
852.278	20.04
852.447	-14.71
852.616	2.42
852.786	-3.03
852.955	5.11
853.125	5.74
853.294	24.82
853.463	25.83
853.633	25.61
853.802	24.31
853.971	39.24
854.141	39.81
854.31	66.41
854.479	68.59
854.648	58.19
854.818	49.77
854.987	47.74
855.156	42.45
855.325	42.54
855.494	43.49
855.663	41.71
855.832	31.14
856.001	27.87
856.171	26.05
856.34	20.37
856.509	12.2
856.678	15.74
856.847	11.6
857.016	28.42
857.185	31.82
857.353	41.87
857.522	32.06
857.691	29.06
857.86	34.47
858.029	30.84
858.198	29.79
858.367	33.15
858.535	39.67
858.704	52.95
858.873	31.46
859.042	21.73
859.21	12
859.379	28.36
859.548	28.07
859.717	21.07
859.885	16.74
860.054	20.6
860.222	51.51
860.391	36.24
860.56	11.1
860.728	24.9
860.897	40.36
861.065	39.93
861.234	38.81
861.402	46.79
861.571	38.7
861.739	33.36
861.908	31.4
862.076	-0.11
862.244	28.91
862.413	33.92
862.581	25.75
862.749	0.16
862.918	-20.66
863.086	-46.81
863.254	-59.72
863.423	-82.97
863.591	-42.67
863.759	-65.93
863.927	-30.02
864.096	-54.56
864.264	-124.82
864.432	-60.67
864.6	-41.68
864.768	-3.98
864.936	-1.64
865.104	12.16
865.272	11.78
865.44	-0.32
865.608	12.42
865.776	-19.76
865.944	-37.83
866.112	-14.87
866.28	-16.23
866.448	-10.13
866.616	-7.13
866.784	-19.23
866.952	-16.66
867.12	-30.01
867.288	-20.78
867.455	-31.83
867.623	-3.03
867.791	33.57
867.959	21.49
868.127	-12.55
868.294	-19.56
868.462	-24.86
868.63	-4.26
868.797	-9.71
868.965	7.4
869.133	7.53
869.3	9.36
869.468	16.38
869.636	4.11
869.803	19.3
869.971	36.72
870.138	55.14
870.306	60.59
870.473	62.08
870.641	67.65
870.808	82.3
870.975	94.42
871.143	85.72
871.31	64.73
871.478	53.11
871.645	37.3
871.812	30.73
871.98	9.85
872.147	-4.96
872.314	13.63
872.482	16.13
872.649	-8.56
872.816	-3.19
872.983	19.92
873.15	24.32
873.318	16.04
873.485	27.2
873.652	21
873.819	24.08
873.986	23.24
874.153	14.02
874.32	2.02
874.487	3.98
874.654	4.38
874.821	-9.99
874.988	-2.5
875.155	19.12
875.322	11.83
875.489	21.78
875.656	21.79
875.823	26.31
875.99	27.18
876.157	29.73
876.324	38.54
876.49	35.61
876.657	43.98
876.824	31.59
876.991	18.1
877.157	36.73
877.324	42.23
877.491	47.27
877.658	51.16
877.824	62.14
877.991	75.41
878.157	54.67
878.324	60.1
878.491	25.69
878.657	47.72
878.824	61.05
878.99	31.19
879.157	14.73
879.323	9.71
879.49	13.7
879.656	14.03
879.823	7.69
879.989	16.19
880.156	9.55
880.322	23.63
880.488	21.93
880.655	28.56
880.821	35.64
880.987	37.35
881.154	37.56
881.32	45.64
881.486	46.04
881.652	50.62
881.819	46.37
881.985	46.41
882.151	46.14
882.317	50.76
882.483	46.7
882.649	43.64
882.816	43.29
882.982	44.22
883.148	39.07
883.314	37.21
883.48	35.68
883.646	38.22
883.812	36.97
883.978	37
884.144	35.3
884.31	35.22
884.476	35.27
884.642	35.27
884.807	36.04
884.973	35.95
885.139	34.88
885.305	34.35
885.471	32.64
885.637	34.82
885.802	32.82
885.968	33.91
886.134	35.94
886.3	37.7
886.465	36.45
886.631	35.66
886.797	37.65
886.962	39.36
887.128	41.41
887.293	39.97
887.459	39.04
887.625	37.21
887.79	27.53
887.956	24.15
888.121	17.47
888.287	19.42
888.452	13.21
888.618	3.64
888.783	2.04
