Data from CB_038_Reflection_21-41-17-924.txt Node
Date: Wed Nov 11 21:41:17 EST 2015
User: robert
Spectrometer: USB4E03001
Autoset integration time: false
Trigger mode: 4
Integration Time (sec): 1.000000E-1
Scans to average: 15
Electric dark correction enabled: true
Nonlinearity correction enabled: false
Boxcar width: 5
Stray light correction enabled: false
XAxis mode: Wavelengths
Stop averaging: false
Number of Pixels in Spectrum: 3648
>>>>>Begin Spectral Data<<<<<
177.566	258.03
177.785	1697.37
178.005	-215.16
178.225	-232.08
178.445	55.6
178.665	53.32
178.885	365.4
179.105	84.7
179.324	143.32
179.544	145.53
179.764	178.18
179.984	156.41
180.204	130.45
180.423	171.74
180.643	112.37
180.863	91.74
181.083	88.59
181.302	88.89
181.522	69.6
181.742	69.45
181.961	64.82
182.181	61.63
182.401	67.78
182.621	71.95
182.84	62.18
183.06	51.26
183.279	35.66
183.499	48.6
183.719	51.01
183.938	70.84
184.158	64.43
184.377	55.69
184.597	54.26
184.816	54.88
185.036	46.14
185.256	55.15
185.475	75.19
185.695	106.63
185.914	72.16
186.134	104.41
186.353	55.45
186.572	47.89
186.792	49.49
187.011	20.05
187.231	22.48
187.45	11.16
187.67	-19.82
187.889	-9.75
188.108	7.89
188.328	6.27
188.547	-5.12
188.766	0.55
188.986	-4.99
189.205	-0.94
189.424	11.08
189.644	7.59
189.863	28.72
190.082	39.97
190.302	30.4
190.521	22.16
190.74	45.7
190.959	47.05
191.178	47.36
191.398	39.08
191.617	43.7
191.836	38.66
192.055	13.31
192.274	7.79
192.494	2.97
192.713	24.09
192.932	37.34
193.151	24.49
193.37	26.25
193.589	29.42
193.808	23.49
194.027	50.07
194.246	71.47
194.465	97.29
194.685	99.57
194.904	87.16
195.123	73.79
195.342	74.83
195.561	83.65
195.78	86.15
195.999	90.56
196.218	76.18
196.436	53.14
196.655	51.37
196.874	52.19
197.093	53.34
197.312	42.89
197.531	38.51
197.75	34.26
197.969	31.77
198.188	22.84
198.407	12.39
198.625	31.86
198.844	27.81
199.063	23.01
199.282	18.11
199.501	23.73
199.719	43.16
199.938	68.66
200.157	95.05
200.376	85.08
200.594	173.95
200.813	145.9
201.032	152.26
201.251	203.46
201.469	164.08
201.688	139.41
201.907	93.04
202.125	78.4
202.344	60.51
202.563	68.27
202.781	57.39
203	34.49
203.218	10.85
203.437	24.24
203.656	39.26
203.874	25.91
204.093	21.78
204.311	39.3
204.53	18.08
204.748	13.64
204.967	10.88
205.185	0.66
205.404	13.64
205.622	32.74
205.841	24.99
206.059	8.55
206.278	53.69
206.496	69.57
206.715	49.36
206.933	53.22
207.151	53.08
207.37	49.83
207.588	54.89
207.806	44.29
208.025	40.6
208.243	39.67
208.461	43.08
208.68	32.7
208.898	28.49
209.116	21.34
209.335	33.67
209.553	32.02
209.771	31.51
209.989	26.78
210.208	23.14
210.426	31.83
210.644	41.7
210.862	48.45
211.081	39
211.299	41.63
211.517	71.49
211.735	39.3
211.953	57.77
212.171	69.57
212.39	89.39
212.608	95.23
212.826	87.86
213.044	92.47
213.262	77.28
213.48	75.99
213.698	74.35
213.916	83.16
214.134	91.77
214.352	91.87
214.57	70.23
214.788	55.26
215.006	12.56
215.224	12.45
215.442	-18.31
215.66	26.72
215.878	21.13
216.096	31.72
216.314	25.57
216.532	44.88
216.75	48.6
216.968	65.79
217.185	55.96
217.403	62.33
217.621	57.74
217.839	64.97
218.057	53.71
218.275	67.24
218.492	68.3
218.71	62.63
218.928	57.57
219.146	60.08
219.363	46.48
219.581	65.53
219.799	53.42
220.017	63.12
220.234	24.3
220.452	47.3
220.67	49.07
220.887	31.67
221.105	25.1
221.323	-15.2
221.54	-11.95
221.758	22.81
221.976	9.25
222.193	23.23
222.411	12.24
222.629	20.48
222.846	13.36
223.064	-1.39
223.281	11.14
223.499	29.22
223.716	48.55
223.934	46.25
224.151	33.27
224.369	32.19
224.586	24.7
224.804	40.97
225.021	46.3
225.239	58.15
225.456	72.04
225.674	68.82
225.891	58.77
226.108	56.11
226.326	43.25
226.543	53.34
226.76	50.75
226.978	46.37
227.195	34.75
227.413	25.74
227.63	25.41
227.847	18.33
228.064	19.08
228.282	10.88
228.499	10.29
228.716	13.49
228.934	11.76
229.151	8.43
229.368	9.02
229.585	9.86
229.802	9.77
230.02	6.83
230.237	7.42
230.454	5.76
230.671	7.1
230.888	5.98
231.105	4.85
231.323	8.31
231.54	17.22
231.757	16
231.974	14.05
232.191	13.13
232.408	13.08
232.625	11.99
232.842	11.65
233.059	13.48
233.276	15.96
233.493	19.19
233.71	17.07
233.927	13.17
234.144	12.61
234.361	15.74
234.578	17.53
234.795	17.15
235.012	16.15
235.229	15.77
235.446	17.66
235.663	15.27
235.879	10.19
236.096	9.78
236.313	6.07
236.53	8.72
236.747	9.72
236.964	11.43
237.181	12.81
237.397	12.35
237.614	17.31
237.831	16.84
238.048	18.36
238.264	19.97
238.481	18.53
238.698	22.42
238.915	24.41
239.131	22.55
239.348	22.44
239.565	21.19
239.781	21.75
239.998	21.52
240.215	21.67
240.431	18.65
240.648	20.94
240.865	17.15
241.081	18.56
241.298	15.34
241.514	16.14
241.731	17.74
241.947	15.84
242.164	17.9
242.38	16.3
242.597	15.04
242.814	14.63
243.03	14.03
243.246	14.34
243.463	12.84
243.679	14.07
243.896	14.32
244.112	14.11
244.329	16.7
244.545	14.11
244.762	13.89
244.978	15.02
245.194	16.07
245.411	16.58
245.627	17.99
245.843	18.45
246.06	16.32
246.276	14.96
246.492	12.14
246.709	10.97
246.925	11.57
247.141	11.63
247.357	10.77
247.574	10.49
247.79	9.91
248.006	9.99
248.222	9.82
248.439	10.63
248.655	11.11
248.871	11.85
249.087	12.3
249.303	12.1
249.519	11.3
249.736	11.02
249.952	10.91
250.168	12.28
250.384	11.23
250.6	11.1
250.816	10.71
251.032	9.23
251.248	11.28
251.464	9.62
251.68	9.51
251.896	10.5
252.112	11.67
252.328	11.2
252.544	9.3
252.76	10.12
252.976	8.09
253.192	8.74
253.408	8.38
253.624	7.46
253.84	8.68
254.056	9.93
254.272	12.11
254.487	11.3
254.703	12.72
254.919	13.78
255.135	13.02
255.351	14.95
255.567	14.32
255.782	15.74
255.998	13.85
256.214	14.34
256.43	14.17
256.646	12.82
256.861	11.11
257.077	9.95
257.293	9.43
257.508	10.86
257.724	11.3
257.94	11.41
258.155	12.62
258.371	11.87
258.587	12.62
258.802	11.74
259.018	11.39
259.234	11.79
259.449	12.45
259.665	12.48
259.88	11.57
260.096	10.58
260.312	10.21
260.527	10.1
260.743	10.42
260.958	9.86
261.174	9.98
261.389	9.84
261.605	9.59
261.82	9.15
262.036	9.65
262.251	10.33
262.466	11.32
262.682	11.48
262.897	9.98
263.113	10.41
263.328	10.12
263.543	10.24
263.759	8.83
263.974	10.6
264.189	10.24
264.405	10.25
264.62	8.24
264.835	9.23
265.051	9.28
265.266	10.76
265.481	10.21
265.696	11.02
265.912	10.85
266.127	13.14
266.342	13.58
266.557	13.87
266.773	11.78
266.988	12.6
267.203	10.61
267.418	11.8
267.633	12.14
267.848	12.17
268.064	10.35
268.279	11.05
268.494	10.26
268.709	9.62
268.924	10.01
269.139	11.94
269.354	12.42
269.569	12.37
269.784	12.1
269.999	10.95
270.214	10.68
270.429	11.31
270.644	10.23
270.859	9.71
271.074	9.65
271.289	9.24
271.504	8.92
271.719	9.45
271.934	9.29
272.149	8.24
272.363	8.96
272.578	9.55
272.793	10.11
273.008	9.91
273.223	10.48
273.438	9.87
273.653	10.6
273.867	10.09
274.082	9.08
274.297	9.85
274.512	10.4
274.726	8.09
274.941	7.81
275.156	8.26
275.371	8.36
275.585	8.8
275.8	8.48
276.015	7
276.229	8.22
276.444	8.62
276.659	9.61
276.873	9.51
277.088	11.74
277.302	10.47
277.517	9.33
277.732	11
277.946	10.03
278.161	10.59
278.375	11.84
278.59	10.2
278.804	11.01
279.019	9.28
279.233	8.6
279.448	8.51
279.662	9.72
279.877	9.94
280.091	7.99
280.306	8.33
280.52	8.24
280.735	7.78
280.949	7.84
281.163	8.02
281.378	7.96
281.592	8.33
281.806	9.13
282.021	7.56
282.235	6.94
282.449	7.38
282.664	7.22
282.878	6.87
283.092	6.96
283.307	8.07
283.521	6.41
283.735	7.68
283.949	8.2
284.164	7.67
284.378	8.59
284.592	9.04
284.806	9.06
285.02	8.6
285.234	9.09
285.449	9.62
285.663	9.06
285.877	10.19
286.091	10.59
286.305	10.44
286.519	10.11
286.733	10.88
286.947	11.27
287.161	10.93
287.375	11.37
287.589	11.44
287.803	11.16
288.017	10.85
288.231	11.32
288.445	11.01
288.659	10.03
288.873	10.47
289.087	10.56
289.301	10.32
289.515	11.86
289.729	12.29
289.943	12.26
290.157	12.79
290.371	12.89
290.584	12.86
290.798	12.9
291.012	14.47
291.226	14.41
291.44	13.46
291.654	13.55
291.867	12.32
292.081	12.16
292.295	13.27
292.509	11.32
292.722	11.65
292.936	10.32
293.15	10.91
293.364	10.82
293.577	10.29
293.791	10.73
294.005	10.14
294.218	10.65
294.432	11.35
294.645	10.72
294.859	10.65
295.073	10.17
295.286	10.66
295.5	10.37
295.713	9.29
295.927	9.38
296.14	9.81
296.354	10.43
296.568	10.6
296.781	9.64
296.994	9.84
297.208	11.64
297.421	12.2
297.635	12.24
297.848	12.01
298.062	12.38
298.275	12.8
298.489	12.59
298.702	13.23
298.915	13.56
299.129	14.47
299.342	14.17
299.555	13.9
299.769	14.41
299.982	13.9
300.195	14.1
300.409	13.94
300.622	14.44
300.835	14.1
301.048	13.32
301.262	12.83
301.475	12.63
301.688	13.1
301.901	13.07
302.115	12.09
302.328	13.42
302.541	13.15
302.754	13.69
302.967	13.19
303.18	14.79
303.393	14.07
303.607	14.6
303.82	13.89
304.033	12.89
304.246	11.54
304.459	12.33
304.672	11.86
304.885	13.26
305.098	12.33
305.311	12.9
305.524	11.69
305.737	12.5
305.95	12.18
306.163	12.98
306.376	15.09
306.589	17.03
306.802	16.17
307.015	16.6
307.228	14.69
307.44	15.61
307.653	15.76
307.866	15.97
308.079	15.85
308.292	14.54
308.505	14.26
308.718	14.18
308.93	13.56
309.143	13.83
309.356	13.13
309.569	14.39
309.781	14.09
309.994	13.84
310.207	14.14
310.42	14.27
310.632	15.64
310.845	15.99
311.058	15.83
311.27	16.13
311.483	16.14
311.696	16.19
311.908	16.22
312.121	16.18
312.333	16.06
312.546	16.31
312.759	16.22
312.971	15.3
313.184	15.15
313.396	14.84
313.609	15.08
313.821	15.31
314.034	15.76
314.246	15.14
314.459	16.15
314.671	16.47
314.884	16.88
315.096	17.93
315.309	18.44
315.521	18.08
315.733	17.97
315.946	16.88
316.158	16.34
316.371	15.33
316.583	14.47
316.795	14.28
317.008	14.51
317.22	14.31
317.432	14.71
317.644	14.08
317.857	14.61
318.069	13.94
318.281	13.66
318.494	14.39
318.706	16.2
318.918	16.82
319.13	17.17
319.342	16.78
319.555	15.61
319.767	13.86
319.979	14.97
320.191	14.06
320.403	15.59
320.615	16.52
320.827	17.16
321.039	16.12
321.252	15.59
321.464	15.11
321.676	14.88
321.888	16.04
322.1	15.49
322.312	15.13
322.524	17.82
322.736	16.75
322.948	16.01
323.16	15.02
323.372	14.44
323.584	14.75
323.796	14.57
324.007	14.71
324.219	15.2
324.431	15.99
324.643	16.11
324.855	14.75
325.067	15.4
325.279	16.69
325.491	17.83
325.702	18.13
325.914	19.06
326.126	19.14
326.338	17.86
326.55	17.65
326.761	18.3
326.973	18.91
327.185	19.26
327.396	19.64
327.608	19.36
327.82	19.68
328.032	20.36
328.243	20.77
328.455	21.28
328.666	22.66
328.878	22.71
329.09	21.54
329.301	20.09
329.513	19.12
329.725	17.58
329.936	19.07
330.148	18.37
330.359	17.82
330.571	17.11
330.782	17.23
330.994	17.67
331.205	17.41
331.417	18.86
331.628	19.66
331.84	20.69
332.051	21.81
332.262	20.53
332.474	20.41
332.685	22.18
332.897	22.94
333.108	24.54
333.319	25.07
333.531	25.94
333.742	25.64
333.953	25.86
334.165	26.29
334.376	26.59
334.587	27.25
334.799	27.79
335.01	27.27
335.221	26.42
335.432	25.95
335.644	24.54
335.855	24.65
336.066	25.18
336.277	25.63
336.488	25.39
336.7	25.38
336.911	24.56
337.122	24.13
337.333	23.84
337.544	24.33
337.755	23.68
337.966	24.49
338.177	23.84
338.388	23.23
338.599	23.83
338.811	23.76
339.022	22.95
339.233	23.78
339.444	24.01
339.655	24.21
339.866	24.05
340.076	23.71
340.287	24.5
340.498	24.15
340.709	24.83
340.92	24.4
341.131	24.42
341.342	25.56
341.553	25.17
341.764	25.39
341.975	24.96
342.185	24.52
342.396	24.14
342.607	23.64
342.818	23.05
343.029	23.03
343.239	22.78
343.45	22.56
343.661	22
343.872	21.45
344.082	20.95
344.293	21.35
344.504	21.89
344.714	22.02
344.925	21.63
345.136	22.28
345.346	22.2
345.557	22.12
345.768	21.34
345.978	21.75
346.189	22.65
346.399	22.77
346.61	23.13
346.821	23.01
347.031	22.99
347.242	23.29
347.452	23.52
347.663	23.51
347.873	23.69
348.084	24.9
348.294	24.39
348.504	23.5
348.715	23.63
348.925	23.05
349.136	22.57
349.346	22.82
349.557	22.04
349.767	21.85
349.977	21.36
350.188	21.49
350.398	20.88
350.608	20.67
350.819	21.49
351.029	21.02
351.239	20.48
351.449	21.06
351.66	20.24
351.87	20.95
352.08	20.81
352.29	20.97
352.501	21.73
352.711	22.53
352.921	22.6
353.131	22.1
353.341	22.57
353.552	23.63
353.762	22.91
353.972	24.01
354.182	23.09
354.392	23.56
354.602	23.72
354.812	22.44
355.022	22.55
355.232	22.74
355.442	22.86
355.652	22.53
355.862	22.11
356.072	22.38
356.282	21.88
356.492	22.87
356.702	22.32
356.912	21.71
357.122	21.5
357.332	21.34
357.542	21.22
357.752	20.61
357.962	20.68
358.171	20.91
358.381	21.08
358.591	21.18
358.801	20.63
359.011	20.2
359.221	20.84
359.43	21.71
359.64	20.95
359.85	20.88
360.06	21.05
360.269	21.04
360.479	21.03
360.689	20.92
360.899	20.87
361.108	21.12
361.318	21.3
361.528	21.13
361.737	20.45
361.947	20.55
362.156	20.52
362.366	20.47
362.576	20.44
362.785	19.86
362.995	19.92
363.204	19.92
363.414	19.99
363.623	20.17
363.833	19.95
364.042	19.7
364.252	20.21
364.461	20.17
364.671	20.91
364.88	20.98
365.09	21.28
365.299	21.07
365.509	21.1
365.718	20.99
365.927	20.9
366.137	20.92
366.346	21.15
366.555	20.81
366.765	21.18
366.974	20.56
367.183	20.48
367.393	20.56
367.602	20.8
367.811	20.79
368.021	20.47
368.23	20.61
368.439	20.88
368.648	21.47
368.857	21.36
369.067	20.36
369.276	20.63
369.485	20.58
369.694	20.97
369.903	20.87
370.112	20.38
370.321	20.53
370.531	20.43
370.74	20.32
370.949	19.82
371.158	19.2
371.367	19.78
371.576	19.79
371.785	19.24
371.994	18.6
372.203	18.11
372.412	18.64
372.621	18.43
372.83	17.37
373.039	17.32
373.248	17.29
373.457	17.97
373.666	17.75
373.874	17.43
374.083	17.48
374.292	17.08
374.501	17.42
374.71	17.17
374.919	17.22
375.128	18.42
375.336	17.93
375.545	17.6
375.754	17.51
375.963	17.23
376.171	17.04
376.38	16.93
376.589	17.1
376.798	16.73
377.006	16.33
377.215	16.52
377.424	16.46
377.632	16.28
377.841	16.42
378.05	16.16
378.258	16.37
378.467	16.26
378.675	16.63
378.884	16.47
379.093	16.3
379.301	16.34
379.51	15.93
379.718	15.72
379.927	15.91
380.135	15.65
380.344	15.5
380.552	15.27
380.761	15.01
380.969	14.84
381.177	15.23
381.386	15.69
381.594	15.73
381.803	15.49
382.011	15.25
382.219	15.19
382.428	14.97
382.636	15.02
382.845	15.15
383.053	15.38
383.261	14.74
383.469	14.17
383.678	13.56
383.886	13.17
384.094	13.2
384.302	13.38
384.511	13.4
384.719	13.63
384.927	13.65
385.135	13.74
385.343	13.66
385.552	14.21
385.76	14.65
385.968	14.48
386.176	15.06
386.384	14.96
386.592	14.85
386.8	14.86
387.008	15.07
387.216	14.97
387.424	15.17
387.633	14.71
387.841	14.54
388.049	13.88
388.257	14.36
388.465	14.02
388.672	14.33
388.88	14.28
389.088	13.93
389.296	13.32
389.504	13.06
389.712	12.6
389.92	12.77
390.128	12.65
390.336	13.16
390.544	13.25
390.751	13.08
390.959	12.76
391.167	12.43
391.375	12.04
391.583	12.19
391.79	12.16
391.998	12.17
392.206	12.43
392.414	12.44
392.621	11.71
392.829	11.47
393.037	11.56
393.244	11.6
393.452	11.55
393.66	11.93
393.867	11.92
394.075	12.07
394.283	12.08
394.49	11.96
394.698	11.7
394.905	12.2
395.113	11.72
395.32	11.43
395.528	11.22
395.735	11.19
395.943	11.23
396.15	11.39
396.358	11.43
396.565	11.5
396.773	11.32
396.98	11.47
397.188	11.41
397.395	11.51
397.602	11.7
397.81	12.02
398.017	11.73
398.225	11.52
398.432	11.37
398.639	11.24
398.847	11.02
399.054	10.75
399.261	10.66
399.468	10.76
399.676	11.07
399.883	10.81
400.09	10.73
400.297	10.92
400.505	10.82
400.712	10.65
400.919	10.62
401.126	10.41
401.333	10.49
401.54	10.47
401.748	10.4
401.955	10.45
402.162	10.79
402.369	10.58
402.576	10.64
402.783	10.82
402.99	10.65
403.197	10.42
403.404	10.59
403.611	10.55
403.818	10.46
404.025	10.39
404.232	10.31
404.439	10.14
404.646	10.06
404.853	9.87
405.06	9.72
405.267	9.7
405.474	9.64
405.681	9.44
405.887	9.69
406.094	9.83
406.301	9.84
406.508	9.91
406.715	9.84
406.922	10.05
407.128	10.31
407.335	10.18
407.542	9.93
407.749	9.79
407.955	9.72
408.162	9.56
408.369	9.18
408.575	8.86
408.782	8.92
408.989	9.08
409.195	8.86
409.402	8.98
409.609	9.17
409.815	9.55
410.022	9.81
410.228	9.84
410.435	9.69
410.642	9.86
410.848	9.84
411.055	9.84
411.261	9.57
411.468	9.45
411.674	9.35
411.881	9.3
412.087	9.37
412.294	9.38
412.5	9.8
412.706	9.72
412.913	9.36
413.119	9.51
413.326	9.28
413.532	9.57
413.738	9.94
413.945	9.53
414.151	9.73
414.357	9.41
414.564	9.38
414.77	9.01
414.976	9.17
415.182	9.32
415.389	9.15
415.595	9
415.801	8.65
416.007	8.43
416.214	8.28
416.42	8.17
416.626	8.41
416.832	8.37
417.038	8.71
417.244	8.78
417.45	8.77
417.657	8.9
417.863	8.97
418.069	8.98
418.275	9.18
418.481	9.47
418.687	9.49
418.893	9.49
419.099	9.65
419.305	9.35
419.511	9.42
419.717	9.76
419.923	9.62
420.129	9.53
420.335	9.49
420.541	9.4
420.746	9.32
420.952	9.25
421.158	9.05
421.364	8.81
421.57	8.76
421.776	8.69
421.982	8.36
422.187	8.35
422.393	8.31
422.599	8.37
422.805	8.28
423.01	8.39
423.216	8.38
423.422	8.45
423.628	8.58
423.833	8.5
424.039	8.39
424.245	8.67
424.45	8.79
424.656	8.88
424.862	8.91
425.067	9.09
425.273	9.07
425.478	9.04
425.684	9.1
425.889	8.92
426.095	9.14
426.301	9.28
426.506	9.11
426.712	8.96
426.917	8.92
427.123	8.81
427.328	8.64
427.533	8.54
427.739	8.59
427.944	8.35
428.15	8.46
428.355	8.36
428.561	8.23
428.766	8.25
428.971	8.38
429.177	8.43
429.382	8.54
429.587	8.45
429.793	8.46
429.998	8.61
430.203	8.77
430.408	8.79
430.614	9.04
430.819	8.88
431.024	8.89
431.229	8.9
431.434	8.8
431.64	8.95
431.845	9.03
432.05	8.96
432.255	8.93
432.46	9.15
432.665	9.02
432.87	8.95
433.076	9.12
433.281	9.04
433.486	8.86
433.691	8.97
433.896	8.72
434.101	8.54
434.306	8.54
434.511	8.34
434.716	8.2
434.921	8.36
435.126	8.23
435.331	8.16
435.535	8.11
435.74	8.16
435.945	8.02
436.15	8.36
436.355	8.57
436.56	8.73
436.765	8.78
436.97	8.82
437.174	8.67
437.379	8.64
437.584	8.7
437.789	8.77
437.993	9.06
438.198	9.1
438.403	8.94
438.608	8.81
438.812	8.6
439.017	8.77
439.222	8.81
439.426	8.83
439.631	8.76
439.836	8.74
440.04	8.66
440.245	8.39
440.45	8.29
440.654	8.39
440.859	8.43
441.063	8.46
441.268	8.42
441.472	8.36
441.677	8.35
441.881	8.52
442.086	8.47
442.29	8.57
442.495	8.67
442.699	8.82
442.904	8.45
443.108	8.51
443.312	8.53
443.517	8.45
443.721	8.48
443.925	8.52
444.13	8.27
444.334	8.26
444.538	8.2
444.743	8.14
444.947	7.89
445.151	8.16
445.356	8.07
445.56	8.07
445.764	8.21
445.968	8.09
446.173	8.1
446.377	8.16
446.581	8.21
446.785	8.23
446.989	8.2
447.193	8.44
447.398	8.28
447.602	8.21
447.806	8.22
448.01	8.05
448.214	8.12
448.418	8.08
448.622	8.08
448.826	7.99
449.03	8.06
449.234	8.06
449.438	8.06
449.642	8.15
449.846	8.27
450.05	8.36
450.254	8.28
450.458	8.37
450.662	8.51
450.866	8.46
451.069	8.49
451.273	8.32
451.477	8.26
451.681	8.22
451.885	8.11
452.089	7.9
452.292	7.9
452.496	7.92
452.7	7.92
452.904	7.88
453.107	8.2
453.311	8.23
453.515	8.43
453.719	8.64
453.922	8.55
454.126	8.7
454.33	8.88
454.533	8.92
454.737	9.14
454.94	9.18
455.144	8.98
455.348	8.83
455.551	8.86
455.755	8.58
455.958	8.6
456.162	8.74
456.365	8.77
456.569	8.95
456.772	8.91
456.976	8.78
457.179	8.71
457.383	8.9
457.586	8.85
457.79	8.73
457.993	8.59
458.196	8.38
458.4	8.21
458.603	7.98
458.807	7.88
459.01	7.84
459.213	8.05
459.417	7.92
459.62	7.94
459.823	7.91
460.026	7.91
460.23	8.06
460.433	8.1
460.636	8.08
460.839	8.23
461.042	8.23
461.246	8.18
461.449	7.98
461.652	8.09
461.855	7.95
462.058	7.88
462.261	7.87
462.464	7.86
462.668	7.93
462.871	7.96
463.074	7.93
463.277	7.89
463.48	8.04
463.683	8.23
463.886	8.1
464.089	8.35
464.292	8.44
464.495	8.32
464.698	8.35
464.901	8.3
465.104	8.47
465.306	8.43
465.509	8.49
465.712	8.36
465.915	8.15
466.118	8.23
466.321	8.01
466.524	7.95
466.726	8
466.929	8.1
467.132	8.05
467.335	8.03
467.538	8.18
467.74	8.26
467.943	8.16
468.146	8.2
468.348	8.29
468.551	8.39
468.754	8.66
468.956	8.68
469.159	8.64
469.362	8.77
469.564	8.92
469.767	8.75
469.969	8.81
470.172	8.91
470.375	8.96
470.577	8.86
470.78	8.81
470.982	8.55
471.185	8.69
471.387	8.56
471.59	8.54
471.792	8.35
471.995	8.33
472.197	8.3
472.399	8.35
472.602	8.32
472.804	8.45
473.007	8.6
473.209	8.59
473.411	8.52
473.614	8.37
473.816	8.22
474.018	8.4
474.22	8.41
474.423	8.29
474.625	8.13
474.827	8.54
475.03	8.42
475.232	8.23
475.434	8.24
475.636	8.12
475.838	8.3
476.04	8.31
476.243	8.02
476.445	7.87
476.647	8
476.849	8.26
477.051	7.92
477.253	7.79
477.455	7.78
477.657	7.78
477.859	7.91
478.061	7.92
478.263	7.83
478.465	8.01
478.667	8.1
478.869	7.98
479.071	7.8
479.273	7.86
479.475	7.92
479.677	7.98
479.879	8.08
480.081	8.11
480.283	7.96
480.485	8.2
480.686	8.02
480.888	8.19
481.09	8.21
481.292	8.32
481.494	8.22
481.695	8.21
481.897	8.23
482.099	8.25
482.301	8.15
482.502	8.24
482.704	8.16
482.906	8.16
483.107	8.18
483.309	8.1
483.511	8.03
483.712	8
483.914	7.99
484.115	7.93
484.317	7.83
484.519	7.87
484.72	7.88
484.922	7.81
485.123	7.87
485.325	7.75
485.526	7.76
485.728	7.75
485.929	7.8
486.131	7.79
486.332	7.86
486.534	7.9
486.735	7.85
486.936	7.76
487.138	7.81
487.339	7.71
487.541	7.76
487.742	7.74
487.943	7.76
488.144	7.68
488.346	7.66
488.547	7.62
488.748	7.62
488.95	7.61
489.151	7.61
489.352	7.59
489.553	7.59
489.755	7.52
489.956	7.56
490.157	7.55
490.358	7.65
490.559	7.66
490.76	7.63
490.961	7.63
491.163	7.75
491.364	7.75
491.565	7.82
491.766	7.89
491.967	8.01
492.168	8.02
492.369	7.97
492.57	7.88
492.771	7.9
492.972	7.84
493.173	7.84
493.374	7.69
493.575	7.74
493.776	7.64
493.976	7.52
494.177	7.37
494.378	7.45
494.579	7.51
494.78	7.65
494.981	7.62
495.182	7.76
495.382	7.97
495.583	8.06
495.784	7.96
495.985	8.11
496.185	8.22
496.386	8.25
496.587	8.17
496.788	8.16
496.988	8.11
497.189	8.17
497.39	8.23
497.59	8.2
497.791	8.3
497.992	8.41
498.192	8.39
498.393	8.21
498.593	8.4
498.794	8.33
498.994	8.33
499.195	8.41
499.395	8.59
499.596	8.6
499.796	8.45
499.997	8.6
500.197	8.74
500.398	8.82
500.598	8.83
500.799	8.55
500.999	8.7
501.199	8.8
501.4	8.87
501.6	8.62
501.801	8.5
502.001	8.55
502.201	8.38
502.402	8.28
502.602	8.38
502.802	8.61
503.002	8.9
503.203	8.74
503.403	8.77
503.603	8.74
503.803	9.05
504.003	9.16
504.204	9.4
504.404	9.55
504.604	9.47
504.804	9.49
505.004	9.56
505.204	9.39
505.404	9.53
505.604	9.43
505.804	9.53
506.005	9.36
506.205	9.45
506.405	9.33
506.605	9.23
506.805	9.66
507.005	9.69
507.204	9.65
507.404	9.8
507.604	10
507.804	10.22
508.004	10.15
508.204	10.27
508.404	10.38
508.604	10.38
508.804	10.42
509.003	10.32
509.203	10.34
509.403	10.34
509.603	10.42
509.803	10.38
510.002	10.39
510.202	10.45
510.402	10.52
510.602	10.53
510.801	10.63
511.001	10.7
511.201	10.58
511.4	10.61
511.6	10.82
511.8	10.87
511.999	10.88
512.199	10.89
512.398	11.07
512.598	11.15
512.797	11.13
512.997	11.22
513.197	11.29
513.396	11.4
513.596	11.32
513.795	11.38
513.994	11.47
514.194	11.55
514.393	11.64
514.593	11.54
514.792	11.51
514.992	11.61
515.191	11.66
515.39	11.83
515.59	12.05
515.789	12.23
515.988	12.25
516.188	12.26
516.387	12.27
516.586	12.5
516.786	12.6
516.985	12.86
517.184	12.87
517.383	13.01
517.582	13.05
517.782	13.04
517.981	13.11
518.18	13.11
518.379	13.3
518.578	13.49
518.777	13.47
518.976	13.64
519.176	13.43
519.375	13.58
519.574	13.6
519.773	13.66
519.972	13.79
520.171	13.92
520.37	14.13
520.569	14.17
520.768	14.14
520.967	14.36
521.166	14.3
521.365	14.68
521.564	14.78
521.762	14.84
521.961	14.9
522.16	14.93
522.359	14.98
522.558	14.91
522.757	14.82
522.956	14.9
523.154	14.81
523.353	15.02
523.552	15.04
523.751	15.19
523.949	15.26
524.148	15.24
524.347	15.4
524.546	15.53
524.744	15.56
524.943	15.72
525.142	15.76
525.34	15.8
525.539	15.79
525.737	15.95
525.936	15.9
526.135	16.06
526.333	16.24
526.532	16.25
526.73	16.24
526.929	16.34
527.127	16.45
527.326	16.61
527.524	16.75
527.723	16.89
527.921	16.93
528.12	17.02
528.318	17.07
528.516	17.09
528.715	17.17
528.913	17.26
529.112	17.41
529.31	17.42
529.508	17.38
529.707	17.43
529.905	17.4
530.103	17.37
530.301	17.33
530.5	17.38
530.698	17.47
530.896	17.55
531.094	17.58
531.293	17.61
531.491	17.64
531.689	17.83
531.887	17.87
532.085	18.1
532.283	18.27
532.481	18.46
532.68	18.48
532.878	18.56
533.076	18.58
533.274	18.7
533.472	18.74
533.67	18.9
533.868	18.98
534.066	19.14
534.264	19.11
534.462	19.1
534.66	19.14
534.858	19.22
535.056	19.31
535.253	19.46
535.451	19.53
535.649	19.58
535.847	19.68
536.045	19.73
536.243	19.73
536.441	19.77
536.638	19.9
536.836	19.97
537.034	19.99
537.232	19.99
537.43	20.08
537.627	20.19
537.825	20.27
538.023	20.18
538.22	20.18
538.418	20.27
538.616	20.32
538.813	20.42
539.011	20.71
539.209	20.84
539.406	20.98
539.604	21.01
539.801	21.13
539.999	21.21
540.196	21.4
540.394	21.53
540.591	21.6
540.789	21.75
540.986	21.73
541.184	21.67
541.381	21.76
541.579	21.79
541.776	21.76
541.974	21.72
542.171	21.74
542.368	21.8
542.566	21.86
542.763	21.85
542.96	21.9
543.158	22.05
543.355	22.13
543.552	22.21
543.75	22.3
543.947	22.38
544.144	22.51
544.341	22.65
544.539	22.74
544.736	22.73
544.933	22.89
545.13	22.82
545.327	22.94
545.524	22.96
545.722	22.9
545.919	22.87
546.116	22.9
546.313	23.04
546.51	23.13
546.707	23.16
546.904	23.38
547.101	23.45
547.298	23.69
547.495	23.57
547.692	23.51
547.889	23.62
548.086	23.82
548.283	23.98
548.48	24.01
548.677	23.98
548.874	23.89
549.07	23.74
549.267	23.65
549.464	23.86
549.661	23.99
549.858	24.49
550.055	24.75
550.251	24.79
550.448	24.95
550.645	24.93
550.842	24.89
551.038	25.06
551.235	25.36
551.432	25.48
551.628	25.21
551.825	25.35
552.022	25.12
552.218	25.08
552.415	25.3
552.612	25.26
552.808	25.36
553.005	25.73
553.201	25.96
553.398	25.86
553.594	25.99
553.791	26.14
553.987	26.17
554.184	26.36
554.38	26.48
554.577	26.49
554.773	26.58
554.97	26.8
555.166	26.61
555.362	26.73
555.559	26.89
555.755	26.78
555.952	26.91
556.148	27.16
556.344	27.3
556.541	27.33
556.737	27.21
556.933	27.33
557.129	27.28
557.326	27.38
557.522	27.34
557.718	27.32
557.914	27.5
558.11	27.58
558.307	27.47
558.503	27.36
558.699	27.27
558.895	27.33
559.091	27.39
559.287	27.49
559.483	27.44
559.679	27.61
559.876	27.9
560.072	27.99
560.268	27.95
560.464	27.95
560.66	27.97
560.856	28.37
561.052	28.37
561.247	28.38
561.443	28.38
561.639	28.53
561.835	28.45
562.031	28.31
562.227	28.48
562.423	28.49
562.619	28.46
562.815	28.49
563.01	28.39
563.206	28.6
563.402	28.85
563.598	29.07
563.793	29.08
563.989	29.13
564.185	29.43
564.381	29.53
564.576	29.66
564.772	29.75
564.968	29.89
565.163	29.81
565.359	29.66
565.555	29.63
565.75	29.4
565.946	29.5
566.141	29.56
566.337	29.35
566.532	29.39
566.728	29.34
566.923	29.54
567.119	29.73
567.314	29.86
567.51	29.87
567.705	29.79
567.901	29.88
568.096	30.02
568.292	29.98
568.487	30.11
568.682	30.27
568.878	30.42
569.073	30.39
569.268	30.31
569.464	30.31
569.659	30.57
569.854	30.67
570.05	30.69
570.245	30.7
570.44	30.82
570.635	30.84
570.831	30.69
571.026	30.78
571.221	30.66
571.416	30.65
571.611	30.63
571.806	30.75
572.002	30.6
572.197	30.64
572.392	30.6
572.587	30.75
572.782	30.62
572.977	30.68
573.172	30.51
573.367	30.69
573.562	30.72
573.757	30.88
573.952	30.65
574.147	30.9
574.342	30.98
574.537	31.04
574.732	30.89
574.927	31.2
575.121	31.12
575.316	31.29
575.511	31.17
575.706	31.16
575.901	31.16
576.096	31.27
576.29	31.24
576.485	31.29
576.68	31.29
576.875	31.52
577.069	31.48
577.264	31.53
577.459	31.65
577.654	31.93
577.848	32.16
578.043	32.05
578.238	32.34
578.432	32.26
578.627	32.12
578.821	32.52
579.016	32.48
579.21	32.34
579.405	32.3
579.6	32.09
579.794	31.72
579.989	31.57
580.183	31.65
580.378	31.49
580.572	31.64
580.766	31.87
580.961	31.64
581.155	31.44
581.35	31.5
581.544	31.62
581.738	31.75
581.933	32.17
582.127	32.25
582.321	32.26
582.516	32.05
582.71	32.2
582.904	32.1
583.099	31.95
583.293	32.08
583.487	32.05
583.681	32.05
583.875	32.08
584.07	31.86
584.264	31.98
584.458	31.79
584.652	32.04
584.846	31.81
585.04	31.99
585.234	31.92
585.428	31.97
585.623	32.32
585.817	32.47
586.011	32.34
586.205	32.5
586.399	32.38
586.593	32.88
586.787	32.83
586.981	32.71
587.174	32.66
587.368	32.86
587.562	32.99
587.756	32.97
587.95	32.84
588.144	33.07
588.338	33.01
588.532	33
588.725	32.8
588.919	32.76
589.113	32.98
589.307	32.84
589.501	32.93
589.694	32.77
589.888	32.61
590.082	32.82
590.275	32.75
590.469	32.83
590.663	32.95
590.856	33.01
591.05	33.11
591.244	33.25
591.437	33.23
591.631	33.2
591.824	33.26
592.018	33.42
592.212	33.16
592.405	33.34
592.599	33.64
592.792	33.58
592.986	33.83
593.179	33.95
593.372	34.32
593.566	34.55
593.759	34.39
593.953	34.49
594.146	34.42
594.339	34.45
594.533	34.21
594.726	34.08
594.92	34
595.113	34.01
595.306	33.93
595.499	33.61
595.693	33.41
595.886	33.58
596.079	33.41
596.272	33.28
596.466	33.41
596.659	33.55
596.852	33.53
597.045	33.64
597.238	33.57
597.431	33.43
597.624	33.45
597.818	33.75
598.011	33.65
598.204	33.88
598.397	34.14
598.59	34.07
598.783	34.13
598.976	34.24
599.169	34.09
599.362	33.93
599.555	34.32
599.748	34.17
599.941	34.51
600.134	34.77
600.326	34.83
600.519	35.07
600.712	35.22
600.905	35.08
601.098	35.05
601.291	35.39
601.483	35.54
601.676	35.23
601.869	35.2
602.062	34.86
602.255	34.65
602.447	34.62
602.64	34.45
602.833	34.46
603.025	34.66
603.218	34.57
603.411	34.58
603.603	34.57
603.796	34.81
603.989	35.05
604.181	34.97
604.374	35.06
604.566	34.82
604.759	34.81
604.951	34.78
605.144	34.91
605.336	34.9
605.529	34.81
605.721	34.72
605.914	34.55
606.106	34.51
606.299	34.66
606.491	34.71
606.683	34.99
606.876	34.96
607.068	34.88
607.26	34.78
607.453	34.79
607.645	34.95
607.837	35.26
608.03	35.39
608.222	35.54
608.414	35.27
608.606	35.18
608.799	34.86
608.991	34.85
609.183	35
609.375	34.78
609.567	34.76
609.759	34.71
609.952	34.63
610.144	34.62
610.336	34.45
610.528	34.31
610.72	34.38
610.912	34.62
611.104	34.62
611.296	34.61
611.488	34.87
611.68	34.9
611.872	34.8
612.064	34.76
612.256	34.81
612.448	34.89
612.64	35.29
612.832	35.11
613.023	35.22
613.215	35.16
613.407	35.15
613.599	35.06
613.791	35.15
613.983	35.65
614.174	35.52
614.366	35.71
614.558	35.76
614.75	35.6
614.941	35.99
615.133	35.78
615.325	35.97
615.516	35.77
615.708	35.55
615.9	35.25
616.091	34.84
616.283	35.14
616.475	35.15
616.666	34.97
616.858	34.86
617.049	34.74
617.241	34.9
617.432	34.92
617.624	35.02
617.815	35.01
618.007	35.18
618.198	35.31
618.39	35.14
618.581	34.78
618.773	34.99
618.964	34.98
619.155	34.88
619.347	34.95
619.538	34.79
619.729	34.88
619.921	35.46
620.112	35.81
620.303	35.63
620.494	35.7
620.686	35.98
620.877	35.97
621.068	36.43
621.259	36.4
621.451	36.27
621.642	36.35
621.833	36.74
622.024	36.47
622.215	36.46
622.406	36.28
622.597	36.22
622.788	36.13
622.98	36.11
623.171	35.93
623.362	36.3
623.553	36.35
623.744	36.57
623.935	36.61
624.126	36.41
624.317	36.32
624.508	36.4
624.698	36.28
624.889	36.36
625.08	36.3
625.271	36.05
625.462	35.76
625.653	35.83
625.844	35.72
626.034	35.61
626.225	35.72
626.416	35.8
626.607	35.87
626.798	35.69
626.988	35.46
627.179	35.46
627.37	35.45
627.56	35.41
627.751	35.27
627.942	35.11
628.132	35
628.323	34.77
628.514	34.6
628.704	34.83
628.895	35.05
629.085	35.27
629.276	35.48
629.466	35.76
629.657	35.96
629.847	36.21
630.038	36.54
630.228	36.57
630.419	36.89
630.609	37.02
630.8	36.65
630.99	36.82
631.181	36.66
631.371	36.37
631.561	36.28
631.752	36.52
631.942	36.44
632.132	36.27
632.323	35.91
632.513	36.3
632.703	36.17
632.893	36.12
633.084	35.97
633.274	36.11
633.464	36.06
633.654	35.92
633.844	35.61
634.034	35.47
634.225	35.45
634.415	35.63
634.605	35.38
634.795	35.72
634.985	36.04
635.175	36.12
635.365	36.17
635.555	36.22
635.745	36.47
635.935	36.49
636.125	36.66
636.315	36.63
636.505	36.61
636.695	36.5
636.885	35.84
637.075	35.64
637.265	35.75
637.455	35.53
637.644	35.77
637.834	35.39
638.024	35.28
638.214	35.08
638.404	35.15
638.593	35.24
638.783	35.06
638.973	35.45
639.163	35.62
639.352	35.55
639.542	35.76
639.732	35.46
639.921	35.81
640.111	35.93
640.301	35.75
640.49	36.12
640.68	36.4
640.87	36.29
641.059	36.38
641.249	36.17
641.438	35.88
641.628	35.78
641.817	35.89
642.007	35.74
642.196	35.91
642.386	36.08
642.575	35.96
642.764	35.48
642.954	35.94
643.143	35.82
643.333	36.29
643.522	36.68
643.711	36.44
643.901	36.63
644.09	36.22
644.279	36.37
644.469	36.64
644.658	36.15
644.847	36.73
645.036	36.86
645.226	36.92
645.415	36.52
645.604	36.08
645.793	36.32
645.982	36.2
646.171	36.87
646.361	36.71
646.55	36.65
646.739	36.97
646.928	37.02
647.117	36.42
647.306	36.57
647.495	37.01
647.684	37.23
647.873	37.71
648.062	37.94
648.251	37.55
648.44	37.8
648.629	37.95
648.818	38.05
649.007	37.74
649.196	38.1
649.384	37.73
649.573	37.4
649.762	37.53
649.951	37.38
650.14	36.97
650.328	37.46
650.517	37.41
650.706	37.3
650.895	37.12
651.083	37.05
651.272	36.74
651.461	37.06
651.65	37.14
651.838	37.04
652.027	36.78
652.216	36.87
652.404	36.64
652.593	36.51
652.781	36.8
652.97	36.61
653.158	36.4
653.347	37.07
653.535	36.94
653.724	36.79
653.912	36.88
654.101	37.11
654.289	37.62
654.478	37.72
654.666	37.68
654.855	37.65
655.043	38.05
655.231	38.24
655.42	37.76
655.608	38.06
655.796	38.07
655.985	38
656.173	38.14
656.361	37.79
656.55	37.65
656.738	37.32
656.926	37.37
657.114	37.23
657.302	36.94
657.491	37.19
657.679	36.95
657.867	37.2
658.055	37.04
658.243	37.04
658.431	36.83
658.619	36.98
658.807	37.2
658.996	36.81
659.184	36.47
659.372	36.77
659.56	36.69
659.748	36.62
659.936	36.13
660.124	36.51
660.311	36.16
660.499	35.77
660.687	35.6
660.875	35.45
661.063	35.74
661.251	36.12
661.439	36.22
661.627	36.22
661.814	36.37
662.002	37.25
662.19	37.13
662.378	37.24
662.565	37.77
662.753	37.81
662.941	37.82
663.129	37.54
663.316	37.54
663.504	37.24
663.692	37.03
663.879	36.66
664.067	36.18
664.254	36.13
664.442	36.08
664.63	36.12
664.817	36.65
665.005	36.82
665.192	37.1
665.38	37.21
665.567	37.51
665.755	37.77
665.942	38.42
666.13	38.36
666.317	38.23
666.504	38.8
666.692	39.23
666.879	38.52
667.067	38.89
667.254	38.77
667.441	38.97
667.629	39.08
667.816	39.01
668.003	38.85
668.19	38.56
668.378	38.7
668.565	38.24
668.752	38.16
668.939	38.52
669.127	38.29
669.314	38.53
669.501	38.33
669.688	38.14
669.875	38.18
670.062	38.1
670.249	38.22
670.436	38.14
670.623	38.28
670.81	38.03
670.997	38.09
671.184	37.9
671.371	37.68
671.558	37.45
671.745	37.55
671.932	37.64
672.119	37.63
672.306	37.8
672.493	37.51
672.68	36.91
672.867	36.97
673.054	36.7
673.24	36.73
673.427	37.05
673.614	36.87
673.801	37.2
673.988	37.25
674.174	37.13
674.361	37.24
674.548	37.61
674.734	38.13
674.921	38.18
675.108	37.94
675.294	38.22
675.481	37.78
675.668	37.7
675.854	37.1
676.041	36.52
676.227	36.56
676.414	36.54
676.601	36.52
676.787	36.63
676.974	36.5
677.16	36.86
677.347	37.01
677.533	37.37
677.719	37.98
677.906	38.05
678.092	38.38
678.279	38.49
678.465	38.66
678.651	38.82
678.838	38.63
679.024	38.56
679.21	38.41
679.397	38.32
679.583	38.02
679.769	37.59
679.955	37.59
680.142	37.78
680.328	37.77
680.514	37.26
680.7	37.44
680.886	37.25
681.073	37.01
681.259	37.55
681.445	37.49
681.631	37.48
681.817	37.77
682.003	38.14
682.189	37.78
682.375	37.59
682.561	37.98
682.747	37.32
682.933	37.57
683.119	37.93
683.305	37.79
683.491	37.96
683.677	38.01
683.863	37.97
684.049	37.47
684.235	37.75
684.42	38.1
684.606	38.31
684.792	38.71
684.978	38.77
685.164	39.05
685.349	38.88
685.535	37.87
685.721	37.98
685.907	37.88
686.092	38.08
686.278	37.88
686.464	38.01
686.649	37.8
686.835	37.71
687.021	37.83
687.206	37.76
687.392	37.76
687.577	38.28
687.763	38.21
687.948	38.56
688.134	38.67
688.319	38.15
688.505	37.67
688.69	37.98
688.876	37.51
689.061	37.6
689.247	37.03
689.432	37.22
689.618	37.4
689.803	37.51
689.988	37.1
690.174	36.48
690.359	37.61
690.544	37.86
690.73	37.76
690.915	38.3
691.1	38.29
691.285	38.94
691.471	38.76
691.656	39.11
691.841	39.66
692.026	39.26
692.211	39.82
692.396	39.52
692.582	39.24
692.767	38.87
692.952	39.03
693.137	38.54
693.322	37.86
693.507	37.81
693.692	37.11
693.877	36.27
694.062	37.03
694.247	36.69
694.432	37.03
694.617	37.37
694.802	37.31
694.987	36.92
695.172	37.25
695.357	38.2
695.541	38.29
695.726	39.03
695.911	38.95
696.096	38.74
696.281	39.04
696.466	38.93
696.65	38.99
696.835	39.11
697.02	39.95
697.204	40.12
697.389	40.16
697.574	40.32
697.759	39.48
697.943	39.92
698.128	39.9
698.312	40.06
698.497	39.68
698.682	39.45
698.866	39.15
699.051	38.71
699.235	38.49
699.42	37.82
699.604	37.62
699.789	37.47
699.973	37.32
700.158	37.12
700.342	36.91
700.527	37.08
700.711	37.13
700.895	37.67
701.08	37.52
701.264	37.97
701.448	38.54
701.633	38.35
701.817	38.81
702.001	38.58
702.186	39.36
702.37	39.73
702.554	39.5
702.738	39.41
702.923	39.2
703.107	39.77
703.291	39.34
703.475	39.09
703.659	39.31
703.843	39.62
704.027	39.85
704.212	39.17
704.396	38.55
704.58	38.31
704.764	38.3
704.948	37.79
705.132	37.17
705.316	37.2
705.5	36.75
705.684	36.51
705.868	36.19
706.052	35.61
706.235	35.38
706.419	35.91
706.603	35.8
706.787	35.61
706.971	36.16
707.155	36.65
707.339	36.81
707.522	37.04
707.706	36.75
707.89	37.2
708.074	38.17
708.257	38.49
708.441	38.03
708.625	38.85
708.808	39.41
708.992	39.39
709.176	39.48
709.359	38.99
709.543	39.45
709.727	39.89
709.91	40.45
710.094	40.11
710.277	40.26
710.461	40.85
710.644	40.06
710.828	40.26
711.011	40.58
711.195	40.16
711.378	40.46
711.562	40.28
711.745	40.32
711.928	39.76
712.112	39.55
712.295	39.17
712.478	38.63
712.662	39.3
712.845	38.8
713.028	38.83
713.212	38.59
713.395	38.24
713.578	39.1
713.761	38.88
713.945	39.04
714.128	39.01
714.311	38.89
714.494	39.4
714.677	39.28
714.86	39.88
715.043	39.43
715.227	40.41
715.41	40.64
715.593	39.76
715.776	39.44
715.959	39.09
716.142	39.33
716.325	39.83
716.508	39.38
716.691	39.33
716.874	39.18
717.057	39.81
717.239	39.82
717.422	39.7
717.605	39.33
717.788	38.92
717.971	39.26
718.154	38.99
718.337	38.78
718.519	38.89
718.702	38.4
718.885	38.76
719.068	37.89
719.25	37.44
719.433	37.69
719.616	38.38
719.798	38.72
719.981	38.41
720.164	38.44
720.346	37.53
720.529	37.84
720.712	38.01
720.894	36.89
721.077	37.24
721.259	37.13
721.442	37.23
721.624	37.4
721.807	38.87
721.989	39.63
722.172	39.99
722.354	40.54
722.537	40.35
722.719	40.86
722.901	41.14
723.084	40.86
723.266	40.5
723.448	39.68
723.631	39.09
723.813	38.68
723.995	37.5
724.178	36.97
724.36	37.9
724.542	38.37
724.724	38.26
724.907	38.38
725.089	39.14
725.271	40.3
725.453	40.86
725.635	41.07
725.817	40.91
725.999	41.95
726.181	42.56
726.364	42.68
726.546	41.85
726.728	42.1
726.91	41.83
727.092	40.72
727.274	39.75
727.456	39.31
727.638	38.66
727.819	39.12
728.001	38.56
728.183	38.18
728.365	38.19
728.547	39
728.729	38.76
728.911	38.91
729.093	38.86
729.274	39.22
729.456	40.1
729.638	40.7
729.82	40.01
730.001	40.16
730.183	39.88
730.365	40.2
730.546	39.31
730.728	40.1
730.91	40.5
731.091	41.39
731.273	40.76
731.455	40.55
731.636	40.54
731.818	40.62
731.999	40.54
732.181	41.07
732.362	40.25
732.544	40.02
732.725	39.14
732.907	38.9
733.088	39.01
733.27	39.31
733.451	38.81
733.633	39.36
733.814	40.07
733.995	40.24
734.177	39.99
734.358	39.82
734.539	41.69
734.721	41.99
734.902	41.84
735.083	41.52
735.264	41.55
735.446	42.23
735.627	41.95
735.808	40.88
735.989	40.54
736.17	41.14
736.351	42.39
736.533	41.43
736.714	41.37
736.895	42.12
737.076	42.14
737.257	41.97
737.438	42.43
737.619	42.06
737.8	42.4
737.981	41.52
738.162	41.61
738.343	41.39
738.524	41.44
738.705	40.77
738.886	39.82
739.067	40.57
739.247	40.82
739.428	40.55
739.609	40.77
739.79	40.74
739.971	41.79
740.151	41.29
740.332	40.31
740.513	39.8
740.694	39.37
740.874	40.09
741.055	39.52
741.236	39.33
741.417	38.92
741.597	38.45
741.778	38.43
741.958	37.93
742.139	37.28
742.32	38.26
742.5	38.48
742.681	39.82
742.861	38.78
743.042	38.91
743.222	38.54
743.403	39.23
743.583	39.95
743.764	40.36
743.944	40.6
744.124	41.52
744.305	40.82
744.485	40.29
744.666	40.36
744.846	41.86
745.026	42.35
745.207	43.29
745.387	41.92
745.567	41.38
745.747	40.93
745.928	42.05
746.108	41.24
746.288	41.68
746.468	41.92
746.648	41.2
746.829	40.87
747.009	39.86
747.189	39.78
747.369	39.78
747.549	39.37
747.729	39.36
747.909	38.4
748.089	38.99
748.269	39.27
748.449	39.77
748.629	41.2
748.809	40.77
748.989	40.84
749.169	40.09
749.349	40.36
749.529	41.76
749.709	42.01
749.889	43.17
750.068	43.04
750.248	42.7
750.428	42.74
750.608	41.58
750.788	41.6
750.967	41.37
751.147	41.57
751.327	42.49
751.507	40.97
751.686	40.79
751.866	40.18
752.046	39.42
752.225	39.24
752.405	39.21
752.585	39.65
752.764	40.46
752.944	40.53
753.123	40.63
753.303	41.08
753.482	41.24
753.662	40.65
753.841	40.26
754.021	40.82
754.2	40.48
754.38	39.84
754.559	39.08
754.739	37.55
754.918	37.06
755.097	37.98
755.277	36.5
755.456	37.92
755.635	37.93
755.815	37.92
755.994	37.57
756.173	37.98
756.352	38.51
756.532	38.89
756.711	39.95
756.89	40.29
757.069	39.83
757.248	40.25
757.427	38.9
757.607	39.91
757.786	40.26
757.965	41.21
758.144	41.24
758.323	41.47
758.502	42.05
758.681	42.83
758.86	42.95
759.039	42.52
759.218	42.24
759.397	42.98
759.576	43.56
759.755	43.23
759.934	42.71
760.113	43.3
760.291	42.45
760.47	42.17
760.649	40.52
760.828	39.81
761.007	40.42
761.186	40.35
761.364	39.92
761.543	38.36
761.722	38.18
761.901	38.23
762.079	37.53
762.258	38.54
762.437	38.66
762.615	39.46
762.794	40.05
762.972	39.52
763.151	39.94
763.33	40.46
763.508	40.67
763.687	41.12
763.865	40.67
764.044	40.1
764.222	39.69
764.401	39.19
764.579	38.92
764.758	39.09
764.936	38.78
765.114	38.7
765.293	37.74
765.471	37.69
765.65	38.16
765.828	38.84
766.006	39.38
766.184	39.29
766.363	39.12
766.541	39.02
766.719	39.13
766.898	40.63
767.076	40.51
767.254	41.68
767.432	42.04
767.61	41.12
767.788	41.74
767.967	41.56
768.145	40.77
768.323	39.02
768.501	38.76
768.679	38.42
768.857	36.67
769.035	36.78
769.213	36.15
769.391	34.81
769.569	33.86
769.747	32.83
769.925	32.66
770.103	32.73
770.281	36.38
770.459	36.51
770.636	37.35
770.814	37.46
770.992	37.78
771.17	38.45
771.348	39.49
771.525	41.54
771.703	41.36
771.881	41.46
772.059	42.45
772.236	42.53
772.414	43.54
772.592	42.1
772.769	42.61
772.947	43.01
773.125	42.25
773.302	41.66
773.48	40.27
773.657	41.09
773.835	41.2
774.013	41.96
774.19	40.33
774.368	39.2
774.545	40.39
774.723	40.86
774.9	40.04
775.077	40.79
775.255	40.67
775.432	37.92
775.61	37.73
775.787	39.1
775.964	38.13
776.142	37.99
776.319	38.34
776.496	37.31
776.674	36.64
776.851	37.17
777.028	36.33
777.205	36.84
777.382	41.06
777.56	39.94
777.737	39.72
777.914	41.25
778.091	42.26
778.268	43.71
778.445	44.1
778.622	43.38
778.8	42.6
778.977	42.67
779.154	42.92
779.331	42.58
779.508	42.27
779.685	43.3
779.862	41.57
780.038	41.79
780.215	40.47
780.392	40.05
780.569	40.01
780.746	40.65
780.923	40.68
781.1	40.89
781.277	38.43
781.453	38.15
781.63	35.42
781.807	36.5
781.984	36.28
782.16	37.25
782.337	36.9
782.514	38.06
782.691	35.82
782.867	35.61
783.044	34.68
783.221	35.86
783.397	37.06
783.574	37.3
783.75	36.64
783.927	35.82
784.103	35.59
784.28	37.06
784.456	36.99
784.633	40.08
784.809	40.95
784.986	41.61
785.162	40.7
785.339	40.79
785.515	41.19
785.692	41.24
785.868	42.67
786.044	42.61
786.221	40.28
786.397	41.35
786.573	41.23
786.749	38.82
786.926	38.87
787.102	42.59
787.278	40.28
787.454	40.26
787.631	40.69
787.807	39.08
787.983	37.96
788.159	39.97
788.335	38.99
788.511	39.56
788.687	41.08
788.863	42.17
789.039	39.43
789.216	40.21
789.392	41.08
789.568	41.32
789.744	43.61
789.919	43.59
790.095	44.66
790.271	45.9
790.447	44.9
790.623	44.71
790.799	43.47
790.975	45.67
791.151	46.87
791.327	46.95
791.502	47.62
791.678	45.64
791.854	46.59
792.03	46.17
792.205	44.66
792.381	46.95
792.557	47.69
792.733	47.57
792.908	46.93
793.084	48.77
793.259	48.23
793.435	47.01
793.611	46.99
793.786	44.55
793.962	43
794.137	40.61
794.313	35.91
794.488	35.4
794.664	37.61
794.839	37.41
795.015	36.72
795.19	35.18
795.366	33.66
795.541	33.75
795.716	33.73
795.892	34.19
796.067	36.22
796.242	38.88
796.418	39.2
796.593	38.94
796.768	38.35
796.944	36.68
797.119	37.98
797.294	40.39
797.469	39.73
797.644	39.54
797.82	39.66
797.995	40.97
798.17	41.44
798.345	41.4
798.52	39.24
798.695	40.75
798.87	39.61
799.045	38.32
799.22	37.14
799.395	37.86
799.57	38.22
799.745	38.94
799.92	38.07
800.095	33.56
800.27	33.57
800.445	34.19
800.62	33.76
800.795	34.22
800.97	35.23
801.145	33.8
801.319	36.41
801.494	37.73
801.669	36.42
801.844	35.06
802.018	39.08
802.193	37.66
802.368	38.75
802.543	37.96
802.717	38.9
802.892	38.01
803.067	40.09
803.241	39.32
803.416	39.64
803.59	40.72
803.765	42.97
803.94	40.3
804.114	38.61
804.289	40.27
804.463	40.21
804.638	41.91
804.812	43.82
804.986	45.59
805.161	42.82
805.335	46.44
805.51	45.13
805.684	45.04
805.858	46.48
806.033	48.91
806.207	48.16
806.381	49.36
806.556	46.99
806.73	45.08
806.904	44.64
807.078	46.23
807.253	42.85
807.427	42.75
807.601	42.28
807.775	40.91
807.949	42.59
808.123	43.82
808.298	41.95
808.472	42.02
808.646	43.1
808.82	42.62
808.994	42.13
809.168	45.43
809.342	48
809.516	48.61
809.69	48.2
809.864	46.42
810.038	43.55
810.212	44.89
810.385	45.16
810.559	46.17
810.733	45.72
810.907	45.79
811.081	42.49
811.255	40.64
811.428	39.62
811.602	41.39
811.776	41.75
811.95	41.7
812.123	41.29
812.297	40.57
812.471	38.01
812.644	38.05
812.818	39.21
812.992	39.46
813.165	37.73
813.339	37.5
813.512	38.36
813.686	35.27
813.86	37.04
814.033	39.62
814.207	43.82
814.38	48.58
814.554	50.4
814.727	48.07
814.9	48.61
815.074	51.79
815.247	51.63
815.421	50.02
815.594	52.01
815.767	52.83
815.941	49.95
816.114	50.18
816.287	46.67
816.46	46.21
816.634	47.78
816.807	46.45
816.98	44.72
817.153	48.04
817.327	50.36
817.5	51.47
817.673	47.54
817.846	47.4
818.019	43.14
818.192	43.54
818.365	43.76
818.538	45.83
818.711	46.8
818.884	46.92
819.057	42.36
819.23	39
819.403	40.67
819.576	43.16
819.749	43.73
819.922	42.84
820.095	40.37
820.268	39.34
820.441	39.26
820.614	39.25
820.786	41.23
820.959	41.42
821.132	43.16
821.305	42.89
821.477	40.95
821.65	40.31
821.823	40.47
821.996	41.23
822.168	40.62
822.341	39.99
822.514	39.29
822.686	38.39
822.859	38.97
823.031	38.71
823.204	38.84
823.376	39.31
823.549	39.96
823.722	40.03
823.894	39.66
824.067	40.14
824.239	40.1
824.411	40.36
824.584	41.14
824.756	41.14
824.929	41.3
825.101	40.14
825.273	40.13
825.446	39.3
825.618	39.21
825.79	39.43
825.963	39.25
826.135	38.41
826.307	38.67
826.479	37.34
826.652	37.2
826.824	37.24
826.996	37.49
827.168	38.21
827.34	39.48
827.512	39.12
827.684	39.28
827.856	39.04
828.029	40.97
828.201	41.03
828.373	43.02
828.545	43.3
828.717	43.73
828.889	44.65
829.061	44.97
829.232	44.85
829.404	46.02
829.576	47.28
829.748	47.12
829.92	45.95
830.092	45.84
830.264	45.15
830.436	45.62
830.607	44.93
830.779	45.6
830.951	45.15
831.123	43.75
831.294	44.83
831.466	42.95
831.638	44.33
831.809	47.8
831.981	49.67
832.153	49.31
832.324	48.9
832.496	49.41
832.667	49.71
832.839	47.4
833.011	48.32
833.182	46.98
833.354	47.47
833.525	47.39
833.697	44.34
833.868	43.55
834.039	42.88
834.211	41.28
834.382	41.85
834.554	41.07
834.725	41.11
834.896	40.74
835.068	42.37
835.239	41.58
835.41	41.55
835.581	41.91
835.753	42.09
835.924	41.27
836.095	41.9
836.266	41.05
836.438	41.62
836.609	42.46
836.78	43.22
836.951	41.74
837.122	42.08
837.293	41.95
837.464	40.59
837.635	38.27
837.806	40.12
837.977	42.62
838.148	43
838.319	42.61
838.49	43.9
838.661	41.7
838.832	44.97
839.003	48.85
839.174	48.84
839.345	51.9
839.516	53.5
839.687	48.93
839.857	44.72
840.028	45.82
840.199	49.18
840.37	47.25
840.54	51.59
840.711	48.48
840.882	45.32
841.053	44.92
841.223	44.68
841.394	47.79
841.564	48.67
841.735	47.04
841.906	44.09
842.076	38.47
842.247	44.27
842.417	38.79
842.588	42.75
842.758	40.75
842.929	36.83
843.099	35.04
843.27	32.82
843.44	37.48
843.611	40.5
843.781	45.43
843.951	50.97
844.122	48.8
844.292	51.26
844.462	42.95
844.633	47.9
844.803	51.62
844.973	47.49
845.144	50.2
845.314	44.98
845.484	42.53
845.654	39.81
845.824	34.79
845.995	32.4
846.165	37.87
846.335	37.55
846.505	33.02
846.675	31.85
846.845	34.83
847.015	35.83
847.185	38.77
847.355	46.28
847.525	48.5
847.695	42.44
847.865	42.75
848.035	31.79
848.205	36.23
848.375	44.69
848.545	48.03
848.715	56.26
848.884	46.48
849.054	47.98
849.224	45.96
849.394	39.8
849.564	42.89
849.733	35.63
849.903	39.09
850.073	41.28
850.243	31.68
850.412	28.19
850.582	23.67
850.752	32.42
850.921	31.43
851.091	27.49
851.26	23.74
851.43	26.04
851.599	30.42
851.769	31.99
851.939	30.77
852.108	33.83
852.278	38.44
852.447	36.56
852.616	30.97
852.786	34.41
852.955	36.12
853.125	43.09
853.294	41.76
853.463	41.11
853.633	36.06
853.802	35.38
853.971	39.22
854.141	32.55
854.31	37.13
854.479	40.76
854.648	39.79
854.818	51.64
854.987	55.3
855.156	61.26
855.325	68.51
855.494	67.49
855.663	70.86
855.832	64.77
856.001	66.42
856.171	62.09
856.34	57.55
856.509	58.32
856.678	49.93
856.847	45.03
857.016	35.85
857.185	32.66
857.353	34.34
857.522	29.23
857.691	28.93
857.86	35.13
858.029	38.81
858.198	49.22
858.367	49.28
858.535	58.39
858.704	69.85
858.873	77.61
859.042	73.1
859.21	77.32
859.379	74.18
859.548	76.09
859.717	68.06
859.885	66.71
860.054	63.02
860.222	54.94
860.391	43.54
860.56	38.45
860.728	34.95
860.897	41.8
861.065	37.47
861.234	42.2
861.402	45.12
861.571	49.55
861.739	48.96
861.908	46.89
862.076	42.11
862.244	56.9
862.413	55.72
862.581	52.04
862.749	49.87
862.918	53.11
863.086	48.86
863.254	48.46
863.423	35.49
863.591	29.44
863.759	24.34
863.927	30.56
864.096	27.91
864.264	22.99
864.432	24.47
864.6	28.53
864.768	25.91
864.936	29.19
865.104	22.75
865.272	25.63
865.44	36.74
865.608	42.12
865.776	37.5
865.944	30.64
866.112	39.23
866.28	43.82
866.448	39.64
866.616	39.39
866.784	36.43
866.952	43.38
867.12	40.76
867.288	44.2
867.455	45.95
867.623	55.23
867.791	59.76
867.959	63.72
868.127	56.05
868.294	57.17
868.462	59.04
868.63	78.9
868.797	76.27
868.965	77.39
869.133	65.54
869.3	61.42
869.468	60.68
869.636	55.79
869.803	55.81
869.971	61.75
870.138	57.15
870.306	60.61
870.473	52.37
870.641	51.12
870.808	42.1
870.975	43.98
871.143	40.98
871.31	43.71
871.478	54.37
871.645	35.26
871.812	20.26
871.98	23.71
872.147	14.3
872.314	18.34
872.482	-7.37
872.649	18.14
872.816	34.07
872.983	41.06
873.15	37.37
873.318	22.92
873.485	43.4
873.652	49.88
873.819	53.71
873.986	50.37
874.153	50.18
874.32	54.91
874.487	44
874.654	38.93
874.821	43.14
874.988	45.54
875.155	49
875.322	42.35
875.489	50.63
875.656	45.12
875.823	51.37
875.99	60.51
876.157	71.07
876.324	73.27
876.49	66.21
876.657	60.05
876.824	43.4
876.991	31.01
877.157	34.62
877.324	18.29
877.491	21.14
877.658	17.07
877.824	6.38
877.991	5.37
878.157	11.05
878.324	21.58
878.491	16.02
878.657	42.08
878.824	57.96
878.99	57.48
879.157	53.01
879.323	54.28
879.49	61.39
879.656	58.79
879.823	55.22
879.989	55.13
880.156	56.06
880.322	56.21
880.488	50
880.655	47.53
880.821	44.84
880.987	42.28
881.154	43.13
881.32	38.16
881.486	41.08
881.652	43.09
881.819	40.26
881.985	34.31
882.151	37.66
882.317	38.68
882.483	37.89
882.649	38.01
882.816	41.44
882.982	40.34
883.148	40.39
883.314	41
883.48	40.26
883.646	40.9
883.812	42.77
883.978	39.61
884.144	38.58
884.31	38.32
884.476	39.37
884.642	37.82
884.807	38.7
884.973	37.94
885.139	36.56
885.305	38.43
885.471	37.32
885.637	34.33
885.802	37.21
885.968	37.17
886.134	38.08
886.3	36.65
886.465	36.1
886.631	35.16
886.797	36.67
886.962	39.34
887.128	36.13
887.293	38.71
887.459	46.56
887.625	48.08
887.79	46.48
887.956	45.56
888.121	46.92
888.287	50.77
888.452	51.2
888.618	50.52
888.783	45.18
