Data from CB_019_Reflection_2.txt Node
Date: Wed Nov 11 20:01:58 EST 2015
User: robert
Spectrometer: USB4E03001
Autoset integration time: false
Trigger mode: 4
Integration Time (sec): 1.000000E-1
Scans to average: 15
Electric dark correction enabled: true
Nonlinearity correction enabled: false
Boxcar width: 5
Stray light correction enabled: false
XAxis mode: Wavelengths
Stop averaging: false
Number of Pixels in Spectrum: 3648
>>>>>Begin Spectral Data<<<<<
177.566	-71.17
177.785	-21.91
178.005	380.21
178.225	-72.54
178.445	-202.54
178.665	613.6
178.885	62.65
179.105	1732.61
179.324	-4.06
179.544	75.42
179.764	-65.26
179.984	-63.42
180.204	-3490
180.423	79.87
180.643	-50.36
180.863	-345.11
181.083	1.02
181.302	-119.84
181.522	-447.53
181.742	143.09
181.961	23.65
182.181	-41.55
182.401	-437.1
182.621	116.53
182.84	150.31
183.06	241.08
183.279	251.56
183.499	238.34
183.719	217.82
183.938	137.91
184.158	119.56
184.377	100.98
184.597	144.87
184.816	104.76
185.036	94.22
185.256	133.16
185.475	81.41
185.695	55.09
185.914	0.15
186.134	-592.86
186.353	451.91
186.572	93.22
186.792	52.93
187.011	386.75
187.231	58.3
187.45	-26.98
187.67	72.02
187.889	55.61
188.108	106.97
188.328	98.62
188.547	6.54
188.766	-1.27
188.986	-916
189.205	-2233.33
189.424	-688.09
189.644	-161.43
189.863	-166.24
190.082	-1160.27
190.302	-170.97
190.521	-333.64
190.74	-158.61
190.959	-123.92
191.178	-96.52
191.398	-86.26
191.617	-26.47
191.836	-174.4
192.055	-79.25
192.274	-71.12
192.494	-89.21
192.713	73.66
192.932	-100.99
193.151	27.18
193.37	51.61
193.589	60.72
193.808	60.23
194.027	109.15
194.246	352.86
194.465	73.96
194.685	-47.33
194.904	49.51
195.123	186.91
195.342	128.79
195.561	137.66
195.78	-108.74
195.999	20.68
196.218	94.66
196.436	89.44
196.655	225.39
196.874	105.4
197.093	58.12
197.312	35.39
197.531	26.8
197.75	94.95
197.969	85.59
198.188	47.79
198.407	68.79
198.625	132.15
198.844	248.66
199.063	-528.65
199.282	-25.68
199.501	135.8
199.719	355.9
199.938	371.38
200.157	-1768.9
200.376	314
200.594	697.37
200.813	302.36
201.032	-240
201.251	-217.34
201.469	-93.48
201.688	-49.73
201.907	-82.21
202.125	-17.98
202.344	159.19
202.563	50.97
202.781	-112.09
203	-69.38
203.218	12.09
203.437	-48.88
203.656	-54.79
203.874	-173.52
204.093	-596.23
204.311	-678.77
204.53	-129.43
204.748	-95.03
204.967	-190.95
205.185	-1676.19
205.404	156.91
205.622	105.91
205.841	105.75
206.059	105.24
206.278	82.99
206.496	65.43
206.715	-7.8
206.933	41.6
207.151	60.15
207.37	51.39
207.588	49.62
207.806	71.49
208.025	214.88
208.243	-142.05
208.461	-91.25
208.68	-60.37
208.898	1367.02
209.116	298.92
209.335	841.24
209.553	222.05
209.771	430.95
209.989	-716.04
210.208	-108.44
210.426	-70.8
210.644	51.24
210.862	41.46
211.081	-68.87
211.299	0.68
211.517	-39
211.735	-101.63
211.953	6.04
212.171	45.36
212.39	-638.6
212.608	1.52
212.826	-4.87
213.044	107.37
213.262	90.09
213.48	57.27
213.698	31.85
213.916	-1.28
214.134	33.39
214.352	79.18
214.57	104.52
214.788	98.1
215.006	108.89
215.224	10.93
215.442	137.8
215.66	-4.34
215.878	67.53
216.096	-41.5
216.314	-105.06
216.532	-240.43
216.75	-348.3
216.968	-71.75
217.185	-55.87
217.403	-35.3
217.621	-142.63
217.839	-56.62
218.057	-80.93
218.275	-227.48
218.492	468.74
218.71	-54.87
218.928	-26.92
219.146	-26.26
219.363	-96.41
219.581	8.93
219.799	-0.16
220.017	-32.76
220.234	-21.86
220.452	-48.56
220.67	-142.13
220.887	1318.4
221.105	-270.32
221.323	-54.86
221.54	-57.98
221.758	-183.49
221.976	-33.98
222.193	24.68
222.411	80.15
222.629	48.88
222.846	4.23
223.064	52.11
223.281	74.9
223.499	86.5
223.716	67.91
223.934	65.38
224.151	61.74
224.369	73.48
224.586	71.77
224.804	78.76
225.021	79.47
225.239	106.32
225.456	100.26
225.674	66.54
225.891	42.06
226.108	56.63
226.326	74.23
226.543	73.69
226.76	48.37
226.978	33.89
227.195	31.34
227.413	31.75
227.63	30
227.847	23.39
228.064	20.76
228.282	21.76
228.499	22.54
228.716	20.04
228.934	17.74
229.151	17.27
229.368	18.67
229.585	14.67
229.802	13.57
230.02	14.3
230.237	15.79
230.454	17.28
230.671	16.92
230.888	16.97
231.105	19.42
231.323	19.42
231.54	20.12
231.757	18.37
231.974	19.46
232.191	20.95
232.408	16.55
232.625	22.67
232.842	24.22
233.059	22.47
233.276	18.12
233.493	16.94
233.71	12.69
233.927	20.31
234.144	14.67
234.361	21.17
234.578	19.98
234.795	15.64
235.012	11.39
235.229	5.46
235.446	9.11
235.663	14.8
235.879	12.18
236.096	18.7
236.313	10.93
236.53	15.42
236.747	10.64
236.964	15.8
237.181	22.76
237.397	18.65
237.614	19.86
237.831	21.05
238.048	18.51
238.264	18.53
238.481	30.41
238.698	25.93
238.915	29.76
239.131	30.81
239.348	31.7
239.565	34.35
239.781	33.27
239.998	33.24
240.215	34.67
240.431	30.55
240.648	26.09
240.865	23.99
241.081	23.87
241.298	20.71
241.514	21.49
241.731	19.49
241.947	14.78
242.164	15.79
242.38	14.33
242.597	11.81
242.814	13.96
243.03	14.96
243.246	12.94
243.463	14.07
243.679	13.18
243.896	12.83
244.112	13.51
244.329	17.12
244.545	15.95
244.762	16.56
244.978	19.96
245.194	19.39
245.411	18.79
245.627	16.15
245.843	16.55
246.06	14.52
246.276	14.15
246.492	11.33
246.709	10.92
246.925	12.07
247.141	13.06
247.357	11.35
247.574	11.84
247.79	12.33
248.006	12.55
248.222	12.35
248.439	13.32
248.655	13.43
248.871	14.78
249.087	14.63
249.303	15.94
249.519	14.8
249.736	16.01
249.952	16.26
250.168	17.56
250.384	19.45
250.6	18.86
250.816	19.41
251.032	17.55
251.248	20.1
251.464	19.87
251.68	17.36
251.896	17.62
252.112	16.87
252.328	14.27
252.544	11.21
252.76	10.33
252.976	12.12
253.192	12.23
253.408	12.26
253.624	10.87
253.84	11.87
254.056	11.66
254.272	12
254.487	13.21
254.703	12.57
254.919	16.35
255.135	13.13
255.351	5.83
255.567	6.14
255.782	3.57
255.998	-0.36
256.214	-4.71
256.43	-5.72
256.646	-6.55
256.861	-5.66
257.077	-0.41
257.293	-3.07
257.508	1.11
257.724	5.87
257.94	8.46
258.155	11.76
258.371	11.27
258.587	12.43
258.802	10.76
259.018	11.31
259.234	9.77
259.449	9.32
259.665	9.86
259.88	10.3
260.096	10.02
260.312	9.34
260.527	8.66
260.743	8.69
260.958	8.32
261.174	9.69
261.389	9.03
261.605	9.84
261.82	9.82
262.036	11.02
262.251	9.45
262.466	11
262.682	11.44
262.897	12.35
263.113	15.03
263.328	16.42
263.543	15.63
263.759	17.05
263.974	15.55
264.189	16.46
264.405	15.29
264.62	16.05
264.835	14.92
265.051	12.51
265.266	12.39
265.481	10.59
265.696	8.33
265.912	8.04
266.127	5.82
266.342	7.12
266.557	7.01
266.773	6.52
266.988	7.1
267.203	5.45
267.418	6.35
267.633	6.55
267.848	7.15
268.064	7.98
268.279	10.01
268.494	10.82
268.709	11.21
268.924	10.77
269.139	11.29
269.354	10.39
269.569	9.66
269.784	10.47
269.999	12.36
270.214	13.08
270.429	12.34
270.644	11.79
270.859	10.9
271.074	10.02
271.289	9.92
271.504	9.39
271.719	8.86
271.934	9.18
272.149	9.91
272.363	7.71
272.578	6.03
272.793	6.21
273.008	5.41
273.223	6.87
273.438	6.17
273.653	6.77
273.867	7.03
274.082	7.05
274.297	8
274.512	6.46
274.726	7.98
274.941	9.42
275.156	8.33
275.371	7.53
275.585	6.34
275.8	7.56
276.015	6.91
276.229	6.56
276.444	8.4
276.659	7.7
276.873	6.8
277.088	5.89
277.302	4.09
277.517	5.54
277.732	4.9
277.946	6.02
278.161	6.22
278.375	6.23
278.59	6.11
278.804	6.11
279.019	6.16
279.233	7.04
279.448	8.33
279.662	10.05
279.877	10.6
280.091	13.31
280.306	13.75
280.52	14.66
280.735	14.49
280.949	15.1
281.163	15.43
281.378	16.28
281.592	16.29
281.806	13.89
282.021	15.55
282.235	14.13
282.449	12.07
282.664	11.92
282.878	11
283.092	10.89
283.307	9.75
283.521	8.55
283.735	7.36
283.949	6.95
284.164	8.27
284.378	7.09
284.592	8.09
284.806	7.69
285.02	7.68
285.234	7.52
285.449	7.3
285.663	8.02
285.877	8.82
286.091	8.42
286.305	8.63
286.519	8.66
286.733	8.89
286.947	9.94
287.161	10.83
287.375	10.55
287.589	10.36
287.803	10.64
288.017	10.66
288.231	10.35
288.445	12.71
288.659	12.93
288.873	13.14
289.087	12.31
289.301	10.97
289.515	11.83
289.729	12.34
289.943	12.14
290.157	11.91
290.371	11.56
290.584	11.21
290.798	10.29
291.012	9.9
291.226	9.27
291.44	9.22
291.654	8.57
291.867	8
292.081	7.67
292.295	8.06
292.509	7.75
292.722	7.67
292.936	8.42
293.15	6.78
293.364	7.52
293.577	7.62
293.791	7.25
294.005	8.23
294.218	8.74
294.432	9.04
294.645	9.47
294.859	10.13
295.073	10.92
295.286	11.54
295.5	13.04
295.713	13.2
295.927	14.02
296.14	13.46
296.354	14.16
296.568	13.82
296.781	13.64
296.994	13.39
297.208	14.05
297.421	13.79
297.635	12.75
297.848	12.46
298.062	12.16
298.275	12.05
298.489	12.85
298.702	12.16
298.915	12.2
299.129	11.35
299.342	13.22
299.555	12.94
299.769	13.64
299.982	14.39
300.195	14.2
300.409	14.58
300.622	13.64
300.835	14.7
301.048	15.62
301.262	15.27
301.475	15.94
301.688	14.52
301.901	13.91
302.115	12.89
302.328	13.76
302.541	15.02
302.754	15.47
302.967	16.31
303.18	15.06
303.393	14.67
303.607	15.45
303.82	15.64
304.033	14.53
304.246	14.55
304.459	15.1
304.672	14.59
304.885	14.06
305.098	13.59
305.311	13.13
305.524	13.78
305.737	13.74
305.95	13.63
306.163	13.14
306.376	14.53
306.589	14.89
306.802	15.1
307.015	14.76
307.228	14.7
307.44	15.22
307.653	16.43
307.866	15.3
308.079	16.09
308.292	15.1
308.505	15.07
308.718	14.2
308.93	12.86
309.143	11.94
309.356	12.65
309.569	12.69
309.781	12.09
309.994	10.94
310.207	11.23
310.42	11.02
310.632	10.67
310.845	11.04
311.058	11.44
311.27	12.52
311.483	12.75
311.696	12.37
311.908	11.4
312.121	11.34
312.333	11.73
312.546	11.67
312.759	11.17
312.971	11.98
313.184	11.89
313.396	11.47
313.609	12.4
313.821	13.12
314.034	12.75
314.246	13.77
314.459	14.41
314.671	14.16
314.884	13.78
315.096	13.78
315.309	14.81
315.521	15.79
315.733	16.19
315.946	15
316.158	14.56
316.371	14.91
316.583	14.39
316.795	14.27
317.008	15.04
317.22	15.31
317.432	15.7
317.644	14.97
317.857	14.41
318.069	13.77
318.281	13.96
318.494	13.54
318.706	14.74
318.918	14.03
319.13	14.22
319.342	14.26
319.555	15.11
319.767	14.45
319.979	12.94
320.191	12.79
320.403	13.32
320.615	13.89
320.827	14.09
321.039	12.97
321.252	14.24
321.464	13.21
321.676	13.4
321.888	13.34
322.1	13.48
322.312	14.51
322.524	14.13
322.736	14.63
322.948	13.6
323.16	14.04
323.372	15.47
323.584	15.36
323.796	15.78
324.007	16.49
324.219	17.14
324.431	17.04
324.643	17.69
324.855	18.31
325.067	19.25
325.279	19.42
325.491	19.58
325.702	18.66
325.914	19.59
326.126	19.8
326.338	18.79
326.55	18.44
326.761	18.68
326.973	19.35
327.185	20.64
327.396	19.48
327.608	19.73
327.82	19.24
328.032	18.52
328.243	17.32
328.455	18.4
328.666	19.57
328.878	20.79
329.09	20.92
329.301	20.55
329.513	19.06
329.725	20.05
329.936	20.63
330.148	21.75
330.359	22.46
330.571	23.6
330.782	23.02
330.994	21.7
331.205	20.43
331.417	21.19
331.628	21.04
331.84	20.24
332.051	20.3
332.262	21.58
332.474	20.43
332.685	20.81
332.897	20.69
333.108	20.14
333.319	20.83
333.531	21.47
333.742	21.75
333.953	21.57
334.165	22.92
334.376	21.22
334.587	19.68
334.799	20.45
335.01	20.41
335.221	20.96
335.432	21.85
335.644	22.37
335.855	22.54
336.066	22.72
336.277	22.52
336.488	22.22
336.7	23.19
336.911	23.43
337.122	22.77
337.333	22.55
337.544	21.52
337.755	21.2
337.966	20.93
338.177	19.8
338.388	19.63
338.599	20.25
338.811	19.96
339.022	20.17
339.233	20.81
339.444	21.28
339.655	21.28
339.866	20.32
340.076	21.08
340.287	20.6
340.498	21.21
340.709	20.33
340.92	20.94
341.131	20.84
341.342	19.46
341.553	18.96
341.764	19.23
341.975	17.91
342.185	18.77
342.396	18.39
342.607	18.68
342.818	18.97
343.029	20.53
343.239	18.82
343.45	19.55
343.661	20.55
343.872	20.85
344.082	20.47
344.293	22.25
344.504	22.14
344.714	21.99
344.925	21.88
345.136	21.59
345.346	20.34
345.557	21.41
345.768	20.92
345.978	21.02
346.189	20.33
346.399	21.06
346.61	20.69
346.821	21.13
347.031	20.87
347.242	20.94
347.452	20.89
347.663	20.77
347.873	20.47
348.084	20.2
348.294	20.5
348.504	20.82
348.715	20.32
348.925	20.64
349.136	20.43
349.346	20
349.557	19.81
349.767	19.25
349.977	20.07
350.188	19.85
350.398	19.97
350.608	20.13
350.819	19.28
351.029	19.17
351.239	18.77
351.449	18.56
351.66	19.3
351.87	19.85
352.08	20.42
352.29	19.56
352.501	18.97
352.711	19.26
352.921	18.88
353.131	20.5
353.341	19.89
353.552	20.01
353.762	20.88
353.972	20.59
354.182	19.65
354.392	19.18
354.602	19.57
354.812	20.29
355.022	19.5
355.232	18.96
355.442	19.29
355.652	19.46
355.862	19.11
356.072	19.34
356.282	19.38
356.492	19.86
356.702	20
356.912	19.6
357.122	19.46
357.332	20.41
357.542	20.63
357.752	20.12
357.962	20.19
358.171	20.48
358.381	20.03
358.591	19.47
358.801	19.24
359.011	19.63
359.221	20
359.43	19.45
359.64	19.22
359.85	18.67
360.06	18.13
360.269	18.38
360.479	17.85
360.689	17.41
360.899	17.85
361.108	17.57
361.318	17.64
361.528	17.77
361.737	18.35
361.947	18.3
362.156	18.86
362.366	18.31
362.576	18.34
362.785	18.37
362.995	18.74
363.204	18.58
363.414	19.24
363.623	19.07
363.833	18.3
364.042	17.78
364.252	18.1
364.461	17.46
364.671	18.41
364.88	18.32
365.09	18.78
365.299	18.69
365.509	18.73
365.718	17.77
365.927	17.37
366.137	17.76
366.346	18.08
366.555	17.53
366.765	17.45
366.974	17.13
367.183	16.66
367.393	16.51
367.602	16.05
367.811	15.82
368.021	16.17
368.23	16.25
368.439	16.31
368.648	16.19
368.857	16.32
369.067	16.58
369.276	16.82
369.485	17.21
369.694	17.04
369.903	16.58
370.112	16.11
370.321	16.18
370.531	16.54
370.74	16.53
370.949	16.73
371.158	16.34
371.367	16.47
371.576	16.11
371.785	15.55
371.994	15.21
372.203	15.52
372.412	16.02
372.621	16.36
372.83	16.14
373.039	16.15
373.248	15.82
373.457	15.8
373.666	15.77
373.874	16
374.083	16.29
374.292	16.25
374.501	16.72
374.71	16.21
374.919	15.6
375.128	14.63
375.336	14.32
375.545	14.76
375.754	14.55
375.963	14.64
376.171	14.22
376.38	14.28
376.589	13.92
376.798	12.98
377.006	13.53
377.215	13.54
377.424	14.11
377.632	14.18
377.841	13.57
378.05	14.06
378.258	13.77
378.467	13.89
378.675	13.25
378.884	13.78
379.093	14.41
379.301	13.78
379.51	13.7
379.718	13.97
379.927	13.54
380.135	13.37
380.344	12.51
380.552	12.67
380.761	12.71
380.969	12.67
381.177	12.77
381.386	12.65
381.594	13.13
381.803	13.35
382.011	13.25
382.219	13.56
382.428	13.3
382.636	13.56
382.845	13.01
383.053	12.51
383.261	12.77
383.469	12.22
383.678	11.8
383.886	10.99
384.094	10.3
384.302	9.64
384.511	9.33
384.719	10.07
384.927	9.8
385.135	10.08
385.343	10.07
385.552	9.78
385.76	9.86
385.968	10.17
386.176	10.27
386.384	10.56
386.592	10.32
386.8	10.42
387.008	10.24
387.216	9.99
387.424	10.17
387.633	9.99
387.841	10.14
388.049	9.86
388.257	9.86
388.465	10.43
388.672	10.54
388.88	10.78
389.088	10.93
389.296	10.65
389.504	11.22
389.712	11.01
389.92	11.1
390.128	11.11
390.336	11.39
390.544	10.92
390.751	10.31
390.959	10.26
391.167	10.62
391.375	10.55
391.583	10.5
391.79	10.15
391.998	10.16
392.206	10.1
392.414	10.26
392.621	9.92
392.829	10.06
393.037	10.09
393.244	10.1
393.452	9.27
393.66	9.2
393.867	9.15
394.075	9.14
394.283	8.45
394.49	8.29
394.698	8.24
394.905	8.2
395.113	8.21
395.32	8.24
395.528	7.72
395.735	8.01
395.943	7.91
396.15	7.89
396.358	7.56
396.565	8.03
396.773	7.95
396.98	7.47
397.188	7.56
397.395	7.67
397.602	7.7
397.81	7.73
398.017	7.65
398.225	7.57
398.432	7.75
398.639	8.02
398.847	7.6
399.054	7.79
399.261	7.81
399.468	7.8
399.676	7.59
399.883	7.53
400.09	7.42
400.297	7.75
400.505	7.87
400.712	7.82
400.919	7.8
401.126	8.28
401.333	8.32
401.54	8.38
401.748	8.07
401.955	7.65
402.162	7.65
402.369	7.83
402.576	7.67
402.783	7.47
402.99	7.43
403.197	7.51
403.404	7.32
403.611	7.19
403.818	7.21
404.025	7.53
404.232	7.78
404.439	7.67
404.646	7.51
404.853	7.4
405.06	7.32
405.267	7.28
405.474	7.46
405.681	7.26
405.887	7.3
406.094	7.43
406.301	7.43
406.508	7.48
406.715	7.93
406.922	8.24
407.128	7.99
407.335	8.17
407.542	7.8
407.749	7.51
407.955	7.54
408.162	7.6
408.369	7.37
408.575	7.45
408.782	7.17
408.989	6.86
409.195	6.7
409.402	7.06
409.609	6.63
409.815	6.67
410.022	6.68
410.228	6.98
410.435	7.01
410.642	7.28
410.848	7.02
411.055	7.22
411.261	7.24
411.468	7.53
411.674	7.56
411.881	7.7
412.087	7.75
412.294	7.76
412.5	7.63
412.706	7.57
412.913	7.51
413.119	7.66
413.326	7.64
413.532	7.51
413.738	7.21
413.945	6.92
414.151	7.26
414.357	7.33
414.564	7.2
414.77	7.09
414.976	7.21
415.182	6.84
415.389	7.09
415.595	7.1
415.801	7.06
416.007	7.23
416.214	7.6
416.42	7.24
416.626	7.17
416.832	7.22
417.038	7.13
417.244	7.01
417.45	7.11
417.657	6.87
417.863	7.02
418.069	6.76
418.275	6.73
418.481	6.6
418.687	6.58
418.893	6.61
419.099	6.69
419.305	6.79
419.511	6.74
419.717	6.79
419.923	6.74
420.129	6.61
420.335	6.85
420.541	6.72
420.746	6.68
420.952	6.81
421.158	6.75
421.364	6.67
421.57	6.64
421.776	6.66
421.982	6.58
422.187	6.55
422.393	6.42
422.599	6.31
422.805	6.4
423.01	6.34
423.216	6.25
423.422	6.1
423.628	6.12
423.833	6.12
424.039	5.81
424.245	5.87
424.45	5.96
424.656	6.16
424.862	6.17
425.067	6
425.273	5.99
425.478	6
425.684	6.1
425.889	5.99
426.095	5.91
426.301	6.13
426.506	5.94
426.712	5.83
426.917	5.62
427.123	5.71
427.328	5.74
427.533	5.67
427.739	5.69
427.944	5.54
428.15	5.54
428.355	5.35
428.561	5.22
428.766	5.4
428.971	5.31
429.177	5.29
429.382	4.98
429.587	5.08
429.793	5.25
429.998	4.85
430.203	4.96
430.408	4.92
430.614	5.14
430.819	5.41
431.024	5.41
431.229	5.49
431.434	5.65
431.64	5.84
431.845	5.81
432.05	5.59
432.255	5.89
432.46	5.98
432.665	6.1
432.87	6.06
433.076	6.01
433.281	6.14
433.486	6.09
433.691	6.12
433.896	6
434.101	5.86
434.306	6.09
434.511	6.06
434.716	6.01
434.921	5.84
435.126	5.84
435.331	5.75
435.535	5.59
435.74	5.51
435.945	5.41
436.15	5.31
436.355	5.48
436.56	5.4
436.765	5.44
436.97	5.54
437.174	5.68
437.379	5.99
437.584	6.07
437.789	6.07
437.993	6.24
438.198	6.28
438.403	6.54
438.608	6.43
438.812	6.41
439.017	6.42
439.222	6.37
439.426	6.33
439.631	6.23
439.836	6.43
440.04	6.55
440.245	6.55
440.45	6.49
440.654	6.31
440.859	6.38
441.063	6.38
441.268	6.42
441.472	6.39
441.677	6.43
441.881	6.23
442.086	6.26
442.29	6.06
442.495	6.12
442.699	6.19
442.904	6.32
443.108	6.34
443.312	6.35
443.517	6.14
443.721	6.25
443.925	6.09
444.13	6.1
444.334	5.81
444.538	5.87
444.743	5.61
444.947	5.61
445.151	5.61
445.356	5.5
445.56	5.37
445.764	5.54
445.968	5.44
446.173	5.54
446.377	5.58
446.581	5.62
446.785	5.67
446.989	5.79
447.193	5.76
447.398	5.72
447.602	5.82
447.806	5.8
448.01	5.69
448.214	5.78
448.418	5.78
448.622	5.85
448.826	5.77
449.03	5.73
449.234	5.6
449.438	5.54
449.642	5.62
449.846	5.38
450.05	5.57
450.254	5.68
450.458	5.5
450.662	5.55
450.866	5.53
451.069	5.48
451.273	5.58
451.477	5.65
451.681	5.7
451.885	5.59
452.089	5.81
452.292	5.83
452.496	5.84
452.7	6.11
452.904	6.02
453.107	6.03
453.311	6.07
453.515	5.98
453.719	6.2
453.922	6.26
454.126	6.31
454.33	6.23
454.533	6.09
454.737	6.01
454.94	5.76
455.144	5.69
455.348	5.51
455.551	5.55
455.755	5.7
455.958	5.29
456.162	4.97
456.365	4.99
456.569	5.14
456.772	5.27
456.976	5.4
457.179	5.33
457.383	5.49
457.586	5.75
457.79	5.6
457.993	5.41
458.196	5.67
458.4	5.91
458.603	5.94
458.807	6.03
459.01	5.97
459.213	5.75
459.417	5.88
459.62	5.74
459.823	5.56
460.026	5.63
460.23	5.72
460.433	5.64
460.636	5.61
460.839	5.61
461.042	5.38
461.246	5.56
461.449	5.64
461.652	5.69
461.855	5.9
462.058	5.95
462.261	6.1
462.464	5.94
462.668	5.87
462.871	5.88
463.074	5.89
463.277	6.09
463.48	5.84
463.683	5.93
463.886	5.88
464.089	5.76
464.292	5.79
464.495	5.7
464.698	5.82
464.901	5.86
465.104	5.95
465.306	5.85
465.509	5.64
465.712	5.78
465.915	5.8
466.118	5.87
466.321	5.79
466.524	5.94
466.726	6.03
466.929	6.19
467.132	6.02
467.335	5.94
467.538	6.09
467.74	6.11
467.943	5.95
468.146	6.03
468.348	6.1
468.551	6.25
468.754	6.16
468.956	6.05
469.159	5.96
469.362	6.15
469.564	6.26
469.767	6.18
469.969	6.2
470.172	6.24
470.375	6.05
470.577	5.7
470.78	5.54
470.982	5.68
471.185	5.7
471.387	5.69
471.59	5.74
471.792	5.83
471.995	5.88
472.197	5.81
472.399	5.8
472.602	5.93
472.804	6.27
473.007	6.52
473.209	6.38
473.411	6.4
473.614	6.32
473.816	6.41
474.018	6.15
474.22	6.07
474.423	6.35
474.625	6.35
474.827	6.4
475.03	6.24
475.232	6.02
475.434	6.03
475.636	5.84
475.838	6.09
476.04	6.07
476.243	6.19
476.445	6.27
476.647	6.05
476.849	6.18
477.051	6.06
477.253	6.16
477.455	6.05
477.657	6.08
477.859	6.25
478.061	6.11
478.263	5.89
478.465	5.82
478.667	5.89
478.869	5.86
479.071	5.73
479.273	5.71
479.475	5.45
479.677	5.42
479.879	5.31
480.081	5.28
480.283	5.31
480.485	5.45
480.686	5.38
480.888	5.19
481.09	5.29
481.292	5.28
481.494	5.32
481.695	5.57
481.897	5.72
482.099	5.77
482.301	5.82
482.502	5.77
482.704	5.82
482.906	5.84
483.107	5.93
483.309	5.84
483.511	5.84
483.712	5.78
483.914	5.76
484.115	5.75
484.317	5.78
484.519	5.76
484.72	5.79
484.922	5.78
485.123	5.78
485.325	5.72
485.526	5.8
485.728	5.75
485.929	5.81
486.131	5.71
486.332	5.7
486.534	5.65
486.735	5.67
486.936	5.69
487.138	5.65
487.339	5.64
487.541	5.57
487.742	5.49
487.943	5.54
488.144	5.51
488.346	5.55
488.547	5.5
488.748	5.47
488.95	5.48
489.151	5.42
489.352	5.43
489.553	5.45
489.755	5.57
489.956	5.64
490.157	5.61
490.358	5.62
490.559	5.63
490.76	5.7
490.961	5.74
491.163	5.52
491.364	5.52
491.565	5.41
491.766	5.4
491.967	5.38
492.168	5.42
492.369	5.45
492.57	5.35
492.771	5.35
492.972	5.28
493.173	5.2
493.374	5.4
493.575	5.38
493.776	5.48
493.976	5.48
494.177	5.5
494.378	5.5
494.579	5.41
494.78	5.66
494.981	5.76
495.182	5.84
495.382	5.99
495.583	5.85
495.784	5.84
495.985	5.9
496.185	5.84
496.386	5.85
496.587	5.93
496.788	6.04
496.988	5.97
497.189	6.01
497.39	6.07
497.59	5.91
497.791	5.92
497.992	5.91
498.192	5.85
498.393	5.95
498.593	5.97
498.794	5.94
498.994	5.94
499.195	6.01
499.395	5.87
499.596	5.9
499.796	6.03
499.997	6
500.197	6.17
500.398	6.12
500.598	6.06
500.799	6.13
500.999	6.14
501.199	6.12
501.4	6.2
501.6	6.26
501.801	6.24
502.001	6.25
502.201	6.4
502.402	6.29
502.602	6.44
502.802	6.62
503.002	6.53
503.203	6.53
503.403	6.63
503.603	6.38
503.803	6.4
504.003	6.33
504.204	6.43
504.404	6.63
504.604	6.68
504.804	6.76
505.004	6.74
505.204	6.8
505.404	6.86
505.604	6.86
505.804	7.02
506.005	7.14
506.205	7.23
506.405	7.26
506.605	7.02
506.805	7.06
507.005	7.14
507.204	7.13
507.404	7.03
507.604	6.98
507.804	7.09
508.004	7.1
508.204	7.02
508.404	7.2
508.604	7.13
508.804	7.41
509.003	7.43
509.203	7.52
509.403	7.66
509.603	7.9
509.803	7.93
510.002	8.1
510.202	8.16
510.402	8.3
510.602	8.34
510.801	8.35
511.001	8.28
511.201	8.35
511.4	8.38
511.6	8.39
511.8	8.38
511.999	8.46
512.199	8.45
512.398	8.58
512.598	8.71
512.797	8.57
512.997	8.75
513.197	8.8
513.396	8.94
513.596	8.96
513.795	8.96
513.994	9.09
514.194	9.24
514.393	9.43
514.593	9.54
514.792	9.51
514.992	9.78
515.191	9.9
515.39	10.01
515.59	10.05
515.789	10.25
515.988	10.24
516.188	10.38
516.387	10.49
516.586	10.49
516.786	10.58
516.985	10.68
517.184	10.76
517.383	10.95
517.582	11.04
517.782	11.18
517.981	11.17
518.18	11.47
518.379	11.5
518.578	11.57
518.777	11.6
518.976	11.74
519.176	11.85
519.375	11.94
519.574	11.94
519.773	12
519.972	12.1
520.171	12.27
520.37	12.19
520.569	12.16
520.768	12.23
520.967	12.27
521.166	12.24
521.365	12.37
521.564	12.49
521.762	12.67
521.961	12.88
522.16	13.16
522.359	13.2
522.558	13.48
522.757	13.72
522.956	13.78
523.154	14.04
523.353	14.2
523.552	14.31
523.751	14.31
523.949	14.41
524.148	14.55
524.347	14.44
524.546	14.57
524.744	14.67
524.943	14.83
525.142	14.97
525.34	15.04
525.539	15.26
525.737	15.3
525.936	15.55
526.135	15.6
526.333	15.56
526.532	15.69
526.73	15.76
526.929	15.86
527.127	15.97
527.326	16.08
527.524	16.14
527.723	16.13
527.921	16.23
528.12	16.26
528.318	16.34
528.516	16.5
528.715	16.57
528.913	16.64
529.112	16.69
529.31	16.78
529.508	16.83
529.707	16.84
529.905	16.98
530.103	17.03
530.301	17.11
530.5	17.14
530.698	17.13
530.896	17.2
531.094	17.3
531.293	17.42
531.491	17.51
531.689	17.72
531.887	17.99
532.085	18.01
532.283	18.22
532.481	18.34
532.68	18.58
532.878	18.73
533.076	18.9
533.274	18.93
533.472	18.99
533.67	19.02
533.868	19.03
534.066	19.04
534.264	19.17
534.462	19.29
534.66	19.35
534.858	19.26
535.056	19.4
535.253	19.41
535.451	19.64
535.649	19.75
535.847	19.86
536.045	19.92
536.243	20.17
536.441	20.3
536.638	20.27
536.836	20.38
537.034	20.72
537.232	20.77
537.43	20.86
537.627	20.81
537.825	20.83
538.023	20.88
538.22	20.93
538.418	20.9
538.616	20.78
538.813	20.83
539.011	20.88
539.209	20.85
539.406	21.02
539.604	21.21
539.801	21.46
539.999	21.65
540.196	21.84
540.394	22.03
540.591	22.15
540.789	22.19
540.986	22.3
541.184	22.37
541.381	22.44
541.579	22.51
541.776	22.49
541.974	22.55
542.171	22.55
542.368	22.64
542.566	22.65
542.763	22.66
542.96	22.88
543.158	23.01
543.355	23.16
543.552	23.27
543.75	23.34
543.947	23.44
544.144	23.5
544.341	23.54
544.539	23.55
544.736	23.7
544.933	23.78
545.13	23.91
545.327	23.89
545.524	23.89
545.722	23.93
545.919	24.01
546.116	24.24
546.313	24.4
546.51	24.62
546.707	24.72
546.904	24.77
547.101	24.95
547.298	24.97
547.495	25.14
547.692	25.35
547.889	25.26
548.086	25.29
548.283	25.4
548.48	25.35
548.677	25.48
548.874	25.38
549.07	25.56
549.267	25.64
549.464	25.72
549.661	25.86
549.858	25.8
550.055	26.03
550.251	26.19
550.448	26.27
550.645	26.24
550.842	26.23
551.038	26.5
551.235	26.64
551.432	26.54
551.628	26.62
551.825	26.63
552.022	26.75
552.218	27.02
552.415	27.11
552.612	26.93
552.808	27.09
553.005	27.27
553.201	27.32
553.398	27.15
553.594	27.26
553.791	27.42
553.987	27.49
554.184	27.64
554.38	27.47
554.577	27.51
554.773	27.55
554.97	27.69
555.166	27.64
555.362	27.78
555.559	27.96
555.755	28.01
555.952	27.92
556.148	27.84
556.344	27.84
556.541	28.01
556.737	28.27
556.933	28.63
557.129	28.81
557.326	28.87
557.522	28.74
557.718	28.79
557.914	28.84
558.11	29.02
558.307	29.19
558.503	29.36
558.699	29.45
558.895	29.28
559.091	29.19
559.287	29.12
559.483	29.23
559.679	29.74
559.876	29.97
560.072	30.28
560.268	30.32
560.464	30.56
560.66	30.62
560.856	30.89
561.052	30.9
561.247	31.28
561.443	31.39
561.639	31.56
561.835	31.5
562.031	31.4
562.227	31.32
562.423	31.46
562.619	31.39
562.815	31.54
563.01	31.5
563.206	31.63
563.402	31.37
563.598	31.54
563.793	31.49
563.989	31.52
564.185	31.68
564.381	31.83
564.576	31.77
564.772	31.87
564.968	31.85
565.163	31.97
565.359	31.96
565.555	32.03
565.75	32.26
565.946	32.39
566.141	32.26
566.337	32.44
566.532	32.47
566.728	32.52
566.923	32.62
567.119	32.57
567.314	32.36
567.51	32.57
567.705	32.62
567.901	32.45
568.096	32.54
568.292	32.68
568.487	32.75
568.682	32.81
568.878	32.97
569.073	33.03
569.268	33.14
569.464	33.34
569.659	33.36
569.854	33.43
570.05	33.65
570.245	33.8
570.44	34.02
570.635	33.86
570.831	33.91
571.026	34.01
571.221	34.08
571.416	34.12
571.611	34.22
571.806	34.22
572.002	34.2
572.197	34.1
572.392	33.94
572.587	33.86
572.782	33.92
572.977	33.99
573.172	33.94
573.367	33.75
573.562	33.85
573.757	33.87
573.952	33.82
574.147	33.98
574.342	34.25
574.537	34.08
574.732	34.22
574.927	34.32
575.121	34.34
575.316	34.33
575.511	34.51
575.706	34.44
575.901	34.36
576.096	34.42
576.29	34.46
576.485	34.21
576.68	34.41
576.875	34.3
577.069	34.32
577.264	34.34
577.459	34.44
577.654	34.55
577.848	34.72
578.043	34.95
578.238	35.04
578.432	34.89
578.627	34.84
578.821	35.28
579.016	35.48
579.21	35.67
579.405	35.69
579.6	35.63
579.794	35.59
579.989	35.52
580.183	35.46
580.378	35.58
580.572	35.67
580.766	35.81
580.961	35.3
581.155	35.09
581.35	34.88
581.544	34.86
581.738	35.08
581.933	35.17
582.127	35.06
582.321	35.28
582.516	35.53
582.71	35.66
582.904	35.36
583.099	35.55
583.293	35.65
583.487	35.93
583.681	36.19
583.875	36.25
584.07	36.3
584.264	36.5
584.458	36.3
584.652	36.11
584.846	36.01
585.04	36.27
585.234	36.3
585.428	36.33
585.623	36.33
585.817	36.52
586.011	36.41
586.205	36.26
586.399	36.24
586.593	36.35
586.787	36.38
586.981	36.47
587.174	36.53
587.368	36.9
587.562	36.94
587.756	36.84
587.95	36.73
588.144	36.81
588.338	36.62
588.532	36.75
588.725	36.65
588.919	36.91
589.113	36.91
589.307	37.04
589.501	36.7
589.694	36.84
589.888	37.07
590.082	36.75
590.275	36.93
590.469	37.33
590.663	37.33
590.856	37.65
591.05	37.52
591.244	37.67
591.437	37.55
591.631	37.88
591.824	37.73
592.018	37.6
592.212	37.62
592.405	37.38
592.599	37.39
592.792	37.45
592.986	37.54
593.179	37.49
593.372	37.41
593.566	37.62
593.759	37.55
593.953	37.76
594.146	37.64
594.339	37.91
594.533	38.25
594.726	38.2
594.92	38.19
595.113	38.1
595.306	38.08
595.499	38.07
595.693	38.07
595.886	38.08
596.079	37.86
596.272	38.18
596.466	38.17
596.659	38.05
596.852	37.94
597.045	37.83
597.238	37.85
597.431	38.02
597.624	38.35
597.818	38.35
598.011	38.49
598.204	38.76
598.397	38.62
598.59	38.56
598.783	38.56
598.976	38.63
599.169	39.15
599.362	39.03
599.555	38.84
599.748	38.73
599.941	38.83
600.134	38.85
600.326	38.54
600.519	38.55
600.712	38.75
600.905	38.63
601.098	38.72
601.291	38.31
601.483	38.4
601.676	38.71
601.869	38.65
602.062	38.42
602.255	38.28
602.447	38.4
602.64	38.87
602.833	38.93
603.025	39.03
603.218	39.13
603.411	39.19
603.603	39.32
603.796	39.21
603.989	39.19
604.181	39.3
604.374	39.37
604.566	39.43
604.759	39.19
604.951	39.03
605.144	39.05
605.336	39.07
605.529	39.02
605.721	38.94
605.914	38.94
606.106	38.94
606.299	39
606.491	39.13
606.683	39.21
606.876	39.25
607.068	39.46
607.26	39.55
607.453	39.66
607.645	39.91
607.837	39.84
608.03	39.66
608.222	39.61
608.414	39.52
608.606	39.42
608.799	39.38
608.991	39.14
609.183	39.01
609.375	39.08
609.567	38.63
609.759	38.59
609.952	38.58
610.144	38.87
610.336	38.72
610.528	38.7
610.72	38.58
610.912	38.37
611.104	38.42
611.296	38.33
611.488	38.32
611.68	38.7
611.872	38.41
612.064	38.37
612.256	38.36
612.448	38.48
612.64	38.55
612.832	38.62
613.023	39.03
613.215	38.91
613.407	39.02
613.599	38.93
613.791	38.81
613.983	39.05
614.174	39.28
614.366	39.07
614.558	39.37
614.75	39.53
614.941	39.65
615.133	39.79
615.325	40.05
615.516	40.24
615.708	40.33
615.9	40.51
616.091	40.37
616.283	40.43
616.475	40.81
616.666	40.66
616.858	40.63
617.049	40.35
617.241	40.23
617.432	40.24
617.624	40.17
617.815	40.12
618.007	40.4
618.198	40.72
618.39	40.48
618.581	40.3
618.773	40.59
618.964	40.89
619.155	41.14
619.347	41.26
619.538	41.14
619.729	41.31
619.921	41.35
620.112	40.87
620.303	40.71
620.494	40.7
620.686	40.82
620.877	40.89
621.068	40.38
621.259	40.35
621.451	40.2
621.642	40.59
621.833	40.02
622.024	39.97
622.215	40.39
622.406	40.5
622.597	40.78
622.788	40.7
622.98	40.25
623.171	40.6
623.362	40.7
623.553	40.84
623.744	40.53
623.935	41.21
624.126	40.92
624.317	40.51
624.508	40.28
624.698	40.36
624.889	40.33
625.08	40.6
625.271	40.64
625.462	40.48
625.653	40.58
625.844	40.5
626.034	40.25
626.225	40.78
626.416	40.79
626.607	40.97
626.798	40.62
626.988	40.55
627.179	40.67
627.37	40.67
627.56	40.7
627.751	40.59
627.942	40.65
628.132	40.72
628.323	40.67
628.514	41.08
628.704	41.05
628.895	41.19
629.085	41.19
629.276	40.82
629.466	40.94
629.657	41.19
629.847	41.24
630.038	41.35
630.228	41.39
630.419	41.31
630.609	41.16
630.8	41.19
630.99	41.21
631.181	41.13
631.371	41.38
631.561	41.21
631.752	41.33
631.942	41.18
632.132	41.36
632.323	41.29
632.513	41.51
632.703	41.23
632.893	41.48
633.084	41.78
633.274	41.8
633.464	41.79
633.654	41.79
633.844	41.54
634.034	41.59
634.225	41.53
634.415	41.57
634.605	41.13
634.795	41.36
634.985	41.16
635.175	40.87
635.365	41.11
635.555	41.2
635.745	40.99
635.935	40.91
636.125	41.14
636.315	41
636.505	41.06
636.695	41.14
636.885	41.32
637.075	41
637.265	41.15
637.455	41.21
637.644	40.98
637.834	41.32
638.024	41.4
638.214	41.16
638.404	40.98
638.593	41.22
638.783	41.44
638.973	41.11
639.163	41.42
639.352	41.65
639.542	41.86
639.732	42.11
639.921	42.05
640.111	42.08
640.301	42.3
640.49	42.85
640.68	41.87
640.87	42.26
641.059	42.13
641.249	42.36
641.438	42.05
641.628	41.68
641.817	41.86
642.007	41.72
642.196	41.53
642.386	41.52
642.575	41.58
642.764	42.6
642.954	41.95
643.143	42.1
643.333	41.9
643.522	41.94
643.711	41.87
643.901	41.64
644.09	41.65
644.279	41.86
644.469	41.98
644.658	42.03
644.847	41.83
645.036	42.47
645.226	42.87
645.415	42.77
645.604	42.79
645.793	42.94
645.982	43
646.171	43.25
646.361	43.19
646.55	43.03
646.739	42.38
646.928	42.45
647.117	41.92
647.306	41.73
647.495	42.04
647.684	42.1
647.873	41.97
648.062	41.94
648.251	42.02
648.44	42.17
648.629	42.11
648.818	42.38
649.007	42.34
649.196	42.19
649.384	42.38
649.573	42.38
649.762	42.6
649.951	42.71
650.14	42.53
650.328	42.23
650.517	42.38
650.706	42.37
650.895	42.35
651.083	42.14
651.272	42.39
651.461	42.49
651.65	42.37
651.838	42.24
652.027	42.77
652.216	43.14
652.404	43.42
652.593	43.62
652.781	43.82
652.97	43.83
653.158	43.78
653.347	44.12
653.535	43.8
653.724	43.99
653.912	44.03
654.101	43.8
654.289	43.72
654.478	43.56
654.666	42.89
654.855	42.93
655.043	43.11
655.231	43.09
655.42	42.78
655.608	43.14
655.796	42.86
655.985	42.87
656.173	42.79
656.361	42.79
656.55	42.63
656.738	42.85
656.926	43.15
657.114	43.28
657.302	43.62
657.491	43.78
657.679	43.34
657.867	43.5
658.055	43.52
658.243	43.23
658.431	43.07
658.619	43.16
658.807	43.26
658.996	42.97
659.184	42.76
659.372	42.75
659.56	42.86
659.748	43.04
659.936	43.22
660.124	42.99
660.311	43.01
660.499	43.08
660.687	43.13
660.875	43.25
661.063	43.39
661.251	43.52
661.439	43.63
661.627	43.47
661.814	43.52
662.002	43.41
662.19	43.71
662.378	43.57
662.565	43.67
662.753	43.87
662.941	43.73
663.129	43.45
663.316	43.69
663.504	43.47
663.692	43.41
663.879	43.49
664.067	43.3
664.254	43.2
664.442	43.41
664.63	43.52
664.817	43.35
665.005	43.68
665.192	43.78
665.38	43.55
665.567	43.72
665.755	43.55
665.942	43.25
666.13	43.24
666.317	43.47
666.504	43.44
666.692	43.65
666.879	43.67
667.067	43.47
667.254	43.31
667.441	43.08
667.629	42.61
667.816	43.07
668.003	43.09
668.19	43.38
668.378	43.21
668.565	43.54
668.752	43.26
668.939	43.34
669.127	43.18
669.314	42.91
669.501	43.23
669.688	43.7
669.875	43.47
670.062	43.92
670.249	43.43
670.436	43.4
670.623	43.29
670.81	43.15
670.997	43.28
671.184	43.29
671.371	43.71
671.558	43.67
671.745	43.99
671.932	44.12
672.119	44.18
672.306	44.27
672.493	44.19
672.68	44.43
672.867	44.75
673.054	44.29
673.24	44.69
673.427	44.42
673.614	44.34
673.801	44.46
673.988	44.4
674.174	44.13
674.361	44.35
674.548	44.59
674.734	44.38
674.921	44.42
675.108	44.66
675.294	44.24
675.481	44.36
675.668	44.16
675.854	43.4
676.041	42.71
676.227	42.93
676.414	43.07
676.601	43.48
676.787	43.43
676.974	43.02
677.16	43.21
677.347	43.38
677.533	43.62
677.719	43.74
677.906	43.89
678.092	44.87
678.279	44.26
678.465	44.28
678.651	44.13
678.838	43.96
679.024	43.77
679.21	43.66
679.397	43.68
679.583	43.97
679.769	43.9
679.955	43.95
680.142	43.91
680.328	44.35
680.514	44.92
680.7	44.36
680.886	44.48
681.073	44.9
681.259	44.61
681.445	44.42
681.631	44.16
681.817	44.57
682.003	44.39
682.189	43.85
682.375	43.77
682.561	43.07
682.747	43.63
682.933	43.92
683.119	44.12
683.305	44.11
683.491	43.99
683.677	43.99
683.863	43.23
684.049	43.44
684.235	43.61
684.42	43.75
684.606	44.02
684.792	43.59
684.978	43.25
685.164	43.13
685.349	43.51
685.535	44.15
685.721	43.89
685.907	44.41
686.092	44.65
686.278	45.08
686.464	44.94
686.649	44.61
686.835	44.54
687.021	44.29
687.206	43.95
687.392	44.31
687.577	44.2
687.763	44.3
687.948	44.51
688.134	44.31
688.319	44.15
688.505	44.15
688.69	43.91
688.876	43.82
689.061	44.07
689.247	44.29
689.432	44.22
689.618	44.21
689.803	44.37
689.988	44.54
690.174	45.11
690.359	44.89
690.544	44.76
690.73	45.05
690.915	45.19
691.1	45.09
691.285	44.52
691.471	44.56
691.656	44.11
691.841	44.37
692.026	43.74
692.211	43.33
692.396	43.35
692.582	43.3
692.767	43.21
692.952	43.68
693.137	43.67
693.322	44.41
693.507	43.98
693.692	44.57
693.877	44.66
694.062	45.39
694.247	45.19
694.432	45.75
694.617	45.62
694.802	46.38
694.987	45.42
695.172	45.68
695.357	45.4
695.541	45.06
695.726	44.57
695.911	44.16
696.096	43.67
696.281	43.73
696.466	43.27
696.65	43.6
696.835	43.3
697.02	43.78
697.204	43.84
697.389	44.36
697.574	44.56
697.759	44.86
697.943	44.55
698.128	44.5
698.312	44.67
698.497	44.85
698.682	44.82
698.866	44.48
699.051	44.84
699.235	44.75
699.42	44.36
699.604	44.22
699.789	44.05
699.973	44.19
700.158	44.28
700.342	44.02
700.527	44.24
700.711	44.49
700.895	44.61
701.08	44.15
701.264	44.74
701.448	44.85
701.633	45.45
701.817	45.87
702.001	46.23
702.186	45.95
702.37	46.66
702.554	46.25
702.738	46.13
702.923	46.98
703.107	47
703.291	46.84
703.475	47.07
703.659	46.62
703.843	46.69
704.027	46.41
704.212	46.8
704.396	46.14
704.58	45.73
704.764	45.57
704.948	44.71
705.132	45.05
705.316	44.98
705.5	44.73
705.684	45.22
705.868	45.41
706.052	45.29
706.235	45.87
706.419	45.52
706.603	45.49
706.787	45.34
706.971	46.06
707.155	45.94
707.339	45.17
707.522	44.78
707.706	44.29
707.89	43.05
708.074	43.51
708.257	42.58
708.441	43.21
708.625	43.13
708.808	44.04
708.992	43.48
709.176	43.89
709.359	44.07
709.543	44.84
709.727	45.21
709.91	45.78
710.094	46.27
710.277	46.58
710.461	46.14
710.644	46.44
710.828	45.24
711.011	44.94
711.195	44.88
711.378	44.62
711.562	44.17
711.745	43.63
711.928	44.04
712.112	43.07
712.295	42.82
712.478	43.27
712.662	43.41
712.845	43.38
713.028	43.56
713.212	43.06
713.395	43.62
713.578	44.08
713.761	44.88
713.945	44.33
714.128	44.86
714.311	45.13
714.494	45.21
714.677	45.11
714.86	45.54
715.043	45.51
715.227	45.42
715.41	45.21
715.593	45.75
715.776	46.07
715.959	45.65
716.142	45.95
716.325	45.55
716.508	45.2
716.691	45.05
716.874	45.12
717.057	45.11
717.239	46.22
717.422	45.94
717.605	44.88
717.788	43.79
717.971	44.37
718.154	44.11
718.337	44.45
718.519	44.35
718.702	44.29
718.885	44.83
719.068	44.77
719.25	44.41
719.433	44.37
719.616	44.46
719.798	44.18
719.981	44.4
720.164	43.61
720.346	43.85
720.529	44.76
720.712	44.53
720.894	44.12
721.077	44.79
721.259	44.69
721.442	44.72
721.624	44.82
721.807	44.87
721.989	45.32
722.172	47.2
722.354	46.69
722.537	46.14
722.719	47.09
722.901	47.17
723.084	47.95
723.266	47.79
723.448	47.64
723.631	47.27
723.813	48.15
723.995	47.7
724.178	46.4
724.36	47.11
724.542	46.64
724.724	46.27
724.907	46.2
725.089	44.5
725.271	44.29
725.453	44.97
725.635	45.18
725.817	44.75
725.999	44.67
726.181	44.62
726.364	44.34
726.546	44.72
726.728	45.07
726.91	44.08
727.092	44.33
727.274	44.07
727.456	43.4
727.638	43.12
727.819	44.08
728.001	44.19
728.183	44.9
728.365	44.55
728.547	44.57
728.729	44.34
728.911	44.96
729.093	45.82
729.274	45.94
729.456	47.38
729.638	48.74
729.82	47.87
730.001	48.08
730.183	48.03
730.365	48.28
730.546	48.99
730.728	48.2
730.91	48.14
731.091	47.33
731.273	47.94
731.455	46.95
731.636	46.17
731.818	45.75
731.999	45.49
732.181	44.69
732.362	44.59
732.544	43.24
732.725	44.45
732.907	44.68
733.088	44.85
733.27	44.66
733.451	44.67
733.633	45.16
733.814	45.46
733.995	45.38
734.177	44.98
734.358	45.55
734.539	46.38
734.721	46.3
734.902	46.77
735.083	46.98
735.264	46.45
735.446	47.59
735.627	46.04
735.808	47.11
735.989	47.11
736.17	47.14
736.351	47.14
736.533	47.66
736.714	48.13
736.895	47.89
737.076	47.59
737.257	47.9
737.438	45.66
737.619	46.27
737.8	45.49
737.981	45.89
738.162	46.09
738.343	45.9
738.524	45.62
738.705	45.15
738.886	45.25
739.067	44.88
739.247	44.43
739.428	44.85
739.609	45.69
739.79	46.03
739.971	46.52
740.151	46.69
740.332	47.5
740.513	47.03
740.694	46.46
740.874	46.09
741.055	46.85
741.236	46.38
741.417	47.98
741.597	47.76
741.778	48.1
741.958	48.3
742.139	48.19
742.32	47.3
742.5	46.58
742.681	46.8
742.861	47.51
743.042	46.65
743.222	47.18
743.403	46.3
743.583	46.52
743.764	45.91
743.944	44.94
744.124	45.81
744.305	45.85
744.485	46.7
744.666	47.53
744.846	45.91
745.026	46.57
745.207	47.07
745.387	48.14
745.567	47.17
745.747	47.14
745.928	46.8
746.108	46.32
746.288	47.21
746.468	47.68
746.648	47.57
746.829	50.03
747.009	50.55
747.189	50.49
747.369	50.8
747.549	51.33
747.729	51.02
747.909	51.01
748.089	51.43
748.269	50.49
748.449	49.37
748.629	48.64
748.809	47.17
748.989	45.76
749.169	45.09
749.349	44.24
749.529	43.56
749.709	43.04
749.889	43.14
750.068	42.68
750.248	43.02
750.428	42.44
750.608	42
750.788	42.2
750.967	43.12
751.147	43.51
751.327	42.27
751.507	43.2
751.686	43.19
751.866	43.31
752.046	44.17
752.225	43.9
752.405	44.47
752.585	43.64
752.764	42.99
752.944	43.09
753.123	42.44
753.303	42.57
753.482	42.03
753.662	42.34
753.841	42.5
754.021	40.84
754.2	40.66
754.38	41.33
754.559	42.16
754.739	42.17
754.918	41.53
755.097	41.99
755.277	43.04
755.456	42.52
755.635	43.23
755.815	43.58
755.994	44.48
756.173	44.29
756.352	43.24
756.532	42.91
756.711	43.09
756.89	43.76
757.069	45.97
757.248	45.88
757.427	45.07
757.607	45.19
757.786	45.39
757.965	45.43
758.144	45.12
758.323	45.35
758.502	45.2
758.681	45.95
758.86	46.12
759.039	44.14
759.218	44.7
759.397	47.12
759.576	46.9
759.755	45.77
759.934	46.32
760.113	45.84
760.291	46.72
760.47	48.14
760.649	46.95
760.828	46.57
761.007	46.79
761.186	45.99
761.364	43.62
761.543	42.91
761.722	43.27
761.901	42.07
762.079	43.04
762.258	42.79
762.437	42.19
762.615	42.69
762.794	42.62
762.972	43.33
763.151	43.54
763.33	44.37
763.508	44.88
763.687	44.19
763.865	44.56
764.044	45.21
764.222	45.46
764.401	45.12
764.579	45.79
764.758	45.55
764.936	45.23
765.114	45.75
765.293	46.16
765.471	45.86
765.65	46.98
765.828	46.81
766.006	46.24
766.184	46.19
766.363	46.94
766.541	46.14
766.719	46.48
766.898	46.35
767.076	45.82
767.254	45.87
767.432	46.05
767.61	45.65
767.788	45.39
767.967	44.14
768.145	44.84
768.323	44.02
768.501	43.55
768.679	44.27
768.857	44.57
769.035	45.03
769.213	44.3
769.391	45.88
769.569	45.43
769.747	46.32
769.925	48.06
770.103	47.53
770.281	48.29
770.459	50.66
770.636	51.48
770.814	51.76
770.992	51.04
771.17	52.18
771.348	50.23
771.525	49.78
771.703	51.48
771.881	52.92
772.059	53.3
772.236	53.11
772.414	51.78
772.592	49.92
772.769	48.36
772.947	47.8
773.125	46.7
773.302	45.12
773.48	47.74
773.657	45.96
773.835	42.6
774.013	41.42
774.19	41.48
774.368	42.13
774.545	41.69
774.723	43.39
774.9	43.93
775.077	44.49
775.255	46.06
775.432	45.91
775.61	46.25
775.787	48.56
775.964	49.64
776.142	51
776.319	49.71
776.496	49.62
776.674	48.4
776.851	49.32
777.028	48.34
777.205	50.41
777.382	50.88
777.56	50.95
777.737	49.62
777.914	49.75
778.091	47.24
778.268	47.62
778.445	49.13
778.622	50.12
778.8	49.56
778.977	50.51
779.154	54.48
779.331	53.27
779.508	52.9
779.685	54.47
779.862	54.37
780.038	55.43
780.215	55.65
780.392	54.94
780.569	54.16
780.746	53.06
780.923	54.11
781.1	48.39
781.277	47.71
781.453	48.89
781.63	49.13
781.807	48.79
781.984	47.98
782.16	48.61
782.337	48.29
782.514	47.48
782.691	47.43
782.867	45.56
783.044	45.42
783.221	44.35
783.397	44.2
783.574	43.89
783.75	42.79
783.927	40.8
784.103	40.46
784.28	40.15
784.456	41.79
784.633	41.44
784.809	40.13
784.986	39.97
785.162	42.48
785.339	42.1
785.515	41.89
785.692	43.68
785.868	46.51
786.044	47.13
786.221	48.59
786.397	48.82
786.573	49.31
786.749	52.56
786.926	53.58
787.102	52.76
787.278	52.93
787.454	52.91
787.631	52.43
787.807	55.07
787.983	55.33
788.159	52.55
788.335	50.96
788.511	53.83
788.687	49.64
788.863	50.13
789.039	48.48
789.216	45.52
789.392	46.6
789.568	46.05
789.744	42.78
789.919	41.47
790.095	44.52
790.271	43.98
790.447	43.23
790.623	48.15
790.799	47.34
790.975	49.01
791.151	51.1
791.327	48.78
791.502	49.33
791.678	49.93
791.854	50.8
792.03	50.14
792.205	50.68
792.381	49.75
792.557	46.96
792.733	46.43
792.908	46.28
793.084	46.67
793.259	47.66
793.435	47.63
793.611	46.56
793.786	45.94
793.962	48.64
794.137	48.99
794.313	48.64
794.488	48.55
794.664	48.27
794.839	49.09
795.015	48.29
795.19	46.49
795.366	46.48
795.541	49.56
795.716	49.44
795.892	47.63
796.067	48.84
796.242	50.03
796.418	51.17
796.593	50.93
796.768	49.56
796.944	49.39
797.119	52.84
797.294	51.45
797.469	49.11
797.644	50.88
797.82	51.16
797.995	50.26
798.17	48.53
798.345	46.45
798.52	45.91
798.695	45.08
798.87	46.15
799.045	45.2
799.22	45.52
799.395	45.77
799.57	44.62
799.745	41.25
799.92	42.07
800.095	44.31
800.27	46.4
800.445	45.43
800.62	47
800.795	46.55
800.97	45.77
801.145	45.06
801.319	43.67
801.494	42.05
801.669	44.07
801.844	44.14
802.018	41
802.193	42.57
802.368	44.53
802.543	41.32
802.717	41.5
802.892	41.76
803.067	45.2
803.241	50.21
803.416	51.48
803.59	54.45
803.765	52.99
803.94	53.17
804.114	50.2
804.289	48.18
804.463	51.24
804.638	52.39
804.812	50.55
804.986	49.91
805.161	45.57
805.335	43.39
805.51	39.86
805.684	42.82
805.858	43.82
806.033	45.15
806.207	45.92
806.381	46.41
806.556	45.72
806.73	47.82
806.904	46.78
807.078	46.19
807.253	46.85
807.427	48.41
807.601	45.24
807.775	46.26
807.949	44.62
808.123	44.18
808.298	43.68
808.472	41.49
808.646	40.67
808.82	41.52
808.994	44.93
809.168	43.23
809.342	43
809.516	45.08
809.69	44.93
809.864	47.68
810.038	48.19
810.212	44.98
810.385	46.33
810.559	47.81
810.733	46.9
810.907	44.97
811.081	48.97
811.255	49.24
811.428	47.4
811.602	45.63
811.776	42.84
811.95	44.46
812.123	47.52
812.297	45.54
812.471	44.13
812.644	42.64
812.818	45.98
812.992	43.69
813.165	43.43
813.339	42.69
813.512	43.71
813.686	46.63
813.86	46.28
814.033	47.37
814.207	48.7
814.38	48.62
814.554	47.16
814.727	47.18
814.9	47.49
815.074	45.05
815.247	46.21
815.421	45.52
815.594	44.71
815.767	49.03
815.941	47.66
816.114	46.52
816.287	47.57
816.46	51.07
816.634	46.45
816.807	49.53
816.98	49.25
817.153	50.8
817.327	51.06
817.5	49.68
817.673	45.1
817.846	42.01
818.019	44.11
818.192	42.39
818.365	36.68
818.538	40.62
818.711	37.83
818.884	43.37
819.057	40.78
819.23	42.01
819.403	41.02
819.576	41.35
819.749	43.46
819.922	45.6
820.095	47.33
820.268	52.73
820.441	50.71
820.614	50.43
820.786	46.95
820.959	46.86
821.132	47.58
821.305	48.68
821.477	47.79
821.65	47.85
821.823	47.17
821.996	47.88
822.168	46.56
822.341	46.08
822.514	45.94
822.686	45.99
822.859	45.41
823.031	45.21
823.204	45.06
823.376	45.28
823.549	45.06
823.722	45.2
823.894	44.41
824.067	44.38
824.239	45.08
824.411	44.99
824.584	45.43
824.756	46.05
824.929	45.71
825.101	45.85
825.273	45.22
825.446	44.8
825.618	44.6
825.79	44.57
825.963	45.49
826.135	44.66
826.307	44.67
826.479	43.35
826.652	43.88
826.824	44.33
826.996	43.5
827.168	43.64
827.34	43.87
827.512	43.18
827.684	43.12
827.856	41.79
828.029	41.31
828.201	40.7
828.373	42.28
828.545	42.3
828.717	41.79
828.889	42.85
829.061	44.54
829.232	44.7
829.404	45.59
829.576	45.32
829.748	46.09
829.92	47.73
830.092	49.91
830.264	49.91
830.436	48.01
830.607	48.81
830.779	49.56
830.951	47.07
831.123	46.89
831.294	47.92
831.466	48.48
831.638	50.33
831.809	48.69
831.981	50.17
832.153	50.15
832.324	50.86
832.496	51.68
832.667	51.5
832.839	52.84
833.011	54.47
833.182	52.63
833.354	51.54
833.525	50.51
833.697	49.9
833.868	48.12
834.039	47.25
834.211	47.65
834.382	49.62
834.554	49.55
834.725	49.33
834.896	48.73
835.068	46.87
835.239	44.68
835.41	45.7
835.581	45.45
835.753	46.16
835.924	46.13
836.095	46.09
836.266	39.92
836.438	38.26
836.609	38.12
836.78	38.33
836.951	39.15
837.122	42.9
837.293	40.72
837.464	41.54
837.635	41.88
837.806	43.55
837.977	42.13
838.148	47.36
838.319	48.94
838.49	50.13
838.661	51.6
838.832	55.03
839.003	55.68
839.174	57.34
839.345	60.13
839.516	58.73
839.687	55.9
839.857	60.74
840.028	60.04
840.199	57.45
840.37	56.18
840.54	54.73
840.711	57.48
840.882	53.55
841.053	57.2
841.223	55.51
841.394	53.24
841.564	58.95
841.735	56.51
841.906	57.77
842.076	54.98
842.247	58.33
842.417	60.87
842.588	57.2
842.758	62.35
842.929	56.64
843.099	53.57
843.27	53.9
843.44	46.98
843.611	51.82
843.781	48.54
843.951	59.14
844.122	56.56
844.292	52.35
844.462	55.71
844.633	58.27
844.803	69.62
844.973	65.34
845.144	73.42
845.314	73.59
845.484	61.2
845.654	67.31
845.824	53.67
845.995	56.33
846.165	55.99
846.335	51.72
846.505	49.5
846.675	51.57
846.845	62.56
847.015	64.17
847.185	69.52
847.355	71.6
847.525	68.5
847.695	65.22
847.865	61.46
848.035	58.75
848.205	66.13
848.375	59.24
848.545	44.85
848.715	45.08
848.884	41.86
849.054	35.51
849.224	33.79
849.394	39.55
849.564	45.59
849.733	53.57
849.903	55.2
850.073	53.44
850.243	62.78
850.412	67.68
850.582	67.03
850.752	65.08
850.921	70.44
851.091	74.21
851.26	66.86
851.43	67.53
851.599	61.81
851.769	53.85
851.939	53.09
852.108	44.17
852.278	50.02
852.447	51.94
852.616	56.25
852.786	57.83
852.955	61.77
853.125	61.52
853.294	67.27
853.463	60.02
853.633	60.64
853.802	52.98
853.971	61.07
854.141	54.5
854.31	44.08
854.479	31.92
854.648	23.49
854.818	19.72
854.987	21.87
855.156	28.13
855.325	32.73
855.494	47.78
855.663	52.85
855.832	63.65
856.001	56.69
856.171	50.05
856.34	45.31
856.509	51.11
856.678	41.61
856.847	53.64
857.016	53.48
857.185	54.66
857.353	55.15
857.522	57.83
857.691	55.16
857.86	53.98
858.029	64.95
858.198	83.21
858.367	78.4
858.535	89.31
858.704	83.55
858.873	81.99
859.042	74.46
859.21	63.59
859.379	68.72
859.548	64.07
859.717	73.05
859.885	75.33
860.054	69.44
860.222	76.11
860.391	62.68
860.56	64.13
860.728	74.33
860.897	79.28
861.065	86.25
861.234	81.48
861.402	83.95
861.571	92.41
861.739	80.9
861.908	84.63
862.076	79.45
862.244	83.72
862.413	86.37
862.581	76.66
862.749	76.04
862.918	74.15
863.086	70.64
863.254	64.44
863.423	59.62
863.591	53.01
863.759	43.51
863.927	57.77
864.096	60.5
864.264	55.6
864.432	57.81
864.6	78.97
864.768	74.02
864.936	64.12
865.104	63.14
865.272	66.79
865.44	78.68
865.608	106.78
865.776	77.04
865.944	76.34
866.112	85.12
866.28	73.84
866.448	53.49
866.616	71.45
866.784	70.67
866.952	75.04
867.12	85.86
867.288	99.17
867.455	81.68
867.623	103.6
867.791	144.48
867.959	146.48
868.127	134.78
868.294	98.91
868.462	62.23
868.63	83.44
868.797	87.99
868.965	80.69
869.133	53.28
869.3	46.53
869.468	39.19
869.636	45.34
869.803	30.46
869.971	28.83
870.138	39.35
870.306	49.28
870.473	45.18
870.641	42.99
870.808	40.53
870.975	50.34
871.143	67.44
871.31	74.05
871.478	69.2
871.645	95.95
871.812	96.66
871.98	102.82
872.147	97.47
872.314	95.59
872.482	90.01
872.649	75.41
872.816	83
872.983	76.09
873.15	69.01
873.318	76.76
873.485	47.09
873.652	54.17
873.819	40.16
873.986	50.85
874.153	43.15
874.32	42.51
874.487	54.7
874.654	35.64
874.821	22.92
874.988	28.76
875.155	35.82
875.322	57.29
875.489	55.36
875.656	57.58
875.823	46.8
875.99	52.77
876.157	59.15
876.324	60.95
876.49	65.63
876.657	64.73
876.824	66.73
876.991	57.88
877.157	57.98
877.324	54.38
877.491	49.93
877.658	59.16
877.824	54.6
877.991	48.13
878.157	45.25
878.324	46.49
878.491	64.84
878.657	67.36
878.824	75.4
878.99	79.51
879.157	82.18
879.323	72.26
879.49	70.81
879.656	77.52
879.823	76.3
879.989	83.39
880.156	92.85
880.322	77.17
880.488	78.55
880.655	69.38
880.821	65.56
880.987	66.35
881.154	69.44
881.32	63.94
881.486	63.24
881.652	59.62
881.819	52.09
881.985	49.19
882.151	49.16
882.317	48.29
882.483	50.32
882.649	48.56
882.816	45.28
882.982	44.8
883.148	44.36
883.314	42.03
883.48	43.47
883.646	43.4
883.812	43.12
883.978	42.39
884.144	42.95
884.31	42.99
884.476	42.53
884.642	42.69
884.807	42.25
884.973	43.75
885.139	44.51
885.305	45.44
885.471	43.61
885.637	43.01
885.802	43.17
885.968	42.16
886.134	41.03
886.3	43.4
886.465	47.66
886.631	48.7
886.797	47.7
886.962	51.39
887.128	49.51
887.293	52.7
887.459	52.97
887.625	58.03
887.79	59.03
887.956	59.45
888.121	58.09
888.287	53.75
888.452	55.45
888.618	59.81
888.783	51.96
