Data from CB_069_Reflection_3.txt Node
Date: Sat Nov 14 10:57:53 EST 2015
User: robert
Spectrometer: USB4E03001
Autoset integration time: false
Trigger mode: 4
Integration Time (sec): 1.000000E-1
Scans to average: 15
Electric dark correction enabled: true
Nonlinearity correction enabled: false
Boxcar width: 5
Stray light correction enabled: false
XAxis mode: Wavelengths
Stop averaging: false
Number of Pixels in Spectrum: 3648
>>>>>Begin Spectral Data<<<<<
177.566	-107.69
177.785	-181.74
178.005	-769.51
178.225	-143.58
178.445	-247.56
178.665	-533.75
178.885	153.02
179.105	-84.68
179.324	-108.01
179.544	-289.84
179.764	-56.05
179.984	-80.4
180.204	-87.58
180.423	-372.73
180.643	-212.22
180.863	-351.93
181.083	-1931
181.302	-10108.73
181.522	989.11
181.742	1085.71
181.961	1111.14
182.181	195.84
182.401	158.02
182.621	249.86
182.84	894.14
183.06	-3035.25
183.279	-454.09
183.499	-279.78
183.719	-266.12
183.938	-191.89
184.158	-163.03
184.377	-187.23
184.597	-102.07
184.816	-54.67
185.036	-118.07
185.256	-194.47
185.475	-418.51
185.695	-302.39
185.914	-313.53
186.134	-280.75
186.353	-321.26
186.572	-226.49
186.792	-518.67
187.011	3265.13
187.231	-2079.87
187.45	-416.46
187.67	-1926.74
187.889	870.16
188.108	405.71
188.328	318.3
188.547	237.59
188.766	193.74
188.986	182.26
189.205	184.67
189.424	196.51
189.644	184.75
189.863	239.28
190.082	245.77
190.302	316.93
190.521	242.76
190.74	247.2
190.959	904.29
191.178	679.89
191.398	657.55
191.617	1855.88
191.836	6589.25
192.055	1254.43
192.274	331.93
192.494	449.41
192.713	20469.64
192.932	-2071.97
193.151	380500
193.37	489.16
193.589	-13135.4
193.808	-1032.94
194.027	-1588.53
194.246	3346.68
194.465	-2164.61
194.685	501.24
194.904	408.34
195.123	189.51
195.342	126.28
195.561	85.23
195.78	521.58
195.999	1068.7
196.218	410.9
196.436	208.47
196.655	170.28
196.874	98.29
197.093	244.05
197.312	216.98
197.531	306.07
197.75	481.17
197.969	1393.54
198.188	200.91
198.407	148.77
198.625	155.31
198.844	197.19
199.063	241.23
199.282	471.57
199.501	-2578.52
199.719	-1317.5
199.938	708.68
200.157	497.56
200.376	-3556.59
200.594	-277.08
200.813	-730.55
201.032	-1879.91
201.251	-895.39
201.469	-834.28
201.688	-1550.08
201.907	2461.92
202.125	908.55
202.344	3511.85
202.563	18930.43
202.781	860.69
203	287.65
203.218	216.86
203.437	388.23
203.656	313.95
203.874	835.89
204.093	792.59
204.311	507.57
204.53	1542.66
204.748	368.98
204.967	435.63
205.185	349.86
205.404	361.36
205.622	571.53
205.841	299.95
206.059	247.62
206.278	217.64
206.496	270.86
206.715	406.69
206.933	283.25
207.151	346.39
207.37	228.55
207.588	271.74
207.806	287.55
208.025	348.59
208.243	702.02
208.461	-46963.64
208.68	1062.93
208.898	407.85
209.116	202.47
209.335	178.49
209.553	179.14
209.771	177.12
209.989	169.35
210.208	152.3
210.426	124.62
210.644	81.16
210.862	86.26
211.081	102.56
211.299	101.57
211.517	130.69
211.735	114.36
211.953	106.03
212.171	128.84
212.39	144.89
212.608	174.31
212.826	175.68
213.044	183.72
213.262	195.92
213.48	191.14
213.698	291.86
213.916	149.97
214.134	218.47
214.352	414.41
214.57	188.8
214.788	176.52
215.006	147.13
215.224	279.6
215.442	778.41
215.66	1031.34
215.878	424.77
216.096	180.34
216.314	844.89
216.532	3212.94
216.75	-1073.9
216.968	-1554.3
217.185	-12399.12
217.403	2599.52
217.621	-173011.11
217.839	-970.05
218.057	-36068.75
218.275	-1062.67
218.492	-224.93
218.71	-3648.26
218.928	2284.42
219.146	1153.22
219.363	623.2
219.581	666.28
219.799	-3903.12
220.017	389.35
220.234	435.2
220.452	350.75
220.67	604.86
220.887	246.01
221.105	389.47
221.323	221.62
221.54	169.18
221.758	202.36
221.976	189.45
222.193	134.18
222.411	125.13
222.629	124.47
222.846	137.75
223.064	129.12
223.281	134.2
223.499	127.34
223.716	124.78
223.934	122.94
224.151	94.08
224.369	114.69
224.586	147.21
224.804	173.68
225.021	179.26
225.239	177.42
225.456	157.86
225.674	145.63
225.891	146.74
226.108	136.84
226.326	115.74
226.543	118.39
226.76	96.27
226.978	69.74
227.195	73.36
227.413	61.29
227.63	57.3
227.847	58.2
228.064	49.32
228.282	44.19
228.499	44.76
228.716	45.43
228.934	44.75
229.151	42.83
229.368	41.6
229.585	38.3
229.802	38.41
230.02	42.78
230.237	41.69
230.454	44.91
230.671	44.98
230.888	42.81
231.105	45.81
231.323	43.92
231.54	43.4
231.757	48.08
231.974	51.84
232.191	50.37
232.408	42.9
232.625	40.55
232.842	35.02
233.059	36.79
233.276	40.53
233.493	37.19
233.71	37
233.927	37.61
234.144	35.08
234.361	29.22
234.578	30.4
234.795	26.39
235.012	29.41
235.229	34.46
235.446	35.03
235.663	32.96
235.879	34.48
236.096	40.95
236.313	49.93
236.53	49.63
236.747	58.29
236.964	54.18
237.181	60.78
237.397	57.43
237.614	65.61
237.831	62.54
238.048	67.87
238.264	67.18
238.481	57.39
238.698	44.61
238.915	40.16
239.131	30.18
239.348	27.72
239.565	25.05
239.781	26.84
239.998	20.41
240.215	22.89
240.431	20.81
240.648	22.26
240.865	22.6
241.081	28.26
241.298	29.29
241.514	29.92
241.731	29.76
241.947	29.91
242.164	27.9
242.38	25.21
242.597	22.35
242.814	20.67
243.03	20.38
243.246	21.53
243.463	17.46
243.679	16.81
243.896	18.47
244.112	18.46
244.329	16.12
244.545	16.49
244.762	14.32
244.978	16.22
245.194	18.35
245.411	15.75
245.627	14.88
245.843	17.03
246.06	18.59
246.276	17.34
246.492	19.51
246.709	19.4
246.925	19.26
247.141	20.74
247.357	18.99
247.574	18.57
247.79	19.25
248.006	17.66
248.222	18.36
248.439	17.27
248.655	17.29
248.871	16.14
249.087	16.01
249.303	16.58
249.519	16.28
249.736	19.65
249.952	18.87
250.168	20.75
250.384	23.72
250.6	22.9
250.816	25.8
251.032	27.78
251.248	29.37
251.464	28.75
251.68	25.84
251.896	24.23
252.112	22.67
252.328	23.92
252.544	22.9
252.76	23.11
252.976	22.17
253.192	20.61
253.408	18.93
253.624	18.17
253.84	19.4
254.056	19.54
254.272	19.98
254.487	18.16
254.703	17.52
254.919	16.9
255.135	17.1
255.351	18.39
255.567	20.15
255.782	19.88
255.998	19.97
256.214	19.02
256.43	22.94
256.646	22.67
256.861	25.67
257.077	24.46
257.293	22.22
257.508	22.88
257.724	21.11
257.94	18.34
258.155	17.41
258.371	16.92
258.587	15.86
258.802	15.17
259.018	15.24
259.234	13.94
259.449	14.44
259.665	14.81
259.88	15.16
260.096	15.75
260.312	16.43
260.527	16.08
260.743	15.55
260.958	16.38
261.174	16.23
261.389	16.81
261.605	16.89
261.82	16.83
262.036	17.39
262.251	17.37
262.466	16.71
262.682	15.6
262.897	16.48
263.113	16.19
263.328	13.77
263.543	13.72
263.759	12.96
263.974	15.39
264.189	15.79
264.405	13.47
264.62	12.74
264.835	12.84
265.051	13.94
265.266	14.04
265.481	15.32
265.696	19.51
265.912	18.84
266.127	17.69
266.342	16.1
266.557	16.39
266.773	17.95
266.988	17.83
267.203	18.61
267.418	17.24
267.633	15.58
267.848	15.15
268.064	10.94
268.279	12.16
268.494	13.28
268.709	12.75
268.924	13.34
269.139	11.76
269.354	10.09
269.569	7.93
269.784	8.61
269.999	10.99
270.214	11.2
270.429	12.91
270.644	12.48
270.859	12.56
271.074	13.1
271.289	13.87
271.504	14.45
271.719	15.28
271.934	16.09
272.149	15.06
272.363	14.95
272.578	15.49
272.793	15.59
273.008	14.53
273.223	13.67
273.438	13.8
273.653	12.39
273.867	11.46
274.082	11.56
274.297	12.35
274.512	13.93
274.726	13.4
274.941	11.94
275.156	12.69
275.371	13.17
275.585	13.4
275.8	14.75
276.015	15.3
276.229	17.24
276.444	18.21
276.659	17.38
276.873	17.18
277.088	19.1
277.302	20.25
277.517	18.87
277.732	19.67
277.946	19.67
278.161	18.27
278.375	17.04
278.59	15.34
278.804	15.38
279.019	16.44
279.233	15.31
279.448	12.51
279.662	12.21
279.877	13.35
280.091	11.65
280.306	10.43
280.52	9.34
280.735	9.94
280.949	12.36
281.163	11.66
281.378	10.51
281.592	12.25
281.806	13.7
282.021	13.68
282.235	14.6
282.449	16.29
282.664	17.56
282.878	18.99
283.092	18.44
283.307	16.91
283.521	16.05
283.735	16.76
283.949	16.1
284.164	15.9
284.378	15.43
284.592	13.81
284.806	12.57
285.02	12.36
285.234	10.63
285.449	10.55
285.663	11.31
285.877	12.04
286.091	12.06
286.305	12.12
286.519	11.2
286.733	12.04
286.947	12.4
287.161	12.86
287.375	13.44
287.589	15.03
287.803	17.01
288.017	17.42
288.231	17.57
288.445	17.41
288.659	17.36
288.873	19.19
289.087	18.89
289.301	20.24
289.515	20.28
289.729	20.45
289.943	20.38
290.157	19.65
290.371	19.62
290.584	19.39
290.798	19.73
291.012	19.8
291.226	18.86
291.44	18.53
291.654	17.56
291.867	16.58
292.081	16.57
292.295	16.28
292.509	16.01
292.722	14.73
292.936	13.18
293.15	12.66
293.364	11.73
293.577	11.74
293.791	12.17
294.005	11.46
294.218	13.37
294.432	12.65
294.645	12.5
294.859	11.12
295.073	11.62
295.286	12.01
295.5	11.68
295.713	11.9
295.927	12.21
296.14	12.03
296.354	12.06
296.568	10.93
296.781	10.63
296.994	11.22
297.208	11.65
297.421	12.01
297.635	13.68
297.848	13.73
298.062	13.84
298.275	13.82
298.489	13.68
298.702	14.81
298.915	14.52
299.129	15.76
299.342	15.77
299.555	16.47
299.769	15.74
299.982	14.95
300.195	15.51
300.409	15.17
300.622	14.91
300.835	15.4
301.048	14.44
301.262	15.74
301.475	14.79
301.688	15.25
301.901	15.34
302.115	17.54
302.328	17.38
302.541	17.49
302.754	19.14
302.967	20.14
303.18	20.94
303.393	21.13
303.607	20.93
303.82	21.88
304.033	21.46
304.246	22.35
304.459	20.79
304.672	21.44
304.885	22.28
305.098	21.93
305.311	22.15
305.524	20.62
305.737	20.94
305.95	20.98
306.163	19.91
306.376	19.19
306.589	18.11
306.802	18.14
307.015	18.54
307.228	18.2
307.44	17.49
307.653	17.02
307.866	18.27
308.079	17.94
308.292	17.66
308.505	19.23
308.718	20.24
308.93	20.94
309.143	21.52
309.356	20.84
309.569	19.81
309.781	19.69
309.994	20.12
310.207	19.64
310.42	19.55
310.632	19.91
310.845	18.51
311.058	17.78
311.27	17.67
311.483	17.26
311.696	16.78
311.908	16.3
312.121	16.26
312.333	16.7
312.546	16.23
312.759	15.71
312.971	14.55
313.184	15.99
313.396	16.3
313.609	16.16
313.821	16.37
314.034	17.32
314.246	18.22
314.459	18.87
314.671	17.17
314.884	17.86
315.096	19.13
315.309	20.67
315.521	20.02
315.733	20.23
315.946	19.79
316.158	20.22
316.371	20.99
316.583	20.69
316.795	19.95
317.008	20.62
317.22	19.77
317.432	19.09
317.644	19.7
317.857	19.73
318.069	20.09
318.281	19.49
318.494	19.87
318.706	18.33
318.918	19.05
319.13	19.2
319.342	19.98
319.555	21.11
319.767	21.55
319.979	20.69
320.191	20.27
320.403	20.39
320.615	21.45
320.827	21.12
321.039	21.22
321.252	22
321.464	22.42
321.676	21.75
321.888	21.89
322.1	21.57
322.312	21.48
322.524	22.54
322.736	21.98
322.948	22.72
323.16	22.76
323.372	24.09
323.584	23.14
323.796	23.46
324.007	23.75
324.219	24.62
324.431	25.65
324.643	27
324.855	27.5
325.067	26.94
325.279	26.53
325.491	27.23
325.702	27.41
325.914	28.09
326.126	28.61
326.338	27.35
326.55	26.58
326.761	25.94
326.973	25.72
327.185	25.37
327.396	27.48
327.608	27.68
327.82	27.8
328.032	28.04
328.243	28.61
328.455	29.04
328.666	30.53
328.878	31.22
329.09	32.51
329.301	33.1
329.513	33.2
329.725	33.14
329.936	34.24
330.148	33.83
330.359	34.58
330.571	35.84
330.782	36.03
330.994	37.2
331.205	38.05
331.417	38.5
331.628	39.15
331.84	41.16
332.051	40.69
332.262	41.06
332.474	40.61
332.685	40.73
332.897	40.4
333.108	40.73
333.319	39.87
333.531	40.75
333.742	40.9
333.953	40.29
334.165	37.95
334.376	38.46
334.587	37.67
334.799	37.93
335.01	37.77
335.221	37.15
335.432	36.32
335.644	36.69
335.855	35.48
336.066	35.62
336.277	36.14
336.488	37.06
336.7	37.14
336.911	38.32
337.122	39.46
337.333	39.34
337.544	40.1
337.755	41.59
337.966	41.86
338.177	41.68
338.388	41.09
338.599	40.6
338.811	40.35
339.022	39.66
339.233	38.89
339.444	38.03
339.655	37.33
339.866	36.75
340.076	35.3
340.287	34.82
340.498	35.77
340.709	36.32
340.92	36.38
341.131	37.02
341.342	37.48
341.553	37.52
341.764	38.68
341.975	39.32
342.185	38.93
342.396	39.01
342.607	39.38
342.818	39.29
343.029	38.55
343.239	39.21
343.45	38.97
343.661	38.69
343.872	38.5
344.082	37.79
344.293	37.35
344.504	37.93
344.714	38.45
344.925	38.94
345.136	38.09
345.346	36.68
345.557	36.81
345.768	36.48
345.978	37.66
346.189	37.77
346.399	37.33
346.61	37.03
346.821	37.15
347.031	37.36
347.242	36.56
347.452	37.27
347.663	39.13
347.873	38.96
348.084	39.37
348.294	37.58
348.504	37.81
348.715	38.7
348.925	38.92
349.136	37.58
349.346	37.24
349.557	36.91
349.767	37.19
349.977	37.3
350.188	36.16
350.398	35.98
350.608	35.77
350.819	35.74
351.029	34.31
351.239	34.99
351.449	35.77
351.66	35.73
351.87	36
352.08	35.59
352.29	34.83
352.501	35.47
352.711	34.96
352.921	36.14
353.131	35.74
353.341	36.52
353.552	36.36
353.762	35.83
353.972	35.83
354.182	36.33
354.392	35.43
354.602	36.48
354.812	36.8
355.022	36.42
355.232	35.96
355.442	36.48
355.652	36.47
355.862	36.15
356.072	36.91
356.282	35.75
356.492	35.85
356.702	36.39
356.912	35.13
357.122	35.28
357.332	36.02
357.542	35.79
357.752	34.76
357.962	34.48
358.171	34.17
358.381	34.39
358.591	35.7
358.801	35.17
359.011	34.42
359.221	34.49
359.43	33.92
359.64	33.4
359.85	33.6
360.06	34.45
360.269	34.6
360.479	34.97
360.689	34.71
360.899	34.64
361.108	34.7
361.318	34.72
361.528	35.08
361.737	35.27
361.947	35.47
362.156	35.28
362.366	34.37
362.576	34.11
362.785	33.42
362.995	33.09
363.204	32.6
363.414	32.75
363.623	33.31
363.833	33.05
364.042	32.97
364.252	32.73
364.461	32.66
364.671	33.29
364.88	33.59
365.09	33.99
365.299	33.43
365.509	33.52
365.718	32.86
365.927	33.13
366.137	32.89
366.346	32.95
366.555	32.71
366.765	32.88
366.974	32.67
367.183	32.42
367.393	31.79
367.602	32.11
367.811	31.87
368.021	32.04
368.23	31.52
368.439	31.02
368.648	30.02
368.857	29.58
369.067	29.29
369.276	28.83
369.485	28.22
369.694	28.83
369.903	28.39
370.112	28.52
370.321	27.92
370.531	27.41
370.74	27.62
370.949	27.71
371.158	28.11
371.367	28.22
371.576	28.06
371.785	28.58
371.994	28.16
372.203	28.38
372.412	27.78
372.621	28.21
372.83	28.06
373.039	28.28
373.248	27.75
373.457	27.52
373.666	26.7
373.874	26.76
374.083	26.01
374.292	26.1
374.501	25.7
374.71	26.3
374.919	25.85
375.128	25.69
375.336	26.07
375.545	26.4
375.754	26.44
375.963	26.67
376.171	26.23
376.38	26.06
376.589	25.98
376.798	25.28
377.006	24.23
377.215	24.28
377.424	24.54
377.632	23.63
377.841	23.42
378.05	23.07
378.258	23.23
378.467	23.02
378.675	22.78
378.884	22.36
379.093	22.51
379.301	23.13
379.51	22.76
379.718	22.36
379.927	22.5
380.135	22.57
380.344	22.14
380.552	21.76
380.761	22.26
380.969	22.41
381.177	22.05
381.386	22.98
381.594	22.35
381.803	22.37
382.011	21.97
382.219	21.77
382.428	21.26
382.636	21.55
382.845	20.67
383.053	20.14
383.261	19.6
383.469	19.66
383.678	18.95
383.886	19.26
384.094	18.8
384.302	19.32
384.511	19.39
384.719	19.41
384.927	19.25
385.135	19.64
385.343	19.45
385.552	19.78
385.76	19.75
385.968	19.34
386.176	18.85
386.384	18.71
386.592	17.98
386.8	18.01
387.008	18.16
387.216	18.03
387.424	18.04
387.633	18
387.841	17.89
388.049	17.92
388.257	18.1
388.465	17.85
388.672	18.06
388.88	18.43
389.088	17.72
389.296	17.44
389.504	17.2
389.712	17.15
389.92	17.08
390.128	17.08
390.336	16.87
390.544	16.56
390.751	16.69
390.959	16.7
391.167	16.11
391.375	16.26
391.583	16.08
391.79	15.65
391.998	15.53
392.206	15.51
392.414	15.33
392.621	15.15
392.829	15.1
393.037	14.86
393.244	14.39
393.452	14.55
393.66	14.54
393.867	14.42
394.075	14.73
394.283	14.53
394.49	14.25
394.698	14.04
394.905	14
395.113	13.94
395.32	13.98
395.528	14.26
395.735	14.33
395.943	14.23
396.15	14.4
396.358	14.28
396.565	14.36
396.773	14.48
396.98	14.61
397.188	14.45
397.395	14.88
397.602	14.73
397.81	14.61
398.017	14.45
398.225	14.57
398.432	14.61
398.639	14.68
398.847	14.53
399.054	14.34
399.261	14.29
399.468	14.44
399.676	14.21
399.883	14.11
400.09	14.43
400.297	14.49
400.505	14.08
400.712	13.87
400.919	13.95
401.126	13.96
401.333	13.99
401.54	14.06
401.748	13.7
401.955	13.27
402.162	13.24
402.369	12.75
402.576	12.54
402.783	12.22
402.99	11.94
403.197	11.61
403.404	11.57
403.611	11.45
403.818	11.14
404.025	11.2
404.232	11.31
404.439	11.27
404.646	11.26
404.853	11.02
405.06	11.13
405.267	11.2
405.474	11.41
405.681	11.44
405.887	11.48
406.094	11.72
406.301	11.8
406.508	11.94
406.715	12.23
406.922	12.04
407.128	12.46
407.335	12.48
407.542	12.35
407.749	12
407.955	11.77
408.162	11.42
408.369	11.23
408.575	11.16
408.782	11.06
408.989	10.62
409.195	10.72
409.402	10.57
409.609	10.51
409.815	10.75
410.022	11.01
410.228	11.17
410.435	11.52
410.642	11.66
410.848	11.4
411.055	11.21
411.261	11.07
411.468	11.31
411.674	11.26
411.881	11.47
412.087	11.35
412.294	11.52
412.5	11.4
412.706	11.14
412.913	10.91
413.119	10.83
413.326	10.67
413.532	10.95
413.738	10.53
413.945	10.08
414.151	10.1
414.357	10.09
414.564	9.8
414.77	9.89
414.976	10.14
415.182	10.17
415.389	10.27
415.595	10.2
415.801	10.29
416.007	10.45
416.214	10.51
416.42	10.32
416.626	9.9
416.832	9.75
417.038	9.74
417.244	9.49
417.45	9.41
417.657	9.37
417.863	9.42
418.069	9.23
418.275	9.07
418.481	9.08
418.687	8.99
418.893	9.04
419.099	8.94
419.305	8.63
419.511	8.74
419.717	8.66
419.923	8.72
420.129	8.69
420.335	8.74
420.541	8.66
420.746	8.54
420.952	8.61
421.158	8.67
421.364	8.63
421.57	8.76
421.776	8.67
421.982	8.78
422.187	8.66
422.393	8.64
422.599	8.53
422.805	8.58
423.01	8.73
423.216	8.7
423.422	8.73
423.628	8.89
423.833	8.79
424.039	8.6
424.245	8.59
424.45	8.57
424.656	8.53
424.862	8.4
425.067	8.31
425.273	8.24
425.478	8.19
425.684	8.14
425.889	8.08
426.095	8.21
426.301	8.29
426.506	8.07
426.712	8.12
426.917	8.16
427.123	8.27
427.328	8.37
427.533	8.31
427.739	8.38
427.944	8.48
428.15	8.34
428.355	8.27
428.561	8.66
428.766	8.71
428.971	8.51
429.177	8.6
429.382	8.58
429.587	8.36
429.793	8.5
429.998	8.41
430.203	8.19
430.408	8.2
430.614	8.1
430.819	7.96
431.024	7.84
431.229	8.07
431.434	8
431.64	8.09
431.845	8.23
432.05	8.07
432.255	8.21
432.46	8.28
432.665	8.21
432.87	8.25
433.076	8.17
433.281	8.3
433.486	8.22
433.691	8.24
433.896	8.39
434.101	8.41
434.306	8.43
434.511	8.43
434.716	8.42
434.921	8.46
435.126	8.51
435.331	8.52
435.535	8.42
435.74	8.41
435.945	8.26
436.15	7.97
436.355	8.08
436.56	8.13
436.765	8.11
436.97	7.95
437.174	8.02
437.379	8.03
437.584	7.92
437.789	7.89
437.993	7.97
438.198	8.07
438.403	8.24
438.608	8.2
438.812	8.07
439.017	7.96
439.222	8.01
439.426	7.9
439.631	7.8
439.836	7.97
440.04	7.96
440.245	7.85
440.45	7.82
440.654	7.69
440.859	7.63
441.063	7.63
441.268	7.64
441.472	7.62
441.677	7.61
441.881	7.45
442.086	7.41
442.29	7.4
442.495	7.59
442.699	7.62
442.904	7.59
443.108	7.73
443.312	7.73
443.517	7.66
443.721	7.7
443.925	7.62
444.13	7.78
444.334	7.45
444.538	7.43
444.743	7.23
444.947	7.04
445.151	7.02
445.356	6.96
445.56	7.02
445.764	7.03
445.968	7.08
446.173	7.08
446.377	7.11
446.581	7.33
446.785	7.18
446.989	7.25
447.193	7.3
447.398	7.38
447.602	7.26
447.806	7.22
448.01	7.27
448.214	7.28
448.418	7.25
448.622	7.22
448.826	7.04
449.03	7.2
449.234	7.23
449.438	7.38
449.642	7.36
449.846	7.53
450.05	7.64
450.254	7.72
450.458	7.58
450.662	7.7
450.866	7.6
451.069	7.66
451.273	7.72
451.477	7.79
451.681	7.64
451.885	7.35
452.089	7.34
452.292	7.15
452.496	7.01
452.7	7.03
452.904	7.11
453.107	7.29
453.311	7.29
453.515	7.26
453.719	7
453.922	7.02
454.126	7.36
454.33	7.22
454.533	7.22
454.737	7.42
454.94	7.22
455.144	7.21
455.348	7.04
455.551	7.1
455.755	7.19
455.958	7.44
456.162	7.47
456.365	7.41
456.569	7.37
456.772	7.25
456.976	7
457.179	7.35
457.383	7.31
457.586	7.33
457.79	7.39
457.993	7.2
458.196	6.99
458.4	7.01
458.603	6.8
458.807	6.77
459.01	6.87
459.213	6.95
459.417	6.92
459.62	6.88
459.823	6.9
460.026	6.75
460.23	6.75
460.433	6.77
460.636	6.61
460.839	6.74
461.042	6.67
461.246	6.73
461.449	6.81
461.652	6.83
461.855	6.86
462.058	6.86
462.261	6.96
462.464	6.9
462.668	6.9
462.871	7.28
463.074	7.22
463.277	7.31
463.48	7.27
463.683	7.25
463.886	7.08
464.089	7.15
464.292	6.97
464.495	6.93
464.698	7.12
464.901	7.2
465.104	7.05
465.306	7
465.509	7.18
465.712	7.41
465.915	7.34
466.118	7.2
466.321	7.21
466.524	7.09
466.726	7.16
466.929	7.05
467.132	6.94
467.335	7.04
467.538	7.17
467.74	7.21
467.943	6.93
468.146	6.85
468.348	6.99
468.551	6.78
468.754	7.03
468.956	7.11
469.159	7.16
469.362	7.16
469.564	6.97
469.767	6.93
469.969	6.82
470.172	6.93
470.375	7
470.577	7.23
470.78	7.47
470.982	7.45
471.185	7.47
471.387	7.58
471.59	7.52
471.792	7.66
471.995	7.8
472.197	7.82
472.399	7.9
472.602	7.91
472.804	7.75
473.007	7.72
473.209	7.76
473.411	7.76
473.614	8.05
473.816	8.18
474.018	8.15
474.22	8.29
474.423	8.34
474.625	8.27
474.827	8.3
475.03	8.43
475.232	8.29
475.434	8.2
475.636	7.93
475.838	7.55
476.04	7.48
476.243	7.43
476.445	7.24
476.647	7.32
476.849	7.38
477.051	7.27
477.253	7.26
477.455	7.17
477.657	7.31
477.859	7.34
478.061	7.27
478.263	7.26
478.465	7.22
478.667	7.02
478.869	6.94
479.071	6.84
479.273	6.85
479.475	6.68
479.677	6.77
479.879	6.64
480.081	6.61
480.283	6.77
480.485	6.83
480.686	6.94
480.888	6.99
481.09	6.91
481.292	6.92
481.494	6.96
481.695	7
481.897	7.04
482.099	7.05
482.301	7.01
482.502	6.91
482.704	6.93
482.906	6.82
483.107	6.78
483.309	6.74
483.511	6.74
483.712	6.71
483.914	6.68
484.115	6.6
484.317	6.58
484.519	6.61
484.72	6.6
484.922	6.54
485.123	6.51
485.325	6.59
485.526	6.64
485.728	6.58
485.929	6.61
486.131	6.57
486.332	6.6
486.534	6.65
486.735	6.57
486.936	6.58
487.138	6.56
487.339	6.62
487.541	6.54
487.742	6.49
487.943	6.54
488.144	6.48
488.346	6.52
488.547	6.58
488.748	6.57
488.95	6.58
489.151	6.68
489.352	6.73
489.553	6.73
489.755	6.81
489.956	6.85
490.157	6.86
490.358	6.93
490.559	6.97
490.76	6.92
490.961	6.81
491.163	6.85
491.364	6.8
491.565	6.74
491.766	6.79
491.967	6.76
492.168	6.72
492.369	6.71
492.57	6.71
492.771	6.75
492.972	6.78
493.173	6.95
493.374	7.03
493.575	7
493.776	7.1
493.976	7.12
494.177	7.13
494.378	7.06
494.579	7.13
494.78	7.16
494.981	7.08
495.182	7.16
495.382	7.2
495.583	7.22
495.784	7.25
495.985	7.39
496.185	7.3
496.386	7.41
496.587	7.66
496.788	7.66
496.988	7.53
497.189	7.59
497.39	7.47
497.59	7.33
497.791	7.26
497.992	7.32
498.192	7.18
498.393	7.3
498.593	7.33
498.794	7.36
498.994	7.4
499.195	7.52
499.395	7.6
499.596	7.79
499.796	7.86
499.997	8.14
500.197	8.22
500.398	8.33
500.598	8.1
500.799	8.16
500.999	8.14
501.199	8.11
501.4	8.26
501.6	8.26
501.801	8.24
502.001	8.34
502.201	8.15
502.402	8.2
502.602	8.29
502.802	8.62
503.002	8.64
503.203	8.71
503.403	8.8
503.603	8.76
503.803	8.77
504.003	8.87
504.204	8.9
504.404	9.26
504.604	9.42
504.804	9.59
505.004	9.54
505.204	9.64
505.404	9.74
505.604	9.66
505.804	9.79
506.005	10
506.205	9.88
506.405	10.01
506.605	9.96
506.805	9.96
507.005	9.92
507.204	10.05
507.404	9.94
507.604	9.91
507.804	10.2
508.004	10.31
508.204	10.21
508.404	10.44
508.604	10.43
508.804	10.46
509.003	10.57
509.203	10.57
509.403	10.72
509.603	10.9
509.803	10.97
510.002	11.05
510.202	11.05
510.402	11.28
510.602	11.28
510.801	11.37
511.001	11.46
511.201	11.4
511.4	11.49
511.6	11.51
511.8	11.65
511.999	11.85
512.199	11.75
512.398	11.9
512.598	12.11
512.797	12.4
512.997	12.57
513.197	12.64
513.396	12.97
513.596	13.05
513.795	13.27
513.994	13.26
514.194	13.22
514.393	13.26
514.593	13.41
514.792	13.25
514.992	13.37
515.191	13.46
515.39	13.71
515.59	13.72
515.789	13.99
515.988	13.94
516.188	14.16
516.387	14.52
516.586	14.96
516.786	15.08
516.985	15.39
517.184	15.5
517.383	15.64
517.582	15.68
517.782	15.66
517.981	15.79
518.18	15.88
518.379	16.1
518.578	16.11
518.777	16.2
518.976	16.34
519.176	16.49
519.375	16.55
519.574	16.69
519.773	16.75
519.972	17.05
520.171	17.28
520.37	17.54
520.569	17.7
520.768	17.92
520.967	18.06
521.166	18.16
521.365	18.19
521.564	18.39
521.762	18.64
521.961	18.86
522.16	18.95
522.359	18.87
522.558	18.95
522.757	19.09
522.956	19.13
523.154	19.21
523.353	19.52
523.552	19.63
523.751	19.74
523.949	19.84
524.148	20.04
524.347	20.37
524.546	20.67
524.744	20.86
524.943	20.96
525.142	21.16
525.34	21.46
525.539	21.61
525.737	21.83
525.936	22.05
526.135	22.26
526.333	22.35
526.532	22.33
526.73	22.43
526.929	22.67
527.127	22.84
527.326	22.98
527.524	22.99
527.723	23.09
527.921	23.17
528.12	23.22
528.318	23.29
528.516	23.43
528.715	23.55
528.913	23.57
529.112	23.64
529.31	23.68
529.508	23.8
529.707	23.94
529.905	24.02
530.103	24.12
530.301	24.18
530.5	24.31
530.698	24.47
530.896	24.66
531.094	24.89
531.293	24.97
531.491	25.18
531.689	25.29
531.887	25.46
532.085	25.58
532.283	25.59
532.481	25.83
532.68	25.92
532.878	25.96
533.076	26.02
533.274	26.12
533.472	26.2
533.67	26.25
533.868	26.39
534.066	26.49
534.264	26.57
534.462	26.69
534.66	26.78
534.858	26.82
535.056	27.04
535.253	27.17
535.451	27.34
535.649	27.62
535.847	27.79
536.045	27.93
536.243	28.11
536.441	28.25
536.638	28.48
536.836	28.6
537.034	28.9
537.232	28.89
537.43	28.93
537.627	28.99
537.825	29.04
538.023	29.07
538.22	29.1
538.418	29.13
538.616	29.39
538.813	29.52
539.011	29.59
539.209	29.63
539.406	29.84
539.604	30.27
539.801	30.37
539.999	30.55
540.196	30.71
540.394	30.92
540.591	30.95
540.789	30.93
540.986	30.91
541.184	31.08
541.381	31.13
541.579	31.15
541.776	31.01
541.974	31.11
542.171	31.05
542.368	31
542.566	30.86
542.763	30.9
542.96	30.91
543.158	31.1
543.355	31.14
543.552	31.16
543.75	31.31
543.947	31.39
544.144	31.49
544.341	31.62
544.539	31.88
544.736	32.16
544.933	32.25
545.13	32.41
545.327	32.37
545.524	32.37
545.722	32.47
545.919	32.4
546.116	32.63
546.313	32.62
546.51	32.82
546.707	32.8
546.904	32.94
547.101	32.99
547.298	33.11
547.495	33.17
547.692	33.34
547.889	33.34
548.086	33.37
548.283	33.54
548.48	33.38
548.677	33.47
548.874	33.6
549.07	33.68
549.267	34.01
549.464	34.11
549.661	34.26
549.858	34.28
550.055	34.38
550.251	34.57
550.448	34.46
550.645	34.82
550.842	34.86
551.038	34.95
551.235	34.9
551.432	34.91
551.628	35.04
551.825	35.37
552.022	35.55
552.218	35.62
552.415	35.77
552.612	35.79
552.808	35.87
553.005	35.66
553.201	35.56
553.398	35.82
553.594	36
553.791	36
553.987	35.85
554.184	35.66
554.38	35.73
554.577	35.81
554.773	35.96
554.97	36.12
555.166	36.37
555.362	36.57
555.559	36.51
555.755	36.44
555.952	36.43
556.148	36.58
556.344	36.88
556.541	37.08
556.737	37.12
556.933	37.28
557.129	37.32
557.326	37.34
557.522	37.36
557.718	37.52
557.914	37.59
558.11	37.53
558.307	37.28
558.503	37.09
558.699	36.87
558.895	36.78
559.091	36.81
559.287	37.1
559.483	37.16
559.679	37.24
559.876	36.97
560.072	36.79
560.268	36.8
560.464	37.16
560.66	37.4
560.856	37.84
561.052	37.91
561.247	37.79
561.443	37.62
561.639	37.8
561.835	37.95
562.031	38.15
562.227	38.46
562.423	38.74
562.619	38.58
562.815	38.77
563.01	38.8
563.206	38.79
563.402	38.82
563.598	38.84
563.793	39.02
563.989	39.13
564.185	39.16
564.381	39.08
564.576	39.19
564.772	39.21
564.968	39.16
565.163	39.24
565.359	39.44
565.555	39.53
565.75	39.63
565.946	39.52
566.141	39.54
566.337	39.68
566.532	39.81
566.728	39.89
566.923	39.93
567.119	39.84
567.314	39.85
567.51	39.84
567.705	40
567.901	40.24
568.096	40.18
568.292	40.22
568.487	40.21
568.682	40.26
568.878	40.13
569.073	40.27
569.268	40.26
569.464	40.29
569.659	40.39
569.854	40.39
570.05	40.02
570.245	40.2
570.44	40.26
570.635	40.35
570.831	40.31
571.026	40.48
571.221	40.88
571.416	41.17
571.611	41.14
571.806	41.09
572.002	41.15
572.197	41.24
572.392	41.19
572.587	41.15
572.782	41.14
572.977	41.21
573.172	41
573.367	40.71
573.562	40.69
573.757	40.83
573.952	40.73
574.147	40.66
574.342	40.89
574.537	40.96
574.732	40.88
574.927	41.06
575.121	40.97
575.316	41.16
575.511	41.08
575.706	41.06
575.901	40.9
576.096	41.12
576.29	41.21
576.485	41.25
576.68	41.24
576.875	41.3
577.069	41.1
577.264	41.36
577.459	41.33
577.654	41.66
577.848	41.63
578.043	41.78
578.238	41.79
578.432	41.76
578.627	41.5
578.821	41.79
579.016	41.85
579.21	42.01
579.405	41.89
579.6	41.85
579.794	41.75
579.989	41.78
580.183	41.62
580.378	41.39
580.572	41.59
580.766	41.77
580.961	41.4
581.155	41.53
581.35	41.56
581.544	41.62
581.738	42.12
581.933	41.99
582.127	42.45
582.321	42.49
582.516	42.6
582.71	42.45
582.904	42.6
583.099	42.9
583.293	42.98
583.487	42.89
583.681	43.18
583.875	42.88
584.07	43.16
584.264	43.03
584.458	43.12
584.652	43.31
584.846	43.53
585.04	43.35
585.234	43.3
585.428	43.3
585.623	43.4
585.817	43.07
586.011	43.08
586.205	42.88
586.399	42.84
586.593	42.81
586.787	42.76
586.981	42.7
587.174	42.84
587.368	42.82
587.562	42.81
587.756	43.02
587.95	43.23
588.144	43.54
588.338	43.76
588.532	43.68
588.725	43.95
588.919	44.14
589.113	44.33
589.307	44.43
589.501	44.6
589.694	44.95
589.888	44.95
590.082	44.87
590.275	44.62
590.469	44.76
590.663	44.9
590.856	44.75
591.05	44.9
591.244	44.59
591.437	44.74
591.631	44.54
591.824	44.24
592.018	44.34
592.212	44.47
592.405	44.61
592.599	44.64
592.792	44.6
592.986	44.43
593.179	43.9
593.372	44.24
593.566	43.96
593.759	44.34
593.953	44.72
594.146	44.41
594.339	44.58
594.533	44.4
594.726	44.35
594.92	44.25
595.113	44.47
595.306	44.87
595.499	44.76
595.693	45.11
595.886	45.01
596.079	44.93
596.272	45.09
596.466	45.03
596.659	45.17
596.852	45.16
597.045	45.17
597.238	45.34
597.431	45.34
597.624	45.34
597.818	45.08
598.011	45.06
598.204	44.99
598.397	44.95
598.59	44.94
598.783	44.92
598.976	44.84
599.169	44.86
599.362	44.66
599.555	44.59
599.748	44.75
599.941	44.89
600.134	45.07
600.326	44.85
600.519	45.26
600.712	45.39
600.905	45.52
601.098	45.31
601.291	45.39
601.483	45.42
601.676	45.41
601.869	45.45
602.062	45.3
602.255	45.26
602.447	45.54
602.64	45.15
602.833	44.92
603.025	44.87
603.218	45.19
603.411	45.33
603.603	45.28
603.796	45.51
603.989	45.15
604.181	45.2
604.374	45.14
604.566	45.14
604.759	45.25
604.951	45.31
605.144	45.36
605.336	45.43
605.529	45.31
605.721	45.44
605.914	45.35
606.106	45.55
606.299	45.75
606.491	45.77
606.683	45.65
606.876	45.7
607.068	45.72
607.26	45.59
607.453	45.22
607.645	45.33
607.837	45.27
608.03	45.14
608.222	45.02
608.414	44.82
608.606	44.82
608.799	45.05
608.991	45
609.183	45.14
609.375	45.25
609.567	45.24
609.759	45.31
609.952	45.29
610.144	45.39
610.336	45.65
610.528	45.72
610.72	45.62
610.912	45.55
611.104	45.66
611.296	45.44
611.488	45.6
611.68	45.96
611.872	46.05
612.064	46.39
612.256	46.47
612.448	46.6
612.64	46.66
612.832	47.04
613.023	47.21
613.215	47.26
613.407	47.44
613.599	47.31
613.791	47.5
613.983	47.29
614.174	47.05
614.366	46.91
614.558	46.82
614.75	47.06
614.941	46.9
615.133	46.62
615.325	46.59
615.516	46.61
615.708	46.64
615.9	46.43
616.091	46.55
616.283	46.47
616.475	46.54
616.666	46.57
616.858	46.51
617.049	46.34
617.241	46.34
617.432	46.15
617.624	46.32
617.815	46.33
618.007	46.52
618.198	46.57
618.39	46.61
618.581	46.56
618.773	46.3
618.964	46.15
619.155	46.19
619.347	46.14
619.538	46.34
619.729	46.34
619.921	46.32
620.112	46.23
620.303	46.1
620.494	46.23
620.686	46.35
620.877	46.56
621.068	46.7
621.259	46.74
621.451	47.04
621.642	46.56
621.833	46.36
622.024	46.13
622.215	45.69
622.406	45.71
622.597	45.79
622.788	45.96
622.98	45.92
623.171	45.69
623.362	45.42
623.553	45.31
623.744	45.63
623.935	45.79
624.126	45.88
624.317	46.35
624.508	46.41
624.698	46.23
624.889	46.18
625.08	46.64
625.271	46.62
625.462	46.99
625.653	47.08
625.844	47.13
626.034	47.03
626.225	47.12
626.416	47.07
626.607	46.92
626.798	47.07
626.988	46.81
627.179	46.78
627.37	46.86
627.56	47.05
627.751	47.24
627.942	47.32
628.132	47.64
628.323	47.48
628.514	47.48
628.704	47.86
628.895	47.78
629.085	47.86
629.276	47.35
629.466	47.68
629.657	47.47
629.847	47.17
630.038	47.68
630.228	47.4
630.419	47.63
630.609	47.86
630.8	47.5
630.99	47.59
631.181	47.96
631.371	48.2
631.561	47.6
631.752	47.77
631.942	48.32
632.132	47.58
632.323	47.33
632.513	47.47
632.703	47.03
632.893	47.25
633.084	46.91
633.274	46.68
633.464	46.49
633.654	46.74
633.844	46.48
634.034	46.06
634.225	46.01
634.415	46.06
634.605	45.84
634.795	45.9
634.985	45.99
635.175	46.45
635.365	46.57
635.555	46.63
635.745	46.45
635.935	46.8
636.125	46.61
636.315	47.02
636.505	47.01
636.695	47.3
636.885	47.4
637.075	47.35
637.265	46.89
637.455	46.92
637.644	47.12
637.834	47.19
638.024	47.06
638.214	47.35
638.404	47.17
638.593	47.71
638.783	47.77
638.973	47.72
639.163	47.74
639.352	47.93
639.542	47.7
639.732	47.53
639.921	47.59
640.111	47.85
640.301	47.75
640.49	48.15
640.68	48.05
640.87	47.75
641.059	47.86
641.249	47.81
641.438	47.72
641.628	48.08
641.817	48.44
642.007	48.64
642.196	48.77
642.386	48.84
642.575	48.77
642.764	48.44
642.954	48.76
643.143	48.99
643.333	49.01
643.522	49.31
643.711	48.92
643.901	48.66
644.09	48.8
644.279	48.73
644.469	48.63
644.658	48.7
644.847	48.91
645.036	49.06
645.226	48.79
645.415	48.93
645.604	48.64
645.793	49.14
645.982	49.17
646.171	49.03
646.361	48.7
646.55	49.38
646.739	49.18
646.928	49
647.117	48.56
647.306	48.87
647.495	48.71
647.684	48.92
647.873	48.68
648.062	48.75
648.251	48.67
648.44	48.36
648.629	47.3
648.818	46.9
649.007	47.03
649.196	47.27
649.384	47
649.573	46.54
649.762	46.6
649.951	46.63
650.14	46.69
650.328	46.78
650.517	47.28
650.706	47.89
650.895	48.15
651.083	48.63
651.272	48.88
651.461	49.05
651.65	49.3
651.838	49.38
652.027	49.16
652.216	49.19
652.404	49.06
652.593	48.95
652.781	48.62
652.97	48.51
653.158	47.87
653.347	47.75
653.535	47.43
653.724	47.4
653.912	47.58
654.101	47.75
654.289	47.91
654.478	47.9
654.666	47.81
654.855	48.19
655.043	48.31
655.231	48.23
655.42	48.23
655.608	48.51
655.796	49.1
655.985	49.03
656.173	48.87
656.361	48.84
656.55	48.48
656.738	48.72
656.926	48.83
657.114	48.74
657.302	49.08
657.491	49.1
657.679	48.95
657.867	48.47
658.055	48.56
658.243	48.59
658.431	48.69
658.619	49.26
658.807	49.13
658.996	49.06
659.184	49.37
659.372	49.26
659.56	48.95
659.748	48.88
659.936	49.17
660.124	48.9
660.311	48.65
660.499	48.18
660.687	47.78
660.875	47.38
661.063	47.23
661.251	47.17
661.439	47.25
661.627	47.39
661.814	47.7
662.002	47.61
662.19	47.93
662.378	48.14
662.565	48.46
662.753	48.84
662.941	49.61
663.129	49.66
663.316	49.62
663.504	49.37
663.692	49.31
663.879	48.93
664.067	48.37
664.254	47.79
664.442	47.86
664.63	48.01
664.817	48.49
665.005	47.78
665.192	47.98
665.38	47.65
665.567	47.92
665.755	48.07
665.942	48.18
666.13	48.81
666.317	49.31
666.504	49.34
666.692	49.02
666.879	48.2
667.067	48.54
667.254	48.75
667.441	48.49
667.629	48.53
667.816	48.4
668.003	48.62
668.19	48.42
668.378	48.13
668.565	48.46
668.752	48.74
668.939	49.08
669.127	48.92
669.314	48.64
669.501	49.06
669.688	49.25
669.875	49.05
670.062	49.21
670.249	49.23
670.436	49.82
670.623	49.81
670.81	49.68
670.997	49.72
671.184	50.02
671.371	50.16
671.558	50.21
671.745	50.05
671.932	50.12
672.119	49.66
672.306	49.94
672.493	49.86
672.68	49.69
672.867	50.05
673.054	50.21
673.24	50.07
673.427	49.75
673.614	49.49
673.801	49.52
673.988	49.68
674.174	50.34
674.361	50.25
674.548	49.65
674.734	49.64
674.921	48.94
675.108	49.03
675.294	48.73
675.481	48.59
675.668	48.9
675.854	49.03
676.041	49.48
676.227	49.06
676.414	49.03
676.601	49.05
676.787	48.92
676.974	49.34
677.16	49.05
677.347	49.57
677.533	49.52
677.719	49.38
677.906	49.16
678.092	49.2
678.279	49.15
678.465	49.05
678.651	49.54
678.838	50.02
679.024	49.79
679.21	49.54
679.397	49.45
679.583	49.84
679.769	49.87
679.955	49.68
680.142	49
680.328	49.15
680.514	49.34
680.7	49.03
680.886	48.81
681.073	48.88
681.259	49.54
681.445	49.37
681.631	49.51
681.817	49.49
682.003	49.86
682.189	50.29
682.375	50.46
682.561	50.38
682.747	49.84
682.933	49.69
683.119	49.48
683.305	48.97
683.491	49.45
683.677	49.56
683.863	49.64
684.049	49.92
684.235	49.67
684.42	49.52
684.606	49.16
684.792	49.94
684.978	50.15
685.164	50.78
685.349	51.26
685.535	50.69
685.721	50.31
685.907	50.08
686.092	49.47
686.278	49.84
686.464	49.89
686.649	50.52
686.835	50.65
687.021	51.05
687.206	50.66
687.392	49.95
687.577	50.27
687.763	50.25
687.948	50.41
688.134	50.56
688.319	50.36
688.505	50.58
688.69	50.26
688.876	50.07
689.061	49.7
689.247	50.05
689.432	50.54
689.618	50.74
689.803	50.48
689.988	50.67
690.174	50.74
690.359	50.62
690.544	50.4
690.73	50.87
690.915	51.14
691.1	50.93
691.285	51.3
691.471	51.13
691.656	50.73
691.841	50.63
692.026	50.44
692.211	50.32
692.396	50.28
692.582	50.63
692.767	50.12
692.952	50.12
693.137	50.39
693.322	50.05
693.507	50.43
693.692	50.69
693.877	51.38
694.062	52.07
694.247	52.45
694.432	52.91
694.617	52.59
694.802	53.04
694.987	52.92
695.172	52.92
695.357	52.88
695.541	52.54
695.726	52.54
695.911	52.71
696.096	52.01
696.281	51.88
696.466	51.47
696.65	51.6
696.835	51.5
697.02	51.02
697.204	51.45
697.389	50.95
697.574	51.01
697.759	50.7
697.943	50.13
698.128	50.23
698.312	50.47
698.497	50.38
698.682	50.31
698.866	50.38
699.051	50.96
699.235	50.65
699.42	51.23
699.604	50.97
699.789	51.33
699.973	51.5
700.158	51.6
700.342	51.14
700.527	51.65
700.711	51.43
700.895	50.97
701.08	50.67
701.264	50.87
701.448	50.41
701.633	50.7
701.817	50.58
702.001	50.84
702.186	50.81
702.37	51.04
702.554	51.26
702.738	51.32
702.923	51.93
703.107	52.11
703.291	52.36
703.475	52.82
703.659	52.66
703.843	52.99
704.027	52.57
704.212	52.23
704.396	53.03
704.58	52.86
704.764	52.49
704.948	52.31
705.132	51.95
705.316	51.33
705.5	51.28
705.684	51.29
705.868	50.84
706.052	51.38
706.235	52.57
706.419	51.6
706.603	51.42
706.787	51.25
706.971	50.85
707.155	50.74
707.339	50.8
707.522	50.9
707.706	51.22
707.89	50.7
708.074	50.54
708.257	49.95
708.441	50.44
708.625	50.11
708.808	50.9
708.992	51.69
709.176	52
709.359	51.46
709.543	50.76
709.727	51.16
709.91	51.65
710.094	52.02
710.277	52.47
710.461	52.01
710.644	52.47
710.828	52.42
711.011	51.78
711.195	52.04
711.378	52.44
711.562	52.63
711.745	51.35
711.928	51.38
712.112	50.47
712.295	49.99
712.478	50.17
712.662	50.09
712.845	49.77
713.028	49.81
713.212	49.52
713.395	49.47
713.578	49.38
713.761	50.47
713.945	50.4
714.128	51.26
714.311	50.87
714.494	50.97
714.677	50.76
714.86	51.04
715.043	51.31
715.227	51.09
715.41	51.94
715.593	52.12
715.776	52.39
715.959	52.48
716.142	51.98
716.325	52.44
716.508	52.58
716.691	52.6
716.874	52.73
717.057	52.34
717.239	52.67
717.422	52.2
717.605	52.25
717.788	51.51
717.971	52.31
718.154	52.72
718.337	52.91
718.519	52.28
718.702	52.95
718.885	52.7
719.068	53.28
719.25	53.49
719.433	54.08
719.616	53.95
719.798	55.07
719.981	54.25
720.164	53.86
720.346	54.4
720.529	55.3
720.712	54.64
720.894	55.5
721.077	55.37
721.259	55.7
721.442	55.37
721.624	56.6
721.807	56.05
721.989	56.15
722.172	55.81
722.354	55.49
722.537	55.66
722.719	55.59
722.901	54.94
723.084	54.66
723.266	53.98
723.448	53.38
723.631	52.19
723.813	52.48
723.995	52.83
724.178	54.33
724.36	53.26
724.542	53.13
724.724	53.56
724.907	54
725.089	55.07
725.271	55.48
725.453	55.6
725.635	55.79
725.817	56.19
725.999	55.41
726.181	55.59
726.364	56.87
726.546	56.95
726.728	56.76
726.91	55.81
727.092	55.19
727.274	55.36
727.456	55.6
727.638	55.07
727.819	54.29
728.001	54.6
728.183	53.46
728.365	53.57
728.547	53.88
728.729	53.71
728.911	54.62
729.093	54.46
729.274	52.38
729.456	51.81
729.638	52.88
729.82	52.87
730.001	52.74
730.183	53.15
730.365	52.34
730.546	51.41
730.728	51.62
730.91	51.06
731.091	50.57
731.273	52.85
731.455	53.35
731.636	53.51
731.818	53.69
731.999	53.01
732.181	53.18
732.362	52.19
732.544	53.2
732.725	52.54
732.907	53.05
733.088	53.62
733.27	53.24
733.451	53.34
733.633	52.41
733.814	51.54
733.995	51.78
734.177	51.75
734.358	52.5
734.539	51.89
734.721	52.91
734.902	52.35
735.083	52.69
735.264	52.39
735.446	52.72
735.627	52.06
735.808	53.12
735.989	54.21
736.17	54.17
736.351	54.77
736.533	55.19
736.714	54.74
736.895	54.23
737.076	53.45
737.257	53.37
737.438	51.62
737.619	52.66
737.8	52.22
737.981	51.86
738.162	51.13
738.343	50.46
738.524	49.5
738.705	49.93
738.886	50.71
739.067	51.55
739.247	51.34
739.428	52.53
739.609	52.72
739.79	52.97
739.971	53.19
740.151	54.11
740.332	53.89
740.513	54.28
740.694	53.5
740.874	52.27
741.055	51.89
741.236	52.19
741.417	52.56
741.597	51.63
741.778	51.8
741.958	50.78
742.139	49.31
742.32	49.64
742.5	49.91
742.681	50.75
742.861	52.04
743.042	52.02
743.222	51.45
743.403	50.73
743.583	52.39
743.764	52.08
743.944	52.63
744.124	54.38
744.305	55.41
744.485	55.25
744.666	54.87
744.846	54.66
745.026	54.45
745.207	55.88
745.387	55.59
745.567	54.34
745.747	54.76
745.928	54.95
746.108	54
746.288	52.72
746.468	52.52
746.648	52.54
746.829	52.18
747.009	53.04
747.189	52.45
747.369	53.48
747.549	53.4
747.729	53.18
747.909	53.57
748.089	53.51
748.269	53.54
748.449	53.74
748.629	54.76
748.809	55
748.989	54.08
749.169	54.24
749.349	53.19
749.529	52.47
749.709	52.32
749.889	52.42
750.068	52.21
750.248	53.5
750.428	53.65
750.608	52.4
750.788	52.73
750.967	52.09
751.147	51.13
751.327	50.68
751.507	52.8
751.686	52.88
751.866	52.37
752.046	52.64
752.225	52.02
752.405	51.68
752.585	52.11
752.764	52.24
752.944	52.51
753.123	53.47
753.303	54.67
753.482	53.44
753.662	53.32
753.841	53.86
754.021	53.6
754.2	53.97
754.38	54.3
754.559	54.62
754.739	54.69
754.918	56.09
755.097	54.09
755.277	53.5
755.456	53.79
755.635	53.51
755.815	53.27
755.994	53.63
756.173	52.99
756.352	53.26
756.532	53.23
756.711	52.13
756.89	51.54
757.069	53.39
757.248	52.88
757.427	53.65
757.607	54.16
757.786	54.17
757.965	53.83
758.144	53.22
758.323	53.71
758.502	53.71
758.681	54.19
758.86	54.25
759.039	53.61
759.218	54.34
759.397	53.9
759.576	53.24
759.755	53.59
759.934	53
760.113	54.34
760.291	54.27
760.47	54.27
760.649	54.73
760.828	54.33
761.007	54.2
761.186	54.78
761.364	54.09
761.543	53.73
761.722	53.3
761.901	53.76
762.079	53.26
762.258	52.41
762.437	51.92
762.615	51.49
762.794	51.17
762.972	52.52
763.151	51.34
763.33	51.12
763.508	52.83
763.687	52.95
763.865	53.02
764.044	53.13
764.222	52.86
764.401	53.1
764.579	53.24
764.758	53.27
764.936	53.21
765.114	53.7
765.293	54.48
765.471	53.03
765.65	52.26
765.828	52.92
766.006	53.21
766.184	53.37
766.363	53.34
766.541	52.8
766.719	53.6
766.898	53.48
767.076	54.35
767.254	53.92
767.432	55.35
767.61	56.03
767.788	55.45
767.967	54.2
768.145	53.49
768.323	53.51
768.501	54.26
768.679	53.03
768.857	52.68
769.035	52.29
769.213	54.75
769.391	53.65
769.569	54.07
769.747	54.53
769.925	54.73
770.103	56.14
770.281	55.14
770.459	55.11
770.636	57.06
770.814	56.79
770.992	56.79
771.17	55.32
771.348	54.9
771.525	55.55
771.703	54.24
771.881	54.88
772.059	55.17
772.236	54.15
772.414	55.17
772.592	54.48
772.769	52.01
772.947	52.67
773.125	50.95
773.302	52.22
773.48	50.9
773.657	52.16
773.835	51.87
774.013	52.76
774.19	55.17
774.368	54.93
774.545	55.44
774.723	58.66
774.9	58.33
775.077	57.74
775.255	58.39
775.432	59.71
775.61	59.04
775.787	57.21
775.964	55.43
776.142	55.37
776.319	55.4
776.496	55.31
776.674	55.2
776.851	55.49
777.028	57.75
777.205	56.72
777.382	55.91
777.56	56.72
777.737	61.66
777.914	63.42
778.091	64.72
778.268	63.81
778.445	64.13
778.622	63.14
778.8	62.34
778.977	61.33
779.154	63.32
779.331	63.67
779.508	64.51
779.685	62.77
779.862	61.65
780.038	58.61
780.215	61.93
780.392	61.72
780.569	62.46
780.746	62.7
780.923	64
781.1	58.68
781.277	56.87
781.453	54.65
781.63	54.88
781.807	56.39
781.984	58.03
782.16	54.73
782.337	56.01
782.514	54.83
782.691	55.7
782.867	54.54
783.044	58.51
783.221	59.52
783.397	61.07
783.574	59.94
783.75	59.06
783.927	61.08
784.103	62.13
784.28	60.81
784.456	60.27
784.633	59.5
784.809	59.92
784.986	58.55
785.162	61.54
785.339	61.6
785.515	62.56
785.692	63.29
785.868	62.56
786.044	62.21
786.221	61.69
786.397	66.79
786.573	66.56
786.749	65.72
786.926	66.33
787.102	64.43
787.278	64
787.454	64.28
787.631	62.67
787.807	59.9
787.983	61.96
788.159	63.83
788.335	61.86
788.511	63.39
788.687	63.35
788.863	64.01
789.039	64.38
789.216	63.63
789.392	61.93
789.568	62.21
789.744	64.65
789.919	62.47
790.095	59.58
790.271	56.48
790.447	55.29
790.623	55.47
790.799	54.46
790.975	53.22
791.151	55.65
791.327	56.59
791.502	56.86
791.678	55.42
791.854	55.63
792.03	56
792.205	58.02
792.381	56.23
792.557	55.27
792.733	53.82
792.908	55.93
793.084	54.28
793.259	52.8
793.435	51.96
793.611	51.85
793.786	51
793.962	51.6
794.137	52.63
794.313	53.59
794.488	55.3
794.664	58.05
794.839	56.91
795.015	57.33
795.19	56.75
795.366	56.77
795.541	59.23
795.716	58.82
795.892	59.24
796.067	60.26
796.242	61.45
796.418	60.53
796.593	57.57
796.768	55.83
796.944	57.4
797.119	58.08
797.294	58.76
797.469	58.16
797.644	58.79
797.82	60.04
797.995	57.37
798.17	56.14
798.345	56.05
798.52	56.39
798.695	55.98
798.87	53.19
799.045	54.88
799.22	56.05
799.395	56.69
799.57	55.29
799.745	54.78
799.92	56.75
800.095	59.08
800.27	58.93
800.445	61.66
800.62	61.47
800.795	59.23
800.97	58.94
801.145	58.61
801.319	56.5
801.494	59.51
801.669	58.53
801.844	55.68
802.018	52.82
802.193	53.3
802.368	50.89
802.543	52.87
802.717	58.02
802.892	57.5
803.067	58.48
803.241	58.84
803.416	57.91
803.59	59.17
803.765	58.11
803.94	61.17
804.114	60.91
804.289	60.69
804.463	60
804.638	57.67
804.812	56.52
804.986	54.03
805.161	54.63
805.335	53.61
805.51	51.72
805.684	54.54
805.858	52.89
806.033	53.48
806.207	53.27
806.381	53.6
806.556	54.38
806.73	56.72
806.904	58.26
807.078	56.22
807.253	58.16
807.427	57.47
807.601	56.69
807.775	56.91
807.949	55.95
808.123	56.29
808.298	56.53
808.472	57.26
808.646	55.9
808.82	56.02
808.994	56.8
809.168	56.5
809.342	57.61
809.516	58.5
809.69	58.72
809.864	58.9
810.038	61.8
810.212	61.97
810.385	59.61
810.559	61.47
810.733	59.63
810.907	59.86
811.081	57.67
811.255	57.87
811.428	56.3
811.602	54.95
811.776	54.69
811.95	52.1
812.123	51.23
812.297	53.33
812.471	52.36
812.644	52.47
812.818	51.32
812.992	55.15
813.165	56.36
813.339	59.11
813.512	60.48
813.686	61.8
813.86	62.06
814.033	61.52
814.207	60.24
814.38	60.62
814.554	62.9
814.727	66.38
814.9	63.03
815.074	61.24
815.247	58.1
815.421	57.44
815.594	59.33
815.767	58.61
815.941	58.85
816.114	61.81
816.287	61.38
816.46	59.88
816.634	58.96
816.807	62.26
816.98	62.76
817.153	66.29
817.327	67.16
817.5	63.93
817.673	68.99
817.846	69.61
818.019	69.08
818.192	73.04
818.365	71.67
818.538	74.06
818.711	71.8
818.884	71
819.057	67.95
819.23	64.53
819.403	65.46
819.576	64.63
819.749	65.4
819.922	63.75
820.095	61.39
820.268	61.36
820.441	60.54
820.614	61.16
820.786	60.56
820.959	62.45
821.132	61.05
821.305	58.59
821.477	57.39
821.65	56.34
821.823	56.5
821.996	55.93
822.168	55.84
822.341	54.97
822.514	54.19
822.686	53.69
822.859	52.51
823.031	53.07
823.204	53.27
823.376	52.35
823.549	52.42
823.722	51.98
823.894	51.54
824.067	51.57
824.239	51.19
824.411	50.58
824.584	51.41
824.756	51.23
824.929	50.99
825.101	50.7
825.273	50.73
825.446	50.87
825.618	51.43
825.79	51.94
825.963	50.76
826.135	50.98
826.307	51.71
826.479	51.01
826.652	51.64
826.824	52.4
826.996	52.96
827.168	53.13
827.34	53.09
827.512	52.7
827.684	53.04
827.856	53.64
828.029	53.25
828.201	53.09
828.373	52.88
828.545	52.22
828.717	51.42
828.889	51.78
829.061	52.52
829.232	51.9
829.404	51.74
829.576	51.49
829.748	53.2
829.92	54.89
830.092	55.52
830.264	56.65
830.436	58.88
830.607	60.61
830.779	60.38
830.951	60.24
831.123	61.52
831.294	60.95
831.466	60.65
831.638	59.14
831.809	57.62
831.981	56.58
832.153	55.8
832.324	53.02
832.496	52.55
832.667	54
832.839	57.9
833.011	56.21
833.182	59.52
833.354	57.58
833.525	57.97
833.697	56.2
833.868	56.08
834.039	55.14
834.211	56.16
834.382	55.63
834.554	54.4
834.725	53.25
834.896	52.64
835.068	52.17
835.239	52.93
835.41	53.75
835.581	54.49
835.753	56.82
835.924	58.67
836.095	56.09
836.266	57.06
836.438	57.15
836.609	57.42
836.78	57.47
836.951	58.25
837.122	59.85
837.293	59.07
837.464	59.76
837.635	58.23
837.806	55.04
837.977	60.22
838.148	61.8
838.319	63.4
838.49	62.18
838.661	65.86
838.832	69.95
839.003	65.69
839.174	67.4
839.345	71.24
839.516	71.83
839.687	78.06
839.857	71.68
840.028	66.18
840.199	61.47
840.37	61.95
840.54	59.34
840.711	55.65
840.882	60.47
841.053	61.56
841.223	61.87
841.394	64.48
841.564	64.08
841.735	74.32
841.906	81.23
842.076	89.94
842.247	88.16
842.417	89.37
842.588	87.72
842.758	88.82
842.929	85.79
843.099	86.56
843.27	79.81
843.44	74.89
843.611	69.47
843.781	65.27
843.951	60.97
844.122	65.35
844.292	59.69
844.462	57.87
844.633	53.02
844.803	50.61
844.973	45.01
845.144	49.29
845.314	51.96
845.484	53.86
845.654	57.03
845.824	58.18
845.995	54.72
846.165	58.6
846.335	59.25
846.505	63.23
846.675	69.24
846.845	68.89
847.015	84.9
847.185	96.75
847.355	92.91
847.525	89.97
847.695	100.09
847.865	103.86
848.035	117.66
848.205	116.36
848.375	117.29
848.545	109.19
848.715	102.08
848.884	84.81
849.054	80.66
849.224	81.21
849.394	83.99
849.564	85.34
849.733	91.24
849.903	82.83
850.073	81.15
850.243	82.81
850.412	96.42
850.582	97.71
850.752	94.54
850.921	84.62
851.091	86.57
851.26	90.1
851.43	79.35
851.599	73.48
851.769	80.46
851.939	87.76
852.108	76.31
852.278	67.27
852.447	82.17
852.616	87.94
852.786	89.24
852.955	100.9
853.125	90.87
853.294	95.48
853.463	93
853.633	103.2
853.802	110.48
853.971	135.66
854.141	140.1
854.31	132.38
854.479	134.71
854.648	164.03
854.818	122.78
854.987	133.23
855.156	129.22
855.325	135.58
855.494	134.79
855.663	120.79
855.832	115.54
856.001	106.89
856.171	102.27
856.34	108
856.509	99.11
856.678	124.69
856.847	120.14
857.016	120.96
857.185	128.9
857.353	120.95
857.522	126.65
857.691	121.66
857.86	125.74
858.029	127.15
858.198	119.34
858.367	119.32
858.535	103.43
858.704	101.24
858.873	98.93
859.042	90.69
859.21	88.65
859.379	84.99
859.548	78
859.717	79.49
859.885	81.73
860.054	79.61
860.222	75.2
860.391	79.58
860.56	85.2
860.728	80.3
860.897	72.53
861.065	71.85
861.234	72.57
861.402	70.93
861.571	69.77
861.739	73.39
861.908	77.77
862.076	91.03
862.244	93.67
862.413	90.21
862.581	99.05
862.749	98.89
862.918	90.95
863.086	83.31
863.254	96.12
863.423	100.03
863.591	78.19
863.759	74.35
863.927	60.31
864.096	53.37
864.264	58.83
864.432	61.49
864.6	66.82
864.768	71.54
864.936	76.6
865.104	66.64
865.272	71.15
865.44	75.03
865.608	71.55
865.776	77.28
865.944	82.95
866.112	84.46
866.28	79.67
866.448	74.86
866.616	83.35
866.784	74.29
866.952	70.65
867.12	72.22
867.288	77.39
867.455	92.22
867.623	99.95
867.791	102.88
867.959	97.03
868.127	99.83
868.294	91.08
868.462	72.3
868.63	96.74
868.797	107.34
868.965	92.57
869.133	90.93
869.3	76.5
869.468	86.71
869.636	79.33
869.803	83.9
869.971	78.73
870.138	82.13
870.306	86.8
870.473	89.58
870.641	91.23
870.808	87.42
870.975	83.35
871.143	85.87
871.31	69.06
871.478	65.15
871.645	61.18
871.812	71.94
871.98	76.45
872.147	66.34
872.314	47.17
872.482	52.57
872.649	58.86
872.816	66.37
872.983	75.12
873.15	83.7
873.318	87.01
873.485	96.95
873.652	90.38
873.819	90.3
873.986	110.23
874.153	114.98
874.32	117.83
874.487	132.06
874.654	137.33
874.821	133.86
874.988	130.22
875.155	152.42
875.322	113.14
875.489	114.86
875.656	113.3
875.823	90.86
875.99	82.1
876.157	73.34
876.324	70.61
876.49	69.64
876.657	72.56
876.824	65.82
876.991	55.64
877.157	68.82
877.324	76.24
877.491	77.19
877.658	78.59
877.824	89.36
877.991	90.52
878.157	83.68
878.324	87.87
878.491	85.49
878.657	89.56
878.824	91.26
878.99	82.96
879.157	83.77
879.323	75.26
879.49	80.27
879.656	76.88
879.823	81.25
879.989	88.2
880.156	91.01
880.322	92.94
880.488	97.15
880.655	92.82
880.821	94.44
880.987	98.56
881.154	101.89
881.32	95.23
881.486	95.14
881.652	89.29
881.819	85.51
881.985	78.6
882.151	75.62
882.317	69.02
882.483	69.99
882.649	69.48
882.816	67.03
882.982	65.36
883.148	63.26
883.314	60.41
883.48	59.91
883.646	58.92
883.812	59.57
883.978	59.42
884.144	60.02
884.31	60.39
884.476	58.44
884.642	56.06
884.807	56.41
884.973	55.27
885.139	56.29
885.305	56.12
885.471	55.79
885.637	56.77
885.802	55.74
885.968	55.91
886.134	56.38
886.3	58.16
886.465	58.67
886.631	59.46
886.797	64.05
886.962	63.73
887.128	64.9
887.293	67.8
887.459	62.17
887.625	67.23
887.79	66.44
887.956	62.22
888.121	61.73
888.287	63.62
888.452	64.28
888.618	60.28
888.783	60.46
