Data from CB_036_Reflection_21-35-22-457.txt Node
Date: Wed Nov 11 21:35:22 EST 2015
User: robert
Spectrometer: USB4E03001
Autoset integration time: false
Trigger mode: 4
Integration Time (sec): 1.000000E-1
Scans to average: 15
Electric dark correction enabled: true
Nonlinearity correction enabled: false
Boxcar width: 5
Stray light correction enabled: false
XAxis mode: Wavelengths
Stop averaging: false
Number of Pixels in Spectrum: 3648
>>>>>Begin Spectral Data<<<<<
177.566	96.53
177.785	116.45
178.005	44.74
178.225	265.87
178.445	30.29
178.665	17.56
178.885	-146.87
179.105	-21.6
179.324	45.61
179.544	131.85
179.764	191.39
179.984	139.27
180.204	120.54
180.423	177.16
180.643	123.11
180.863	104.47
181.083	108.82
181.302	95.29
181.522	108.41
181.742	93.59
181.961	93.63
182.181	84.3
182.401	94.35
182.621	114.32
182.84	91.49
183.06	108.44
183.279	103.66
183.499	106.96
183.719	128.21
183.938	133.67
184.158	147.61
184.377	149.54
184.597	154.61
184.816	174.72
185.036	123.98
185.256	135.1
185.475	125.16
185.695	135.36
185.914	129.31
186.134	131.59
186.353	114.94
186.572	90.85
186.792	65.31
187.011	59.78
187.231	27.92
187.45	30.48
187.67	41.49
187.889	27.64
188.108	33.88
188.328	34.34
188.547	20.78
188.766	34.82
188.986	42.7
189.205	38.41
189.424	29.33
189.644	28.19
189.863	36.65
190.082	44.3
190.302	45.57
190.521	69.4
190.74	63.12
190.959	67.34
191.178	49.56
191.398	42.01
191.617	60.91
191.836	81.35
192.055	82.02
192.274	60.82
192.494	35.64
192.713	37.51
192.932	44.23
193.151	39.95
193.37	32.95
193.589	52.03
193.808	48.83
194.027	21.34
194.246	17.87
194.465	25.23
194.685	36.61
194.904	50.11
195.123	54.52
195.342	26.5
195.561	30.79
195.78	37.06
195.999	18.16
196.218	29.34
196.436	32.8
196.655	33.37
196.874	41.42
197.093	63.11
197.312	74.09
197.531	69.69
197.75	93.74
197.969	104.63
198.188	73.1
198.407	78.88
198.625	65.44
198.844	70.46
199.063	64.43
199.282	53.61
199.501	75.85
199.719	48.81
199.938	58.52
200.157	8.62
200.376	9.72
200.594	51.7
200.813	62.07
201.032	57.43
201.251	62.47
201.469	62
201.688	64.12
201.907	35.15
202.125	46.63
202.344	43.22
202.563	51.29
202.781	59.41
203	41.45
203.218	50.34
203.437	77.17
203.656	86.88
203.874	76.99
204.093	65.08
204.311	75.25
204.53	100.9
204.748	95.41
204.967	84.63
205.185	89.54
205.404	104.52
205.622	89.24
205.841	80.26
206.059	59.81
206.278	78.93
206.496	82.09
206.715	75.67
206.933	76.18
207.151	70.62
207.37	74.82
207.588	76.53
207.806	79.85
208.025	80.79
208.243	90.84
208.461	85.08
208.68	88.9
208.898	92.91
209.116	79.32
209.335	68.86
209.553	75.24
209.771	71.62
209.989	64.4
210.208	45.82
210.426	27.93
210.644	7.8
210.862	8.21
211.081	25.35
211.299	58.8
211.517	78.46
211.735	69.36
211.953	84.28
212.171	94.99
212.39	100.55
212.608	104.33
212.826	118
213.044	125.31
213.262	118.6
213.48	143.52
213.698	140.91
213.916	169.27
214.134	176.68
214.352	193.35
214.57	155.18
214.788	188.14
215.006	231.12
215.224	184.93
215.442	140
215.66	175.64
215.878	87.11
216.096	60.79
216.314	55.01
216.532	70.03
216.75	59.63
216.968	57.42
217.185	54.65
217.403	50.14
217.621	41.26
217.839	47.98
218.057	52.89
218.275	60.38
218.492	69.04
218.71	71.01
218.928	66.33
219.146	69.32
219.363	80.95
219.581	93.67
219.799	102.18
220.017	132.54
220.234	123.75
220.452	132.54
220.67	82.89
220.887	64.69
221.105	60.95
221.323	52.99
221.54	59.69
221.758	36.15
221.976	36.15
222.193	26.73
222.411	24.67
222.629	28.98
222.846	15.32
223.064	27.9
223.281	46.15
223.499	47.67
223.716	56.99
223.934	56.89
224.151	57
224.369	49.95
224.586	58.25
224.804	64.08
225.021	65.54
225.239	80.12
225.456	66.74
225.674	50.19
225.891	51.4
226.108	38.95
226.326	30.53
226.543	24.18
226.76	31.59
226.978	26.94
227.195	18.22
227.413	24.79
227.63	25.92
227.847	24.69
228.064	22.87
228.282	20.4
228.499	19.48
228.716	16.83
228.934	16.82
229.151	15.49
229.368	15.08
229.585	16.02
229.802	13.85
230.02	8.78
230.237	8.3
230.454	7.28
230.671	5.65
230.888	3.68
231.105	6.03
231.323	9.06
231.54	11.91
231.757	11.06
231.974	8.83
232.191	9.18
232.408	12.59
232.625	12.49
232.842	15.37
233.059	18.6
233.276	24.12
233.493	22.83
233.71	21.3
233.927	20.12
234.144	22.87
234.361	23.48
234.578	22.98
234.795	21.41
235.012	20.77
235.229	19.68
235.446	20.38
235.663	19.63
235.879	18.82
236.096	15.87
236.313	14.53
236.53	15.93
236.747	20.95
236.964	21.44
237.181	25.77
237.397	21.16
237.614	17.95
237.831	10.67
238.048	13.17
238.264	9.7
238.481	7.15
238.698	11.85
238.915	11.58
239.131	5.18
239.348	7.18
239.565	2.99
239.781	4.68
239.998	12.6
240.215	14.2
240.431	12.57
240.648	19.74
240.865	20.52
241.081	20.04
241.298	17.83
241.514	18.1
241.731	16.56
241.947	16.4
242.164	17.93
242.38	15.08
242.597	15.34
242.814	14.23
243.03	12.25
243.246	12.62
243.463	11.06
243.679	12.45
243.896	14.35
244.112	14.59
244.329	17.25
244.545	15.51
244.762	16.83
244.978	18.61
245.194	19.52
245.411	17.55
245.627	17.92
245.843	19.17
246.06	17.45
246.276	14.95
246.492	13.11
246.709	11.58
246.925	12.87
247.141	12.37
247.357	10.9
247.574	11.12
247.79	11.64
248.006	11.97
248.222	11.16
248.439	11.77
248.655	12.17
248.871	12.69
249.087	14
249.303	12.92
249.519	13.23
249.736	14.46
249.952	15.22
250.168	15.79
250.384	14.44
250.6	17.46
250.816	18.16
251.032	17.99
251.248	19.05
251.464	17.12
251.68	18.77
251.896	17.62
252.112	16.73
252.328	16.22
252.544	14.53
252.76	15.38
252.976	13.35
253.192	12.85
253.408	13.75
253.624	14.06
253.84	14.01
254.056	15.46
254.272	18.55
254.487	19.34
254.703	18.95
254.919	22.47
255.135	21.95
255.351	20.41
255.567	21.03
255.782	20.19
255.998	18.7
256.214	18.27
256.43	16.17
256.646	16.34
256.861	15.36
257.077	14.6
257.293	12.64
257.508	12.52
257.724	14.33
257.94	13.72
258.155	14
258.371	13
258.587	14.35
258.802	14.39
259.018	12.86
259.234	11.92
259.449	11.8
259.665	11.58
259.88	11.76
260.096	11.33
260.312	10.87
260.527	10.93
260.743	11.76
260.958	10.46
261.174	10.12
261.389	10.41
261.605	11.3
261.82	11.25
262.036	11.85
262.251	12.35
262.466	13.55
262.682	12.96
262.897	12.59
263.113	12.01
263.328	12.94
263.543	12.09
263.759	9.93
263.974	10.86
264.189	12.84
264.405	12.43
264.62	9.8
264.835	7.59
265.051	8.54
265.266	9.4
265.481	8.81
265.696	9.46
265.912	9.99
266.127	12.28
266.342	11.92
266.557	10.69
266.773	9.76
266.988	11.38
267.203	11.59
267.418	11.73
267.633	12.39
267.848	12.24
268.064	11.26
268.279	11.86
268.494	10.2
268.709	10.28
268.924	10.8
269.139	12.25
269.354	12.65
269.569	12.19
269.784	12.85
269.999	10.14
270.214	10.41
270.429	11.02
270.644	10.41
270.859	11.75
271.074	11.14
271.289	12.16
271.504	12.5
271.719	11.45
271.934	11.02
272.149	10.47
272.363	11.53
272.578	11.72
272.793	11.44
273.008	11.31
273.223	11.11
273.438	11.13
273.653	10.39
273.867	9.36
274.082	9.46
274.297	10.46
274.512	10.6
274.726	8.73
274.941	8.35
275.156	9.6
275.371	8.89
275.585	8.57
275.8	8.78
276.015	9.29
276.229	8.53
276.444	9.92
276.659	9.73
276.873	9.37
277.088	11.78
277.302	12.73
277.517	11.41
277.732	13.12
277.946	13.09
278.161	13.47
278.375	12.27
278.59	14.18
278.804	12.39
279.019	12.5
279.233	12.76
279.448	12.59
279.662	13.31
279.877	13.72
280.091	13.16
280.306	14.53
280.52	13.7
280.735	14.46
280.949	12.92
281.163	13.71
281.378	12.64
281.592	12.33
281.806	13.47
282.021	11.67
282.235	10.95
282.449	11.74
282.664	9.56
282.878	8.76
283.092	8.34
283.307	10.16
283.521	9.48
283.735	10.19
283.949	9.99
284.164	8.83
284.378	9.16
284.592	10.35
284.806	9.64
285.02	10.71
285.234	11.27
285.449	11.44
285.663	10.57
285.877	10.4
286.091	11.16
286.305	11.46
286.519	12.03
286.733	12.04
286.947	11.74
287.161	11.59
287.375	11.91
287.589	12.87
287.803	12.41
288.017	12.31
288.231	13.56
288.445	13.09
288.659	12.55
288.873	12.62
289.087	13.26
289.301	13.23
289.515	14.68
289.729	14.36
289.943	12.99
290.157	12.99
290.371	12.55
290.584	12.93
290.798	13.14
291.012	12.94
291.226	12.67
291.44	11.99
291.654	12.69
291.867	10.56
292.081	10.45
292.295	11.86
292.509	11.92
292.722	12.54
292.936	10.41
293.15	10.2
293.364	11.07
293.577	9.36
293.791	11.1
294.005	8.9
294.218	10.81
294.432	11.32
294.645	10.23
294.859	9.47
295.073	8.73
295.286	10.01
295.5	9.05
295.713	9.42
295.927	10.31
296.14	9.96
296.354	10.46
296.568	9.19
296.781	8.79
296.994	9.07
297.208	10.15
297.421	10.6
297.635	10.32
297.848	10.78
298.062	10.93
298.275	10.66
298.489	10.71
298.702	11.44
298.915	11.51
299.129	12.46
299.342	12.96
299.555	12.67
299.769	12.88
299.982	12.75
300.195	12.75
300.409	12.64
300.622	14.16
300.835	13.07
301.048	11.79
301.262	12.24
301.475	11.91
301.688	11.38
301.901	11.62
302.115	11.15
302.328	11.82
302.541	12.15
302.754	11.3
302.967	10.45
303.18	12.1
303.393	13.02
303.607	12.51
303.82	11.95
304.033	12.48
304.246	11.83
304.459	12.78
304.672	12.45
304.885	13.79
305.098	13.52
305.311	14.1
305.524	12.6
305.737	11.81
305.95	11.99
306.163	12.36
306.376	11.76
306.589	11.34
306.802	10.25
307.015	11.15
307.228	9.38
307.44	11.17
307.653	11.33
307.866	11.7
308.079	12.56
308.292	13.24
308.505	13.18
308.718	13.87
308.93	15.8
309.143	16.23
309.356	14.73
309.569	15.01
309.781	14.09
309.994	13.86
310.207	13.83
310.42	14.39
310.632	14.6
310.845	14.29
311.058	14.13
311.27	12.8
311.483	12.59
311.696	13.39
311.908	14.1
312.121	14.77
312.333	14.79
312.546	14.71
312.759	14.24
312.971	13.8
313.184	13.8
313.396	13.52
313.609	15.13
313.821	16.39
314.034	16.13
314.246	16.06
314.459	16.14
314.671	16.66
314.884	17.93
315.096	18.19
315.309	18.67
315.521	18.34
315.733	18.72
315.946	17.32
316.158	16.45
316.371	16.54
316.583	14.41
316.795	14.11
317.008	12.72
317.22	11.14
317.432	11.21
317.644	10.95
317.857	12.31
318.069	11.95
318.281	11.53
318.494	10.9
318.706	12.35
318.918	14.28
319.13	15.01
319.342	15.98
319.555	16.22
319.767	16
319.979	16.34
320.191	14.97
320.403	15.98
320.615	16.72
320.827	18.75
321.039	16.98
321.252	16.95
321.464	15.78
321.676	15.77
321.888	17.35
322.1	17.31
322.312	17.57
322.524	19.37
322.736	19.5
322.948	20.58
323.16	19.57
323.372	19.6
323.584	19.14
323.796	19.48
324.007	20.13
324.219	20.36
324.431	20.5
324.643	21.25
324.855	21.45
325.067	21.09
325.279	20.99
325.491	22.4
325.702	23.48
325.914	23.75
326.126	24.94
326.338	23.66
326.55	23.16
326.761	24.22
326.973	24.25
327.185	24.74
327.396	25.51
327.608	25.49
327.82	25.22
328.032	25.45
328.243	26.4
328.455	26.55
328.666	28.02
328.878	27.84
329.09	27.68
329.301	28.01
329.513	28.41
329.725	28.09
329.936	29.31
330.148	28.38
330.359	28.52
330.571	28.82
330.782	29.18
330.994	29.53
331.205	31.02
331.417	31.26
331.628	31.9
331.84	31.55
332.051	32.56
332.262	32.75
332.474	34.24
332.685	34.33
332.897	33.78
333.108	34.34
333.319	35
333.531	35.11
333.742	36.07
333.953	35.47
334.165	35.73
334.376	36.62
334.587	36.53
334.799	36.11
335.01	36.65
335.221	36.94
335.432	36.69
335.644	35.99
335.855	36.07
336.066	35.21
336.277	35.63
336.488	35.24
336.7	34.13
336.911	34.08
337.122	34.31
337.333	33.74
337.544	34.36
337.755	34.49
337.966	35.06
338.177	33.99
338.388	33.96
338.599	34.32
338.811	34.44
339.022	34.76
339.233	34.46
339.444	34.25
339.655	35.26
339.866	35.5
340.076	34.89
340.287	34.62
340.498	35.45
340.709	36.41
340.92	36.16
341.131	36.85
341.342	37.02
341.553	37.41
341.764	37.12
341.975	36.42
342.185	35.72
342.396	36.14
342.607	36.36
342.818	36.32
343.029	35.39
343.239	35.39
343.45	34.52
343.661	34.26
343.872	33.31
344.082	33.16
344.293	33.41
344.504	33.42
344.714	33.33
344.925	33.55
345.136	33.63
345.346	34.11
345.557	33.55
345.768	33.58
345.978	33.87
346.189	34.68
346.399	35.37
346.61	35.23
346.821	34.8
347.031	35.01
347.242	34.92
347.452	35.3
347.663	35.59
347.873	36.02
348.084	36.17
348.294	35.52
348.504	34.96
348.715	35.04
348.925	35.07
349.136	34.91
349.346	34.3
349.557	34.04
349.767	33.63
349.977	33.03
350.188	33.02
350.398	32.73
350.608	32.59
350.819	33.05
351.029	32.34
351.239	32.07
351.449	33.26
351.66	32.93
351.87	33.69
352.08	33.62
352.29	33.77
352.501	34.57
352.711	35.09
352.921	34.71
353.131	34.81
353.341	35.19
353.552	35.54
353.762	34.85
353.972	35.49
354.182	33.97
354.392	34.11
354.602	34.13
354.812	33.1
355.022	32.84
355.232	33.83
355.442	34.1
355.652	34.56
355.862	34.34
356.072	34.19
356.282	34.05
356.492	34.68
356.702	34.95
356.912	34.16
357.122	34.12
357.332	34.69
357.542	34.87
357.752	34.17
357.962	33.47
358.171	33.4
358.381	33.62
358.591	33
358.801	32.3
359.011	31.41
359.221	32.37
359.43	32.48
359.64	31.47
359.85	30.94
360.06	30.91
360.269	31.15
360.479	31.12
360.689	31.09
360.899	31.56
361.108	31.79
361.318	31.89
361.528	31.58
361.737	31.1
361.947	31.46
362.156	30.93
362.366	31.1
362.576	30.67
362.785	31
362.995	30.75
363.204	31.15
363.414	31.59
363.623	31.7
363.833	31.07
364.042	30.78
364.252	30.9
364.461	31.06
364.671	30.94
364.88	31.22
365.09	30.71
365.299	30.96
365.509	30.32
365.718	29.95
365.927	29.98
366.137	30.12
366.346	30.7
366.555	30.08
366.765	29.88
366.974	29.64
367.183	29.38
367.393	29.65
367.602	29.6
367.811	29.1
368.021	28.83
368.23	28.35
368.439	28.52
368.648	28.28
368.857	27.89
369.067	28.36
369.276	28.28
369.485	28.67
369.694	28.82
369.903	28.24
370.112	28.05
370.321	27.76
370.531	27.99
370.74	28.1
370.949	27.84
371.158	28.06
371.367	27.66
371.576	27.91
371.785	27.51
371.994	26.55
372.203	26.28
372.412	26.6
372.621	26.57
372.83	25.76
373.039	25.4
373.248	25.57
373.457	25.33
373.666	25.37
373.874	24.85
374.083	24.15
374.292	24.23
374.501	24.69
374.71	24.73
374.919	24.63
375.128	24.97
375.336	24.75
375.545	24.25
375.754	24.74
375.963	24.38
376.171	24.47
376.38	24.75
376.589	24.34
376.798	23.96
377.006	23.73
377.215	23.78
377.424	24.01
377.632	23.88
377.841	23.94
378.05	23.3
378.258	23
378.467	22.87
378.675	22.98
378.884	22.88
379.093	22.38
379.301	22.23
379.51	21.91
379.718	21.7
379.927	21.8
380.135	21.44
380.344	21.45
380.552	21.73
380.761	21.1
380.969	20.4
381.177	20.56
381.386	20.71
381.594	20.47
381.803	20.63
382.011	20.28
382.219	20.08
382.428	20.25
382.636	20.13
382.845	19.74
383.053	19.92
383.261	20.08
383.469	19.82
383.678	19.68
383.886	19.53
384.094	19.19
384.302	19.41
384.511	19.6
384.719	19.14
384.927	19.1
385.135	19.27
385.343	19.32
385.552	19.47
385.76	19.58
385.968	19.24
386.176	19.11
386.384	19.08
386.592	18.84
386.8	18.53
387.008	18.98
387.216	18.87
387.424	18.82
387.633	18.51
387.841	17.9
388.049	17.65
388.257	17.97
388.465	17.76
388.672	17.82
388.88	17.65
389.088	17.34
389.296	16.71
389.504	16.15
389.712	15.57
389.92	15.75
390.128	15.64
390.336	15.42
390.544	15.5
390.751	15.59
390.959	15.6
391.167	15.48
391.375	15.53
391.583	15.74
391.79	15.85
391.998	15.88
392.206	15.95
392.414	16.12
392.621	15.89
392.829	15.88
393.037	15.76
393.244	15.38
393.452	15.29
393.66	15.15
393.867	15.14
394.075	15.14
394.283	15.17
394.49	15.1
394.698	15.14
394.905	15.27
395.113	14.83
395.32	14.85
395.528	15.15
395.735	15.09
395.943	15.06
396.15	15.02
396.358	14.92
396.565	15.17
396.773	14.63
396.98	14.42
397.188	14.4
397.395	14.39
397.602	14.3
397.81	13.99
398.017	13.74
398.225	13.57
398.432	13.3
398.639	13.51
398.847	12.94
399.054	13.17
399.261	13.11
399.468	13.17
399.676	13.06
399.883	13.13
400.09	12.68
400.297	12.8
400.505	12.54
400.712	12.66
400.919	12.37
401.126	12.7
401.333	12.24
401.54	12.12
401.748	11.98
401.955	12.11
402.162	12.01
402.369	12.17
402.576	12.23
402.783	12.46
402.99	12.08
403.197	11.96
403.404	11.78
403.611	12.11
403.818	12
404.025	12.02
404.232	11.99
404.439	11.71
404.646	11.52
404.853	11.29
405.06	10.96
405.267	11.14
405.474	10.98
405.681	10.86
405.887	10.86
406.094	10.92
406.301	10.95
406.508	10.74
406.715	10.69
406.922	10.99
407.128	11.26
407.335	11.52
407.542	11.35
407.749	11.37
407.955	11.23
408.162	10.71
408.369	10.42
408.575	10.2
408.782	10.25
408.989	10.45
409.195	10.26
409.402	9.97
409.609	9.9
409.815	10.08
410.022	10.26
410.228	10.37
410.435	10.67
410.642	10.97
410.848	10.77
411.055	10.88
411.261	10.58
411.468	10.6
411.674	10.63
411.881	10.54
412.087	10.56
412.294	10.57
412.5	10.65
412.706	10.63
412.913	10.27
413.119	10.56
413.326	10.43
413.532	10.44
413.738	10.43
413.945	10.24
414.151	10.19
414.357	9.85
414.564	9.85
414.77	9.76
414.976	9.83
415.182	10.05
415.389	9.59
415.595	9.42
415.801	9.56
416.007	9.44
416.214	9.34
416.42	9.52
416.626	9.63
416.832	9.56
417.038	9.65
417.244	9.63
417.45	9.32
417.657	9.52
417.863	9.48
418.069	9.21
418.275	9.23
418.481	9.25
418.687	9.2
418.893	9.02
419.099	9.03
419.305	8.76
419.511	8.59
419.717	8.81
419.923	8.68
420.129	8.69
420.335	8.75
420.541	8.69
420.746	8.62
420.952	8.37
421.158	8.37
421.364	8.21
421.57	8.18
421.776	8.2
421.982	8.02
422.187	7.98
422.393	7.9
422.599	7.94
422.805	7.88
423.01	7.93
423.216	8
423.422	7.97
423.628	7.93
423.833	7.92
424.039	7.9
424.245	8.09
424.45	8.17
424.656	8.15
424.862	8.06
425.067	8.18
425.273	8.21
425.478	8.32
425.684	8.43
425.889	8.54
426.095	8.67
426.301	8.64
426.506	8.58
426.712	8.59
426.917	8.66
427.123	8.63
427.328	8.35
427.533	8.24
427.739	8.14
427.944	8.09
428.15	7.96
428.355	7.98
428.561	8.02
428.766	7.89
428.971	8.1
429.177	8.3
429.382	8.44
429.587	8.53
429.793	8.43
429.998	8.42
430.203	8.29
430.408	8.29
430.614	8.34
430.819	8.39
431.024	8.38
431.229	8.2
431.434	7.84
431.64	7.82
431.845	7.81
432.05	7.78
432.255	7.76
432.46	7.69
432.665	7.63
432.87	7.61
433.076	7.55
433.281	7.67
433.486	7.53
433.691	7.63
433.896	7.62
434.101	7.74
434.306	7.92
434.511	7.77
434.716	8.04
434.921	8.2
435.126	8.17
435.331	8.03
435.535	7.87
435.74	7.9
435.945	7.9
436.15	8.07
436.355	8.15
436.56	8.1
436.765	8.06
436.97	8.02
437.174	7.93
437.379	7.86
437.584	7.88
437.789	8
437.993	8.25
438.198	8.23
438.403	8.03
438.608	7.82
438.812	7.61
439.017	7.71
439.222	7.57
439.426	7.49
439.631	7.44
439.836	7.52
440.04	7.29
440.245	7.02
440.45	6.96
440.654	7.02
440.859	7.05
441.063	7.16
441.268	7.18
441.472	7.17
441.677	7.28
441.881	7.39
442.086	7.44
442.29	7.5
442.495	7.71
442.699	7.9
442.904	7.75
443.108	7.84
443.312	7.83
443.517	7.89
443.721	7.82
443.925	7.77
444.13	7.63
444.334	7.46
444.538	7.42
444.743	7.29
444.947	7.05
445.151	7.03
445.356	7
445.56	6.96
445.764	6.98
445.968	6.97
446.173	6.94
446.377	6.94
446.581	7.04
446.785	7.05
446.989	6.96
447.193	6.99
447.398	6.93
447.602	6.79
447.806	6.71
448.01	6.66
448.214	6.71
448.418	6.73
448.622	6.68
448.826	6.48
449.03	6.55
449.234	6.62
449.438	6.78
449.642	6.88
449.846	7.17
450.05	7.41
450.254	7.3
450.458	7.41
450.662	7.41
450.866	7.45
451.069	7.61
451.273	7.44
451.477	7.33
451.681	7.12
451.885	7.07
452.089	6.92
452.292	6.78
452.496	6.83
452.7	6.73
452.904	6.71
453.107	6.91
453.311	6.74
453.515	6.85
453.719	7.03
453.922	7.08
454.126	7.22
454.33	7.19
454.533	7.22
454.737	7.39
454.94	7.32
455.144	7.15
455.348	6.92
455.551	7.15
455.755	6.94
455.958	6.82
456.162	6.82
456.365	6.93
456.569	7.01
456.772	7.02
456.976	6.66
457.179	6.82
457.383	6.98
457.586	6.98
457.79	6.72
457.993	6.87
458.196	6.82
458.4	6.74
458.603	6.47
458.807	6.44
459.01	6.41
459.213	6.59
459.417	6.53
459.62	6.59
459.823	6.59
460.026	6.64
460.23	6.7
460.433	6.69
460.636	6.67
460.839	6.86
461.042	6.8
461.246	6.77
461.449	6.63
461.652	6.53
461.855	6.38
462.058	6.4
462.261	6.5
462.464	6.41
462.668	6.4
462.871	6.57
463.074	6.32
463.277	6.25
463.48	6.4
463.683	6.58
463.886	6.67
464.089	6.78
464.292	6.81
464.495	6.74
464.698	6.77
464.901	6.87
465.104	6.79
465.306	6.94
465.509	7.09
465.712	7.21
465.915	7.16
466.118	7.22
466.321	7.3
466.524	7.27
466.726	7.25
466.929	7.3
467.132	7.22
467.335	7.11
467.538	7.1
467.74	7.25
467.943	7
468.146	6.92
468.348	6.95
468.551	6.89
468.754	7.08
468.956	7.07
469.159	6.92
469.362	6.88
469.564	7.04
469.767	7.07
469.969	6.89
470.172	6.91
470.375	6.78
470.577	6.86
470.78	6.94
470.982	6.86
471.185	6.95
471.387	7.09
471.59	7.16
471.792	7.1
471.995	7.06
472.197	7.14
472.399	7.03
472.602	7.16
472.804	7.13
473.007	7.05
473.209	7
473.411	6.89
473.614	6.72
473.816	6.69
474.018	6.67
474.22	6.79
474.423	6.67
474.625	6.68
474.827	6.94
475.03	6.87
475.232	6.76
475.434	6.83
475.636	6.81
475.838	6.92
476.04	6.78
476.243	6.9
476.445	6.75
476.647	6.86
476.849	7.12
477.051	6.93
477.253	6.88
477.455	6.9
477.657	6.74
477.859	6.97
478.061	7.12
478.263	7.25
478.465	7.26
478.667	7.19
478.869	7.06
479.071	7
479.273	6.96
479.475	7.02
479.677	7.05
479.879	6.98
480.081	6.95
480.283	6.73
480.485	6.88
480.686	6.66
480.888	6.78
481.09	6.96
481.292	6.92
481.494	6.88
481.695	6.79
481.897	6.75
482.099	6.8
482.301	6.7
482.502	6.76
482.704	6.67
482.906	6.71
483.107	6.7
483.309	6.5
483.511	6.47
483.712	6.52
483.914	6.53
484.115	6.5
484.317	6.45
484.519	6.44
484.72	6.44
484.922	6.36
485.123	6.38
485.325	6.29
485.526	6.41
485.728	6.41
485.929	6.35
486.131	6.33
486.332	6.37
486.534	6.4
486.735	6.39
486.936	6.31
487.138	6.36
487.339	6.32
487.541	6.43
487.742	6.41
487.943	6.47
488.144	6.49
488.346	6.48
488.547	6.44
488.748	6.41
488.95	6.39
489.151	6.39
489.352	6.4
489.553	6.4
489.755	6.33
489.956	6.26
490.157	6.25
490.358	6.27
490.559	6.27
490.76	6.32
490.961	6.39
491.163	6.42
491.364	6.45
491.565	6.53
491.766	6.64
491.967	6.66
492.168	6.72
492.369	6.65
492.57	6.59
492.771	6.62
492.972	6.62
493.173	6.55
493.374	6.58
493.575	6.56
493.776	6.49
493.976	6.39
494.177	6.41
494.378	6.5
494.579	6.62
494.78	6.73
494.981	6.67
495.182	6.76
495.382	7.02
495.583	7.07
495.784	7.26
495.985	7.35
496.185	7.33
496.386	7.25
496.587	7.16
496.788	7.12
496.988	7.12
497.189	7.19
497.39	7.2
497.59	7.16
497.791	7.27
497.992	7.32
498.192	7.35
498.393	7.28
498.593	7.52
498.794	7.55
498.994	7.57
499.195	7.75
499.395	7.74
499.596	7.87
499.796	8.07
499.997	8.17
500.197	8.19
500.398	8.25
500.598	8.33
500.799	8.13
500.999	8.36
501.199	8.54
501.4	8.54
501.6	8.69
501.801	8.63
502.001	8.45
502.201	8.36
502.402	8.24
502.602	8.24
502.802	8.32
503.002	8.54
503.203	8.32
503.403	8.18
503.603	8.21
503.803	8.35
504.003	8.51
504.204	8.72
504.404	8.78
504.604	8.84
504.804	9.05
505.004	9.4
505.204	9.37
505.404	9.6
505.604	9.74
505.804	9.89
506.005	9.89
506.205	9.92
506.405	9.96
506.605	9.99
506.805	10.24
507.005	10.35
507.204	10.29
507.404	10.53
507.604	10.57
507.804	10.78
508.004	10.85
508.204	10.91
508.404	10.97
508.604	10.98
508.804	11.08
509.003	11.17
509.203	11.09
509.403	11.18
509.603	11.09
509.803	11.25
510.002	11.24
510.202	11.26
510.402	11.5
510.602	11.68
510.801	11.75
511.001	11.91
511.201	11.89
511.4	12.01
511.6	12.15
511.8	12.32
511.999	12.43
512.199	12.49
512.398	12.54
512.598	12.6
512.797	12.81
512.997	13.06
513.197	13.19
513.396	13.38
513.596	13.55
513.795	13.7
513.994	14
514.194	14.1
514.393	14.31
514.593	14.46
514.792	14.56
514.992	14.59
515.191	14.62
515.39	14.71
515.59	14.83
515.789	15.01
515.988	15.08
516.188	15.09
516.387	15.21
516.586	15.39
516.786	15.62
516.985	15.8
517.184	15.95
517.383	16.18
517.582	16.35
517.782	16.54
517.981	16.55
518.18	16.66
518.379	16.92
518.578	17.17
518.777	17.25
518.976	17.46
519.176	17.6
519.375	17.83
519.574	17.89
519.773	18.03
519.972	18.14
520.171	18.46
520.37	18.74
520.569	18.75
520.768	18.84
520.967	19.02
521.166	19.1
521.365	19.3
521.564	19.42
521.762	19.75
521.961	19.96
522.16	20.11
522.359	20.16
522.558	20.14
522.757	20.33
522.956	20.53
523.154	20.68
523.353	20.79
523.552	20.98
523.751	21.13
523.949	21.26
524.148	21.38
524.347	21.62
524.546	21.95
524.744	22.14
524.943	22.3
525.142	22.41
525.34	22.52
525.539	22.75
525.737	22.84
525.936	22.91
526.135	23.06
526.333	23.22
526.532	23.35
526.73	23.46
526.929	23.7
527.127	23.89
527.326	23.99
527.524	24.25
527.723	24.35
527.921	24.52
528.12	24.64
528.318	24.76
528.516	24.84
528.715	24.94
528.913	25.05
529.112	25.1
529.31	25.1
529.508	25.19
529.707	25.22
529.905	25.34
530.103	25.39
530.301	25.44
530.5	25.53
530.698	25.64
530.896	25.85
531.094	25.96
531.293	26.16
531.491	26.49
531.689	26.69
531.887	26.86
532.085	27.1
532.283	27.21
532.481	27.45
532.68	27.59
532.878	27.73
533.076	27.78
533.274	27.77
533.472	27.82
533.67	27.86
533.868	27.94
534.066	28.13
534.264	28.18
534.462	28.36
534.66	28.4
534.858	28.45
535.056	28.6
535.253	28.76
535.451	29
535.649	29.12
535.847	29.31
536.045	29.51
536.243	29.64
536.441	29.72
536.638	29.76
536.836	29.95
537.034	30.04
537.232	30.12
537.43	30.16
537.627	30.34
537.825	30.44
538.023	30.45
538.22	30.44
538.418	30.55
538.616	30.53
538.813	30.72
539.011	30.8
539.209	30.92
539.406	30.96
539.604	31.23
539.801	31.26
539.999	31.43
540.196	31.58
540.394	31.67
540.591	31.54
540.789	31.72
540.986	31.72
541.184	31.72
541.381	31.84
541.579	31.95
541.776	31.86
541.974	31.81
542.171	31.81
542.368	31.9
542.566	32.05
542.763	32.21
542.96	32.23
543.158	32.35
543.355	32.43
543.552	32.51
543.75	32.61
543.947	32.7
544.144	32.93
544.341	33.1
544.539	33.16
544.736	33.08
544.933	33.16
545.13	33.32
545.327	33.45
545.524	33.47
545.722	33.53
545.919	33.53
546.116	33.71
546.313	33.79
546.51	33.82
546.707	33.91
546.904	34.08
547.101	34.11
547.298	34.1
547.495	34.02
547.692	34.25
547.889	34.2
548.086	34.44
548.283	34.29
548.48	34.46
548.677	34.61
548.874	34.64
549.07	34.79
549.267	34.91
549.464	35.02
549.661	35.35
549.858	35.46
550.055	35.53
550.251	35.32
550.448	35.66
550.645	35.51
550.842	35.36
551.038	35.46
551.235	35.4
551.432	35.44
551.628	35.44
551.825	35.37
552.022	35.24
552.218	35.31
552.415	35.44
552.612	35.32
552.808	35.21
553.005	35.36
553.201	35.37
553.398	35.37
553.594	35.45
553.791	35.55
553.987	35.65
554.184	35.73
554.38	35.98
554.577	35.92
554.773	36.21
554.97	36.45
555.166	36.36
555.362	36.51
555.559	36.73
555.755	36.59
555.952	36.55
556.148	36.67
556.344	36.7
556.541	36.58
556.737	36.73
556.933	36.61
557.129	36.61
557.326	36.82
557.522	36.75
557.718	36.71
557.914	36.88
558.11	37.04
558.307	36.91
558.503	36.9
558.699	37.1
558.895	37.09
559.091	37.14
559.287	37.26
559.483	37.22
559.679	37.18
559.876	37.29
560.072	37.43
560.268	37.44
560.464	37.28
560.66	37.31
560.856	37.17
561.052	37.13
561.247	37.06
561.443	36.97
561.639	37.08
561.835	37.09
562.031	36.94
562.227	36.87
562.423	36.75
562.619	36.75
562.815	36.78
563.01	36.86
563.206	37.03
563.402	37.35
563.598	37.49
563.793	37.44
563.989	37.45
564.185	37.52
564.381	37.71
564.576	37.73
564.772	37.99
564.968	38.07
565.163	38.09
565.359	38.17
565.555	37.99
565.75	37.94
565.946	37.88
566.141	37.87
566.337	37.86
566.532	37.71
566.728	37.73
566.923	37.68
567.119	37.75
567.314	37.68
567.51	37.55
567.705	37.63
567.901	37.47
568.096	37.65
568.292	37.6
568.487	37.53
568.682	37.68
568.878	37.83
569.073	37.89
569.268	37.74
569.464	37.9
569.659	37.89
569.854	37.78
570.05	38.08
570.245	38.15
570.44	38.32
570.635	38.42
570.831	38.35
571.026	38.49
571.221	38.38
571.416	38.49
571.611	38.36
571.806	38.65
572.002	38.79
572.197	38.79
572.392	38.69
572.587	38.68
572.782	38.56
572.977	38.61
573.172	38.32
573.367	38.41
573.562	38.36
573.757	38.49
573.952	38.29
574.147	38.21
574.342	38.29
574.537	38.26
574.732	38.33
574.927	38.61
575.121	38.55
575.316	38.7
575.511	38.69
575.706	38.78
575.901	38.79
576.096	38.75
576.29	38.7
576.485	38.56
576.68	38.8
576.875	38.66
577.069	38.42
577.264	38.47
577.459	38.58
577.654	38.74
577.848	38.81
578.043	39.03
578.238	39.2
578.432	39.32
578.627	39.35
578.821	39.14
579.016	39.4
579.21	39.65
579.405	39.64
579.6	39.67
579.794	39.5
579.989	39.3
580.183	39.01
580.378	39.07
580.572	39.05
580.766	39.29
580.961	39.34
581.155	39.46
581.35	39.51
581.544	39.55
581.738	39.47
581.933	39.63
582.127	39.89
582.321	40
582.516	39.73
582.71	39.73
582.904	39.48
583.099	39.45
583.293	39.41
583.487	39.43
583.681	39.48
583.875	39.5
584.07	39.55
584.264	39.41
584.458	39.28
584.652	39.53
584.846	39.37
585.04	39.55
585.234	39.55
585.428	39.14
585.623	39.16
585.817	39.34
586.011	39.33
586.205	39.09
586.399	39.4
586.593	39.63
586.787	39.45
586.981	39.64
587.174	39.57
587.368	39.63
587.562	39.85
587.756	39.76
587.95	39.72
588.144	39.8
588.338	40.03
588.532	39.96
588.725	39.95
588.919	40.25
589.113	40.58
589.307	40.59
589.501	40.77
589.694	40.84
589.888	41.04
590.082	41.08
590.275	41.09
590.469	40.89
590.663	40.66
590.856	40.82
591.05	40.86
591.244	40.55
591.437	40.51
591.631	40.52
591.824	40.61
592.018	40.52
592.212	40.57
592.405	40.5
592.599	40.87
592.792	40.85
592.986	40.71
593.179	40.63
593.372	40.77
593.566	40.72
593.759	40.52
593.953	40.33
594.146	40.32
594.339	40.03
594.533	40.18
594.726	40.08
594.92	40.03
595.113	39.85
595.306	39.75
595.499	39.64
595.693	39.74
595.886	39.74
596.079	39.83
596.272	39.9
596.466	40.08
596.659	40.03
596.852	39.97
597.045	40.16
597.238	40.07
597.431	40.01
597.624	40.08
597.818	40.3
598.011	40.3
598.204	40.44
598.397	40.44
598.59	40.41
598.783	40.47
598.976	40.63
599.169	40.48
599.362	40.8
599.555	41.11
599.748	40.84
599.941	40.8
600.134	41
600.326	40.72
600.519	40.79
600.712	40.93
600.905	40.76
601.098	40.46
601.291	40.81
601.483	40.93
601.676	40.64
601.869	40.87
602.062	40.65
602.255	40.57
602.447	40.71
602.64	40.78
602.833	40.59
603.025	40.65
603.218	40.67
603.411	40.62
603.603	40.46
603.796	40.42
603.989	40.53
604.181	40.38
604.374	40.24
604.566	40.11
604.759	40.15
604.951	40.25
605.144	40.26
605.336	40.34
605.529	40.27
605.721	40.15
605.914	40.44
606.106	40.31
606.299	40.85
606.491	40.79
606.683	40.99
606.876	40.94
607.068	40.8
607.26	40.95
607.453	40.94
607.645	40.8
607.837	40.94
608.03	40.82
608.222	41.02
608.414	40.79
608.606	41.07
608.799	41.12
608.991	41.04
609.183	41.17
609.375	40.87
609.567	41.14
609.759	41.4
609.952	41.54
610.144	41.71
610.336	41.73
610.528	41.54
610.72	41.82
610.912	41.89
611.104	42.03
611.296	42.27
611.488	42.52
611.68	42.5
611.872	42.73
612.064	42.73
612.256	42.73
612.448	42.61
612.64	42.87
612.832	42.51
613.023	42.52
613.215	42.28
613.407	42.18
613.599	42.42
613.791	42.35
613.983	42.35
614.174	42.25
614.366	42.31
614.558	42.59
614.75	42.58
614.941	42.8
615.133	42.44
615.325	42.47
615.516	42.46
615.708	42.22
615.9	42.3
616.091	42.19
616.283	42.45
616.475	42.41
616.666	42.31
616.858	42.23
617.049	42.16
617.241	42.39
617.432	42.23
617.624	42.26
617.815	42.09
618.007	41.98
618.198	41.82
618.39	41.65
618.581	41.53
618.773	41.48
618.964	41.37
619.155	41.06
619.347	41.16
619.538	41.37
619.729	41.07
619.921	41.67
620.112	41.82
620.303	41.63
620.494	41.56
620.686	41.33
620.877	41.51
621.068	41.79
621.259	42.25
621.451	42.45
621.642	42.52
621.833	42.95
622.024	42.96
622.215	42.48
622.406	42.65
622.597	42.66
622.788	43.01
622.98	42.83
623.171	42.9
623.362	42.67
623.553	42.44
623.744	42.36
623.935	42.12
624.126	41.51
624.317	41.82
624.508	41.89
624.698	42.04
624.889	42.29
625.08	42.43
625.271	42.34
625.462	42.46
625.653	42.13
625.844	42.3
626.034	42.2
626.225	42.36
626.416	42.31
626.607	42.02
626.798	41.94
626.988	41.47
627.179	41.36
627.37	41.15
627.56	41.04
627.751	41.05
627.942	40.73
628.132	40.65
628.323	40.56
628.514	40.4
628.704	40.57
628.895	40.42
629.085	40.62
629.276	40.75
629.466	40.6
629.657	40.88
629.847	41.03
630.038	41.07
630.228	41.41
630.419	41.57
630.609	41.72
630.8	41.84
630.99	42.04
631.181	41.89
631.371	41.8
631.561	42.06
631.752	41.93
631.942	42.15
632.132	42.33
632.323	41.94
632.513	42.19
632.703	42.14
632.893	41.88
633.084	41.66
633.274	41.81
633.464	41.72
633.654	41.72
633.844	41.53
634.034	41.52
634.225	41.58
634.415	41.98
634.605	41.69
634.795	42.01
634.985	41.97
635.175	42.2
635.365	42.12
635.555	41.8
635.745	41.81
635.935	41.65
636.125	41.6
636.315	41.5
636.505	41.25
636.695	41.27
636.885	40.93
637.075	41.24
637.265	41.4
637.455	41.4
637.644	41.79
637.834	41.68
638.024	41.97
638.214	42.29
638.404	42.3
638.593	42.52
638.783	42.09
638.973	42.51
639.163	42.18
639.352	41.88
639.542	42.28
639.732	42.43
639.921	42.69
640.111	42.57
640.301	41.93
640.49	42.12
640.68	42.11
640.87	42.62
641.059	42.39
641.249	42.74
641.438	42.55
641.628	42.05
641.817	41.98
642.007	41.71
642.196	42.16
642.386	42.3
642.575	42.28
642.764	41.88
642.954	41.97
643.143	41.85
643.333	41.97
643.522	42.13
643.711	42.21
643.901	42.03
644.09	42.1
644.279	41.87
644.469	41.99
644.658	41.48
644.847	41.74
645.036	41.69
645.226	41.6
645.415	41.32
645.604	41.64
645.793	41.31
645.982	41.36
646.171	41.66
646.361	41.56
646.55	42.11
646.739	42.41
646.928	42.24
647.117	41.79
647.306	41.95
647.495	41.83
647.684	41.4
647.873	41.89
648.062	41.67
648.251	41.2
648.44	41.26
648.629	40.99
648.818	40.64
649.007	40.57
649.196	41.03
649.384	41.15
649.573	41.51
649.762	41.65
649.951	41.7
650.14	41.88
650.328	42.3
650.517	42.3
650.706	42.04
650.895	42.7
651.083	42.75
651.272	42.69
651.461	42.43
651.65	42.27
651.838	42.34
652.027	41.8
652.216	41.59
652.404	41.21
652.593	41.1
652.781	41.32
652.97	40.84
653.158	40.98
653.347	41.08
653.535	41.05
653.724	40.87
653.912	40.82
654.101	41.32
654.289	41.78
654.478	42.57
654.666	42.6
654.855	42.65
655.043	43.01
655.231	42.84
655.42	42.64
655.608	42.62
655.796	42.93
655.985	42.88
656.173	42.79
656.361	42.63
656.55	42.24
656.738	42.43
656.926	42.46
657.114	41.98
657.302	42.19
657.491	42.17
657.679	42.42
657.867	42.2
658.055	42.24
658.243	42.5
658.431	42.48
658.619	42.44
658.807	42.25
658.996	41.81
659.184	42.02
659.372	41.81
659.56	41.86
659.748	41.7
659.936	41.63
660.124	41.62
660.311	41.48
660.499	41.22
660.687	41.07
660.875	41.1
661.063	41.32
661.251	41.55
661.439	42.04
661.627	41.91
661.814	42
662.002	42.39
662.19	42.44
662.378	42.28
662.565	42.58
662.753	42.88
662.941	42.58
663.129	42.44
663.316	42.22
663.504	41.24
663.692	41.64
663.879	41.48
664.067	41.08
664.254	41.42
664.442	41.53
664.63	41.65
664.817	41.59
665.005	41.8
665.192	42.27
665.38	42.34
665.567	42.93
665.755	42.58
665.942	43.07
666.13	42.98
666.317	42.68
666.504	42.59
666.692	42.85
666.879	42.63
667.067	42.95
667.254	42.61
667.441	42.73
667.629	43.19
667.816	43.47
668.003	43.24
668.19	42.99
668.378	43.17
668.565	43.33
668.752	42.86
668.939	42.89
669.127	42.31
669.314	42.5
669.501	42.16
669.688	41.85
669.875	42.04
670.062	41.89
670.249	42.53
670.436	42.36
670.623	42.64
670.81	42.79
670.997	42.97
671.184	42.96
671.371	42.71
671.558	42.57
671.745	42.44
671.932	42.23
672.119	42.12
672.306	41.81
672.493	41.84
672.68	41.02
672.867	41.32
673.054	40.94
673.24	41.01
673.427	41.43
673.614	41.69
673.801	42.39
673.988	42.88
674.174	42.91
674.361	43.11
674.548	42.72
674.734	43.03
674.921	42.81
675.108	42.66
675.294	43.12
675.481	43.04
675.668	43.67
675.854	42.69
676.041	42.01
676.227	42.15
676.414	41.79
676.601	42.35
676.787	42.13
676.974	42.18
677.16	42.71
677.347	42.6
677.533	42.88
677.719	42.03
677.906	42.33
678.092	42.62
678.279	42.55
678.465	43.03
678.651	43.04
678.838	43.24
679.024	42.79
679.21	42.49
679.397	42.85
679.583	42.36
679.769	42.82
679.955	42.22
680.142	41.69
680.328	41.83
680.514	41.63
680.7	41.57
680.886	41.43
681.073	41.77
681.259	42.13
681.445	41.97
681.631	42.03
681.817	42.1
682.003	42.8
682.189	42.82
682.375	42.57
682.561	42.6
682.747	42.72
682.933	42.86
683.119	42.84
683.305	42.73
683.491	42.4
683.677	42.14
683.863	41.79
684.049	41.66
684.235	42.21
684.42	42.46
684.606	42.31
684.792	42.04
684.978	42.29
685.164	42.18
685.349	42.34
685.535	42.5
685.721	42.73
685.907	42.57
686.092	42.74
686.278	42.27
686.464	42.19
686.649	42.15
686.835	42.19
687.021	42.12
687.206	42.47
687.392	41.67
687.577	41.42
687.763	41.5
687.948	41.34
688.134	40.78
688.319	40.65
688.505	40.81
688.69	41.56
688.876	41.38
689.061	40.61
689.247	40.29
689.432	40.63
689.618	40.99
689.803	41.63
689.988	41.8
690.174	42.62
690.359	43.25
690.544	42.87
690.73	42.15
690.915	42.38
691.1	42.78
691.285	42.84
691.471	43.55
691.656	43.61
691.841	43.01
692.026	43.01
692.211	42.87
692.396	42.47
692.582	42.98
692.767	43.63
692.952	43.42
693.137	43.61
693.322	43.12
693.507	42.66
693.692	42.26
693.877	42.61
694.062	43.06
694.247	42.74
694.432	43.37
694.617	43.22
694.802	42.84
694.987	42.76
695.172	42.95
695.357	43.64
695.541	43.58
695.726	44.45
695.911	44
696.096	44.36
696.281	44.52
696.466	43.92
696.65	43.83
696.835	43.64
697.02	43.82
697.204	43.61
697.389	43.5
697.574	43.5
697.759	42.82
697.943	42.81
698.128	42.17
698.312	41.84
698.497	41.38
698.682	41.46
698.866	41.06
699.051	40.84
699.235	40.81
699.42	40.49
699.604	40.39
699.789	40.44
699.973	40.48
700.158	40.47
700.342	40.75
700.527	41.05
700.711	41.31
700.895	42.14
701.08	42.51
701.264	42.65
701.448	42.6
701.633	42.62
701.817	42.49
702.001	42.4
702.186	42.62
702.37	42.38
702.554	42.49
702.738	41.93
702.923	41.09
703.107	41.32
703.291	41.66
703.475	42.21
703.659	42.62
703.843	42.6
704.027	43.03
704.212	43.49
704.396	43.4
704.58	43.39
704.764	43.77
704.948	44.31
705.132	44.01
705.316	43.84
705.5	43.96
705.684	44
705.868	44.13
706.052	43.99
706.235	42.86
706.419	42.93
706.603	43.12
706.787	42.76
706.971	42.96
707.155	43.22
707.339	42.73
707.522	42.93
707.706	42.61
707.89	42.96
708.074	42.38
708.257	43.57
708.441	44.05
708.625	44.54
708.808	43.98
708.992	44.11
709.176	44.18
709.359	44.15
709.543	43.33
709.727	43.22
709.91	43.14
710.094	43.25
710.277	42.98
710.461	42.99
710.644	42.55
710.828	43.26
711.011	43.13
711.195	42.61
711.378	42.86
711.562	43.22
711.745	43.44
711.928	43.43
712.112	42.84
712.295	42.68
712.478	42.16
712.662	42.53
712.845	42.16
713.028	42
713.212	41.88
713.395	41.86
713.578	42.52
713.761	42.4
713.945	42.49
714.128	43
714.311	43.22
714.494	43.42
714.677	43.23
714.86	43.83
715.043	43.64
715.227	44.17
715.41	43.81
715.593	43.02
715.776	42.8
715.959	42.82
716.142	43.3
716.325	43.02
716.508	42.68
716.691	42.99
716.874	42.8
717.057	42.68
717.239	42.64
717.422	42.83
717.605	42.73
717.788	41.94
717.971	41.05
718.154	41.3
718.337	41.58
718.519	41.85
718.702	40.87
718.885	41.1
719.068	41.74
719.25	40.83
719.433	41.01
719.616	41.29
719.798	42.2
719.981	41.97
720.164	41.22
720.346	40.42
720.529	40.93
720.712	41.24
720.894	40.75
721.077	40.75
721.259	40.95
721.442	40.59
721.624	40.18
721.807	40.95
721.989	42.83
722.172	42.77
722.354	43.02
722.537	43.26
722.719	43.68
722.901	42.69
723.084	41.6
723.266	41.77
723.448	41.94
723.631	42.36
723.813	41.87
723.995	40.56
724.178	40.55
724.36	41.41
724.542	40.9
724.724	40.52
724.907	41.99
725.089	42.54
725.271	43.5
725.453	42.79
725.635	42.83
725.817	42.66
725.999	43.19
726.181	42.97
726.364	42.69
726.546	42.8
726.728	43.16
726.91	42.73
727.092	42.65
727.274	41.86
727.456	42.39
727.638	42.04
727.819	42.23
728.001	41.88
728.183	41.73
728.365	40.73
728.547	40.43
728.729	41.22
728.911	41.81
729.093	41.61
729.274	41.98
729.456	42.25
729.638	42.85
729.82	42.58
730.001	42.47
730.183	42.72
730.365	43.68
730.546	44.36
730.728	44.24
730.91	43.97
731.091	44.94
731.273	45.3
731.455	45.48
731.636	45.55
731.818	45.84
731.999	46.72
732.181	46.49
732.362	46.8
732.544	46.02
732.725	45.49
732.907	45.08
733.088	44.24
733.27	43.43
733.451	43.11
733.633	42.33
733.814	42.41
733.995	40.39
734.177	41.2
734.358	40.18
734.539	40.7
734.721	40.26
734.902	40.4
735.083	40.16
735.264	40.53
735.446	41.09
735.627	41.87
735.808	41.49
735.989	42.97
736.17	42.24
736.351	42.63
736.533	41.9
736.714	42.42
736.895	43.42
737.076	44.77
737.257	44.12
737.438	44.25
737.619	43.66
737.8	43.31
737.981	42.98
738.162	43.37
738.343	43.91
738.524	44.36
738.705	45.04
738.886	44.01
739.067	44.13
739.247	44.64
739.428	44.42
739.609	45.13
739.79	45.78
739.971	46
740.151	46.35
740.332	46.29
740.513	46.69
740.694	44.92
740.874	45.83
741.055	44.18
741.236	44.31
741.417	44.81
741.597	43.77
741.778	44.94
741.958	45.14
742.139	44.16
742.32	43.76
742.5	43.44
742.681	44
742.861	42.53
743.042	42.14
743.222	41.76
743.403	40.66
743.583	42.26
743.764	40.14
743.944	40.33
744.124	40.96
744.305	40.89
744.485	39.92
744.666	40.54
744.846	40.85
745.026	41.76
745.207	42.63
745.387	42.36
745.567	41.67
745.747	42.05
745.928	42.73
746.108	43.06
746.288	42.31
746.468	43.03
746.648	42.67
746.829	42.5
747.009	43.11
747.189	43.68
747.369	44.29
747.549	43.77
747.729	44.7
747.909	43.05
748.089	42.31
748.269	42.81
748.449	42.41
748.629	42.33
748.809	41.83
748.989	41.78
749.169	41.07
749.349	41.2
749.529	40.59
749.709	40.05
749.889	41.44
750.068	41.86
750.248	42.42
750.428	42.91
750.608	43.57
750.788	43.38
750.967	42.45
751.147	42.27
751.327	41.89
751.507	42.1
751.686	42.25
751.866	40.67
752.046	40.01
752.225	40.05
752.405	40.91
752.585	40.81
752.764	42
752.944	42.52
753.123	43.11
753.303	43.35
753.482	44.45
753.662	44.76
753.841	45.97
754.021	45.6
754.2	44.98
754.38	44.74
754.559	43.25
754.739	42.16
754.918	41.97
755.097	41.46
755.277	41.54
755.456	41.66
755.635	40.27
755.815	40.14
755.994	41
756.173	41.81
756.352	42.13
756.532	42.38
756.711	43.91
756.89	44.17
757.069	44.69
757.248	45.06
757.427	43.84
757.607	45.29
757.786	45.16
757.965	45.87
758.144	46.11
758.323	44.94
758.502	46.23
758.681	45.39
758.86	45.2
759.039	44.05
759.218	43.36
759.397	44.74
759.576	43.51
759.755	43.01
759.934	41.85
760.113	41.7
760.291	41.46
760.47	41.43
760.649	41.13
760.828	42.23
761.007	43.34
761.186	42.89
761.364	41.99
761.543	42.11
761.722	42.09
761.901	42.68
762.079	42.78
762.258	43.82
762.437	43.12
762.615	43.55
762.794	43.05
762.972	41.85
763.151	42.8
763.33	41.93
763.508	41.5
763.687	41.94
763.865	41.41
764.044	41.03
764.222	40.35
764.401	40.97
764.579	41.56
764.758	41.29
764.936	41.32
765.114	40.76
765.293	41.71
765.471	42.16
765.65	41.9
765.828	42.46
766.006	42.29
766.184	42.62
766.363	41.49
766.541	39.62
766.719	40.55
766.898	41.77
767.076	41.68
767.254	41.73
767.432	41.92
767.61	42.24
767.788	42.6
767.967	42.86
768.145	42.66
768.323	41.91
768.501	42.86
768.679	40.91
768.857	39.61
769.035	39.99
769.213	39.92
769.391	40.21
769.569	38.82
769.747	38.6
769.925	37.6
770.103	38.52
770.281	39.45
770.459	39.34
770.636	41.36
770.814	41.71
770.992	42.27
771.17	42.44
771.348	42.02
771.525	43.3
771.703	43
771.881	42.37
772.059	42.26
772.236	42.97
772.414	43.73
772.592	42.43
772.769	44.17
772.947	44.43
773.125	45.11
773.302	44.95
773.48	44.21
773.657	45.18
773.835	46.12
774.013	46.06
774.19	46.97
774.368	46.18
774.545	46.9
774.723	44.75
774.9	43.88
775.077	43.18
775.255	43.46
775.432	42.63
775.61	42.53
775.787	43.44
775.964	42.39
776.142	40.33
776.319	41.01
776.496	39.9
776.674	40.21
776.851	40.09
777.028	39.22
777.205	40.32
777.382	42.16
777.56	41.5
777.737	40.97
777.914	41.51
778.091	43.78
778.268	45.13
778.445	45.64
778.622	47.81
778.8	47.18
778.977	47.59
779.154	46.93
779.331	48.23
779.508	48.78
779.685	50.22
779.862	50.4
780.038	49.78
780.215	47.61
780.392	46.66
780.569	45.25
780.746	46.23
780.923	45.73
781.1	46.39
781.277	43.07
781.453	40.27
781.63	37.85
781.807	38.37
781.984	37.48
782.16	38.11
782.337	39.09
782.514	39.3
782.691	39.02
782.867	38.97
783.044	37.12
783.221	39.8
783.397	41.71
783.574	43.82
783.75	42.05
783.927	44.11
784.103	43.48
784.28	43.49
784.456	41.69
784.633	42.38
784.809	43.59
784.986	44.13
785.162	41.5
785.339	39.43
785.515	38.78
785.692	37.82
785.868	39.03
786.044	41.47
786.221	41.76
786.397	45.19
786.573	45.83
786.749	44.78
786.926	43.69
787.102	49.29
787.278	49.61
787.454	48.7
787.631	50.33
787.807	48.07
787.983	47.3
788.159	46.31
788.335	44.46
788.511	43.44
788.687	42.96
788.863	45.48
789.039	42.88
789.216	43.22
789.392	44.12
789.568	44.76
789.744	45.81
789.919	44.36
790.095	43.23
790.271	45.19
790.447	44.61
790.623	45.3
790.799	43.42
790.975	42.68
791.151	45.6
791.327	45.98
791.502	48.8
791.678	47.15
791.854	47.36
792.03	50.06
792.205	48.11
792.381	48.51
792.557	50.17
792.733	50.79
792.908	50.33
793.084	49.55
793.259	49.7
793.435	46.18
793.611	47.49
793.786	47
793.962	44.83
794.137	46.03
794.313	44.87
794.488	43.9
794.664	43.11
794.839	43.94
795.015	41.86
795.19	41.3
795.366	42.47
795.541	41.09
795.716	42.31
795.892	44.05
796.067	42.15
796.242	42.44
796.418	41.36
796.593	42.66
796.768	42.41
796.944	42.56
797.119	43.04
797.294	42.37
797.469	41.06
797.644	40.09
797.82	40.26
797.995	40.54
798.17	42.76
798.345	44.6
798.52	44.38
798.695	43.72
798.87	42.72
799.045	40.96
799.22	41.44
799.395	42.97
799.57	41.97
799.745	42.97
799.92	43.35
800.095	43.54
800.27	42.43
800.445	41.4
800.62	41.29
800.795	42.56
800.97	42.29
801.145	39.71
801.319	41.25
801.494	43.35
801.669	41.34
801.844	41.93
802.018	41.3
802.193	42.39
802.368	43
802.543	45.82
802.717	46.66
802.892	45
803.067	46.54
803.241	45.87
803.416	45.55
803.59	45.83
803.765	43.46
803.94	40.73
804.114	39.5
804.289	42.73
804.463	41.39
804.638	41.19
804.812	43.78
804.986	44.5
805.161	43.06
805.335	42.94
805.51	43.21
805.684	45.27
805.858	47.46
806.033	48.75
806.207	49.19
806.381	49.14
806.556	46.59
806.73	45.27
806.904	44.14
807.078	47.15
807.253	48.19
807.427	47.14
807.601	47.4
807.775	46.25
807.949	44.36
808.123	41.28
808.298	39.77
808.472	41.93
808.646	43.08
808.82	44.76
808.994	41.28
809.168	39.75
809.342	41.97
809.516	42.06
809.69	42.3
809.864	43.96
810.038	43
810.212	44.42
810.385	44.91
810.559	45.34
810.733	44
810.907	44.23
811.081	44.69
811.255	43.65
811.428	45.65
811.602	48.84
811.776	48.63
811.95	46.55
812.123	46.96
812.297	46.53
812.471	49.41
812.644	48.2
812.818	48.41
812.992	50.36
813.165	48.01
813.339	45.66
813.512	45.88
813.686	45.44
813.86	48.59
814.033	51.28
814.207	54.66
814.38	55.52
814.554	57.42
814.727	57.14
814.9	56.19
815.074	57.26
815.247	56.85
815.421	51.6
815.594	50.89
815.767	49.97
815.941	45.03
816.114	40.8
816.287	35.94
816.46	34.24
816.634	37.02
816.807	37.95
816.98	39.86
817.153	42.66
817.327	47.96
817.5	47.1
817.673	46.6
817.846	48.76
818.019	49.78
818.192	50.81
818.365	50.08
818.538	50.03
818.711	49.72
818.884	48.08
819.057	46.91
819.23	45.05
819.403	48.3
819.576	49.06
819.749	47.35
819.922	45.25
820.095	44.09
820.268	45.88
820.441	43.76
820.614	42.13
820.786	42.73
820.959	41.61
821.132	40.72
821.305	38.61
821.477	38.98
821.65	39.17
821.823	38.65
821.996	38.89
822.168	37.81
822.341	38.13
822.514	38.24
822.686	38.02
822.859	38.6
823.031	38.87
823.204	39.23
823.376	39.12
823.549	39.15
823.722	39.4
823.894	39.52
824.067	39.97
824.239	39.94
824.411	40.09
824.584	40.36
824.756	40.13
824.929	40.15
825.101	39.66
825.273	39.1
825.446	39.8
825.618	40.26
825.79	40.52
825.963	40.47
826.135	40.81
826.307	40.99
826.479	40.59
826.652	39.93
826.824	39.89
826.996	40.66
827.168	42.03
827.34	42.24
827.512	42.37
827.684	43
827.856	43.49
828.029	44.61
828.201	43.92
828.373	43.76
828.545	44.99
828.717	45.06
828.889	45
829.061	44.86
829.232	44.5
829.404	44.58
829.576	44.03
829.748	44.14
829.92	43.51
830.092	44.04
830.264	46.15
830.436	45.99
830.607	45.57
830.779	45.74
830.951	45.17
831.123	43.56
831.294	43.1
831.466	44.05
831.638	46.39
831.809	45.23
831.981	47.07
832.153	47.37
832.324	48.98
832.496	50.23
832.667	50.43
832.839	48.65
833.011	51.54
833.182	53.35
833.354	49.53
833.525	46.88
833.697	47.16
833.868	45.76
834.039	44.4
834.211	42.06
834.382	42.82
834.554	42.63
834.725	44.04
834.896	42.87
835.068	42.25
835.239	45.32
835.41	45.5
835.581	45.68
835.753	47.65
835.924	47.6
836.095	49.15
836.266	48.41
836.438	48.43
836.609	47.99
836.78	48.25
836.951	48.66
837.122	46.77
837.293	48.19
837.464	50.04
837.635	48.34
837.806	48.05
837.977	47.27
838.148	47.07
838.319	49.43
838.49	51.1
838.661	51.41
838.832	51.93
839.003	52.15
839.174	52.5
839.345	47.52
839.516	44.76
839.687	47.87
839.857	46.55
840.028	47.96
840.199	47.23
840.37	44.92
840.54	44.45
840.711	44.6
840.882	44.34
841.053	38.99
841.223	44.85
841.394	48.33
841.564	44.68
841.735	46.61
841.906	43.7
842.076	38.05
842.247	42.32
842.417	42.63
842.588	44.46
842.758	47.16
842.929	46.34
843.099	42.16
843.27	44.68
843.44	45.77
843.611	48.6
843.781	54.56
843.951	57.79
844.122	56.93
844.292	54.3
844.462	49.44
844.633	48.34
844.803	52.05
844.973	49.2
845.144	46.68
845.314	44.66
845.484	38.99
845.654	35.56
845.824	36.45
845.995	36.81
846.165	40.11
846.335	41.62
846.505	44.4
846.675	49.54
846.845	63.04
847.015	68.44
847.185	73.56
847.355	81.85
847.525	80.79
847.695	75.77
847.865	79.53
848.035	80.56
848.205	77.35
848.375	84.36
848.545	83.12
848.715	71.66
848.884	66.62
849.054	66.24
849.224	63.56
849.394	69.31
849.564	72.32
849.733	60.53
849.903	61.28
850.073	59.09
850.243	47.78
850.412	50.06
850.582	47.26
850.752	45.53
850.921	47.13
851.091	39.17
851.26	37.16
851.43	35.76
851.599	39.28
851.769	39.25
851.939	37.51
852.108	40.02
852.278	33.47
852.447	34.6
852.616	35.79
852.786	35.91
852.955	40.19
853.125	37.51
853.294	44.24
853.463	48.94
853.633	48.88
853.802	52.49
853.971	54.77
854.141	53.78
854.31	52.78
854.479	53.51
854.648	47.37
854.818	46.39
854.987	46.53
855.156	44.94
855.325	43.23
855.494	45.88
855.663	47.49
855.832	49.41
856.001	49.45
856.171	52.76
856.34	50.02
856.509	49.65
856.678	47.59
856.847	52.14
857.016	48.38
857.185	52.55
857.353	49.08
857.522	43.13
857.691	36.05
857.86	35.63
858.029	31.24
858.198	32.65
858.367	30.42
858.535	35.24
858.704	32.16
858.873	40.23
859.042	33.36
859.21	32.45
859.379	34.38
859.548	41.26
859.717	46.55
859.885	53.05
860.054	53.48
860.222	58.07
860.391	57.48
860.56	56.85
860.728	51.71
860.897	50.91
861.065	55.15
861.234	56.91
861.402	52.56
861.571	52.55
861.739	52.34
861.908	55.59
862.076	51.09
862.244	53.89
862.413	48.31
862.581	57.99
862.749	60.37
862.918	65.05
863.086	60.97
863.254	70.62
863.423	66.95
863.591	55.77
863.759	54.97
863.927	55.65
864.096	55.17
864.264	62.04
864.432	65.17
864.6	67.52
864.768	54.29
864.936	54.52
865.104	53.68
865.272	53.48
865.44	55.79
865.608	55.3
865.776	59.98
865.944	56.71
866.112	51.91
866.28	52.29
866.448	48.04
866.616	48.87
866.784	50.8
866.952	47.16
867.12	45.79
867.288	51.92
867.455	54.26
867.623	56.75
867.791	61.18
867.959	62.31
868.127	47.07
868.294	52.6
868.462	58.49
868.63	67.62
868.797	75.12
868.965	72.35
869.133	60.55
869.3	57.5
869.468	57.34
869.636	49.85
869.803	47.63
869.971	57.8
870.138	49.34
870.306	45.68
870.473	44.44
870.641	38.72
870.808	37.11
870.975	42.13
871.143	46.35
871.31	42.45
871.478	46.26
871.645	53.22
871.812	55.46
871.98	66.46
872.147	82.6
872.314	71.99
872.482	78.95
872.649	71.17
872.816	75.87
872.983	65.71
873.15	63.88
873.318	65.01
873.485	63.59
873.652	56.34
873.819	46.1
873.986	46.15
874.153	54.44
874.32	53.62
874.487	59.53
874.654	58.75
874.821	66.11
874.988	63.88
875.155	65.76
875.322	58.81
875.489	70.77
875.656	80.12
875.823	76.11
875.99	71.29
876.157	70.78
876.324	59.9
876.49	58.2
876.657	57.63
876.824	66.45
876.991	57.92
877.157	61.44
877.324	51.35
877.491	50.3
877.658	53.76
877.824	50.59
877.991	48.15
878.157	60.06
878.324	57.55
878.491	40.44
878.657	42.17
878.824	47.97
878.99	54.44
879.157	49.83
879.323	53.73
879.49	54.34
879.656	49.46
879.823	45.51
879.989	36.84
880.156	38.85
880.322	45.72
880.488	40.9
880.655	35.39
880.821	36.24
880.987	38.36
881.154	41.64
881.32	41.55
881.486	49.39
881.652	51.48
881.819	51.76
881.985	47.62
882.151	49.07
882.317	48.8
882.483	48.25
882.649	45.33
882.816	45.76
882.982	43.12
883.148	41.84
883.314	41.48
883.48	38.65
883.646	39.54
883.812	40.25
883.978	36.89
884.144	36.88
884.31	38.03
884.476	39.01
884.642	38.53
884.807	38.83
884.973	39.34
885.139	38.52
885.305	40.83
885.471	40.86
885.637	43.04
885.802	46.18
885.968	46.11
886.134	48.47
886.3	47.36
886.465	47.54
886.631	46.97
886.797	47.15
886.962	52.65
887.128	53.74
887.293	54.5
887.459	55.77
887.625	56.4
887.79	57.39
887.956	51.32
888.121	55.4
888.287	56.68
888.452	59.08
888.618	62.43
888.783	51.28
