Data from CB_067_Reflection_5.txt Node
Date: Sat Nov 14 10:54:57 EST 2015
User: robert
Spectrometer: USB4E03001
Autoset integration time: false
Trigger mode: 4
Integration Time (sec): 1.000000E-1
Scans to average: 15
Electric dark correction enabled: true
Nonlinearity correction enabled: false
Boxcar width: 5
Stray light correction enabled: false
XAxis mode: Wavelengths
Stop averaging: false
Number of Pixels in Spectrum: 3648
>>>>>Begin Spectral Data<<<<<
177.566	-281.98
177.785	-379.85
178.005	-1334.63
178.225	-286.09
178.445	-487.38
178.665	-565.87
178.885	118.2
179.105	-180.47
179.324	-234.73
179.544	-432.06
179.764	-71.83
179.984	-87.83
180.204	-82.58
180.423	-472.42
180.643	-248.96
180.863	-497.03
181.083	-2089.04
181.302	-11174.6
181.522	1264.72
181.742	1333.3
181.961	1817.4
182.181	332.68
182.401	247.72
182.621	383.72
182.84	1502.89
183.06	-5429.49
183.279	-665.72
183.499	-430.08
183.719	-512.58
183.938	-278.46
184.158	-191.98
184.377	-152
184.597	-60.54
184.816	-39.98
185.036	-76.59
185.256	-69.62
185.475	-121.07
185.695	-85.84
185.914	14.86
186.134	75.27
186.353	82.55
186.572	45.89
186.792	220
187.011	-589.5
187.231	1392.53
187.45	135.96
187.67	158.53
187.889	311.21
188.108	206.78
188.328	190.53
188.547	139.63
188.766	130.01
188.986	125.76
189.205	133.48
189.424	150.35
189.644	163.08
189.863	204.49
190.082	237.92
190.302	277.78
190.521	233.5
190.74	236.06
190.959	1001.07
191.178	874.22
191.398	724.73
191.617	2043.82
191.836	7947.31
192.055	1284.58
192.274	350
192.494	490.78
192.713	15996.43
192.932	-1535.47
193.151	328925
193.37	445.98
193.589	-10700
193.808	-847.1
194.027	-1475.97
194.246	3245.45
194.465	-2060.04
194.685	525.95
194.904	490.38
195.123	371.11
195.342	334.29
195.561	249.05
195.78	676.78
195.999	1411.83
196.218	613.06
196.436	293.93
196.655	123.99
196.874	109.59
197.093	221.28
197.312	228.03
197.531	326.59
197.75	351.81
197.969	656.56
198.188	136.72
198.407	96.8
198.625	101.01
198.844	176.72
199.063	251.64
199.282	483.27
199.501	-2382.03
199.719	-979.72
199.938	683.81
200.157	432.3
200.376	-2740.42
200.594	-195.81
200.813	-629.78
201.032	-1892.11
201.251	-821.24
201.469	-953.54
201.688	-2090.44
201.907	3775.68
202.125	1333.31
202.344	4702.43
202.563	24381.16
202.781	1361.43
203	445.86
203.218	339.04
203.437	511.37
203.656	424.03
203.874	908.8
204.093	723.51
204.311	503.74
204.53	1016.31
204.748	336.41
204.967	505.35
205.185	406.99
205.404	438.83
205.622	579.66
205.841	300.98
206.059	219.16
206.278	182.93
206.496	293.29
206.715	292.32
206.933	253.89
207.151	251.94
207.37	118.14
207.588	146
207.806	204.51
208.025	403.35
208.243	600.18
208.461	-38650
208.68	1169.79
208.898	472.85
209.116	365.84
209.335	274.99
209.553	251.17
209.771	232.24
209.989	185.75
210.208	152.06
210.426	91.01
210.644	92.44
210.862	82.41
211.081	99.59
211.299	67.05
211.517	61.84
211.735	45.45
211.953	42.61
212.171	54.45
212.39	44.45
212.608	42.61
212.826	70.98
213.044	93.86
213.262	93.45
213.48	85.15
213.698	139.23
213.916	70.25
214.134	148.88
214.352	254.29
214.57	155.84
214.788	179.51
215.006	161.56
215.224	226.42
215.442	364.88
215.66	962.47
215.878	380.24
216.096	179.87
216.314	756.8
216.532	2748.73
216.75	-1012.13
216.968	-1314.25
217.185	-9664.6
217.403	1652.07
217.621	-99244.44
217.839	-532.18
218.057	-16956.25
218.275	-225.02
218.492	-2.88
218.71	-871.58
218.928	686.72
219.146	274.23
219.363	141.08
219.581	130.81
219.799	-603.74
220.017	117.19
220.234	130.76
220.452	181.2
220.67	302.22
220.887	186.32
221.105	241.09
221.323	142.15
221.54	130.22
221.758	134.63
221.976	124.11
222.193	99.27
222.411	105.55
222.629	123.06
222.846	109.56
223.064	108.84
223.281	110.98
223.499	107.96
223.716	106.4
223.934	97.09
224.151	85.13
224.369	85.88
224.586	101.49
224.804	118.29
225.021	104.95
225.239	95.29
225.456	95.87
225.674	91.97
225.891	89.16
226.108	75.3
226.326	65.4
226.543	62.1
226.76	53.34
226.978	48.26
227.195	45.48
227.413	35.04
227.63	43.23
227.847	42.07
228.064	34.43
228.282	34.11
228.499	32.52
228.716	30.71
228.934	30.52
229.151	32.59
229.368	30.48
229.585	27.3
229.802	28
230.02	25.45
230.237	23.68
230.454	27.45
230.671	29.28
230.888	32.09
231.105	32.45
231.323	33.76
231.54	33.76
231.757	32.08
231.974	37.67
232.191	36.1
232.408	33.69
232.625	34.98
232.842	29.68
233.059	23.5
233.276	24.65
233.493	30.54
233.71	26.99
233.927	26.37
234.144	25.9
234.361	24.61
234.578	24.49
234.795	24.48
235.012	22.4
235.229	19.21
235.446	27.5
235.663	26.91
235.879	27.07
236.096	30.01
236.313	33.89
236.53	32.46
236.747	36.39
236.964	43.1
237.181	49
237.397	49.06
237.614	63.29
237.831	59.96
238.048	60.62
238.264	53.9
238.481	48.65
238.698	45.15
238.915	45.55
239.131	35.31
239.348	30.25
239.565	25.09
239.781	28.32
239.998	19.88
240.215	14.36
240.431	13.46
240.648	17.99
240.865	18.75
241.081	17.22
241.298	15.45
241.514	19.3
241.731	18.15
241.947	17.98
242.164	15.98
242.38	14.01
242.597	13.86
242.814	14.18
243.03	15.66
243.246	15.82
243.463	16.01
243.679	16.78
243.896	16.87
244.112	16.42
244.329	17.94
244.545	18.59
244.762	19.57
244.978	20.98
245.194	19.36
245.411	16.02
245.627	16.45
245.843	19.41
246.06	17.69
246.276	14.18
246.492	16.23
246.709	14.92
246.925	15.25
247.141	15.54
247.357	15.01
247.574	15.51
247.79	15.07
248.006	14.2
248.222	13.29
248.439	13.49
248.655	15.02
248.871	14.07
249.087	14.64
249.303	14.42
249.519	13.57
249.736	15.24
249.952	14.84
250.168	19.37
250.384	20.22
250.6	19.38
250.816	20.8
251.032	20.93
251.248	20.61
251.464	19.7
251.68	18.33
251.896	17.14
252.112	15.03
252.328	13.75
252.544	12.25
252.76	12.64
252.976	11.75
253.192	10.21
253.408	8.89
253.624	8.88
253.84	8.73
254.056	7.97
254.272	9.19
254.487	11.75
254.703	11.78
254.919	5.99
255.135	9.22
255.351	11.58
255.567	13.57
255.782	15.93
255.998	16.26
256.214	16.18
256.43	19.96
256.646	21.9
256.861	21.12
257.077	18.36
257.293	19.28
257.508	16.25
257.724	16.43
257.94	14.25
258.155	14.91
258.371	13.18
258.587	13.86
258.802	13.35
259.018	12.21
259.234	11.01
259.449	11.39
259.665	11.58
259.88	11.89
260.096	11.44
260.312	11.01
260.527	9.96
260.743	10.63
260.958	10.21
261.174	10.34
261.389	11.31
261.605	11.25
261.82	11.14
262.036	10.96
262.251	11
262.466	10.9
262.682	11.33
262.897	12.02
263.113	11.77
263.328	11.28
263.543	11.07
263.759	10.56
263.974	11.01
264.189	12.68
264.405	11.8
264.62	12.34
264.835	12.58
265.051	15.99
265.266	16.42
265.481	18.54
265.696	22.95
265.912	18.3
266.127	17.21
266.342	17.05
266.557	15.65
266.773	16.83
266.988	15.22
267.203	13.33
267.418	10.37
267.633	9.83
267.848	8.02
268.064	3.73
268.279	5.56
268.494	3.71
268.709	2.03
268.924	2.22
269.139	0.28
269.354	0.46
269.569	1.08
269.784	3.2
269.999	5.86
270.214	6.19
270.429	7.19
270.644	7.01
270.859	8.64
271.074	9.03
271.289	10.74
271.504	10.95
271.719	11.11
271.934	12.18
272.149	11.45
272.363	10.54
272.578	10.68
272.793	9.54
273.008	9.93
273.223	9.73
273.438	9.15
273.653	9.61
273.867	10.53
274.082	11.43
274.297	10.62
274.512	11.37
274.726	10.46
274.941	8.7
275.156	12.8
275.371	12.53
275.585	14.06
275.8	16.1
276.015	14.26
276.229	14.71
276.444	14.68
276.659	14.72
276.873	13.99
277.088	16.25
277.302	19.6
277.517	17.41
277.732	17.57
277.946	15.98
278.161	15.73
278.375	16.15
278.59	16.08
278.804	15.37
279.019	16.7
279.233	16.01
279.448	13.23
279.662	11.21
279.877	10.21
280.091	8.82
280.306	7.36
280.52	5.17
280.735	5.25
280.949	5.02
281.163	5.49
281.378	4.44
281.592	6.43
281.806	7.16
282.021	7.16
282.235	7.87
282.449	9.45
282.664	11.04
282.878	13.03
283.092	12.5
283.307	11.74
283.521	10.71
283.735	12.13
283.949	12.07
284.164	11.69
284.378	10.77
284.592	9.87
284.806	9.55
285.02	8.53
285.234	6.62
285.449	6.9
285.663	8.82
285.877	8.59
286.091	7.54
286.305	7.33
286.519	8.15
286.733	8.9
286.947	9.62
287.161	9.59
287.375	10.25
287.589	12.68
287.803	13.39
288.017	11.26
288.231	11.52
288.445	11.69
288.659	10.9
288.873	11.37
289.087	11.42
289.301	11.31
289.515	10.61
289.729	10.28
289.943	10.16
290.157	10.85
290.371	12.39
290.584	12.92
290.798	13.25
291.012	13.83
291.226	12.31
291.44	13
291.654	13.28
291.867	14.69
292.081	14.86
292.295	13.93
292.509	12.46
292.722	11.67
292.936	10.65
293.15	11.14
293.364	9.88
293.577	11.22
293.791	11.29
294.005	10.68
294.218	11.69
294.432	11.98
294.645	12.12
294.859	12.59
295.073	12.5
295.286	12.42
295.5	12.11
295.713	12.87
295.927	12.08
296.14	10.79
296.354	11.16
296.568	9.7
296.781	8.99
296.994	9.92
297.208	9.87
297.421	9.61
297.635	10.2
297.848	9.68
298.062	9.05
298.275	9.94
298.489	10.5
298.702	11.08
298.915	10.84
299.129	11.31
299.342	10.77
299.555	10.58
299.769	11.4
299.982	11.08
300.195	12.41
300.409	12.71
300.622	11.61
300.835	11.71
301.048	11.4
301.262	11.91
301.475	13.55
301.688	12.59
301.901	12.08
302.115	11.76
302.328	11.81
302.541	11.28
302.754	12.43
302.967	13.54
303.18	14.77
303.393	13.93
303.607	14.99
303.82	14.71
304.033	16.6
304.246	17.36
304.459	17.36
304.672	17.94
304.885	18.72
305.098	18.83
305.311	18.44
305.524	17.73
305.737	17.39
305.95	16.64
306.163	15.62
306.376	13.77
306.589	13.75
306.802	14.31
307.015	14.65
307.228	14.94
307.44	14.11
307.653	13.67
307.866	13.95
308.079	14.82
308.292	14.2
308.505	14.57
308.718	15.76
308.93	16.53
309.143	16.03
309.356	16.4
309.569	14.6
309.781	14.32
309.994	15.54
310.207	15.8
310.42	15.57
310.632	16.42
310.845	16.2
311.058	15.87
311.27	15.28
311.483	15.33
311.696	14.67
311.908	15.08
312.121	15.55
312.333	15.64
312.546	15.02
312.759	14.73
312.971	14.51
313.184	15
313.396	14.85
313.609	15.34
313.821	16.06
314.034	15.96
314.246	15.64
314.459	16.41
314.671	15.24
314.884	15.3
315.096	16.84
315.309	17.17
315.521	17.68
315.733	17.16
315.946	17.29
316.158	16.84
316.371	17.02
316.583	15.98
316.795	14.63
317.008	16.13
317.22	15.73
317.432	15.2
317.644	15.66
317.857	15.43
318.069	16.43
318.281	15.34
318.494	16.23
318.706	16.9
318.918	19.02
319.13	19.8
319.342	18.73
319.555	18.97
319.767	19.71
319.979	18.74
320.191	17.12
320.403	17.49
320.615	19.78
320.827	18.01
321.039	18.42
321.252	20.11
321.464	20.73
321.676	21.18
321.888	21.96
322.1	21.13
322.312	20.74
322.524	23.36
322.736	22.78
322.948	22.44
323.16	24.65
323.372	25.15
323.584	24.15
323.796	24.13
324.007	23.17
324.219	23.47
324.431	24.88
324.643	26.64
324.855	26.84
325.067	27.07
325.279	26.4
325.491	27.23
325.702	27.99
325.914	28.43
326.126	28.92
326.338	28.82
326.55	29.51
326.761	28.51
326.973	28.31
327.185	28.25
327.396	29.99
327.608	30.41
327.82	29.93
328.032	30.31
328.243	30.55
328.455	31.03
328.666	33.36
328.878	33.36
329.09	35.3
329.301	36.05
329.513	36.19
329.725	36.36
329.936	38.18
330.148	38.61
330.359	39.65
330.571	40.7
330.782	41.28
330.994	42.45
331.205	42.61
331.417	43.66
331.628	43.86
331.84	45.2
332.051	46.2
332.262	46.7
332.474	46.19
332.685	46.63
332.897	47.1
333.108	47.41
333.319	46.93
333.531	47.7
333.742	47.24
333.953	47.82
334.165	47.9
334.376	48.31
334.587	48.91
334.799	49.34
335.01	48.8
335.221	49.41
335.432	49.19
335.644	49.14
335.855	49.58
336.066	50.34
336.277	51.11
336.488	51.34
336.7	50.63
336.911	50.78
337.122	51.38
337.333	51.51
337.544	51.14
337.755	53.14
337.966	54.01
338.177	54.44
338.388	54.04
338.599	54.33
338.811	53.53
339.022	54.31
339.233	54.48
339.444	53.96
339.655	53.61
339.866	53.86
340.076	52.46
340.287	52.24
340.498	52.17
340.709	52.35
340.92	52.29
341.131	53.3
341.342	53.4
341.553	53.1
341.764	53.93
341.975	54.83
342.185	54.56
342.396	55.09
342.607	55.53
342.818	55.6
343.029	55.02
343.239	55.09
343.45	55.02
343.661	54.66
343.872	54.69
344.082	55.31
344.293	55.13
344.504	55.55
344.714	55.52
344.925	55
345.136	55.36
345.346	54.56
345.557	54.07
345.768	54.08
345.978	54.88
346.189	54.31
346.399	52.78
346.61	52.49
346.821	52.54
347.031	51.56
347.242	52.16
347.452	52.1
347.663	53.66
347.873	54.13
348.084	54.28
348.294	53.74
348.504	54.52
348.715	55.99
348.925	55.7
349.136	54.89
349.346	55.88
349.557	55.36
349.767	56.12
349.977	56.3
350.188	55.03
350.398	55.11
350.608	54.57
350.819	54.68
351.029	54.55
351.239	55.89
351.449	56.42
351.66	56.48
351.87	56.58
352.08	55.63
352.29	54.95
352.501	55.21
352.711	54.53
352.921	55.31
353.131	53.77
353.341	52.74
353.552	51.6
353.762	51.04
353.972	50.71
354.182	50.54
354.392	49.62
354.602	49.96
354.812	51.34
355.022	51.73
355.232	51.16
355.442	52.51
355.652	53.29
355.862	53.19
356.072	54.11
356.282	53.38
356.492	53.67
356.702	53.95
356.912	53.96
357.122	53.71
357.332	53.49
357.542	53.85
357.752	52.96
357.962	52.81
358.171	53.08
358.381	52.67
358.591	52.9
358.801	52.99
359.011	53.25
359.221	52.27
359.43	51.58
359.64	51.31
359.85	51.11
360.06	51.92
360.269	51.01
360.479	50.91
360.689	51.12
360.899	51.59
361.108	50.88
361.318	50.32
361.528	50.83
361.737	51.36
361.947	51.52
362.156	51.41
362.366	50.63
362.576	50.96
362.785	50.67
362.995	49.88
363.204	49.35
363.414	50.07
363.623	49.94
363.833	50.25
364.042	49.81
364.252	49.76
364.461	49.05
364.671	48.83
364.88	49.24
365.09	49.77
365.299	50.47
365.509	50.71
365.718	49.43
365.927	49.86
366.137	48.48
366.346	48.21
366.555	48.06
366.765	48.58
366.974	48.67
367.183	48.14
367.393	47.24
367.602	46.52
367.811	46.13
368.021	47.39
368.23	47.5
368.439	47.81
368.648	47.23
368.857	47
369.067	46.82
369.276	47
369.485	47.05
369.694	47.72
369.903	47.76
370.112	47.92
370.321	46.87
370.531	46.12
370.74	46.46
370.949	47.11
371.158	46.91
371.367	46.94
371.576	46.4
371.785	46.29
371.994	45.9
372.203	46.11
372.412	45.45
372.621	45.67
372.83	45.71
373.039	45.65
373.248	45.21
373.457	45
373.666	44.4
373.874	44.33
374.083	43.55
374.292	43.19
374.501	42.49
374.71	42.52
374.919	42.27
375.128	41.81
375.336	41.66
375.545	41.54
375.754	41.74
375.963	41.81
376.171	41.28
376.38	41.43
376.589	40.98
376.798	40.85
377.006	40.96
377.215	41.08
377.424	41.18
377.632	40.37
377.841	40.21
378.05	39.6
378.258	39.94
378.467	40.32
378.675	40.11
378.884	40.48
379.093	40.81
379.301	40.34
379.51	39.45
379.718	39.13
379.927	39.49
380.135	39.3
380.344	38.7
380.552	38.68
380.761	38.41
380.969	38.11
381.177	37.71
381.386	38.09
381.594	38.39
381.803	38.39
382.011	38.59
382.219	37.99
382.428	37.93
382.636	38.75
382.845	37.43
383.053	37.38
383.261	37.41
383.469	37.33
383.678	36.71
383.886	36.5
384.094	36.79
384.302	36.77
384.511	37.19
384.719	37.41
384.927	36.9
385.135	37.18
385.343	37.18
385.552	37.25
385.76	37.27
385.968	36.53
386.176	35.94
386.384	35.53
386.592	35.12
386.8	35.19
387.008	34.81
387.216	34.66
387.424	34.82
387.633	34.7
387.841	34.84
388.049	35.15
388.257	35.06
388.465	34.94
388.672	35.14
388.88	35.27
389.088	34.66
389.296	34.47
389.504	34.6
389.712	34.42
389.92	34.34
390.128	33.82
390.336	33.31
390.544	33.59
390.751	33.83
390.959	33.4
391.167	33.25
391.375	33.75
391.583	33.51
391.79	33.24
391.998	33.36
392.206	33.31
392.414	33.18
392.621	33.01
392.829	33
393.037	33.03
393.244	32.89
393.452	32.73
393.66	32.58
393.867	32.55
394.075	32.7
394.283	32.46
394.49	32.08
394.698	32.22
394.905	32.19
395.113	32.21
395.32	31.97
395.528	32.15
395.735	31.84
395.943	31.47
396.15	31.51
396.358	31.08
396.565	30.8
396.773	30.78
396.98	30.86
397.188	30.53
397.395	30.36
397.602	30.49
397.81	30.15
398.017	30.45
398.225	30.52
398.432	30.13
398.639	30.03
398.847	30.12
399.054	30.47
399.261	30.37
399.468	30.59
399.676	30.58
399.883	29.99
400.09	30.31
400.297	30.22
400.505	29.98
400.712	30.22
400.919	30.64
401.126	30.4
401.333	30.31
401.54	30.08
401.748	29.8
401.955	29.33
402.162	29.58
402.369	29.61
402.576	29.71
402.783	29.47
402.99	29.35
403.197	29.05
403.404	29.03
403.611	28.74
403.818	28.73
404.025	28.57
404.232	28.64
404.439	28.57
404.646	28.17
404.853	28.07
405.06	27.91
405.267	28.01
405.474	28
405.681	28.16
405.887	28.16
406.094	28.33
406.301	28.1
406.508	28.4
406.715	28.67
406.922	28.55
407.128	28.54
407.335	28.45
407.542	28.35
407.749	28.16
407.955	28.14
408.162	28.1
408.369	27.58
408.575	28.01
408.782	27.78
408.989	27.47
409.195	27.79
409.402	27.49
409.609	27.72
409.815	27.78
410.022	27.89
410.228	27.45
410.435	27.62
410.642	27.82
410.848	27.67
411.055	27.56
411.261	27.43
411.468	27.54
411.674	27.74
411.881	27.79
412.087	27.58
412.294	27.4
412.5	27.83
412.706	27.42
412.913	27.13
413.119	27.06
413.326	27.03
413.532	26.79
413.738	26.28
413.945	26.04
414.151	26.35
414.357	26.31
414.564	26.39
414.77	26.14
414.976	26.22
415.182	26.61
415.389	26.62
415.595	26.5
415.801	26.58
416.007	26.95
416.214	26.8
416.42	26.29
416.626	26.21
416.832	26.34
417.038	26.23
417.244	26.1
417.45	25.77
417.657	25.68
417.863	25.58
418.069	25.58
418.275	25.31
418.481	25.4
418.687	25.54
418.893	25.55
419.099	25.4
419.305	25.28
419.511	25.25
419.717	25.21
419.923	25.15
420.129	25.22
420.335	25.19
420.541	25.19
420.746	25.12
420.952	25.08
421.158	25
421.364	24.86
421.57	24.84
421.776	24.82
421.982	24.87
422.187	24.76
422.393	24.83
422.599	24.88
422.805	24.66
423.01	24.71
423.216	24.57
423.422	24.62
423.628	24.78
423.833	24.63
424.039	24.46
424.245	24.47
424.45	24.51
424.656	24.26
424.862	24.11
425.067	24.21
425.273	24.23
425.478	24.22
425.684	24.1
425.889	24.02
426.095	24.17
426.301	24.38
426.506	24.31
426.712	24.37
426.917	24.51
427.123	24.58
427.328	24.5
427.533	24.38
427.739	24.49
427.944	24.53
428.15	24.34
428.355	24.35
428.561	24.39
428.766	24.36
428.971	24.27
429.177	24.21
429.382	24.1
429.587	24.25
429.793	24.41
429.998	24.37
430.203	24.37
430.408	24.37
430.614	24.47
430.819	24.34
431.024	24.16
431.229	24.13
431.434	24.17
431.64	24.29
431.845	24.31
432.05	24.32
432.255	24.19
432.46	24.1
432.665	24.27
432.87	24.24
433.076	24.22
433.281	24.37
433.486	24.46
433.691	24.4
433.896	24.42
434.101	24.28
434.306	24.13
434.511	24.13
434.716	24.26
434.921	24.27
435.126	24.3
435.331	24.13
435.535	24.03
435.74	23.86
435.945	23.81
436.15	23.65
436.355	23.75
436.56	23.76
436.765	23.78
436.97	23.7
437.174	23.71
437.379	23.6
437.584	23.77
437.789	23.88
437.993	23.89
438.198	23.91
438.403	23.95
438.608	23.96
438.812	23.96
439.017	23.91
439.222	23.85
439.426	23.8
439.631	23.67
439.836	23.75
440.04	23.75
440.245	23.8
440.45	23.78
440.654	23.84
440.859	23.74
441.063	23.69
441.268	23.86
441.472	23.87
441.677	23.81
441.881	23.8
442.086	23.84
442.29	23.79
442.495	23.88
442.699	24.09
442.904	24.03
443.108	24.22
443.312	24.19
443.517	24.1
443.721	24.11
443.925	24.13
444.13	24.31
444.334	24.04
444.538	24.03
444.743	23.94
444.947	23.71
445.151	23.75
445.356	23.61
445.56	23.76
445.764	23.62
445.968	23.62
446.173	23.67
446.377	23.46
446.581	23.63
446.785	23.68
446.989	23.59
447.193	23.64
447.398	23.6
447.602	23.48
447.806	23.32
448.01	23.36
448.214	23.38
448.418	23.23
448.622	23.38
448.826	23.23
449.03	23.18
449.234	23.34
449.438	23.39
449.642	23.3
449.846	23.59
450.05	23.66
450.254	23.74
450.458	23.59
450.662	23.76
450.866	23.61
451.069	23.68
451.273	23.58
451.477	23.44
451.681	23.4
451.885	23.4
452.089	23.28
452.292	23.02
452.496	22.83
452.7	22.99
452.904	23
453.107	23.18
453.311	22.94
453.515	22.91
453.719	22.86
453.922	22.81
454.126	22.79
454.33	22.63
454.533	22.61
454.737	22.85
454.94	22.65
455.144	22.66
455.348	22.51
455.551	22.86
455.755	22.87
455.958	23
456.162	23.04
456.365	23.08
456.569	23.06
456.772	23.25
456.976	23.15
457.179	23.31
457.383	23.25
457.586	23.32
457.79	23.23
457.993	23.2
458.196	23.21
458.4	23.34
458.603	23.26
458.807	23.39
459.01	23.5
459.213	23.43
459.417	23.45
459.62	23.36
459.823	23.39
460.026	23.29
460.23	23.2
460.433	23.07
460.636	22.99
460.839	23.14
461.042	23.02
461.246	23.05
461.449	23.07
461.652	23
461.855	22.99
462.058	23.04
462.261	23.22
462.464	23.29
462.668	23.31
462.871	23.37
463.074	23.27
463.277	23.36
463.48	23.16
463.683	23.3
463.886	23.33
464.089	23.51
464.292	23.35
464.495	23.21
464.698	23.32
464.901	23.61
465.104	23.5
465.306	23.38
465.509	23.44
465.712	23.54
465.915	23.55
466.118	23.35
466.321	23.35
466.524	23.33
466.726	23.53
466.929	23.42
467.132	23.07
467.335	23.23
467.538	23.33
467.74	23.3
467.943	23.2
468.146	22.99
468.348	23.16
468.551	22.99
468.754	23.1
468.956	22.92
469.159	22.88
469.362	23.15
469.564	23.04
469.767	23.2
469.969	23.31
470.172	23.63
470.375	23.83
470.577	23.87
470.78	23.94
470.982	23.78
471.185	23.9
471.387	24.05
471.59	24.05
471.792	23.97
471.995	23.95
472.197	23.88
472.399	23.82
472.602	23.82
472.804	23.87
473.007	24.04
473.209	24.32
473.411	24.3
473.614	24.35
473.816	24.33
474.018	24.41
474.22	24.3
474.423	24.38
474.625	24.14
474.827	24.24
475.03	24.09
475.232	23.89
475.434	23.62
475.636	23.32
475.838	23.27
476.04	23.4
476.243	23.29
476.445	23.18
476.647	23.24
476.849	23.31
477.051	22.95
477.253	23.2
477.455	23.17
477.657	23.22
477.859	23.45
478.061	23.52
478.263	23.29
478.465	23.31
478.667	23.25
478.869	22.95
479.071	22.93
479.273	23.01
479.475	22.81
479.677	22.76
479.879	22.8
480.081	22.74
480.283	22.71
480.485	22.61
480.686	22.78
480.888	22.94
481.09	23.06
481.292	23.02
481.494	23.08
481.695	23.04
481.897	23.11
482.099	23.03
482.301	23.04
482.502	22.97
482.704	23.11
482.906	22.97
483.107	22.85
483.309	22.77
483.511	22.71
483.712	22.72
483.914	22.72
484.115	22.66
484.317	22.64
484.519	22.65
484.72	22.66
484.922	22.58
485.123	22.55
485.325	22.59
485.526	22.66
485.728	22.68
485.929	22.67
486.131	22.59
486.332	22.62
486.534	22.67
486.735	22.63
486.936	22.67
487.138	22.67
487.339	22.74
487.541	22.74
487.742	22.75
487.943	22.79
488.144	22.83
488.346	22.89
488.547	22.87
488.748	22.88
488.95	22.88
489.151	22.86
489.352	22.91
489.553	22.89
489.755	22.89
489.956	22.87
490.157	22.89
490.358	22.81
490.559	22.84
490.76	22.97
490.961	22.89
491.163	22.94
491.364	22.89
491.565	22.9
491.766	22.97
491.967	23.01
492.168	23.01
492.369	23.05
492.57	23.03
492.771	23.18
492.972	23.15
493.173	23.26
493.374	23.34
493.575	23.49
493.776	23.51
493.976	23.46
494.177	23.57
494.378	23.61
494.579	23.76
494.78	23.91
494.981	23.83
495.182	23.86
495.382	23.91
495.583	23.85
495.784	23.71
495.985	23.85
496.185	23.87
496.386	23.83
496.587	23.93
496.788	23.82
496.988	23.59
497.189	23.58
497.39	23.58
497.59	23.62
497.791	23.56
497.992	23.61
498.192	23.57
498.393	23.74
498.593	23.85
498.794	23.81
498.994	23.99
499.195	24.21
499.395	24.18
499.596	24.26
499.796	24.16
499.997	24.38
500.197	24.57
500.398	24.75
500.598	24.58
500.799	24.55
500.999	24.64
501.199	24.57
501.4	24.71
501.6	24.75
501.801	24.85
502.001	25.16
502.201	24.97
502.402	25.09
502.602	24.9
502.802	25.07
503.002	25.12
503.203	25.33
503.403	25.34
503.603	25.21
503.803	25.35
504.003	25.31
504.204	25.19
504.404	25.47
504.604	25.59
504.804	25.9
505.004	25.88
505.204	26.01
505.404	25.72
505.604	25.72
505.804	25.9
506.005	25.93
506.205	25.98
506.405	26.1
506.605	26.15
506.805	26.13
507.005	26.15
507.204	26.21
507.404	26.01
507.604	26.31
507.804	26.64
508.004	26.74
508.204	26.82
508.404	26.87
508.604	26.99
508.804	26.96
509.003	26.9
509.203	26.84
509.403	26.9
509.603	27.1
509.803	27.23
510.002	27.11
510.202	27.19
510.402	27.41
510.602	27.46
510.801	27.48
511.001	27.61
511.201	27.74
511.4	27.87
511.6	28.07
511.8	28.2
511.999	28.31
512.199	28.38
512.398	28.39
512.598	28.34
512.797	28.7
512.997	28.77
513.197	28.85
513.396	29.1
513.596	29.14
513.795	29.12
513.994	29.17
514.194	29.18
514.393	29.18
514.593	29.37
514.792	29.59
514.992	29.6
515.191	29.67
515.39	29.79
515.59	29.72
515.789	29.87
515.988	30.07
516.188	30.23
516.387	30.34
516.586	30.72
516.786	30.87
516.985	30.94
517.184	31
517.383	31.24
517.582	31.37
517.782	31.46
517.981	31.64
518.18	31.65
518.379	31.77
518.578	31.93
518.777	31.95
518.976	32.02
519.176	32.13
519.375	32.13
519.574	32.15
519.773	32.22
519.972	32.39
520.171	32.5
520.37	32.72
520.569	32.92
520.768	32.95
520.967	33
521.166	33.12
521.365	33.17
521.564	33.36
521.762	33.67
521.961	33.89
522.16	33.99
522.359	34.01
522.558	34.06
522.757	34.03
522.956	34.17
523.154	34.25
523.353	34.38
523.552	34.5
523.751	34.59
523.949	34.64
524.148	34.63
524.347	34.74
524.546	34.81
524.744	35.05
524.943	35.15
525.142	35.25
525.34	35.42
525.539	35.6
525.737	35.79
525.936	35.89
526.135	35.91
526.333	36.08
526.532	36.06
526.73	36.25
526.929	36.47
527.127	36.6
527.326	36.74
527.524	36.83
527.723	36.87
527.921	36.91
528.12	37
528.318	37.06
528.516	37.14
528.715	37.28
528.913	37.22
529.112	37.15
529.31	37.15
529.508	37.13
529.707	37.09
529.905	37.1
530.103	37.16
530.301	37.22
530.5	37.34
530.698	37.41
530.896	37.46
531.094	37.63
531.293	37.74
531.491	37.96
531.689	38.17
531.887	38.45
532.085	38.64
532.283	38.59
532.481	38.72
532.68	38.76
532.878	38.69
533.076	38.8
533.274	38.78
533.472	38.83
533.67	38.8
533.868	38.92
534.066	38.92
534.264	38.89
534.462	39.03
534.66	39.04
534.858	39.02
535.056	39.36
535.253	39.42
535.451	39.59
535.649	39.67
535.847	39.87
536.045	39.88
536.243	40.09
536.441	40.23
536.638	40.29
536.836	40.33
537.034	40.55
537.232	40.46
537.43	40.41
537.627	40.6
537.825	40.8
538.023	40.86
538.22	41.02
538.418	41.07
538.616	41.14
538.813	41.23
539.011	41.44
539.209	41.35
539.406	41.37
539.604	41.59
539.801	41.71
539.999	41.65
540.196	41.76
540.394	41.73
540.591	41.74
540.789	41.79
540.986	41.87
541.184	41.86
541.381	42.03
541.579	42.07
541.776	42.04
541.974	42.03
542.171	42.07
542.368	41.98
542.566	41.98
542.763	41.94
542.96	41.93
543.158	42.04
543.355	42.07
543.552	42.09
543.75	42.16
543.947	42.18
544.144	42.32
544.341	42.28
544.539	42.44
544.736	42.57
544.933	42.68
545.13	42.77
545.327	42.69
545.524	42.66
545.722	42.59
545.919	42.63
546.116	42.71
546.313	42.6
546.51	42.62
546.707	42.61
546.904	42.62
547.101	42.67
547.298	42.73
547.495	42.73
547.692	42.86
547.889	42.95
548.086	42.99
548.283	43.25
548.48	43.38
548.677	43.7
548.874	43.8
549.07	43.87
549.267	44
549.464	43.92
549.661	44.16
549.858	44.38
550.055	44.65
550.251	44.96
550.448	44.84
550.645	44.68
550.842	44.58
551.038	44.63
551.235	44.71
551.432	44.81
551.628	44.92
551.825	44.93
552.022	44.84
552.218	44.7
552.415	44.54
552.612	44.49
552.808	44.72
553.005	44.73
553.201	44.71
553.398	44.84
553.594	44.92
553.791	45.18
553.987	45.12
554.184	45.13
554.38	45.23
554.577	45.37
554.773	45.5
554.97	45.51
555.166	45.79
555.362	45.94
555.559	45.82
555.755	45.76
555.952	45.57
556.148	45.73
556.344	45.85
556.541	45.75
556.737	45.77
556.933	45.84
557.129	45.9
557.326	45.79
557.522	45.57
557.718	45.8
557.914	45.86
558.11	45.83
558.307	45.69
558.503	45.65
558.699	45.94
558.895	45.72
559.091	45.98
559.287	46.08
559.483	46.1
559.679	46.33
559.876	46.13
560.072	46.01
560.268	46.26
560.464	46.26
560.66	46.2
560.856	46.16
561.052	46.23
561.247	45.91
561.443	45.94
561.639	45.92
561.835	45.97
562.031	46.11
562.227	46.42
562.423	46.32
562.619	46.53
562.815	46.64
563.01	46.95
563.206	47.07
563.402	47.25
563.598	47.29
563.793	47.46
563.989	47.52
564.185	47.5
564.381	47.41
564.576	47.69
564.772	47.47
564.968	47.5
565.163	47.42
565.359	47.3
565.555	47.21
565.75	47.15
565.946	47.14
566.141	47.17
566.337	47.15
566.532	47.21
566.728	47.15
566.923	47.29
567.119	47.37
567.314	47.24
567.51	47.34
567.705	47.62
567.901	47.78
568.096	47.63
568.292	47.68
568.487	47.93
568.682	48.01
568.878	48.17
569.073	48.23
569.268	48.09
569.464	48.16
569.659	48.29
569.854	48.19
570.05	48.04
570.245	48.33
570.44	48.4
570.635	48.31
570.831	48.21
571.026	48.23
571.221	48.47
571.416	48.67
571.611	48.47
571.806	48.36
572.002	48.46
572.197	48.46
572.392	48.4
572.587	48.46
572.782	48.5
572.977	48.42
573.172	48.23
573.367	47.99
573.562	48.11
573.757	48.4
573.952	48.27
574.147	48.23
574.342	48.41
574.537	48.24
574.732	48.12
574.927	48.35
575.121	48.45
575.316	48.57
575.511	48.85
575.706	48.68
575.901	48.53
576.096	48.87
576.29	48.88
576.485	48.82
576.68	49.06
576.875	49.23
577.069	49.05
577.264	49.12
577.459	49.03
577.654	48.96
577.848	48.98
578.043	49.18
578.238	49.41
578.432	49.32
578.627	49.37
578.821	49.6
579.016	49.54
579.21	49.58
579.405	49.67
579.6	49.66
579.794	49.72
579.989	49.91
580.183	49.99
580.378	49.66
580.572	49.98
580.766	49.95
580.961	49.63
581.155	49.57
581.35	49.8
581.544	49.76
581.738	49.99
581.933	49.72
582.127	49.86
582.321	49.53
582.516	49.39
582.71	49.04
582.904	49.16
583.099	49.25
583.293	49.19
583.487	48.83
583.681	49.21
583.875	49.23
584.07	49.58
584.264	49.54
584.458	49.82
584.652	50.16
584.846	50.54
585.04	50.31
585.234	50.65
585.428	51
585.623	50.94
585.817	50.72
586.011	50.6
586.205	50.56
586.399	50.36
586.593	50.4
586.787	50.36
586.981	50.11
587.174	50.45
587.368	50.25
587.562	50.14
587.756	50.31
587.95	50.42
588.144	50.47
588.338	50.47
588.532	50.57
588.725	50.53
588.919	50.81
589.113	50.86
589.307	50.84
589.501	50.79
589.694	50.82
589.888	50.96
590.082	50.77
590.275	50.81
590.469	51.03
590.663	51.23
590.856	51.31
591.05	51.06
591.244	51.02
591.437	51.1
591.631	51.26
591.824	51.23
592.018	51.2
592.212	51.3
592.405	51.34
592.599	51.22
592.792	50.91
592.986	50.91
593.179	50.69
593.372	50.92
593.566	50.69
593.759	50.77
593.953	50.86
594.146	50.73
594.339	50.89
594.533	51.05
594.726	50.9
594.92	50.98
595.113	50.95
595.306	51.22
595.499	51.2
595.693	51.52
595.886	51.46
596.079	51.59
596.272	51.81
596.466	51.81
596.659	51.71
596.852	51.98
597.045	52.04
597.238	51.94
597.431	51.9
597.624	52.09
597.818	51.82
598.011	52
598.204	51.82
598.397	51.6
598.59	51.49
598.783	51.58
598.976	51.55
599.169	51.66
599.362	51.81
599.555	51.74
599.748	51.53
599.941	51.51
600.134	51.28
600.326	51.34
600.519	51.72
600.712	51.77
600.905	51.8
601.098	51.83
601.291	51.83
601.483	51.84
601.676	51.89
601.869	51.86
602.062	51.94
602.255	51.74
602.447	51.78
602.64	51.52
602.833	51.38
603.025	51.52
603.218	51.44
603.411	51.48
603.603	51.58
603.796	51.78
603.989	51.64
604.181	51.77
604.374	52.04
604.566	52.28
604.759	52.29
604.951	52.54
605.144	52.42
605.336	52.56
605.529	52.64
605.721	52.54
605.914	52.38
606.106	52.5
606.299	52.74
606.491	52.73
606.683	52.77
606.876	52.8
607.068	52.7
607.26	52.53
607.453	52.18
607.645	51.86
607.837	52.18
608.03	52.39
608.222	52.46
608.414	52.26
608.606	52.1
608.799	52.21
608.991	52.66
609.183	52.8
609.375	53.13
609.567	53.23
609.759	53.48
609.952	53.12
610.144	53.07
610.336	53.23
610.528	53.08
610.72	53.28
610.912	53.05
611.104	52.92
611.296	52.81
611.488	52.7
611.68	52.87
611.872	52.79
612.064	53.36
612.256	53.22
612.448	53.26
612.64	53.5
612.832	53.62
613.023	53.18
613.215	53.08
613.407	52.99
613.599	53.04
613.791	53.02
613.983	53.25
614.174	52.87
614.366	53.05
614.558	52.83
614.75	52.82
614.941	52.91
615.133	53.3
615.325	53.54
615.516	53.85
615.708	53.8
615.9	53.59
616.091	53.34
616.283	53.35
616.475	53.1
616.666	53.28
616.858	53.57
617.049	53.3
617.241	53.26
617.432	52.86
617.624	52.69
617.815	52.66
618.007	52.78
618.198	53.08
618.39	53.2
618.581	53.67
618.773	53.59
618.964	53.27
619.155	53.24
619.347	53.02
619.538	53.4
619.729	53.65
619.921	53.86
620.112	53.77
620.303	53.37
620.494	53.33
620.686	53.16
620.877	53.35
621.068	53.22
621.259	53.19
621.451	53.6
621.642	53.03
621.833	52.61
622.024	52.19
622.215	52.12
622.406	52.64
622.597	52.46
622.788	52.25
622.98	51.98
623.171	52.07
623.362	52.05
623.553	52.1
623.744	52.29
623.935	52.52
624.126	52.71
624.317	52.89
624.508	52.56
624.698	52.6
624.889	52.85
625.08	53.16
625.271	53.22
625.462	53.38
625.653	53.2
625.844	53.21
626.034	53.04
626.225	53.34
626.416	53.19
626.607	53.12
626.798	53.26
626.988	53.22
627.179	53.04
627.37	53.1
627.56	53.28
627.751	53.61
627.942	53.8
628.132	53.98
628.323	53.65
628.514	53.9
628.704	53.91
628.895	53.83
629.085	53.63
629.276	53.74
629.466	53.99
629.657	53.6
629.847	53.51
630.038	53.81
630.228	54.03
630.419	54.31
630.609	54.37
630.8	54.4
630.99	54.44
631.181	55.12
631.371	55.05
631.561	54.66
631.752	54.85
631.942	55.12
632.132	54.8
632.323	54.69
632.513	54.41
632.703	54.17
632.893	54.45
633.084	54.52
633.274	54.01
633.464	53.68
633.654	53.82
633.844	53.81
634.034	53.38
634.225	53.03
634.415	52.93
634.605	53
634.795	52.91
634.985	52.94
635.175	52.93
635.365	53.18
635.555	53.24
635.745	52.92
635.935	53.04
636.125	52.95
636.315	53.57
636.505	53.36
636.695	53.39
636.885	53.78
637.075	53.44
637.265	53.37
637.455	53.34
637.644	53.76
637.834	54.25
638.024	54.29
638.214	54.58
638.404	54.39
638.593	54.69
638.783	54.66
638.973	54.71
639.163	54.86
639.352	54.81
639.542	54.6
639.732	54.91
639.921	54.92
640.111	55.05
640.301	54.8
640.49	54.83
640.68	55.18
640.87	55.2
641.059	54.9
641.249	55.35
641.438	55.39
641.628	55.69
641.817	55.49
642.007	55.2
642.196	55.1
642.386	55.24
642.575	55.51
642.764	55.06
642.954	55.2
643.143	55.42
643.333	54.97
643.522	55.03
643.711	54.85
643.901	54.74
644.09	54.88
644.279	55
644.469	54.8
644.658	54.54
644.847	54.73
645.036	55.03
645.226	55.13
645.415	55.42
645.604	55.5
645.793	55.15
645.982	54.9
646.171	54.85
646.361	54.68
646.55	55.16
646.739	55.35
646.928	55.2
647.117	55.31
647.306	55.36
647.495	55.04
647.684	54.93
647.873	55.5
648.062	55.5
648.251	55.21
648.44	55.07
648.629	54.52
648.818	54.26
649.007	54.38
649.196	53.88
649.384	53.57
649.573	53.63
649.762	53.57
649.951	53.37
650.14	53.64
650.328	53.78
650.517	53.85
650.706	54.39
650.895	54.27
651.083	54.42
651.272	54.85
651.461	55.06
651.65	54.78
651.838	55.04
652.027	55.18
652.216	55.21
652.404	55.23
652.593	55.14
652.781	54.74
652.97	54.76
653.158	54.27
653.347	54.26
653.535	53.89
653.724	54.15
653.912	54.2
654.101	53.85
654.289	53.79
654.478	54.26
654.666	54.27
654.855	54.68
655.043	54.84
655.231	55.09
655.42	54.77
655.608	55.12
655.796	55.51
655.985	55.21
656.173	55.33
656.361	55.39
656.55	55.15
656.738	55.16
656.926	55.04
657.114	54.66
657.302	54.9
657.491	54.77
657.679	54.7
657.867	54.41
658.055	54.61
658.243	54.86
658.431	54.74
658.619	54.92
658.807	54.98
658.996	54.75
659.184	54.67
659.372	54.57
659.56	54.73
659.748	54.6
659.936	54.69
660.124	54.43
660.311	54.14
660.499	54.09
660.687	53.57
660.875	53.49
661.063	53.4
661.251	53.48
661.439	53.72
661.627	53.48
661.814	53.97
662.002	53.89
662.19	54.55
662.378	54.65
662.565	54.91
662.753	55.01
662.941	55.58
663.129	55.65
663.316	56.15
663.504	55.73
663.692	55.52
663.879	54.93
664.067	54.81
664.254	54.07
664.442	54.23
664.63	54.38
664.817	54.81
665.005	54.32
665.192	54.5
665.38	54.54
665.567	54.77
665.755	55.25
665.942	55.35
666.13	55.95
666.317	56.26
666.504	56.32
666.692	56.68
666.879	56.51
667.067	57.32
667.254	57.46
667.441	57.26
667.629	57.11
667.816	56.95
668.003	57.34
668.19	56.95
668.378	57.39
668.565	57.4
668.752	56.68
668.939	56.57
669.127	55.54
669.314	55.41
669.501	55.17
669.688	55.28
669.875	55.09
670.062	54.76
670.249	54.71
670.436	54.37
670.623	54.18
670.81	54.19
670.997	53.99
671.184	54.3
671.371	54.44
671.558	54.47
671.745	54.27
671.932	54.22
672.119	54.24
672.306	54.14
672.493	54.05
672.68	53.97
672.867	54.77
673.054	55
673.24	54.66
673.427	54.61
673.614	54.61
673.801	54.97
673.988	55.45
674.174	55.67
674.361	55.56
674.548	55.23
674.734	55.52
674.921	54.68
675.108	55.15
675.294	55.4
675.481	54.88
675.668	55.16
675.854	55.23
676.041	55.5
676.227	54.99
676.414	55.57
676.601	56.27
676.787	55.92
676.974	55.84
677.16	55.43
677.347	55.81
677.533	56.1
677.719	56.11
677.906	55.67
678.092	55.46
678.279	55.61
678.465	55.41
678.651	55.13
678.838	55.39
679.024	55.21
679.21	54.65
679.397	54.44
679.583	54.68
679.769	54.59
679.955	54.56
680.142	54.39
680.328	54.57
680.514	54.35
680.7	54.43
680.886	54.85
681.073	55.15
681.259	55.92
681.445	56.06
681.631	56.33
681.817	56.43
682.003	56.57
682.189	56.63
682.375	56.87
682.561	57.56
682.747	56.82
682.933	56.4
683.119	56.21
683.305	56.11
683.491	55.62
683.677	55.49
683.863	55.37
684.049	55.72
684.235	55.97
684.42	55.51
684.606	54.66
684.792	55.94
684.978	55.92
685.164	56.29
685.349	56.29
685.535	56.66
685.721	56.28
685.907	56.36
686.092	56.01
686.278	56.05
686.464	56.39
686.649	56.58
686.835	56.05
687.021	56.56
687.206	56.41
687.392	56.5
687.577	56.8
687.763	57.18
687.948	57.33
688.134	57.29
688.319	56.95
688.505	57.2
688.69	57.32
688.876	57.2
689.061	56.68
689.247	56.77
689.432	57.02
689.618	56.56
689.803	56.31
689.988	56.52
690.174	56.96
690.359	56.7
690.544	56.33
690.73	56.51
690.915	56.92
691.1	56.7
691.285	56.74
691.471	56.38
691.656	56.47
691.841	56.32
692.026	55.93
692.211	56
692.396	56.22
692.582	57.07
692.767	56.6
692.952	56.8
693.137	57.33
693.322	56.87
693.507	57.13
693.692	57.7
693.877	58.3
694.062	58.36
694.247	58.29
694.432	57.87
694.617	56.67
694.802	56.98
694.987	56.09
695.172	56.11
695.357	56.56
695.541	56.36
695.726	56.06
695.911	56.07
696.096	55.8
696.281	55.61
696.466	56.57
696.65	57.04
696.835	57.17
697.02	57.18
697.204	56.61
697.389	56.23
697.574	55.91
697.759	55.84
697.943	55.64
698.128	56.08
698.312	56.19
698.497	55.75
698.682	55.78
698.866	55.62
699.051	55.97
699.235	56.33
699.42	56.63
699.604	56.77
699.789	56.99
699.973	57.03
700.158	56.89
700.342	56.84
700.527	57.15
700.711	56.77
700.895	56.72
701.08	56.77
701.264	56.63
701.448	55.8
701.633	56.16
701.817	56.17
702.001	56.36
702.186	56.28
702.37	55.79
702.554	55.94
702.738	56.87
702.923	56.78
703.107	56.26
703.291	56.44
703.475	57.77
703.659	57.04
703.843	56.37
704.027	55.94
704.212	55.73
704.396	56.84
704.58	56.76
704.764	55.64
704.948	56.22
705.132	56.47
705.316	56.11
705.5	56.23
705.684	56.93
705.868	57.99
706.052	57.71
706.235	58.41
706.419	58.07
706.603	57.35
706.787	57.61
706.971	57.39
707.155	57.4
707.339	57.6
707.522	57.64
707.706	57.04
707.89	56.42
708.074	57.28
708.257	56.9
708.441	56.54
708.625	56.85
708.808	56.86
708.992	56.56
709.176	56.8
709.359	56.62
709.543	56.1
709.727	56.63
709.91	56.48
710.094	56.13
710.277	56.84
710.461	56.85
710.644	57.84
710.828	58.82
711.011	58.94
711.195	59.19
711.378	59.05
711.562	59.23
711.745	59.04
711.928	59.07
712.112	58.74
712.295	57.99
712.478	58.38
712.662	57.58
712.845	56.89
713.028	56.58
713.212	56.93
713.395	57.2
713.578	56.76
713.761	56.97
713.945	57.02
714.128	57.36
714.311	57.19
714.494	56.91
714.677	57.4
714.86	57.42
715.043	57.95
715.227	57.1
715.41	57.48
715.593	57.97
715.776	57.88
715.959	57.29
716.142	57.36
716.325	57.41
716.508	57.74
716.691	57.09
716.874	56.79
717.057	56.27
717.239	56.61
717.422	55.98
717.605	55.79
717.788	55.6
717.971	57.02
718.154	56.96
718.337	56.68
718.519	55.52
718.702	55.61
718.885	55.34
719.068	55.5
719.25	55.21
719.433	55.69
719.616	56.15
719.798	56.93
719.981	56.33
720.164	56.5
720.346	56.72
720.529	57.43
720.712	57.05
720.894	57.64
721.077	57.36
721.259	57.29
721.442	57.17
721.624	56.96
721.807	56.83
721.989	56.66
722.172	56.29
722.354	57.13
722.537	57.06
722.719	57.7
722.901	57.67
723.084	57.89
723.266	57.55
723.448	57.33
723.631	56.88
723.813	56.35
723.995	55.11
724.178	55.65
724.36	54.97
724.542	55.15
724.724	55.47
724.907	55.88
725.089	56.64
725.271	57.53
725.453	57.5
725.635	57.85
725.817	57.57
725.999	58.34
726.181	58.83
726.364	59.3
726.546	59.86
726.728	59.59
726.91	58.7
727.092	58.54
727.274	58.37
727.456	58.09
727.638	57.18
727.819	57.25
728.001	57.2
728.183	56.46
728.365	56.31
728.547	56.04
728.729	55.78
728.911	57.22
729.093	57.41
729.274	56.84
729.456	57.37
729.638	58.36
729.82	58.42
730.001	58.3
730.183	58.66
730.365	58.16
730.546	57.81
730.728	58.53
730.91	57.3
731.091	56.93
731.273	57.26
731.455	57.24
731.636	57.24
731.818	58.23
731.999	58.85
732.181	58.5
732.362	58.09
732.544	58.86
732.725	58.1
732.907	58.88
733.088	58.7
733.27	58.99
733.451	58.66
733.633	58.43
733.814	57.65
733.995	57.23
734.177	57.97
734.358	58.65
734.539	58.02
734.721	58.15
734.902	57.43
735.083	58.21
735.264	57.59
735.446	57.71
735.627	57.07
735.808	56.42
735.989	57.01
736.17	56.15
736.351	56.62
736.533	56.83
736.714	56.77
736.895	56.86
737.076	55.96
737.257	56.38
737.438	56.37
737.619	57.57
737.8	58.06
737.981	58.41
738.162	58.41
738.343	58.63
738.524	57.95
738.705	58.25
738.886	58.98
739.067	59.23
739.247	59.7
739.428	59.8
739.609	58.84
739.79	58.92
739.971	58.05
740.151	58.63
740.332	57.9
740.513	58.77
740.694	58.51
740.874	56.91
741.055	57.23
741.236	57.52
741.417	56.92
741.597	56.83
741.778	57.23
741.958	56.57
742.139	55.2
742.32	55.18
742.5	55.32
742.681	55.25
742.861	56.71
743.042	55.27
743.222	54.5
743.403	55.61
743.583	57.15
743.764	57.42
743.944	57.6
744.124	58.58
744.305	58.65
744.485	57.23
744.666	56.96
744.846	57.49
745.026	58.7
745.207	58.64
745.387	58.79
745.567	57.73
745.747	56.75
745.928	55.78
746.108	55.3
746.288	55.88
746.468	56.76
746.648	57.02
746.829	56.34
747.009	56.39
747.189	56.47
747.369	55.6
747.549	55.72
747.729	55.97
747.909	57.59
748.089	57.71
748.269	56.71
748.449	57.26
748.629	58.77
748.809	58.23
748.989	59.06
749.169	58.65
749.349	59.45
749.529	58.33
749.709	58.07
749.889	58.46
750.068	57.45
750.248	57.21
750.428	58
750.608	56.71
750.788	57.11
750.967	56.01
751.147	56.09
751.327	55.99
751.507	57.37
751.686	58.13
751.866	58.08
752.046	59.3
752.225	59.3
752.405	57.57
752.585	56.95
752.764	56.96
752.944	56.61
753.123	56.48
753.303	55.85
753.482	55.42
753.662	55.07
753.841	55.03
754.021	54.33
754.2	55.63
754.38	55.67
754.559	56.64
754.739	57.54
754.918	58.12
755.097	57.64
755.277	58.14
755.456	58.16
755.635	58.18
755.815	58.22
755.994	58.98
756.173	57.41
756.352	58.2
756.532	58.73
756.711	57.72
756.89	57.54
757.069	58.54
757.248	57.82
757.427	58.4
757.607	59.16
757.786	59.59
757.965	59.68
758.144	59.83
758.323	59.93
758.502	59.04
758.681	58.88
758.86	58.45
759.039	57.89
759.218	59.05
759.397	57.42
759.576	56.75
759.755	56.34
759.934	56.01
760.113	57.07
760.291	56.21
760.47	56.75
760.649	56.87
760.828	57.23
761.007	56.97
761.186	55.94
761.364	56.05
761.543	55.83
761.722	56.2
761.901	56.21
762.079	55.66
762.258	56.03
762.437	55.59
762.615	54.98
762.794	55.61
762.972	55.48
763.151	54.83
763.33	55.49
763.508	55.74
763.687	55.96
763.865	56
764.044	55.61
764.222	54.94
764.401	54.96
764.579	55.32
764.758	54.73
764.936	55.44
765.114	56.27
765.293	56.39
765.471	56.35
765.65	55.89
765.828	56.3
766.006	56.96
766.184	57.58
766.363	57.9
766.541	58.3
766.719	58.44
766.898	58.25
767.076	58.34
767.254	58.49
767.432	59.81
767.61	59.71
767.788	58.78
767.967	58.55
768.145	58.17
768.323	58.51
768.501	58.04
768.679	57.08
768.857	57.26
769.035	58.7
769.213	59.96
769.391	58.39
769.569	57.64
769.747	58.31
769.925	56.82
770.103	58.88
770.281	57.28
770.459	56.46
770.636	58.36
770.814	58.65
770.992	55.96
771.17	54.47
771.348	54.95
771.525	55.78
771.703	56.31
771.881	59.06
772.059	58.45
772.236	58.3
772.414	59.66
772.592	60.38
772.769	59.97
772.947	61.67
773.125	61.17
773.302	62.1
773.48	63.11
773.657	63.3
773.835	61.95
774.013	62.3
774.19	62.55
774.368	62.53
774.545	59.42
774.723	58.83
774.9	60.15
775.077	59.79
775.255	59.46
775.432	56.86
775.61	54.97
775.787	54.72
775.964	54.05
776.142	54.39
776.319	54.39
776.496	54.75
776.674	55
776.851	55.17
777.028	57.14
777.205	55.98
777.382	58.94
777.56	60.99
777.737	65.01
777.914	65.68
778.091	66
778.268	66.15
778.445	68.61
778.622	69.08
778.8	65.56
778.977	64.6
779.154	66.93
779.331	65.57
779.508	64.61
779.685	62.24
779.862	60.73
780.038	59.86
780.215	62.23
780.392	62.85
780.569	63.16
780.746	64.94
780.923	64.9
781.1	62.06
781.277	59.96
781.453	57.95
781.63	56.76
781.807	59.32
781.984	60.27
782.16	59.29
782.337	59.09
782.514	58.63
782.691	59.39
782.867	58.68
783.044	60.54
783.221	62.98
783.397	63.6
783.574	64.31
783.75	63.52
783.927	64.46
784.103	64.5
784.28	61.93
784.456	60.08
784.633	59.81
784.809	61.92
784.986	59.01
785.162	58.32
785.339	57.8
785.515	57.64
785.692	59.54
785.868	62.28
786.044	60.69
786.221	63.5
786.397	67.01
786.573	66.27
786.749	66.09
786.926	67.46
787.102	68.03
787.278	68.72
787.454	69.93
787.631	67.72
787.807	65.5
787.983	67.58
788.159	66.56
788.335	65.93
788.511	66.15
788.687	62.83
788.863	63.54
789.039	63.21
789.216	63.3
789.392	60.85
789.568	59.2
789.744	58.57
789.919	56.8
790.095	58.86
790.271	59.81
790.447	60.18
790.623	62.46
790.799	60.3
790.975	58.97
791.151	60.71
791.327	60.1
791.502	58.28
791.678	57.35
791.854	57.82
792.03	54.68
792.205	53.65
792.381	53.19
792.557	52.01
792.733	54.46
792.908	56.41
793.084	56.15
793.259	58.06
793.435	59.29
793.611	60.35
793.786	58.96
793.962	59.05
794.137	57.28
794.313	56.24
794.488	57.35
794.664	56.51
794.839	57.49
795.015	57.68
795.19	56.78
795.366	58.34
795.541	58.54
795.716	57.24
795.892	56.98
796.067	59.77
796.242	61.47
796.418	60.07
796.593	60.24
796.768	58.06
796.944	58.56
797.119	58.06
797.294	60.45
797.469	61.66
797.644	61.9
797.82	63.86
797.995	62.49
798.17	63.19
798.345	62.22
798.52	62.26
798.695	62.41
798.87	60.15
799.045	60.93
799.22	61.08
799.395	59.9
799.57	61.96
799.745	62.91
799.92	62.75
800.095	60.74
800.27	63.41
800.445	63.4
800.62	63.24
800.795	63.06
800.97	64.43
801.145	63.49
801.319	61.43
801.494	63.38
801.669	62.66
801.844	62.68
802.018	64.85
802.193	65.95
802.368	67.02
802.543	68.37
802.717	71.64
802.892	70.12
803.067	69.65
803.241	71.31
803.416	65.35
803.59	66.09
803.765	67.33
803.94	69.05
804.114	65.44
804.289	63.89
804.463	63.79
804.638	58.07
804.812	60.07
804.986	58.2
805.161	60.07
805.335	64.64
805.51	60.36
805.684	59.85
805.858	57.34
806.033	58.66
806.207	58.15
806.381	58.53
806.556	63.63
806.73	63.65
806.904	64.74
807.078	64.83
807.253	65.47
807.427	67.41
807.601	67.78
807.775	66.56
807.949	68.73
808.123	69.32
808.298	68.62
808.472	65.65
808.646	63.6
808.82	61.96
808.994	59.21
809.168	56.49
809.342	58.31
809.516	57.4
809.69	59.45
809.864	58.77
810.038	59.74
810.212	61.6
810.385	63.45
810.559	64.9
810.733	64.21
810.907	68.29
811.081	72.72
811.255	72.66
811.428	71.5
811.602	69.46
811.776	68.61
811.95	66.82
812.123	64.03
812.297	62.79
812.471	63.39
812.644	66.16
812.818	62.51
812.992	61.04
813.165	56.81
813.339	57.29
813.512	58.57
813.686	60.3
813.86	61.76
814.033	60.72
814.207	60.34
814.38	60.34
814.554	58.74
814.727	62.97
814.9	62.19
815.074	65.18
815.247	63.29
815.421	62.54
815.594	61.33
815.767	61.87
815.941	61.73
816.114	66.06
816.287	66.1
816.46	65.68
816.634	60.34
816.807	60.12
816.98	60.11
817.153	60.58
817.327	61.55
817.5	60.88
817.673	61.61
817.846	62.73
818.019	62.65
818.192	63.88
818.365	61.86
818.538	65.05
818.711	63.63
818.884	62.37
819.057	63.2
819.23	61.58
819.403	61.32
819.576	61.82
819.749	62.64
819.922	60.56
820.095	58.73
820.268	60.04
820.441	59.52
820.614	60.11
820.786	59.06
820.959	59.78
821.132	58.88
821.305	57.97
821.477	56.57
821.65	57.04
821.823	57.46
821.996	58.41
822.168	58.37
822.341	57.4
822.514	57.61
822.686	57.46
822.859	56.98
823.031	56.79
823.204	56.71
823.376	56.33
823.549	56.09
823.722	55.53
823.894	54.98
824.067	54.78
824.239	55.16
824.411	54.43
824.584	55.11
824.756	55.02
824.929	55.25
825.101	55.61
825.273	56.12
825.446	55.78
825.618	56.42
825.79	56.47
825.963	56.84
826.135	56.9
826.307	58.07
826.479	57.78
826.652	58.23
826.824	58.42
826.996	58.58
827.168	58.52
827.34	59.18
827.512	59.24
827.684	59.46
827.856	59.25
828.029	58.47
828.201	56.97
828.373	57.44
828.545	57.14
828.717	57.18
828.889	56.78
829.061	58.39
829.232	58.45
829.404	57.6
829.576	57.49
829.748	57.31
829.92	60.42
830.092	62.76
830.264	61.82
830.436	63.11
830.607	63.7
830.779	65.28
830.951	63.29
831.123	61.92
831.294	62.84
831.466	62.62
831.638	64.28
831.809	62.2
831.981	60.85
832.153	61.86
832.324	58.57
832.496	58.38
832.667	58.29
832.839	59.82
833.011	60.66
833.182	60.98
833.354	59.32
833.525	58.93
833.697	57.26
833.868	57.63
834.039	57.5
834.211	60.99
834.382	62.01
834.554	60.54
834.725	60.05
834.896	58.77
835.068	58.58
835.239	60.2
835.41	62.51
835.581	63.23
835.753	63.04
835.924	61.25
836.095	59.68
836.266	58
836.438	57.97
836.609	57.91
836.78	59.98
836.951	61.26
837.122	60.83
837.293	57.21
837.464	56.21
837.635	60.23
837.806	60.3
837.977	59.27
838.148	61.97
838.319	64.28
838.49	63.25
838.661	62.9
838.832	64.79
839.003	63.05
839.174	63.77
839.345	67.19
839.516	61.75
839.687	68.73
839.857	66.58
840.028	70.62
840.199	69.12
840.37	73.08
840.54	75.28
840.711	73.91
840.882	75
841.053	76.81
841.223	76.15
841.394	78.58
841.564	78.46
841.735	83.37
841.906	79.47
842.076	80.77
842.247	76.46
842.417	69.43
842.588	65.55
842.758	69.26
842.929	65.05
843.099	66.98
843.27	62.8
843.44	63.95
843.611	64.83
843.781	65.46
843.951	65.14
844.122	63.52
844.292	64.02
844.462	66.33
844.633	64.93
844.803	64.24
844.973	64.84
845.144	70
845.314	63.81
845.484	62.37
845.654	59.6
845.824	59.22
845.995	58.38
846.165	66.7
846.335	64.61
846.505	66.46
846.675	69.55
846.845	63.85
847.015	69.08
847.185	79.54
847.355	82.53
847.525	86.09
847.695	90.29
847.865	102.39
848.035	86.82
848.205	82.66
848.375	82.97
848.545	79.39
848.715	73.9
848.884	66.32
849.054	63.97
849.224	62.45
849.394	59.24
849.564	60.29
849.733	68.11
849.903	73.88
850.073	78.79
850.243	78.35
850.412	86.18
850.582	95.08
850.752	96.55
850.921	84.63
851.091	96.88
851.26	117.76
851.43	102.48
851.599	92.09
851.769	85.66
851.939	88.54
852.108	82.51
852.278	86.37
852.447	95.17
852.616	95.69
852.786	94.35
852.955	93.71
853.125	76.77
853.294	89.37
853.463	89.07
853.633	90.12
853.802	94.58
853.971	110.89
854.141	105.2
854.31	99.02
854.479	98.99
854.648	120.63
854.818	101.09
854.987	105.87
855.156	87.08
855.325	77.3
855.494	87.47
855.663	79.15
855.832	74.77
856.001	72.13
856.171	69.79
856.34	73.01
856.509	74.3
856.678	96.4
856.847	101.9
857.016	99.68
857.185	112.68
857.353	104.81
857.522	107.29
857.691	107.17
857.86	113.99
858.029	113.27
858.198	114.15
858.367	118.5
858.535	98.44
858.704	101.65
858.873	105.35
859.042	100.05
859.21	107.4
859.379	87.94
859.548	75.36
859.717	75.35
859.885	83.67
860.054	81.13
860.222	74.26
860.391	82.31
860.56	85.26
860.728	83.11
860.897	82.43
861.065	82.26
861.234	87.94
861.402	82.1
861.571	69.31
861.739	65.45
861.908	62.88
862.076	67.72
862.244	60.55
862.413	49.44
862.581	59.23
862.749	57.29
862.918	54.96
863.086	58.76
863.254	62.97
863.423	68.76
863.591	55.94
863.759	59.7
863.927	51.34
864.096	63.36
864.264	70.38
864.432	61.66
864.6	75.41
864.768	86.51
864.936	85.6
865.104	90.18
865.272	92.34
865.44	108.32
865.608	114.83
865.776	119.23
865.944	117.46
866.112	118.36
866.28	132.1
866.448	108.97
866.616	120.98
866.784	117.65
866.952	108.78
867.12	104.61
867.288	101.02
867.455	102.61
867.623	92.82
867.791	94.13
867.959	91.62
868.127	79.85
868.294	84.43
868.462	61.65
868.63	66.48
868.797	68.93
868.965	67.71
869.133	76.24
869.3	72.28
869.468	80.57
869.636	67.99
869.803	73.35
869.971	63.12
870.138	72.59
870.306	75.21
870.473	72.87
870.641	67.4
870.808	70.43
870.975	57.65
871.143	53.38
871.31	49.53
871.478	53.27
871.645	45.15
871.812	65.61
871.98	67.42
872.147	50.1
872.314	44.81
872.482	45.51
872.649	49.33
872.816	56.27
872.983	56.61
873.15	60.93
873.318	65.91
873.485	85.05
873.652	74.79
873.819	64.86
873.986	94.59
874.153	105.64
874.32	117.15
874.487	121.24
874.654	128.6
874.821	152.88
874.988	153.11
875.155	157.09
875.322	113.43
875.489	122.51
875.656	132.75
875.823	115.09
875.99	91.24
876.157	75.14
876.324	83.06
876.49	83.22
876.657	84.42
876.824	89.27
876.991	86.75
877.157	87.62
877.324	85.67
877.491	83.2
877.658	81.45
877.824	81.36
877.991	85.85
878.157	82.3
878.324	83.34
878.491	80.3
878.657	75.69
878.824	76.57
878.99	79.03
879.157	85.42
879.323	77.35
879.49	76.77
879.656	80.78
879.823	95
879.989	86.31
880.156	92.45
880.322	87.67
880.488	87.61
880.655	82.65
880.821	79.88
880.987	76.38
881.154	75.83
881.32	73.4
881.486	72.89
881.652	69.3
881.819	70
881.985	66.71
882.151	66.92
882.317	63.62
882.483	66.39
882.649	63.88
882.816	60.63
882.982	62.69
883.148	59.96
883.314	58.21
883.48	56.31
883.646	55.26
883.812	55.83
883.978	57.12
884.144	57.59
884.31	55.35
884.476	56.7
884.642	57.26
884.807	56.55
884.973	57.92
885.139	58.39
885.305	58.9
885.471	58.68
885.637	60.05
885.802	57
885.968	56.51
886.134	56.51
886.3	56.72
886.465	56.43
886.631	56.74
886.797	58.03
886.962	58.88
887.128	63.6
887.293	67.16
887.459	56.66
887.625	59.6
887.79	59.28
887.956	64.38
888.121	62.02
888.287	63.52
888.452	64.6
888.618	62.02
888.783	61.59
