Data from CB_033_Reflection_00003.txt Node
Date: Wed Nov 11 22:02:15 EST 2015
User: robert
Spectrometer: USB4E03001
Autoset integration time: false
Trigger mode: 4
Integration Time (sec): 1.000000E-1
Scans to average: 15
Electric dark correction enabled: true
Nonlinearity correction enabled: false
Boxcar width: 5
Stray light correction enabled: false
XAxis mode: Wavelengths
Stop averaging: false
Number of Pixels in Spectrum: 3648
>>>>>Begin Spectral Data<<<<<
177.566	81.66
177.785	463.16
178.005	-318.58
178.225	-535.84
178.445	74.32
178.665	110.38
178.885	252.86
179.105	67.72
179.324	111.91
179.544	138.68
179.764	127.49
179.984	52.89
180.204	62.07
180.423	91.44
180.643	41.8
180.863	31.19
181.083	44.5
181.302	31.55
181.522	26.83
181.742	36.68
181.961	16.42
182.181	21.45
182.401	49.58
182.621	33.84
182.84	39.41
183.06	48.53
183.279	50.29
183.499	55.74
183.719	55.79
183.938	63.26
184.158	69.5
184.377	59.82
184.597	59.24
184.816	43.87
185.036	40.17
185.256	31.86
185.475	40.47
185.695	20.17
185.914	-6.68
186.134	37.81
186.353	-7.59
186.572	-48.69
186.792	-51.01
187.011	-55.83
187.231	-56.56
187.45	-86.96
187.67	-64.44
187.889	-58.43
188.108	-8.05
188.328	-13.94
188.547	-30.46
188.766	-30.65
188.986	-36.52
189.205	-11.12
189.424	-2.12
189.644	-4.1
189.863	10.08
190.082	21.35
190.302	12.85
190.521	6.92
190.74	27.75
190.959	26.92
191.178	36.73
191.398	32.83
191.617	42.58
191.836	37.87
192.055	32.39
192.274	23.61
192.494	11.69
192.713	22.72
192.932	40.63
193.151	23.59
193.37	24.62
193.589	44.62
193.808	60.53
194.027	21.69
194.246	43.29
194.465	57.23
194.685	70.23
194.904	77.7
195.123	59.26
195.342	30.42
195.561	54.76
195.78	49.25
195.999	38.71
196.218	20.69
196.436	27.69
196.655	24.94
196.874	-2.6
197.093	-13.27
197.312	8.4
197.531	25.26
197.75	35.76
197.969	21.02
198.188	22.82
198.407	1.76
198.625	19.88
198.844	22.04
199.063	12.1
199.282	9.97
199.501	-3.49
199.719	-40.31
199.938	-19.91
200.157	-70.63
200.376	-2.55
200.594	6.45
200.813	21.84
201.032	-1.22
201.251	0.87
201.469	27.13
201.688	48.9
201.907	43.12
202.125	38.45
202.344	31.91
202.563	36.3
202.781	33.34
203	12.79
203.218	21.7
203.437	36.81
203.656	29.97
203.874	29.9
204.093	9.76
204.311	22.24
204.53	5.98
204.748	13.14
204.967	21.86
205.185	-1.86
205.404	15.32
205.622	-3.66
205.841	-5.33
206.059	-13.21
206.278	-5.5
206.496	3.06
206.715	2.19
206.933	20.35
207.151	17.48
207.37	5.86
207.588	9.48
207.806	7
208.025	28.73
208.243	30.96
208.461	34.85
208.68	26.6
208.898	24.94
209.116	12.58
209.335	19.42
209.553	12.58
209.771	6.31
209.989	13.27
210.208	15.95
210.426	-2.04
210.644	-12.07
210.862	-7.38
211.081	9.43
211.299	26.7
211.517	61.43
211.735	27.36
211.953	43.75
212.171	71.9
212.39	81.31
212.608	83.68
212.826	69.03
213.044	75.78
213.262	56.77
213.48	58.97
213.698	59.16
213.916	61.38
214.134	73.66
214.352	65.3
214.57	58.47
214.788	47.88
215.006	7.99
215.224	17.75
215.442	-1.26
215.66	-31.14
215.878	3.57
216.096	8.06
216.314	-20.06
216.532	-1.49
216.75	3.37
216.968	2.7
217.185	3.6
217.403	21.51
217.621	31.17
217.839	24.44
218.057	29.85
218.275	31.15
218.492	40.82
218.71	41.35
218.928	37.88
219.146	41.84
219.363	41.58
219.581	61.21
219.799	49.08
220.017	38.11
220.234	44.64
220.452	34.8
220.67	31.58
220.887	16.78
221.105	29.94
221.323	-3.03
221.54	22.81
221.758	13.13
221.976	19.35
222.193	17.73
222.411	18.79
222.629	18.78
222.846	24.17
223.064	7.03
223.281	21.27
223.499	25.15
223.716	21.89
223.934	15.83
224.151	13.16
224.369	-5.46
224.586	-1.13
224.804	-5.7
225.021	-12.6
225.239	-0.29
225.456	15.23
225.674	3.31
225.891	7.32
226.108	18.15
226.326	0.54
226.543	0.59
226.76	10.76
226.978	3.37
227.195	4.12
227.413	6.82
227.63	4.33
227.847	5.69
228.064	7.19
228.282	7.26
228.499	6.93
228.716	11.67
228.934	14.22
229.151	9.9
229.368	10.83
229.585	10.73
229.802	11.3
230.02	9.79
230.237	9.36
230.454	9.17
230.671	8.23
230.888	5.89
231.105	4.99
231.323	3.83
231.54	9.75
231.757	4.59
231.974	1.3
232.191	-1.65
232.408	1.03
232.625	-1.8
232.842	-7.44
233.059	-10.81
233.276	-3.05
233.493	-1.25
233.71	-2.68
233.927	-7.29
234.144	-2.82
234.361	0.41
234.578	2.15
234.795	3.19
235.012	7.57
235.229	10.04
235.446	15.89
235.663	15.69
235.879	13.06
236.096	15.63
236.313	12.79
236.53	18.32
236.747	21.1
236.964	21.24
237.181	25.02
237.397	16.8
237.614	17.18
237.831	10.89
238.048	7.74
238.264	6.56
238.481	2.59
238.698	9.21
238.915	6.3
239.131	2.32
239.348	5.12
239.565	0.15
239.781	2.85
239.998	3.43
240.215	4.38
240.431	5.86
240.648	9.38
240.865	8.71
241.081	10.79
241.298	8.49
241.514	8.18
241.731	7.17
241.947	5.69
242.164	7.72
242.38	6.96
242.597	7.64
242.814	7.04
243.03	7.29
243.246	8.62
243.463	7.18
243.679	9.77
243.896	11.44
244.112	11.08
244.329	14.67
244.545	12.48
244.762	13.34
244.978	13.29
245.194	13.78
245.411	11.04
245.627	9.86
245.843	11.11
246.06	8.09
246.276	7.2
246.492	7.11
246.709	5.1
246.925	7.16
247.141	7.13
247.357	6.13
247.574	6.38
247.79	6.58
248.006	7.31
248.222	7.22
248.439	7.84
248.655	8.06
248.871	7.34
249.087	7.35
249.303	5.94
249.519	5.81
249.736	5.4
249.952	5.34
250.168	5.8
250.384	4.26
250.6	2.32
250.816	3.59
251.032	2.74
251.248	5.67
251.464	4.71
251.68	5.73
251.896	5.16
252.112	7.41
252.328	6.3
252.544	7.31
252.76	8.23
252.976	7.04
253.192	5.16
253.408	5.06
253.624	4.5
253.84	4.91
254.056	6.04
254.272	8.58
254.487	6.3
254.703	5.86
254.919	5.55
255.135	4.24
255.351	6.23
255.567	7.29
255.782	9.92
255.998	9.81
256.214	10.15
256.43	10.88
256.646	7.47
256.861	8.47
257.077	7.8
257.293	4.24
257.508	3.27
257.724	2.68
257.94	2.44
258.155	2.18
258.371	2.02
258.587	3.52
258.802	3.27
259.018	4.65
259.234	3.78
259.449	4.11
259.665	4.65
259.88	4.89
260.096	4.71
260.312	4.26
260.527	4.34
260.743	4.22
260.958	3.68
261.174	2.86
261.389	2.31
261.605	2.71
261.82	3.17
262.036	3.81
262.251	4.93
262.466	5.93
262.682	6.22
262.897	5.81
263.113	5.44
263.328	4.82
263.543	5.5
263.759	3.65
263.974	4.24
264.189	3.16
264.405	1.71
264.62	-1.2
264.835	-2.19
265.051	-1.91
265.266	-2.22
265.481	-0.2
265.696	2.45
265.912	2.97
266.127	5.27
266.342	4.98
266.557	6.16
266.773	5.57
266.988	5.55
267.203	4.58
267.418	4.76
267.633	5.1
267.848	5.84
268.064	5.45
268.279	5.31
268.494	4.88
268.709	7.02
268.924	6.74
269.139	7.65
269.354	9.11
269.569	10.41
269.784	11.6
269.999	10.29
270.214	8.36
270.429	7.61
270.644	7.66
270.859	7.01
271.074	4.5
271.289	4.25
271.504	4.64
271.719	4.79
271.934	4.35
272.149	4.14
272.363	5.31
272.578	6.11
272.793	6.87
273.008	6.59
273.223	6.83
273.438	7.59
273.653	9.43
273.867	9.86
274.082	9.45
274.297	10.05
274.512	10.04
274.726	8.75
274.941	8.96
275.156	8.39
275.371	7.39
275.585	7.12
275.8	7.45
276.015	4.38
276.229	3.55
276.444	3.86
276.659	3.84
276.873	3.74
277.088	5.16
277.302	4.53
277.517	6.17
277.732	8.21
277.946	7.44
278.161	7.77
278.375	8.37
278.59	9.7
278.804	9.16
279.019	8.9
279.233	9.04
279.448	8.44
279.662	8.83
279.877	7.53
280.091	6.88
280.306	7.55
280.52	6.07
280.735	6.92
280.949	5.87
281.163	5.55
281.378	4.47
281.592	3.49
281.806	4.33
282.021	2.87
282.235	2.43
282.449	2.24
282.664	1.33
282.878	1.46
283.092	0.41
283.307	0.84
283.521	0.83
283.735	2.01
283.949	3.04
284.164	3.09
284.378	3.92
284.592	4.78
284.806	5.1
285.02	5.66
285.234	6.65
285.449	7.03
285.663	6.8
285.877	7.16
286.091	6.76
286.305	6.35
286.519	5.79
286.733	5.33
286.947	4.27
287.161	4.22
287.375	5.65
287.589	4.95
287.803	4.77
288.017	3.64
288.231	4.2
288.445	5
288.659	5.34
288.873	6.28
289.087	6.39
289.301	7.57
289.515	8.46
289.729	7.42
289.943	7.83
290.157	7.93
290.371	7.93
290.584	7.55
290.798	6.84
291.012	7.18
291.226	7.3
291.44	7.87
291.654	8.23
291.867	6.24
292.081	5.84
292.295	5.89
292.509	5.16
292.722	5.26
292.936	4.56
293.15	5.34
293.364	5.27
293.577	4.49
293.791	4.36
294.005	2.71
294.218	4.31
294.432	5.29
294.645	4.56
294.859	4.1
295.073	4.19
295.286	4.29
295.5	3.78
295.713	3.49
295.927	3.25
296.14	3.85
296.354	4.52
296.568	4.18
296.781	4.29
296.994	5.14
297.208	6.78
297.421	6.94
297.635	7.38
297.848	7.08
298.062	7.56
298.275	8
298.489	8.02
298.702	7.75
298.915	7.94
299.129	9.13
299.342	8.82
299.555	8.23
299.769	9.14
299.982	9.22
300.195	9.54
300.409	9.48
300.622	9.87
300.835	9.7
301.048	10.1
301.262	9.89
301.475	8.88
301.688	9.69
301.901	9.3
302.115	8.85
302.328	11.24
302.541	11.75
302.754	10.69
302.967	10.08
303.18	11.6
303.393	11.28
303.607	12.02
303.82	11.01
304.033	10.2
304.246	10.19
304.459	10.26
304.672	8.25
304.885	9.4
305.098	9.89
305.311	10.83
305.524	9.11
305.737	9.73
305.95	9.14
306.163	10.71
306.376	11.73
306.589	12.69
306.802	13.05
307.015	13.47
307.228	11.18
307.44	11.41
307.653	11.52
307.866	12.46
308.079	12.68
308.292	12.28
308.505	11.66
308.718	10.85
308.93	11.43
309.143	11.33
309.356	10.77
309.569	11.74
309.781	12.05
309.994	10.87
310.207	10.02
310.42	9.38
310.632	10.28
310.845	10.19
311.058	10.16
311.27	9.88
311.483	9.81
311.696	9.82
311.908	10.18
312.121	9.49
312.333	9.79
312.546	9.84
312.759	10.23
312.971	9.98
313.184	9.54
313.396	9.23
313.609	8.65
313.821	9.32
314.034	9.8
314.246	9.38
314.459	9.92
314.671	10.36
314.884	10.78
315.096	10.86
315.309	10.21
315.521	9.68
315.733	9.67
315.946	8.75
316.158	7.41
316.371	7.35
316.583	6.9
316.795	7.55
317.008	7.79
317.22	8.7
317.432	8.95
317.644	9.47
317.857	10.43
318.069	10.96
318.281	10.49
318.494	11.75
318.706	12.73
318.918	13.64
319.13	13.68
319.342	13.15
319.555	13.48
319.767	13.49
319.979	12.84
320.191	12.98
320.403	13.83
320.615	15.44
320.827	15.13
321.039	13.09
321.252	13.07
321.464	12.21
321.676	11.63
321.888	11.52
322.1	10.31
322.312	11.36
322.524	11.37
322.736	10.61
322.948	11.06
323.16	10.57
323.372	11.54
323.584	12.18
323.796	13.15
324.007	13.71
324.219	13.06
324.431	14.14
324.643	14.03
324.855	14.45
325.067	14.98
325.279	14.76
325.491	16.12
325.702	15.93
325.914	15.3
326.126	15.48
326.338	15.11
326.55	14.92
326.761	15.37
326.973	15.45
327.185	15.19
327.396	14.37
327.608	14.35
327.82	14.35
328.032	15.32
328.243	15.89
328.455	15.75
328.666	16.7
328.878	17.11
329.09	16.53
329.301	16.09
329.513	16.42
329.725	16.96
329.936	17.79
330.148	17.1
330.359	16.26
330.571	16.28
330.782	16.06
330.994	16.41
331.205	17.01
331.417	17.79
331.628	18.54
331.84	18.74
332.051	19.06
332.262	19.02
332.474	20.39
332.685	20.53
332.897	20.49
333.108	21.09
333.319	21.85
333.531	23
333.742	23.42
333.953	23.66
334.165	24.47
334.376	24.94
334.587	24.94
334.799	24.77
335.01	26.15
335.221	26.16
335.432	26
335.644	25.62
335.855	25.56
336.066	24.83
336.277	25.09
336.488	24.71
336.7	24.38
336.911	24.83
337.122	24.87
337.333	23.99
337.544	24.36
337.755	24.78
337.966	25.03
338.177	23.65
338.388	23.65
338.599	23.79
338.811	23.48
339.022	23.32
339.233	22.84
339.444	21.76
339.655	22.01
339.866	22.59
340.076	22.03
340.287	22
340.498	21.99
340.709	23.37
340.92	23.84
341.131	23.48
341.342	23.68
341.553	23.73
341.764	24.25
341.975	24.73
342.185	24.28
342.396	24.28
342.607	23.69
342.818	23.91
343.029	23.07
343.239	22.73
343.45	23.24
343.661	23.45
343.872	22.57
344.082	22.03
344.293	21.7
344.504	21.63
344.714	21.52
344.925	21.49
345.136	22.37
345.346	22.43
345.557	22.08
345.768	21.74
345.978	22.18
346.189	23.65
346.399	23.87
346.61	23.7
346.821	23.64
347.031	24.39
347.242	24.95
347.452	24.55
347.663	25.47
347.873	25.85
348.084	26.37
348.294	26.13
348.504	25.27
348.715	25.61
348.925	25.53
349.136	25.44
349.346	25.32
349.557	25.03
349.767	25.33
349.977	24.32
350.188	24.15
350.398	24.24
350.608	24.56
350.819	24.55
351.029	24.42
351.239	23.7
351.449	23.83
351.66	22.85
351.87	23.2
352.08	23.29
352.29	23.89
352.501	24.4
352.711	24.49
352.921	24.28
353.131	25.01
353.341	24.98
353.552	25.83
353.762	25.15
353.972	26.57
354.182	25.93
354.392	25.27
354.602	25.15
354.812	24.41
355.022	23.77
355.232	23.69
355.442	23.27
355.652	23.85
355.862	23.8
356.072	24.62
356.282	23.88
356.492	24.52
356.702	24.94
356.912	24.21
357.122	24.34
357.332	25.08
357.542	25.2
357.752	25
357.962	24.15
358.171	24.35
358.381	23.66
358.591	23.14
358.801	22.51
359.011	22.06
359.221	22.57
359.43	22.7
359.64	22.22
359.85	22.15
360.06	21.86
360.269	22.29
360.479	21.73
360.689	21.69
360.899	22.36
361.108	22.97
361.318	23.06
361.528	23.12
361.737	22.39
361.947	22.3
362.156	21.97
362.366	22.29
362.576	22.07
362.785	22.8
362.995	23.1
363.204	23.17
363.414	22.76
363.623	22.68
363.833	22.24
364.042	22.71
364.252	23.7
364.461	23.89
364.671	24.29
364.88	24.37
365.09	23.69
365.299	23.51
365.509	23.51
365.718	23.68
365.927	23.63
366.137	23.58
366.346	23.57
366.555	22.82
366.765	22.5
366.974	22.43
367.183	22.95
367.393	23.24
367.602	23.89
367.811	23.63
368.021	23.33
368.23	23.3
368.439	23.7
368.648	24.14
368.857	23.81
369.067	23.72
369.276	22.97
369.485	22.74
369.694	22.88
369.903	21.83
370.112	21.27
370.321	21.5
370.531	21.73
370.74	22.1
370.949	21.53
371.158	21.57
371.367	21.93
371.576	22.55
371.785	22.4
371.994	22.15
372.203	22.92
372.412	23.67
372.621	23.89
372.83	23.22
373.039	23.39
373.248	24
373.457	23.81
373.666	23.84
373.874	23.34
374.083	22.88
374.292	22.56
374.501	22.58
374.71	22.07
374.919	21.57
375.128	22.75
375.336	22.31
375.545	21.72
375.754	22.16
375.963	22.08
376.171	22.41
376.38	22.59
376.589	22.79
376.798	22.25
377.006	22.37
377.215	23.23
377.424	22.87
377.632	22.69
377.841	22.69
378.05	22.7
378.258	22.89
378.467	22.75
378.675	22.76
378.884	22.7
379.093	22.9
379.301	22.87
379.51	22.18
379.718	22.38
379.927	22.17
380.135	22.49
380.344	22.32
380.552	21.91
380.761	21.68
380.969	21.78
381.177	21.97
381.386	22
381.594	21.91
381.803	21.98
382.011	21.53
382.219	21.76
382.428	22.1
382.636	22.06
382.845	22.74
383.053	23.06
383.261	23.21
383.469	22.99
383.678	23.09
383.886	23.02
384.094	23.21
384.302	23.52
384.511	23.67
384.719	23.43
384.927	23.65
385.135	23.33
385.343	23.61
385.552	23.6
385.76	23.92
385.968	23.85
386.176	24.23
386.384	23.79
386.592	23.71
386.8	23.74
387.008	23.87
387.216	23.73
387.424	23.97
387.633	23.43
387.841	23.53
388.049	23.35
388.257	23.63
388.465	23.57
388.672	23.74
388.88	23.8
389.088	23.44
389.296	22.9
389.504	22.82
389.712	22.58
389.92	22.96
390.128	22.85
390.336	23.03
390.544	23
390.751	22.87
390.959	22.95
391.167	22.87
391.375	23.28
391.583	23.58
391.79	23.7
391.998	23.66
392.206	23.69
392.414	23.8
392.621	23.72
392.829	23.83
393.037	24.02
393.244	23.86
393.452	24.12
393.66	24.01
393.867	24.16
394.075	24.23
394.283	24.42
394.49	24.55
394.698	24.58
394.905	24.85
395.113	24.59
395.32	24.7
395.528	25.05
395.735	24.93
395.943	24.88
396.15	24.92
396.358	25.22
396.565	25.5
396.773	25.3
396.98	25.29
397.188	24.99
397.395	25.18
397.602	25.14
397.81	25.34
398.017	25.22
398.225	25.3
398.432	25.32
398.639	25.42
398.847	25.05
399.054	25.14
399.261	25.17
399.468	25.25
399.676	25.29
399.883	25.19
400.09	24.68
400.297	24.86
400.505	24.88
400.712	25.08
400.919	24.6
401.126	24.91
401.333	24.84
401.54	24.81
401.748	24.99
401.955	24.75
402.162	24.94
402.369	25.23
402.576	25.26
402.783	25.5
402.99	24.95
403.197	25.03
403.404	24.93
403.611	25.18
403.818	25.25
404.025	25.24
404.232	25.4
404.439	25.16
404.646	25.1
404.853	24.87
405.06	24.88
405.267	25.2
405.474	25.13
405.681	25.1
405.887	25.11
406.094	25.16
406.301	24.94
406.508	24.81
406.715	25.01
406.922	25.41
407.128	25.76
407.335	25.57
407.542	25.43
407.749	25.76
407.955	25.73
408.162	25.6
408.369	25.22
408.575	25.72
408.782	26.01
408.989	26.02
409.195	25.48
409.402	25.38
409.609	25.61
409.815	25.56
410.022	25.47
410.228	25.39
410.435	25.44
410.642	25.55
410.848	25.14
411.055	25.19
411.261	24.95
411.468	25.16
411.674	25.36
411.881	25.09
412.087	25.17
412.294	25.21
412.5	25.48
412.706	25.3
412.913	25.4
413.119	25.4
413.326	25.02
413.532	25.26
413.738	25.17
413.945	24.74
414.151	24.64
414.357	24.55
414.564	24.51
414.77	24.13
414.976	24.23
415.182	24.22
415.389	24.11
415.595	23.93
415.801	23.88
416.007	23.8
416.214	23.89
416.42	24.04
416.626	24.13
416.832	24.04
417.038	24.22
417.244	24.1
417.45	24.09
417.657	24.16
417.863	24.33
418.069	24.14
418.275	24.21
418.481	24.2
418.687	24.18
418.893	24.29
419.099	24.52
419.305	24.38
419.511	24.47
419.717	24.47
419.923	24.51
420.129	24.54
420.335	24.71
420.541	24.8
420.746	24.65
420.952	24.56
421.158	24.35
421.364	24.09
421.57	24
421.776	23.98
421.982	23.96
422.187	23.85
422.393	23.8
422.599	23.72
422.805	23.63
423.01	23.79
423.216	23.63
423.422	23.64
423.628	23.52
423.833	23.54
424.039	23.57
424.245	23.55
424.45	23.53
424.656	23.59
424.862	23.49
425.067	23.51
425.273	23.35
425.478	23.44
425.684	23.51
425.889	23.57
426.095	23.66
426.301	23.46
426.506	23.56
426.712	23.57
426.917	23.43
427.123	23.42
427.328	23.29
427.533	23.25
427.739	23.42
427.944	23.29
428.15	23.36
428.355	23.13
428.561	23.16
428.766	23.01
428.971	23.17
429.177	23.21
429.382	23.24
429.587	23.29
429.793	23.63
429.998	23.46
430.203	23.28
430.408	23.08
430.614	23.35
430.819	23.4
431.024	23.47
431.229	23.4
431.434	23.17
431.64	23.22
431.845	23.16
432.05	22.98
432.255	22.97
432.46	23.19
432.665	23.18
432.87	23.39
433.076	23.56
433.281	23.45
433.486	23.36
433.691	23.61
433.896	23.6
434.101	23.59
434.306	23.65
434.511	23.73
434.716	23.73
434.921	23.91
435.126	23.53
435.331	23.24
435.535	23.21
435.74	23.22
435.945	23.11
436.15	23.07
436.355	23.26
436.56	23.34
436.765	23.22
436.97	23.26
437.174	23.18
437.379	23.4
437.584	23.55
437.789	23.53
437.993	23.65
438.198	23.61
438.403	23.77
438.608	23.61
438.812	23.39
439.017	23.45
439.222	23.38
439.426	23.42
439.631	23.35
439.836	23.48
440.04	23.44
440.245	23.3
440.45	23.42
440.654	23.36
440.859	23.33
441.063	23.32
441.268	23.3
441.472	23.33
441.677	23.39
441.881	23.37
442.086	23.12
442.29	23.06
442.495	23.18
442.699	22.99
442.904	22.96
443.108	23.01
443.312	23.13
443.517	23.09
443.721	23.05
443.925	22.88
444.13	22.98
444.334	23.06
444.538	23.09
444.743	22.96
444.947	22.88
445.151	22.85
445.356	22.76
445.56	22.66
445.764	22.83
445.968	22.67
446.173	22.67
446.377	22.61
446.581	22.56
446.785	22.58
446.989	22.53
447.193	22.6
447.398	22.56
447.602	22.51
447.806	22.61
448.01	22.45
448.214	22.53
448.418	22.66
448.622	22.6
448.826	22.61
449.03	22.73
449.234	22.88
449.438	22.83
449.642	22.79
449.846	22.86
450.05	22.96
450.254	22.97
450.458	23.02
450.662	23.03
450.866	22.97
451.069	22.98
451.273	22.85
451.477	22.69
451.681	22.65
451.885	22.51
452.089	22.35
452.292	22.25
452.496	22.47
452.7	22.51
452.904	22.54
453.107	22.66
453.311	22.69
453.515	22.64
453.719	22.85
453.922	22.88
454.126	22.94
454.33	23.15
454.533	23.03
454.737	22.93
454.94	22.79
455.144	22.54
455.348	22.35
455.551	22.25
455.755	22.28
455.958	22.21
456.162	22.21
456.365	22.33
456.569	22.34
456.772	22.46
456.976	22.32
457.179	22.37
457.383	22.32
457.586	22.45
457.79	22.3
457.993	22.12
458.196	22.02
458.4	22.02
458.603	22.01
458.807	22.05
459.01	22.04
459.213	21.96
459.417	22.02
459.62	22.18
459.823	22.2
460.026	22.33
460.23	22.5
460.433	22.52
460.636	22.55
460.839	22.54
461.042	22.47
461.246	22.41
461.449	22.71
461.652	22.67
461.855	22.59
462.058	22.62
462.261	22.65
462.464	22.71
462.668	22.55
462.871	22.64
463.074	22.53
463.277	22.5
463.48	22.63
463.683	22.42
463.886	22.43
464.089	22.59
464.292	22.59
464.495	22.43
464.698	22.32
464.901	22.35
465.104	22.26
465.306	22.36
465.509	22.42
465.712	22.34
465.915	22.51
466.118	22.48
466.321	22.59
466.524	22.38
466.726	22.64
466.929	22.57
467.132	22.77
467.335	22.92
467.538	23.17
467.74	23.27
467.943	23.34
468.146	23.3
468.348	23.4
468.551	23.06
468.754	23.3
468.956	23.16
469.159	23.4
469.362	23.35
469.564	23.47
469.767	23.23
469.969	23.26
470.172	23.1
470.375	23.1
470.577	23.29
470.78	23.41
470.982	23.36
471.185	23.55
471.387	23.53
471.59	23.59
471.792	23.3
471.995	23.36
472.197	23.47
472.399	23.42
472.602	23.36
472.804	23.21
473.007	23.22
473.209	23.17
473.411	22.9
473.614	22.65
473.816	22.58
474.018	22.65
474.22	22.81
474.423	22.63
474.625	22.82
474.827	22.76
475.03	22.8
475.232	22.84
475.434	23.05
475.636	23.2
475.838	23.29
476.04	23.32
476.243	23.38
476.445	23.27
476.647	23.3
476.849	23.39
477.051	23.26
477.253	23.29
477.455	23.19
477.657	23.04
477.859	23.03
478.061	23.04
478.263	23.03
478.465	23.01
478.667	22.88
478.869	22.73
479.071	22.55
479.273	22.89
479.475	22.79
479.677	22.9
479.879	23.01
480.081	23.08
480.283	23.1
480.485	23.3
480.686	23.13
480.888	23.27
481.09	23.42
481.292	23.55
481.494	23.37
481.695	23.48
481.897	23.47
482.099	23.44
482.301	23.39
482.502	23.32
482.704	23.17
482.906	23.28
483.107	23.24
483.309	23.11
483.511	23.05
483.712	23.06
483.914	23.03
484.115	23
484.317	22.98
484.519	23.04
484.72	23.06
484.922	23.08
485.123	23.07
485.325	23.08
485.526	23.17
485.728	23.2
485.929	23.15
486.131	23.14
486.332	23.17
486.534	23.15
486.735	23.11
486.936	23.1
487.138	23.06
487.339	23.04
487.541	23.03
487.742	23.01
487.943	22.97
488.144	23
488.346	23.02
488.547	22.96
488.748	22.92
488.95	22.88
489.151	22.89
489.352	22.87
489.553	22.9
489.755	22.91
489.956	22.9
490.157	22.86
490.358	22.92
490.559	22.85
490.76	22.89
490.961	22.97
491.163	23
491.364	23.06
491.565	23.19
491.766	23.17
491.967	23.24
492.168	23.19
492.369	23.27
492.57	23.14
492.771	23.14
492.972	23.17
493.173	23.17
493.374	23.11
493.575	22.99
493.776	22.83
493.976	22.78
494.177	22.66
494.378	22.86
494.579	22.88
494.78	23.12
494.981	23.17
495.182	23.33
495.382	23.57
495.583	23.58
495.784	23.59
495.985	23.79
496.185	23.88
496.386	24.02
496.587	23.83
496.788	23.82
496.988	23.56
497.189	23.5
497.39	23.46
497.59	23.44
497.791	23.59
497.992	23.66
498.192	23.73
498.393	23.62
498.593	23.51
498.794	23.58
498.994	23.64
499.195	23.85
499.395	24.03
499.596	24.14
499.796	24.04
499.997	24.06
500.197	24.24
500.398	24.18
500.598	24.17
500.799	24.26
500.999	24.43
501.199	24.44
501.4	24.43
501.6	24.39
501.801	24.27
502.001	24.16
502.201	24.27
502.402	24.35
502.602	24.35
502.802	24.53
503.002	24.45
503.203	24.33
503.403	24.28
503.603	24.52
503.803	24.73
504.003	24.74
504.204	24.9
504.404	24.84
504.604	24.56
504.804	24.73
505.004	24.81
505.204	24.93
505.404	24.93
505.604	25.01
505.804	25.01
506.005	25.02
506.205	25.23
506.405	25.31
506.605	25.29
506.805	25.62
507.005	25.63
507.204	25.57
507.404	25.71
507.604	25.97
507.804	26.2
508.004	26.28
508.204	26.24
508.404	26.19
508.604	26.26
508.804	26.36
509.003	26.54
509.203	26.56
509.403	26.69
509.603	26.73
509.803	26.66
510.002	26.63
510.202	26.51
510.402	26.7
510.602	26.86
510.801	26.86
511.001	26.88
511.201	26.7
511.4	26.72
511.6	26.9
511.8	26.85
511.999	27
512.199	27.02
512.398	27.42
512.598	27.44
512.797	27.41
512.997	27.65
513.197	27.89
513.396	28.11
513.596	28.26
513.795	28.28
513.994	28.42
514.194	28.39
514.393	28.49
514.593	28.18
514.792	28.18
514.992	28.36
515.191	28.31
515.39	28.29
515.59	28.44
515.789	28.48
515.988	28.62
516.188	28.54
516.387	28.71
516.586	28.83
516.786	29.01
516.985	29.09
517.184	29.03
517.383	29.1
517.582	29.2
517.782	29.08
517.981	29.05
518.18	29.08
518.379	29.28
518.578	29.46
518.777	29.49
518.976	29.6
519.176	29.67
519.375	29.88
519.574	29.91
519.773	29.96
519.972	30.03
520.171	30.19
520.37	30.18
520.569	30.23
520.768	30.21
520.967	30.36
521.166	30.34
521.365	30.47
521.564	30.45
521.762	30.5
521.961	30.5
522.16	30.55
522.359	30.47
522.558	30.67
522.757	30.6
522.956	30.62
523.154	30.59
523.353	30.61
523.552	30.67
523.751	30.71
523.949	30.82
524.148	30.88
524.347	31
524.546	31.29
524.744	31.29
524.943	31.46
525.142	31.44
525.34	31.49
525.539	31.62
525.737	31.63
525.936	31.54
526.135	31.65
526.333	31.76
526.532	31.76
526.73	31.77
526.929	31.82
527.127	31.81
527.326	31.95
527.524	32.09
527.723	32.15
527.921	32.21
528.12	32.27
528.318	32.3
528.516	32.31
528.715	32.37
528.913	32.35
529.112	32.43
529.31	32.44
529.508	32.38
529.707	32.29
529.905	32.26
530.103	32.2
530.301	32.25
530.5	32.18
530.698	32.17
530.896	32.23
531.094	32.28
531.293	32.28
531.491	32.36
531.689	32.43
531.887	32.56
532.085	32.69
532.283	32.77
532.481	32.8
532.68	32.82
532.878	32.77
533.076	32.69
533.274	32.65
533.472	32.6
533.67	32.69
533.868	32.7
534.066	32.76
534.264	32.7
534.462	32.69
534.66	32.74
534.858	32.78
535.056	32.9
535.253	32.89
535.451	33.01
535.649	33.05
535.847	33.14
536.045	33.27
536.243	33.13
536.441	33.22
536.638	33.32
536.836	33.26
537.034	33.29
537.232	33.28
537.43	33.38
537.627	33.4
537.825	33.47
538.023	33.25
538.22	33.23
538.418	33.38
538.616	33.26
538.813	33.33
539.011	33.39
539.209	33.49
539.406	33.47
539.604	33.59
539.801	33.55
539.999	33.54
540.196	33.72
540.394	33.73
540.591	33.8
540.789	33.8
540.986	33.68
541.184	33.74
541.381	33.71
541.579	33.72
541.776	33.65
541.974	33.63
542.171	33.62
542.368	33.56
542.566	33.6
542.763	33.52
542.96	33.6
543.158	33.63
543.355	33.53
543.552	33.49
543.75	33.57
543.947	33.52
544.144	33.59
544.341	33.57
544.539	33.45
544.736	33.27
544.933	33.29
545.13	33.35
545.327	33.44
545.524	33.5
545.722	33.49
545.919	33.6
546.116	33.69
546.313	33.73
546.51	33.73
546.707	33.92
546.904	34.1
547.101	34.14
547.298	34.12
547.495	34.05
547.692	34.05
547.889	34.1
548.086	34.06
548.283	34.02
548.48	34.01
548.677	34.11
548.874	34.07
549.07	34.04
549.267	33.9
549.464	33.87
549.661	34.06
549.858	34.36
550.055	34.45
550.251	34.14
550.448	34.38
550.645	34.4
550.842	34.32
551.038	34.19
551.235	34.31
551.432	34.49
551.628	34.43
551.825	34.22
552.022	33.88
552.218	33.77
552.415	34.03
552.612	33.96
552.808	33.95
553.005	34.01
553.201	34.24
553.398	34.1
553.594	34.13
553.791	34.18
553.987	34.25
554.184	34.15
554.38	34.29
554.577	34.31
554.773	34.27
554.97	34.29
555.166	34.07
555.362	34.11
555.559	34.21
555.755	34
555.952	34.03
556.148	34.14
556.344	34.36
556.541	34.32
556.737	34.31
556.933	34.35
557.129	34.5
557.326	34.76
557.522	34.71
557.718	34.65
557.914	34.87
558.11	35.06
558.307	35.07
558.503	35.14
558.699	35.17
558.895	35.13
559.091	35.26
559.287	35.22
559.483	35.2
559.679	35.18
559.876	35.43
560.072	35.27
560.268	35.08
560.464	35.06
560.66	34.76
560.856	34.72
561.052	34.68
561.247	34.5
561.443	34.44
561.639	34.39
561.835	34.46
562.031	34.22
562.227	34.27
562.423	34.06
562.619	33.99
562.815	34.16
563.01	34.14
563.206	34.26
563.402	34.34
563.598	34.34
563.793	34.31
563.989	34.22
564.185	34.43
564.381	34.46
564.576	34.74
564.772	34.72
564.968	34.83
565.163	34.77
565.359	34.63
565.555	34.65
565.75	34.59
565.946	34.62
566.141	34.63
566.337	34.22
566.532	34.24
566.728	34.26
566.923	34.28
567.119	34.32
567.314	34.48
567.51	34.44
567.705	34.22
567.901	34.13
568.096	34.22
568.292	34.14
568.487	34.37
568.682	34.37
568.878	34.3
569.073	34.37
569.268	34.35
569.464	34.2
569.659	34.23
569.854	34.4
570.05	34.64
570.245	34.61
570.44	34.73
570.635	34.72
570.831	34.75
571.026	34.68
571.221	34.62
571.416	34.48
571.611	34.64
571.806	34.78
572.002	34.65
572.197	34.53
572.392	34.4
572.587	34.33
572.782	34.29
572.977	34.19
573.172	34.23
573.367	34.27
573.562	34.31
573.757	34.21
573.952	34.09
574.147	34.21
574.342	34.32
574.537	34.54
574.732	34.61
574.927	34.8
575.121	34.68
575.316	34.69
575.511	34.62
575.706	34.51
575.901	34.39
576.096	34.4
576.29	34.34
576.485	34.11
576.68	33.95
576.875	33.96
577.069	33.54
577.264	33.74
577.459	33.79
577.654	33.9
577.848	34.09
578.043	34.28
578.238	34.34
578.432	34.36
578.627	34.49
578.821	34.76
579.016	34.78
579.21	35.06
579.405	34.97
579.6	35
579.794	34.9
579.989	34.85
580.183	34.79
580.378	35.01
580.572	35.08
580.766	35.16
580.961	35
581.155	35.05
581.35	35.08
581.544	35.04
581.738	35
581.933	35.2
582.127	35.07
582.321	35.06
582.516	34.66
582.71	34.86
582.904	34.79
583.099	34.73
583.293	34.72
583.487	34.71
583.681	34.75
583.875	34.9
584.07	34.68
584.264	34.92
584.458	34.99
584.652	35.03
584.846	34.63
585.04	34.8
585.234	34.6
585.428	34.54
585.623	34.77
585.817	34.9
586.011	34.51
586.205	34.3
586.399	34.38
586.593	34.4
586.787	34.49
586.981	34.49
587.174	34.26
587.368	34.44
587.562	34.43
587.756	34.32
587.95	34.37
588.144	34.67
588.338	34.76
588.532	34.61
588.725	34.85
588.919	35.11
589.113	35.59
589.307	35.57
589.501	35.57
589.694	35.61
589.888	35.5
590.082	35.5
590.275	35.45
590.469	35.44
590.663	35.59
590.856	35.27
591.05	35.07
591.244	34.75
591.437	34.82
591.631	34.93
591.824	34.91
592.018	34.9
592.212	34.68
592.405	34.55
592.599	34.72
592.792	34.63
592.986	34.72
593.179	34.61
593.372	34.86
593.566	34.75
593.759	34.74
593.953	34.99
594.146	35.02
594.339	35.07
594.533	35.16
594.726	35.12
594.92	35
595.113	35.08
595.306	35.25
595.499	35.13
595.693	35.25
595.886	35.21
596.079	34.97
596.272	35.07
596.466	35.1
596.659	34.96
596.852	35.2
597.045	35.35
597.238	35.13
597.431	35.13
597.624	35.15
597.818	35.34
598.011	35.2
598.204	35.4
598.397	35.37
598.59	35.33
598.783	35.3
598.976	35.07
599.169	34.74
599.362	34.86
599.555	35.15
599.748	35.25
599.941	35.05
600.134	35.16
600.326	35.02
600.519	35.35
600.712	35.55
600.905	35.6
601.098	35.73
601.291	36.34
601.483	36.48
601.676	35.91
601.869	35.77
602.062	35.87
602.255	35.87
602.447	35.89
602.64	35.81
602.833	35.64
603.025	35.94
603.218	35.87
603.411	35.65
603.603	35.65
603.796	35.83
603.989	35.91
604.181	35.82
604.374	35.92
604.566	35.8
604.759	35.88
604.951	35.96
605.144	35.77
605.336	35.83
605.529	35.76
605.721	35.77
605.914	35.66
606.106	35.57
606.299	35.68
606.491	35.54
606.683	35.54
606.876	35.22
607.068	35.09
607.26	35.25
607.453	35.11
607.645	35.13
607.837	35.15
608.03	35.2
608.222	35.19
608.414	35.07
608.606	34.97
608.799	35.18
608.991	35.13
609.183	35.03
609.375	34.79
609.567	34.81
609.759	34.84
609.952	34.9
610.144	34.99
610.336	35.07
610.528	34.86
610.72	35.02
610.912	34.88
611.104	34.9
611.296	35.07
611.488	35.07
611.68	35.04
611.872	35.05
612.064	34.69
612.256	34.59
612.448	34.5
612.64	34.86
612.832	34.48
613.023	34.3
613.215	34.14
613.407	34.1
613.599	34.41
613.791	34.08
613.983	34.44
614.174	34.46
614.366	34.53
614.558	34.64
614.75	34.74
614.941	35.32
615.133	35.23
615.325	35.44
615.516	35.4
615.708	35.4
615.9	36.02
616.091	35.63
616.283	35.66
616.475	35.78
616.666	35.67
616.858	35.45
617.049	35.28
617.241	35.22
617.432	35.45
617.624	35.56
617.815	35.54
618.007	35.39
618.198	35.61
618.39	35.63
618.581	35.44
618.773	35.39
618.964	35.42
619.155	35.61
619.347	36.03
619.538	36.2
619.729	36.41
619.921	36.42
620.112	36.38
620.303	36.13
620.494	36.26
620.686	36.37
620.877	36.49
621.068	36.58
621.259	36.34
621.451	36.08
621.642	35.55
621.833	35.7
622.024	35.73
622.215	35.72
622.406	36.01
622.597	35.96
622.788	35.89
622.98	35.92
623.171	35.72
623.362	35.69
623.553	35.79
623.744	35.95
623.935	35.68
624.126	35.47
624.317	35.44
624.508	35.3
624.698	35.09
624.889	35.42
625.08	35.41
625.271	35.59
625.462	35.7
625.653	35.78
625.844	35.57
626.034	35.56
626.225	35.79
626.416	35.91
626.607	35.87
626.798	35.88
626.988	35.51
627.179	35.47
627.37	35.42
627.56	35.34
627.751	35.02
627.942	35.07
628.132	34.93
628.323	34.73
628.514	34.7
628.704	34.81
628.895	34.93
629.085	35.33
629.276	35.33
629.466	35.24
629.657	35.55
629.847	35.96
630.038	36.16
630.228	36.26
630.419	36.28
630.609	36.29
630.8	36.23
630.99	36.13
631.181	35.89
631.371	35.67
631.561	35.94
631.752	35.61
631.942	35.57
632.132	35.79
632.323	35.68
632.513	36.11
632.703	36.02
632.893	35.72
633.084	35.57
633.274	35.82
633.464	35.99
633.654	35.93
633.844	35.97
634.034	35.86
634.225	35.57
634.415	35.76
634.605	35.57
634.795	35.74
634.985	35.87
635.175	35.98
635.365	35.56
635.555	35.35
635.745	35.32
635.935	35.09
636.125	34.96
636.315	34.88
636.505	34.66
636.695	34.45
636.885	34
637.075	34.34
637.265	34.7
637.455	35.05
637.644	35.38
637.834	35.03
638.024	35.24
638.214	35.23
638.404	35.41
638.593	35.84
638.783	35.72
638.973	35.78
639.163	35.59
639.352	35.63
639.542	35.51
639.732	35.33
639.921	35.56
640.111	35.63
640.301	35.7
640.49	35.7
640.68	35.6
640.87	35.76
641.059	36.21
641.249	36.16
641.438	35.48
641.628	35.42
641.817	35.15
642.007	35.14
642.196	35.28
642.386	35.15
642.575	35.4
642.764	35.32
642.954	35.47
643.143	35.54
643.333	35.81
643.522	36.37
643.711	36.4
643.901	36.94
644.09	36.79
644.279	36.51
644.469	36.89
644.658	36.35
644.847	36.59
645.036	36.85
645.226	36.66
645.415	36.29
645.604	36.48
645.793	36.14
645.982	36.26
646.171	36.72
646.361	36.54
646.55	36.62
646.739	36.74
646.928	36.51
647.117	35.83
647.306	35.49
647.495	35.58
647.684	35.07
647.873	35.7
648.062	35.63
648.251	35.26
648.44	35.82
648.629	35.77
648.818	35.47
649.007	35.08
649.196	35.34
649.384	35.73
649.573	35.8
649.762	36.4
649.951	36.13
650.14	35.85
650.328	36.11
650.517	36.23
650.706	36.29
650.895	36.57
651.083	36.64
651.272	36.44
651.461	36.08
651.65	36.36
651.838	35.76
652.027	35.43
652.216	35.31
652.404	35.4
652.593	35.2
652.781	35.19
652.97	35.25
653.158	35.42
653.347	35.84
653.535	36.01
653.724	35.76
653.912	36.26
654.101	36.52
654.289	37.08
654.478	36.61
654.666	36.59
654.855	36.37
655.043	35.93
655.231	35.66
655.42	35.66
655.608	36.14
655.796	35.94
655.985	35.72
656.173	36.07
656.361	35.85
656.55	36.28
656.738	36.34
656.926	36.48
657.114	36.63
657.302	36.98
657.491	37.14
657.679	36.5
657.867	36.59
658.055	36.53
658.243	36.22
658.431	35.96
658.619	35.98
658.807	35.97
658.996	35.61
659.184	35.91
659.372	35.74
659.56	35.44
659.748	35.41
659.936	35.4
660.124	35.4
660.311	35.13
660.499	34.9
660.687	34.55
660.875	34.33
661.063	34.5
661.251	34.26
661.439	34.52
661.627	34.71
661.814	35.03
662.002	35.22
662.19	35.14
662.378	35.31
662.565	35.46
662.753	35.78
662.941	35.68
663.129	35.68
663.316	36.24
663.504	35.63
663.692	35.42
663.879	35.04
664.067	34.94
664.254	35.31
664.442	35.68
664.63	35.88
664.817	36.13
665.005	36.07
665.192	36.61
665.38	36.63
665.567	37.11
665.755	37.1
665.942	37.68
666.13	37.9
666.317	37.57
666.504	37.22
666.692	37.37
666.879	37.09
667.067	37.3
667.254	36.78
667.441	36.4
667.629	36.45
667.816	36.47
668.003	36.33
668.19	35.58
668.378	35.91
668.565	36.07
668.752	36.13
668.939	36.04
669.127	36.28
669.314	36.61
669.501	36.62
669.688	36.83
669.875	37.03
670.062	36.97
670.249	37.48
670.436	37.14
670.623	37.02
670.81	36.89
670.997	37.18
671.184	37.15
671.371	37.03
671.558	36.87
671.745	36.84
671.932	36.68
672.119	36.59
672.306	36.45
672.493	36.61
672.68	36.41
672.867	36.16
673.054	35.58
673.24	35.22
673.427	35.29
673.614	35.54
673.801	35.68
673.988	35.79
674.174	35.61
674.361	35.78
674.548	36.01
674.734	36.11
674.921	36.48
675.108	36.64
675.294	36.75
675.481	36.45
675.668	36.5
675.854	35.91
676.041	35.46
676.227	35.16
676.414	34.68
676.601	34.44
676.787	34.36
676.974	33.91
677.16	34.2
677.347	34.33
677.533	34.79
677.719	34.86
677.906	34.58
678.092	35.03
678.279	35.91
678.465	36.14
678.651	36.01
678.838	36.01
679.024	36.19
679.21	35.74
679.397	35.54
679.583	35.3
679.769	35.19
679.955	35.08
680.142	34.73
680.328	34.39
680.514	34.47
680.7	34.94
680.886	35.3
681.073	35.38
681.259	35.85
681.445	36.17
681.631	36.05
681.817	36.05
682.003	36.31
682.189	36.51
682.375	36.28
682.561	36.61
682.747	36.11
682.933	35.84
683.119	35.8
683.305	35.41
683.491	34.92
683.677	34.87
683.863	34.57
684.049	35.07
684.235	35.48
684.42	35.92
684.606	35.8
684.792	35.93
684.978	36.06
685.164	36.15
685.349	36.42
685.535	36.55
685.721	36.87
685.907	36.8
686.092	36.43
686.278	36.01
686.464	35.93
686.649	35.51
686.835	35.46
687.021	35.62
687.206	35.96
687.392	35.87
687.577	35.9
687.763	35.78
687.948	36.24
688.134	36.32
688.319	36.07
688.505	35.93
688.69	36.27
688.876	35.86
689.061	35.62
689.247	35.26
689.432	35.34
689.618	35.56
689.803	35.82
689.988	35.89
690.174	36.15
690.359	36.28
690.544	35.94
690.73	35.79
690.915	36.68
691.1	36.73
691.285	37.23
691.471	37.67
691.656	37.49
691.841	37.58
692.026	36.94
692.211	36.64
692.396	37
692.582	37.52
692.767	37.66
692.952	37.27
693.137	37.56
693.322	36.71
693.507	35.92
693.692	35.86
693.877	35.7
694.062	36.3
694.247	35.77
694.432	35.78
694.617	35.68
694.802	35.62
694.987	35.63
695.172	35.13
695.357	35.73
695.541	35.65
695.726	36.44
695.911	36.4
696.096	36.71
696.281	36.73
696.466	36.36
696.65	36.04
696.835	35.9
697.02	36.28
697.204	36.51
697.389	36.48
697.574	36.89
697.759	36.06
697.943	35.51
698.128	35.23
698.312	35.51
698.497	35.72
698.682	35.83
698.866	35.82
699.051	35.36
699.235	35
699.42	34.77
699.604	34.68
699.789	34.74
699.973	35.46
700.158	35.33
700.342	35.81
700.527	35.74
700.711	36.11
700.895	36.33
701.08	36.52
701.264	36.86
701.448	36.62
701.633	36.62
701.817	36.8
702.001	36.04
702.186	36.12
702.37	35.8
702.554	35.05
702.738	34.51
702.923	34.09
703.107	34.66
703.291	34.62
703.475	35
703.659	34.85
703.843	35.13
704.027	35.56
704.212	35.4
704.396	35.23
704.58	35.94
704.764	36.42
704.948	36.43
705.132	35.61
705.316	35.81
705.5	36.26
705.684	35.96
705.868	35.77
706.052	35.52
706.235	35.49
706.419	35.62
706.603	35.55
706.787	34.98
706.971	34.72
707.155	34.88
707.339	34.61
707.522	34
707.706	34.43
707.89	34.33
708.074	34.55
708.257	35.01
708.441	34.78
708.625	35.22
708.808	35.71
708.992	36.35
709.176	36.84
709.359	37.13
709.543	37.5
709.727	37.08
709.91	36.92
710.094	37.04
710.277	37.07
710.461	37.57
710.644	37.69
710.828	37.6
711.011	37.72
711.195	37.36
711.378	37.45
711.562	37.91
711.745	38.01
711.928	37.9
712.112	37.54
712.295	37.12
712.478	36.57
712.662	36.24
712.845	36.08
713.028	36.44
713.212	36.38
713.395	35.89
713.578	35.82
713.761	36.16
713.945	36.38
714.128	36.8
714.311	36.51
714.494	36.62
714.677	36.54
714.86	36.53
715.043	35.53
715.227	35.26
715.41	35.15
715.593	34.91
715.776	34.4
715.959	34.13
716.142	34.23
716.325	34.86
716.508	34.31
716.691	34.68
716.874	34.68
717.057	34.79
717.239	35.08
717.422	35.82
717.605	35.45
717.788	35.27
717.971	34.99
718.154	34.17
718.337	33.61
718.519	34.3
718.702	33.46
718.885	33.97
719.068	33.83
719.25	33.51
719.433	33.08
719.616	32.5
719.798	33.56
719.981	33.46
720.164	33.63
720.346	34.45
720.529	34.17
720.712	34
720.894	32.71
721.077	33.21
721.259	33.61
721.442	34.09
721.624	34.65
721.807	34.29
721.989	35.55
722.172	35.69
722.354	35.02
722.537	34.94
722.719	35.8
722.901	35.58
723.084	35.28
723.266	34.68
723.448	34.45
723.631	34.28
723.813	34.65
723.995	33.98
724.178	34
724.36	34.53
724.542	35.03
724.724	34.45
724.907	35.05
725.089	34.9
725.271	35.47
725.453	35.59
725.635	35.65
725.817	34.93
725.999	35.68
726.181	35.08
726.364	35.36
726.546	35.84
726.728	37.12
726.91	37.13
727.092	36.82
727.274	36.59
727.456	35.93
727.638	35.89
727.819	35.99
728.001	34.64
728.183	35.55
728.365	35.63
728.547	35.24
728.729	34.78
728.911	35.55
729.093	35.6
729.274	36.05
729.456	36.73
729.638	37.12
729.82	37.27
730.001	38.05
730.183	37.93
730.365	37.97
730.546	37.83
730.728	38.36
730.91	38.38
731.091	39.41
731.273	39.74
731.455	38.93
731.636	38.66
731.818	39.41
731.999	39.54
732.181	39.67
732.362	39.05
732.544	38.29
732.725	37.42
732.907	36.93
733.088	36.34
733.27	36.18
733.451	36.47
733.633	36.08
733.814	35.59
733.995	35.09
734.177	34.29
734.358	33.83
734.539	35.45
734.721	35.26
734.902	35.02
735.083	34.65
735.264	34.15
735.446	34.44
735.627	34.46
735.808	34.53
735.989	34.82
736.17	34.99
736.351	36.11
736.533	35.6
736.714	36.3
736.895	36.7
737.076	37.5
737.257	38.02
737.438	38.05
737.619	38.49
737.8	37.62
737.981	37.31
738.162	37.04
738.343	36.21
738.524	35.96
738.705	35.91
738.886	36.03
739.067	36.38
739.247	35.78
739.428	35.51
739.609	35.36
739.79	36.6
739.971	37.07
740.151	38.3
740.332	39.44
740.513	39.65
740.694	38.42
740.874	38.28
741.055	37.28
741.236	37.42
741.417	36.66
741.597	36.36
741.778	36.14
741.958	36.14
742.139	35.11
742.32	34.37
742.5	34.28
742.681	35.3
742.861	34.75
743.042	35.16
743.222	33.86
743.403	35.64
743.583	36.18
743.764	34.78
743.944	34.08
744.124	34.97
744.305	34.8
744.485	34.84
744.666	34.23
744.846	34.24
745.026	34.81
745.207	36.45
745.387	35.53
745.567	36.35
745.747	37.59
745.928	38.81
746.108	38.11
746.288	38.01
746.468	36.23
746.648	36.63
746.829	36.52
747.009	36.02
747.189	35.65
747.369	35.36
747.549	33.84
747.729	33.67
747.909	32.47
748.089	32.27
748.269	33.2
748.449	34.9
748.629	35.62
748.809	34.94
748.989	35.58
749.169	35.29
749.349	35.37
749.529	35.04
749.709	35.91
749.889	36.4
750.068	36.49
750.248	35.86
750.428	35.93
750.608	34.62
750.788	35.53
750.967	34.89
751.147	35.54
751.327	35.9
751.507	35.78
751.686	35.71
751.866	35.67
752.046	35.36
752.225	35.31
752.405	34.72
752.585	35.96
752.764	36.73
752.944	37.58
753.123	37.19
753.303	36.66
753.482	37.74
753.662	36.9
753.841	36.77
754.021	35.94
754.2	34.56
754.38	34.79
754.559	34.11
754.739	32.38
754.918	29.81
755.097	29.99
755.277	30.31
755.456	30.84
755.635	30.93
755.815	31.61
755.994	32.19
756.173	33.31
756.352	33.87
756.532	33.14
756.711	33.81
756.89	34.81
757.069	34.93
757.248	34.88
757.427	33.68
757.607	33.22
757.786	32.65
757.965	34.03
758.144	34.69
758.323	34.25
758.502	35.87
758.681	37.43
758.86	37.23
759.039	36.24
759.218	36.51
759.397	37.31
759.576	36.86
759.755	37.07
759.934	36.63
760.113	37.07
760.291	36.12
760.47	35.73
760.649	34.2
760.828	35.5
761.007	37.28
761.186	36.8
761.364	36.68
761.543	37.13
761.722	36.83
761.901	37.34
762.079	37.26
762.258	38.05
762.437	37.22
762.615	37.07
762.794	36.86
762.972	35.92
763.151	35.27
763.33	34.96
763.508	34.61
763.687	34.98
763.865	34.92
764.044	34.13
764.222	33.71
764.401	33.92
764.579	34.25
764.758	33.94
764.936	33.4
765.114	33.8
765.293	33.82
765.471	34.69
765.65	34.12
765.828	33.83
766.006	34.3
766.184	34.52
766.363	34.1
766.541	33.17
766.719	33.23
766.898	34.33
767.076	34.9
767.254	35.48
767.432	34.76
767.61	35.23
767.788	34.66
767.967	34.55
768.145	33.81
768.323	32.65
768.501	33.62
768.679	31.98
768.857	31.16
769.035	30.64
769.213	29.37
769.391	29.72
769.569	28.69
769.747	28.48
769.925	27.12
770.103	27.99
770.281	30.41
770.459	30.62
770.636	33.02
770.814	32.47
770.992	33.21
771.17	32.99
771.348	33.85
771.525	34.15
771.703	34.92
771.881	35.45
772.059	35.78
772.236	35.87
772.414	35.83
772.592	34.68
772.769	35.18
772.947	35.46
773.125	38.54
773.302	36.16
773.48	36.49
773.657	36.27
773.835	37.8
774.013	37.79
774.19	36.29
774.368	36.83
774.545	37.26
774.723	36.93
774.9	35.96
775.077	35.45
775.255	36.61
775.432	37.21
775.61	38.65
775.787	38.49
775.964	38.26
776.142	38.06
776.319	37.37
776.496	36.66
776.674	36.49
776.851	36.47
777.028	34.61
777.205	34.71
777.382	34.53
777.56	32.24
777.737	31.95
777.914	31.62
778.091	33.53
778.268	33.38
778.445	33.78
778.622	34.59
778.8	35.32
778.977	36.82
779.154	37.02
779.331	37.07
779.508	38.85
779.685	38.17
779.862	37.77
780.038	38.02
780.215	37.85
780.392	39.4
780.569	38.58
780.746	37.85
780.923	37.54
781.1	37.28
781.277	36.1
781.453	32.56
781.63	32.14
781.807	33.01
781.984	32.56
782.16	33.64
782.337	32.66
782.514	32.94
782.691	33.27
782.867	32.34
783.044	32.58
783.221	33.29
783.397	35.95
783.574	35.7
783.75	37.21
783.927	37.51
784.103	36.52
784.28	37.06
784.456	37.93
784.633	38.1
784.809	38.51
784.986	38.45
785.162	39.52
785.339	37.85
785.515	37.35
785.692	34.81
785.868	34.36
786.044	34.63
786.221	34.44
786.397	35.38
786.573	36.75
786.749	34.23
786.926	34.05
787.102	35.04
787.278	35.5
787.454	36.33
787.631	36.64
787.807	35.89
787.983	36.27
788.159	35.32
788.335	34.8
788.511	32.07
788.687	33
788.863	34.77
789.039	34.28
789.216	35.74
789.392	35.78
789.568	36.76
789.744	37.86
789.919	36.89
790.095	35.87
790.271	35.94
790.447	38.4
790.623	36.28
790.799	35.01
790.975	36.04
791.151	36.63
791.327	37.48
791.502	37.63
791.678	35.76
791.854	34.96
792.03	37.78
792.205	36.51
792.381	34.02
792.557	39.74
792.733	37.9
792.908	35.61
793.084	35.43
793.259	34.21
793.435	32.83
793.611	32.77
793.786	36.54
793.962	32.27
794.137	32.98
794.313	32.09
794.488	28.96
794.664	29.42
794.839	31.83
795.015	32.04
795.19	32.63
795.366	34.68
795.541	35.39
795.716	35.74
795.892	36.23
796.067	35.07
796.242	36.71
796.418	37.69
796.593	39.34
796.768	37.81
796.944	36.67
797.119	36.05
797.294	33.78
797.469	33.59
797.644	30.55
797.82	32.68
797.995	33.37
798.17	34.57
798.345	34.15
798.52	31.78
798.695	33.66
798.87	31.14
799.045	29.19
799.22	29.78
799.395	31.15
799.57	30.18
799.745	29
799.92	29.08
800.095	27.08
800.27	28.79
800.445	27.09
800.62	24.44
800.795	26.56
800.97	28.97
801.145	27.7
801.319	28.51
801.494	30.84
801.669	31.3
801.844	32.56
802.018	33.74
802.193	32.54
802.368	34.64
802.543	36.1
802.717	36.95
802.892	35.53
803.067	36.5
803.241	36.34
803.416	34.99
803.59	34.16
803.765	32.72
803.94	31.33
804.114	27.89
804.289	29.29
804.463	27.36
804.638	26.51
804.812	26.5
804.986	27.64
805.161	26.35
805.335	28.43
805.51	28.28
805.684	30.54
805.858	30.59
806.033	33.45
806.207	34.54
806.381	34.59
806.556	33.46
806.73	33.32
806.904	31.26
807.078	34.76
807.253	32.7
807.427	32.39
807.601	30.6
807.775	30.71
807.949	31.09
808.123	31.67
808.298	32.2
808.472	32.65
808.646	35.31
808.82	36.79
808.994	34.43
809.168	35.13
809.342	37.51
809.516	36.48
809.69	36.49
809.864	33.93
810.038	29.75
810.212	30.94
810.385	34.18
810.559	32.67
810.733	31.68
810.907	31.57
811.081	33.72
811.255	33.01
811.428	31.83
811.602	31.89
811.776	33.59
811.95	35.79
812.123	35.08
812.297	32.15
812.471	32.76
812.644	34.05
812.818	34.01
812.992	30.94
813.165	30.36
813.339	34.4
813.512	38.42
813.686	38.51
813.86	37.27
814.033	38.41
814.207	37.79
814.38	40.09
814.554	40.95
814.727	40.53
814.9	42.94
815.074	47.14
815.247	43.92
815.421	37.83
815.594	38.66
815.767	40.28
815.941	36.8
816.114	36.18
816.287	35.07
816.46	32.1
816.634	32.01
816.807	30.02
816.98	27.01
817.153	30.65
817.327	33.29
817.5	32.85
817.673	34.8
817.846	36.39
818.019	37.63
818.192	38.77
818.365	38.81
818.538	39.15
818.711	40.87
818.884	37.31
819.057	35.7
819.23	33.6
819.403	37.25
819.576	33.15
819.749	32.62
819.922	32.38
820.095	30.05
820.268	33.67
820.441	33.36
820.614	34.51
820.786	36.74
820.959	36.28
821.132	38.82
821.305	37.56
821.477	38.09
821.65	37.91
821.823	38.38
821.996	38.6
822.168	37.26
822.341	35.93
822.514	35.2
822.686	34.88
822.859	35.48
823.031	34.89
823.204	34.71
823.376	34.61
823.549	34.6
823.722	34.29
823.894	33.79
824.067	34.49
824.239	34.51
824.411	34.38
824.584	34.58
824.756	33.98
824.929	33.52
825.101	33.02
825.273	33.13
825.446	33.71
825.618	34.12
825.79	34.15
825.963	33.64
826.135	34.28
826.307	34.12
826.479	33.39
826.652	33.4
826.824	33.98
826.996	33.76
827.168	34.11
827.34	33.76
827.512	33.37
827.684	34.56
827.856	33.96
828.029	34.45
828.201	34.58
828.373	35.17
828.545	34.24
828.717	34.21
828.889	34.93
829.061	33.72
829.232	34.75
829.404	34.01
829.576	33.17
829.748	33.23
829.92	32.96
830.092	32.73
830.264	32.95
830.436	34.48
830.607	35.23
830.779	34.9
830.951	35.62
831.123	33.68
831.294	34.13
831.466	34.39
831.638	36.31
831.809	37.34
831.981	37.6
832.153	38
832.324	40.37
832.496	39.07
832.667	41.23
832.839	39.39
833.011	40.43
833.182	40.3
833.354	39.03
833.525	36.18
833.697	36.96
833.868	38.97
834.039	37.36
834.211	34.25
834.382	34.87
834.554	34.47
834.725	37.93
834.896	36.66
835.068	37.58
835.239	37.83
835.41	40.11
835.581	38.18
835.753	36.19
835.924	36.88
836.095	38.08
836.266	36.57
836.438	35.87
836.609	33.1
836.78	33.81
836.951	33.52
837.122	33.89
837.293	32.84
837.464	33.54
837.635	33.01
837.806	33.69
837.977	33.35
838.148	34.73
838.319	34.8
838.49	34.9
838.661	34.34
838.832	35.02
839.003	32.06
839.174	34.05
839.345	31.94
839.516	33.4
839.687	30.2
839.857	28.5
840.028	28.06
840.199	30.02
840.37	30.38
840.54	30.44
840.711	25.5
840.882	27.5
841.053	23.28
841.223	26.04
841.394	26.63
841.564	26.48
841.735	24.24
841.906	26.38
842.076	24.15
842.247	25.61
842.417	23.01
842.588	25.89
842.758	28.28
842.929	26.61
843.099	21.7
843.27	22.12
843.44	22.81
843.611	29.29
843.781	29.06
843.951	25.17
844.122	26.48
844.292	27.66
844.462	31
844.633	29.23
844.803	28.17
844.973	30.3
845.144	30.68
845.314	23.35
845.484	11.58
845.654	12.19
845.824	15.21
845.995	12.61
846.165	17.4
846.335	13.48
846.505	10.3
846.675	14.33
846.845	22.86
847.015	16.67
847.185	23.23
847.355	39.37
847.525	36.83
847.695	34.56
847.865	35.53
848.035	27.54
848.205	22.74
848.375	20.11
848.545	23.12
848.715	16.2
848.884	24.71
849.054	26.7
849.224	20.73
849.394	26.07
849.564	24.88
849.733	23.36
849.903	24.93
850.073	27.26
850.243	30.58
850.412	27.68
850.582	27.59
850.752	20.54
850.921	19.81
851.091	17.5
851.26	10.24
851.43	9.08
851.599	7.42
851.769	1.28
851.939	8.28
852.108	5.78
852.278	3.62
852.447	5.89
852.616	9.26
852.786	13.36
852.955	16.93
853.125	22.48
853.294	24.16
853.463	22.82
853.633	27.04
853.802	24.18
853.971	28.31
854.141	22.21
854.31	23.84
854.479	15.14
854.648	8.1
854.818	12.13
854.987	11.93
855.156	15.38
855.325	17.43
855.494	19.89
855.663	21.3
855.832	23.95
856.001	29.06
856.171	26.25
856.34	24.83
856.509	30.29
856.678	30.97
856.847	27.69
857.016	25.95
857.185	25.26
857.353	25.02
857.522	21.37
857.691	15.25
857.86	16.73
858.029	26.68
858.198	45.23
858.367	42.81
858.535	34.4
858.704	28.52
858.873	29.64
859.042	36.93
859.21	45
859.379	42.2
859.548	45.53
859.717	41.75
859.885	35.81
860.054	30.1
860.222	36.27
860.391	36.31
860.56	47.27
860.728	44.84
860.897	43.46
861.065	43.01
861.234	49.4
861.402	50.01
861.571	56.34
861.739	53.07
861.908	49.77
862.076	45.26
862.244	51.73
862.413	45.47
862.581	52.18
862.749	48.8
862.918	48.29
863.086	45.32
863.254	40.03
863.423	31.14
863.591	33.79
863.759	36.34
863.927	33.15
864.096	38.23
864.264	33.6
864.432	33.15
864.6	33.28
864.768	21.95
864.936	16.93
865.104	16.42
865.272	14.46
865.44	14.27
865.608	13.49
865.776	10.67
865.944	-0.63
866.112	9.16
866.28	9.74
866.448	9.62
866.616	15.9
866.784	22.88
866.952	18.07
867.12	15.43
867.288	10.59
867.455	12.34
867.623	13.2
867.791	16.69
867.959	17.43
868.127	9.38
868.294	17.14
868.462	15.28
868.63	5.09
868.797	27.49
868.965	23.77
869.133	32.76
869.3	35.71
869.468	37.23
869.636	42.35
869.803	37.67
869.971	49.77
870.138	43.51
870.306	40.18
870.473	37.39
870.641	29.86
870.808	33.95
870.975	33.27
871.143	28.47
871.31	31.83
871.478	27.17
871.645	27.98
871.812	15.95
871.98	21.03
872.147	28.14
872.314	36.67
872.482	36.52
872.649	35.79
872.816	36.94
872.983	40.11
873.15	43.24
873.318	37.72
873.485	46.97
873.652	54.77
873.819	50.91
873.986	44.56
874.153	38.82
874.32	40.98
874.487	41.07
874.654	40.78
874.821	45.32
874.988	45.93
875.155	49.28
875.322	41.38
875.489	39.38
875.656	39.31
875.823	42.35
875.99	50.86
876.157	56.51
876.324	58.23
876.49	58.46
876.657	54.72
876.824	52.38
876.991	45.76
877.157	52.39
877.324	43.35
877.491	35.23
877.658	31.63
877.824	12.88
877.991	9.18
878.157	9.19
878.324	-0.72
878.491	-8.07
878.657	-0.64
878.824	9.15
878.99	-3.2
879.157	11.74
879.323	19.83
879.49	22.89
879.656	31.55
879.823	25.53
879.989	22.85
880.156	26.33
880.322	28.93
880.488	33.43
880.655	31.6
880.821	31.55
880.987	27.17
881.154	26.93
881.32	28.43
881.486	31.45
881.652	35.64
881.819	36.07
881.985	34.04
882.151	33.38
882.317	31.84
882.483	31.5
882.649	34.46
882.816	35.49
882.982	34.55
883.148	33.9
883.314	35.28
883.48	35.08
883.646	34.49
883.812	34.62
883.978	36.12
884.144	35.68
884.31	37.66
884.476	37.29
884.642	36.72
884.807	37.26
884.973	36.91
885.139	35.21
885.305	35.15
885.471	35.16
885.637	35.63
885.802	34.45
885.968	34.22
886.134	30.77
886.3	32.02
886.465	32.73
886.631	30.69
886.797	31.44
886.962	33.03
887.128	31.88
887.293	34.1
887.459	35.13
887.625	35.43
887.79	37.18
887.956	35.15
888.121	31.53
888.287	31.3
888.452	35.12
888.618	34.76
888.783	27.53
