Data from CB_096_Reflection_1.txt Node
Date: Sat Nov 14 17:30:04 EST 2015
User: robert
Spectrometer: USB4E03001
Autoset integration time: false
Trigger mode: 4
Integration Time (sec): 1.000000E-1
Scans to average: 15
Electric dark correction enabled: true
Nonlinearity correction enabled: false
Boxcar width: 5
Stray light correction enabled: false
XAxis mode: Wavelengths
Stop averaging: false
Number of Pixels in Spectrum: 3648
>>>>>Begin Spectral Data<<<<<
177.566	62.86
177.785	-209.85
178.005	91.37
178.225	42.37
178.445	-196.84
178.665	166.39
178.885	1352.58
179.105	7.51
179.324	-64.49
179.544	17.46
179.764	57.47
179.984	44.31
180.204	55.34
180.423	43.08
180.643	46.33
180.863	60.09
181.083	56.3
181.302	74.88
181.522	73.12
181.742	81.96
181.961	51.69
182.181	12.77
182.401	-62.18
182.621	-13.08
182.84	10.58
183.06	-4.3
183.279	-15.72
183.499	-36
183.719	-138.66
183.938	-90.84
184.158	-90.85
184.377	-33.77
184.597	-41.8
184.816	13.61
185.036	9.68
185.256	7.14
185.475	11.31
185.695	24.8
185.914	27.86
186.134	44.51
186.353	53.92
186.572	46.63
186.792	59.81
187.011	66.22
187.231	70.27
187.45	73.49
187.67	72.08
187.889	87.27
188.108	86.23
188.328	84.82
188.547	84.37
188.766	81.59
188.986	80.46
189.205	82.23
189.424	73.21
189.644	66.75
189.863	71.97
190.082	61.68
190.302	29.69
190.521	31.49
190.74	63.91
190.959	41.52
191.178	32.87
191.398	47.73
191.617	45.5
191.836	41.47
192.055	55.84
192.274	59.88
192.494	95.09
192.713	211.93
192.932	244.83
193.151	166.57
193.37	148.29
193.589	174.55
193.808	254.7
194.027	360.53
194.246	-1387.97
194.465	2150
194.685	174.13
194.904	152.29
195.123	75.9
195.342	92.26
195.561	89.99
195.78	86.46
195.999	78.52
196.218	63.49
196.436	68.25
196.655	56.43
196.874	49.58
197.093	44.16
197.312	42.81
197.531	61.17
197.75	60.11
197.969	64.86
198.188	73.22
198.407	80.53
198.625	99.17
198.844	105.51
199.063	92.02
199.282	105.42
199.501	111.83
199.719	112.7
199.938	94.54
200.157	87.32
200.376	73.17
200.594	71.04
200.813	70.18
201.032	52.16
201.251	39.51
201.469	43.5
201.688	54.24
201.907	55.21
202.125	45.47
202.344	41.53
202.563	31.08
202.781	46.98
203	60.15
203.218	90.71
203.437	83.03
203.656	81.47
203.874	62.69
204.093	41.89
204.311	72.37
204.53	87.11
204.748	77.87
204.967	103.89
205.185	122.12
205.404	95.28
205.622	79.55
205.841	85.43
206.059	81.77
206.278	74.39
206.496	59.1
206.715	67.71
206.933	67.22
207.151	66.67
207.37	44.32
207.588	40.65
207.806	46.09
208.025	43.27
208.243	45.87
208.461	62.74
208.68	59.04
208.898	68.88
209.116	63.43
209.335	58.78
209.553	67.63
209.771	79.93
209.989	71.08
210.208	76.2
210.426	73.67
210.644	77.49
210.862	59.63
211.081	55.53
211.299	54.72
211.517	54.67
211.735	47.41
211.953	40.08
212.171	43.98
212.39	47.72
212.608	53.63
212.826	50.32
213.044	41
213.262	45.67
213.48	57.22
213.698	62.5
213.916	68.66
214.134	71.01
214.352	73.74
214.57	64.95
214.788	66.76
215.006	51.85
215.224	65.36
215.442	96.63
215.66	84.78
215.878	80.29
216.096	67.27
216.314	81.36
216.532	88.06
216.75	104.16
216.968	120.04
217.185	126.33
217.403	161.13
217.621	171.87
217.839	116.06
218.057	137.34
218.275	134.78
218.492	171.2
218.71	190.51
218.928	169.04
219.146	196.61
219.363	118.6
219.581	138.75
219.799	121.05
220.017	112.95
220.234	115.15
220.452	116.15
220.67	116.36
220.887	178.78
221.105	150.35
221.323	1954.6
221.54	120.45
221.758	812.86
221.976	62.24
222.193	57.45
222.411	43.1
222.629	30.01
222.846	199.02
223.064	-163.51
223.281	253.25
223.499	46.93
223.716	68.04
223.934	-87.55
224.151	22.44
224.369	-10.69
224.586	-13.69
224.804	1.69
225.021	4.48
225.239	-6.91
225.456	-21.11
225.674	11.81
225.891	-0.01
226.108	-53.37
226.326	-60.48
226.543	-27.3
226.76	-15.95
226.978	7.2
227.195	4.68
227.413	4.6
227.63	17.54
227.847	17.34
228.064	17.53
228.282	11.41
228.499	17.69
228.716	20.01
228.934	13.18
229.151	12.91
229.368	10.78
229.585	7.14
229.802	7.84
230.02	6.29
230.237	4.87
230.454	3.17
230.671	4.39
230.888	2.29
231.105	-3.43
231.323	-5.04
231.54	-10.19
231.757	-15.42
231.974	-14.82
232.191	-19.54
232.408	-21.5
232.625	-13.75
232.842	-16.97
233.059	-19.79
233.276	-17.02
233.493	-10.09
233.71	0.21
233.927	9.68
234.144	10.08
234.361	1.58
234.578	0.07
234.795	3.37
235.012	-2.29
235.229	-3
235.446	-1.44
235.663	1.46
235.879	-2.29
236.096	-5.52
236.313	-8.16
236.53	-6.09
236.747	-4.6
236.964	-9.54
237.181	-15.65
237.397	-19.29
237.614	-21.99
237.831	-21.07
238.048	-25.76
238.264	-37.44
238.481	-45.84
238.698	-33.33
238.915	-30.06
239.131	-31.42
239.348	-25.11
239.565	-21.67
239.781	-12.59
239.998	-7.52
240.215	-4.71
240.431	-5.54
240.648	4.61
240.865	8.75
241.081	6.34
241.298	5.74
241.514	7.98
241.731	8.96
241.947	8.58
242.164	7.32
242.38	9.03
242.597	7.82
242.814	10.27
243.03	8.83
243.246	9.63
243.463	9.74
243.679	9.49
243.896	9.83
244.112	8.06
244.329	8.44
244.545	9.92
244.762	9.4
244.978	12.42
245.194	9.73
245.411	6.78
245.627	7.35
245.843	6.48
246.06	5.96
246.276	6.77
246.492	8.22
246.709	7.79
246.925	7.56
247.141	6.89
247.357	5.69
247.574	6.44
247.79	7.42
248.006	7.33
248.222	6.72
248.439	6.29
248.655	5.16
248.871	4.74
249.087	5.48
249.303	5.51
249.519	5.08
249.736	5.33
249.952	3.96
250.168	6.09
250.384	4.49
250.6	7.28
250.816	7.71
251.032	9.93
251.248	9.33
251.464	6.41
251.68	5.69
251.896	5.95
252.112	3.26
252.328	3.63
252.544	0.21
252.76	-0.91
252.976	-3.62
253.192	-3.91
253.408	-4.85
253.624	-2.92
253.84	-0.51
254.056	-1.12
254.272	-1.17
254.487	-0.59
254.703	0.08
254.919	0.05
255.135	3.34
255.351	4.52
255.567	9.15
255.782	11.45
255.998	11
256.214	7.98
256.43	11.79
256.646	11.48
256.861	14.61
257.077	13.64
257.293	14.68
257.508	14.57
257.724	11.77
257.94	11.7
258.155	9.59
258.371	6.95
258.587	7.51
258.802	6.22
259.018	6.21
259.234	6.33
259.449	6.2
259.665	6.61
259.88	6.34
260.096	7.3
260.312	6.97
260.527	7.66
260.743	7.91
260.958	8.28
261.174	7.94
261.389	7.78
261.605	7.18
261.82	6.89
262.036	6.29
262.251	5.85
262.466	6.1
262.682	6.22
262.897	4.27
263.113	4.05
263.328	4.72
263.543	4.09
263.759	3.25
263.974	3.38
264.189	2.97
264.405	2.77
264.62	3.71
264.835	4.38
265.051	3.72
265.266	5.24
265.481	6.95
265.696	6.76
265.912	7.36
266.127	8.43
266.342	9.09
266.557	9.54
266.773	8.84
266.988	7.8
267.203	7.39
267.418	7.39
267.633	7.78
267.848	6.03
268.064	5.52
268.279	5.66
268.494	5.48
268.709	5.37
268.924	6.48
269.139	5.22
269.354	5.81
269.569	6.1
269.784	5.05
269.999	3.6
270.214	4.49
270.429	4.15
270.644	4.51
270.859	5.04
271.074	4.59
271.289	2.93
271.504	5.76
271.719	7.06
271.934	4.98
272.149	6.8
272.363	7.49
272.578	8.99
272.793	8.31
273.008	6.88
273.223	7.14
273.438	6.59
273.653	8.5
273.867	6.73
274.082	5.13
274.297	5.67
274.512	3.78
274.726	2.72
274.941	1.08
275.156	1.08
275.371	3.09
275.585	1.38
275.8	2.27
276.015	0.43
276.229	1.72
276.444	1.76
276.659	2.47
276.873	3
277.088	4.23
277.302	4.33
277.517	5.95
277.732	5.03
277.946	5.67
278.161	5.49
278.375	5.25
278.59	6.42
278.804	5.75
279.019	5.61
279.233	5.05
279.448	4.86
279.662	4.66
279.877	4.03
280.091	5.71
280.306	5.96
280.52	6.13
280.735	5.87
280.949	5.02
281.163	6.31
281.378	6.45
281.592	8.22
281.806	8.44
282.021	8.74
282.235	8.43
282.449	7.25
282.664	7.69
282.878	6.8
283.092	7.46
283.307	5.94
283.521	5.18
283.735	4.78
283.949	3.34
284.164	2.97
284.378	3.72
284.592	4.76
284.806	4.89
285.02	5.34
285.234	6.19
285.449	7.69
285.663	8.75
285.877	9.03
286.091	8.73
286.305	9.24
286.519	9.08
286.733	7.72
286.947	7.56
287.161	7.41
287.375	6.93
287.589	7.47
287.803	6.19
288.017	6.16
288.231	6.03
288.445	6.25
288.659	6
288.873	6.76
289.087	7.36
289.301	6.54
289.515	7.02
289.729	5.95
289.943	3.86
290.157	2.36
290.371	2.61
290.584	2.81
290.798	3.07
291.012	4.11
291.226	4.52
291.44	4.14
291.654	3.33
291.867	3.62
292.081	4.85
292.295	7.24
292.509	9.24
292.722	8.82
292.936	8.8
293.15	9.94
293.364	8.62
293.577	7.51
293.791	8.75
294.005	10.94
294.218	10.58
294.432	9.95
294.645	9.19
294.859	10.1
295.073	10.34
295.286	9.77
295.5	9.8
295.713	9.75
295.927	9.58
296.14	8.38
296.354	7.62
296.568	6.61
296.781	7.64
296.994	8.28
297.208	7.08
297.421	7.46
297.635	7.26
297.848	7.19
298.062	7.34
298.275	7.38
298.489	8.05
298.702	8.92
298.915	9.94
299.129	8.64
299.342	8.36
299.555	7.36
299.769	7.7
299.982	8.78
300.195	7.32
300.409	7.97
300.622	8.81
300.835	8.45
301.048	6.84
301.262	7.14
301.475	7.33
301.688	6.02
301.901	6.73
302.115	4.81
302.328	4.91
302.541	6.25
302.754	5.06
302.967	4.19
303.18	4.4
303.393	5.46
303.607	5.36
303.82	6.6
304.033	7.64
304.246	8.14
304.459	8.66
304.672	8.78
304.885	8.61
305.098	9.01
305.311	9.23
305.524	8.35
305.737	6.63
305.95	6.09
306.163	4.69
306.376	3.77
306.589	4.35
306.802	3.62
307.015	3.07
307.228	2.92
307.44	3.24
307.653	4.48
307.866	6.5
308.079	7.27
308.292	7.65
308.505	8.85
308.718	9.45
308.93	8.99
309.143	9.95
309.356	8.92
309.569	9.91
309.781	10.63
309.994	9.87
310.207	8.61
310.42	8.16
310.632	8.82
310.845	8
311.058	8.48
311.27	9.33
311.483	10.13
311.696	11.47
311.908	10.88
312.121	9.99
312.333	9.55
312.546	9.77
312.759	10.47
312.971	9.83
313.184	10.54
313.396	9.79
313.609	8.59
313.821	7.56
314.034	6.27
314.246	5.66
314.459	6.92
314.671	6.93
314.884	7.46
315.096	7.69
315.309	7.39
315.521	7.17
315.733	6.56
315.946	6.48
316.158	6.15
316.371	6.9
316.583	6.5
316.795	6.22
317.008	6.87
317.22	6.59
317.432	5.95
317.644	5.47
317.857	6.42
318.069	7.8
318.281	7.4
318.494	7.31
318.706	7.29
318.918	7.37
319.13	6.73
319.342	6.9
319.555	7.32
319.767	7.65
319.979	7.72
320.191	7.36
320.403	6.01
320.615	8.17
320.827	8.32
321.039	7.46
321.252	9.2
321.464	9.64
321.676	8.67
321.888	8.35
322.1	8.69
322.312	10.44
322.524	10.81
322.736	12.75
322.948	11.68
323.16	12.17
323.372	13.7
323.584	11.58
323.796	11.41
324.007	12.93
324.219	13.04
324.431	13.27
324.643	12.55
324.855	11.79
325.067	11.63
325.279	11.64
325.491	12.39
325.702	11.91
325.914	13.84
326.126	13.82
326.338	14.96
326.55	16.11
326.761	16.43
326.973	17.27
327.185	18.1
327.396	18.85
327.608	18.68
327.82	17.69
328.032	19.36
328.243	20.45
328.455	21.51
328.666	21.08
328.878	20.83
329.09	21.39
329.301	21.5
329.513	21.33
329.725	20.76
329.936	21.11
330.148	22.58
330.359	20.52
330.571	19.35
330.782	19.78
330.994	19.41
331.205	19.77
331.417	19.84
331.628	19.82
331.84	19.23
332.051	19.78
332.262	20.9
332.474	20.33
332.685	22.25
332.897	21.88
333.108	21.82
333.319	22.1
333.531	22
333.742	22.36
333.953	22.93
334.165	23.14
334.376	22.77
334.587	23.22
334.799	24.24
335.01	23.93
335.221	25.3
335.432	26.44
335.644	27.32
335.855	27.48
336.066	27.01
336.277	26.64
336.488	27
336.7	27.2
336.911	27.14
337.122	26.69
337.333	27.52
337.544	26.65
337.755	24.21
337.966	24.04
338.177	24.57
338.388	25.58
338.599	25.43
338.811	25.76
339.022	26.33
339.233	26.36
339.444	26.01
339.655	24.7
339.866	24.28
340.076	26.47
340.287	26
340.498	25.99
340.709	24.39
340.92	25.36
341.131	25.28
341.342	25.68
341.553	24.87
341.764	26.09
341.975	26.15
342.185	26.47
342.396	25.52
342.607	26.02
342.818	25.9
343.029	26.55
343.239	26.3
343.45	26.22
343.661	25.62
343.872	25.76
344.082	25.55
344.293	25.93
344.504	26.57
344.714	27.22
344.925	27.01
345.136	27.59
345.346	27.36
345.557	27.21
345.768	28.09
345.978	27.33
346.189	27.28
346.399	26.99
346.61	27.25
346.821	27.41
347.031	27.58
347.242	27.06
347.452	26.46
347.663	26.77
347.873	27.41
348.084	26.73
348.294	27.53
348.504	27.99
348.715	27.82
348.925	27.21
349.136	27.19
349.346	26.54
349.557	27
349.767	25.97
349.977	25.9
350.188	24.2
350.398	24.79
350.608	24.98
350.819	25.23
351.029	25.13
351.239	25.57
351.449	24.77
351.66	24.2
351.87	23.91
352.08	24.2
352.29	24.92
352.501	26.1
352.711	26.36
352.921	26.29
353.131	25.78
353.341	25.8
353.552	25.68
353.762	26.58
353.972	26.97
354.182	26.88
354.392	26.95
354.602	26.32
354.812	26.27
355.022	25.88
355.232	25.73
355.442	25.52
355.652	25.53
355.862	25.26
356.072	24.42
356.282	24.82
356.492	24.25
356.702	24.4
356.912	24.84
357.122	24.73
357.332	24.21
357.542	23.87
357.752	24.56
357.962	25.17
358.171	25.75
358.381	26.32
358.591	26.35
358.801	27.07
359.011	26.98
359.221	26.56
359.43	26.19
359.64	25.96
359.85	25.96
360.06	25.95
360.269	25.34
360.479	24.98
360.689	24.95
360.899	24.51
361.108	24.89
361.318	25.18
361.528	25.06
361.737	25.38
361.947	25.16
362.156	25.62
362.366	25.28
362.576	25.3
362.785	25.56
362.995	25.89
363.204	25.91
363.414	25.35
363.623	25.04
363.833	25.14
364.042	25.17
364.252	26.01
364.461	26
364.671	26.59
364.88	26.08
365.09	25.47
365.299	25.09
365.509	24.77
365.718	24.29
365.927	24.33
366.137	24.16
366.346	23.53
366.555	23.03
366.765	21.94
366.974	21.42
367.183	21.2
367.393	21.35
367.602	20.91
367.811	21.3
368.021	21.51
368.23	21.45
368.439	21.99
368.648	22.95
368.857	23.19
369.067	23.83
369.276	23.28
369.485	23.49
369.694	23.08
369.903	23.72
370.112	23.26
370.321	23.75
370.531	24.24
370.74	24.08
370.949	23.75
371.158	23.85
371.367	23.96
371.576	23.94
371.785	24.2
371.994	24.4
372.203	23.97
372.412	23.97
372.621	23.62
372.83	23.01
373.039	22.84
373.248	22.57
373.457	21.87
373.666	21.62
373.874	21.48
374.083	21.21
374.292	21.17
374.501	20.78
374.71	21.01
374.919	21.17
375.128	21.24
375.336	21.14
375.545	20.99
375.754	21.61
375.963	22
376.171	21.94
376.38	22.24
376.589	22.34
376.798	22.19
377.006	21.97
377.215	21.57
377.424	21.66
377.632	21.59
377.841	21.69
378.05	21.24
378.258	21.02
378.467	21.05
378.675	21.04
378.884	20.29
379.093	20.52
379.301	20.27
379.51	20.31
379.718	20.21
379.927	20.75
380.135	21.12
380.344	21.09
380.552	20.46
380.761	20.72
380.969	20.41
381.177	20.89
381.386	20.85
381.594	21.38
381.803	21.25
382.011	20.57
382.219	19.67
382.428	19.02
382.636	19.04
382.845	19.14
383.053	19.18
383.261	19.01
383.469	18.77
383.678	18.86
383.886	18.7
384.094	18.75
384.302	18.76
384.511	18.88
384.719	18.84
384.927	18.6
385.135	18.28
385.343	17.94
385.552	17.91
385.76	17.85
385.968	17.46
386.176	16.84
386.384	16.67
386.592	16.82
386.8	16.34
387.008	16.24
387.216	16.35
387.424	16.49
387.633	16.23
387.841	16.02
388.049	16.35
388.257	16.55
388.465	16.57
388.672	16.39
388.88	16.37
389.088	16.59
389.296	16.38
389.504	16.34
389.712	16.62
389.92	16.74
390.128	16.96
390.336	16.39
390.544	16.68
390.751	16.74
390.959	16.51
391.167	16.39
391.375	16.44
391.583	16.25
391.79	15.97
391.998	15.46
392.206	15.5
392.414	15.12
392.621	15
392.829	14.41
393.037	14.5
393.244	14.7
393.452	14.24
393.66	14.2
393.867	14.25
394.075	14.4
394.283	14.81
394.49	14.54
394.698	14.51
394.905	14.9
395.113	14.93
395.32	14.83
395.528	14.91
395.735	15.47
395.943	15.13
396.15	14.88
396.358	15.05
396.565	15.05
396.773	15.45
396.98	15.48
397.188	15.06
397.395	15.13
397.602	14.98
397.81	14.97
398.017	14.84
398.225	15.09
398.432	15.07
398.639	14.74
398.847	14.35
399.054	14.1
399.261	14.04
399.468	13.97
399.676	14.14
399.883	14.11
400.09	13.77
400.297	13.68
400.505	13.37
400.712	13.47
400.919	13.09
401.126	13.08
401.333	13.02
401.54	13.31
401.748	13.34
401.955	12.68
402.162	12.76
402.369	12.74
402.576	12.5
402.783	12.7
402.99	12.72
403.197	12.98
403.404	13.01
403.611	12.75
403.818	12.86
404.025	12.73
404.232	12.8
404.439	12.72
404.646	12.87
404.853	13.13
405.06	12.85
405.267	12.79
405.474	12.61
405.681	12.5
405.887	12.74
406.094	12.31
406.301	12.43
406.508	12.54
406.715	12.26
406.922	12.21
407.128	12.17
407.335	12.5
407.542	12.45
407.749	12.67
407.955	12.56
408.162	12.35
408.369	12.34
408.575	12.35
408.782	12.23
408.989	12.4
409.195	12.43
409.402	12.17
409.609	12.12
409.815	12.42
410.022	12.2
410.228	12.18
410.435	12.14
410.642	12.22
410.848	12.11
411.055	11.92
411.261	11.92
411.468	11.67
411.674	11.78
411.881	11.43
412.087	11.21
412.294	11.47
412.5	11.71
412.706	11.86
412.913	11.78
413.119	11.95
413.326	11.9
413.532	12.04
413.738	12.23
413.945	12.15
414.151	12.29
414.357	12.4
414.564	12.26
414.77	11.71
414.976	11.75
415.182	11.81
415.389	11.65
415.595	11.96
415.801	11.75
416.007	11.77
416.214	11.63
416.42	11.69
416.626	11.75
416.832	11.73
417.038	12.03
417.244	11.94
417.45	12.07
417.657	11.85
417.863	11.66
418.069	11.65
418.275	11.28
418.481	11.38
418.687	11.3
418.893	11.21
419.099	11.09
419.305	11.02
419.511	10.93
419.717	10.82
419.923	10.92
420.129	11.04
420.335	11.13
420.541	11.35
420.746	11.39
420.952	11.48
421.158	11.43
421.364	11.36
421.57	11.4
421.776	11.48
421.982	11.37
422.187	11.42
422.393	11.38
422.599	11.46
422.805	11.48
423.01	11.49
423.216	11.49
423.422	11.51
423.628	11.64
423.833	11.69
424.039	11.79
424.245	11.88
424.45	11.95
424.656	11.95
424.862	11.78
425.067	11.72
425.273	11.79
425.478	11.65
425.684	11.5
425.889	11.44
426.095	11.46
426.301	11.14
426.506	11.03
426.712	10.88
426.917	10.87
427.123	10.75
427.328	10.81
427.533	10.76
427.739	10.91
427.944	11.09
428.15	11.24
428.355	10.93
428.561	11.03
428.766	11.21
428.971	11.2
429.177	11.19
429.382	11.5
429.587	11.23
429.793	11.11
429.998	10.99
430.203	10.75
430.408	10.84
430.614	10.92
430.819	10.94
431.024	10.91
431.229	10.97
431.434	10.89
431.64	10.82
431.845	10.83
432.05	10.62
432.255	10.73
432.46	10.83
432.665	10.55
432.87	10.63
433.076	10.59
433.281	10.46
433.486	10.34
433.691	10.3
433.896	10.21
434.101	10.35
434.306	10.38
434.511	10.36
434.716	10.38
434.921	10.54
435.126	10.61
435.331	10.81
435.535	10.82
435.74	10.94
435.945	11.12
436.15	11.15
436.355	11.09
436.56	11.17
436.765	10.96
436.97	11.02
437.174	11.12
437.379	11.11
437.584	10.98
437.789	11.04
437.993	10.92
438.198	10.76
438.403	10.8
438.608	10.75
438.812	10.78
439.017	10.82
439.222	10.9
439.426	10.68
439.631	10.56
439.836	10.67
440.04	10.75
440.245	10.95
440.45	10.96
440.654	10.91
440.859	11
441.063	10.96
441.268	10.89
441.472	10.73
441.677	10.88
441.881	11.02
442.086	10.91
442.29	10.83
442.495	10.81
442.699	10.86
442.904	10.95
443.108	10.93
443.312	10.87
443.517	10.86
443.721	10.83
443.925	10.83
444.13	10.76
444.334	10.8
444.538	10.8
444.743	10.54
444.947	10.5
445.151	10.46
445.356	10.53
445.56	10.62
445.764	10.87
445.968	10.93
446.173	10.82
446.377	10.6
446.581	10.49
446.785	10.56
446.989	10.66
447.193	10.73
447.398	10.71
447.602	10.65
447.806	10.69
448.01	10.48
448.214	10.53
448.418	10.42
448.622	10.43
448.826	10.44
449.03	10.39
449.234	10.46
449.438	10.33
449.642	10.28
449.846	10.22
450.05	10.03
450.254	10.08
450.458	9.85
450.662	10.03
450.866	10.19
451.069	10.48
451.273	10.37
451.477	10.42
451.681	10.44
451.885	10.55
452.089	10.56
452.292	10.67
452.496	10.79
452.7	11.06
452.904	10.96
453.107	10.95
453.311	10.71
453.515	10.78
453.719	10.65
453.922	10.66
454.126	10.34
454.33	10.24
454.533	10
454.737	9.88
454.94	9.75
455.144	9.86
455.348	9.8
455.551	9.72
455.755	9.69
455.958	9.63
456.162	9.57
456.365	9.76
456.569	9.86
456.772	10.01
456.976	10.22
457.179	10.16
457.383	10.15
457.586	10.29
457.79	10.48
457.993	10.46
458.196	10.52
458.4	10.48
458.603	10.44
458.807	10.41
459.01	10.48
459.213	10.46
459.417	10.57
459.62	10.38
459.823	10.21
460.026	10.07
460.23	10.06
460.433	9.96
460.636	10.06
460.839	10.05
461.042	10.04
461.246	10.01
461.449	9.86
461.652	9.72
461.855	9.79
462.058	9.97
462.261	10.05
462.464	10.04
462.668	10.19
462.871	10.19
463.074	10.31
463.277	10.42
463.48	10.32
463.683	10.27
463.886	10.24
464.089	10.19
464.292	10.12
464.495	10.26
464.698	10.37
464.901	10.46
465.104	10.45
465.306	10.29
465.509	10.2
465.712	10.24
465.915	10.29
466.118	10.4
466.321	10.4
466.524	10.46
466.726	10.33
466.929	10.09
467.132	10.06
467.335	9.92
467.538	10.15
467.74	10.11
467.943	10.09
468.146	10.33
468.348	10.32
468.551	10.59
468.754	10.51
468.956	10.44
469.159	10.52
469.362	10.53
469.564	10.52
469.767	10.39
469.969	10.58
470.172	10.71
470.375	10.29
470.577	10.26
470.78	10.01
470.982	10.13
471.185	10.32
471.387	10.37
471.59	10.3
471.792	10.26
471.995	10.4
472.197	10.18
472.399	10.07
472.602	10.13
472.804	10.05
473.007	10
473.209	9.9
473.411	9.72
473.614	9.81
473.816	9.79
474.018	9.89
474.22	9.87
474.423	9.95
474.625	10.08
474.827	10.06
475.03	10.17
475.232	10.3
475.434	10.4
475.636	10.58
475.838	10.46
476.04	10.46
476.243	10.37
476.445	10.31
476.647	10.44
476.849	10.3
477.051	10.45
477.253	10.39
477.455	10.33
477.657	10.33
477.859	10.17
478.061	10.16
478.263	10.13
478.465	10.22
478.667	10.29
478.869	10.25
479.071	10.11
479.273	10.18
479.475	10.27
479.677	10.22
479.879	10.1
480.081	10.2
480.283	10.3
480.485	10.4
480.686	10.41
480.888	10.33
481.09	10.32
481.292	10.53
481.494	10.46
481.695	10.53
481.897	10.64
482.099	10.74
482.301	10.77
482.502	10.67
482.704	10.61
482.906	10.59
483.107	10.54
483.309	10.52
483.511	10.5
483.712	10.49
483.914	10.43
484.115	10.38
484.317	10.38
484.519	10.34
484.72	10.34
484.922	10.34
485.123	10.37
485.325	10.32
485.526	10.31
485.728	10.32
485.929	10.34
486.131	10.32
486.332	10.36
486.534	10.35
486.735	10.32
486.936	10.35
487.138	10.34
487.339	10.27
487.541	10.4
487.742	10.4
487.943	10.32
488.144	10.36
488.346	10.4
488.547	10.37
488.748	10.3
488.95	10.37
489.151	10.32
489.352	10.26
489.553	10.29
489.755	10.28
489.956	10.25
490.157	10.39
490.358	10.33
490.559	10.29
490.76	10.29
490.961	10.33
491.163	10.37
491.364	10.37
491.565	10.47
491.766	10.55
491.967	10.48
492.168	10.49
492.369	10.46
492.57	10.47
492.771	10.48
492.972	10.46
493.173	10.45
493.374	10.47
493.575	10.48
493.776	10.47
493.976	10.35
494.177	10.29
494.378	10.36
494.579	10.27
494.78	10.24
494.981	10.27
495.182	10.34
495.382	10.44
495.583	10.3
495.784	10.3
495.985	10.34
496.185	10.4
496.386	10.57
496.587	10.55
496.788	10.67
496.988	10.74
497.189	10.82
497.39	10.98
497.59	11
497.791	11.07
497.992	11.18
498.192	11.13
498.393	11.14
498.593	11.08
498.794	10.95
498.994	10.94
499.195	10.87
499.395	10.91
499.596	10.92
499.796	10.95
499.997	11.13
500.197	11
500.398	11.2
500.598	11.16
500.799	11.32
500.999	11.39
501.199	11.41
501.4	11.46
501.6	11.38
501.801	11.3
502.001	11.43
502.201	11.28
502.402	11.39
502.602	11.31
502.802	11.29
503.002	11.41
503.203	11.58
503.403	11.61
503.603	11.71
503.803	11.9
504.003	11.89
504.204	11.91
504.404	11.86
504.604	12.07
504.804	12.08
505.004	12.33
505.204	12.21
505.404	12.41
505.604	12.39
505.804	12.44
506.005	12.35
506.205	12.44
506.405	12.36
506.605	12.43
506.805	12.42
507.005	12.41
507.204	12.45
507.404	12.58
507.604	12.42
507.804	12.6
508.004	12.65
508.204	12.84
508.404	12.99
508.604	13.18
508.804	13.37
509.003	13.52
509.203	13.73
509.403	13.85
509.603	13.89
509.803	14.03
510.002	14.01
510.202	14.07
510.402	14.16
510.602	14.08
510.801	14.11
511.001	13.99
511.201	14.01
511.4	14.01
511.6	13.96
511.8	14.01
511.999	14.11
512.199	14.12
512.398	14.09
512.598	14.12
512.797	14.3
512.997	14.39
513.197	14.64
513.396	14.72
513.596	14.74
513.795	14.94
513.994	14.87
514.194	14.9
514.393	15.11
514.593	15.36
514.792	15.4
514.992	15.56
515.191	15.52
515.39	15.57
515.59	15.67
515.789	15.86
515.988	15.96
516.188	16.34
516.387	16.52
516.586	16.62
516.786	16.54
516.985	16.64
517.184	16.62
517.383	16.7
517.582	16.8
517.782	16.78
517.981	16.81
518.18	16.87
518.379	16.81
518.578	16.83
518.777	16.87
518.976	16.98
519.176	17.01
519.375	17.07
519.574	17.22
519.773	17.05
519.972	17.16
520.171	17.27
520.37	17.2
520.569	17.31
520.768	17.33
520.967	17.45
521.166	17.6
521.365	17.81
521.564	17.97
521.762	17.97
521.961	18.31
522.16	18.42
522.359	18.62
522.558	18.72
522.757	18.64
522.956	18.75
523.154	18.98
523.353	18.94
523.552	18.96
523.751	19.04
523.949	19.13
524.148	19.28
524.347	19.28
524.546	19.22
524.744	19.38
524.943	19.53
525.142	19.51
525.34	19.45
525.539	19.59
525.737	19.67
525.936	19.7
526.135	19.73
526.333	19.72
526.532	19.87
526.73	19.94
526.929	19.94
527.127	20.03
527.326	20.12
527.524	20.14
527.723	20.33
527.921	20.39
528.12	20.44
528.318	20.53
528.516	20.6
528.715	20.61
528.913	20.73
529.112	20.83
529.31	20.9
529.508	20.99
529.707	21.1
529.905	21.05
530.103	21.08
530.301	21.23
530.5	21.3
530.698	21.34
530.896	21.43
531.094	21.39
531.293	21.41
531.491	21.43
531.689	21.55
531.887	21.57
532.085	21.74
532.283	21.91
532.481	21.86
532.68	21.96
532.878	22.07
533.076	22.17
533.274	22.29
533.472	22.36
533.67	22.43
533.868	22.47
534.066	22.51
534.264	22.49
534.462	22.45
534.66	22.55
534.858	22.59
535.056	22.64
535.253	22.67
535.451	22.7
535.649	22.9
535.847	22.87
536.045	22.99
536.243	23.1
536.441	23.36
536.638	23.46
536.836	23.55
537.034	23.57
537.232	23.6
537.43	23.64
537.627	23.72
537.825	23.67
538.023	23.86
538.22	23.9
538.418	23.89
538.616	23.69
538.813	23.78
539.011	23.88
539.209	24.07
539.406	24.25
539.604	24.43
539.801	24.55
539.999	24.73
540.196	24.79
540.394	24.97
540.591	25.11
540.789	25.25
540.986	25.3
541.184	25.35
541.381	25.37
541.579	25.34
541.776	25.46
541.974	25.57
542.171	25.6
542.368	25.74
542.566	25.7
542.763	25.83
542.96	25.9
543.158	26.02
543.355	26.14
543.552	26.32
543.75	26.49
543.947	26.43
544.144	26.42
544.341	26.51
544.539	26.62
544.736	26.82
544.933	26.88
545.13	26.89
545.327	26.94
545.524	26.98
545.722	26.94
545.919	27.1
546.116	27.29
546.313	27.26
546.51	27.3
546.707	27.17
546.904	27.13
547.101	27.13
547.298	27.3
547.495	27.28
547.692	27.47
547.889	27.6
548.086	27.61
548.283	27.52
548.48	27.83
548.677	27.86
548.874	28.26
549.07	28.45
549.267	28.58
549.464	28.76
549.661	28.82
549.858	28.81
550.055	28.79
550.251	28.84
550.448	29.06
550.645	29.12
550.842	29.29
551.038	29.16
551.235	29.37
551.432	29.46
551.628	29.41
551.825	29.58
552.022	29.6
552.218	29.86
552.415	29.86
552.612	29.85
552.808	29.79
553.005	29.85
553.201	29.86
553.398	29.77
553.594	29.71
553.791	29.88
553.987	29.94
554.184	30.06
554.38	30.17
554.577	30.27
554.773	30.62
554.97	30.72
555.166	30.93
555.362	31.18
555.559	31.18
555.755	31.37
555.952	31.48
556.148	31.59
556.344	31.59
556.541	31.62
556.737	31.59
556.933	31.45
557.129	31.66
557.326	31.68
557.522	31.69
557.718	31.98
557.914	31.91
558.11	32.06
558.307	32.02
558.503	32.05
558.699	31.94
558.895	32.03
559.091	32.16
559.287	32.37
559.483	32.26
559.679	32.43
559.876	32.36
560.072	32.57
560.268	32.42
560.464	32.81
560.66	32.93
560.856	33.16
561.052	33.49
561.247	33.64
561.443	33.49
561.639	33.78
561.835	33.62
562.031	33.9
562.227	34.01
562.423	34.16
562.619	34.06
562.815	34
563.01	33.99
563.206	33.86
563.402	33.92
563.598	33.96
563.793	33.95
563.989	34.14
564.185	34.01
564.381	33.87
564.576	33.97
564.772	33.91
564.968	34.03
565.163	34.14
565.359	34.34
565.555	34.4
565.75	34.4
565.946	34.45
566.141	34.53
566.337	34.77
566.532	34.77
566.728	34.98
566.923	35.06
567.119	35.08
567.314	34.99
567.51	35
567.705	34.76
567.901	34.81
568.096	34.7
568.292	34.68
568.487	34.55
568.682	34.88
568.878	34.89
569.073	35.08
569.268	35.39
569.464	35.62
569.659	35.62
569.854	35.98
570.05	36.17
570.245	36.56
570.44	36.65
570.635	36.79
570.831	36.74
571.026	36.66
571.221	36.71
571.416	36.6
571.611	36.54
571.806	36.59
572.002	36.61
572.197	36.61
572.392	36.57
572.587	36.61
572.782	36.71
572.977	36.71
573.172	36.65
573.367	36.54
573.562	36.56
573.757	36.54
573.952	36.62
574.147	36.42
574.342	36.52
574.537	36.44
574.732	36.52
574.927	36.47
575.121	36.54
575.316	36.66
575.511	36.72
575.706	36.9
575.901	36.97
576.096	36.97
576.29	37.12
576.485	37.15
576.68	37.16
576.875	37.28
577.069	37.1
577.264	37.23
577.459	37.25
577.654	37.5
577.848	37.5
578.043	37.69
578.238	37.84
578.432	37.98
578.627	37.83
578.821	37.91
579.016	37.59
579.21	37.83
579.405	37.69
579.6	37.66
579.794	37.41
579.989	37.3
580.183	37.44
580.378	37.14
580.572	37.26
580.766	37.53
580.961	37.68
581.155	37.91
581.35	38.08
581.544	38.2
581.738	38.26
581.933	38.25
582.127	38.49
582.321	38.2
582.516	38.32
582.71	38.16
582.904	38.23
583.099	38.36
583.293	38.47
583.487	38.51
583.681	38.54
583.875	38.59
584.07	38.72
584.264	38.65
584.458	38.78
584.652	38.74
584.846	38.71
585.04	38.55
585.234	38.37
585.428	38.57
585.623	38.36
585.817	38.39
586.011	38.45
586.205	38.47
586.399	38.37
586.593	38.41
586.787	38.45
586.981	38.67
587.174	38.57
587.368	38.32
587.562	37.98
587.756	37.97
587.95	38.02
588.144	38.04
588.338	38.31
588.532	38.18
588.725	38.11
588.919	38.5
589.113	38.38
589.307	38.53
589.501	38.67
589.694	38.82
589.888	39.04
590.082	38.73
590.275	38.78
590.469	38.3
590.663	38.23
590.856	38.42
591.05	38.44
591.244	38.64
591.437	38.74
591.631	38.89
591.824	39.1
592.018	39.02
592.212	39.35
592.405	39.42
592.599	39.68
592.792	39.82
592.986	39.78
593.179	39.7
593.372	39.64
593.566	39.75
593.759	39.75
593.953	39.73
594.146	39.5
594.339	39.48
594.533	39.34
594.726	39.29
594.92	39.59
595.113	39.34
595.306	38.9
595.499	39.01
595.693	38.95
595.886	38.97
596.079	38.77
596.272	38.96
596.466	38.84
596.659	38.89
596.852	38.99
597.045	39
597.238	39.12
597.431	39.54
597.624	39.45
597.818	39.53
598.011	39.36
598.204	39.56
598.397	39.57
598.59	39.75
598.783	39.83
598.976	40.02
599.169	40.03
599.362	40.11
599.555	39.93
599.748	40.06
599.941	39.69
600.134	39.76
600.326	39.49
600.519	39.42
600.712	39.42
600.905	39.22
601.098	39
601.291	38.77
601.483	38.9
601.676	38.91
601.869	38.88
602.062	39.14
602.255	39.22
602.447	39.52
602.64	39.82
602.833	39.95
603.025	40.18
603.218	39.95
603.411	40.11
603.603	39.85
603.796	39.92
603.989	39.99
604.181	39.86
604.374	40.18
604.566	40.13
604.759	39.89
604.951	39.87
605.144	39.95
605.336	40.09
605.529	40.17
605.721	40.39
605.914	40.36
606.106	40.25
606.299	40.39
606.491	40.31
606.683	40.37
606.876	40.5
607.068	40.55
607.26	40.25
607.453	40.54
607.645	40.53
607.837	40.28
608.03	40.6
608.222	40.66
608.414	41.08
608.606	41
608.799	40.81
608.991	40.85
609.183	41.08
609.375	41.32
609.567	41.32
609.759	41.54
609.952	41.99
610.144	41.97
610.336	42.38
610.528	42.2
610.72	42.35
610.912	42.68
611.104	43.02
611.296	42.84
611.488	42.86
611.68	42.83
611.872	42.58
612.064	42.42
612.256	42.22
612.448	41.87
612.64	41.75
612.832	41.66
613.023	41.59
613.215	41.12
613.407	41
613.599	41.06
613.791	41.17
613.983	41.08
614.174	41.2
614.366	41.4
614.558	41.55
614.75	41.59
614.941	41.58
615.133	41.61
615.325	41.85
615.516	42.28
615.708	42.1
615.9	41.9
616.091	42.03
616.283	41.9
616.475	41.99
616.666	41.65
616.858	41.51
617.049	41.65
617.241	41.46
617.432	41.18
617.624	40.81
617.815	40.87
618.007	40.93
618.198	40.99
618.39	40.73
618.581	40.6
618.773	40.76
618.964	40.78
619.155	40.81
619.347	40.79
619.538	41.1
619.729	41.29
619.921	41.36
620.112	41.42
620.303	40.9
620.494	41.29
620.686	41.32
620.877	41.43
621.068	41.52
621.259	41.11
621.451	41.15
621.642	40.94
621.833	40.81
622.024	40.61
622.215	40.58
622.406	41.03
622.597	41.05
622.788	41.07
622.98	40.83
623.171	41.09
623.362	41.23
623.553	40.91
623.744	40.89
623.935	40.64
624.126	40.83
624.317	40.45
624.508	40.32
624.698	40.34
624.889	40.02
625.08	40
625.271	40.02
625.462	40.18
625.653	40.45
625.844	40.35
626.034	40.65
626.225	40.6
626.416	40.82
626.607	40.98
626.798	40.83
626.988	41.07
627.179	41.51
627.37	41.64
627.56	41.72
627.751	41.8
627.942	42.03
628.132	41.82
628.323	41.84
628.514	41.82
628.704	42.01
628.895	41.9
629.085	41.97
629.276	41.59
629.466	41.57
629.657	41.43
629.847	41.63
630.038	41.52
630.228	41.65
630.419	41.89
630.609	42.27
630.8	41.97
630.99	42.16
631.181	41.79
631.371	41.76
631.561	41.58
631.752	41.74
631.942	41.68
632.132	42.1
632.323	41.99
632.513	42.06
632.703	42.24
632.893	42.41
633.084	42.52
633.274	42.71
633.464	42.76
633.654	42.57
633.844	42.56
634.034	42.38
634.225	42.05
634.415	42.02
634.605	41.86
634.795	41.6
634.985	41.56
635.175	41.69
635.365	41.93
635.555	41.92
635.745	41.97
635.935	41.87
636.125	41.99
636.315	41.95
636.505	42.11
636.695	41.85
636.885	41.74
637.075	41.84
637.265	41.75
637.455	41.45
637.644	41.7
637.834	41.65
638.024	41.58
638.214	41.54
638.404	41.59
638.593	41.65
638.783	41.78
638.973	41.93
639.163	41.66
639.352	41.39
639.542	41.33
639.732	41.34
639.921	41.26
640.111	41
640.301	40.86
640.49	41.09
640.68	40.97
640.87	41.36
641.059	41.23
641.249	41.62
641.438	41.36
641.628	41.69
641.817	41.76
642.007	41.89
642.196	42.4
642.386	42.67
642.575	42.18
642.764	42.42
642.954	42.43
643.143	42.67
643.333	42.53
643.522	42.55
643.711	42.47
643.901	42.46
644.09	42.2
644.279	42.01
644.469	42.02
644.658	42.33
644.847	42.09
645.036	41.75
645.226	41.64
645.415	41.88
645.604	41.9
645.793	41.84
645.982	41.38
646.171	41.63
646.361	41.35
646.55	41.37
646.739	41.26
646.928	41.42
647.117	41.83
647.306	41.6
647.495	41.38
647.684	41.76
647.873	42
648.062	42.24
648.251	42.33
648.44	42.44
648.629	42.51
648.818	42.61
649.007	42.89
649.196	42.49
649.384	42.47
649.573	42.7
649.762	42.82
649.951	42.4
650.14	41.98
650.328	42.08
650.517	42.23
650.706	41.95
650.895	41.68
651.083	41.39
651.272	41.35
651.461	41.85
651.65	41.48
651.838	41.49
652.027	41.71
652.216	42.57
652.404	42.73
652.593	43.03
652.781	42.78
652.97	42.9
653.158	42.99
653.347	42.95
653.535	42.51
653.724	42.53
653.912	42.31
654.101	42.2
654.289	41.64
654.478	41.39
654.666	41.32
654.855	42.03
655.043	42.16
655.231	42.1
655.42	42.47
655.608	42.67
655.796	43.17
655.985	43.17
656.173	43.28
656.361	43.43
656.55	43.36
656.738	43.36
656.926	43.17
657.114	42.87
657.302	42.79
657.491	42.5
657.679	42.25
657.867	42.04
658.055	42.32
658.243	41.85
658.431	41.54
658.619	41.44
658.807	41.26
658.996	40.99
659.184	41.27
659.372	41.28
659.56	41.26
659.748	41.64
659.936	41.48
660.124	41.49
660.311	42.04
660.499	42.31
660.687	42.38
660.875	42.48
661.063	42.41
661.251	42.24
661.439	41.94
661.627	42.38
661.814	41.87
662.002	41.88
662.19	41.7
662.378	41.84
662.565	41.59
662.753	41.87
662.941	42.01
663.129	41.93
663.316	42.38
663.504	42.9
663.692	42.77
663.879	43.17
664.067	43.46
664.254	43.31
664.442	42.95
664.63	43.37
664.817	43.16
665.005	42.71
665.192	42.84
665.38	42.82
665.567	42.62
665.755	42.6
665.942	42.4
666.13	41.95
666.317	42.04
666.504	42.09
666.692	42.19
666.879	42.47
667.067	42.76
667.254	42.75
667.441	42.7
667.629	42.74
667.816	42.59
668.003	42.54
668.19	42.53
668.378	42.4
668.565	42.52
668.752	42.14
668.939	42.08
669.127	42.11
669.314	42.5
669.501	42.45
669.688	42.87
669.875	42.79
670.062	42.58
670.249	42.91
670.436	43.04
670.623	42.93
670.81	43.24
670.997	42.95
671.184	42.53
671.371	42.48
671.558	42.22
671.745	41.82
671.932	41.93
672.119	42.06
672.306	41.66
672.493	41.75
672.68	41.81
672.867	41.36
673.054	41.47
673.24	41.94
673.427	41.97
673.614	42.46
673.801	42.33
673.988	42.23
674.174	42.3
674.361	42.68
674.548	42.73
674.734	42.9
674.921	43.07
675.108	43.14
675.294	43.38
675.481	42.86
675.668	42.72
675.854	42.75
676.041	42.82
676.227	43.31
676.414	42.5
676.601	42.43
676.787	42.36
676.974	42.26
677.16	42.41
677.347	42.1
677.533	42.41
677.719	41.85
677.906	41.47
678.092	41.13
678.279	41.12
678.465	41.38
678.651	41.44
678.838	41.3
679.024	41.62
679.21	41.24
679.397	41.48
679.583	41.51
679.769	42.06
679.955	42.27
680.142	42.67
680.328	42.32
680.514	42.48
680.7	42.32
680.886	42.38
681.073	42.48
681.259	42.64
681.445	42.09
681.631	41.83
681.817	41.66
682.003	41.48
682.189	41.44
682.375	41.64
682.561	41.84
682.747	42.1
682.933	42.07
683.119	41.84
683.305	41.89
683.491	42.12
683.677	42.64
683.863	42.95
684.049	43.34
684.235	43.05
684.42	42.66
684.606	42.73
684.792	42.77
684.978	42.06
685.164	42.27
685.349	42.07
685.535	42.29
685.721	42.39
685.907	42.11
686.092	42.44
686.278	42.76
686.464	42.94
686.649	42.33
686.835	42.59
687.021	43.18
687.206	43.11
687.392	43.24
687.577	43.24
687.763	42.8
687.948	42.86
688.134	42.93
688.319	42.87
688.505	42.96
688.69	43.36
688.876	42.88
689.061	43.69
689.247	43.69
689.432	43.68
689.618	43.42
689.803	43.8
689.988	43.73
690.174	43.04
690.359	42.44
690.544	42.36
690.73	42.16
690.915	42.18
691.1	41.51
691.285	41.36
691.471	41.74
691.656	42.26
691.841	42.34
692.026	41.8
692.211	41.73
692.396	41.79
692.582	41.96
692.767	42.06
692.952	41.88
693.137	41.58
693.322	41.52
693.507	40.86
693.692	40.14
693.877	40.29
694.062	41
694.247	41.88
694.432	42.83
694.617	42.03
694.802	42.32
694.987	42.53
695.172	43
695.357	43.39
695.541	43.85
695.726	44.35
695.911	43.67
696.096	43.51
696.281	42.97
696.466	42.55
696.65	43.77
696.835	43.47
697.02	43.46
697.204	43.44
697.389	43.33
697.574	43.14
697.759	43.08
697.943	42.95
698.128	42.8
698.312	43.18
698.497	43.26
698.682	42.98
698.866	43.09
699.051	42.99
699.235	42.72
699.42	42.69
699.604	42.73
699.789	42.59
699.973	42.71
700.158	43.02
700.342	42.78
700.527	42.93
700.711	43.02
700.895	42.44
701.08	42.53
701.264	42.61
701.448	42.65
701.633	42.4
701.817	42.31
702.001	42.54
702.186	42.52
702.37	42.76
702.554	42.67
702.738	42.51
702.923	43.66
703.107	43.67
703.291	43.79
703.475	43.49
703.659	43.79
703.843	43.9
704.027	44.37
704.212	43.94
704.396	43.97
704.58	43.8
704.764	43.23
704.948	42.61
705.132	42.81
705.316	42.85
705.5	43.53
705.684	43.53
705.868	44.42
706.052	43.9
706.235	44.09
706.419	43.71
706.603	44.33
706.787	44.68
706.971	44.77
707.155	44.77
707.339	45.3
707.522	45.11
707.706	44.95
707.89	44.2
708.074	44.54
708.257	45.05
708.441	44.81
708.625	43.99
708.808	44.68
708.992	44.99
709.176	45.03
709.359	43.87
709.543	43.33
709.727	43.49
709.91	43.83
710.094	43.14
710.277	43.17
710.461	43.22
710.644	43.82
710.828	43.09
711.011	43.11
711.195	42.63
711.378	42.6
711.562	42.63
711.745	42.48
711.928	41.8
712.112	42.79
712.295	42.25
712.478	42.56
712.662	42.15
712.845	41.93
713.028	41.85
713.212	42.15
713.395	42.15
713.578	41.79
713.761	42.42
713.945	42.99
714.128	42.13
714.311	42.5
714.494	41.96
714.677	41.94
714.86	42.89
715.043	42.62
715.227	42.27
715.41	42.59
715.593	43.07
715.776	42.29
715.959	42.59
716.142	42.72
716.325	42.28
716.508	42.55
716.691	42.69
716.874	42.02
717.057	42.05
717.239	42.15
717.422	42.15
717.605	42.39
717.788	43.12
717.971	42.71
718.154	42.24
718.337	42.25
718.519	42.51
718.702	42.53
718.885	43.13
719.068	43.62
719.25	43.95
719.433	43.83
719.616	43.71
719.798	42.77
719.981	41.67
720.164	41.57
720.346	42.2
720.529	41.65
720.712	40.9
720.894	40.29
721.077	39.59
721.259	38.99
721.442	38.98
721.624	38.6
721.807	38.97
721.989	40.25
722.172	40.68
722.354	41.05
722.537	41.04
722.719	41.78
722.901	41.74
723.084	42.85
723.266	43.26
723.448	43.48
723.631	44.38
723.813	45.39
723.995	44.22
724.178	44.61
724.36	43.46
724.542	43.75
724.724	44.08
724.907	43.98
725.089	43.43
725.271	43.13
725.453	43.04
725.635	41.86
725.817	41.22
725.999	41.57
726.181	41.25
726.364	41.64
726.546	41.53
726.728	41.33
726.91	41.2
727.092	40.87
727.274	41.77
727.456	42.01
727.638	42.57
727.819	42.52
728.001	43.26
728.183	43.05
728.365	42.61
728.547	43.32
728.729	42.9
728.911	42.32
729.093	43.05
729.274	42.77
729.456	42.66
729.638	42.31
729.82	42.65
730.001	42.56
730.183	42.88
730.365	43.53
730.546	43.58
730.728	44.03
730.91	45.22
731.091	43.78
731.273	43.33
731.455	43.49
731.636	43.97
731.818	44.29
731.999	44.5
732.181	44.93
732.362	45.2
732.544	43.98
732.725	43.3
732.907	42.99
733.088	43.4
733.27	43.21
733.451	43.8
733.633	43.43
733.814	42.73
733.995	42.27
734.177	41.72
734.358	42.08
734.539	42.71
734.721	43.15
734.902	43.32
735.083	43.24
735.264	43.45
735.446	43.14
735.627	43.39
735.808	43.89
735.989	42.42
736.17	43.09
736.351	42.14
736.533	42.81
736.714	42.54
736.895	42.09
737.076	43.2
737.257	43.58
737.438	43.08
737.619	43.12
737.8	42.88
737.981	44.59
738.162	43.6
738.343	43.43
738.524	43.06
738.705	43.13
738.886	43.94
739.067	42.67
739.247	42.29
739.428	41.18
739.609	40.7
739.79	40.39
739.971	41.39
740.151	41.34
740.332	41.14
740.513	41.56
740.694	41.21
740.874	40.55
741.055	40.97
741.236	41.42
741.417	43.41
741.597	43.02
741.778	43.04
741.958	41.4
742.139	41.88
742.32	41.56
742.5	40.84
742.681	41.81
742.861	42.43
743.042	42.55
743.222	42.38
743.403	41.3
743.583	42.11
743.764	42.27
743.944	42.43
744.124	41.33
744.305	42.02
744.485	41.75
744.666	41.32
744.846	41.35
745.026	41.52
745.207	41.89
745.387	42.31
745.567	42.14
745.747	42.57
745.928	42.77
746.108	43.6
746.288	44.82
746.468	45.06
746.648	45.15
746.829	44.93
747.009	45.17
747.189	44.88
747.369	43.47
747.549	42.85
747.729	42.2
747.909	41.42
748.089	42.06
748.269	40.45
748.449	40.77
748.629	41.3
748.809	41.31
748.989	40.93
749.169	40.98
749.349	41.81
749.529	42.63
749.709	42.25
749.889	43.47
750.068	43.22
750.248	43.22
750.428	44.2
750.608	43.9
750.788	44.38
750.967	42.83
751.147	43.77
751.327	45.55
751.507	45.03
751.686	46.08
751.866	45.59
752.046	44.97
752.225	44.77
752.405	44.12
752.585	44.44
752.764	43.51
752.944	44.76
753.123	44.15
753.303	41.96
753.482	41.7
753.662	40.93
753.841	41.26
754.021	41.39
754.2	41.58
754.38	41.27
754.559	41.84
754.739	42.21
754.918	43.08
755.097	42.39
755.277	43.13
755.456	43.95
755.635	44.24
755.815	44.54
755.994	45.47
756.173	45.79
756.352	45.48
756.532	45.71
756.711	44.63
756.89	43.18
757.069	44.38
757.248	44.11
757.427	44.53
757.607	43.83
757.786	44.22
757.965	43.74
758.144	44.23
758.323	44.87
758.502	44.75
758.681	46.34
758.86	47.66
759.039	46.3
759.218	47.08
759.397	45.82
759.576	45.71
759.755	43.94
759.934	44.44
760.113	43.69
760.291	43.11
760.47	42.18
760.649	40
760.828	38.58
761.007	38.61
761.186	38.55
761.364	39.38
761.543	40.25
761.722	40.95
761.901	40.71
762.079	41.74
762.258	41.36
762.437	41.66
762.615	42.85
762.794	44.15
762.972	44.25
763.151	43.65
763.33	43.77
763.508	43.24
763.687	43.34
763.865	42.58
764.044	42.11
764.222	41.89
764.401	40.94
764.579	41.54
764.758	40.69
764.936	40.78
765.114	41.54
765.293	41.49
765.471	42.31
765.65	42.01
765.828	42.39
766.006	42.19
766.184	43.15
766.363	43.77
766.541	43.03
766.719	43.7
766.898	44.2
767.076	43.07
767.254	42.39
767.432	41.76
767.61	42.01
767.788	41.37
767.967	41.37
768.145	40.35
768.323	40.91
768.501	41.25
768.679	40.82
768.857	40.4
769.035	40.57
769.213	41.06
769.391	41.46
769.569	41.74
769.747	41.33
769.925	40.27
770.103	40.32
770.281	39.52
770.459	39.51
770.636	39.99
770.814	41.32
770.992	43.05
771.17	41.84
771.348	40.96
771.525	40.89
771.703	42.49
771.881	43.4
772.059	45.22
772.236	45.05
772.414	42.74
772.592	42.58
772.769	40.25
772.947	40.32
773.125	42.69
773.302	44.98
773.48	45.38
773.657	44.92
773.835	45.84
774.013	43.18
774.19	42.23
774.368	44.85
774.545	43.87
774.723	42.47
774.9	41.21
775.077	40.05
775.255	39.77
775.432	39.15
775.61	39.78
775.787	39.74
775.964	42.08
776.142	42.84
776.319	43.41
776.496	43.69
776.674	46.58
776.851	48.71
777.028	47.93
777.205	46.59
777.382	47.04
777.56	46.77
777.737	45.87
777.914	43.21
778.091	43.29
778.268	42.11
778.445	43.36
778.622	41.95
778.8	39.81
778.977	41.72
779.154	41.03
779.331	41.34
779.508	41.92
779.685	41.89
779.862	42.78
780.038	42
780.215	40.67
780.392	39.17
780.569	40.1
780.746	39.6
780.923	40.61
781.1	41.15
781.277	41.03
781.453	40.17
781.63	41.87
781.807	41.94
781.984	43.92
782.16	44.52
782.337	45.72
782.514	43.54
782.691	44.7
782.867	42.12
783.044	42.61
783.221	43.08
783.397	41.87
783.574	39.86
783.75	39.42
783.927	39.75
784.103	41.1
784.28	40.58
784.456	43.82
784.633	42.64
784.809	43.7
784.986	44.48
785.162	44.74
785.339	45.28
785.515	43.67
785.692	44.87
785.868	43.62
786.044	42.62
786.221	39.66
786.397	38.37
786.573	37.07
786.749	34.5
786.926	32.45
787.102	30.44
787.278	33.08
787.454	35.36
787.631	33.29
787.807	32.74
787.983	32.86
788.159	33.05
788.335	32.11
788.511	34
788.687	36.48
788.863	37.84
789.039	40.02
789.216	37.59
789.392	36.95
789.568	38.33
789.744	38.68
789.919	37.66
790.095	41.49
790.271	43.03
790.447	43.18
790.623	43.31
790.799	43.42
790.975	40.63
791.151	43
791.327	47.37
791.502	46.69
791.678	45.83
791.854	47.49
792.03	45.31
792.205	44.55
792.381	44.91
792.557	45.1
792.733	44.65
792.908	48.11
793.084	45.97
793.259	40.3
793.435	41.79
793.611	45.17
793.786	43.43
793.962	43.56
794.137	45.05
794.313	44.12
794.488	44.82
794.664	44.25
794.839	41.56
795.015	43.94
795.19	44.96
795.366	43.15
795.541	41
795.716	42.41
795.892	43.28
796.067	41.21
796.242	42.37
796.418	39.13
796.593	37.24
796.768	37.51
796.944	37.19
797.119	38.59
797.294	38.24
797.469	40.6
797.644	41.37
797.82	40.88
797.995	42.23
798.17	39.42
798.345	40.19
798.52	41.23
798.695	40.6
798.87	37.96
799.045	38.46
799.22	39.5
799.395	36.93
799.57	37.08
799.745	36.38
799.92	35.4
800.095	36.9
800.27	39.01
800.445	39.64
800.62	38.83
800.795	40.29
800.97	39.41
801.145	40.62
801.319	40.92
801.494	39.58
801.669	40.24
801.844	40.86
802.018	40.22
802.193	39.66
802.368	39.03
802.543	40.99
802.717	43.89
802.892	45.01
803.067	44.07
803.241	47.63
803.416	49.9
803.59	49.86
803.765	52.36
803.94	54.3
804.114	51.22
804.289	51.66
804.463	46.23
804.638	42.11
804.812	39.9
804.986	41.65
805.161	37.12
805.335	36.16
805.51	36.75
805.684	34.45
805.858	33.76
806.033	33.99
806.207	31.39
806.381	34.32
806.556	34.87
806.73	36.4
806.904	36.16
807.078	35.53
807.253	34.98
807.427	33.58
807.601	32.38
807.775	32.39
807.949	35.35
808.123	37.93
808.298	39.47
808.472	40.45
808.646	41.21
808.82	42
808.994	41.92
809.168	41.04
809.342	43.52
809.516	47.59
809.69	47.87
809.864	44.54
810.038	46.75
810.212	46.24
810.385	44.84
810.559	43.78
810.733	43.3
810.907	43.37
811.081	42.15
811.255	39.6
811.428	34.98
811.602	32.59
811.776	32.98
811.95	28.18
812.123	28.75
812.297	28.35
812.471	26.45
812.644	23.48
812.818	24.42
812.992	24.48
813.165	22.47
813.339	24.47
813.512	26.39
813.686	32.37
813.86	36.57
814.033	34.7
814.207	36.83
814.38	39.96
814.554	42.44
814.727	42.42
814.9	40.82
815.074	44.83
815.247	44.01
815.421	41.75
815.594	37.01
815.767	34.59
815.941	34.73
816.114	31.03
816.287	30.55
816.46	27.12
816.634	28.99
816.807	30.38
816.98	31.34
817.153	32.32
817.327	33.11
817.5	37.65
817.673	39.54
817.846	42.28
818.019	50.66
818.192	50.16
818.365	52.8
818.538	56.33
818.711	53.51
818.884	53.45
819.057	48.59
819.23	47.36
819.403	43.06
819.576	42.28
819.749	42.46
819.922	39.77
820.095	40.77
820.268	41.18
820.441	38.3
820.614	42.22
820.786	41.48
820.959	43.76
821.132	43.22
821.305	43.72
821.477	42.95
821.65	41.62
821.823	41.83
821.996	41.45
822.168	41
822.341	41
822.514	40.18
822.686	40.21
822.859	40.59
823.031	41.6
823.204	41.39
823.376	41.38
823.549	41.36
823.722	41.29
823.894	41.23
824.067	41.2
824.239	41.23
824.411	41.44
824.584	41.73
824.756	41.51
824.929	41.48
825.101	41.33
825.273	41.17
825.446	42.11
825.618	41.93
825.79	41.85
825.963	41.7
826.135	41.93
826.307	41.91
826.479	40.78
826.652	40.98
826.824	40.17
826.996	39.52
827.168	39.85
827.34	38.46
827.512	39.92
827.684	39.3
827.856	39.75
828.029	39.2
828.201	38.79
828.373	39.05
828.545	38.81
828.717	38.94
828.889	39.83
829.061	40.34
829.232	40.42
829.404	37.2
829.576	37.86
829.748	37.35
829.92	37.66
830.092	38.34
830.264	36.85
830.436	35.9
830.607	35.11
830.779	34.36
830.951	31.8
831.123	30.61
831.294	31.84
831.466	31.34
831.638	29.63
831.809	29.62
831.981	32.13
832.153	37.57
832.324	36.78
832.496	36.82
832.667	36.9
832.839	38.69
833.011	40.82
833.182	40.61
833.354	37.22
833.525	39.6
833.697	39.49
833.868	37.33
834.039	37.44
834.211	40.49
834.382	39.66
834.554	41.89
834.725	41.94
834.896	40.69
835.068	40.82
835.239	42.14
835.41	41.82
835.581	40.98
835.753	40.28
835.924	37.87
836.095	36.9
836.266	35.67
836.438	34.93
836.609	34.7
836.78	35.23
836.951	36.3
837.122	37.22
837.293	37.66
837.464	37.51
837.635	37.11
837.806	38.06
837.977	34.45
838.148	39.59
838.319	36.81
838.49	42.32
838.661	43.56
838.832	41.62
839.003	38.8
839.174	33.51
839.345	33.49
839.516	30.4
839.687	22.15
839.857	30.12
840.028	24.69
840.199	25.64
840.37	20.08
840.54	26.64
840.711	25.16
840.882	29.41
841.053	29.16
841.223	26.56
841.394	32.26
841.564	40.21
841.735	39
841.906	41.18
842.076	41.21
842.247	40.48
842.417	35.25
842.588	36.27
842.758	35.32
842.929	35.59
843.099	34.62
843.27	34.84
843.44	32.32
843.611	28.6
843.781	25.68
843.951	29.24
844.122	30.82
844.292	24.16
844.462	18.82
844.633	25.25
844.803	37.25
844.973	44.34
845.144	40.67
845.314	36.26
845.484	43.72
845.654	48.4
845.824	35.84
845.995	29.47
846.165	28.57
846.335	46.52
846.505	45
846.675	24.51
846.845	8.76
847.015	0.16
847.185	9.16
847.355	7.38
847.525	12.58
847.695	19.53
847.865	12.33
848.035	27.82
848.205	7.29
848.375	16.68
848.545	16.64
848.715	34.56
848.884	42.66
849.054	22.21
849.224	26.45
849.394	26.01
849.564	22
849.733	33.67
849.903	4.2
850.073	24.11
850.243	8.77
850.412	7.35
850.582	-8.38
850.752	-8.26
850.921	19.27
851.091	11.61
851.26	17.11
851.43	18.34
851.599	22.65
851.769	27.08
851.939	29.32
852.108	24.33
852.278	53.21
852.447	67.43
852.616	64.59
852.786	63.19
852.955	78.35
853.125	44.99
853.294	58.53
853.463	32.03
853.633	79.19
853.802	42.62
853.971	21.18
854.141	18.75
854.31	4.42
854.479	-26.99
854.648	-6.52
854.818	-11.92
854.987	16.33
855.156	25.42
855.325	68.43
855.494	45.45
855.663	42.3
855.832	57.28
856.001	87.16
856.171	57.32
856.34	67.11
856.509	27.63
856.678	11.13
856.847	31.94
857.016	2.44
857.185	-0.01
857.353	18.99
857.522	31.54
857.691	48.94
857.86	39.71
858.029	66.17
858.198	60
858.367	62.9
858.535	70.26
858.704	60.97
858.873	63.87
859.042	72.66
859.21	72.84
859.379	51.65
859.548	31.23
859.717	22.9
859.885	25.24
860.054	29.06
860.222	24.78
860.391	19.17
860.56	21.13
860.728	30.16
860.897	18.82
861.065	21.77
861.234	28.45
861.402	31.37
861.571	33.86
861.739	17.69
861.908	19.79
862.076	20.09
862.244	22.26
862.413	18.93
862.581	0.72
862.749	-21.63
862.918	-67
863.086	-117.66
863.254	-78.73
863.423	-65.94
863.591	34.88
863.759	45.07
863.927	137.64
864.096	213.13
864.264	13.64
864.432	-75.38
864.6	354.83
864.768	169.07
864.936	237.26
865.104	147.38
865.272	94.4
865.44	88.96
865.608	52.77
865.776	20.11
865.944	40.75
866.112	61.08
866.28	67.78
866.448	47.87
866.616	73.29
866.784	45.46
866.952	34.11
867.12	32.15
867.288	38.25
867.455	56.11
867.623	75.93
867.791	61.43
867.959	63.14
868.127	60.88
868.294	80.69
868.462	71.04
868.63	86.53
868.797	105.31
868.965	159.33
869.133	167.92
869.3	178.53
869.468	89.41
869.636	116.08
869.803	99.9
869.971	102.8
870.138	81.59
870.306	67.9
870.473	56.22
870.641	48.37
870.808	54.68
870.975	57.07
871.143	48.93
871.31	56.16
871.478	13.23
871.645	36.11
871.812	-6.98
871.98	-49.19
872.147	-46.68
872.314	-8.9
872.482	-31.94
872.649	-106.54
872.816	-64.63
872.983	-119.03
873.15	-18.38
873.318	-7.2
873.485	9.14
873.652	96.11
873.819	88.84
873.986	71.23
874.153	80.33
874.32	77.47
874.487	91.61
874.654	79.89
874.821	70.51
874.988	73.6
875.155	70.22
875.322	59.92
875.489	49.33
875.656	56.95
875.823	43.19
875.99	41.53
876.157	44.36
876.324	37.85
876.49	48.96
876.657	39.3
876.824	33.13
876.991	35.54
877.157	17.25
877.324	24.83
877.491	27.63
877.658	23.32
877.824	1.17
877.991	24.47
878.157	22.02
878.324	12.71
878.491	24.91
878.657	19.26
878.824	23.46
878.99	44.32
879.157	61.98
879.323	40.38
879.49	73.15
879.656	88.04
879.823	66.37
879.989	64.76
880.156	66.24
880.322	77.27
880.488	85.42
880.655	86.09
880.821	84.55
880.987	83.11
881.154	101.89
881.32	83.61
881.486	74.41
881.652	72.28
881.819	71.08
881.985	63.22
882.151	54.18
882.317	47.13
882.483	44.59
882.649	43.54
882.816	40.24
882.982	39.88
883.148	38.9
883.314	38.8
883.48	38.47
883.646	36.35
883.812	37.97
883.978	38.64
884.144	39.72
884.31	40.42
884.476	40.16
884.642	41.58
884.807	42.48
884.973	42.74
885.139	44.38
885.305	45.42
885.471	47.34
885.637	48.58
885.802	49.21
885.968	50.48
886.134	49.07
886.3	49.46
886.465	48.76
886.631	44.82
886.797	43.96
886.962	43.16
887.128	41.06
887.293	39.55
887.459	27.22
887.625	30.84
887.79	25.28
887.956	34.25
888.121	34.07
888.287	32.82
888.452	35.02
888.618	43.25
888.783	32.97
