Data from CB_013_Reflection_1.txt Node
Date: Wed Nov 11 18:55:58 EST 2015
User: robert
Spectrometer: USB4E03001
Autoset integration time: false
Trigger mode: 4
Integration Time (sec): 1.000000E-1
Scans to average: 15
Electric dark correction enabled: true
Nonlinearity correction enabled: false
Boxcar width: 5
Stray light correction enabled: false
XAxis mode: Wavelengths
Stop averaging: false
Number of Pixels in Spectrum: 3648
>>>>>Begin Spectral Data<<<<<
177.566	-156.85
177.785	-542.64
178.005	-281.84
178.225	-2869.54
178.445	536.88
178.665	714.04
178.885	80.25
179.105	464.03
179.324	269.28
179.544	-142.52
179.764	-85.94
179.984	-78.26
180.204	226.63
180.423	-43.02
180.643	-94.14
180.863	398.81
181.083	1438.02
181.302	324.07
181.522	234.13
181.742	-24.13
181.961	129.63
182.181	90.38
182.401	147.81
182.621	690.74
182.84	201.61
183.06	182.53
183.279	273.7
183.499	729.15
183.719	661.94
183.938	465.16
184.158	930.96
184.377	-1743.94
184.597	-431.28
184.816	-310.46
185.036	-961.65
185.256	-336.39
185.475	1146.24
185.695	-14775.86
185.914	423.01
186.134	250.49
186.353	273.93
186.572	325.16
186.792	201.29
187.011	134.73
187.231	137.97
187.45	129.15
187.67	117.09
187.889	1788.92
188.108	509.19
188.328	914.11
188.547	-736.99
188.766	-1249.33
188.986	713.57
189.205	-42890.91
189.424	1393.65
189.644	8378.51
189.863	388.97
190.082	332.21
190.302	196.31
190.521	71.91
190.74	88.57
190.959	74.57
191.178	98.66
191.398	82.74
191.617	71.72
191.836	68.47
192.055	77.16
192.274	93.88
192.494	99.56
192.713	87.47
192.932	111.6
193.151	112.99
193.37	110.71
193.589	95.5
193.808	126.15
194.027	99.94
194.246	105.72
194.465	101.8
194.685	73.32
194.904	81.09
195.123	155.96
195.342	413.45
195.561	41.18
195.78	78.7
195.999	57.84
196.218	-596.18
196.436	187.24
196.655	910.95
196.874	-20.39
197.093	189.47
197.312	-32.89
197.531	35.31
197.75	-107.37
197.969	-62.34
198.188	-57.81
198.407	-55.84
198.625	-299.2
198.844	-342
199.063	-388.32
199.282	-300.4
199.501	-184.17
199.719	-301.09
199.938	-4295.31
200.157	345.12
200.376	346.31
200.594	417.48
200.813	-23728.57
201.032	1606.91
201.251	368.03
201.469	290.68
201.688	252.58
201.907	192.16
202.125	101.54
202.344	84.64
202.563	132.86
202.781	172
203	130.89
203.218	87.39
203.437	98.17
203.656	63.66
203.874	53.53
204.093	56.17
204.311	21.06
204.53	24.51
204.748	12.51
204.967	2.77
205.185	0.29
205.404	54.39
205.622	66.77
205.841	95.76
206.059	148.82
206.278	221.58
206.496	184.94
206.715	413.46
206.933	600.98
207.151	371.98
207.37	377.75
207.588	378.21
207.806	466.55
208.025	518.3
208.243	361.12
208.461	168.9
208.68	158.61
208.898	244.96
209.116	222.24
209.335	134.23
209.553	-359.43
209.771	220.33
209.989	-1112.61
210.208	-716.84
210.426	-554.04
210.644	-186.09
210.862	-65.54
211.081	-93.62
211.299	-90.95
211.517	-269.93
211.735	-281.76
211.953	-487.83
212.171	-103.63
212.39	-657.17
212.608	-3132.42
212.826	483.04
213.044	320.1
213.262	296.91
213.48	243.13
213.698	385.08
213.916	-1765.53
214.134	-668.9
214.352	-1459.03
214.57	1210.83
214.788	358.69
215.006	367.26
215.224	242.93
215.442	195.47
215.66	225.23
215.878	258.44
216.096	231.11
216.314	171.18
216.532	187.1
216.75	167.04
216.968	151.29
217.185	245.68
217.403	257.2
217.621	298.34
217.839	362.69
218.057	5231.66
218.275	-1840.3
218.492	-160.7
218.71	-63.21
218.928	-20.95
219.146	-4.7
219.363	-5.36
219.581	-30.81
219.799	-15.4
220.017	-24.56
220.234	-10.34
220.452	-33.81
220.67	-32.22
220.887	-91.27
221.105	-48.42
221.323	-72.9
221.54	-15.56
221.758	-6.94
221.976	-2.86
222.193	20.21
222.411	-6.47
222.629	-4.04
222.846	5.22
223.064	33.19
223.281	27.15
223.499	12.43
223.716	5.51
223.934	-70.92
224.151	-199.36
224.369	-121.8
224.586	96800
224.804	-108.63
225.021	-66.71
225.239	-163.21
225.456	-151.19
225.674	-120.76
225.891	-47.65
226.108	-36.51
226.326	-19.99
226.543	-32.47
226.76	-29.96
226.978	-21.95
227.195	-13.65
227.413	-13.66
227.63	0.38
227.847	-0.6
228.064	-0.94
228.282	2.03
228.499	7.18
228.716	4.96
228.934	5.46
229.151	7.37
229.368	9.1
229.585	7.01
229.802	9.35
230.02	7.1
230.237	5.58
230.454	9.24
230.671	9.04
230.888	2.81
231.105	1.93
231.323	3.94
231.54	5.01
231.757	2.86
231.974	4.55
232.191	5.84
232.408	3.61
232.625	5.44
232.842	2.73
233.059	3.57
233.276	10
233.493	10.86
233.71	13.02
233.927	10.58
234.144	13.44
234.361	6.81
234.578	4.32
234.795	7.44
235.012	-0.58
235.229	0.27
235.446	-2.82
235.663	-12.62
235.879	-1.38
236.096	-4.38
236.313	-18.32
236.53	-25.55
236.747	-14.85
236.964	-15.08
237.181	-20.67
237.397	-8.95
237.614	-7.52
237.831	-15.93
238.048	-8.37
238.264	-13.64
238.481	-15.78
238.698	-5.78
238.915	-4.72
239.131	-12.59
239.348	-15.21
239.565	-13.16
239.781	-16.32
239.998	-12.89
240.215	-11.71
240.431	-11.82
240.648	-11.26
240.865	-7.8
241.081	-7.39
241.298	-4.19
241.514	-0.77
241.731	1.21
241.947	3.29
242.164	4.69
242.38	3.12
242.597	4.08
242.814	3.92
243.03	3.41
243.246	5.22
243.463	6.73
243.679	5.47
243.896	3.35
244.112	2.85
244.329	1.61
244.545	2.42
244.762	3.61
244.978	9.19
245.194	8.12
245.411	7.2
245.627	5.2
245.843	5.58
246.06	9.16
246.276	11.14
246.492	11.91
246.709	11.73
246.925	10.34
247.141	10.59
247.357	9.28
247.574	10.54
247.79	10.86
248.006	10.83
248.222	10.78
248.439	9.51
248.655	8.87
248.871	7.85
249.087	8.19
249.303	8.38
249.519	7.81
249.736	7.14
249.952	5.27
250.168	3.22
250.384	3.4
250.6	3.44
250.816	3.15
251.032	2.63
251.248	3.9
251.464	3.06
251.68	2.58
251.896	5.27
252.112	4.27
252.328	5.77
252.544	7.86
252.76	7.36
252.976	6.29
253.192	7.37
253.408	6.95
253.624	7.22
253.84	5.12
254.056	5.68
254.272	-1.84
254.487	-1.21
254.703	-0.08
254.919	0.71
255.135	0.28
255.351	1.05
255.567	0.95
255.782	2.29
255.998	1.46
256.214	4.01
256.43	4.56
256.646	7.83
256.861	4.47
257.077	0.63
257.293	-4.05
257.508	-1.89
257.724	-3.41
257.94	-3.44
258.155	-2.5
258.371	-0.46
258.587	1.41
258.802	1.86
259.018	2.17
259.234	3.97
259.449	4.98
259.665	5.78
259.88	6.06
260.096	6.17
260.312	6.65
260.527	7.21
260.743	7.07
260.958	6.19
261.174	6.75
261.389	6.98
261.605	6.87
261.82	7.3
262.036	7.84
262.251	7.59
262.466	8.91
262.682	7.88
262.897	6.89
263.113	4.99
263.328	5.8
263.543	5.53
263.759	5.62
263.974	4.78
264.189	2.66
264.405	2.4
264.62	2.73
264.835	1.38
265.051	2.08
265.266	-1.31
265.481	-0.59
265.696	-1.41
265.912	-2.77
266.127	-1.37
266.342	-0.73
266.557	-1.39
266.773	-1.94
266.988	-3.5
267.203	-3.98
267.418	-3.6
267.633	-1.97
267.848	-1.75
268.064	-0.53
268.279	0.23
268.494	-0.66
268.709	-0.75
268.924	0.49
269.139	0.89
269.354	1.78
269.569	4.68
269.784	4.2
269.999	4.75
270.214	4.61
270.429	2.73
270.644	2.35
270.859	2.71
271.074	3.46
271.289	2.64
271.504	3.74
271.719	3.07
271.934	1.03
272.149	0.69
272.363	1.42
272.578	2.19
272.793	4.6
273.008	4.61
273.223	5.01
273.438	4.38
273.653	5.2
273.867	4.71
274.082	4.15
274.297	4.91
274.512	4.95
274.726	4.38
274.941	3.62
275.156	1.73
275.371	0.32
275.585	-0.9
275.8	-0.52
276.015	-1.55
276.229	-4.97
276.444	-4.38
276.659	-5.94
276.873	-5.92
277.088	-5.24
277.302	-5.84
277.517	-5.7
277.732	-4.82
277.946	-5.3
278.161	-5.1
278.375	-3.86
278.59	-1.86
278.804	-1.21
279.019	0.3
279.233	1.25
279.448	1.29
279.662	2.6
279.877	1.47
280.091	4.08
280.306	5.26
280.52	5.66
280.735	4.12
280.949	6.16
281.163	6.5
281.378	6.31
281.592	6.35
281.806	5.44
282.021	4.39
282.235	5.08
282.449	3.59
282.664	2.25
282.878	0.92
283.092	3.13
283.307	2.19
283.521	2.76
283.735	2.95
283.949	2.61
284.164	3.24
284.378	6.21
284.592	6.48
284.806	7.55
285.02	7.42
285.234	8.36
285.449	8.11
285.663	8.46
285.877	8.74
286.091	8.88
286.305	8.75
286.519	9.88
286.733	8.7
286.947	8.31
287.161	7.43
287.375	8.29
287.589	7.29
287.803	7.48
288.017	7.84
288.231	6.84
288.445	8.09
288.659	9.05
288.873	7.01
289.087	5.23
289.301	7.18
289.515	7.31
289.729	7.02
289.943	8.57
290.157	8.09
290.371	7.66
290.584	8.79
290.798	7.83
291.012	7.44
291.226	8.04
291.44	8.84
291.654	7.47
291.867	7.82
292.081	7.81
292.295	6.5
292.509	5.73
292.722	5.85
292.936	3.94
293.15	3.75
293.364	3.77
293.577	4.4
293.791	4.87
294.005	4.28
294.218	5.15
294.432	5.42
294.645	6.86
294.859	7.14
295.073	7.14
295.286	7.51
295.5	8.01
295.713	8.38
295.927	8.43
296.14	8.99
296.354	9.68
296.568	8.61
296.781	7.79
296.994	6.82
297.208	6.31
297.421	7.26
297.635	7.87
297.848	8.44
298.062	8.94
298.275	8.55
298.489	7.66
298.702	7.64
298.915	7.75
299.129	8.55
299.342	8.83
299.555	9.2
299.769	8.19
299.982	8.46
300.195	8.15
300.409	7.15
300.622	8
300.835	8.3
301.048	8.68
301.262	9.08
301.475	8.98
301.688	10.07
301.901	10.56
302.115	11.01
302.328	10.08
302.541	9.62
302.754	9.86
302.967	7.9
303.18	8.35
303.393	8.56
303.607	8.12
303.82	7.34
304.033	6.49
304.246	7.43
304.459	5.94
304.672	5.82
304.885	5.59
305.098	4.86
305.311	6.36
305.524	5.79
305.737	5.29
305.95	5.46
306.163	8.2
306.376	8.93
306.589	7.57
306.802	9.31
307.015	8.9
307.228	7.85
307.44	9.5
307.653	9.58
307.866	11.59
308.079	11.31
308.292	12.23
308.505	11.94
308.718	12.53
308.93	12.84
309.143	12.27
309.356	12.78
309.569	13.63
309.781	13.13
309.994	12.36
310.207	10.79
310.42	11.25
310.632	10.58
310.845	10.52
311.058	10.21
311.27	10.06
311.483	10.92
311.696	10.87
311.908	10.77
312.121	10.52
312.333	10.43
312.546	11.34
312.759	10.63
312.971	11.01
313.184	10.08
313.396	10
313.609	11.37
313.821	11.17
314.034	12.84
314.246	13.21
314.459	12.81
314.671	14.34
314.884	13.61
315.096	14.56
315.309	13.48
315.521	13.92
315.733	13.48
315.946	12.35
316.158	11.84
316.371	9.71
316.583	9.28
316.795	10.37
317.008	9.55
317.22	10
317.432	9.85
317.644	10.28
317.857	9.51
318.069	9.46
318.281	9.06
318.494	8.88
318.706	8.67
318.918	9.45
319.13	8.76
319.342	9.74
319.555	8.47
319.767	6.97
319.979	7.87
320.191	8.15
320.403	7.19
320.615	7.81
320.827	7
321.039	8.25
321.252	8.39
321.464	8.64
321.676	7.59
321.888	7.37
322.1	9.16
322.312	8.22
322.524	9.46
322.736	10.63
322.948	10.63
323.16	12.26
323.372	12.57
323.584	11.28
323.796	11.12
324.007	11.55
324.219	12.5
324.431	11.82
324.643	12.18
324.855	11.79
325.067	11.57
325.279	11.38
325.491	10.57
325.702	11.43
325.914	12.84
326.126	13.68
326.338	13.64
326.55	13.69
326.761	14.59
326.973	14.99
327.185	15.79
327.396	16.11
327.608	16.61
327.82	16.91
328.032	16.53
328.243	16.59
328.455	15.56
328.666	16.46
328.878	16.17
329.09	15.42
329.301	14.38
329.513	14.3
329.725	14.15
329.936	14.27
330.148	14.4
330.359	13.68
330.571	13.1
330.782	14.71
330.994	14.86
331.205	15.25
331.417	16.13
331.628	16.93
331.84	16.01
332.051	16.58
332.262	15.81
332.474	16.25
332.685	18.02
332.897	18.66
333.108	17.98
333.319	17.89
333.531	19.63
333.742	19
333.953	19.57
334.165	19.83
334.376	19.04
334.587	19.47
334.799	18.95
335.01	18.17
335.221	18.08
335.432	18.98
335.644	18.38
335.855	17.99
336.066	17.8
336.277	17.93
336.488	18.49
336.7	18.83
336.911	19.09
337.122	19.66
337.333	19.46
337.544	19.63
337.755	18.95
337.966	18.08
338.177	16.76
338.388	17.37
338.599	17.11
338.811	17.06
339.022	17.79
339.233	17.71
339.444	17.91
339.655	18.27
339.866	18.16
340.076	17.86
340.287	19.99
340.498	21.73
340.709	21.34
340.92	21.41
341.131	20.71
341.342	20.45
341.553	20.19
341.764	19.27
341.975	18.37
342.185	18.5
342.396	19.43
342.607	18.39
342.818	16.46
343.029	16.72
343.239	17.12
343.45	17.49
343.661	17.46
343.872	18.09
344.082	18.55
344.293	18.87
344.504	19.34
344.714	19.01
344.925	19.58
345.136	20.27
345.346	21.52
345.557	21.28
345.768	21.8
345.978	22.22
346.189	21.92
346.399	22.06
346.61	22.53
346.821	21.86
347.031	21.01
347.242	20.54
347.452	20.26
347.663	19.74
347.873	20.29
348.084	20.06
348.294	19.3
348.504	18.67
348.715	18.09
348.925	17.89
349.136	17.28
349.346	17.84
349.557	17.86
349.767	18.22
349.977	17.13
350.188	17.13
350.398	16.94
350.608	16.93
350.819	17.55
351.029	17.82
351.239	18.71
351.449	18.48
351.66	18.72
351.87	19.43
352.08	19.12
352.29	20.22
352.501	19.16
352.711	19.21
352.921	18.9
353.131	18.6
353.341	18.76
353.552	17.73
353.762	18.6
353.972	19.01
354.182	18.81
354.392	19.22
354.602	18.48
354.812	18.18
355.022	17.64
355.232	17.83
355.442	18.56
355.652	18.12
355.862	18.52
356.072	17.75
356.282	17.8
356.492	17.54
356.702	17.62
356.912	16.96
357.122	17.04
357.332	16.86
357.542	17.1
357.752	16.67
357.962	16.54
358.171	15.99
358.381	16.53
358.591	16.02
358.801	15.94
359.011	15.75
359.221	16.22
359.43	16.4
359.64	17.19
359.85	18.06
360.06	18.26
360.269	18.85
360.479	19.43
360.689	19.4
360.899	19.06
361.108	19.17
361.318	19.19
361.528	19.35
361.737	19.1
361.947	18.81
362.156	18.02
362.366	17.76
362.576	17.43
362.785	17.05
362.995	17.01
363.204	16.96
363.414	16.55
363.623	16.16
363.833	16.36
364.042	17.06
364.252	16.83
364.461	17.57
364.671	17.36
364.88	17.28
365.09	16.74
365.299	16.58
365.509	16.6
365.718	16.64
365.927	16.48
366.137	15.97
366.346	15.18
366.555	15.01
366.765	14.45
366.974	14.85
367.183	14.77
367.393	15.1
367.602	14.61
367.811	14.44
368.021	14.99
368.23	15.35
368.439	15.54
368.648	16.21
368.857	16.62
369.067	15.99
369.276	16
369.485	16.42
369.694	16.18
369.903	16.16
370.112	16.18
370.321	15.04
370.531	14.87
370.74	14.04
370.949	13.87
371.158	13.3
371.367	13.68
371.576	13.22
371.785	12.6
371.994	12.74
372.203	13.31
372.412	13.59
372.621	14.74
372.83	14.75
373.039	15.61
373.248	15.66
373.457	15.63
373.666	15.25
373.874	15.49
374.083	16.16
374.292	16
374.501	15.8
374.71	15.56
374.919	14.92
375.128	14.96
375.336	13.74
375.545	13.1
375.754	12.97
375.963	12.86
376.171	12.72
376.38	12.59
376.589	12.36
376.798	12.06
377.006	11.99
377.215	11.82
377.424	11.89
377.632	12.58
377.841	12.95
378.05	12.64
378.258	12.45
378.467	12.14
378.675	11.61
378.884	11.55
379.093	11.1
379.301	11.4
379.51	11.36
379.718	11.18
379.927	11.32
380.135	10.94
380.344	11.3
380.552	11.71
380.761	11.92
380.969	12.11
381.177	12.53
381.386	12.77
381.594	12.15
381.803	12.2
382.011	12
382.219	11.52
382.428	11.68
382.636	12.18
382.845	11.77
383.053	11.75
383.261	11.31
383.469	11.64
383.678	11.79
383.886	12.22
384.094	11.98
384.302	12.04
384.511	12.1
384.719	11.75
384.927	11.58
385.135	12.32
385.343	12.5
385.552	13.07
385.76	12.32
385.968	12.14
386.176	11.82
386.384	11.7
386.592	11.17
386.8	10.91
387.008	10.98
387.216	10.8
387.424	10.55
387.633	10.42
387.841	10.01
388.049	9.97
388.257	10.36
388.465	10.23
388.672	10.21
388.88	10.19
389.088	10.06
389.296	9.88
389.504	9.81
389.712	9.2
389.92	8.82
390.128	8.52
390.336	8.33
390.544	7.91
390.751	8.06
390.959	7.83
391.167	8.37
391.375	8.66
391.583	9.02
391.79	8.69
391.998	8.81
392.206	8.45
392.414	8.81
392.621	9.2
392.829	9.41
393.037	9.1
393.244	8.94
393.452	8.61
393.66	8.32
393.867	7.96
394.075	8.07
394.283	7.93
394.49	8.11
394.698	8.11
394.905	7.89
395.113	7.44
395.32	7.84
395.528	7.93
395.735	8.02
395.943	8.11
396.15	7.93
396.358	7.98
396.565	8
396.773	8.13
396.98	7.86
397.188	7.68
397.395	7.93
397.602	7.62
397.81	7.97
398.017	8.11
398.225	8.22
398.432	8.62
398.639	8.51
398.847	8.96
399.054	8.82
399.261	8.9
399.468	9.05
399.676	9.06
399.883	8.97
400.09	8.82
400.297	8.61
400.505	8.46
400.712	8.32
400.919	8.54
401.126	7.89
401.333	8.28
401.54	8.39
401.748	8.11
401.955	8.1
402.162	8.06
402.369	7.98
402.576	8.02
402.783	7.95
402.99	7.88
403.197	7.8
403.404	7.48
403.611	6.81
403.818	6.5
404.025	6.59
404.232	6.66
404.439	6.8
404.646	6.72
404.853	6.71
405.06	6.85
405.267	7
405.474	6.92
405.681	7.5
405.887	7.77
406.094	8.19
406.301	8.17
406.508	8.13
406.715	8.11
406.922	8.16
407.128	7.9
407.335	7.68
407.542	7.46
407.749	7.29
407.955	7.15
408.162	7.39
408.369	7.14
408.575	7.35
408.782	7.27
408.989	7.54
409.195	7.79
409.402	8.08
409.609	8.08
409.815	8.1
410.022	8.03
410.228	7.92
410.435	7.81
410.642	7.88
410.848	7.93
411.055	7.83
411.261	7.7
411.468	7.47
411.674	7.29
411.881	7.21
412.087	7.17
412.294	7.18
412.5	7.16
412.706	7.14
412.913	6.47
413.119	6.41
413.326	6.42
413.532	6.18
413.738	6.13
413.945	6.03
414.151	6.12
414.357	6.01
414.564	6.28
414.77	6.48
414.976	6.47
415.182	7.18
415.389	6.95
415.595	7.27
415.801	7.29
416.007	7.39
416.214	7.38
416.42	7.35
416.626	7.54
416.832	7.4
417.038	7.25
417.244	7.08
417.45	7.01
417.657	7.04
417.863	6.84
418.069	6.8
418.275	6.89
418.481	7.01
418.687	6.9
418.893	6.64
419.099	6.75
419.305	6.96
419.511	7.09
419.717	7.03
419.923	7.04
420.129	7.12
420.335	7.04
420.541	6.93
420.746	7.07
420.952	7.19
421.158	7.33
421.364	7.22
421.57	7.07
421.776	6.99
421.982	6.92
422.187	6.87
422.393	6.78
422.599	6.98
422.805	6.96
423.01	6.9
423.216	6.78
423.422	6.75
423.628	6.8
423.833	6.94
424.039	7.13
424.245	7.2
424.45	7.39
424.656	7.22
424.862	7.07
425.067	7.11
425.273	7.17
425.478	7.3
425.684	7.37
425.889	7.42
426.095	7.14
426.301	7.06
426.506	7.12
426.712	7.03
426.917	7.31
427.123	7.31
427.328	7.24
427.533	7.11
427.739	7.01
427.944	7.03
428.15	7.01
428.355	7.32
428.561	7.09
428.766	6.84
428.971	6.76
429.177	6.74
429.382	6.78
429.587	6.72
429.793	6.49
429.998	6.6
430.203	6.53
430.408	6.29
430.614	6.1
430.819	6.3
431.024	6.23
431.229	6.25
431.434	6.11
431.64	6.07
431.845	6.2
432.05	6.37
432.255	6.26
432.46	6.22
432.665	6.36
432.87	6.48
433.076	6.64
433.281	6.64
433.486	6.58
433.691	6.48
433.896	6.56
434.101	6.58
434.306	6.77
434.511	6.68
434.716	6.65
434.921	6.74
435.126	6.71
435.331	6.39
435.535	6.65
435.74	6.8
435.945	6.94
436.15	6.87
436.355	6.86
436.56	6.67
436.765	6.91
436.97	6.94
437.174	6.9
437.379	6.77
437.584	6.75
437.789	6.61
437.993	6.59
438.198	6.71
438.403	6.94
438.608	6.9
438.812	6.79
439.017	6.76
439.222	6.86
439.426	6.84
439.631	6.85
439.836	7
440.04	7.08
440.245	7.07
440.45	6.97
440.654	6.93
440.859	7
441.063	7.04
441.268	7.02
441.472	7.15
441.677	7.02
441.881	7.04
442.086	7.03
442.29	7.08
442.495	7.1
442.699	7.08
442.904	7.07
443.108	7.01
443.312	7.1
443.517	7.02
443.721	6.84
443.925	6.86
444.13	7.03
444.334	7.05
444.538	6.94
444.743	7.03
444.947	7
445.151	6.95
445.356	6.91
445.56	6.66
445.764	6.63
445.968	6.55
446.173	6.6
446.377	6.52
446.581	6.42
446.785	6.41
446.989	6.37
447.193	6.39
447.398	6.35
447.602	6.43
447.806	6.61
448.01	6.68
448.214	6.68
448.418	6.68
448.622	6.69
448.826	6.75
449.03	6.72
449.234	6.49
449.438	6.51
449.642	6.53
449.846	6.3
450.05	6.15
450.254	6.13
450.458	6.21
450.662	6.21
450.866	6.09
451.069	6.11
451.273	6.34
451.477	6.44
451.681	6.47
451.885	6.35
452.089	6.45
452.292	6.45
452.496	6.43
452.7	6.41
452.904	6.58
453.107	6.49
453.311	6.27
453.515	6.16
453.719	6.18
453.922	5.95
454.126	5.97
454.33	5.91
454.533	6.01
454.737	6.06
454.94	5.91
455.144	5.76
455.348	5.93
455.551	6.13
455.755	6.09
455.958	6.1
456.162	6.24
456.365	6.11
456.569	6.13
456.772	6.21
456.976	5.96
457.179	6.05
457.383	6.02
457.586	5.9
457.79	5.85
457.993	5.73
458.196	5.66
458.4	5.8
458.603	5.98
458.807	6.17
459.01	6.07
459.213	6.32
459.417	6.24
459.62	6.29
459.823	6.28
460.026	6.32
460.23	6.42
460.433	6.42
460.636	6.3
460.839	6.3
461.042	6.21
461.246	6.29
461.449	6.23
461.652	6.32
461.855	6.24
462.058	6.31
462.261	6.32
462.464	6.32
462.668	6.53
462.871	6.64
463.074	6.67
463.277	6.76
463.48	6.6
463.683	6.47
463.886	6.51
464.089	6.51
464.292	6.56
464.495	6.5
464.698	6.54
464.901	6.42
465.104	6.37
465.306	6.35
465.509	6.21
465.712	6.33
465.915	6.49
466.118	6.71
466.321	6.76
466.524	6.9
466.726	7.16
466.929	7.1
467.132	6.94
467.335	7.01
467.538	6.95
467.74	7.08
467.943	7.13
468.146	7.21
468.348	7.04
468.551	7.1
468.754	7.04
468.956	6.81
469.159	6.69
469.362	6.87
469.564	6.89
469.767	6.85
469.969	7.01
470.172	6.82
470.375	6.63
470.577	6.47
470.78	6.44
470.982	6.42
471.185	6.47
471.387	6.77
471.59	6.71
471.792	6.62
471.995	6.71
472.197	6.52
472.399	6.67
472.602	6.57
472.804	6.75
473.007	6.62
473.209	6.57
473.411	6.38
473.614	6.2
473.816	6.12
474.018	6.33
474.22	6.13
474.423	6.14
474.625	6.05
474.827	6.19
475.03	6.05
475.232	6.25
475.434	6.32
475.636	6.57
475.838	6.45
476.04	6.58
476.243	6.39
476.445	6.53
476.647	6.39
476.849	6.61
477.051	6.6
477.253	6.59
477.455	6.58
477.657	6.45
477.859	6.39
478.061	6.52
478.263	6.52
478.465	6.38
478.667	6.5
478.869	6.55
479.071	6.35
479.273	6.36
479.475	6.31
479.677	6.19
479.879	6.24
480.081	6.22
480.283	6.1
480.485	6.18
480.686	6.31
480.888	6.19
481.09	6.17
481.292	6.22
481.494	6.2
481.695	6.3
481.897	6.38
482.099	6.36
482.301	6.47
482.502	6.46
482.704	6.39
482.906	6.46
483.107	6.48
483.309	6.54
483.511	6.59
483.712	6.61
483.914	6.55
484.115	6.55
484.317	6.61
484.519	6.61
484.72	6.6
484.922	6.61
485.123	6.58
485.325	6.65
485.526	6.64
485.728	6.62
485.929	6.69
486.131	6.84
486.332	6.85
486.534	6.78
486.735	6.78
486.936	6.84
487.138	6.84
487.339	6.92
487.541	6.82
487.742	6.84
487.943	6.79
488.144	6.75
488.346	6.67
488.547	6.64
488.748	6.65
488.95	6.6
489.151	6.63
489.352	6.65
489.553	6.52
489.755	6.58
489.956	6.52
490.157	6.58
490.358	6.57
490.559	6.64
490.76	6.64
490.961	6.63
491.163	6.69
491.364	6.72
491.565	6.65
491.766	6.66
491.967	6.66
492.168	6.7
492.369	6.68
492.57	6.68
492.771	6.56
492.972	6.59
493.173	6.63
493.374	6.57
493.575	6.48
493.776	6.42
493.976	6.45
494.177	6.38
494.378	6.26
494.579	6.17
494.78	6.26
494.981	6.45
495.182	6.36
495.382	6.28
495.583	6.29
495.784	6.3
495.985	6.48
496.185	6.54
496.386	6.28
496.587	6.45
496.788	6.45
496.988	6.43
497.189	6.47
497.39	6.44
497.59	6.42
497.791	6.35
497.992	6.41
498.192	6.37
498.393	6.42
498.593	6.8
498.794	6.72
498.994	6.76
499.195	6.76
499.395	6.75
499.596	6.89
499.796	6.87
499.997	6.95
500.197	6.62
500.398	6.64
500.598	6.6
500.799	6.47
500.999	6.44
501.199	6.66
501.4	6.59
501.6	6.7
501.801	6.55
502.001	6.65
502.201	6.66
502.402	7.04
502.602	6.97
502.802	6.96
503.002	7.07
503.203	7.31
503.403	7.19
503.603	7.23
503.803	7.06
504.003	7.08
504.204	7.22
504.404	7.43
504.604	7.34
504.804	7.33
505.004	7.26
505.204	7.11
505.404	7.05
505.604	7.2
505.804	7.26
506.005	7.16
506.205	7.38
506.405	7.33
506.605	7.38
506.805	7.38
507.005	7.51
507.204	7.64
507.404	7.69
507.604	7.56
507.804	7.43
508.004	7.51
508.204	7.63
508.404	7.53
508.604	7.46
508.804	7.45
509.003	7.64
509.203	7.87
509.403	7.88
509.603	7.95
509.803	8.24
510.002	8.36
510.202	8.41
510.402	8.51
510.602	8.56
510.801	8.77
511.001	8.82
511.201	8.72
511.4	8.68
511.6	8.84
511.8	8.88
511.999	8.78
512.199	8.8
512.398	8.92
512.598	9.06
512.797	9.33
512.997	9.15
513.197	9.23
513.396	9.44
513.596	9.43
513.795	9.41
513.994	9.54
514.194	9.56
514.393	9.58
514.593	9.54
514.792	9.59
514.992	9.64
515.191	9.9
515.39	9.85
515.59	10.01
515.789	10.11
515.988	10.18
516.188	10.34
516.387	10.65
516.586	10.86
516.786	10.86
516.985	10.88
517.184	10.81
517.383	10.78
517.582	10.79
517.782	10.74
517.981	10.8
518.18	10.86
518.379	10.83
518.578	10.78
518.777	10.71
518.976	10.76
519.176	10.81
519.375	10.85
519.574	10.96
519.773	11.11
519.972	11.09
520.171	11.17
520.37	11.28
520.569	11.36
520.768	11.39
520.967	11.5
521.166	11.65
521.365	11.81
521.564	11.73
521.762	11.8
521.961	11.81
522.16	12.01
522.359	12.04
522.558	12.16
522.757	12.21
522.956	12.19
523.154	12.28
523.353	12.37
523.552	12.4
523.751	12.78
523.949	12.88
524.148	13.05
524.347	13.06
524.546	13.21
524.744	13.17
524.943	13.36
525.142	13.46
525.34	13.57
525.539	13.65
525.737	13.59
525.936	13.51
526.135	13.57
526.333	13.52
526.532	13.6
526.73	13.52
526.929	13.65
527.127	13.73
527.326	13.92
527.524	14
527.723	14.02
527.921	14.22
528.12	14.32
528.318	14.42
528.516	14.52
528.715	14.66
528.913	14.81
529.112	14.79
529.31	14.82
529.508	14.84
529.707	14.88
529.905	14.96
530.103	14.96
530.301	14.96
530.5	15.01
530.698	15.13
530.896	14.99
531.094	15.03
531.293	15.31
531.491	15.25
531.689	15.27
531.887	15.38
532.085	15.45
532.283	15.52
532.481	15.73
532.68	15.78
532.878	15.85
533.076	16.09
533.274	16.16
533.472	16.05
533.67	16.12
533.868	16.24
534.066	16.27
534.264	16.35
534.462	16.42
534.66	16.46
534.858	16.48
535.056	16.47
535.253	16.43
535.451	16.42
535.649	16.58
535.847	16.83
536.045	16.88
536.243	16.93
536.441	16.98
536.638	16.99
536.836	16.97
537.034	17.14
537.232	17.18
537.43	17.31
537.627	17.38
537.825	17.38
538.023	17.42
538.22	17.46
538.418	17.53
538.616	17.42
538.813	17.6
539.011	17.66
539.209	17.59
539.406	17.7
539.604	17.7
539.801	17.82
539.999	17.93
540.196	18.04
540.394	18.12
540.591	18.24
540.789	18.36
540.986	18.42
541.184	18.5
541.381	18.57
541.579	18.67
541.776	18.76
541.974	18.84
542.171	18.91
542.368	18.89
542.566	18.9
542.763	18.91
542.96	19.05
543.158	19.09
543.355	19.13
543.552	19.16
543.75	19.14
543.947	19.14
544.144	19.08
544.341	19.09
544.539	19.11
544.736	19.14
544.933	19.17
545.13	19.25
545.327	19.29
545.524	19.44
545.722	19.59
545.919	19.68
546.116	19.79
546.313	19.97
546.51	20.16
546.707	20.28
546.904	20.42
547.101	20.46
547.298	20.29
547.495	20.46
547.692	20.42
547.889	20.57
548.086	20.63
548.283	20.69
548.48	20.73
548.677	20.56
548.874	20.71
549.07	20.73
549.267	20.79
549.464	21.07
549.661	20.99
549.858	21.21
550.055	21.16
550.251	21.25
550.448	21.36
550.645	21.45
550.842	21.48
551.038	21.35
551.235	21.33
551.432	21.33
551.628	21.35
551.825	21.54
552.022	21.75
552.218	21.75
552.415	22.01
552.612	22.02
552.808	22.06
553.005	22.31
553.201	22.63
553.398	22.8
553.594	23.01
553.791	22.96
553.987	22.81
554.184	22.79
554.38	22.72
554.577	22.43
554.773	22.44
554.97	22.51
555.166	22.39
555.362	22.3
555.559	22.38
555.755	22.38
555.952	22.59
556.148	22.86
556.344	22.76
556.541	22.9
556.737	23.13
556.933	23.25
557.129	23.29
557.326	23.35
557.522	23.27
557.718	23.27
557.914	23.56
558.11	23.59
558.307	23.54
558.503	23.58
558.699	23.72
558.895	23.9
559.091	23.94
559.287	24
559.483	23.99
559.679	24.23
559.876	24.36
560.072	24.04
560.268	23.94
560.464	23.86
560.66	23.92
560.856	23.94
561.052	24
561.247	24.21
561.443	24.37
561.639	24.77
561.835	24.62
562.031	24.62
562.227	24.85
562.423	25.21
562.619	25.59
562.815	25.73
563.01	25.81
563.206	26
563.402	26.02
563.598	25.95
563.793	25.78
563.989	25.83
564.185	25.87
564.381	25.86
564.576	25.75
564.772	25.72
564.968	25.6
565.163	25.72
565.359	25.73
565.555	25.71
565.75	25.65
565.946	25.72
566.141	25.93
566.337	26.12
566.532	26.28
566.728	26.23
566.923	26.3
567.119	26.44
567.314	26.46
567.51	26.46
567.705	26.52
567.901	26.56
568.096	26.69
568.292	26.6
568.487	26.67
568.682	26.91
568.878	27.04
569.073	27.02
569.268	27.13
569.464	27.4
569.659	27.35
569.854	27.29
570.05	27.62
570.245	27.54
570.44	27.66
570.635	27.59
570.831	27.42
571.026	27.59
571.221	27.49
571.416	27.57
571.611	27.33
571.806	27.35
572.002	27.45
572.197	27.32
572.392	27.53
572.587	27.49
572.782	27.52
572.977	27.71
573.172	27.66
573.367	27.78
573.562	27.77
573.757	27.99
573.952	28.12
574.147	28.1
574.342	28.12
574.537	28.03
574.732	28.01
574.927	28.08
575.121	27.89
575.316	27.94
575.511	27.94
575.706	27.84
575.901	27.76
576.096	27.54
576.29	27.56
576.485	27.62
576.68	27.78
576.875	27.73
577.069	27.77
577.264	27.78
577.459	27.7
577.654	27.92
577.848	28.04
578.043	28.07
578.238	28.31
578.432	28.45
578.627	28.52
578.821	28.38
579.016	28.85
579.21	28.66
579.405	28.71
579.6	28.9
579.794	28.97
579.989	28.86
580.183	28.93
580.378	28.98
580.572	28.84
580.766	29.03
580.961	28.96
581.155	28.76
581.35	28.8
581.544	28.64
581.738	28.62
581.933	28.19
582.127	28.24
582.321	28.56
582.516	28.55
582.71	28.64
582.904	28.61
583.099	29.02
583.293	28.9
583.487	29.17
583.681	29.33
583.875	29.39
584.07	29.25
584.264	29.44
584.458	29.21
584.652	29.33
584.846	29.56
585.04	29.37
585.234	28.94
585.428	29.3
585.623	29.27
585.817	29.42
586.011	29.36
586.205	29.36
586.399	29.54
586.593	29.42
586.787	29.4
586.981	29.38
587.174	29.6
587.368	29.79
587.562	29.66
587.756	29.43
587.95	29.36
588.144	29.55
588.338	29.91
588.532	29.94
588.725	30.21
588.919	30.35
589.113	30.26
589.307	30.28
589.501	30.49
589.694	30.3
589.888	30.52
590.082	30.49
590.275	30.53
590.469	30.65
590.663	30.56
590.856	30.19
591.05	30.08
591.244	30.07
591.437	30.06
591.631	29.95
591.824	30.27
592.018	30.11
592.212	30.46
592.405	30.36
592.599	30.46
592.792	30.54
592.986	31.04
593.179	31.01
593.372	31.04
593.566	30.81
593.759	30.95
593.953	30.81
594.146	31.19
594.339	30.89
594.533	30.94
594.726	30.87
594.92	30.78
595.113	30.53
595.306	30.41
595.499	30.77
595.693	31.01
595.886	30.82
596.079	31.06
596.272	31.04
596.466	31.28
596.659	31.41
596.852	31.35
597.045	31.54
597.238	31.87
597.431	32.04
597.624	31.9
597.818	31.97
598.011	32.14
598.204	32.19
598.397	32.25
598.59	32.17
598.783	32.18
598.976	32.13
599.169	32.02
599.362	31.64
599.555	31.76
599.748	31.71
599.941	31.58
600.134	31.49
600.326	31.4
600.519	31.09
600.712	31.17
600.905	31.09
601.098	31.31
601.291	31.24
601.483	31.27
601.676	31.48
601.869	31.49
602.062	31.89
602.255	31.71
602.447	31.75
602.64	31.97
602.833	32.13
603.025	32.15
603.218	32.22
603.411	32.41
603.603	32.5
603.796	32.37
603.989	32.37
604.181	32.16
604.374	32.36
604.566	32.36
604.759	32.39
604.951	32.29
605.144	32.18
605.336	32.03
605.529	32.04
605.721	32.2
605.914	32
606.106	32.12
606.299	32.13
606.491	32.18
606.683	32.07
606.876	32.03
607.068	31.77
607.26	32.04
607.453	32.18
607.645	32.14
607.837	31.97
608.03	32.3
608.222	32.3
608.414	32.31
608.606	32.39
608.799	32.78
608.991	32.89
609.183	33.03
609.375	33
609.567	33.09
609.759	32.95
609.952	32.97
610.144	32.81
610.336	32.67
610.528	32.62
610.72	32.56
610.912	32.16
611.104	31.97
611.296	31.96
611.488	31.75
611.68	31.49
611.872	31.56
612.064	31.32
612.256	31.38
612.448	31.36
612.64	31.58
612.832	31.46
613.023	31.57
613.215	31.41
613.407	31.36
613.599	31.21
613.791	31.41
613.983	31.68
614.174	31.8
614.366	31.67
614.558	32.16
614.75	32.12
614.941	32.15
615.133	32.04
615.325	32.11
615.516	32.28
615.708	32.68
615.9	32.77
616.091	32.53
616.283	32.64
616.475	32.51
616.666	32.03
616.858	31.66
617.049	31.91
617.241	31.84
617.432	31.88
617.624	31.89
617.815	31.68
618.007	31.46
618.198	31.52
618.39	31.58
618.581	31.83
618.773	31.98
618.964	32.26
619.155	32.28
619.347	32.55
619.538	32.85
619.729	33.12
619.921	33.24
620.112	33.41
620.303	33.5
620.494	33.64
620.686	33.71
620.877	33.61
621.068	33.62
621.259	33.47
621.451	33.46
621.642	33.4
621.833	33.09
622.024	33.16
622.215	32.74
622.406	32.68
622.597	32.48
622.788	32.38
622.98	32.33
623.171	31.94
623.362	32.06
623.553	32.12
623.744	32.16
623.935	32.17
624.126	32.25
624.317	32.73
624.508	32.69
624.698	32.6
624.889	32.79
625.08	32.93
625.271	33.14
625.462	33
625.653	32.94
625.844	33
626.034	32.94
626.225	32.81
626.416	32.69
626.607	32.88
626.798	33.01
626.988	32.86
627.179	32.76
627.37	33.04
627.56	32.98
627.751	33.16
627.942	33.17
628.132	33.5
628.323	33.71
628.514	34.02
628.704	33.79
628.895	33.86
629.085	33.68
629.276	33.59
629.466	33.48
629.657	33.63
629.847	33.72
630.038	33.71
630.228	33.58
630.419	33.47
630.609	32.84
630.8	33.01
630.99	33.31
631.181	33.83
631.371	34.29
631.561	34.1
631.752	34.17
631.942	33.88
632.132	33.96
632.323	34.02
632.513	34.08
632.703	34.53
632.893	34.51
633.084	34.26
633.274	34.07
633.464	33.85
633.654	34.02
633.844	33.79
634.034	33.79
634.225	33.6
634.415	33.66
634.605	33.84
634.795	33.96
634.985	34.03
635.175	33.97
635.365	33.94
635.555	33.97
635.745	34.05
635.935	34.21
636.125	34.32
636.315	34.71
636.505	34.8
636.695	34.66
636.885	34.57
637.075	34.15
637.265	34.27
637.455	34.29
637.644	34.4
637.834	34.27
638.024	34.41
638.214	34.25
638.404	34.14
638.593	34.01
638.783	34.02
638.973	34.11
639.163	34.51
639.352	34.39
639.542	34.78
639.732	34.69
639.921	34.85
640.111	34.77
640.301	35.05
640.49	34.7
640.68	34.62
640.87	34.67
641.059	34.47
641.249	34.3
641.438	34.45
641.628	34.1
641.817	34.08
642.007	33.59
642.196	33.48
642.386	33.48
642.575	33.64
642.764	33.75
642.954	33.59
643.143	33.34
643.333	33.52
643.522	33.47
643.711	33.68
643.901	33.53
644.09	33.97
644.279	33.97
644.469	33.89
644.658	34
644.847	33.81
645.036	33.89
645.226	34.08
645.415	34.19
645.604	34.1
645.793	34.27
645.982	34.23
646.171	34.18
646.361	34.3
646.55	34.27
646.739	34.19
646.928	34.48
647.117	34.54
647.306	34.58
647.495	34.53
647.684	34.25
647.873	34.13
648.062	34.24
648.251	34.52
648.44	34.6
648.629	34.77
648.818	34.85
649.007	34.37
649.196	34.09
649.384	34.5
649.573	34.48
649.762	34.95
649.951	34.77
650.14	34.93
650.328	35.09
650.517	34.87
650.706	34.63
650.895	34.62
651.083	35.03
651.272	35.35
651.461	35.15
651.65	35.2
651.838	35.31
652.027	35.41
652.216	35.32
652.404	34.82
652.593	35.36
652.781	35.54
652.97	35.61
653.158	35.44
653.347	35.05
653.535	35.05
653.724	34.77
653.912	33.96
654.101	33.83
654.289	34.02
654.478	34.39
654.666	33.65
654.855	33.63
655.043	33.42
655.231	33.33
655.42	33.36
655.608	33.35
655.796	33.45
655.985	34.12
656.173	34.3
656.361	33.8
656.55	33.97
656.738	34.35
656.926	34.39
657.114	34.71
657.302	34.9
657.491	35.18
657.679	35.02
657.867	35.18
658.055	35.42
658.243	35.38
658.431	35.75
658.619	35.43
658.807	35.23
658.996	35.08
659.184	35.41
659.372	35.26
659.56	35.42
659.748	35.48
659.936	35.48
660.124	35.33
660.311	35.4
660.499	35.4
660.687	35.34
660.875	35.6
661.063	35.8
661.251	35.12
661.439	35.31
661.627	35.25
661.814	35.33
662.002	35.03
662.19	35.37
662.378	35.2
662.565	35.39
662.753	35.86
662.941	35.83
663.129	35.77
663.316	36.06
663.504	36.02
663.692	36.07
663.879	36.01
664.067	36.12
664.254	36.06
664.442	36.22
664.63	35.8
664.817	35.18
665.005	35.1
665.192	35.01
665.38	35.23
665.567	35.13
665.755	34.69
665.942	35.12
666.13	34.92
666.317	34.76
666.504	34.73
666.692	35.14
666.879	35.55
667.067	35.57
667.254	35.51
667.441	35.21
667.629	35.28
667.816	35.4
668.003	35.19
668.19	35.45
668.378	35.21
668.565	35.18
668.752	34.72
668.939	34.93
669.127	35.04
669.314	34.9
669.501	35.1
669.688	34.72
669.875	34.75
670.062	34.51
670.249	34.53
670.436	34.46
670.623	34.1
670.81	34.55
670.997	34.04
671.184	33.82
671.371	34.22
671.558	33.81
671.745	34.62
671.932	34.6
672.119	34.88
672.306	35.36
672.493	35.41
672.68	35.73
672.867	35.61
673.054	36.04
673.24	36.31
673.427	35.73
673.614	35.62
673.801	35.37
673.988	35.53
674.174	35.31
674.361	35.21
674.548	35.48
674.734	35.57
674.921	35.78
675.108	35.39
675.294	35.22
675.481	35.72
675.668	36.14
675.854	36.13
676.041	36.06
676.227	36.13
676.414	35.59
676.601	35.28
676.787	35.31
676.974	34.67
677.16	35.11
677.347	35.39
677.533	34.98
677.719	35.36
677.906	35.44
678.092	35.27
678.279	35.22
678.465	35.34
678.651	35.77
678.838	36
679.024	36.39
679.21	36.33
679.397	36.47
679.583	36.9
679.769	36.37
679.955	36.01
680.142	35.94
680.328	35.86
680.514	35.89
680.7	35.77
680.886	35.4
681.073	35.6
681.259	35.45
681.445	35.2
681.631	34.87
681.817	35.19
682.003	35.59
682.189	36.2
682.375	36.23
682.561	36.21
682.747	36.36
682.933	36.14
683.119	35.12
683.305	35.05
683.491	35.01
683.677	35.28
683.863	35.45
684.049	35.02
684.235	34.54
684.42	35.22
684.606	35.31
684.792	35.2
684.978	35.39
685.164	36.1
685.349	36.23
685.535	36.43
685.721	36.33
685.907	35.96
686.092	36.32
686.278	36.74
686.464	35.83
686.649	35.94
686.835	35.71
687.021	36.04
687.206	36.07
687.392	35.9
687.577	35.92
687.763	36.11
687.948	36.11
688.134	36.5
688.319	35.83
688.505	36.11
688.69	36.25
688.876	36.56
689.061	36.36
689.247	36.42
689.432	36.33
689.618	36.18
689.803	35.81
689.988	35.46
690.174	35.35
690.359	35.9
690.544	35.89
690.73	35.99
690.915	35.53
691.1	35.44
691.285	35.18
691.471	35.23
691.656	35.4
691.841	36.2
692.026	36.46
692.211	35.9
692.396	35.42
692.582	35.72
692.767	35.32
692.952	35.54
693.137	36.29
693.322	36.88
693.507	37.39
693.692	36.52
693.877	35.92
694.062	36.2
694.247	36.11
694.432	36.95
694.617	37.44
694.802	37.17
694.987	36.62
695.172	36.57
695.357	36.52
695.541	36.02
695.726	36.63
695.911	35.77
696.096	35.66
696.281	36.26
696.466	36
696.65	35.91
696.835	36.6
697.02	36.74
697.204	36.36
697.389	36.1
697.574	36.33
697.759	36.35
697.943	36.97
698.128	37.04
698.312	37.5
698.497	37.54
698.682	37.27
698.866	37.13
699.051	37.21
699.235	37.16
699.42	37.36
699.604	37.25
699.789	37.13
699.973	37.13
700.158	37.13
700.342	36.75
700.527	36.42
700.711	36.24
700.895	36.34
701.08	36.25
701.264	35.67
701.448	35.59
701.633	36.08
701.817	36.28
702.001	36.74
702.186	36.68
702.37	36.12
702.554	36.57
702.738	36.69
702.923	36.12
703.107	36.53
703.291	37.15
703.475	37.65
703.659	37.08
703.843	37.18
704.027	36.73
704.212	36.76
704.396	36.8
704.58	35.71
704.764	35.78
704.948	36.28
705.132	36.12
705.316	36.23
705.5	35.53
705.684	35.44
705.868	35.29
706.052	35.27
706.235	35.35
706.419	35.66
706.603	36.66
706.787	36.68
706.971	35.78
707.155	35.33
707.339	35.27
707.522	35.34
707.706	35.57
707.89	35.62
708.074	35.51
708.257	35.07
708.441	34.48
708.625	33.1
708.808	32.79
708.992	33.7
709.176	34.1
709.359	34.02
709.543	33.75
709.727	33.52
709.91	33.85
710.094	33.86
710.277	34.16
710.461	34.88
710.644	35.92
710.828	35.88
711.011	35.59
711.195	35.85
711.378	36.18
711.562	36.32
711.745	36.18
711.928	35.46
712.112	36.2
712.295	36.38
712.478	36.54
712.662	36.16
712.845	36.27
713.028	36.2
713.212	35.83
713.395	35.66
713.578	35.8
713.761	36.01
713.945	36.41
714.128	35.96
714.311	35.7
714.494	35.2
714.677	35.48
714.86	34.89
715.043	35.34
715.227	35.73
715.41	35.81
715.593	35.3
715.776	35.27
715.959	35.22
716.142	35.16
716.325	35.24
716.508	35.02
716.691	35.29
716.874	35.42
717.057	34.78
717.239	35.19
717.422	34.89
717.605	34.76
717.788	33.64
717.971	33.93
718.154	33.82
718.337	34.29
718.519	34.7
718.702	34.28
718.885	34.32
719.068	34.37
719.25	33.41
719.433	34.16
719.616	34.66
719.798	35.23
719.981	35.34
720.164	35.25
720.346	34.89
720.529	34.55
720.712	35.52
720.894	36.17
721.077	36.59
721.259	36.91
721.442	37.04
721.624	37.12
721.807	38.9
721.989	38.81
722.172	38.54
722.354	38.12
722.537	37.88
722.719	37.35
722.901	37.57
723.084	37.24
723.266	37.08
723.448	36.47
723.631	36.22
723.813	35.58
723.995	36.1
724.178	36.8
724.36	36.65
724.542	36.51
724.724	36.74
724.907	36.23
725.089	36.7
725.271	36.48
725.453	37
725.635	38.21
725.817	37.97
725.999	36.67
726.181	36.91
726.364	37.37
726.546	37.83
726.728	36.57
726.91	36.92
727.092	36.71
727.274	37.32
727.456	36.94
727.638	36.39
727.819	36.85
728.001	37.63
728.183	37.14
728.365	36.58
728.547	36.72
728.729	37.43
728.911	37.97
729.093	37.81
729.274	37.47
729.456	37.82
729.638	38.08
729.82	37.27
730.001	36.08
730.183	35.64
730.365	36.07
730.546	36.3
730.728	36.25
730.91	35.42
731.091	35.69
731.273	35.74
731.455	34.42
731.636	34.28
731.818	34.44
731.999	34.66
732.181	35.89
732.362	36.35
732.544	36.35
732.725	36.15
732.907	36.9
733.088	36.66
733.27	36.28
733.451	36.81
733.633	36.06
733.814	36.96
733.995	37.62
734.177	37.25
734.358	37.34
734.539	36.31
734.721	37.33
734.902	37.46
735.083	38.1
735.264	38.24
735.446	38.34
735.627	38.82
735.808	37.79
735.989	37.75
736.17	37.65
736.351	37.3
736.533	38.21
736.714	37.97
736.895	37.05
737.076	36.44
737.257	36.37
737.438	35.87
737.619	35.1
737.8	35.34
737.981	35.52
738.162	35.04
738.343	34.85
738.524	35.35
738.705	34.3
738.886	34.69
739.067	33.49
739.247	33.49
739.428	34.26
739.609	35.01
739.79	35.25
739.971	34.69
740.151	34.82
740.332	34.15
740.513	33.61
740.694	33.95
740.874	32.86
741.055	33.82
741.236	34.04
741.417	33.8
741.597	33.9
741.778	33.43
741.958	33.36
742.139	32.55
742.32	33.08
742.5	34.17
742.681	33.6
742.861	33.39
743.042	35.16
743.222	35.36
743.403	36.26
743.583	36.87
743.764	36.57
743.944	37.25
744.124	37.89
744.305	37.94
744.485	36.58
744.666	35.69
744.846	35.94
745.026	34.45
745.207	34.42
745.387	32.98
745.567	30.87
745.747	29.1
745.928	29
746.108	29.8
746.288	29.88
746.468	30.77
746.648	33.07
746.829	34.18
747.009	34.27
747.189	34.47
747.369	35.19
747.549	36.72
747.729	38.98
747.909	39.4
748.089	39.16
748.269	39.12
748.449	39.23
748.629	38.54
748.809	38.41
748.989	38.38
749.169	39.5
749.349	37.99
749.529	38.68
749.709	38.83
749.889	37.71
750.068	37.18
750.248	37.18
750.428	35.84
750.608	34.67
750.788	35.01
750.967	34.64
751.147	32.35
751.327	33.6
751.507	32.7
751.686	32.26
751.866	33.26
752.046	32.79
752.225	33.51
752.405	34.09
752.585	34.97
752.764	33.42
752.944	33.89
753.123	34.29
753.303	34.67
753.482	34.04
753.662	34.16
753.841	34.26
754.021	34.92
754.2	35.39
754.38	35.43
754.559	34.89
754.739	36.22
754.918	35.36
755.097	34.73
755.277	33.58
755.456	34.5
755.635	33.76
755.815	32.94
755.994	33.01
756.173	32.19
756.352	32.29
756.532	33.75
756.711	32.5
756.89	33.03
757.069	34.66
757.248	35.05
757.427	34.52
757.607	34.51
757.786	35.29
757.965	35.68
758.144	35.02
758.323	35.04
758.502	35.22
758.681	36.53
758.86	37.59
759.039	37.15
759.218	37.81
759.397	38.94
759.576	39.36
759.755	39.08
759.934	39.27
760.113	39.52
760.291	40.21
760.47	39.53
760.649	39.83
760.828	38.69
761.007	39.07
761.186	37.89
761.364	36.38
761.543	37.2
761.722	35.94
761.901	34.99
762.079	35.8
762.258	35.24
762.437	34.39
762.615	33.81
762.794	34.06
762.972	33.99
763.151	34.45
763.33	34.7
763.508	34.25
763.687	35.48
763.865	35.41
764.044	34.98
764.222	35.45
764.401	35.65
764.579	35.74
764.758	35.72
764.936	35.18
765.114	35.75
765.293	35.7
765.471	36.26
765.65	36.08
765.828	36.21
766.006	35.84
766.184	34.62
766.363	35.74
766.541	35.9
766.719	35.37
766.898	35.8
767.076	36.86
767.254	36.49
767.432	35.65
767.61	35.42
767.788	34.72
767.967	34.2
768.145	34.87
768.323	33.83
768.501	33.04
768.679	33.57
768.857	32.35
769.035	29.6
769.213	28.89
769.391	28.19
769.569	27.55
769.747	29.17
769.925	30.58
770.103	30.3
770.281	30.8
770.459	31.28
770.636	32.01
770.814	32.95
770.992	33.18
771.17	35.09
771.348	35.68
771.525	35.66
771.703	35.72
771.881	35.18
772.059	34.6
772.236	35.03
772.414	35.46
772.592	34.33
772.769	35.2
772.947	35.64
773.125	34.43
773.302	33.14
773.48	33.19
773.657	32.6
773.835	32.12
774.013	33.35
774.19	30.63
774.368	30.63
774.545	31.51
774.723	32.8
774.9	31.86
775.077	32.18
775.255	33.66
775.432	33.49
775.61	35.1
775.787	35.8
775.964	35.16
776.142	37.5
776.319	36.07
776.496	35.07
776.674	34.86
776.851	37.05
777.028	37.7
777.205	37.14
777.382	39.07
777.56	36.92
777.737	35.18
777.914	35.52
778.091	36.39
778.268	36.05
778.445	34.4
778.622	33.59
778.8	33.03
778.977	33.18
779.154	53
779.331	49.6
779.508	50.29
779.685	51.89
779.862	52.44
780.038	51.25
780.215	50.6
780.392	54.54
780.569	53.51
780.746	54.14
780.923	53.41
781.1	31.12
781.277	35.11
781.453	34.48
781.63	29.96
781.807	28.29
781.984	28.12
782.16	29.76
782.337	27.45
782.514	26.99
782.691	26.29
782.867	25.8
783.044	27.47
783.221	26.75
783.397	25.08
783.574	31
783.75	31.61
783.927	31.16
784.103	31.67
784.28	32.33
784.456	33.71
784.633	36.07
784.809	37.17
784.986	36.69
785.162	33.65
785.339	34.22
785.515	31.44
785.692	32.05
785.868	34.03
786.044	32.13
786.221	30.34
786.397	28.71
786.573	27.07
786.749	28.59
786.926	28.39
787.102	29.34
787.278	30.23
787.454	32.91
787.631	32.73
787.807	33.02
787.983	35.18
788.159	36.01
788.335	34.69
788.511	35.36
788.687	34.34
788.863	35.27
789.039	35.36
789.216	37.2
789.392	34.82
789.568	31.05
789.744	28.06
789.919	27.11
790.095	27.39
790.271	29.3
790.447	28.25
790.623	29.02
790.799	28.18
790.975	30.08
791.151	27.66
791.327	29.1
791.502	33.51
791.678	36.75
791.854	37.15
792.03	37.55
792.205	38.23
792.381	36.01
792.557	36.61
792.733	37.81
792.908	37.13
793.084	36.67
793.259	35.84
793.435	33.69
793.611	32.47
793.786	31.98
793.962	29.95
794.137	28.07
794.313	28.96
794.488	27.17
794.664	26.25
794.839	26.78
795.015	27.4
795.19	26.12
795.366	27.75
795.541	27.62
795.716	27.72
795.892	30.76
796.067	32.13
796.242	33.56
796.418	33.1
796.593	34.43
796.768	32.42
796.944	31.72
797.119	33.19
797.294	32.94
797.469	32.44
797.644	34.03
797.82	33.44
797.995	34.31
798.17	33.08
798.345	33.77
798.52	31.65
798.695	33.69
798.87	34.07
799.045	35.7
799.22	36.56
799.395	36.76
799.57	34.66
799.745	33.64
799.92	33.99
800.095	34.7
800.27	34.05
800.445	35.3
800.62	33.93
800.795	32.85
800.97	32.9
801.145	32.92
801.319	32.11
801.494	34.21
801.669	33.7
801.844	31.79
802.018	29.51
802.193	29.09
802.368	30.42
802.543	31.63
802.717	32.32
802.892	33.1
803.067	31.79
803.241	32.39
803.416	34.31
803.59	34.84
803.765	33.46
803.94	34.88
804.114	36.89
804.289	32.94
804.463	32.27
804.638	33.47
804.812	31.87
804.986	31.13
805.161	32.41
805.335	29.3
805.51	30.09
805.684	31.53
805.858	32.84
806.033	31.55
806.207	35.65
806.381	33.66
806.556	31.4
806.73	29.64
806.904	29.22
807.078	28.67
807.253	28.61
807.427	26.68
807.601	28.65
807.775	26.69
807.949	29.56
808.123	27.11
808.298	26.37
808.472	29.38
808.646	30.16
808.82	29.86
808.994	28.49
809.168	26.37
809.342	28.7
809.516	27.24
809.69	26.89
809.864	25.55
810.038	23.86
810.212	30.28
810.385	27.96
810.559	29.67
810.733	29.17
810.907	29.19
811.081	33.17
811.255	29.47
811.428	26.82
811.602	31.58
811.776	29.82
811.95	32.61
812.123	29.12
812.297	31.51
812.471	29.85
812.644	30.98
812.818	29.95
812.992	24.92
813.165	29.21
813.339	35.74
813.512	33.43
813.686	37.65
813.86	35.69
814.033	35.41
814.207	36.63
814.38	37.66
814.554	38.65
814.727	40.42
814.9	42.2
815.074	41.56
815.247	36.07
815.421	34.98
815.594	30.25
815.767	31.63
815.941	31.62
816.114	31.47
816.287	27.85
816.46	27.23
816.634	27.04
816.807	28.15
816.98	29.34
817.153	30.99
817.327	28.11
817.5	29.42
817.673	32.02
817.846	32.92
818.019	31.3
818.192	34.2
818.365	33.9
818.538	34.51
818.711	34.41
818.884	33.8
819.057	32
819.23	35.29
819.403	34.54
819.576	32.76
819.749	32.87
819.922	31.1
820.095	30.14
820.268	30.67
820.441	30.7
820.614	31.58
820.786	32.71
820.959	34.51
821.132	34.36
821.305	33.26
821.477	32.63
821.65	32.4
821.823	33.43
821.996	33.8
822.168	33.72
822.341	34.42
822.514	34.31
822.686	33.38
822.859	32.92
823.031	33.34
823.204	34.15
823.376	34.85
823.549	34.97
823.722	34.86
823.894	35
824.067	35.51
824.239	34.8
824.411	35.31
824.584	35.88
824.756	36.38
824.929	35.96
825.101	35.78
825.273	35.48
825.446	35.09
825.618	35.99
825.79	35.77
825.963	35.04
826.135	35.57
826.307	35.2
826.479	35.41
826.652	35.88
826.824	35.92
826.996	35.91
827.168	36.02
827.34	36.16
827.512	35.81
827.684	35.72
827.856	36.71
828.029	36.83
828.201	36.7
828.373	35.58
828.545	35.58
828.717	36.53
828.889	37.7
829.061	37.36
829.232	37.39
829.404	36.85
829.576	35.67
829.748	34.69
829.92	33.36
830.092	32.65
830.264	33.34
830.436	33.34
830.607	32.97
830.779	30.65
830.951	30.18
831.123	30.42
831.294	30.35
831.466	30.47
831.638	29.75
831.809	31.02
831.981	30.52
832.153	32.06
832.324	28.13
832.496	26.94
832.667	24.65
832.839	23.18
833.011	26.68
833.182	27.67
833.354	31.58
833.525	31.42
833.697	30.36
833.868	30.95
834.039	30.29
834.211	33.82
834.382	33.09
834.554	35.05
834.725	36.44
834.896	34.44
835.068	34.53
835.239	32.88
835.41	34.38
835.581	35.65
835.753	36.25
835.924	35.72
836.095	35.1
836.266	35.9
836.438	35.05
836.609	35.56
836.78	33.73
836.951	32.02
837.122	31.33
837.293	30.35
837.464	29.59
837.635	28.79
837.806	29.77
837.977	27.53
838.148	30.02
838.319	29.43
838.49	30.38
838.661	32.73
838.832	35.32
839.003	38.34
839.174	36.36
839.345	35.27
839.516	36.3
839.687	36.62
839.857	35.45
840.028	30.05
840.199	33.1
840.37	30.45
840.54	28.19
840.711	26.36
840.882	29.47
841.053	25.65
841.223	22.35
841.394	20.09
841.564	18.44
841.735	23.73
841.906	21.67
842.076	19.45
842.247	17.5
842.417	18.53
842.588	10.76
842.758	1.71
842.929	7.17
843.099	14.73
843.27	15.49
843.44	13.69
843.611	8.48
843.781	5.71
843.951	9.49
844.122	8.22
844.292	12.07
844.462	16.32
844.633	16.06
844.803	14.49
844.973	13.33
845.144	15.85
845.314	23.03
845.484	26.12
845.654	29.39
845.824	20.14
845.995	33.58
846.165	30.65
846.335	34.16
846.505	37.73
846.675	41.65
846.845	40.22
847.015	38.46
847.185	36.79
847.355	28.43
847.525	24.56
847.695	31.45
847.865	25.13
848.035	31.51
848.205	30.38
848.375	29.8
848.545	22.88
848.715	30.98
848.884	29.45
849.054	21.14
849.224	32.76
849.394	34.6
849.564	35.13
849.733	36.8
849.903	35.53
850.073	35.01
850.243	38.98
850.412	41.73
850.582	35.64
850.752	39.14
850.921	42.99
851.091	45.58
851.26	50.99
851.43	53.65
851.599	33.11
851.769	22.74
851.939	17.85
852.108	6.93
852.278	21.93
852.447	15.41
852.616	27.09
852.786	19.69
852.955	12.23
853.125	9.61
853.294	9.92
853.463	12.66
853.633	7
853.802	14.86
853.971	17.31
854.141	10.38
854.31	26.93
854.479	12.73
854.648	14.33
854.818	19.84
854.987	29.93
855.156	32.08
855.325	31.54
855.494	32.24
855.663	34.68
855.832	39.06
856.001	40.63
856.171	35.33
856.34	34.89
856.509	28.08
856.678	8.85
856.847	-3.7
857.016	4.23
857.185	17.45
857.353	21.95
857.522	2.88
857.691	-11.95
857.86	-4.77
858.029	-4.19
858.198	3.4
858.367	10.31
858.535	11.78
858.704	6.05
858.873	-14.92
859.042	-59.84
859.21	-61
859.379	-54.57
859.548	-60.81
859.717	-76.23
859.885	-65.67
860.054	-44.29
860.222	-13.6
860.391	-17.07
860.56	-13.93
860.728	-7.02
860.897	15.72
861.065	3.54
861.234	15.06
861.402	19.99
861.571	27.69
861.739	12.87
861.908	0.01
862.076	-18.15
862.244	10.36
862.413	-1.31
862.581	2.53
862.749	-2.77
862.918	1.11
863.086	-32.25
863.254	-19.09
863.423	-38.83
863.591	-9.16
863.759	-10.57
863.927	-9.9
864.096	-26.43
864.264	-46.96
864.432	-37.07
864.6	-52.84
864.768	-36.83
864.936	-17.3
865.104	-21.58
865.272	-23.4
865.44	-35.66
865.608	-30.85
865.776	-31.98
865.944	-34.98
866.112	-7.03
866.28	3.07
866.448	15.02
866.616	19.76
866.784	23.45
866.952	24.53
867.12	25.4
867.288	22.42
867.455	16.71
867.623	-4.18
867.791	24.23
867.959	4.93
868.127	-5.51
868.294	-3.91
868.462	0.57
868.63	-6.21
868.797	-2.11
868.965	-3.13
869.133	4.73
869.3	21.94
869.468	37.17
869.636	27.68
869.803	36.75
869.971	33.15
870.138	22.62
870.306	20.06
870.473	30.65
870.641	26.18
870.808	34.9
870.975	35.54
871.143	16.1
871.31	-13.02
871.478	-31.4
871.645	-42.28
871.812	-30.44
871.98	-12.33
872.147	-17.5
872.314	-8.43
872.482	0.51
872.649	6.94
872.816	13.76
872.983	17.33
873.15	26.64
873.318	38.54
873.485	34.17
873.652	23.73
873.819	26.26
873.986	19.43
874.153	25.4
874.32	25.65
874.487	6.78
874.654	17.6
874.821	25.68
874.988	32.61
875.155	33.47
875.322	38.18
875.489	36.38
875.656	33.13
875.823	43.84
875.99	33.63
876.157	33.03
876.324	37.61
876.49	23.78
876.657	18.41
876.824	8.45
876.991	4.84
877.157	12.02
877.324	19.64
877.491	11.97
877.658	18.2
877.824	12.16
877.991	10.83
878.157	-3.03
878.324	8.13
878.491	-3.45
878.657	15.06
878.824	21.01
878.99	8.74
879.157	-0.66
879.323	26.59
879.49	17.4
879.656	20.18
879.823	23.53
879.989	31.43
880.156	26.78
880.322	35.46
880.488	30.9
880.655	30.42
880.821	31.55
880.987	35.89
881.154	30.69
881.32	37.85
881.486	35.7
881.652	37.06
881.819	33.32
881.985	34.12
882.151	32.45
882.317	34.47
882.483	36.75
882.649	32.03
882.816	30.36
882.982	30
883.148	27.57
883.314	27.05
883.48	26.7
883.646	27.21
883.812	27.05
883.978	27.36
884.144	26.58
884.31	25.57
884.476	27.8
884.642	27.73
884.807	27.9
884.973	26.45
885.139	26.22
885.305	25.84
885.471	27.22
885.637	28.49
885.802	26.53
885.968	26.63
886.134	28.09
886.3	29.06
886.465	28.44
886.631	31.18
886.797	34.79
886.962	38.06
887.128	37.59
887.293	35.64
887.459	33.91
887.625	36.87
887.79	37.08
887.956	27.47
888.121	23.99
888.287	24.06
888.452	16.94
888.618	7.24
888.783	0.52
