Data from CB_031_Reflection_1.txt Node
Date: Wed Nov 11 20:53:30 EST 2015
User: robert
Spectrometer: USB4E03001
Autoset integration time: false
Trigger mode: 4
Integration Time (sec): 1.000000E-1
Scans to average: 15
Electric dark correction enabled: true
Nonlinearity correction enabled: false
Boxcar width: 5
Stray light correction enabled: false
XAxis mode: Wavelengths
Stop averaging: false
Number of Pixels in Spectrum: 3648
>>>>>Begin Spectral Data<<<<<
177.566	-142.23
177.785	-289.88
178.005	859.03
178.225	-280.31
178.445	-354.98
178.665	859.56
178.885	79.76
179.105	1782.61
179.324	140.78
179.544	168.2
179.764	-203.74
179.984	-358.79
180.204	14922.5
180.423	299.45
180.643	-1377.24
180.863	3082.13
181.083	397.37
181.302	838.07
181.522	858.46
181.742	-2382.71
181.961	-506.24
182.181	-4685.99
182.401	3214.11
182.621	-331.98
182.84	-239.23
183.06	-104.59
183.279	-176.16
183.499	-42.07
183.719	-67.68
183.938	-98.25
184.158	-39.53
184.377	-56.02
184.597	-75.9
184.816	-17.76
185.036	-75.95
185.256	-89.41
185.475	-163.99
185.695	-137.76
185.914	-249.94
186.134	-2277.43
186.353	3553.01
186.572	547.03
186.792	566.16
187.011	1212.45
187.231	2031.33
187.45	792.07
187.67	477.38
187.889	265.68
188.108	220.17
188.328	302.36
188.547	614.75
188.766	918.76
188.986	4017.67
189.205	4738.29
189.424	1584.89
189.644	596.61
189.863	605.57
190.082	2576.98
190.302	459.55
190.521	668.84
190.74	323.12
190.959	329.5
191.178	272.01
191.398	354.64
191.617	336.98
191.836	659.39
192.055	432.05
192.274	554.49
192.494	912.58
192.713	1417.23
192.932	3279.46
193.151	-354.19
193.37	-169.27
193.589	-242.32
193.808	-321.84
194.027	-390.21
194.246	-977.42
194.465	-189.73
194.685	-452.84
194.904	526.45
195.123	-286.72
195.342	40.95
195.561	-134.6
195.78	-5631.07
195.999	-185.84
196.218	-184.56
196.436	-600.99
196.655	1392.01
196.874	852.97
197.093	1915.18
197.312	-561.18
197.531	1444.77
197.75	673.15
197.969	687.87
198.188	824.73
198.407	421.92
198.625	336.76
198.844	495.57
199.063	-860.06
199.282	-406.08
199.501	59.31
199.719	-223.11
199.938	-243.93
200.157	566.99
200.376	57.81
200.594	-291.17
200.813	-287.73
201.032	475.24
201.251	318.41
201.469	414.53
201.688	285.81
201.907	812.88
202.125	605.91
202.344	2258.99
202.563	748.27
202.781	776.87
203	372.02
203.218	154.77
203.437	458.65
203.656	685.77
203.874	514.64
204.093	1040.64
204.311	511.53
204.53	184.81
204.748	217.2
204.967	535.96
205.185	7876.19
205.404	-296.03
205.622	-87.81
205.841	-38.42
206.059	-58.22
206.278	-60.29
206.496	-133.52
206.715	-351.18
206.933	-163.6
207.151	-356.64
207.37	-352.61
207.588	-589.07
207.806	-296.88
208.025	-467.58
208.243	375.34
208.461	200.35
208.68	157.34
208.898	-844.15
209.116	-16.36
209.335	-171.15
209.553	83.49
209.771	58.22
209.989	-150.91
210.208	49.6
210.426	97.02
210.644	448.99
210.862	942.5
211.081	372.21
211.299	311.4
211.517	263.82
211.735	992.99
211.953	366.06
212.171	594.19
212.39	-4268.75
212.608	-450.64
212.826	-248.01
213.044	-120.93
213.262	-118.79
213.48	-117.7
213.698	-125.97
213.916	-261.45
214.134	-357.34
214.352	-342.42
214.57	-146.73
214.788	-588.51
215.006	-1071.4
215.224	498.04
215.442	1332.71
215.66	844.76
215.878	813.66
216.096	486.83
216.314	707.08
216.532	1156.81
216.75	2018.46
216.968	632.46
217.185	307.02
217.403	275.83
217.621	766.34
217.839	261.15
218.057	419.14
218.275	728.88
218.492	-1011.41
218.71	309.26
218.928	167
219.146	210.1
219.363	926.47
219.581	-628.34
219.799	-99.8
220.017	-228.83
220.234	-218.89
220.452	-274.67
220.67	-543.96
220.887	4773.93
221.105	-851.37
221.323	-200.28
221.54	-191.46
221.758	-718.61
221.976	-314.2
222.193	-326.16
222.411	-222.35
222.629	-201.17
222.846	-242.68
223.064	-146.34
223.281	-60.65
223.499	-51.49
223.716	-93.4
223.934	-126.38
224.151	-71.77
224.369	-48.32
224.586	-35.21
224.804	-53.08
225.021	-47.28
225.239	-58.15
225.456	-66.64
225.674	-66.93
225.891	-56.03
226.108	-67.88
226.326	-38.92
226.543	-17.6
226.76	-9.9
226.978	-8.16
227.195	2.47
227.413	13.26
227.63	9.4
227.847	2.6
228.064	1.44
228.282	-0.08
228.499	2.41
228.716	9.17
228.934	10.28
229.151	11.02
229.368	11.5
229.585	8.84
229.802	5.32
230.02	5.54
230.237	6.06
230.454	7.01
230.671	3.5
230.888	4.21
231.105	4.48
231.323	3.31
231.54	4.18
231.757	0.94
231.974	1.64
232.191	-0.01
232.408	0.24
232.625	4.65
232.842	3.5
233.059	6.64
233.276	9.05
233.493	-4.87
233.71	-5.7
233.927	-9.86
234.144	-19.13
234.361	-18.05
234.578	-19.01
234.795	-28.91
235.012	-28.48
235.229	-23.32
235.446	-27.05
235.663	-34.98
235.879	-30.03
236.096	-24.65
236.313	-32.37
236.53	-22.43
236.747	-17.9
236.964	-17.86
237.181	-10.49
237.397	-9.34
237.614	-15.09
237.831	-11.27
238.048	-10.99
238.264	-15.6
238.481	-17.76
238.698	-13.67
238.915	-4.64
239.131	-7.35
239.348	-3.03
239.565	0.05
239.781	-1.9
239.998	-2.65
240.215	-2.39
240.431	-3.59
240.648	-0.87
240.865	3.33
241.081	1.6
241.298	-2.7
241.514	1.42
241.731	2.54
241.947	3.47
242.164	4.12
242.38	7.18
242.597	7.05
242.814	8.79
243.03	11.54
243.246	8.26
243.463	9.84
243.679	8.54
243.896	8.23
244.112	8
244.329	7.8
244.545	6.32
244.762	4.22
244.978	7.77
245.194	10.05
245.411	5.63
245.627	5.83
245.843	5.08
246.06	7.18
246.276	6.3
246.492	4.94
246.709	6
246.925	7.47
247.141	8.58
247.357	7.5
247.574	6.51
247.79	6.53
248.006	6.3
248.222	7.84
248.439	7.59
248.655	7.74
248.871	8.92
249.087	8.25
249.303	8.3
249.519	7.54
249.736	7.45
249.952	8.89
250.168	9.95
250.384	10.41
250.6	6.36
250.816	6.19
251.032	8.33
251.248	9.24
251.464	9.64
251.68	10.2
251.896	7.82
252.112	7.56
252.328	5.38
252.544	3.83
252.76	6.12
252.976	8.58
253.192	9.72
253.408	6.52
253.624	5.44
253.84	3.52
254.056	2.11
254.272	4.01
254.487	3.05
254.703	2.66
254.919	6.09
255.135	3.67
255.351	-2.88
255.567	-2.17
255.782	-0.94
255.998	-1.96
256.214	-4.15
256.43	-6.18
256.646	-5.88
256.861	-1.52
257.077	-0.22
257.293	-2.06
257.508	-0.21
257.724	3.55
257.94	4.28
258.155	6.12
258.371	6.72
258.587	8.68
258.802	6.7
259.018	7.24
259.234	5.43
259.449	6.46
259.665	6.69
259.88	7.78
260.096	7.08
260.312	7.04
260.527	5.97
260.743	6.21
260.958	5.26
261.174	6.87
261.389	5.8
261.605	6.85
261.82	4.85
262.036	5.22
262.251	2.25
262.466	2.45
262.682	1.11
262.897	3.81
263.113	4.76
263.328	6.78
263.543	5
263.759	5.4
263.974	4.9
264.189	5.84
264.405	4.6
264.62	3.64
264.835	4.7
265.051	2.23
265.266	0.86
265.481	1.17
265.696	-1.39
265.912	-0.84
266.127	-1.25
266.342	-1.02
266.557	-0.28
266.773	0.14
266.988	0.72
267.203	-1.76
267.418	-1.16
267.633	-2.2
267.848	-1.59
268.064	0.25
268.279	1.44
268.494	1.96
268.709	2.11
268.924	0.81
269.139	0.88
269.354	0.53
269.569	0.94
269.784	3.57
269.999	5.4
270.214	2.93
270.429	1.33
270.644	1.61
270.859	1.59
271.074	1.74
271.289	2.92
271.504	3.14
271.719	4.33
271.934	3.57
272.149	3.87
272.363	3.69
272.578	4.16
272.793	5.29
273.008	4.31
273.223	4.37
273.438	3.22
273.653	3.57
273.867	2.97
274.082	2.11
274.297	4.45
274.512	3.14
274.726	3.43
274.941	1.38
275.156	0.66
275.371	0.13
275.585	-1.2
275.8	-1.23
276.015	-1.24
276.229	-0.29
276.444	2.09
276.659	2.25
276.873	1.68
277.088	-0.08
277.302	0.64
277.517	1.49
277.732	1.12
277.946	2.55
278.161	2.9
278.375	2.36
278.59	2.76
278.804	0.21
279.019	-1.27
279.233	-0.4
279.448	1.39
279.662	1.91
279.877	1.64
280.091	3.44
280.306	4.97
280.52	8.11
280.735	7.97
280.949	7.63
281.163	8.85
281.378	8.73
281.592	9.68
281.806	9.21
282.021	10.22
282.235	8.98
282.449	7.96
282.664	7.58
282.878	6.03
283.092	5.54
283.307	4.93
283.521	4.03
283.735	4.34
283.949	3.12
284.164	2.34
284.378	2.69
284.592	4.09
284.806	2.57
285.02	2.67
285.234	1.85
285.449	2.05
285.663	2.33
285.877	4.01
286.091	3.07
286.305	3.09
286.519	4.04
286.733	4.46
286.947	4.66
287.161	7.08
287.375	6.99
287.589	8.03
287.803	8.46
288.017	9.24
288.231	8.15
288.445	10.01
288.659	9.78
288.873	9.08
289.087	9.11
289.301	8.41
289.515	8.1
289.729	8.52
289.943	7.84
290.157	8.18
290.371	8.18
290.584	8.27
290.798	8.55
291.012	8.86
291.226	9.18
291.44	7.73
291.654	7.29
291.867	6.33
292.081	7.24
292.295	7.79
292.509	7.36
292.722	6.86
292.936	7.77
293.15	6.02
293.364	5.14
293.577	5.74
293.791	6.85
294.005	7.98
294.218	8.44
294.432	7.43
294.645	7.83
294.859	8.13
295.073	8.54
295.286	8.57
295.5	10.08
295.713	10.77
295.927	11.03
296.14	11.04
296.354	10.86
296.568	10.32
296.781	10.01
296.994	9.73
297.208	10.02
297.421	10.05
297.635	9.99
297.848	9.8
298.062	10.3
298.275	10.87
298.489	11.11
298.702	11.63
298.915	12.63
299.129	11.48
299.342	11.56
299.555	10.84
299.769	9.74
299.982	8.34
300.195	7.63
300.409	7.36
300.622	5.24
300.835	5.03
301.048	5.39
301.262	3.78
301.475	5.45
301.688	6.16
301.901	7.28
302.115	8.07
302.328	9.22
302.541	10.66
302.754	9.77
302.967	11.19
303.18	10.45
303.393	9.01
303.607	10.01
303.82	11.02
304.033	10.25
304.246	9.59
304.459	10.05
304.672	10.31
304.885	9.05
305.098	9.66
305.311	8.78
305.524	8.83
305.737	8.85
305.95	9.4
306.163	8.29
306.376	8.44
306.589	8.55
306.802	9.43
307.015	8.34
307.228	9.08
307.44	8.32
307.653	8.22
307.866	7.54
308.079	8.08
308.292	7.85
308.505	7.99
308.718	8.4
308.93	8.14
309.143	7.75
309.356	9.79
309.569	9.94
309.781	10.05
309.994	10.61
310.207	11.41
310.42	12.13
310.632	11.17
310.845	10.69
311.058	10.72
311.27	12.48
311.483	12.54
311.696	12.05
311.908	11.02
312.121	11.16
312.333	10.59
312.546	10.62
312.759	10.27
312.971	11.08
313.184	11.22
313.396	10.83
313.609	9.77
313.821	9.35
314.034	8.99
314.246	9.93
314.459	10.31
314.671	10.69
314.884	10.05
315.096	9.84
315.309	10.3
315.521	11.28
315.733	11.53
315.946	11.15
316.158	10.44
316.371	10.81
316.583	10.94
316.795	11.33
317.008	11.83
317.22	11.68
317.432	11.22
317.644	10.76
317.857	10.46
318.069	10.59
318.281	10.65
318.494	11.63
318.706	11.77
318.918	11.72
319.13	11.58
319.342	11.71
319.555	11.5
319.767	11.32
319.979	12.26
320.191	11.64
320.403	11.04
320.615	10.5
320.827	9.86
321.039	8.83
321.252	8.28
321.464	8.36
321.676	8.62
321.888	9.08
322.1	9.76
322.312	9.84
322.524	9.57
322.736	10.11
322.948	10.26
323.16	10.69
323.372	11.88
323.584	13.22
323.796	14.48
324.007	14.26
324.219	14.46
324.431	13.64
324.643	13.41
324.855	14.25
325.067	14.23
325.279	14.94
325.491	15.42
325.702	15.83
325.914	15.6
326.126	15.39
326.338	15.71
326.55	15.91
326.761	17.25
326.973	17.71
327.185	17.67
327.396	18.73
327.608	18.58
327.82	19
328.032	17.92
328.243	16.47
328.455	16.23
328.666	16.63
328.878	17.56
329.09	17.37
329.301	17.61
329.513	17.02
329.725	17.2
329.936	17.2
330.148	16.71
330.359	16.95
330.571	17.76
330.782	17.67
330.994	17.74
331.205	17.16
331.417	17.98
331.628	16.63
331.84	17.79
332.051	16.74
332.262	17.46
332.474	18.06
332.685	17.87
332.897	18.48
333.108	18.43
333.319	17.74
333.531	19.15
333.742	19.34
333.953	20.14
334.165	20.5
334.376	20.9
334.587	20.31
334.799	20.14
335.01	20.4
335.221	21.63
335.432	21.39
335.644	21.84
335.855	21.27
336.066	20.49
336.277	20.11
336.488	19.93
336.7	20.52
336.911	20.72
337.122	19.39
337.333	20.44
337.544	18.81
337.755	18.84
337.966	18.87
338.177	17.31
338.388	18.4
338.599	18.8
338.811	18.8
339.022	18.4
339.233	18.12
339.444	19.55
339.655	18.53
339.866	18.86
340.076	19.49
340.287	19.3
340.498	21.04
340.709	20.15
340.92	20.71
341.131	20.86
341.342	20.6
341.553	20.35
341.764	20.99
341.975	20.1
342.185	20.59
342.396	20.96
342.607	21.21
342.818	21.01
343.029	21.95
343.239	21.34
343.45	21.74
343.661	22.55
343.872	22.65
344.082	21.48
344.293	22.86
344.504	22.6
344.714	21.79
344.925	22.35
345.136	21.59
345.346	20.53
345.557	20.57
345.768	19.46
345.978	18.6
346.189	18.38
346.399	18.87
346.61	17.98
346.821	17.92
347.031	17.66
347.242	17.37
347.452	17.96
347.663	17.93
347.873	18.3
348.084	18.69
348.294	19.17
348.504	19.51
348.715	19.08
348.925	19.49
349.136	20.14
349.346	20.04
349.557	19.44
349.767	19.78
349.977	20.3
350.188	19.78
350.398	19.39
350.608	20.03
350.819	20.34
351.029	20.9
351.239	20.5
351.449	20.14
351.66	20.43
351.87	20.75
352.08	20.35
352.29	20.01
352.501	20.03
352.711	20.27
352.921	19.71
353.131	19.8
353.341	19.06
353.552	20.19
353.762	19.85
353.972	20.11
354.182	19.88
354.392	18.52
354.602	18.45
354.812	18.81
355.022	19.64
355.232	20.21
355.442	20.25
355.652	20.9
355.862	19.89
356.072	20.53
356.282	20.55
356.492	20.21
356.702	21.1
356.912	20.96
357.122	20.43
357.332	20.28
357.542	19.63
357.752	19.52
357.962	19.46
358.171	19.82
358.381	19.06
358.591	18.77
358.801	19
359.011	19.77
359.221	19.63
359.43	18.93
359.64	18.42
359.85	18.32
360.06	17.18
360.269	17.31
360.479	17.21
360.689	17.13
360.899	17.25
361.108	17.04
361.318	16.7
361.528	17.1
361.737	18.14
361.947	18.42
362.156	18.5
362.366	18.69
362.576	18.08
362.785	17.8
362.995	18.01
363.204	17.84
363.414	17.81
363.623	17.51
363.833	16.48
364.042	15.94
364.252	15.62
364.461	15.28
364.671	15.84
364.88	16.13
365.09	16.55
365.299	17.04
365.509	17.39
365.718	17.42
365.927	17.68
366.137	18.49
366.346	18.67
366.555	19.04
366.765	18.95
366.974	18.86
367.183	18.57
367.393	18.85
367.602	18.41
367.811	17.84
368.021	17.92
368.23	17.79
368.439	17.8
368.648	18.34
368.857	17.44
369.067	17.59
369.276	17.85
369.485	18.13
369.694	17.26
369.903	16.34
370.112	16.04
370.321	16.12
370.531	15.91
370.74	15.84
370.949	15.46
371.158	15.47
371.367	15.25
371.576	14.9
371.785	14.42
371.994	14.57
372.203	15.46
372.412	15.96
372.621	15.95
372.83	15.87
373.039	15.51
373.248	14.43
373.457	14.18
373.666	13.91
373.874	13.62
374.083	13.72
374.292	13.42
374.501	13.32
374.71	12.91
374.919	12.69
375.128	12.3
375.336	12.97
375.545	13.65
375.754	13.67
375.963	13.69
376.171	13.65
376.38	13.53
376.589	13.04
376.798	12.63
377.006	13.02
377.215	12.72
377.424	12.74
377.632	11.81
377.841	11.51
378.05	11.63
378.258	11.57
378.467	11.86
378.675	11.42
378.884	11.78
379.093	11.89
379.301	11.3
379.51	11.51
379.718	11.52
379.927	12.2
380.135	12.21
380.344	12.01
380.552	12.11
380.761	11.81
380.969	12.34
381.177	12.27
381.386	11.89
381.594	11.9
381.803	11.4
382.011	11.69
382.219	11.29
382.428	11.18
382.636	11.41
382.845	11
383.053	10.92
383.261	10.65
383.469	10.91
383.678	11.18
383.886	11.02
384.094	11.25
384.302	10.89
384.511	10.96
384.719	11
384.927	10.67
385.135	10.42
385.343	10.74
385.552	10.7
385.76	10.35
385.968	10.37
386.176	10.26
386.384	9.97
386.592	9.82
386.8	9.57
387.008	9.73
387.216	9.38
387.424	9.96
387.633	9.47
387.841	9.24
388.049	8.91
388.257	8.81
388.465	9.34
388.672	9.41
388.88	9.59
389.088	9.77
389.296	9.67
389.504	9.92
389.712	9.42
389.92	9.43
390.128	9.15
390.336	9.34
390.544	8.81
390.751	8.3
390.959	8.25
391.167	8.45
391.375	8.36
391.583	7.82
391.79	8.01
391.998	8.11
392.206	8.13
392.414	8.53
392.621	8.68
392.829	9
393.037	9.13
393.244	9.22
393.452	8.68
393.66	8.62
393.867	8.73
394.075	8.54
394.283	8.14
394.49	7.96
394.698	7.76
394.905	7.47
395.113	7.32
395.32	7.29
395.528	7.06
395.735	6.98
395.943	6.81
396.15	6.91
396.358	6.75
396.565	6.96
396.773	7.01
396.98	7.05
397.188	7.08
397.395	7.22
397.602	6.98
397.81	7.02
398.017	6.96
398.225	7.13
398.432	7.4
398.639	7.71
398.847	7.57
399.054	7.66
399.261	7.59
399.468	7.43
399.676	7.4
399.883	7.95
400.09	7.62
400.297	7.85
400.505	7.86
400.712	7.72
400.919	7.5
401.126	7.82
401.333	7.62
401.54	7.71
401.748	7.66
401.955	7.3
402.162	7.08
402.369	7.28
402.576	7.45
402.783	7.31
402.99	7.11
403.197	7.4
403.404	7.14
403.611	7.08
403.818	6.86
404.025	7.1
404.232	7.08
404.439	6.78
404.646	6.72
404.853	6.31
405.06	6.15
405.267	6.21
405.474	6.04
405.681	6.24
405.887	6.19
406.094	6.38
406.301	6.51
406.508	6.79
406.715	7.06
406.922	7.39
407.128	7.57
407.335	7.6
407.542	7.1
407.749	6.77
407.955	6.76
408.162	6.98
408.369	6.8
408.575	6.61
408.782	6.31
408.989	6.26
409.195	5.9
409.402	5.71
409.609	5.55
409.815	5.75
410.022	5.92
410.228	5.8
410.435	5.55
410.642	5.62
410.848	5.34
411.055	5.54
411.261	5.24
411.468	5.41
411.674	5.57
411.881	5.64
412.087	5.73
412.294	5.63
412.5	5.6
412.706	5.55
412.913	5.33
413.119	5.6
413.326	5.52
413.532	5.66
413.738	5.59
413.945	5.67
414.151	5.88
414.357	5.76
414.564	5.67
414.77	5.79
414.976	5.99
415.182	6.1
415.389	6.33
415.595	6.49
415.801	6.46
416.007	6.47
416.214	6.6
416.42	6.48
416.626	6.8
416.832	6.75
417.038	6.52
417.244	6.61
417.45	6.77
417.657	6.48
417.863	6.43
418.069	6.26
418.275	6.3
418.481	6.33
418.687	6.4
418.893	6.3
419.099	6.38
419.305	6.38
419.511	6.16
419.717	6.08
419.923	6.14
420.129	6.05
420.335	6.25
420.541	6.12
420.746	5.98
420.952	5.87
421.158	5.89
421.364	5.83
421.57	5.82
421.776	5.82
421.982	5.75
422.187	5.75
422.393	5.78
422.599	5.67
422.805	5.76
423.01	5.64
423.216	5.67
423.422	5.62
423.628	5.48
423.833	5.6
424.039	5.57
424.245	5.75
424.45	5.66
424.656	5.64
424.862	5.49
425.067	5.39
425.273	5.34
425.478	5.26
425.684	5.22
425.889	5.22
426.095	5.11
426.301	5.11
426.506	4.81
426.712	4.69
426.917	4.53
427.123	4.64
427.328	4.66
427.533	4.84
427.739	4.71
427.944	4.46
428.15	4.71
428.355	4.56
428.561	4.46
428.766	4.48
428.971	4.56
429.177	4.64
429.382	4.45
429.587	4.3
429.793	4.22
429.998	4.06
430.203	4.16
430.408	3.99
430.614	4.12
430.819	4.35
431.024	4.42
431.229	4.55
431.434	4.55
431.64	4.68
431.845	4.84
432.05	4.91
432.255	5.28
432.46	5.37
432.665	5.38
432.87	5.31
433.076	5.15
433.281	5.18
433.486	5.13
433.691	5.17
433.896	5.18
434.101	5.18
434.306	5.19
434.511	5.07
434.716	4.99
434.921	5
435.126	4.95
435.331	5.05
435.535	4.96
435.74	4.8
435.945	4.68
436.15	4.6
436.355	4.47
436.56	4.44
436.765	4.32
436.97	4.38
437.174	4.44
437.379	4.88
437.584	4.83
437.789	4.87
437.993	5.03
438.198	5.1
438.403	5.12
438.608	5.23
438.812	5.28
439.017	5.44
439.222	5.57
439.426	5.57
439.631	5.34
439.836	5.53
440.04	5.68
440.245	5.65
440.45	5.69
440.654	5.61
440.859	5.47
441.063	5.34
441.268	5.38
441.472	5.34
441.677	5.2
441.881	5.22
442.086	5.3
442.29	5.15
442.495	5.27
442.699	5.15
442.904	5.03
443.108	5.22
443.312	5.21
443.517	5.1
443.721	5.07
443.925	5.08
444.13	4.99
444.334	4.68
444.538	4.79
444.743	4.62
444.947	4.63
445.151	4.83
445.356	4.84
445.56	4.83
445.764	4.93
445.968	4.94
446.173	5.06
446.377	5.13
446.581	5.26
446.785	5.21
446.989	5.17
447.193	5.2
447.398	5.15
447.602	5.12
447.806	5.09
448.01	5.07
448.214	5.18
448.418	5.17
448.622	5.29
448.826	5.26
449.03	5.19
449.234	5.27
449.438	5.3
449.642	5.56
449.846	5.35
450.05	5.53
450.254	5.56
450.458	5.26
450.662	5.29
450.866	4.95
451.069	4.72
451.273	4.74
451.477	4.62
451.681	4.62
451.885	4.39
452.089	4.63
452.292	4.56
452.496	4.55
452.7	4.88
452.904	4.64
453.107	4.68
453.311	4.67
453.515	4.67
453.719	4.82
453.922	4.84
454.126	4.61
454.33	4.54
454.533	4.59
454.737	4.39
454.94	4
455.144	4.11
455.348	4.14
455.551	4.17
455.755	4.35
455.958	4.2
456.162	3.97
456.365	4.37
456.569	4.65
456.772	4.66
456.976	4.65
457.179	4.9
457.383	4.93
457.586	5.1
457.79	5.09
457.993	4.74
458.196	4.88
458.4	5.1
458.603	4.92
458.807	4.84
459.01	4.8
459.213	4.76
459.417	4.64
459.62	4.61
459.823	4.43
460.026	4.48
460.23	4.73
460.433	4.72
460.636	4.65
460.839	4.71
461.042	4.59
461.246	4.58
461.449	4.62
461.652	4.82
461.855	4.93
462.058	5.14
462.261	5.24
462.464	5.07
462.668	4.96
462.871	4.89
463.074	4.97
463.277	4.96
463.48	4.94
463.683	5.11
463.886	4.91
464.089	4.77
464.292	4.57
464.495	4.5
464.698	4.58
464.901	4.67
465.104	4.73
465.306	4.61
465.509	4.57
465.712	4.65
465.915	4.41
466.118	4.45
466.321	4.55
466.524	4.82
466.726	4.91
466.929	4.84
467.132	4.71
467.335	4.75
467.538	4.7
467.74	4.66
467.943	4.58
468.146	4.72
468.348	4.87
468.551	4.95
468.754	4.88
468.956	4.9
469.159	4.93
469.362	4.92
469.564	5.02
469.767	5.18
469.969	5.31
470.172	5.21
470.375	5.24
470.577	5.02
470.78	4.92
470.982	4.84
471.185	4.79
471.387	4.89
471.59	5.07
471.792	4.95
471.995	4.79
472.197	4.76
472.399	4.9
472.602	4.82
472.804	4.92
473.007	5.03
473.209	4.9
473.411	4.81
473.614	4.62
473.816	4.45
474.018	4.46
474.22	4.56
474.423	4.61
474.625	4.65
474.827	4.65
475.03	4.58
475.232	4.44
475.434	4.53
475.636	4.54
475.838	4.8
476.04	4.97
476.243	5.01
476.445	5.08
476.647	5.17
476.849	5.3
477.051	5.14
477.253	5.06
477.455	5.11
477.657	5.07
477.859	5.18
478.061	5.09
478.263	4.94
478.465	4.79
478.667	4.68
478.869	4.51
479.071	4.4
479.273	4.57
479.475	4.36
479.677	4.17
479.879	3.98
480.081	3.85
480.283	3.83
480.485	3.9
480.686	4.04
480.888	3.96
481.09	3.97
481.292	3.98
481.494	3.93
481.695	4.19
481.897	4.35
482.099	4.51
482.301	4.57
482.502	4.55
482.704	4.66
482.906	4.66
483.107	4.74
483.309	4.81
483.511	4.81
483.712	4.91
483.914	4.93
484.115	4.97
484.317	4.97
484.519	4.99
484.72	5
484.922	5
485.123	4.98
485.325	4.95
485.526	4.87
485.728	4.8
485.929	4.79
486.131	4.72
486.332	4.69
486.534	4.73
486.735	4.75
486.936	4.74
487.138	4.73
487.339	4.76
487.541	4.79
487.742	4.8
487.943	4.87
488.144	4.83
488.346	4.85
488.547	4.75
488.748	4.73
488.95	4.74
489.151	4.71
489.352	4.73
489.553	4.77
489.755	4.75
489.956	4.86
490.157	4.87
490.358	4.86
490.559	4.92
490.76	5.11
490.961	5.17
491.163	4.97
491.364	5.02
491.565	4.87
491.766	4.86
491.967	4.93
492.168	4.96
492.369	5.02
492.57	4.98
492.771	4.86
492.972	4.76
493.173	4.68
493.374	4.81
493.575	4.73
493.776	4.8
493.976	4.76
494.177	4.54
494.378	4.45
494.579	4.22
494.78	4.32
494.981	4.5
495.182	4.51
495.382	4.45
495.583	4.26
495.784	4.2
495.985	4.29
496.185	4.33
496.386	4.56
496.587	4.6
496.788	4.68
496.988	4.71
497.189	4.57
497.39	4.58
497.59	4.7
497.791	4.85
497.992	4.96
498.192	4.81
498.393	4.79
498.593	4.65
498.794	4.61
498.994	4.68
499.195	4.65
499.395	4.76
499.596	4.84
499.796	4.7
499.997	4.68
500.197	4.69
500.398	4.83
500.598	4.8
500.799	4.83
500.999	4.72
501.199	4.61
501.4	4.64
501.6	4.67
501.801	4.57
502.001	4.63
502.201	4.82
502.402	4.91
502.602	4.86
502.802	5.03
503.002	5.23
503.203	5.4
503.403	5.46
503.603	5.5
503.803	5.53
504.003	5.61
504.204	5.68
504.404	5.56
504.604	5.48
504.804	5.6
505.004	5.64
505.204	5.62
505.404	5.75
505.604	5.74
505.804	5.82
506.005	5.84
506.205	5.84
506.405	6
506.605	6.11
506.805	6.07
507.005	6.11
507.204	6.2
507.404	6.12
507.604	6.11
507.804	6.11
508.004	6.03
508.204	5.98
508.404	6.02
508.604	5.86
508.804	6
509.003	6.17
509.203	6.21
509.403	6.31
509.603	6.44
509.803	6.38
510.002	6.33
510.202	6.5
510.402	6.66
510.602	6.9
510.801	6.95
511.001	6.94
511.201	7
511.4	7.1
511.6	7.14
511.8	7.28
511.999	7.37
512.199	7.66
512.398	7.62
512.598	7.65
512.797	7.49
512.997	7.56
513.197	7.67
513.396	7.84
513.596	7.87
513.795	7.75
513.994	7.7
514.194	7.69
514.393	7.93
514.593	8.06
514.792	8.06
514.992	8.18
515.191	8.51
515.39	8.53
515.59	8.59
515.789	8.79
515.988	8.87
516.188	9.21
516.387	9.47
516.586	9.29
516.786	9.38
516.985	9.59
517.184	9.73
517.383	9.77
517.582	9.72
517.782	9.79
517.981	9.8
518.18	10.01
518.379	9.87
518.578	9.97
518.777	10.08
518.976	10.2
519.176	10.25
519.375	10.36
519.574	10.43
519.773	10.56
519.972	10.65
520.171	10.7
520.37	10.8
520.569	10.94
520.768	10.97
520.967	11.15
521.166	11.24
521.365	11.37
521.564	11.44
521.762	11.51
521.961	11.57
522.16	11.77
522.359	11.87
522.558	11.92
522.757	12.14
522.956	12.2
523.154	12.4
523.353	12.56
523.552	12.58
523.751	12.78
523.949	12.94
524.148	13.14
524.347	13.07
524.546	13.26
524.744	13.37
524.943	13.43
525.142	13.65
525.34	13.65
525.539	13.8
525.737	13.87
525.936	13.96
526.135	14.11
526.333	14.22
526.532	14.38
526.73	14.61
526.929	14.81
527.127	15
527.326	15.02
527.524	15.21
527.723	15.24
527.921	15.38
528.12	15.45
528.318	15.51
528.516	15.61
528.715	15.7
528.913	15.77
529.112	15.86
529.31	15.86
529.508	15.88
529.707	15.89
529.905	16.03
530.103	16.09
530.301	16.09
530.5	16.16
530.698	16.2
530.896	16.24
531.094	16.23
531.293	16.25
531.491	16.38
531.689	16.63
531.887	16.86
532.085	16.92
532.283	17.1
532.481	17.33
532.68	17.53
532.878	17.72
533.076	17.9
533.274	18
533.472	18.08
533.67	18.17
533.868	18.27
534.066	18.23
534.264	18.41
534.462	18.53
534.66	18.65
534.858	18.6
535.056	18.63
535.253	18.71
535.451	18.76
535.649	18.91
535.847	19.01
536.045	19.06
536.243	19.15
536.441	19.08
536.638	19.15
536.836	19.19
537.034	19.41
537.232	19.54
537.43	19.61
537.627	19.72
537.825	19.61
538.023	19.58
538.22	19.58
538.418	19.73
538.616	19.83
538.813	19.77
539.011	19.79
539.209	19.74
539.406	19.78
539.604	19.93
539.801	19.95
539.999	20.22
540.196	20.37
540.394	20.53
540.591	20.66
540.789	20.68
540.986	20.85
541.184	20.89
541.381	21.02
541.579	21.11
541.776	21.15
541.974	21.23
542.171	21.2
542.368	21.25
542.566	21.31
542.763	21.35
542.96	21.47
543.158	21.5
543.355	21.53
543.552	21.57
543.75	21.54
543.947	21.48
544.144	21.62
544.341	21.62
544.539	21.67
544.736	21.75
544.933	21.85
545.13	21.85
545.327	21.87
545.524	22.01
545.722	21.99
545.919	22
546.116	22.24
546.313	22.17
546.51	22.33
546.707	22.46
546.904	22.37
547.101	22.28
547.298	22.37
547.495	22.42
547.692	22.48
547.889	22.53
548.086	22.61
548.283	22.64
548.48	22.81
548.677	22.88
548.874	22.71
549.07	22.92
549.267	22.97
549.464	23.02
549.661	23.13
549.858	23.23
550.055	23.2
550.251	23.28
550.448	23.13
550.645	23.21
550.842	23.18
551.038	23.4
551.235	23.43
551.432	23.42
551.628	23.42
551.825	23.49
552.022	23.48
552.218	23.61
552.415	23.7
552.612	23.92
552.808	23.84
553.005	24.01
553.201	24
553.398	24.03
553.594	24.14
553.791	24.32
553.987	24.3
554.184	24.34
554.38	24.16
554.577	24.23
554.773	24.14
554.97	24.33
555.166	24.21
555.362	24.16
555.559	24.33
555.755	24.41
555.952	24.41
556.148	24.34
556.344	24.46
556.541	24.7
556.737	24.8
556.933	24.81
557.129	24.74
557.326	24.8
557.522	25.02
557.718	24.88
557.914	25.08
558.11	25.08
558.307	25.23
558.503	25.3
558.699	25.17
558.895	25.22
559.091	25.35
559.287	25.2
559.483	25.24
559.679	25.31
559.876	25.28
560.072	25.08
560.268	25.1
560.464	25.22
560.66	25.09
560.856	25.35
561.052	25.22
561.247	25.37
561.443	25.64
561.639	25.8
561.835	25.88
562.031	25.93
562.227	25.94
562.423	25.98
562.619	26.05
562.815	26.25
563.01	26.19
563.206	26.35
563.402	26.28
563.598	26.44
563.793	26.36
563.989	26.26
564.185	26.28
564.381	26.43
564.576	26.48
564.772	26.57
564.968	26.65
565.163	26.76
565.359	26.75
565.555	26.66
565.75	26.74
565.946	26.82
566.141	26.88
566.337	27.04
566.532	27.02
566.728	26.99
566.923	27.05
567.119	26.99
567.314	26.95
567.51	27.15
567.705	27.18
567.901	26.96
568.096	26.99
568.292	27.16
568.487	27.34
568.682	27.3
568.878	27.33
569.073	27.25
569.268	27.27
569.464	27.39
569.659	26.97
569.854	27.22
570.05	27.38
570.245	27.48
570.44	27.34
570.635	27.21
570.831	27.33
571.026	27.3
571.221	27.42
571.416	27.44
571.611	27.33
571.806	27.56
572.002	27.36
572.197	27.44
572.392	27.3
572.587	27.39
572.782	27.31
572.977	27.3
573.172	27.5
573.367	27.38
573.562	27.45
573.757	27.6
573.952	27.59
574.147	27.69
574.342	27.77
574.537	27.85
574.732	27.85
574.927	28.08
575.121	28.16
575.316	28
575.511	28.11
575.706	28.13
575.901	28.2
576.096	28.18
576.29	28.16
576.485	27.96
576.68	28.04
576.875	28
577.069	28.05
577.264	27.97
577.459	28.11
577.654	28.14
577.848	28.19
578.043	28.3
578.238	28.4
578.432	28.38
578.627	28.51
578.821	28.5
579.016	28.7
579.21	28.46
579.405	28.43
579.6	28.32
579.794	28.33
579.989	28.32
580.183	28.2
580.378	28.12
580.572	28.29
580.766	28.39
580.961	28.41
581.155	28.02
581.35	27.89
581.544	27.91
581.738	27.91
581.933	28
582.127	27.75
582.321	27.8
582.516	27.91
582.71	28.19
582.904	28.06
583.099	27.96
583.293	28.28
583.487	28.39
583.681	28.51
583.875	28.66
584.07	28.35
584.264	28.52
584.458	28.45
584.652	28.31
584.846	27.87
585.04	27.85
585.234	28
585.428	27.96
585.623	28.23
585.817	28.37
586.011	28.26
586.205	28.69
586.399	28.8
586.593	28.83
586.787	29.17
586.981	29.28
587.174	29.32
587.368	29.59
587.562	29.57
587.756	29.43
587.95	29.52
588.144	29.64
588.338	29.17
588.532	29.3
588.725	29.29
588.919	29.12
589.113	29.3
589.307	29.52
589.501	29.11
589.694	29.15
589.888	29.33
590.082	29.27
590.275	29.45
590.469	29.88
590.663	29.8
590.856	30.23
591.05	30.57
591.244	30.57
591.437	30.41
591.631	30.77
591.824	30.95
592.018	30.94
592.212	30.9
592.405	30.75
592.599	31.1
592.792	31.21
592.986	30.98
593.179	30.68
593.372	30.71
593.566	30.68
593.759	30.64
593.953	30.62
594.146	30.46
594.339	30.4
594.533	30.67
594.726	30.19
594.92	30.16
595.113	30.22
595.306	30
595.499	30.05
595.693	30.1
595.886	30.13
596.079	30.13
596.272	30.35
596.466	30.37
596.659	30.29
596.852	30.35
597.045	30.38
597.238	30.43
597.431	30.71
597.624	30.79
597.818	30.78
598.011	30.77
598.204	30.85
598.397	30.74
598.59	30.83
598.783	30.85
598.976	31.13
599.169	31.36
599.362	31.47
599.555	31.53
599.748	31.65
599.941	31.68
600.134	31.83
600.326	31.76
600.519	31.95
600.712	32.01
600.905	31.95
601.098	31.64
601.291	31.56
601.483	31.36
601.676	31.12
601.869	31.02
602.062	31.1
602.255	31.02
602.447	31
602.64	31.23
602.833	31.57
603.025	31.71
603.218	31.72
603.411	31.75
603.603	31.98
603.796	32.29
603.989	32.27
604.181	32.3
604.374	32.33
604.566	32.52
604.759	32.32
604.951	32.04
605.144	31.97
605.336	31.97
605.529	31.91
605.721	31.78
605.914	31.73
606.106	31.68
606.299	31.75
606.491	31.72
606.683	31.71
606.876	31.86
607.068	32.17
607.26	32.22
607.453	32.49
607.645	32.52
607.837	32.45
608.03	32.04
608.222	31.93
608.414	31.83
608.606	31.96
608.799	31.81
608.991	31.8
609.183	31.49
609.375	31.61
609.567	31.34
609.759	31.31
609.952	31.21
610.144	31.57
610.336	31.64
610.528	31.57
610.72	31.32
610.912	31.34
611.104	31.27
611.296	31.17
611.488	31.03
611.68	31.1
611.872	31.07
612.064	31.13
612.256	31.3
612.448	31.42
612.64	31.49
612.832	31.59
613.023	31.64
613.215	31.32
613.407	31.48
613.599	31.56
613.791	31.66
613.983	31.58
614.174	31.8
614.366	31.54
614.558	31.71
614.75	31.82
614.941	32.19
615.133	32.2
615.325	32.61
615.516	32.88
615.708	32.56
615.9	32.42
616.091	32.39
616.283	32.32
616.475	32.59
616.666	32.35
616.858	32.34
617.049	31.95
617.241	32.05
617.432	32.12
617.624	31.9
617.815	32.52
618.007	32.76
618.198	32.89
618.39	32.82
618.581	32.64
618.773	33
618.964	32.74
619.155	33
619.347	32.8
619.538	32.52
619.729	32.68
619.921	32.46
620.112	32.18
620.303	32.16
620.494	32.12
620.686	32.09
620.877	31.77
621.068	32.09
621.259	32.32
621.451	32.06
621.642	32.44
621.833	31.98
622.024	31.86
622.215	32.13
622.406	31.97
622.597	32.17
622.788	31.94
622.98	31.89
623.171	32.24
623.362	31.88
623.553	32.16
623.744	31.95
623.935	32.35
624.126	32.45
624.317	32.06
624.508	32.17
624.698	32.03
624.889	32.22
625.08	32.35
625.271	32.35
625.462	32.66
625.653	32.83
625.844	32.94
626.034	33.16
626.225	33.33
626.416	33.54
626.607	33.77
626.798	33.84
626.988	33.82
627.179	33.83
627.37	33.78
627.56	33.73
627.751	33.75
627.942	33.58
628.132	33.48
628.323	33.59
628.514	33.43
628.704	33.27
628.895	33.16
629.085	33.36
629.276	33.56
629.466	33.25
629.657	33
629.847	32.87
630.038	32.86
630.228	32.84
630.419	32.37
630.609	32.79
630.8	33.06
630.99	33.2
631.181	33.13
631.371	32.99
631.561	32.92
631.752	33.29
631.942	33.28
632.132	33.29
632.323	33.37
632.513	33.62
632.703	33.39
632.893	33.2
633.084	33.09
633.274	32.93
633.464	33.12
633.654	33.37
633.844	33.14
634.034	33.5
634.225	33.81
634.415	33.76
634.605	33.35
634.795	33.41
634.985	33.33
635.175	33.47
635.365	33.49
635.555	33.21
635.745	32.81
635.935	32.56
636.125	32.33
636.315	31.91
636.505	31.94
636.695	32.2
636.885	32.26
637.075	32.18
637.265	32.42
637.455	32.4
637.644	32.34
637.834	32.95
638.024	33.32
638.214	33.31
638.404	33.63
638.593	33.59
638.783	33.62
638.973	33.66
639.163	34.25
639.352	34.11
639.542	34.54
639.732	34.7
639.921	34.24
640.111	34.2
640.301	34.29
640.49	34.62
640.68	34.5
640.87	34.81
641.059	34.77
641.249	34.59
641.438	34.19
641.628	33.9
641.817	33.96
642.007	34.3
642.196	34.46
642.386	34.37
642.575	34.2
642.764	34.66
642.954	34.2
643.143	34.3
643.333	34.07
643.522	34.38
643.711	34.5
643.901	34.03
644.09	33.82
644.279	33.66
644.469	33.73
644.658	33.61
644.847	33.34
645.036	33.43
645.226	33.5
645.415	33.82
645.604	33.87
645.793	33.79
645.982	34.31
646.171	34.59
646.361	34.45
646.55	34.42
646.739	33.97
646.928	33.78
647.117	33.81
647.306	33.64
647.495	33.38
647.684	33.14
647.873	33.15
648.062	32.72
648.251	32.87
648.44	33.08
648.629	32.93
648.818	33.49
649.007	33.87
649.196	33.93
649.384	34.18
649.573	34.02
649.762	34.29
649.951	34.22
650.14	34.57
650.328	34.53
650.517	34.75
650.706	34.78
650.895	34.64
651.083	34.53
651.272	35.1
651.461	34.6
651.65	34.47
651.838	34.27
652.027	34.68
652.216	34.53
652.404	34.43
652.593	34.38
652.781	34.65
652.97	34.59
653.158	34.25
653.347	34.07
653.535	34.31
653.724	34.56
653.912	34.87
654.101	35.13
654.289	35.26
654.478	35.26
654.666	34.83
654.855	34.46
655.043	34.79
655.231	34.71
655.42	34.1
655.608	34.06
655.796	33.99
655.985	34.12
656.173	33.78
656.361	33.61
656.55	33.8
656.738	33.74
656.926	33.96
657.114	33.34
657.302	33.64
657.491	34.39
657.679	34.31
657.867	34.39
658.055	34.17
658.243	33.93
658.431	34.07
658.619	33.8
658.807	34.49
658.996	34.42
659.184	34.46
659.372	34.42
659.56	34.34
659.748	34.44
659.936	34.45
660.124	34.28
660.311	34.61
660.499	34.56
660.687	34.77
660.875	34.43
661.063	34.35
661.251	34.67
661.439	34.93
661.627	34.69
661.814	34.98
662.002	35.09
662.19	35.5
662.378	35.1
662.565	35.31
662.753	35.23
662.941	35.15
663.129	35.46
663.316	35.6
663.504	35.44
663.692	35.64
663.879	35.54
664.067	35.71
664.254	35.3
664.442	35.38
664.63	35.44
664.817	35.23
665.005	35.05
665.192	34.86
665.38	34.79
665.567	34.66
665.755	34.35
665.942	34.59
666.13	34.12
666.317	34.25
666.504	34.3
666.692	34.12
666.879	34.09
667.067	34.29
667.254	34.84
667.441	34.79
667.629	34.58
667.816	34.72
668.003	34.04
668.19	34.38
668.378	34.75
668.565	34.91
668.752	35.04
668.939	35.25
669.127	35.5
669.314	34.84
669.501	34.93
669.688	35.36
669.875	35.15
670.062	35.31
670.249	34.84
670.436	34.72
670.623	34.53
670.81	34.17
670.997	33.63
671.184	33.16
671.371	32.99
671.558	33.16
671.745	32.93
671.932	33.11
672.119	33.6
672.306	34.02
672.493	33.66
672.68	33.16
672.867	33.46
673.054	34.03
673.24	34.9
673.427	35.5
673.614	34.89
673.801	35.39
673.988	35.27
674.174	34.78
674.361	34.73
674.548	35.06
674.734	35.89
674.921	36.57
675.108	36.15
675.294	36.1
675.481	35.67
675.668	36.09
675.854	35.56
676.041	35.44
676.227	35.61
676.414	35.33
676.601	35.08
676.787	35.07
676.974	34.36
677.16	35.21
677.347	34.75
677.533	34.86
677.719	34.41
677.906	34.58
678.092	34.6
678.279	34.22
678.465	34.86
678.651	35.03
678.838	34.58
679.024	34.22
679.21	33.98
679.397	34.07
679.583	34.05
679.769	34.42
679.955	34.34
680.142	34.71
680.328	35.37
680.514	35.12
680.7	35.22
680.886	35.14
681.073	35.56
681.259	35.31
681.445	35.02
681.631	35.29
681.817	35.44
682.003	35.18
682.189	34.9
682.375	34.44
682.561	34.72
682.747	34.81
682.933	35.08
683.119	34.79
683.305	34.96
683.491	35.45
683.677	34.89
683.863	34.55
684.049	35.21
684.235	35.18
684.42	35.21
684.606	34.9
684.792	34.51
684.978	34.53
685.164	35.23
685.349	35.32
685.535	34.81
685.721	35.3
685.907	34.9
686.092	34.9
686.278	35.17
686.464	35.05
686.649	34.74
686.835	35.34
687.021	35.21
687.206	34.84
687.392	34.87
687.577	35.08
687.763	35.16
687.948	36.04
688.134	35.55
688.319	35.57
688.505	35.54
688.69	35.82
688.876	35.21
689.061	35.45
689.247	35.74
689.432	35.75
689.618	36.25
689.803	36.14
689.988	35.49
690.174	35.68
690.359	35.65
690.544	35.97
690.73	35.87
690.915	35.98
691.1	36.21
691.285	35.43
691.471	35.9
691.656	35.29
691.841	35.73
692.026	35.67
692.211	35.73
692.396	36.32
692.582	36.38
692.767	35.96
692.952	36.26
693.137	35.75
693.322	35.91
693.507	35.32
693.692	35.55
693.877	35.38
694.062	36.04
694.247	36.47
694.432	35.8
694.617	35.49
694.802	36.11
694.987	35.71
695.172	35.74
695.357	36.18
695.541	36.23
695.726	36.51
695.911	36.1
696.096	36.51
696.281	36.29
696.466	36.51
696.65	36.6
696.835	37.37
697.02	37.71
697.204	37.6
697.389	37.61
697.574	37.21
697.759	36.77
697.943	36.69
698.128	36.32
698.312	36.33
698.497	36.23
698.682	36.18
698.866	35.76
699.051	35.49
699.235	35.4
699.42	35.09
699.604	35.13
699.789	35.37
699.973	35.68
700.158	35.68
700.342	35.79
700.527	35.67
700.711	35.99
700.895	35.65
701.08	36.03
701.264	36.38
701.448	36.53
701.633	36.89
701.817	36.99
702.001	37.06
702.186	36.57
702.37	36.47
702.554	36.51
702.738	35.83
702.923	36.48
703.107	35.92
703.291	36.32
703.475	36.53
703.659	36.67
703.843	36.67
704.027	36.23
704.212	36.54
704.396	36.23
704.58	36.03
704.764	36.79
704.948	35.97
705.132	36.03
705.316	35.68
705.5	35.53
705.684	35.52
705.868	35.34
706.052	35.61
706.235	35.72
706.419	35.5
706.603	36.34
706.787	35.3
706.971	35.4
707.155	35.41
707.339	34.91
707.522	35.13
707.706	34.42
707.89	33.92
708.074	33.5
708.257	33.23
708.441	33.47
708.625	31.91
708.808	33.04
708.992	33.13
709.176	33.29
709.359	33.76
709.543	33.63
709.727	34.03
709.91	35.03
710.094	35.47
710.277	35.74
710.461	35.83
710.644	36.83
710.828	36.6
711.011	36.61
711.195	37.02
711.378	36.87
711.562	37.06
711.745	36.8
711.928	36.41
712.112	35.49
712.295	35.16
712.478	35.91
712.662	35.97
712.845	35.6
713.028	35.77
713.212	35.38
713.395	34.91
713.578	35.05
713.761	35.42
713.945	34.65
714.128	35.44
714.311	36.13
714.494	34.71
714.677	34.95
714.86	35.49
715.043	35.31
715.227	35.3
715.41	35.99
715.593	35.65
715.776	36.06
715.959	36.84
716.142	36.99
716.325	36.75
716.508	37.22
716.691	37.09
716.874	37.05
717.057	36.92
717.239	37.29
717.422	37.59
717.605	37.87
717.788	37.84
717.971	37.13
718.154	36.42
718.337	36.42
718.519	36.62
718.702	35.95
718.885	35.32
719.068	35.78
719.25	35.82
719.433	35.3
719.616	34.55
719.798	33.33
719.981	34.24
720.164	34.27
720.346	33.11
720.529	32.63
720.712	32.84
720.894	33.24
721.077	33.87
721.259	33.15
721.442	33.56
721.624	34.39
721.807	35.05
721.989	34.85
722.172	35.81
722.354	35.94
722.537	36.69
722.719	36.6
722.901	37.49
723.084	37.03
723.266	36.73
723.448	36.45
723.631	36.41
723.813	36.28
723.995	35.74
724.178	35.27
724.36	36.22
724.542	36.08
724.724	36.88
724.907	35.73
725.089	35.44
725.271	35.84
725.453	35.79
725.635	35.65
725.817	35.76
725.999	35.84
726.181	35.32
726.364	36.71
726.546	36.33
726.728	36.34
726.91	36.16
727.092	36.73
727.274	36.41
727.456	36.72
727.638	36.12
727.819	36.15
728.001	37.19
728.183	37.91
728.365	35.6
728.547	36.63
728.729	35.84
728.911	36.83
729.093	36.97
729.274	37.37
729.456	36.78
729.638	37.22
729.82	37.65
730.001	37.16
730.183	36.85
730.365	37.54
730.546	36.35
730.728	36.88
730.91	35.87
731.091	35.57
731.273	36.4
731.455	36.29
731.636	36.45
731.818	35.83
731.999	36.08
732.181	35.96
732.362	37.02
732.544	37.17
732.725	36.75
732.907	36.94
733.088	36.38
733.27	35.34
733.451	36.22
733.633	35.6
733.814	35.84
733.995	34.97
734.177	35.04
734.358	34.94
734.539	34.82
734.721	35.51
734.902	36.43
735.083	37.3
735.264	36.82
735.446	37.26
735.627	37.73
735.808	38.18
735.989	37.93
736.17	37.37
736.351	37.49
736.533	37.17
736.714	37.32
736.895	37.37
737.076	35.65
737.257	36.87
737.438	35.34
737.619	35.94
737.8	35.46
737.981	35.47
738.162	35.77
738.343	35.32
738.524	35.38
738.705	35.28
738.886	34.59
739.067	35.29
739.247	35.42
739.428	35.17
739.609	35.23
739.79	35.38
739.971	37.03
740.151	37.52
740.332	37.12
740.513	37.56
740.694	37.49
740.874	37.53
741.055	38.03
741.236	37.66
741.417	37.84
741.597	37.96
741.778	37.83
741.958	36.92
742.139	36.38
742.32	36.56
742.5	35.93
742.681	34.67
742.861	34.94
743.042	34.31
743.222	33.74
743.403	34.72
743.583	35.04
743.764	35
743.944	35.54
744.124	35.77
744.305	36.16
744.485	36.03
744.666	37.66
744.846	37.24
745.026	37.48
745.207	37.07
745.387	37.03
745.567	36.18
745.747	37.23
745.928	35.97
746.108	38.75
746.288	39.59
746.468	40.68
746.648	40.45
746.829	41.57
747.009	40.57
747.189	41.01
747.369	40.88
747.549	40.42
747.729	40.18
747.909	40.78
748.089	39.68
748.269	39.86
748.449	39.56
748.629	38.99
748.809	38.17
748.989	38.74
749.169	38.47
749.349	37.89
749.529	37.45
749.709	37.02
749.889	37.07
750.068	36.05
750.248	34.46
750.428	34.15
750.608	33.99
750.788	33.58
750.967	33.78
751.147	33.91
751.327	33.93
751.507	34.57
751.686	34.81
751.866	34.7
752.046	34.08
752.225	34.28
752.405	35.7
752.585	35.3
752.764	35.96
752.944	36.17
753.123	35.36
753.303	35.02
753.482	33.6
753.662	33.01
753.841	32.5
754.021	33.08
754.2	32.84
754.38	32.03
754.559	32.93
754.739	32.67
754.918	32.33
755.097	33.42
755.277	33.72
755.456	35.24
755.635	35.79
755.815	35.78
755.994	34.74
756.173	34.58
756.352	35.12
756.532	35.74
756.711	35.5
756.89	36.13
757.069	37.56
757.248	37.52
757.427	37.08
757.607	36.63
757.786	37.06
757.965	38.46
758.144	39.89
758.323	38.98
758.502	38.12
758.681	39.26
758.86	38.88
759.039	38.39
759.218	39.35
759.397	40.6
759.576	41.23
759.755	41.92
759.934	40.54
760.113	39.31
760.291	39.53
760.47	39.14
760.649	37.63
760.828	37.32
761.007	36.18
761.186	35.81
761.364	35.29
761.543	34.98
761.722	34.25
761.901	35.43
762.079	34.9
762.258	35.66
762.437	36.25
762.615	36.34
762.794	36.82
762.972	37.33
763.151	36.46
763.33	36.87
763.508	36.87
763.687	36.85
763.865	37.22
764.044	38.35
764.222	37.59
764.401	36.81
764.579	37.25
764.758	37.5
764.936	37.2
765.114	38.28
765.293	38.15
765.471	38.25
765.65	38.49
765.828	37.53
766.006	37.01
766.184	36.85
766.363	38.28
766.541	38.03
766.719	38.03
766.898	38.35
767.076	37.7
767.254	37.09
767.432	36.33
767.61	36.59
767.788	37.47
767.967	36.04
768.145	36.74
768.323	35.36
768.501	34.85
768.679	34.45
768.857	34.64
769.035	34.35
769.213	33.42
769.391	33.77
769.569	33.91
769.747	33.18
769.925	34.26
770.103	35.37
770.281	36.05
770.459	36.48
770.636	38.28
770.814	36.62
770.992	36.52
771.17	39.45
771.348	39.93
771.525	39.66
771.703	40.64
771.881	42.49
772.059	39.97
772.236	39.3
772.414	38.59
772.592	35.77
772.769	36.94
772.947	37.95
773.125	35.78
773.302	34.43
773.48	33.99
773.657	31.55
773.835	30.11
774.013	30.2
774.19	31.79
774.368	30.96
774.545	31.04
774.723	32.36
774.9	32.15
775.077	32.08
775.255	34.05
775.432	34.56
775.61	36.32
775.787	36.36
775.964	37.1
776.142	36.63
776.319	38
776.496	38.08
776.674	36.85
776.851	37.35
777.028	36.14
777.205	35.99
777.382	35.33
777.56	34.87
777.737	33.23
777.914	34.18
778.091	33.24
778.268	35.19
778.445	35.36
778.622	36.33
778.8	33.74
778.977	34.97
779.154	1.61
779.331	0.82
779.508	0.2
779.685	3.11
779.862	2.5
780.038	3.7
780.215	3.18
780.392	3.77
780.569	4.39
780.746	6.34
780.923	6.81
781.1	40.82
781.277	40.94
781.453	41.83
781.63	42.67
781.807	42.71
781.984	42.72
782.16	41.07
782.337	40.19
782.514	37.26
782.691	36.84
782.867	34.87
783.044	33.81
783.221	33.64
783.397	32.13
783.574	29.62
783.75	30.39
783.927	26.34
784.103	27.66
784.28	27.69
784.456	28.76
784.633	27.83
784.809	28.73
784.986	29.01
785.162	29.3
785.339	31.74
785.515	32.64
785.692	32.69
785.868	38.11
786.044	37.98
786.221	37.5
786.397	38.25
786.573	38.64
786.749	39.48
786.926	41.01
787.102	40.56
787.278	39.89
787.454	40.09
787.631	37.18
787.807	37.15
787.983	36.4
788.159	35.27
788.335	34.43
788.511	36.62
788.687	34.84
788.863	33.55
789.039	32.57
789.216	28.95
789.392	29.29
789.568	30.02
789.744	28.27
789.919	30.32
790.095	31.2
790.271	30.42
790.447	28.87
790.623	29.7
790.799	28.04
790.975	29.05
791.151	32.29
791.327	32.57
791.502	34.88
791.678	35.12
791.854	33.77
792.03	34.32
792.205	35.03
792.381	35.81
792.557	35.97
792.733	37.91
792.908	37.02
793.084	37.8
793.259	37.47
793.435	35.11
793.611	34.34
793.786	33.8
793.962	36.81
794.137	35.77
794.313	33.86
794.488	35.02
794.664	33.91
794.839	31.34
795.015	31.07
795.19	30.52
795.366	31.17
795.541	31.27
795.716	30.3
795.892	28.22
796.067	28.13
796.242	28.09
796.418	27.81
796.593	26.55
796.768	30.32
796.944	27.89
797.119	28.55
797.294	29.95
797.469	30.61
797.644	32.17
797.82	33.19
797.995	36.16
798.17	36.54
798.345	35.17
798.52	37.73
798.695	35.6
798.87	37.55
799.045	37.66
799.22	36.46
799.395	37.08
799.57	36.26
799.745	32.71
799.92	30.45
800.095	32.97
800.27	33.65
800.445	33.17
800.62	36.08
800.795	34.19
800.97	33.98
801.145	32.5
801.319	29.58
801.494	27.76
801.669	30.56
801.844	30.4
802.018	28.16
802.193	28.64
802.368	29.66
802.543	25.57
802.717	29.31
802.892	28.11
803.067	29.23
803.241	30.95
803.416	31.69
803.59	31.51
803.765	31.2
803.94	31.53
804.114	30.55
804.289	31.57
804.463	34.63
804.638	33.39
804.812	32.84
804.986	34.25
805.161	32.57
805.335	33.7
805.51	33.65
805.684	34.29
805.858	34.19
806.033	34.85
806.207	31.87
806.381	33.43
806.556	30.78
806.73	31.74
806.904	30.72
807.078	31.8
807.253	31
807.427	31.22
807.601	29.4
807.775	31.52
807.949	31.25
808.123	31.1
808.298	29.55
808.472	30.7
808.646	30.69
808.82	29.46
808.994	30.96
809.168	30.38
809.342	29.16
809.516	31.98
809.69	28.27
809.864	31.59
810.038	33.58
810.212	33.51
810.385	34.47
810.559	37.13
810.733	39.57
810.907	38.88
811.081	40.76
811.255	42.75
811.428	42.65
811.602	42.02
811.776	39.45
811.95	38.93
812.123	41.76
812.297	40.12
812.471	36.48
812.644	35.75
812.818	35.41
812.992	33.33
813.165	27.93
813.339	27.46
813.512	30.21
813.686	33.79
813.86	31.94
814.033	31.49
814.207	33.25
814.38	35.84
814.554	35.67
814.727	35.54
814.9	37.07
815.074	36.78
815.247	33.86
815.421	36.75
815.594	31.34
815.767	32.75
815.941	29.08
816.114	27.03
816.287	26.94
816.46	24.39
816.634	26.63
816.807	27.51
816.98	28.65
817.153	33.37
817.327	27.87
817.5	30.27
817.673	29.44
817.846	29.2
818.019	34.42
818.192	32.1
818.365	31.9
818.538	34.33
818.711	33.39
818.884	37.46
819.057	35.1
819.23	35.21
819.403	33.7
819.576	33.94
819.749	33.62
819.922	32.67
820.095	32.17
820.268	35.54
820.441	33
820.614	33.46
820.786	32.79
820.959	34.16
821.132	36.04
821.305	36.72
821.477	37.11
821.65	38.45
821.823	37.63
821.996	39.05
822.168	37.94
822.341	37.95
822.514	38.41
822.686	38.01
822.859	38.13
823.031	39.01
823.204	38.57
823.376	39.12
823.549	38.68
823.722	38.8
823.894	38.46
824.067	39.09
824.239	39.82
824.411	39.32
824.584	40.05
824.756	40.06
824.929	38.83
825.101	40.1
825.273	39.51
825.446	39.59
825.618	39.77
825.79	39.78
825.963	39.88
826.135	39.4
826.307	39.83
826.479	39.35
826.652	39.08
826.824	39.07
826.996	37.16
827.168	37.47
827.34	37.31
827.512	36.59
827.684	36.15
827.856	34.34
828.029	34.02
828.201	34.38
828.373	34.24
828.545	34.19
828.717	34.43
828.889	34.79
829.061	33.61
829.232	33.87
829.404	34.45
829.576	34.03
829.748	34.57
829.92	33.47
830.092	32.41
830.264	32.97
830.436	32.07
830.607	32.34
830.779	33.47
830.951	33.57
831.123	34.17
831.294	33.91
831.466	33.17
831.638	35.14
831.809	38.34
831.981	38.64
832.153	39.01
832.324	40.1
832.496	38.64
832.667	38.45
832.839	37.7
833.011	34.33
833.182	33.59
833.354	33.82
833.525	34.37
833.697	29.55
833.868	27.94
834.039	27.47
834.211	28.4
834.382	28.46
834.554	29.89
834.725	31.03
834.896	32.4
835.068	32.15
835.239	31.91
835.41	31.85
835.581	33.21
835.753	35.13
835.924	33.66
836.095	32.71
836.266	32.9
836.438	30.32
836.609	30.73
836.78	32.6
836.951	32.1
837.122	33.14
837.293	32.46
837.464	31.28
837.635	30.75
837.806	32.53
837.977	31.58
838.148	33.02
838.319	35.74
838.49	34.34
838.661	34.77
838.832	38.37
839.003	41.81
839.174	41.95
839.345	46.08
839.516	47.51
839.687	44.18
839.857	42.46
840.028	40.6
840.199	37.39
840.37	37.55
840.54	35.22
840.711	34.84
840.882	30.39
841.053	31.79
841.223	29.59
841.394	27.82
841.564	31.95
841.735	37.02
841.906	38.93
842.076	34.51
842.247	38.82
842.417	38.15
842.588	36.03
842.758	35.98
842.929	32.83
843.099	33.49
843.27	32.22
843.44	24.49
843.611	21.36
843.781	13.39
843.951	22.05
844.122	21.3
844.292	18.16
844.462	11.06
844.633	9.07
844.803	9.29
844.973	-0.11
845.144	-7.32
845.314	-2.57
845.484	-2.34
845.654	2.47
845.824	3.9
845.995	4.69
846.165	12.59
846.335	15.57
846.505	17.36
846.675	20.32
846.845	32.49
847.015	35.46
847.185	45.13
847.355	43.55
847.525	39.23
847.695	37.05
847.865	34.99
848.035	22.59
848.205	25.2
848.375	25.59
848.545	13.26
848.715	10.24
848.884	6.43
849.054	-4.76
849.224	0.08
849.394	8.36
849.564	16.61
849.733	17.5
849.903	16.94
850.073	14.77
850.243	6.7
850.412	8.91
850.582	4.3
850.752	7.63
850.921	13.28
851.091	8.07
851.26	18.11
851.43	-1.45
851.599	0.74
851.769	4.71
851.939	16.54
852.108	22.75
852.278	24.61
852.447	38.25
852.616	44.52
852.786	46.19
852.955	47.96
853.125	38.75
853.294	42.26
853.463	35.94
853.633	37.87
853.802	33.59
853.971	33.46
854.141	26.94
854.31	2.42
854.479	-7.41
854.648	-13.06
854.818	-10.08
854.987	-9.59
855.156	7.83
855.325	29.62
855.494	25.86
855.663	23.07
855.832	31.12
856.001	29.53
856.171	25.77
856.34	33.7
856.509	43.45
856.678	38.11
856.847	41.2
857.016	30.23
857.185	10.63
857.353	18.17
857.522	31.99
857.691	33.86
857.86	39.77
858.029	48.35
858.198	44.8
858.367	39.61
858.535	37.23
858.704	36.04
858.873	41.71
859.042	43.93
859.21	43.3
859.379	32.09
859.548	23.78
859.717	24.97
859.885	9.69
860.054	15.51
860.222	13.77
860.391	9.79
860.56	-0.72
860.728	-0.28
860.897	-8.39
861.065	-7.21
861.234	1.86
861.402	-11.47
861.571	5.46
861.739	2.5
861.908	4.3
862.076	24.42
862.244	34.51
862.413	37.26
862.581	40.38
862.749	43.82
862.918	51.69
863.086	40.5
863.254	46.4
863.423	41.23
863.591	49.45
863.759	30.45
863.927	24.38
864.096	32.11
864.264	29.05
864.432	26.75
864.6	23.45
864.768	11.46
864.936	30.63
865.104	27.4
865.272	16.24
865.44	26.72
865.608	56.11
865.776	37.47
865.944	41.04
866.112	51.03
866.28	36.73
866.448	33.11
866.616	21.16
866.784	13.82
866.952	15.55
867.12	25.03
867.288	14.53
867.455	-2.04
867.623	-29.76
867.791	-123.9
867.959	-90.73
868.127	-21.28
868.294	-13.14
868.462	-0.87
868.63	14.57
868.797	16.78
868.965	25.21
869.133	32.48
869.3	23.19
869.468	31.13
869.636	35.55
869.803	29.83
869.971	27.68
870.138	24.06
870.306	22.32
870.473	27.74
870.641	22.67
870.808	11.2
870.975	7.41
871.143	3.4
871.31	17.45
871.478	2.48
871.645	4.92
871.812	-18.98
871.98	-0.01
872.147	-1.26
872.314	-11.89
872.482	1.11
872.649	4.79
872.816	0.48
872.983	14.88
873.15	2
873.318	7.4
873.485	4.85
873.652	14.64
873.819	-5.3
873.986	7.48
874.153	0.69
874.32	7.93
874.487	-5.95
874.654	-13.41
874.821	-32.98
874.988	3.4
875.155	0.07
875.322	4.61
875.489	5.62
875.656	11.95
875.823	1.5
875.99	7.81
876.157	5.24
876.324	12.24
876.49	21.67
876.657	22.65
876.824	6.08
876.991	11.91
877.157	9.45
877.324	15.56
877.491	22.4
877.658	29
877.824	31.81
877.991	29.87
878.157	28.99
878.324	25.66
878.491	32.83
878.657	43.48
878.824	37.35
878.99	44.28
879.157	41.36
879.323	28.77
879.49	19.57
879.656	35.17
879.823	23.53
879.989	30.54
880.156	29.53
880.322	18.24
880.488	12.92
880.655	4.78
880.821	-6.45
880.987	-6.3
881.154	4.16
881.32	10.21
881.486	3.96
881.652	9.47
881.819	9.5
881.985	14.48
882.151	20.95
882.317	24.96
882.483	27.81
882.649	30.45
882.816	35.1
882.982	34.85
883.148	33.24
883.314	34.92
883.48	35.73
883.646	35.61
883.812	36.55
883.978	34.67
884.144	33.98
884.31	34.61
884.476	36.75
884.642	36.36
884.807	35.13
884.973	34.59
885.139	34.43
885.305	32.16
885.471	32.62
885.637	32.59
885.802	35.59
885.968	35.75
886.134	33.93
886.3	31.85
886.465	31.78
886.631	32.62
886.797	36.6
886.962	37.12
887.128	40.54
887.293	39.72
887.459	37.61
887.625	39.38
887.79	37.11
887.956	41.07
888.121	41.17
888.287	41.52
888.452	43.41
888.618	38.88
888.783	34.21
