Data from CB_003_Reflection_3.txt Node
Date: Wed Nov 11 18:17:52 EST 2015
User: robert
Spectrometer: USB4E03001
Autoset integration time: false
Trigger mode: 4
Integration Time (sec): 1.000000E-1
Scans to average: 15
Electric dark correction enabled: true
Nonlinearity correction enabled: false
Boxcar width: 5
Stray light correction enabled: false
XAxis mode: Wavelengths
Stop averaging: false
Number of Pixels in Spectrum: 3648
>>>>>Begin Spectral Data<<<<<
177.566	37.48
177.785	207.43
178.005	35.67
178.225	-232.45
178.445	100.69
178.665	-234.59
178.885	-73.7
179.105	401.28
179.324	214.31
179.544	-58.18
179.764	-14.12
179.984	46.11
180.204	-47.62
180.423	121.12
180.643	119.72
180.863	272.38
181.083	1643.8
181.302	348.47
181.522	-887.43
181.742	-344.27
181.961	389.72
182.181	191.48
182.401	241.74
182.621	1420.4
182.84	254.74
183.06	289.45
183.279	301.97
183.499	616.29
183.719	436.01
183.938	306.73
184.158	482.42
184.377	-733.16
184.597	-86.16
184.816	-60.42
185.036	-10.34
185.256	26.35
185.475	57.98
185.695	-1793.1
185.914	64.83
186.134	119.39
186.353	139.13
186.572	231.57
186.792	140.42
187.011	105.18
187.231	130.96
187.45	253.66
187.67	260.69
187.889	2270.89
188.108	547.84
188.328	1268.9
188.547	-787.4
188.766	-980.47
188.986	370.24
189.205	-12586.36
189.424	459.41
189.644	419.01
189.863	88.6
190.082	88.2
190.302	95.58
190.521	34.07
190.74	-9.54
190.959	17.17
191.178	44.8
191.398	45.96
191.617	45.46
191.836	40.85
192.055	55.29
192.274	48.07
192.494	55.86
192.713	54.45
192.932	64.5
193.151	99.65
193.37	111.59
193.589	98.14
193.808	136.63
194.027	142.04
194.246	179.48
194.465	212.54
194.685	187.71
194.904	203.84
195.123	499.69
195.342	2567.94
195.561	237.67
195.78	232.69
195.999	223.46
196.218	1110.42
196.436	-484.12
196.655	-1318.73
196.874	495.24
197.093	506.56
197.312	650
197.531	-85.01
197.75	-140.17
197.969	-62.65
198.188	-25.51
198.407	-75.99
198.625	-294.13
198.844	-205.95
199.063	-280.25
199.282	-244.66
199.501	-84.47
199.719	-128.9
199.938	-3950.78
200.157	417.45
200.376	468.75
200.594	952.89
200.813	-28822.86
201.032	1574.18
201.251	467.52
201.469	372.49
201.688	306.69
201.907	339.64
202.125	309.18
202.344	178.45
202.563	206.18
202.781	209.95
203	166.9
203.218	107.87
203.437	121.31
203.656	79.14
203.874	91.97
204.093	107.32
204.311	69.29
204.53	46.62
204.748	21.49
204.967	-10.04
205.185	31.4
205.404	45.55
205.622	65.82
205.841	66.31
206.059	68.92
206.278	80.16
206.496	60.47
206.715	119.27
206.933	106.73
207.151	147.01
207.37	141.72
207.588	181.95
207.806	185.04
208.025	177.14
208.243	36.88
208.461	61.46
208.68	110.64
208.898	164.02
209.116	188.48
209.335	191.04
209.553	-218.57
209.771	218.25
209.989	-893.04
210.208	-323.32
210.426	-320.44
210.644	-152.63
210.862	-113.46
211.081	-68.57
211.299	-67.35
211.517	-162.93
211.735	-148.65
211.953	-433.01
212.171	-101.03
212.39	-1002.31
212.608	-2726.95
212.826	373.53
213.044	259.77
213.262	224.34
213.48	227.04
213.698	290.58
213.916	-979.45
214.134	-426.31
214.352	-1184.68
214.57	892.34
214.788	214.82
215.006	260.17
215.224	203.3
215.442	117.3
215.66	138.78
215.878	156.71
216.096	161.96
216.314	125.18
216.532	120.92
216.75	74.05
216.968	85.64
217.185	115.16
217.403	133.37
217.621	126.14
217.839	167.66
218.057	1228.14
218.275	-215.73
218.492	32.93
218.71	38.7
218.928	57.05
219.146	-34.8
219.363	-8.43
219.581	-47.88
219.799	-64.24
220.017	-60.15
220.234	-42.66
220.452	-65.3
220.67	-67.46
220.887	-128.91
221.105	-79.62
221.323	-109.04
221.54	-6
221.758	16.31
221.976	30.86
222.193	2.13
222.411	-29.93
222.629	-34.71
222.846	-43.34
223.064	-28.37
223.281	-50.21
223.499	-89
223.716	-81.46
223.934	-482.27
224.151	-931.61
224.369	-578.2
224.586	207025
224.804	-812.5
225.021	-465.42
225.239	-332.96
225.456	-318.55
225.674	-262.35
225.891	-78.99
226.108	-70.08
226.326	-36.22
226.543	-33.22
226.76	-18.96
226.978	-16.05
227.195	-6.62
227.413	-2.64
227.63	-7.97
227.847	-10.49
228.064	-10.56
228.282	-3.95
228.499	-1.35
228.716	-2.05
228.934	-0.9
229.151	-4.71
229.368	-3.75
229.585	-7.2
229.802	-6.12
230.02	-4.53
230.237	-5.63
230.454	-4.2
230.671	-10.29
230.888	-15.58
231.105	-19.65
231.323	-16.99
231.54	-12.95
231.757	-21.18
231.974	-17.38
232.191	-22.28
232.408	-21.18
232.625	-19.84
232.842	-26.38
233.059	-22.32
233.276	-7.8
233.493	-1.57
233.71	-9.89
233.927	-12.55
234.144	-5.79
234.361	-8.51
234.578	-9.2
234.795	-7.47
235.012	-7.9
235.229	-2.68
235.446	-1.5
235.663	-15.48
235.879	-17.23
236.096	-18.66
236.313	-25.23
236.53	-28.47
236.747	-23.23
236.964	-18.71
237.181	-34.66
237.397	-24.86
237.614	-22.1
237.831	-34.78
238.048	-29.38
238.264	-27.55
238.481	-22.94
238.698	-21.58
238.915	-26.6
239.131	-31.36
239.348	-40
239.565	-25.59
239.781	-33.39
239.998	-32.95
240.215	-25.67
240.431	-24.61
240.648	-17.9
240.865	-13.84
241.081	-10.52
241.298	-5.79
241.514	-5.48
241.731	-2.17
241.947	-2.83
242.164	-1.11
242.38	-1.44
242.597	-0.46
242.814	-0.03
243.03	-3.33
243.246	-2.77
243.463	-2.52
243.679	-3.64
243.896	-2.58
244.112	-5.01
244.329	-4.79
244.545	-4.77
244.762	-4.53
244.978	-4.25
245.194	-5.28
245.411	-4.01
245.627	-7.26
245.843	-6.4
246.06	-2.66
246.276	-2.46
246.492	0.1
246.709	-0.15
246.925	-1
247.141	-1.11
247.357	-1.17
247.574	-0.27
247.79	0.06
248.006	1.1
248.222	1.37
248.439	0.3
248.655	0.53
248.871	-1.06
249.087	0.18
249.303	0.56
249.519	0.99
249.736	-1.17
249.952	-1.31
250.168	-4.54
250.384	-4.5
250.6	-5.45
250.816	-4.9
251.032	-6.58
251.248	-6.89
251.464	-8.22
251.68	-8.56
251.896	-6.37
252.112	-3.94
252.328	-4.36
252.544	-1.86
252.76	-3.28
252.976	-1.97
253.192	-2.84
253.408	-2.94
253.624	-1.68
253.84	-3.39
254.056	-3.58
254.272	-6.78
254.487	-7.42
254.703	-5.85
254.919	-5.61
255.135	-6.02
255.351	-7.22
255.567	-7.59
255.782	-7.44
255.998	-6.61
256.214	-7.69
256.43	-4.15
256.646	-1.67
256.861	-4.59
257.077	-9.79
257.293	-12.08
257.508	-9.14
257.724	-10.98
257.94	-11.72
258.155	-11.2
258.371	-7.89
258.587	-6.1
258.802	-6.48
259.018	-7.15
259.234	-4.14
259.449	-2.77
259.665	-2.35
259.88	-2.78
260.096	-2.27
260.312	-0.76
260.527	0.63
260.743	-0.55
260.958	-0.6
261.174	-0.97
261.389	-1.19
261.605	-2.32
261.82	-2.41
262.036	-2.53
262.251	-1.95
262.466	-0.23
262.682	-1.79
262.897	-4.24
263.113	-5.38
263.328	-6.04
263.543	-5.68
263.759	-5.66
263.974	-5.09
264.189	-5.85
264.405	-6.07
264.62	-7.9
264.835	-11.39
265.051	-9.72
265.266	-11.51
265.481	-10.13
265.696	-11.29
265.912	-10.85
266.127	-11.37
266.342	-11.81
266.557	-13.74
266.773	-12.29
266.988	-12
267.203	-11.84
267.418	-11.92
267.633	-9.94
267.848	-9.93
268.064	-8.61
268.279	-9.23
268.494	-9.92
268.709	-7.66
268.924	-5.62
269.139	-6.35
269.354	-5.49
269.569	-2.73
269.784	-2.61
269.999	-3.85
270.214	-4.28
270.429	-5.51
270.644	-4.5
270.859	-1.61
271.074	-2.22
271.289	-1.49
271.504	-1.57
271.719	-2.33
271.934	-4.87
272.149	-4.68
272.363	-3.59
272.578	-2.26
272.793	-0.15
273.008	-0.42
273.223	-1.42
273.438	-1.1
273.653	-1.22
273.867	0.01
274.082	0.06
274.297	0.83
274.512	0.62
274.726	0.8
274.941	0.74
275.156	-0.91
275.371	-1.52
275.585	-2.42
275.8	-2.71
276.015	-4.59
276.229	-6.73
276.444	-6.14
276.659	-7.41
276.873	-9
277.088	-9.96
277.302	-11.52
277.517	-11.59
277.732	-11.33
277.946	-10.48
278.161	-13.11
278.375	-13.08
278.59	-12.63
278.804	-12.99
279.019	-9.92
279.233	-6.9
279.448	-5.77
279.662	-3.94
279.877	-4.14
280.091	-2.06
280.306	0.02
280.52	0.5
280.735	0.41
280.949	2.21
281.163	3.36
281.378	2.36
281.592	2.54
281.806	3.1
282.021	1.72
282.235	2.32
282.449	1.33
282.664	0.03
282.878	0.5
283.092	1.97
283.307	1.6
283.521	2.05
283.735	3.35
283.949	1.02
284.164	0.42
284.378	2.23
284.592	2.57
284.806	2.72
285.02	2.27
285.234	2.58
285.449	2.36
285.663	2.07
285.877	0.96
286.091	0.35
286.305	1.43
286.519	1.24
286.733	0.53
286.947	0.33
287.161	0.3
287.375	0.58
287.589	0.47
287.803	0.73
288.017	0.17
288.231	0.03
288.445	0.77
288.659	0.54
288.873	1.56
289.087	1.04
289.301	1.91
289.515	2.16
289.729	1.74
289.943	1.57
290.157	0.99
290.371	0.51
290.584	1.94
290.798	0.79
291.012	0.8
291.226	0.33
291.44	0.67
291.654	-0.19
291.867	-0.36
292.081	-0.12
292.295	-0.22
292.509	0.63
292.722	0.96
292.936	-1.66
293.15	-0.44
293.364	-0.69
293.577	-1.99
293.791	-1.66
294.005	-2.23
294.218	-1.91
294.432	-1.76
294.645	-0.22
294.859	-1.47
295.073	-1.8
295.286	0.27
295.5	-0.58
295.713	-0.41
295.927	0.32
296.14	0.54
296.354	0.7
296.568	-0.29
296.781	-0.76
296.994	-2
297.208	-1.82
297.421	0.25
297.635	-0.19
297.848	0.39
298.062	0.84
298.275	-0.22
298.489	-0.57
298.702	0.45
298.915	1.54
299.129	2.33
299.342	2.78
299.555	3.96
299.769	2.35
299.982	2.59
300.195	3.1
300.409	2.39
300.622	5.63
300.835	5.03
301.048	4.4
301.262	3.69
301.475	3.77
301.688	4.32
301.901	4.29
302.115	3.71
302.328	3.84
302.541	2.53
302.754	2.93
302.967	0.67
303.18	0.78
303.393	1.47
303.607	2.02
303.82	1.28
304.033	0.72
304.246	1.7
304.459	1.14
304.672	1.26
304.885	1.91
305.098	1.8
305.311	1.73
305.524	0.66
305.737	-0.61
305.95	-0.15
306.163	0.56
306.376	1.52
306.589	0.41
306.802	2.03
307.015	0.34
307.228	-0.98
307.44	-0.49
307.653	0.23
307.866	2.18
308.079	3.58
308.292	3.82
308.505	4.52
308.718	4.06
308.93	3.08
309.143	3.1
309.356	3.7
309.569	4.42
309.781	4.08
309.994	3.55
310.207	3.42
310.42	3.16
310.632	2.37
310.845	2.65
311.058	2.48
311.27	3.95
311.483	4.69
311.696	5.27
311.908	5.18
312.121	5.45
312.333	5.44
312.546	6.42
312.759	5.03
312.971	5.11
313.184	4.11
313.396	5.63
313.609	5.54
313.821	5.45
314.034	6.41
314.246	6.8
314.459	5.36
314.671	6.28
314.884	5.52
315.096	8.65
315.309	8.13
315.521	8.21
315.733	5.27
315.946	4.36
316.158	3.9
316.371	2.74
316.583	2.65
316.795	4.3
317.008	2.9
317.22	2.4
317.432	-0.19
317.644	-0.57
317.857	0.12
318.069	2.14
318.281	1.35
318.494	0.87
318.706	-0.25
318.918	-0.1
319.13	-0.79
319.342	0.41
319.555	-0.1
319.767	-0.45
319.979	1.33
320.191	1.09
320.403	-0.66
320.615	-0.56
320.827	0.44
321.039	0.78
321.252	0.29
321.464	0.77
321.676	0.45
321.888	1
322.1	2.3
322.312	1.97
322.524	1.92
322.736	3.83
322.948	4.31
323.16	4.24
323.372	4.45
323.584	4.48
323.796	4.25
324.007	4.28
324.219	4.52
324.431	5.38
324.643	5.27
324.855	5.51
325.067	5.29
325.279	5.44
325.491	4.71
325.702	5.66
325.914	6.48
326.126	6.77
326.338	7.15
326.55	8.57
326.761	8.78
326.973	9.32
327.185	9.29
327.396	9.08
327.608	9.2
327.82	10.26
328.032	10.29
328.243	10.09
328.455	10.97
328.666	11.24
328.878	10.34
329.09	9.7
329.301	9.28
329.513	9.96
329.725	10.65
329.936	11.34
330.148	10.81
330.359	11
330.571	10.89
330.782	11.28
330.994	11.06
331.205	11.26
331.417	10.96
331.628	11.39
331.84	11.98
332.051	11.36
332.262	9.79
332.474	10.81
332.685	12.02
332.897	12.86
333.108	12.73
333.319	14.09
333.531	14.18
333.742	14.96
333.953	15.63
334.165	15.12
334.376	15.04
334.587	16.59
334.799	16.55
335.01	15.01
335.221	16.04
335.432	16.56
335.644	15.86
335.855	15.92
336.066	15.94
336.277	15.57
336.488	16.51
336.7	17.5
336.911	18.39
337.122	18.62
337.333	20.38
337.544	19.78
337.755	19.4
337.966	19.12
338.177	18.84
338.388	18.39
338.599	19.05
338.811	18.6
339.022	18.54
339.233	17.26
339.444	17.02
339.655	16.38
339.866	17
340.076	17.51
340.287	18.77
340.498	20.15
340.709	21.03
340.92	20.91
341.131	20.5
341.342	20.76
341.553	20.95
341.764	20.48
341.975	19.54
342.185	19.25
342.396	18.47
342.607	16.86
342.818	14.77
343.029	14.06
343.239	13.27
343.45	13.23
343.661	13.06
343.872	13.71
344.082	13.91
344.293	14.34
344.504	15.51
344.714	16.09
344.925	17.31
345.136	18.3
345.346	19.2
345.557	20.19
345.768	20.73
345.978	19.45
346.189	19.06
346.399	19.5
346.61	19.63
346.821	18.15
347.031	18.01
347.242	17.68
347.452	17.41
347.663	16.2
347.873	15.54
348.084	15.2
348.294	16.69
348.504	16.77
348.715	17.28
348.925	17.16
349.136	17.32
349.346	17.8
349.557	18.2
349.767	19.08
349.977	18.79
350.188	18.93
350.398	19.43
350.608	18.74
350.819	19.21
351.029	18.63
351.239	18.88
351.449	18.85
351.66	18.8
351.87	18.49
352.08	17.63
352.29	19.78
352.501	20.05
352.711	19.06
352.921	19.58
353.131	19.63
353.341	20.3
353.552	20.1
353.762	20.57
353.972	20.38
354.182	20.73
354.392	20.36
354.602	19.38
354.812	18.9
355.022	20.1
355.232	19.84
355.442	19.63
355.652	19.1
355.862	19.83
356.072	19.16
356.282	18.82
356.492	18.5
356.702	19.23
356.912	18.59
357.122	18.78
357.332	18.39
357.542	18.25
357.752	18.16
357.962	18.26
358.171	18.03
358.381	18.16
358.591	18.73
358.801	19.05
359.011	19.01
359.221	19.07
359.43	18.96
359.64	18.94
359.85	19.99
360.06	20.15
360.269	20.1
360.479	19.81
360.689	20.12
360.899	19.96
361.108	20.04
361.318	20.18
361.528	20.55
361.737	20.62
361.947	20.89
362.156	20.06
362.366	20.1
362.576	19.68
362.785	19.56
362.995	19.63
363.204	19.27
363.414	18.79
363.623	18.72
363.833	18.62
364.042	18.47
364.252	18.49
364.461	19.56
364.671	19.23
364.88	19.77
365.09	19.75
365.299	19.26
365.509	19.17
365.718	19.65
365.927	19.1
366.137	18.94
366.346	19.19
366.555	18.25
366.765	17.31
366.974	17.18
367.183	16.95
367.393	17.56
367.602	17.9
367.811	18.68
368.021	18.3
368.23	18.81
368.439	19.08
368.648	18.83
368.857	19.49
369.067	19.02
369.276	18.99
369.485	19.05
369.694	18.9
369.903	18.54
370.112	18.51
370.321	18.03
370.531	17.67
370.74	17.05
370.949	16.85
371.158	16.42
371.367	16.9
371.576	17.06
371.785	16.95
371.994	16.6
372.203	16.41
372.412	16.15
372.621	16.98
372.83	17.03
373.039	17.79
373.248	18.42
373.457	18.55
373.666	18.52
373.874	18.31
374.083	18.93
374.292	18.75
374.501	18.86
374.71	18.27
374.919	18.2
375.128	18.47
375.336	17.85
375.545	17.44
375.754	17.03
375.963	16.95
376.171	16.79
376.38	16.08
376.589	16.46
376.798	16.09
377.006	16.27
377.215	16.2
377.424	16.1
377.632	16.14
377.841	16.34
378.05	16.04
378.258	15.83
378.467	15.86
378.675	15.37
378.884	14.82
379.093	15.06
379.301	15.45
379.51	15.39
379.718	15.37
379.927	15.33
380.135	14.57
380.344	15.34
380.552	15.69
380.761	16.12
380.969	16.68
381.177	17.04
381.386	16.75
381.594	16.11
381.803	15.77
382.011	15.8
382.219	15.76
382.428	16.23
382.636	16.34
382.845	16.21
383.053	16.18
383.261	15.87
383.469	15.98
383.678	16.53
383.886	16.34
384.094	16.12
384.302	16.24
384.511	16.13
384.719	16.51
384.927	16.6
385.135	16.77
385.343	16.45
385.552	16.79
385.76	16.52
385.968	16.21
386.176	16.56
386.384	16.53
386.592	15.86
386.8	15.91
387.008	15.25
387.216	14.88
387.424	14.75
387.633	15.12
387.841	14.78
388.049	14.61
388.257	15.05
388.465	15.51
388.672	15.65
388.88	15.86
389.088	15.86
389.296	15.94
389.504	15.75
389.712	15.47
389.92	15.18
390.128	15.18
390.336	15.12
390.544	14.67
390.751	14.12
390.959	14.02
391.167	14.23
391.375	14.4
391.583	14.42
391.79	14.43
391.998	14.35
392.206	14.42
392.414	14.38
392.621	14.63
392.829	14.98
393.037	14.87
393.244	14.76
393.452	14.59
393.66	14.35
393.867	14.55
394.075	15.02
394.283	15.22
394.49	15.2
394.698	15.64
394.905	15.64
395.113	15.49
395.32	15.59
395.528	15.7
395.735	15.94
395.943	16.04
396.15	15.84
396.358	15.47
396.565	15.5
396.773	15.48
396.98	15.42
397.188	15.21
397.395	15.04
397.602	15.06
397.81	15.22
398.017	15.2
398.225	15.43
398.432	15.57
398.639	15.99
398.847	16.12
399.054	15.95
399.261	15.77
399.468	15.92
399.676	16.21
399.883	16.21
400.09	16.42
400.297	16.2
400.505	15.91
400.712	15.79
400.919	15.47
401.126	15.2
401.333	15.26
401.54	15.2
401.748	14.92
401.955	14.69
402.162	14.82
402.369	14.71
402.576	15.07
402.783	15.07
402.99	15.33
403.197	15.17
403.404	15.07
403.611	14.86
403.818	15
404.025	15.35
404.232	15.44
404.439	15.2
404.646	15.12
404.853	14.98
405.06	15.26
405.267	15.3
405.474	15.42
405.681	15.71
405.887	15.76
406.094	15.84
406.301	15.91
406.508	16.09
406.715	16.41
406.922	16.48
407.128	16.33
407.335	16.39
407.542	16.29
407.749	16.54
407.955	16.29
408.162	16.57
408.369	16.67
408.575	16.38
408.782	16.18
408.989	16.23
409.195	16.33
409.402	16.6
409.609	16.02
409.815	16.1
410.022	15.89
410.228	15.89
410.435	16.08
410.642	15.84
410.848	15.77
411.055	15.65
411.261	15.4
411.468	15.5
411.674	15.16
411.881	15.36
412.087	14.91
412.294	14.97
412.5	15.14
412.706	15
412.913	14.85
413.119	15.15
413.326	15.15
413.532	14.96
413.738	14.69
413.945	14.75
414.151	14.93
414.357	15.14
414.564	14.97
414.77	14.92
414.976	14.6
415.182	14.74
415.389	14.84
415.595	15.02
415.801	15.27
416.007	15.2
416.214	15.21
416.42	15.08
416.626	15.18
416.832	15.43
417.038	15.32
417.244	15.38
417.45	15.43
417.657	15.33
417.863	15.1
418.069	15.17
418.275	15.2
418.481	15.28
418.687	15.27
418.893	15.05
419.099	14.8
419.305	14.97
419.511	15.02
419.717	14.87
419.923	14.79
420.129	15.02
420.335	15.02
420.541	14.98
420.746	15.05
420.952	15.1
421.158	15.19
421.364	15.14
421.57	14.98
421.776	14.83
421.982	14.9
422.187	14.83
422.393	14.64
422.599	14.69
422.805	14.69
423.01	14.62
423.216	14.44
423.422	14.35
423.628	14.44
423.833	14.5
424.039	14.66
424.245	14.72
424.45	14.81
424.656	14.78
424.862	14.69
425.067	14.9
425.273	14.89
425.478	15.12
425.684	15.29
425.889	15.27
426.095	15.18
426.301	15.22
426.506	15.21
426.712	15.15
426.917	15.28
427.123	15.26
427.328	14.9
427.533	14.93
427.739	14.74
427.944	14.52
428.15	14.57
428.355	14.87
428.561	14.73
428.766	14.4
428.971	14.42
429.177	14.44
429.382	14.2
429.587	14.29
429.793	13.96
429.998	14.03
430.203	14.15
430.408	13.84
430.614	13.65
430.819	13.83
431.024	13.89
431.229	13.96
431.434	13.96
431.64	13.98
431.845	14.2
432.05	14.35
432.255	14.26
432.46	14.27
432.665	14.53
432.87	14.65
433.076	14.65
433.281	14.51
433.486	14.34
433.691	14.13
433.896	14.09
434.101	14.08
434.306	14.28
434.511	14.25
434.716	14.28
434.921	14.15
435.126	14.16
435.331	13.87
435.535	14.1
435.74	14.36
435.945	14.59
436.15	14.82
436.355	14.69
436.56	14.61
436.765	14.48
436.97	14.41
437.174	14.43
437.379	14.31
437.584	14.47
437.789	14.6
437.993	14.35
438.198	14.22
438.403	14.38
438.608	14.34
438.812	14.31
439.017	14.45
439.222	14.56
439.426	14.67
439.631	14.7
439.836	14.62
440.04	14.67
440.245	14.7
440.45	14.78
440.654	14.73
440.859	14.77
441.063	14.69
441.268	14.78
441.472	14.67
441.677	14.59
441.881	14.52
442.086	14.5
442.29	14.37
442.495	14.45
442.699	14.31
442.904	14.23
443.108	14.17
443.312	14.19
443.517	14.12
443.721	14.29
443.925	14.32
444.13	14.45
444.334	14.59
444.538	14.62
444.743	14.73
444.947	14.83
445.151	14.77
445.356	15
445.56	14.92
445.764	14.81
445.968	14.8
446.173	14.76
446.377	14.64
446.581	14.5
446.785	14.5
446.989	14.38
447.193	14.17
447.398	14.1
447.602	13.88
447.806	13.96
448.01	14
448.214	13.93
448.418	13.85
448.622	13.98
448.826	14.13
449.03	14.15
449.234	14.12
449.438	14.46
449.642	14.61
449.846	14.49
450.05	14.49
450.254	14.57
450.458	14.44
450.662	14.5
450.866	14.34
451.069	14.17
451.273	14.19
451.477	14.19
451.681	14.24
451.885	14.13
452.089	14.08
452.292	14.03
452.496	14.08
452.7	14.27
452.904	14.26
453.107	14.14
453.311	14.11
453.515	13.9
453.719	14.04
453.922	13.86
454.126	13.93
454.33	13.8
454.533	13.72
454.737	13.6
454.94	13.45
455.144	13.5
455.348	13.59
455.551	13.72
455.755	13.85
455.958	13.51
456.162	13.36
456.365	13.3
456.569	13.5
456.772	13.53
456.976	13.55
457.179	13.54
457.383	13.49
457.586	13.33
457.79	13.24
457.993	13.25
458.196	13.4
458.4	13.6
458.603	13.69
458.807	13.86
459.01	13.78
459.213	13.83
459.417	13.81
459.62	13.9
459.823	13.95
460.026	14.06
460.23	14.15
460.433	14.12
460.636	14.07
460.839	14.09
461.042	14.18
461.246	14.25
461.449	14.17
461.652	14.1
461.855	14.19
462.058	14.28
462.261	14.1
462.464	14.05
462.668	14.36
462.871	14.38
463.074	14.21
463.277	14.19
463.48	14.26
463.683	14.33
463.886	14.54
464.089	14.42
464.292	14.41
464.495	14.49
464.698	14.69
464.901	14.51
465.104	14.54
465.306	14.71
465.509	14.53
465.712	14.54
465.915	14.8
466.118	14.77
466.321	14.61
466.524	14.64
466.726	14.73
466.929	14.49
467.132	14.25
467.335	14.41
467.538	14.26
467.74	14.31
467.943	14.32
468.146	14.04
468.348	14.05
468.551	14.19
468.754	14.48
468.956	14.39
469.159	14.46
469.362	14.63
469.564	14.44
469.767	14.67
469.969	14.86
470.172	14.91
470.375	15.02
470.577	14.94
470.78	14.98
470.982	14.76
471.185	14.92
471.387	14.97
471.59	14.99
471.792	14.98
471.995	14.98
472.197	14.69
472.399	14.65
472.602	14.57
472.804	14.64
473.007	14.53
473.209	14.51
473.411	14.4
473.614	14.25
473.816	14.26
474.018	14.31
474.22	14.16
474.423	14.18
474.625	14.09
474.827	14.15
475.03	14.01
475.232	13.91
475.434	14
475.636	14.17
475.838	14.21
476.04	14.3
476.243	14.17
476.445	14.26
476.647	14.2
476.849	14.31
477.051	14.38
477.253	14.41
477.455	14.79
477.657	14.69
477.859	14.64
478.061	14.63
478.263	14.64
478.465	14.64
478.667	14.5
478.869	14.54
479.071	14.63
479.273	14.64
479.475	14.73
479.677	14.64
479.879	14.72
480.081	14.67
480.283	14.67
480.485	14.65
480.686	14.57
480.888	14.64
481.09	14.6
481.292	14.54
481.494	14.41
481.695	14.27
481.897	14.23
482.099	14.28
482.301	14.24
482.502	14.29
482.704	14.26
482.906	14.35
483.107	14.38
483.309	14.43
483.511	14.39
483.712	14.41
483.914	14.42
484.115	14.43
484.317	14.39
484.519	14.4
484.72	14.38
484.922	14.4
485.123	14.38
485.325	14.37
485.526	14.39
485.728	14.36
485.929	14.43
486.131	14.46
486.332	14.43
486.534	14.4
486.735	14.4
486.936	14.42
487.138	14.4
487.339	14.41
487.541	14.36
487.742	14.3
487.943	14.35
488.144	14.24
488.346	14.26
488.547	14.29
488.748	14.36
488.95	14.3
489.151	14.36
489.352	14.38
489.553	14.33
489.755	14.44
489.956	14.48
490.157	14.46
490.358	14.6
490.559	14.64
490.76	14.6
490.961	14.55
491.163	14.59
491.364	14.59
491.565	14.55
491.766	14.64
491.967	14.57
492.168	14.6
492.369	14.57
492.57	14.48
492.771	14.42
492.972	14.45
493.173	14.5
493.374	14.51
493.575	14.41
493.776	14.42
493.976	14.37
494.177	14.35
494.378	14.24
494.579	14.3
494.78	14.34
494.981	14.39
495.182	14.35
495.382	14.23
495.583	14.2
495.784	14.2
495.985	14.22
496.185	14.25
496.386	14.09
496.587	14.21
496.788	14.07
496.988	14.09
497.189	14.1
497.39	14.08
497.59	14.19
497.791	14.31
497.992	14.41
498.192	14.36
498.393	14.4
498.593	14.58
498.794	14.65
498.994	14.81
499.195	14.79
499.395	14.76
499.596	14.72
499.796	14.71
499.997	14.73
500.197	14.66
500.398	14.93
500.598	14.94
500.799	14.99
500.999	14.91
501.199	15.21
501.4	15.3
501.6	15.61
501.801	15.72
502.001	15.7
502.201	15.66
502.402	15.87
502.602	15.7
502.802	15.85
503.002	16.04
503.203	16.14
503.403	16.03
503.603	16.02
503.803	15.82
504.003	15.77
504.204	15.92
504.404	15.97
504.604	15.85
504.804	15.87
505.004	15.76
505.204	15.62
505.404	15.48
505.604	15.38
505.804	15.5
506.005	15.5
506.205	15.64
506.405	15.52
506.605	15.73
506.805	15.72
507.005	15.76
507.204	15.79
507.404	15.94
507.604	16.06
507.804	16.18
508.004	16.32
508.204	16.34
508.404	16.51
508.604	16.61
508.804	16.52
509.003	16.65
509.203	16.75
509.403	16.7
509.603	16.64
509.803	16.8
510.002	16.83
510.202	16.77
510.402	16.89
510.602	16.76
510.801	16.89
511.001	16.91
511.201	16.76
511.4	16.88
511.6	17.09
511.8	17.08
511.999	16.9
512.199	16.77
512.398	16.87
512.598	16.91
512.797	17.16
512.997	17.04
513.197	17.09
513.396	17.34
513.596	17.23
513.795	17.18
513.994	17.26
514.194	17.54
514.393	17.75
514.593	17.82
514.792	17.81
514.992	17.76
515.191	18.02
515.39	17.99
515.59	18.15
515.789	18.25
515.988	18.36
516.188	18.56
516.387	18.59
516.586	18.6
516.786	18.55
516.985	18.77
517.184	18.76
517.383	18.82
517.582	18.98
517.782	18.94
517.981	19.01
518.18	19.05
518.379	18.98
518.578	18.99
518.777	19.09
518.976	19.24
519.176	19.25
519.375	19.3
519.574	19.29
519.773	19.32
519.972	19.3
520.171	19.28
520.37	19.26
520.569	19.35
520.768	19.41
520.967	19.35
521.166	19.22
521.365	19.18
521.564	19.22
521.762	19.15
521.961	19.14
522.16	19.22
522.359	19.34
522.558	19.65
522.757	19.79
522.956	19.85
523.154	19.97
523.353	20.17
523.552	20.13
523.751	20.28
523.949	20.65
524.148	20.79
524.347	20.92
524.546	21.16
524.744	21.19
524.943	21.24
525.142	21.29
525.34	21.5
525.539	21.59
525.737	21.79
525.936	21.85
526.135	21.77
526.333	21.77
526.532	21.81
526.73	21.7
526.929	21.75
527.127	21.73
527.326	21.84
527.524	21.87
527.723	21.94
527.921	21.94
528.12	21.99
528.318	21.97
528.516	22.07
528.715	22.16
528.913	22.23
529.112	22.28
529.31	22.41
529.508	22.4
529.707	22.41
529.905	22.43
530.103	22.51
530.301	22.48
530.5	22.6
530.698	22.67
530.896	22.61
531.094	22.65
531.293	22.65
531.491	22.57
531.689	22.71
531.887	22.78
532.085	22.79
532.283	22.86
532.481	23.09
532.68	23.16
532.878	23.15
533.076	23.31
533.274	23.36
533.472	23.34
533.67	23.37
533.868	23.34
534.066	23.41
534.264	23.45
534.462	23.48
534.66	23.42
534.858	23.34
535.056	23.38
535.253	23.38
535.451	23.43
535.649	23.62
535.847	23.79
536.045	23.8
536.243	23.84
536.441	23.94
536.638	23.92
536.836	24
537.034	24.23
537.232	24.16
537.43	24.22
537.627	24.23
537.825	24.27
538.023	24.27
538.22	24.49
538.418	24.36
538.616	24.29
538.813	24.38
539.011	24.33
539.209	24.1
539.406	24.26
539.604	24.27
539.801	24.32
539.999	24.22
540.196	24.3
540.394	24.26
540.591	24.33
540.789	24.35
540.986	24.3
541.184	24.34
541.381	24.4
541.579	24.42
541.776	24.39
541.974	24.45
542.171	24.45
542.368	24.44
542.566	24.34
542.763	24.45
542.96	24.51
543.158	24.56
543.355	24.53
543.552	24.54
543.75	24.5
543.947	24.5
544.144	24.48
544.341	24.51
544.539	24.57
544.736	24.79
544.933	24.66
545.13	24.73
545.327	24.8
545.524	24.85
545.722	24.87
545.919	25.01
546.116	25.16
546.313	25.1
546.51	25.11
546.707	25.13
546.904	25.16
547.101	25.33
547.298	25.29
547.495	25.36
547.692	25.45
547.889	25.54
548.086	25.6
548.283	25.63
548.48	25.8
548.677	25.87
548.874	25.87
549.07	25.92
549.267	25.77
549.464	25.84
549.661	25.73
549.858	25.93
550.055	25.95
550.251	25.89
550.448	25.89
550.645	25.96
550.842	25.92
551.038	25.95
551.235	25.88
551.432	25.95
551.628	25.99
551.825	26.19
552.022	26.19
552.218	26.31
552.415	26.56
552.612	26.45
552.808	26.52
553.005	26.65
553.201	26.67
553.398	26.86
553.594	26.98
553.791	26.99
553.987	27.05
554.184	27.06
554.38	27.01
554.577	26.77
554.773	26.9
554.97	26.7
555.166	26.72
555.362	26.69
555.559	26.65
555.755	26.6
555.952	26.67
556.148	26.56
556.344	26.37
556.541	26.6
556.737	26.79
556.933	26.68
557.129	26.69
557.326	26.68
557.522	26.77
557.718	26.72
557.914	26.9
558.11	26.91
558.307	27.05
558.503	27.09
558.699	26.92
558.895	27.12
559.091	27.35
559.287	27.56
559.483	27.68
559.679	27.72
559.876	27.71
560.072	27.47
560.268	27.28
560.464	27.18
560.66	27.49
560.856	27.37
561.052	27.18
561.247	27.28
561.443	27.17
561.639	27.34
561.835	27.25
562.031	27.22
562.227	27.39
562.423	27.83
562.619	28
562.815	27.94
563.01	28.21
563.206	28.25
563.402	28.22
563.598	28.43
563.793	28.17
563.989	28.17
564.185	28.31
564.381	28.32
564.576	28.42
564.772	28.29
564.968	28.3
565.163	28.27
565.359	28.2
565.555	28.07
565.75	28.02
565.946	28.16
566.141	28.36
566.337	28.43
566.532	28.58
566.728	28.38
566.923	28.43
567.119	28.46
567.314	28.57
567.51	28.79
567.705	28.84
567.901	28.83
568.096	28.9
568.292	28.8
568.487	28.7
568.682	28.75
568.878	28.97
569.073	28.9
569.268	28.86
569.464	28.79
569.659	28.63
569.854	28.83
570.05	28.75
570.245	28.81
570.44	28.85
570.635	28.94
570.831	28.88
571.026	28.67
571.221	28.62
571.416	28.66
571.611	28.67
571.806	28.71
572.002	28.62
572.197	28.75
572.392	28.77
572.587	28.78
572.782	28.81
572.977	28.96
573.172	28.97
573.367	29.23
573.562	29.18
573.757	29.2
573.952	29.37
574.147	29.17
574.342	29.13
574.537	29.08
574.732	29.04
574.927	29.13
575.121	28.86
575.316	29.06
575.511	28.99
575.706	29.14
575.901	29.14
576.096	28.9
576.29	29.14
576.485	29.23
576.68	29.32
576.875	29.31
577.069	29.22
577.264	29.28
577.459	29.22
577.654	29.4
577.848	29.29
578.043	29.38
578.238	29.83
578.432	29.85
578.627	29.98
578.821	29.92
579.016	29.84
579.21	29.82
579.405	30.2
579.6	30.27
579.794	30
579.989	30.01
580.183	29.76
580.378	29.54
580.572	29.65
580.766	29.56
580.961	29.46
581.155	29.75
581.35	29.66
581.544	29.18
581.738	29
581.933	28.85
582.127	28.87
582.321	29.22
582.516	29.24
582.71	29.18
582.904	29.02
583.099	29.31
583.293	29.28
583.487	29.53
583.681	29.83
583.875	29.76
584.07	29.79
584.264	29.96
584.458	29.89
584.652	29.93
584.846	29.97
585.04	30.14
585.234	29.82
585.428	29.82
585.623	29.63
585.817	29.38
586.011	29.5
586.205	29.52
586.399	29.46
586.593	29.29
586.787	29.33
586.981	29.55
587.174	29.74
587.368	29.84
587.562	30.04
587.756	30.1
587.95	30.24
588.144	30.42
588.338	30.48
588.532	30.65
588.725	30.85
588.919	30.83
589.113	30.77
589.307	30.65
589.501	30.86
589.694	30.67
589.888	30.74
590.082	30.7
590.275	30.61
590.469	30.97
590.663	30.9
590.856	30.42
591.05	30.41
591.244	30.12
591.437	30.22
591.631	30.3
591.824	30.25
592.018	30.24
592.212	30.31
592.405	30.35
592.599	30.04
592.792	30.11
592.986	30.79
593.179	30.86
593.372	31.15
593.566	30.97
593.759	30.81
593.953	30.94
594.146	31.21
594.339	31.15
594.533	31.08
594.726	31.34
594.92	31.36
595.113	31.05
595.306	30.94
595.499	31.01
595.693	31.18
595.886	31.37
596.079	31.45
596.272	31.26
596.466	31.37
596.659	31.46
596.852	31.19
597.045	31.16
597.238	31.3
597.431	31.41
597.624	31.24
597.818	31.22
598.011	31.07
598.204	30.91
598.397	31.12
598.59	31.03
598.783	30.96
598.976	31.21
599.169	31.21
599.362	31.32
599.555	31.2
599.748	31.33
599.941	31.41
600.134	31.33
600.326	31.55
600.519	31.52
600.712	31.3
600.905	31.35
601.098	31.4
601.291	31.03
601.483	30.8
601.676	30.91
601.869	30.85
602.062	30.87
602.255	30.86
602.447	30.74
602.64	30.61
602.833	31.01
603.025	31.16
603.218	31.33
603.411	31.53
603.603	31.6
603.796	31.61
603.989	31.65
604.181	31.66
604.374	31.71
604.566	31.79
604.759	31.78
604.951	31.79
605.144	31.87
605.336	31.6
605.529	31.62
605.721	31.69
605.914	31.61
606.106	31.67
606.299	31.58
606.491	31.54
606.683	31.49
606.876	31.31
607.068	31.48
607.26	31.31
607.453	31.45
607.645	31.46
607.837	31.38
608.03	31.71
608.222	31.69
608.414	31.61
608.606	31.69
608.799	32.1
608.991	32.44
609.183	32.26
609.375	32.37
609.567	32.51
609.759	32.41
609.952	32.47
610.144	32.26
610.336	32.18
610.528	32.43
610.72	32.59
610.912	32.22
611.104	32.17
611.296	32.06
611.488	31.92
611.68	31.54
611.872	31.76
612.064	31.61
612.256	31.62
612.448	31.8
612.64	31.79
612.832	31.44
613.023	31.63
613.215	31.18
613.407	31.25
613.599	31.04
613.791	31.51
613.983	31.4
614.174	31.32
614.366	31.24
614.558	31.34
614.75	31.42
614.941	31.65
615.133	31.58
615.325	31.71
615.516	31.87
615.708	32.25
615.9	32.14
616.091	31.93
616.283	32.26
616.475	32.13
616.666	32.02
616.858	31.73
617.049	31.79
617.241	31.8
617.432	31.86
617.624	31.77
617.815	31.7
618.007	31.55
618.198	31.64
618.39	31.25
618.581	31.09
618.773	31.22
618.964	31.32
619.155	31.11
619.347	31.2
619.538	31.63
619.729	31.57
619.921	31.64
620.112	31.59
620.303	31.73
620.494	32
620.686	32.33
620.877	32.01
621.068	32.01
621.259	32.01
621.451	31.85
621.642	31.31
621.833	31.43
622.024	31.44
622.215	31.31
622.406	31.28
622.597	31.26
622.788	31.04
622.98	31.21
623.171	30.91
623.362	31.06
623.553	31.24
623.744	31.37
623.935	31.16
624.126	31.1
624.317	31.4
624.508	31.43
624.698	31.23
624.889	31.53
625.08	31.39
625.271	31.43
625.462	31.26
625.653	31.25
625.844	31.31
626.034	31.26
626.225	31.47
626.416	31.32
626.607	31.45
626.798	31.52
626.988	31.35
627.179	31.44
627.37	31.61
627.56	32.04
627.751	31.89
627.942	32.03
628.132	32.31
628.323	32.23
628.514	32.37
628.704	32.33
628.895	32.48
629.085	32.61
629.276	32.39
629.466	32.36
629.657	31.83
629.847	31.97
630.038	32.17
630.228	31.86
630.419	31.84
630.609	31.65
630.8	31.77
630.99	32.04
631.181	32.4
631.371	32.86
631.561	32.73
631.752	32.83
631.942	32.67
632.132	32.76
632.323	32.97
632.513	33.02
632.703	33.02
632.893	32.94
633.084	32.74
633.274	32.36
633.464	31.92
633.654	31.81
633.844	32.05
634.034	32.06
634.225	31.53
634.415	31.46
634.605	31.18
634.795	31.49
634.985	31.64
635.175	31.45
635.365	31.4
635.555	31.66
635.745	31.86
635.935	31.64
636.125	31.53
636.315	31.95
636.505	32.15
636.695	32.24
636.885	32.05
637.075	31.67
637.265	31.82
637.455	31.81
637.644	31.61
637.834	31.62
638.024	31.75
638.214	31.94
638.404	31.73
638.593	31.62
638.783	31.68
638.973	31.66
639.163	32.01
639.352	32.03
639.542	32.22
639.732	32.37
639.921	32.71
640.111	33.01
640.301	32.75
640.49	32.92
640.68	32.92
640.87	33.1
641.059	33.51
641.249	33.43
641.438	33.55
641.628	33.84
641.817	34.05
642.007	33.51
642.196	33.27
642.386	33.45
642.575	33.09
642.764	33.05
642.954	33.13
643.143	32.64
643.333	32.41
643.522	32.05
643.711	31.87
643.901	31.23
644.09	31.36
644.279	31.24
644.469	31.57
644.658	32.04
644.847	32.18
645.036	31.85
645.226	31.89
645.415	32.29
645.604	32.72
645.793	32.94
645.982	33.32
646.171	33.03
646.361	33.18
646.55	33.08
646.739	32.69
646.928	32.85
647.117	32.74
647.306	32.75
647.495	32.71
647.684	32.36
647.873	32.25
648.062	32.33
648.251	33
648.44	33.14
648.629	32.98
648.818	33.11
649.007	32.67
649.196	33.02
649.384	33.16
649.573	33.07
649.762	33.4
649.951	32.76
650.14	32.56
650.328	32.31
650.517	32.49
650.706	32.47
650.895	32.54
651.083	32.6
651.272	32.36
651.461	32.13
651.65	32.06
651.838	31.82
652.027	32.61
652.216	32.86
652.404	33.08
652.593	32.67
652.781	32.94
652.97	32.77
653.158	32.63
653.347	32.77
653.535	32.92
653.724	32.46
653.912	32.41
654.101	32.08
654.289	32.28
654.478	32.25
654.666	32.22
654.855	31.84
655.043	31.81
655.231	31.96
655.42	31.87
655.608	31.91
655.796	31.96
655.985	32.24
656.173	32.19
656.361	31.58
656.55	31.53
656.738	31.59
656.926	32.28
657.114	32.51
657.302	32.84
657.491	32.93
657.679	32.84
657.867	33.29
658.055	33.35
658.243	33.36
658.431	33.6
658.619	33.64
658.807	33.66
658.996	33.16
659.184	33.14
659.372	33.01
659.56	33.11
659.748	33.19
659.936	33.24
660.124	33
660.311	33.11
660.499	33.35
660.687	33.22
660.875	33
661.063	33.35
661.251	33.03
661.439	33.11
661.627	32.96
661.814	33.25
662.002	33.13
662.19	33.33
662.378	33.02
662.565	32.68
662.753	32.63
662.941	32.87
663.129	32.55
663.316	32.71
663.504	32.67
663.692	32.63
663.879	32.32
664.067	32.1
664.254	32.29
664.442	32.51
664.63	32.57
664.817	32.64
665.005	32.73
665.192	32.87
665.38	33.07
665.567	33.03
665.755	32.9
665.942	33.09
666.13	33.4
666.317	33.14
666.504	33.19
666.692	33.82
666.879	34.03
667.067	34.07
667.254	34.25
667.441	33.71
667.629	33.67
667.816	33.84
668.003	33.73
668.19	33.61
668.378	34.19
668.565	33.97
668.752	33.32
668.939	33.48
669.127	33.11
669.314	32.53
669.501	32.94
669.688	32.43
669.875	32.56
670.062	31.97
670.249	32.08
670.436	31.31
670.623	31.33
670.81	31.42
670.997	31.3
671.184	31.59
671.371	31.89
671.558	31.74
671.745	32.4
671.932	31.97
672.119	32.35
672.306	32.7
672.493	32.59
672.68	32.61
672.867	32.53
673.054	32.57
673.24	32.43
673.427	32.62
673.614	32.37
673.801	32.47
673.988	32.8
674.174	32.95
674.361	32.56
674.548	32.86
674.734	32.86
674.921	32.86
675.108	32.57
675.294	32.61
675.481	32.43
675.668	32.84
675.854	32.55
676.041	32.85
676.227	33.08
676.414	32.89
676.601	32.78
676.787	32.42
676.974	32.47
677.16	32.5
677.347	32.21
677.533	32.16
677.719	32.82
677.906	33.18
678.092	32.7
678.279	32.49
678.465	32.36
678.651	32.59
678.838	33.15
679.024	33.64
679.21	33.79
679.397	34.5
679.583	34.62
679.769	33.87
679.955	33.72
680.142	33.73
680.328	33.59
680.514	33.84
680.7	33.73
680.886	33.6
681.073	33.4
681.259	33.28
681.445	33.04
681.631	33.15
681.817	33.7
682.003	33.85
682.189	34.46
682.375	34.99
682.561	34.84
682.747	34.93
682.933	34.87
683.119	34.25
683.305	34.15
683.491	34.57
683.677	34.75
683.863	34.74
684.049	34.64
684.235	33.79
684.42	33.52
684.606	33.42
684.792	33.22
684.978	33.01
685.164	33.32
685.349	33.58
685.535	32.98
685.721	32.58
685.907	32.08
686.092	31.97
686.278	32.8
686.464	32.52
686.649	32.75
686.835	32.42
687.021	32.76
687.206	32.83
687.392	32.39
687.577	32.5
687.763	32.41
687.948	32.53
688.134	32.32
688.319	31.59
688.505	31.74
688.69	31.8
688.876	32.29
689.061	32.11
689.247	32.73
689.432	33.21
689.618	33.78
689.803	34.05
689.988	34.12
690.174	34.14
690.359	34.62
690.544	34.23
690.73	34.26
690.915	34.23
691.1	34.51
691.285	33.9
691.471	33.42
691.656	32.72
691.841	33.07
692.026	33.14
692.211	33.28
692.396	32.79
692.582	33.09
692.767	33.36
692.952	33.55
693.137	33.84
693.322	34.34
693.507	34.13
693.692	34.2
693.877	33.59
694.062	33.32
694.247	33.39
694.432	33.93
694.617	34.19
694.802	33.49
694.987	32.74
695.172	32.77
695.357	31.87
695.541	32.13
695.726	32.28
695.911	32
696.096	32.73
696.281	32.65
696.466	32.46
696.65	32.69
696.835	33.27
697.02	33.71
697.204	33.6
697.389	33.93
697.574	34.01
697.759	34.09
697.943	33.99
698.128	33.77
698.312	34
698.497	34.1
698.682	33.81
698.866	33.77
699.051	33.73
699.235	34.08
699.42	34.27
699.604	34.24
699.789	34.4
699.973	34.36
700.158	34.26
700.342	34.51
700.527	34.65
700.711	34.88
700.895	35.07
701.08	35.05
701.264	33.98
701.448	33.96
701.633	34.29
701.817	34.32
702.001	35.2
702.186	35.31
702.37	34.83
702.554	34.86
702.738	34.91
702.923	34.3
703.107	34.88
703.291	35.78
703.475	36.18
703.659	36.3
703.843	35.55
704.027	35.23
704.212	35.24
704.396	35.39
704.58	34.79
704.764	34.08
704.948	34.64
705.132	34.69
705.316	34.67
705.5	34.16
705.684	34.22
705.868	34.39
706.052	34.43
706.235	33.81
706.419	33.67
706.603	34.64
706.787	35.67
706.971	35.22
707.155	34.86
707.339	34.03
707.522	33.68
707.706	33.24
707.89	32.76
708.074	32.96
708.257	33.23
708.441	33.3
708.625	31.9
708.808	31.68
708.992	32.04
709.176	32.15
709.359	32.67
709.543	32.76
709.727	32.83
709.91	33.2
710.094	33.29
710.277	33.27
710.461	33.48
710.644	34.67
710.828	34.04
711.011	34.64
711.195	34.94
711.378	35.17
711.562	34.93
711.745	34.57
711.928	34.22
712.112	34.27
712.295	34.59
712.478	34.72
712.662	34.15
712.845	34.78
713.028	34.29
713.212	33.34
713.395	33.49
713.578	34.32
713.761	34.38
713.945	35.21
714.128	34.64
714.311	33.95
714.494	33.36
714.677	33.29
714.86	33.11
715.043	33.14
715.227	33.13
715.41	32.36
715.593	32.11
715.776	32.73
715.959	31.82
716.142	31.72
716.325	32.59
716.508	32.75
716.691	33.16
716.874	32.83
717.057	32.27
717.239	33.14
717.422	33.68
717.605	32.6
717.788	32.09
717.971	32.66
718.154	32.88
718.337	32.55
718.519	32.64
718.702	32.04
718.885	32.2
719.068	31.94
719.25	31.18
719.433	31.1
719.616	31.95
719.798	32.31
719.981	33.31
720.164	33.39
720.346	33.66
720.529	33.9
720.712	33.95
720.894	34.02
721.077	34.13
721.259	33.85
721.442	33.49
721.624	33.62
721.807	34.38
721.989	32.8
722.172	32.19
722.354	32.16
722.537	31.79
722.719	31.58
722.901	31.65
723.084	31.85
723.266	32.71
723.448	33.54
723.631	33.14
723.813	32.21
723.995	32.81
724.178	33.06
724.36	33.9
724.542	33.46
724.724	33.5
724.907	32.25
725.089	31.98
725.271	31.08
725.453	30.66
725.635	32.42
725.817	32.37
725.999	32.27
726.181	32.93
726.364	31.95
726.546	32.1
726.728	31.39
726.91	32.48
727.092	32.88
727.274	33.04
727.456	33.02
727.638	32.14
727.819	33.09
728.001	33.27
728.183	33.21
728.365	33.06
728.547	33.58
728.729	34.57
728.911	34.36
729.093	34.06
729.274	34.24
729.456	34.31
729.638	34.28
729.82	33.55
730.001	32.99
730.183	32.59
730.365	32.35
730.546	32.85
730.728	32.98
730.91	32.78
731.091	32.96
731.273	33.23
731.455	32.99
731.636	32.27
731.818	32.18
731.999	32.02
732.181	33.03
732.362	33.37
732.544	32.43
732.725	32.87
732.907	33.06
733.088	33.59
733.27	33.75
733.451	33.24
733.633	33.44
733.814	33.42
733.995	34.22
734.177	33.34
734.358	33.54
734.539	33.65
734.721	33.15
734.902	33.66
735.083	33.03
735.264	33.05
735.446	33.49
735.627	33.99
735.808	34.5
735.989	33.58
736.17	33.54
736.351	33.37
736.533	33.64
736.714	33.65
736.895	33.5
737.076	34.21
737.257	34.91
737.438	34.38
737.619	32.78
737.8	31.89
737.981	33.44
738.162	34.23
738.343	34.84
738.524	34.72
738.705	34.36
738.886	34.64
739.067	33.06
739.247	32.76
739.428	33.37
739.609	34.32
739.79	34.68
739.971	33.87
740.151	33.27
740.332	32.04
740.513	32.48
740.694	31.71
740.874	30.98
741.055	31.45
741.236	30.58
741.417	30.07
741.597	29.73
741.778	29.01
741.958	28.82
742.139	27.76
742.32	28.36
742.5	29.36
742.681	30.52
742.861	30.14
743.042	31.79
743.222	31.44
743.403	32.26
743.583	34.28
743.764	35.27
743.944	36.48
744.124	37.96
744.305	38.3
744.485	37.48
744.666	36.35
744.846	37.09
745.026	36.87
745.207	37.16
745.387	36.08
745.567	34.29
745.747	33.48
745.928	32.47
746.108	31.78
746.288	30.96
746.468	30.33
746.648	30.43
746.829	31
747.009	30.68
747.189	31.79
747.369	32.4
747.549	32.92
747.729	32.97
747.909	33.66
748.089	33.41
748.269	33.61
748.449	33.87
748.629	35.64
748.809	35.46
748.989	35.33
749.169	34.69
749.349	33.42
749.529	32.57
749.709	32.8
749.889	32.19
750.068	33.03
750.248	33.38
750.428	33.02
750.608	31.46
750.788	31.38
750.967	30.88
751.147	30.08
751.327	31.08
751.507	32.02
751.686	32.43
751.866	31.61
752.046	30.51
752.225	31.3
752.405	31.42
752.585	32.7
752.764	32.07
752.944	32.48
753.123	32.33
753.303	32.18
753.482	31.16
753.662	31.2
753.841	32.39
754.021	33.18
754.2	32.66
754.38	31.84
754.559	31.09
754.739	31.21
754.918	30.73
755.097	31.8
755.277	31.68
755.456	32.7
755.635	32.07
755.815	31.6
755.994	31.47
756.173	32.02
756.352	31.92
756.532	32.94
756.711	34.08
756.89	34.5
757.069	35.22
757.248	35.33
757.427	34.76
757.607	34.09
757.786	33.63
757.965	34.22
758.144	33.32
758.323	34.01
758.502	32.97
758.681	31.91
758.86	31.95
759.039	31.87
759.218	32.72
759.397	33.58
759.576	34.31
759.755	34.35
759.934	33.99
760.113	34.43
760.291	35.73
760.47	36.68
760.649	37.42
760.828	37.15
761.007	37.39
761.186	36.3
761.364	35.24
761.543	35.77
761.722	35.66
761.901	36.25
762.079	35.93
762.258	34.6
762.437	34.87
762.615	34.76
762.794	34.91
762.972	34.72
763.151	36.01
763.33	36.24
763.508	36.24
763.687	36.71
763.865	35.96
764.044	35.65
764.222	35.94
764.401	35.05
764.579	34.37
764.758	34.37
764.936	33.72
765.114	33.06
765.293	33.42
765.471	33.23
765.65	32.78
765.828	32.44
766.006	33.1
766.184	32.44
766.363	32.2
766.541	32.91
766.719	33.89
766.898	33.77
767.076	34.91
767.254	34.94
767.432	34.35
767.61	34.84
767.788	35.43
767.967	34.78
768.145	34.73
768.323	36.19
768.501	36.36
768.679	35.9
768.857	34.42
769.035	32.7
769.213	31.91
769.391	30.83
769.569	31.37
769.747	31.45
769.925	31.73
770.103	31.31
770.281	30.55
770.459	29.86
770.636	28.94
770.814	32.58
770.992	31.19
771.17	32.12
771.348	33.27
771.525	31.34
771.703	30.8
771.881	30.46
772.059	30.94
772.236	31.55
772.414	32.34
772.592	32.09
772.769	30.83
772.947	31.34
773.125	30.85
773.302	29.37
773.48	28.94
773.657	29.15
773.835	29.26
774.013	29.32
774.19	27.68
774.368	24.65
774.545	25.81
774.723	26.57
774.9	27.35
775.077	27.68
775.255	30.54
775.432	30.58
775.61	32.24
775.787	32.99
775.964	33.83
776.142	33.7
776.319	37.33
776.496	36.63
776.674	36.64
776.851	37.66
777.028	36.99
777.205	37.11
777.382	38.43
777.56	36.37
777.737	37.17
777.914	38.14
778.091	38.99
778.268	36.98
778.445	37.17
778.622	37.03
778.8	37.26
778.977	36.57
779.154	33.08
779.331	32.9
779.508	33.2
779.685	30.7
779.862	31.58
780.038	32.46
780.215	31.36
780.392	32.18
780.569	30.15
780.746	30
780.923	31.35
781.1	32.09
781.277	32.51
781.453	32.48
781.63	32.95
781.807	30.91
781.984	30.81
782.16	34.11
782.337	34.24
782.514	35.6
782.691	34.07
782.867	33.43
783.044	35.23
783.221	35.92
783.397	36.42
783.574	38.53
783.75	38.3
783.927	36.22
784.103	33.8
784.28	31.06
784.456	31.29
784.633	32.79
784.809	31.54
784.986	31.78
785.162	28.74
785.339	26.31
785.515	21.91
785.692	24.1
785.868	25.11
786.044	25.27
786.221	25.74
786.397	24.52
786.573	21.2
786.749	23.15
786.926	22.53
787.102	23.44
787.278	24.19
787.454	27.74
787.631	26.05
787.807	25.79
787.983	27.82
788.159	28.49
788.335	27.73
788.511	30.99
788.687	29.92
788.863	30.76
789.039	32.93
789.216	34
789.392	35.12
789.568	34.22
789.744	34.29
789.919	32.06
790.095	32.76
790.271	34.19
790.447	32.92
790.623	33.7
790.799	34.09
790.975	32.61
791.151	30.48
791.327	26.91
791.502	29.58
791.678	31.66
791.854	32.63
792.03	32.7
792.205	33.16
792.381	32.88
792.557	34.11
792.733	34.96
792.908	35.15
793.084	34.37
793.259	35.37
793.435	30.13
793.611	29.3
793.786	29.13
793.962	27.9
794.137	27.55
794.313	26.82
794.488	25.45
794.664	25.35
794.839	22.69
795.015	25.53
795.19	27.56
795.366	30.98
795.541	31.31
795.716	31.6
795.892	33.72
796.067	34.97
796.242	34.89
796.418	35.96
796.593	35.59
796.768	36.51
796.944	36.51
797.119	37.09
797.294	36.02
797.469	35.43
797.644	35.84
797.82	32.79
797.995	32.59
798.17	31.42
798.345	28.29
798.52	28.33
798.695	30.57
798.87	31.13
799.045	29.52
799.22	29.83
799.395	29.05
799.57	26.63
799.745	28.3
799.92	26.3
800.095	28.73
800.27	29.89
800.445	31.74
800.62	30.84
800.795	31.07
800.97	32.21
801.145	31.22
801.319	31.8
801.494	32.96
801.669	31.45
801.844	33.71
802.018	31.38
802.193	33.01
802.368	29.52
802.543	28.17
802.717	26.04
802.892	22.35
803.067	23.3
803.241	22.57
803.416	24.11
803.59	24.8
803.765	22.01
803.94	23.87
804.114	20.96
804.289	20.9
804.463	20.42
804.638	20.99
804.812	23.78
804.986	21.66
805.161	22.61
805.335	22.76
805.51	26
805.684	27.04
805.858	25.12
806.033	27.26
806.207	28.82
806.381	29.7
806.556	28.01
806.73	25.18
806.904	26.42
807.078	26.15
807.253	27.59
807.427	21.14
807.601	22.13
807.775	22.66
807.949	25.06
808.123	24.11
808.298	22.41
808.472	25.56
808.646	28.58
808.82	27.14
808.994	25.86
809.168	24.47
809.342	28.19
809.516	26.35
809.69	26
809.864	25.41
810.038	26.62
810.212	31.22
810.385	30.01
810.559	26.59
810.733	27.97
810.907	28.6
811.081	26.16
811.255	22.51
811.428	23
811.602	25.16
811.776	24.56
811.95	23.86
812.123	24.49
812.297	22.67
812.471	25.88
812.644	27.1
812.818	25.79
812.992	26.1
813.165	35.01
813.339	37.92
813.512	38.59
813.686	39.54
813.86	36.94
814.033	34.59
814.207	36.61
814.38	35.44
814.554	36.23
814.727	37.52
814.9	36.17
815.074	31.6
815.247	29.82
815.421	30.38
815.594	25.13
815.767	26.36
815.941	25.15
816.114	27.33
816.287	27.01
816.46	25.54
816.634	26.55
816.807	30.62
816.98	31.15
817.153	28.2
817.327	26.68
817.5	32.99
817.673	31.77
817.846	35.39
818.019	35.3
818.192	37.78
818.365	36.25
818.538	35.93
818.711	33.45
818.884	35.78
819.057	37.48
819.23	38.17
819.403	35.03
819.576	35.62
819.749	31.33
819.922	29.2
820.095	27.42
820.268	28.05
820.441	27.67
820.614	29.81
820.786	30.62
820.959	32.18
821.132	32.33
821.305	31.05
821.477	31.39
821.65	33.67
821.823	34.26
821.996	34.34
822.168	34.54
822.341	35.53
822.514	35.46
822.686	35.05
822.859	34.88
823.031	35.29
823.204	35.8
823.376	36.12
823.549	35.36
823.722	35.41
823.894	35.36
824.067	35.43
824.239	35.1
824.411	34.87
824.584	34.96
824.756	35.95
824.929	35.14
825.101	35.58
825.273	35.51
825.446	36.3
825.618	36.15
825.79	36.75
825.963	37.09
826.135	37.39
826.307	37.74
826.479	37.9
826.652	36.16
826.824	36.87
826.996	36.04
827.168	34.99
827.34	34.09
827.512	34.54
827.684	34.53
827.856	35.57
828.029	35.68
828.201	35.61
828.373	34.26
828.545	34.44
828.717	34.45
828.889	35.31
829.061	35.92
829.232	36.02
829.404	34.44
829.576	32.94
829.748	31.11
829.92	28.84
830.092	28.27
830.264	27.55
830.436	27.7
830.607	25.57
830.779	24.33
830.951	24.57
831.123	22.66
831.294	23.58
831.466	23.66
831.638	23.03
831.809	25.07
831.981	24.5
832.153	27.31
832.324	27.58
832.496	27.97
832.667	25.4
832.839	25.9
833.011	28.43
833.182	29.41
833.354	32.68
833.525	32.1
833.697	31.43
833.868	30.1
834.039	27.73
834.211	28.84
834.382	28.42
834.554	30.38
834.725	30.87
834.896	29.08
835.068	29.01
835.239	27.15
835.41	27.52
835.581	27.86
835.753	29.56
835.924	30.19
836.095	28.46
836.266	30.48
836.438	31.85
836.609	32.44
836.78	35.36
836.951	33.14
837.122	34.04
837.293	32.85
837.464	31.49
837.635	32.7
837.806	35.07
837.977	34.81
838.148	33.72
838.319	30.93
838.49	27
838.661	25.22
838.832	28.5
839.003	30.67
839.174	28.76
839.345	31.44
839.516	27.94
839.687	26.65
839.857	35.68
840.028	35.52
840.199	35.46
840.37	37.34
840.54	38.38
840.711	32.49
840.882	27.94
841.053	30.96
841.223	22.13
841.394	20.52
841.564	19.9
841.735	10.36
841.906	4.37
842.076	6.51
842.247	7.22
842.417	5.82
842.588	6.63
842.758	12.2
842.929	9.37
843.099	21.62
843.27	26.54
843.44	21.88
843.611	24.03
843.781	29.1
843.951	24.44
844.122	22.14
844.292	27.75
844.462	28.5
844.633	19.52
844.803	23.3
844.973	20.94
845.144	20.65
845.314	18.34
845.484	16.93
845.654	10.82
845.824	7.33
845.995	11.84
846.165	3.45
846.335	14.51
846.505	23.63
846.675	26.19
846.845	15.3
847.015	7.3
847.185	16.24
847.355	22.5
847.525	29.27
847.695	37.37
847.865	33.79
848.035	33.86
848.205	25.83
848.375	14.95
848.545	2.39
848.715	19.17
848.884	13.12
849.054	12.03
849.224	11.11
849.394	19.68
849.564	20.45
849.733	4.53
849.903	0.46
850.073	-7.91
850.243	10.33
850.412	25.49
850.582	23.7
850.752	29.9
850.921	34.06
851.091	43.63
851.26	53.94
851.43	42.15
851.599	62.2
851.769	63.61
851.939	63.71
852.108	56.1
852.278	45.2
852.447	32.65
852.616	44.18
852.786	41.79
852.955	22.74
853.125	12.97
853.294	25.02
853.463	18.43
853.633	8.56
853.802	12.65
853.971	14.41
854.141	16.46
854.31	31.39
854.479	32.52
854.648	34.06
854.818	39.26
854.987	40.7
855.156	25.72
855.325	32.24
855.494	42.17
855.663	38.1
855.832	34.88
856.001	24.62
856.171	18.31
856.34	3.6
856.509	-16.07
856.678	-27.43
856.847	-26.7
857.016	6.14
857.185	7.03
857.353	13.98
857.522	16.15
857.691	25.56
857.86	38.21
858.029	48.16
858.198	43.75
858.367	54.71
858.535	56.19
858.704	52.18
858.873	31.31
859.042	12.22
859.21	-4.76
859.379	-18.38
859.548	-35.79
859.717	-51.18
859.885	-59.12
860.054	-26.85
860.222	-1
860.391	4.56
860.56	0.11
860.728	9.6
860.897	17.74
861.065	13.26
861.234	30.95
861.402	33.67
861.571	32.69
861.739	35.18
861.908	23.56
862.076	1.71
862.244	16.32
862.413	13.67
862.581	14.18
862.749	6.86
862.918	7.55
863.086	-19.49
863.254	-21.86
863.423	-37.95
863.591	-17.49
863.759	-63.68
863.927	-65.33
864.096	-103.06
864.264	-159.98
864.432	-127.6
864.6	-119.77
864.768	-87.56
864.936	-59.44
865.104	-64.34
865.272	-53.29
865.44	-75
865.608	-46.17
865.776	-46.17
865.944	-33.34
866.112	-23.12
866.28	0.42
866.448	8.03
866.616	4.8
866.784	1.89
866.952	8.5
867.12	0.8
867.288	5.42
867.455	11.27
867.623	-2.48
867.791	23.08
867.959	10.55
868.127	-34.95
868.294	-41.63
868.462	-24.4
868.63	-17.84
868.797	-9.33
868.965	-11.77
869.133	-2.54
869.3	8
869.468	19.14
869.636	-10.8
869.803	0.87
869.971	13.34
870.138	18.43
870.306	18.42
870.473	23.48
870.641	8.92
870.808	19.9
870.975	15.65
871.143	5.23
871.31	-3.04
871.478	15.15
871.645	5.86
871.812	9.54
871.98	9.59
872.147	11.04
872.314	14.14
872.482	9.65
872.649	-6.93
872.816	2.41
872.983	1.92
873.15	8.85
873.318	5.64
873.485	22.01
873.652	13.61
873.819	21.43
873.986	8.2
874.153	4.35
874.32	4.71
874.487	13.37
874.654	25.45
874.821	17.77
874.988	9.35
875.155	12.35
875.322	-9.03
875.489	-4.21
875.656	-12.91
875.823	-1.51
875.99	9.98
876.157	18.51
876.324	26.11
876.49	13.52
876.657	22.38
876.824	23.22
876.991	14.38
877.157	27.35
877.324	25.72
877.491	22.2
877.658	30.88
877.824	34.58
877.991	43.36
878.157	17.15
878.324	22.62
878.491	13
878.657	23.91
878.824	35.05
878.99	27.42
879.157	20.98
879.323	26.15
879.49	13.86
879.656	6.07
879.823	3.38
879.989	13.51
880.156	4.36
880.322	7.56
880.488	10.67
880.655	16.75
880.821	16.68
880.987	23.63
881.154	23.96
881.32	31.64
881.486	32.54
881.652	34.45
881.819	35.55
881.985	38.88
882.151	43.24
882.317	43.21
882.483	42.05
882.649	40.48
882.816	38.46
882.982	36.7
883.148	33.13
883.314	32.07
883.48	32.08
883.646	33.29
883.812	32.7
883.978	30.01
884.144	30.22
884.31	29.48
884.476	30.49
884.642	31.2
884.807	30.9
884.973	32.69
885.139	35.61
885.305	35.24
885.471	33.46
885.637	35.11
885.802	33.61
885.968	32.63
886.134	31.04
886.3	32.7
886.465	30.2
886.631	32.1
886.797	31.13
886.962	28.48
887.128	27.75
887.293	27.12
887.459	18.75
887.625	17.31
887.79	12.08
887.956	11.65
888.121	2
888.287	3.99
888.452	-0.97
888.618	-10.6
888.783	-21.72
