Data from CB_038_Reflection_21-41-29-922.txt Node
Date: Wed Nov 11 21:41:29 EST 2015
User: robert
Spectrometer: USB4E03001
Autoset integration time: false
Trigger mode: 4
Integration Time (sec): 1.000000E-1
Scans to average: 15
Electric dark correction enabled: true
Nonlinearity correction enabled: false
Boxcar width: 5
Stray light correction enabled: false
XAxis mode: Wavelengths
Stop averaging: false
Number of Pixels in Spectrum: 3648
>>>>>Begin Spectral Data<<<<<
177.566	173.45
177.785	707.89
178.005	-269.07
178.225	-753.58
178.445	140.87
178.665	111.02
178.885	477.93
179.105	22.72
179.324	82.43
179.544	28.85
179.764	101.57
179.984	96.66
180.204	100.78
180.423	159.01
180.643	111.55
180.863	105.08
181.083	94.99
181.302	87.65
181.522	80.79
181.742	68.86
181.961	98.54
182.181	88.39
182.401	84.92
182.621	87.95
182.84	83.33
183.06	97.14
183.279	74.15
183.499	84.23
183.719	94.4
183.938	99.06
184.158	127.53
184.377	111.2
184.597	125.74
184.816	141.71
185.036	101.14
185.256	91.04
185.475	90.92
185.695	140.93
185.914	125.92
186.134	142.59
186.353	156.69
186.572	85.54
186.792	107.11
187.011	94.32
187.231	96.97
187.45	177.24
187.67	168.51
187.889	110.43
188.108	88.27
188.328	84.69
188.547	80.13
188.766	73.03
188.986	105.17
189.205	82.38
189.424	73.08
189.644	72.71
189.863	66.99
190.082	68.22
190.302	93.59
190.521	93.07
190.74	106.21
190.959	92.33
191.178	87.36
191.398	82.92
191.617	104.51
191.836	111.99
192.055	92.55
192.274	73.97
192.494	98.34
192.713	83.33
192.932	80.45
193.151	82.01
193.37	92.8
193.589	85.45
193.808	103.05
194.027	68.15
194.246	71.5
194.465	89.49
194.685	93.01
194.904	73.39
195.123	79.4
195.342	77.85
195.561	77.48
195.78	65.52
195.999	62.25
196.218	39.73
196.436	47.65
196.655	55.73
196.874	49.52
197.093	86.87
197.312	73.66
197.531	77.75
197.75	88.88
197.969	100.67
198.188	76.31
198.407	75.11
198.625	75.1
198.844	64.14
199.063	55.61
199.282	54.67
199.501	29.54
199.719	20.32
199.938	28.84
200.157	-0.56
200.376	-7.14
200.594	24.87
200.813	48.52
201.032	37.26
201.251	51.98
201.469	58.36
201.688	24.82
201.907	35.72
202.125	47.37
202.344	43.49
202.563	45.25
202.781	59.48
203	52.98
203.218	53.7
203.437	70.06
203.656	77.66
203.874	60.93
204.093	77.84
204.311	95.66
204.53	107.55
204.748	106.11
204.967	106.59
205.185	116.01
205.404	116.88
205.622	111.69
205.841	104.86
206.059	92.64
206.278	119.45
206.496	106.7
206.715	95.66
206.933	96.73
207.151	83.94
207.37	72.97
207.588	64.34
207.806	53.42
208.025	61.64
208.243	47.49
208.461	60.4
208.68	46.4
208.898	46.25
209.116	36.9
209.335	31.63
209.553	38.56
209.771	44.72
209.989	38.3
210.208	47.32
210.426	20.16
210.644	5.4
210.862	-50.58
211.081	2.21
211.299	-2.33
211.517	26.95
211.735	11.19
211.953	28.39
212.171	30.08
212.39	68.99
212.608	94.42
212.826	96.99
213.044	115.29
213.262	128.99
213.48	136.96
213.698	146.17
213.916	143.69
214.134	133.5
214.352	119.57
214.57	88.97
214.788	99.49
215.006	69.41
215.224	90.16
215.442	99.84
215.66	128.99
215.878	94.15
216.096	80.34
216.314	103.03
216.532	108.18
216.75	116.27
216.968	137.81
217.185	104.03
217.403	99.37
217.621	91.52
217.839	78.85
218.057	78.15
218.275	91.87
218.492	99.51
218.71	95.38
218.928	95.88
219.146	88.47
219.363	99.36
219.581	127.71
219.799	120.48
220.017	154.81
220.234	166.42
220.452	149.49
220.67	104.71
220.887	79.42
221.105	51.64
221.323	61.31
221.54	70.16
221.758	59.58
221.976	48.22
222.193	37.48
222.411	34.45
222.629	37.15
222.846	35.99
223.064	29.33
223.281	40.24
223.499	56.44
223.716	55.43
223.934	61.49
224.151	55.13
224.369	50.22
224.586	58.37
224.804	63.97
225.021	58.37
225.239	60.85
225.456	63.22
225.674	49.05
225.891	51.82
226.108	58.27
226.326	31.82
226.543	28.59
226.76	32.75
226.978	33.58
227.195	24.41
227.413	14.81
227.63	18.36
227.847	14.24
228.064	15.53
228.282	11.53
228.499	7.31
228.716	11.82
228.934	10.58
229.151	8.57
229.368	7.27
229.585	8.89
229.802	10.82
230.02	9.67
230.237	11.51
230.454	11.5
230.671	10.45
230.888	11.03
231.105	9.18
231.323	9.78
231.54	13.78
231.757	14.41
231.974	7.45
232.191	6.98
232.408	7.39
232.625	3.76
232.842	9.23
233.059	12.08
233.276	11.99
233.493	11.45
233.71	10.61
233.927	6.4
234.144	10.11
234.361	13.83
234.578	16.61
234.795	18.33
235.012	21.35
235.229	19.37
235.446	22.11
235.663	20.6
235.879	21.21
236.096	20.41
236.313	22.8
236.53	19.84
236.747	24.31
236.964	25.54
237.181	27.63
237.397	25.22
237.614	23.21
237.831	19.82
238.048	24.17
238.264	27.89
238.481	32.85
238.698	33.87
238.915	31.34
239.131	25.78
239.348	25.46
239.565	22.65
239.781	23.25
239.998	25.49
240.215	25.14
240.431	22.99
240.648	22.38
240.865	17.35
241.081	17.53
241.298	17.78
241.514	17.76
241.731	17.91
241.947	16.5
242.164	17.34
242.38	15.25
242.597	14.73
242.814	13.91
243.03	12.92
243.246	14.95
243.463	13.82
243.679	15.55
243.896	18.28
244.112	18.82
244.329	20.56
244.545	18.84
244.762	19.52
244.978	20.14
245.194	21.71
245.411	22.04
245.627	22.87
245.843	23.84
246.06	20.45
246.276	17.09
246.492	14.67
246.709	13.44
246.925	13.61
247.141	13.01
247.357	12.39
247.574	12.16
247.79	11.9
248.006	11.04
248.222	10.46
248.439	11.29
248.655	12.46
248.871	13.38
249.087	14.11
249.303	14.45
249.519	14.16
249.736	13.03
249.952	12.88
250.168	13.35
250.384	12.88
250.6	12.34
250.816	11.71
251.032	9.96
251.248	11.1
251.464	9.06
251.68	9.69
251.896	11.53
252.112	14.37
252.328	13.93
252.544	13.16
252.76	12.85
252.976	13.73
253.192	13.55
253.408	15.09
253.624	14.68
253.84	15.42
254.056	14.56
254.272	17.14
254.487	18.04
254.703	19.46
254.919	21.44
255.135	23.48
255.351	23.25
255.567	24.63
255.782	24.74
255.998	22.75
256.214	22.87
256.43	24.29
256.646	20.91
256.861	17.98
257.077	16.88
257.293	13.75
257.508	12.15
257.724	11.49
257.94	11.07
258.155	8.76
258.371	8.19
258.587	8.98
258.802	8.5
259.018	8.47
259.234	7.82
259.449	8.89
259.665	9.6
259.88	9.79
260.096	9.72
260.312	8.9
260.527	10.06
260.743	10.68
260.958	10.74
261.174	10.99
261.389	11.63
261.605	12.81
261.82	11.87
262.036	12.23
262.251	12.81
262.466	13.5
262.682	15.32
262.897	14.19
263.113	13.85
263.328	12.51
263.543	13.08
263.759	13.36
263.974	13
264.189	14.37
264.405	14.34
264.62	13.37
264.835	12.54
265.051	12.17
265.266	12.02
265.481	12.2
265.696	13.13
265.912	11.99
266.127	12.29
266.342	12.82
266.557	11.96
266.773	11.64
266.988	12.37
267.203	12.06
267.418	11.49
267.633	11.61
267.848	12.38
268.064	11.87
268.279	11.6
268.494	10.68
268.709	11.27
268.924	11.53
269.139	11.37
269.354	11.03
269.569	10.79
269.784	11.73
269.999	11.86
270.214	11.71
270.429	11.56
270.644	12.15
270.859	12.13
271.074	11.45
271.289	12.24
271.504	13.01
271.719	12.46
271.934	11.98
272.149	11.41
272.363	12.13
272.578	12.15
272.793	13.25
273.008	12.86
273.223	12.75
273.438	11.67
273.653	12.18
273.867	11.95
274.082	12.34
274.297	13.4
274.512	14.5
274.726	13.31
274.941	14.11
275.156	13.92
275.371	13.89
275.585	14.09
275.8	15.18
276.015	13.79
276.229	12.98
276.444	11.12
276.659	11.04
276.873	10.91
277.088	11.47
277.302	9.85
277.517	9.33
277.732	9.84
277.946	9.34
278.161	9.82
278.375	10.37
278.59	11.19
278.804	12.75
279.019	11.67
279.233	10.27
279.448	9.74
279.662	10.08
279.877	10.64
280.091	10.49
280.306	11.17
280.52	9.94
280.735	10.08
280.949	9.12
281.163	10.92
281.378	11.66
281.592	11.34
281.806	12.27
282.021	11.22
282.235	10.68
282.449	10.58
282.664	9.78
282.878	8.89
283.092	8.63
283.307	11.23
283.521	9.91
283.735	10.66
283.949	11.84
284.164	11.35
284.378	13.32
284.592	13.83
284.806	14.58
285.02	14.46
285.234	15.77
285.449	15.42
285.663	14.14
285.877	13.89
286.091	14.26
286.305	13.77
286.519	14.34
286.733	13.57
286.947	12.72
287.161	11.84
287.375	12.46
287.589	13.05
287.803	13.01
288.017	12.2
288.231	13.38
288.445	13.54
288.659	12.98
288.873	13.05
289.087	13.2
289.301	13.59
289.515	15.43
289.729	15.06
289.943	14.71
290.157	14.58
290.371	14.47
290.584	13.95
290.798	14.27
291.012	15.39
291.226	15.76
291.44	15.15
291.654	15.32
291.867	13.53
292.081	13.88
292.295	14.38
292.509	14.74
292.722	14.88
292.936	13.7
293.15	12.55
293.364	13.18
293.577	12.77
293.791	13.53
294.005	13.56
294.218	13.86
294.432	14.06
294.645	13.01
294.859	12.35
295.073	12.24
295.286	12.46
295.5	12.18
295.713	10.75
295.927	9.08
296.14	8.83
296.354	8.36
296.568	8.49
296.781	8.27
296.994	8.82
297.208	9.65
297.421	9.91
297.635	10.17
297.848	10.01
298.062	9.32
298.275	10.42
298.489	11.01
298.702	12.1
298.915	12.95
299.129	13.71
299.342	13.93
299.555	14.31
299.769	14.73
299.982	15.23
300.195	15.52
300.409	16.93
300.622	17.13
300.835	16.09
301.048	15.03
301.262	13.96
301.475	13.59
301.688	13.63
301.901	13.27
302.115	12.34
302.328	12.92
302.541	12.29
302.754	11.83
302.967	11.89
303.18	13.62
303.393	14.48
303.607	14.15
303.82	14.47
304.033	14.1
304.246	13.04
304.459	14.14
304.672	13.83
304.885	15.78
305.098	16.03
305.311	16.48
305.524	15.05
305.737	15.81
305.95	15.96
306.163	15.94
306.376	15.99
306.589	17.23
306.802	17.43
307.015	17.64
307.228	15.34
307.44	15.92
307.653	15.63
307.866	15.43
308.079	14.65
308.292	14.66
308.505	14.58
308.718	14.97
308.93	16.07
309.143	16.47
309.356	15.77
309.569	17.29
309.781	17.4
309.994	17.58
310.207	18.36
310.42	18.66
310.632	20.25
310.845	19.5
311.058	18.97
311.27	18.91
311.483	18.39
311.696	19.21
311.908	18.98
312.121	18.53
312.333	18.11
312.546	17.79
312.759	17.47
312.971	16.59
313.184	16.92
313.396	15.92
313.609	15.13
313.821	15.76
314.034	15.32
314.246	14.6
314.459	15.33
314.671	15.28
314.884	15.49
315.096	15.49
315.309	13.78
315.521	13.66
315.733	15.43
315.946	14.49
316.158	13.23
316.371	12.02
316.583	12.67
316.795	12.08
317.008	13.23
317.22	14.59
317.432	14.79
317.644	15.45
317.857	16.31
318.069	14.95
318.281	14.41
318.494	15.74
318.706	17.32
318.918	17.42
319.13	17.53
319.342	16.88
319.555	15.22
319.767	15.04
319.979	15.26
320.191	14.65
320.403	17.43
320.615	18.18
320.827	17.54
321.039	16.46
321.252	16.42
321.464	17.6
321.676	17.24
321.888	18.8
322.1	18.66
322.312	19.24
322.524	20.34
322.736	19.13
322.948	20.05
323.16	19.76
323.372	20.07
323.584	20.39
323.796	20.02
324.007	19.91
324.219	19.52
324.431	20.06
324.643	20.31
324.855	18.91
325.067	18.36
325.279	18.69
325.491	19.43
325.702	19.59
325.914	19.63
326.126	19.46
326.338	18.95
326.55	18.4
326.761	19.4
326.973	20.47
327.185	22.29
327.396	23.23
327.608	23.13
327.82	23.64
328.032	25.11
328.243	25.73
328.455	26.26
328.666	27.81
328.878	28.39
329.09	27.43
329.301	26.02
329.513	25.55
329.725	24.95
329.936	26.03
330.148	26.4
330.359	25.53
330.571	25.38
330.782	25.54
330.994	26.55
331.205	27.32
331.417	27.91
331.628	29.01
331.84	29.03
332.051	30.13
332.262	29.5
332.474	29.57
332.685	29.68
332.897	29.93
333.108	30.39
333.319	30.09
333.531	30.18
333.742	30.85
333.953	30.52
334.165	30.25
334.376	31.06
334.587	30.44
334.799	30.59
335.01	31.5
335.221	31.35
335.432	31.8
335.644	31.1
335.855	30.53
336.066	29.97
336.277	31.04
336.488	31.98
336.7	30.61
336.911	30.76
337.122	30.29
337.333	30.01
337.544	30.94
337.755	30.56
337.966	31.09
338.177	31.38
338.388	31.34
338.599	30.9
338.811	29.96
339.022	30.62
339.233	31.26
339.444	31.43
339.655	31.25
339.866	30.52
340.076	30.19
340.287	30.47
340.498	31.07
340.709	31.45
340.92	31.56
341.131	32.14
341.342	32.39
341.553	32.25
341.764	32.04
341.975	31.75
342.185	30.68
342.396	30.97
342.607	29.98
342.818	29.01
343.029	28.47
343.239	28.06
343.45	27.58
343.661	27.42
343.872	27.18
344.082	26.64
344.293	26.91
344.504	27.59
344.714	27.37
344.925	27.83
345.136	28.5
345.346	29.34
345.557	29.29
345.768	29.02
345.978	28.93
346.189	29.71
346.399	30.65
346.61	30.42
346.821	30.56
347.031	31.06
347.242	31.58
347.452	31.66
347.663	31.28
347.873	31.12
348.084	32.27
348.294	32.42
348.504	31.92
348.715	31.89
348.925	32.46
349.136	31.98
349.346	31.11
349.557	30.98
349.767	31.07
349.977	30.46
350.188	30.55
350.398	29.84
350.608	29.27
350.819	28.94
351.029	28.35
351.239	27.81
351.449	28.31
351.66	27.57
351.87	28.32
352.08	28.1
352.29	28.56
352.501	28.85
352.711	29.21
352.921	29.95
353.131	29.82
353.341	30.31
353.552	30.36
353.762	30.31
353.972	31.71
354.182	29.96
354.392	30.02
354.602	30.19
354.812	29.53
355.022	28.74
355.232	27.79
355.442	27.91
355.652	27.56
355.862	27.5
356.072	27.06
356.282	26.86
356.492	28.02
356.702	27.59
356.912	27.31
357.122	27.74
357.332	28.96
357.542	29.79
357.752	29.95
357.962	29.51
358.171	29.62
358.381	29.68
358.591	29.28
358.801	28.59
359.011	28.56
359.221	28.46
359.43	28.87
359.64	27.44
359.85	27.14
360.06	27
360.269	27.72
360.479	27.49
360.689	27.41
360.899	27.41
361.108	28.03
361.318	28.11
361.528	28.16
361.737	27.48
361.947	27.8
362.156	27.7
362.366	27.65
362.576	27.31
362.785	27.58
362.995	27.64
363.204	27.71
363.414	27.33
363.623	27.4
363.833	27.15
364.042	27.13
364.252	28.14
364.461	28.03
364.671	28.2
364.88	28.26
365.09	27.96
365.299	27.99
365.509	28.27
365.718	28.41
365.927	28.25
366.137	28.37
366.346	28.66
366.555	27.45
366.765	27.11
366.974	26.96
367.183	27.04
367.393	26.95
367.602	27.43
367.811	27.05
368.021	26.64
368.23	26.48
368.439	26.25
368.648	26.02
368.857	26.07
369.067	25.98
369.276	25.5
369.485	25.25
369.694	25.47
369.903	24.92
370.112	24.89
370.321	24.97
370.531	24.93
370.74	25.12
370.949	25.25
371.158	24.97
371.367	25.14
371.576	25.23
371.785	25.02
371.994	24.77
372.203	24.76
372.412	25.07
372.621	25.01
372.83	24.64
373.039	24.49
373.248	23.83
373.457	24.06
373.666	24.04
373.874	23.93
374.083	23.39
374.292	22.68
374.501	22.6
374.71	21.9
374.919	21.39
375.128	21.87
375.336	21.7
375.545	21.74
375.754	21.79
375.963	21.6
376.171	21.66
376.38	21.37
376.589	21.74
376.798	21.11
377.006	20.97
377.215	21.27
377.424	21.27
377.632	20.9
377.841	21.15
378.05	21.09
378.258	20.88
378.467	20.66
378.675	21.16
378.884	21.05
379.093	20.74
379.301	21.08
379.51	21.03
379.718	21.01
379.927	21.33
380.135	21.12
380.344	20.77
380.552	20.68
380.761	20.46
380.969	20.13
381.177	20.29
381.386	20.25
381.594	19.67
381.803	19.36
382.011	18.74
382.219	18.67
382.428	18.53
382.636	18.53
382.845	18.91
383.053	19.05
383.261	19.11
383.469	18.72
383.678	18.85
383.886	18.61
384.094	18.47
384.302	18.74
384.511	18.53
384.719	18.36
384.927	18.38
385.135	18.17
385.343	18.34
385.552	18.29
385.76	18.16
385.968	18.05
386.176	18.59
386.384	18.57
386.592	18.26
386.8	18.3
387.008	18.46
387.216	18.24
387.424	18.33
387.633	17.81
387.841	17.63
388.049	17.6
388.257	18.06
388.465	17.29
388.672	17.3
388.88	17.24
389.088	17.02
389.296	16.24
389.504	15.92
389.712	15.5
389.92	15.65
390.128	15.44
390.336	15.67
390.544	15.55
390.751	15.72
390.959	15.76
391.167	15.86
391.375	15.87
391.583	16.41
391.79	16.47
391.998	16.4
392.206	16.35
392.414	16.51
392.621	15.95
392.829	15.65
393.037	15.72
393.244	15.47
393.452	15.18
393.66	15.16
393.867	15.08
394.075	15.09
394.283	14.84
394.49	14.85
394.698	14.75
394.905	15.02
395.113	14.88
395.32	14.8
395.528	14.81
395.735	14.89
395.943	14.72
396.15	14.64
396.358	15.09
396.565	15.59
396.773	15.55
396.98	15.65
397.188	15.54
397.395	15.66
397.602	15.45
397.81	15.62
398.017	15.37
398.225	15.26
398.432	15.15
398.639	15.02
398.847	14.72
399.054	14.58
399.261	14.38
399.468	14.19
399.676	14.04
399.883	14.17
400.09	13.6
400.297	13.68
400.505	13.52
400.712	13.54
400.919	13.07
401.126	12.89
401.333	12.55
401.54	12.32
401.748	12.5
401.955	12.68
402.162	12.66
402.369	12.87
402.576	12.64
402.783	12.96
402.99	12.7
403.197	12.47
403.404	12.37
403.611	12.7
403.818	12.73
404.025	12.82
404.232	12.81
404.439	12.63
404.646	12.46
404.853	12.61
405.06	12.42
405.267	12.28
405.474	12.3
405.681	12.4
405.887	12.47
406.094	12.72
406.301	12.77
406.508	12.69
406.715	12.77
406.922	12.96
407.128	13.28
407.335	13.16
407.542	13.2
407.749	13.24
407.955	13.21
408.162	12.87
408.369	12.39
408.575	12.37
408.782	12.59
408.989	12.76
409.195	12.89
409.402	12.45
409.609	12.38
409.815	12.47
410.022	12.75
410.228	12.64
410.435	12.65
410.642	12.77
410.848	12.3
411.055	12.12
411.261	11.94
411.468	11.74
411.674	12.02
411.881	12.02
412.087	12.2
412.294	12.15
412.5	12.56
412.706	12.56
412.913	12.6
413.119	12.85
413.326	12.56
413.532	12.39
413.738	12.32
413.945	11.89
414.151	11.82
414.357	11.49
414.564	11.18
414.77	10.75
414.976	10.88
415.182	10.99
415.389	10.85
415.595	10.99
415.801	11.03
416.007	11.07
416.214	11.05
416.42	11.01
416.626	11.16
416.832	11.15
417.038	11.27
417.244	11.11
417.45	11.05
417.657	11.09
417.863	11.08
418.069	11.06
418.275	11
418.481	10.99
418.687	11.1
418.893	10.94
419.099	11.02
419.305	10.83
419.511	10.82
419.717	10.85
419.923	10.68
420.129	10.51
420.335	10.5
420.541	10.54
420.746	10.39
420.952	10.13
421.158	10.18
421.364	9.93
421.57	9.94
421.776	10.03
421.982	9.88
422.187	9.86
422.393	9.85
422.599	9.72
422.805	9.57
423.01	9.68
423.216	9.88
423.422	9.76
423.628	9.84
423.833	9.7
424.039	9.65
424.245	9.72
424.45	9.86
424.656	9.99
424.862	10.04
425.067	10.29
425.273	10.4
425.478	10.33
425.684	10.48
425.889	10.45
426.095	10.69
426.301	10.51
426.506	10.56
426.712	10.54
426.917	10.41
427.123	10.48
427.328	10.11
427.533	9.97
427.739	9.93
427.944	9.85
428.15	10
428.355	9.76
428.561	9.78
428.766	9.69
428.971	9.82
429.177	9.98
429.382	9.91
429.587	10.05
429.793	10.02
429.998	10.01
430.203	9.84
430.408	9.79
430.614	10.09
430.819	10.14
431.024	10.18
431.229	10.07
431.434	9.77
431.64	9.85
431.845	9.74
432.05	9.79
432.255	9.81
432.46	9.9
432.665	9.69
432.87	9.61
433.076	9.81
433.281	9.67
433.486	9.51
433.691	9.52
433.896	9.36
434.101	9.43
434.306	9.49
434.511	9.44
434.716	9.51
434.921	9.78
435.126	9.76
435.331	9.58
435.535	9.56
435.74	9.51
435.945	9.51
436.15	9.67
436.355	9.65
436.56	9.54
436.765	9.48
436.97	9.46
437.174	9.36
437.379	9.29
437.584	9.29
437.789	9.4
437.993	9.63
438.198	9.67
438.403	9.49
438.608	9.41
438.812	9.33
439.017	9.5
439.222	9.49
439.426	9.4
439.631	9.5
439.836	9.55
440.04	9.35
440.245	9.14
440.45	9.13
440.654	9.35
440.859	9.49
441.063	9.55
441.268	9.51
441.472	9.57
441.677	9.59
441.881	9.58
442.086	9.51
442.29	9.8
442.495	9.96
442.699	9.92
442.904	9.86
443.108	9.8
443.312	9.72
443.517	9.68
443.721	9.48
443.925	9.48
444.13	9.32
444.334	9.27
444.538	9.02
444.743	8.82
444.947	8.79
445.151	8.69
445.356	8.67
445.56	8.68
445.764	8.76
445.968	8.8
446.173	8.79
446.377	8.93
446.581	8.91
446.785	8.91
446.989	8.9
447.193	9.06
447.398	8.91
447.602	8.73
447.806	8.79
448.01	8.77
448.214	8.83
448.418	8.85
448.622	8.72
448.826	8.77
449.03	8.88
449.234	9.01
449.438	8.83
449.642	9.05
449.846	9.32
450.05	9.33
450.254	9.21
450.458	9.24
450.662	9.32
450.866	9.32
451.069	9.16
451.273	8.95
451.477	8.79
451.681	8.97
451.885	8.87
452.089	8.62
452.292	8.57
452.496	8.53
452.7	8.32
452.904	8.23
453.107	8.36
453.311	8.4
453.515	8.58
453.719	8.77
453.922	8.71
454.126	8.83
454.33	9.02
454.533	9.26
454.737	9.47
454.94	9.69
455.144	9.7
455.348	9.52
455.551	9.71
455.755	9.71
455.958	9.65
456.162	9.66
456.365	9.55
456.569	9.43
456.772	9.2
456.976	8.94
457.179	8.9
457.383	8.96
457.586	9
457.79	8.81
457.993	8.58
458.196	8.6
458.4	8.45
458.603	8.4
458.807	8.57
459.01	8.65
459.213	8.73
459.417	8.69
459.62	8.53
459.823	8.62
460.026	8.64
460.23	8.74
460.433	8.68
460.636	8.73
460.839	8.85
461.042	8.7
461.246	8.57
461.449	8.47
461.652	8.54
461.855	8.63
462.058	8.56
462.261	8.56
462.464	8.67
462.668	8.7
462.871	8.81
463.074	8.77
463.277	8.86
463.48	9.09
463.683	9.25
463.886	9.14
464.089	9.32
464.292	9.26
464.495	9.14
464.698	9.12
464.901	9.09
465.104	9.25
465.306	9.13
465.509	9.19
465.712	8.97
465.915	9.13
466.118	9.24
466.321	9.1
466.524	9.16
466.726	9.24
466.929	9.18
467.132	9.13
467.335	8.88
467.538	9.07
467.74	9.08
467.943	9.24
468.146	9.06
468.348	8.8
468.551	8.64
468.754	8.72
468.956	8.83
469.159	8.75
469.362	8.87
469.564	9.03
469.767	8.91
469.969	9.05
470.172	9.06
470.375	8.92
470.577	9.22
470.78	9.39
470.982	9.24
471.185	9.19
471.387	9.38
471.59	9.26
471.792	9.11
471.995	9.16
472.197	9.16
472.399	9
472.602	9.07
472.804	9.13
473.007	9.24
473.209	9.22
473.411	9.23
473.614	9.14
473.816	9.14
474.018	9.33
474.22	9.27
474.423	9.08
474.625	9.02
474.827	9.17
475.03	9.06
475.232	8.94
475.434	8.99
475.636	8.88
475.838	8.87
476.04	8.87
476.243	8.73
476.445	8.75
476.647	8.76
476.849	9.02
477.051	8.85
477.253	8.78
477.455	8.88
477.657	8.78
477.859	8.81
478.061	8.95
478.263	9.02
478.465	9.09
478.667	8.99
478.869	9.07
479.071	8.94
479.273	9.18
479.475	9.18
479.677	9.14
479.879	9.17
480.081	9.19
480.283	8.97
480.485	9.12
480.686	9.05
480.888	9.07
481.09	9.04
481.292	9.08
481.494	8.9
481.695	8.93
481.897	8.88
482.099	8.78
482.301	8.74
482.502	8.75
482.704	8.64
482.906	8.6
483.107	8.59
483.309	8.5
483.511	8.4
483.712	8.39
483.914	8.36
484.115	8.32
484.317	8.34
484.519	8.28
484.72	8.32
484.922	8.26
485.123	8.24
485.325	8.28
485.526	8.3
485.728	8.33
485.929	8.26
486.131	8.23
486.332	8.28
486.534	8.28
486.735	8.26
486.936	8.2
487.138	8.24
487.339	8.24
487.541	8.2
487.742	8.22
487.943	8.27
488.144	8.38
488.346	8.38
488.547	8.39
488.748	8.4
488.95	8.47
489.151	8.39
489.352	8.33
489.553	8.43
489.755	8.41
489.956	8.33
490.157	8.21
490.358	8.15
490.559	8.16
490.76	8.1
490.961	8.13
491.163	8.13
491.364	8.23
491.565	8.36
491.766	8.31
491.967	8.37
492.168	8.36
492.369	8.38
492.57	8.31
492.771	8.35
492.972	8.35
493.173	8.24
493.374	8.22
493.575	8.28
493.776	8.15
493.976	8.18
494.177	8.1
494.378	8.3
494.579	8.47
494.78	8.62
494.981	8.5
495.182	8.51
495.382	8.82
495.583	8.94
495.784	8.92
495.985	9.07
496.185	9.17
496.386	9.2
496.587	9.08
496.788	8.95
496.988	8.95
497.189	9
497.39	9.04
497.59	9.01
497.791	9.08
497.992	9.14
498.192	9.18
498.393	8.97
498.593	9
498.794	9.03
498.994	9.02
499.195	9.15
499.395	9.26
499.596	9.3
499.796	9.36
499.997	9.44
500.197	9.46
500.398	9.52
500.598	9.62
500.799	9.66
500.999	9.83
501.199	10.04
501.4	10.02
501.6	10.02
501.801	10.06
502.001	9.91
502.201	9.72
502.402	9.67
502.602	9.67
502.802	9.77
503.002	9.94
503.203	9.84
503.403	9.75
503.603	9.9
503.803	10.23
504.003	10.27
504.204	10.6
504.404	10.82
504.604	10.86
504.804	10.95
505.004	10.9
505.204	10.76
505.404	10.74
505.604	10.84
505.804	10.9
506.005	10.73
506.205	10.92
506.405	10.73
506.605	10.85
506.805	11.07
507.005	11.06
507.204	11.23
507.404	11.44
507.604	11.71
507.804	11.91
508.004	11.79
508.204	11.77
508.404	11.77
508.604	11.92
508.804	11.86
509.003	11.89
509.203	11.93
509.403	11.99
509.603	12.04
509.803	11.96
510.002	11.95
510.202	12.07
510.402	12.25
510.602	12.38
510.801	12.43
511.001	12.57
511.201	12.59
511.4	12.72
511.6	12.96
511.8	12.99
511.999	13.18
512.199	13.32
512.398	13.48
512.598	13.66
512.797	13.65
512.997	13.8
513.197	13.81
513.396	13.84
513.596	13.77
513.795	13.73
513.994	13.93
514.194	13.86
514.393	13.7
514.593	13.68
514.792	13.72
514.992	13.89
515.191	13.98
515.39	14.23
515.59	14.46
515.789	14.73
515.988	14.86
516.188	14.69
516.387	14.99
516.586	15.43
516.786	15.61
516.985	15.69
517.184	15.63
517.383	15.62
517.582	15.6
517.782	15.58
517.981	15.65
518.18	15.64
518.379	15.89
518.578	15.97
518.777	15.89
518.976	16.01
519.176	16.09
519.375	16.35
519.574	16.45
519.773	16.58
519.972	16.72
520.171	16.83
520.37	16.98
520.569	17.04
520.768	17.13
520.967	17.46
521.166	17.53
521.365	17.67
521.564	17.78
521.762	17.94
521.961	18.05
522.16	18.19
522.359	18.1
522.558	18.22
522.757	18.42
522.956	18.57
523.154	18.44
523.353	18.42
523.552	18.53
523.751	18.68
523.949	18.76
524.148	18.89
524.347	19.03
524.546	19.31
524.744	19.38
524.943	19.33
525.142	19.28
525.34	19.39
525.539	19.55
525.737	19.57
525.936	19.56
526.135	19.66
526.333	19.67
526.532	19.65
526.73	19.66
526.929	19.82
527.127	19.98
527.326	20.11
527.524	20.29
527.723	20.38
527.921	20.44
528.12	20.47
528.318	20.52
528.516	20.62
528.715	20.7
528.913	20.76
529.112	20.8
529.31	20.73
529.508	20.77
529.707	20.73
529.905	20.75
530.103	20.78
530.301	20.79
530.5	20.84
530.698	20.86
530.896	21.03
531.094	21.2
531.293	21.28
531.491	21.49
531.689	21.6
531.887	21.75
532.085	21.88
532.283	21.97
532.481	22.06
532.68	22.05
532.878	22.15
533.076	22.07
533.274	22.07
533.472	22.07
533.67	22.19
533.868	22.26
534.066	22.34
534.264	22.36
534.462	22.34
534.66	22.37
534.858	22.46
535.056	22.53
535.253	22.68
535.451	22.7
535.649	22.7
535.847	22.71
536.045	22.87
536.243	22.87
536.441	22.94
536.638	23.15
536.836	23.31
537.034	23.32
537.232	23.3
537.43	23.37
537.627	23.46
537.825	23.68
538.023	23.72
538.22	23.59
538.418	23.64
538.616	23.65
538.813	23.81
539.011	23.99
539.209	24.18
539.406	24.21
539.604	24.22
539.801	24.31
539.999	24.37
540.196	24.52
540.394	24.61
540.591	24.7
540.789	24.7
540.986	24.63
541.184	24.5
541.381	24.57
541.579	24.64
541.776	24.64
541.974	24.68
542.171	24.71
542.368	24.73
542.566	24.85
542.763	24.9
542.96	24.98
543.158	25.06
543.355	25.22
543.552	25.27
543.75	25.42
543.947	25.52
544.144	25.61
544.341	25.71
544.539	25.73
544.736	25.69
544.933	25.86
545.13	26.08
545.327	26.18
545.524	26.08
545.722	26.18
545.919	26.14
546.116	26.13
546.313	26.13
546.51	26.14
546.707	26.24
546.904	26.36
547.101	26.21
547.298	26.16
547.495	26.05
547.692	26.18
547.889	26.12
548.086	26.17
548.283	26.25
548.48	26.41
548.677	26.47
548.874	26.49
549.07	26.53
549.267	26.73
549.464	26.75
549.661	26.9
549.858	27.23
550.055	27.37
550.251	27.51
550.448	27.72
550.645	27.65
550.842	27.6
551.038	27.69
551.235	27.81
551.432	27.85
551.628	28.02
551.825	28.02
552.022	27.66
552.218	27.49
552.415	27.6
552.612	27.63
552.808	27.72
553.005	27.88
553.201	27.96
553.398	27.79
553.594	27.92
553.791	27.95
553.987	27.92
554.184	28.08
554.38	28.34
554.577	28.26
554.773	28.32
554.97	28.27
555.166	28.14
555.362	28.18
555.559	28.46
555.755	28.3
555.952	28.24
556.148	28.53
556.344	28.64
556.541	28.56
556.737	28.5
556.933	28.66
557.129	28.87
557.326	29.02
557.522	29.12
557.718	29.03
557.914	29.19
558.11	29.38
558.307	29.43
558.503	29.55
558.699	29.57
558.895	29.63
559.091	29.46
559.287	29.45
559.483	29.44
559.679	29.48
559.876	29.62
560.072	29.48
560.268	29.45
560.464	29.6
560.66	29.67
560.856	30.02
561.052	30.17
561.247	30.19
561.443	30.24
561.639	30.37
561.835	30.57
562.031	30.45
562.227	30.58
562.423	30.42
562.619	30.34
562.815	30.26
563.01	30.17
563.206	30.09
563.402	30.51
563.598	30.52
563.793	30.45
563.989	30.14
564.185	30.29
564.381	30.33
564.576	30.5
564.772	30.67
564.968	30.87
565.163	30.77
565.359	30.78
565.555	30.48
565.75	30.43
565.946	30.48
566.141	30.68
566.337	30.56
566.532	30.6
566.728	30.62
566.923	30.59
567.119	30.56
567.314	30.67
567.51	30.77
567.705	30.77
567.901	30.72
568.096	30.79
568.292	30.67
568.487	30.63
568.682	30.7
568.878	30.87
569.073	30.76
569.268	30.76
569.464	30.67
569.659	30.6
569.854	30.64
570.05	31.04
570.245	31.12
570.44	31.11
570.635	31.18
570.831	31.03
571.026	31.04
571.221	31.16
571.416	31.22
571.611	31.25
571.806	31.36
572.002	31.33
572.197	31
572.392	30.89
572.587	30.89
572.782	31.02
572.977	31.14
573.172	31.05
573.367	30.96
573.562	30.76
573.757	30.91
573.952	30.86
574.147	30.98
574.342	31.14
574.537	31.19
574.732	31.38
574.927	31.46
575.121	31.57
575.316	31.57
575.511	31.43
575.706	31.45
575.901	31.41
576.096	31.5
576.29	31.52
576.485	31.53
576.68	31.4
576.875	31.26
577.069	31.06
577.264	30.9
577.459	31.15
577.654	31.46
577.848	31.67
578.043	31.74
578.238	31.87
578.432	31.7
578.627	31.69
578.821	32.17
579.016	32.3
579.21	32.37
579.405	32.24
579.6	32.01
579.794	31.7
579.989	31.61
580.183	31.44
580.378	31.38
580.572	31.49
580.766	31.83
580.961	31.91
581.155	31.66
581.35	31.77
581.544	31.96
581.738	32.03
581.933	32.56
582.127	32.65
582.321	32.62
582.516	32.45
582.71	32.6
582.904	32.27
583.099	31.93
583.293	32.42
583.487	32.4
583.681	32.55
583.875	32.52
584.07	32.33
584.264	32.42
584.458	32.56
584.652	32.8
584.846	32.78
585.04	33.06
585.234	33
585.428	32.84
585.623	33.01
585.817	33.17
586.011	33.18
586.205	33.13
586.399	33.32
586.593	33.48
586.787	33.3
586.981	33.09
587.174	33
587.368	33.38
587.562	33.31
587.756	33.48
587.95	33.3
588.144	33.51
588.338	33.38
588.532	33.28
588.725	33.36
588.919	33.41
589.113	33.85
589.307	33.87
589.501	33.84
589.694	33.91
589.888	33.69
590.082	33.76
590.275	33.64
590.469	33.82
590.663	33.86
590.856	33.96
591.05	34.14
591.244	34.02
591.437	34.14
591.631	34.27
591.824	34.35
592.018	34.52
592.212	34.48
592.405	34.58
592.599	34.51
592.792	34.63
592.986	34.48
593.179	34.63
593.372	34.83
593.566	34.9
593.759	34.72
593.953	34.6
594.146	34.68
594.339	34.66
594.533	34.75
594.726	34.84
594.92	34.49
595.113	34.54
595.306	34.49
595.499	34.15
595.693	33.97
595.886	34.02
596.079	34.2
596.272	33.95
596.466	34.14
596.659	34.05
596.852	34.26
597.045	34.45
597.238	34.35
597.431	34.13
597.624	34.29
597.818	34.6
598.011	34.4
598.204	34.33
598.397	34.38
598.59	34.12
598.783	34.19
598.976	33.97
599.169	34.04
599.362	34.43
599.555	34.74
599.748	34.62
599.941	34.51
600.134	34.81
600.326	34.77
600.519	35.29
600.712	35.5
600.905	35.63
601.098	35.69
601.291	35.5
601.483	35.27
601.676	35.24
601.869	35.54
602.062	35.44
602.255	35.32
602.447	35.28
602.64	35.07
602.833	35.3
603.025	35.14
603.218	35.05
603.411	35.19
603.603	35.01
603.796	35.12
603.989	35.05
604.181	35.05
604.374	34.92
604.566	35.09
604.759	35.29
604.951	35.27
605.144	35.24
605.336	35.45
605.529	35.5
605.721	35.74
605.914	35.71
606.106	35.77
606.299	35.98
606.491	36.24
606.683	36.13
606.876	35.91
607.068	35.84
607.26	36.13
607.453	35.83
607.645	35.61
607.837	35.58
608.03	35.53
608.222	35.52
608.414	35.49
608.606	35.56
608.799	35.55
608.991	35.51
609.183	35.5
609.375	35.39
609.567	35.7
609.759	36.02
609.952	36.13
610.144	36.29
610.336	36.28
610.528	36.04
610.72	36.18
610.912	36.33
611.104	36.54
611.296	36.6
611.488	36.6
611.68	36.57
611.872	36.47
612.064	36.38
612.256	36.17
612.448	36.2
612.64	36.64
612.832	36.29
613.023	36.11
613.215	35.81
613.407	35.67
613.599	35.73
613.791	35.72
613.983	35.8
614.174	35.54
614.366	35.7
614.558	35.8
614.75	35.52
614.941	35.87
615.133	35.92
615.325	36.15
615.516	36.24
615.708	36.17
615.9	35.96
616.091	35.79
616.283	36.2
616.475	36.26
616.666	36.21
616.858	35.93
617.049	35.99
617.241	35.99
617.432	35.88
617.624	36.12
617.815	36.07
618.007	36.26
618.198	36.31
618.39	36.07
618.581	36.1
618.773	36.21
618.964	36.27
619.155	35.97
619.347	35.97
619.538	36.34
619.729	35.95
619.921	36.12
620.112	36.1
620.303	36.13
620.494	36.02
620.686	35.84
620.877	35.52
621.068	35.85
621.259	36.14
621.451	36.16
621.642	36.02
621.833	36.57
622.024	36.7
622.215	36.73
622.406	36.89
622.597	37.08
622.788	37.39
622.98	37.51
623.171	37.35
623.362	37.35
623.553	37.25
623.744	37.02
623.935	36.72
624.126	36.26
624.317	36.2
624.508	35.8
624.698	35.76
624.889	35.86
625.08	35.77
625.271	36.07
625.462	35.75
625.653	35.68
625.844	35.92
626.034	35.79
626.225	36.2
626.416	36.06
626.607	36.18
626.798	36.26
626.988	35.97
627.179	36.29
627.37	36.13
627.56	36.43
627.751	36.51
627.942	36.2
628.132	36.18
628.323	36.14
628.514	36.24
628.704	36.45
628.895	36.34
629.085	36.48
629.276	36.34
629.466	36.36
629.657	36.35
629.847	36.71
630.038	36.97
630.228	37.29
630.419	37.14
630.609	37.27
630.8	37.12
630.99	37.14
631.181	36.93
631.371	36.76
631.561	36.63
631.752	36.33
631.942	36.15
632.132	36.17
632.323	35.75
632.513	36.22
632.703	36.13
632.893	36.32
633.084	36.25
633.274	36.47
633.464	36.76
633.654	36.83
633.844	36.95
634.034	36.93
634.225	36.88
634.415	37.04
634.605	36.76
634.795	37.19
634.985	36.8
635.175	37.07
635.365	37.16
635.555	37.08
635.745	37.18
635.935	37.21
636.125	37.04
636.315	36.91
636.505	36.89
636.695	37.04
636.885	36.6
637.075	36.7
637.265	36.82
637.455	36.61
637.644	36.42
637.834	36.21
638.024	36.01
638.214	36.35
638.404	36.56
638.593	36.56
638.783	36.4
638.973	36.61
639.163	36.74
639.352	36.8
639.542	36.8
639.732	36.66
639.921	36.8
640.111	36.96
640.301	36.77
640.49	36.79
640.68	37.3
640.87	37.27
641.059	37.04
641.249	37.07
641.438	36.94
641.628	37.16
641.817	37.52
642.007	37.54
642.196	37.69
642.386	37.7
642.575	37.85
642.764	37.29
642.954	37.61
643.143	37.55
643.333	37.61
643.522	37.66
643.711	37.73
643.901	37.85
644.09	37.82
644.279	37.86
644.469	37.78
644.658	37.59
644.847	37.98
645.036	37.72
645.226	37.89
645.415	37.7
645.604	37.35
645.793	37.06
645.982	36.84
646.171	36.96
646.361	36.93
646.55	37.38
646.739	37.54
646.928	37.5
647.117	37.05
647.306	37.5
647.495	38.09
647.684	38.17
647.873	38.29
648.062	38.37
648.251	38.16
648.44	38.44
648.629	38.15
648.818	37.76
649.007	37.51
649.196	37.56
649.384	37.44
649.573	37.29
649.762	37.29
649.951	37.5
650.14	37.49
650.328	37.82
650.517	37.95
650.706	37.82
650.895	37.94
651.083	37.59
651.272	37.81
651.461	37.5
651.65	37.3
651.838	36.98
652.027	36.84
652.216	36.85
652.404	36.62
652.593	36.54
652.781	36.91
652.97	36.61
653.158	37.07
653.347	37.1
653.535	37.32
653.724	37.38
653.912	37.86
654.101	37.92
654.289	38.01
654.478	37.99
654.666	37.56
654.855	37.21
655.043	37.42
655.231	37.43
655.42	37.45
655.608	37.56
655.796	37.59
655.985	37.32
656.173	37.7
656.361	37.89
656.55	37.99
656.738	38.18
656.926	38.52
657.114	38.45
657.302	38.05
657.491	38.1
657.679	37.8
657.867	38.26
658.055	38.4
658.243	38.14
658.431	37.73
658.619	38.15
658.807	38.06
658.996	37.74
659.184	37.66
659.372	37.85
659.56	37.76
659.748	38
659.936	37.38
660.124	37.36
660.311	36.87
660.499	36.6
660.687	35.93
660.875	35.72
661.063	35.99
661.251	36.31
661.439	36.87
661.627	36.99
661.814	36.86
662.002	37.12
662.19	37.22
662.378	37.78
662.565	38.37
662.753	39.04
662.941	39.07
663.129	38.88
663.316	38.82
663.504	37.87
663.692	37.88
663.879	37.59
664.067	37.23
664.254	37.35
664.442	37.58
664.63	37.55
664.817	37.48
665.005	37.73
665.192	37.87
665.38	38.23
665.567	38.68
665.755	38.88
665.942	39.16
666.13	39.87
666.317	39.66
666.504	39.16
666.692	38.65
666.879	38.27
667.067	38.32
667.254	38.38
667.441	38.35
667.629	38.61
667.816	38.11
668.003	38.13
668.19	37.65
668.378	37.95
668.565	37.97
668.752	37.96
668.939	38.27
669.127	38.29
669.314	38.52
669.501	38.33
669.688	38.03
669.875	38.61
670.062	38.53
670.249	38.71
670.436	38.61
670.623	38.51
670.81	39.1
670.997	38.93
671.184	38.46
671.371	38.14
671.558	37.93
671.745	37.91
671.932	37.83
672.119	37.44
672.306	37.29
672.493	37.4
672.68	37.15
672.867	37.06
673.054	36.77
673.24	36.87
673.427	37.47
673.614	37.65
673.801	38.28
673.988	38.32
674.174	38.5
674.361	38.75
674.548	38.97
674.734	39.63
674.921	39.83
675.108	39.82
675.294	39.98
675.481	39.33
675.668	39.37
675.854	38.92
676.041	38.22
676.227	38.51
676.414	38.31
676.601	37.76
676.787	37.4
676.974	36.84
677.16	37.49
677.347	37.81
677.533	37.98
677.719	37.94
677.906	38.08
678.092	38.75
678.279	39.06
678.465	39.38
678.651	39.5
678.838	39.64
679.024	40.06
679.21	39.73
679.397	39.6
679.583	39.32
679.769	39.05
679.955	38.28
680.142	37.56
680.328	37.17
680.514	36.81
680.7	37.13
680.886	37.28
681.073	37.15
681.259	37.22
681.445	37.16
681.631	37.26
681.817	37.52
682.003	38.05
682.189	38.44
682.375	38.47
682.561	38.47
682.747	37.71
682.933	37.41
683.119	37.39
683.305	37.41
683.491	37.23
683.677	36.98
683.863	36.8
684.049	36.88
684.235	37.21
684.42	37.17
684.606	37.35
684.792	37.72
684.978	38.17
685.164	38.08
685.349	38.16
685.535	38.24
685.721	38.62
685.907	38.23
686.092	38.21
686.278	37.52
686.464	38.12
686.649	37.77
686.835	37.79
687.021	38
687.206	37.99
687.392	38.08
687.577	38.42
687.763	38.57
687.948	38.99
688.134	38.76
688.319	38.94
688.505	39.02
688.69	40.08
688.876	40.07
689.061	39.48
689.247	39.57
689.432	39.05
689.618	39.13
689.803	39.05
689.988	39.14
690.174	39.32
690.359	39.53
690.544	38.49
690.73	37.91
690.915	38.24
691.1	38.46
691.285	38.99
691.471	39.77
691.656	39.57
691.841	39.7
692.026	39.61
692.211	39.87
692.396	39.97
692.582	40.52
692.767	40.29
692.952	39.89
693.137	39.94
693.322	39.27
693.507	38.81
693.692	39.19
693.877	38.87
694.062	39.36
694.247	38.81
694.432	38.84
694.617	38.98
694.802	38.82
694.987	38.66
695.172	38.31
695.357	38.67
695.541	38.98
695.726	39.63
695.911	39.84
696.096	39.98
696.281	39.99
696.466	40.14
696.65	39.62
696.835	39.74
697.02	40.39
697.204	40.39
697.389	40.35
697.574	40.02
697.759	38.94
697.943	38.55
698.128	38.13
698.312	38.46
698.497	38.32
698.682	38.12
698.866	37.67
699.051	37.25
699.235	37.35
699.42	37.13
699.604	37.08
699.789	37
699.973	37.44
700.158	37.43
700.342	37.25
700.527	37.48
700.711	37.74
700.895	38.59
701.08	38.34
701.264	38.42
701.448	38.54
701.633	38.38
701.817	38.46
702.001	37.99
702.186	37.92
702.37	37.95
702.554	37.68
702.738	37.66
702.923	37
703.107	37.96
703.291	38.07
703.475	37.79
703.659	38.02
703.843	38.29
704.027	38.97
704.212	39.2
704.396	38.89
704.58	38.48
704.764	38.3
704.948	37.89
705.132	37.83
705.316	37.04
705.5	37.13
705.684	36.99
705.868	37.54
706.052	37.18
706.235	36.59
706.419	37.6
706.603	38.48
706.787	38.5
706.971	39.4
707.155	38.59
707.339	39.51
707.522	39.73
707.706	40.31
707.89	40.14
708.074	40.26
708.257	40.92
708.441	40.67
708.625	40.08
708.808	40.54
708.992	40.95
709.176	41.46
709.359	40.84
709.543	40.97
709.727	40.29
709.91	40.43
710.094	40.08
710.277	40.3
710.461	40.05
710.644	40.54
710.828	41.05
711.011	41.05
711.195	40.44
711.378	40.62
711.562	40.03
711.745	39.84
711.928	39.35
712.112	39
712.295	38.76
712.478	38.77
712.662	38.22
712.845	37.6
713.028	37.11
713.212	37.73
713.395	37.33
713.578	38.16
713.761	38.62
713.945	38.93
714.128	40.06
714.311	40.2
714.494	40.38
714.677	40.31
714.86	40.61
715.043	40.3
715.227	39.97
715.41	40.02
715.593	39.35
715.776	38.84
715.959	38.21
716.142	37.67
716.325	37.56
716.508	37.72
716.691	37.88
716.874	37.6
717.057	37.93
717.239	38.18
717.422	38.65
717.605	38.88
717.788	38.64
717.971	38.98
718.154	39.35
718.337	39.02
718.519	38.26
718.702	38.08
718.885	38.49
719.068	38.45
719.25	38.76
719.433	38.88
719.616	38.96
719.798	39.89
719.981	39.76
720.164	38.92
720.346	39.99
720.529	40.74
720.712	40.23
720.894	39.57
721.077	39.82
721.259	40.07
721.442	39.77
721.624	40.03
721.807	39.68
721.989	40.57
722.172	40.77
722.354	39.31
722.537	39.4
722.719	40.48
722.901	39.04
723.084	38.14
723.266	37.71
723.448	37.76
723.631	37.27
723.813	37.54
723.995	36.71
724.178	36.56
724.36	38.01
724.542	38.01
724.724	37.78
724.907	40.16
725.089	40.74
725.271	40.61
725.453	39.95
725.635	39.69
725.817	39.58
725.999	40.02
726.181	40.88
726.364	40.13
726.546	39.41
726.728	39.54
726.91	38.82
727.092	37.95
727.274	38.26
727.456	38.74
727.638	39.25
727.819	39.65
728.001	39
728.183	38.23
728.365	38.04
728.547	38.4
728.729	38.52
728.911	38.71
729.093	38.66
729.274	38.24
729.456	38.44
729.638	38.36
729.82	38.1
730.001	38.02
730.183	37.88
730.365	38.81
730.546	38.68
730.728	38.73
730.91	38.35
731.091	39.93
731.273	40
731.455	39.76
731.636	40.36
731.818	40.58
731.999	40.88
732.181	40.38
732.362	39.82
732.544	39.52
732.725	39.37
732.907	39.79
733.088	38.89
733.27	39.43
733.451	39.91
733.633	39.01
733.814	38.95
733.995	38.5
734.177	39.28
734.358	38.81
734.539	39.74
734.721	40.01
734.902	39.25
735.083	39.89
735.264	39.64
735.446	39.8
735.627	40
735.808	40.01
735.989	39.96
736.17	39.83
736.351	40.81
736.533	40.94
736.714	40.77
736.895	42.06
737.076	42.13
737.257	42.01
737.438	42.94
737.619	42.11
737.8	41.92
737.981	42.28
738.162	41.75
738.343	41.78
738.524	40.91
738.705	40.73
738.886	40.73
739.067	41.21
739.247	41.04
739.428	39.76
739.609	41.47
739.79	41.51
739.971	41.67
740.151	43.03
740.332	42.88
740.513	43.13
740.694	42.79
740.874	42.67
741.055	41.71
741.236	42.03
741.417	41.67
741.597	41.85
741.778	42.49
741.958	42.52
742.139	41.79
742.32	40.74
742.5	41.27
742.681	41.29
742.861	40.54
743.042	40.05
743.222	39.67
743.403	40.34
743.583	39.74
743.764	38.65
743.944	38.97
744.124	39.77
744.305	40.19
744.485	39.37
744.666	39.35
744.846	39.14
745.026	40.05
745.207	40.37
745.387	39.46
745.567	39.22
745.747	39.66
745.928	39.7
746.108	38.62
746.288	38.64
746.468	38.14
746.648	39.21
746.829	39.65
747.009	39.87
747.189	40.14
747.369	40.26
747.549	40.65
747.729	41.28
747.909	41.08
748.089	41.63
748.269	42.03
748.449	42.94
748.629	43
748.809	42.42
748.989	41.83
749.169	41.48
749.349	42.54
749.529	41.28
749.709	40.72
749.889	40.5
750.068	40.41
750.248	40.84
750.428	41.01
750.608	40.95
750.788	41.51
750.967	41.89
751.147	41.98
751.327	41.56
751.507	41.91
751.686	42.85
751.866	42.72
752.046	43.06
752.225	42.35
752.405	42.25
752.585	41.81
752.764	42.16
752.944	41.82
753.123	41.1
753.303	41.04
753.482	41.7
753.662	40.14
753.841	41.41
754.021	40.8
754.2	40.08
754.38	40.32
754.559	40.05
754.739	38.95
754.918	38.3
755.097	38.93
755.277	38.7
755.456	39.7
755.635	40.05
755.815	39.43
755.994	39.35
756.173	39.44
756.352	39.72
756.532	39.61
756.711	41.28
756.89	40.68
757.069	41.09
757.248	41.12
757.427	39.58
757.607	40.62
757.786	40.23
757.965	40.87
758.144	42.18
758.323	41.21
758.502	40.83
758.681	40.07
758.86	41.21
759.039	41.01
759.218	40.95
759.397	41.42
759.576	40.63
759.755	40.8
759.934	40.74
760.113	40.11
760.291	40.06
760.47	40.91
760.649	40.89
760.828	40.93
761.007	41.57
761.186	41.21
761.364	41
761.543	40.76
761.722	41.04
761.901	40.68
762.079	40.6
762.258	40.09
762.437	39.33
762.615	39.96
762.794	40.06
762.972	39.32
763.151	39.35
763.33	38.78
763.508	38.87
763.687	38.52
763.865	38.85
764.044	39.34
764.222	39.85
764.401	40.42
764.579	40.58
764.758	40.16
764.936	40.09
765.114	41.01
765.293	41.41
765.471	41.98
765.65	42.03
765.828	42.2
766.006	41.97
766.184	42.33
766.363	41.47
766.541	40.45
766.719	41.74
766.898	41.78
767.076	41.26
767.254	42.69
767.432	42.7
767.61	42.82
767.788	42.78
767.967	43.58
768.145	43.41
768.323	43.39
768.501	43.68
768.679	42.59
768.857	42.12
769.035	42.53
769.213	40.99
769.391	40.72
769.569	40.26
769.747	39.4
769.925	38.34
770.103	38.41
770.281	40.62
770.459	39.54
770.636	39.98
770.814	41.62
770.992	41.35
771.17	41.99
771.348	42.41
771.525	43.57
771.703	44.16
771.881	44.43
772.059	43.81
772.236	42.9
772.414	44.82
772.592	44.11
772.769	44.13
772.947	45.18
773.125	43.98
773.302	41.9
773.48	41.77
773.657	40.86
773.835	40.75
774.013	43.49
774.19	43.95
774.368	43.58
774.545	44.17
774.723	44.35
774.9	42.01
775.077	43.36
775.255	45.45
775.432	45.34
775.61	46.72
775.787	46.55
775.964	43.16
776.142	42.8
776.319	41.83
776.496	41.45
776.674	40.48
776.851	40.77
777.028	39.77
777.205	39.02
777.382	40.36
777.56	40.25
777.737	39.49
777.914	41.39
778.091	41.44
778.268	42.66
778.445	42.28
778.622	41.33
778.8	43.42
778.977	43.43
779.154	42.12
779.331	41.18
779.508	39.8
779.685	40.07
779.862	41.01
780.038	40.9
780.215	39.46
780.392	39.45
780.569	41.27
780.746	39.38
780.923	40.77
781.1	42.79
781.277	42.69
781.453	42.51
781.63	42.39
781.807	41.01
781.984	40.1
782.16	41.8
782.337	42.12
782.514	40.95
782.691	42.05
782.867	41.23
783.044	39.92
783.221	40.73
783.397	41.18
783.574	42.43
783.75	42.67
783.927	43.56
784.103	43.12
784.28	44.07
784.456	44.99
784.633	45.91
784.809	46.67
784.986	46.76
785.162	44.69
785.339	44.83
785.515	44.41
785.692	42.55
785.868	42.98
786.044	42.08
786.221	39.6
786.397	39.95
786.573	39.14
786.749	36.22
786.926	37.75
787.102	39.68
787.278	40.15
787.454	40.84
787.631	42.21
787.807	40.89
787.983	41.58
788.159	43.42
788.335	43.38
788.511	44.35
788.687	44.04
788.863	42.75
789.039	41.49
789.216	40.99
789.392	39.19
789.568	38.59
789.744	40.01
789.919	40.17
790.095	40.83
790.271	41.5
790.447	38.46
790.623	38.66
790.799	39.58
790.975	39.67
791.151	41.19
791.327	42.68
791.502	43.56
791.678	42.11
791.854	41.47
792.03	41.12
792.205	38.7
792.381	40.97
792.557	43.55
792.733	42.49
792.908	41.72
793.084	43.02
793.259	41.77
793.435	39.98
793.611	41.58
793.786	44.3
793.962	44.37
794.137	42.9
794.313	40.41
794.488	39
794.664	37.86
794.839	41.49
795.015	38.7
795.19	39.65
795.366	41.49
795.541	40.19
795.716	39.09
795.892	38.07
796.067	41.72
796.242	43.2
796.418	43.58
796.593	46.02
796.768	43.68
796.944	44.34
797.119	44.01
797.294	43.3
797.469	42.42
797.644	41.8
797.82	42.17
797.995	39.02
798.17	40.66
798.345	42.28
798.52	41.45
798.695	42.64
798.87	41.74
799.045	42.1
799.22	42.56
799.395	44.92
799.57	43.85
799.745	43.05
799.92	45.62
800.095	44.36
800.27	43
800.445	43.81
800.62	43.47
800.795	45.25
800.97	45.52
801.145	45.69
801.319	46.07
801.494	46.73
801.669	46.58
801.844	47.04
802.018	47.07
802.193	46.51
802.368	45.5
802.543	44.78
802.717	44.28
802.892	41.97
803.067	40.23
803.241	39.78
803.416	38.77
803.59	40.83
803.765	39.55
803.94	38.64
804.114	39.43
804.289	42.47
804.463	43
804.638	44.13
804.812	42.99
804.986	46.81
805.161	44.34
805.335	47.74
805.51	47.1
805.684	47.51
805.858	47.56
806.033	45.53
806.207	44.02
806.381	46.1
806.556	43.31
806.73	45.73
806.904	45.56
807.078	49.75
807.253	48.27
807.427	46.47
807.601	47.62
807.775	48.34
807.949	49.61
808.123	48.19
808.298	45.59
808.472	46.77
808.646	47.65
808.82	46.5
808.994	43.14
809.168	43.35
809.342	47.13
809.516	46.78
809.69	46.36
809.864	48.02
810.038	45.97
810.212	48.2
810.385	50.77
810.559	50.18
810.733	50.57
810.907	51.12
811.081	48.07
811.255	43.66
811.428	45.78
811.602	43.79
811.776	40.21
811.95	42.91
812.123	39.41
812.297	36.09
812.471	35.92
812.644	35.37
812.818	36.38
812.992	40.21
813.165	41.82
813.339	38.72
813.512	41.15
813.686	42.21
813.86	47.09
814.033	49.23
814.207	52.09
814.38	55.29
814.554	57.45
814.727	55.95
814.9	55.94
815.074	58.54
815.247	57.63
815.421	57.8
815.594	61.41
815.767	56.54
815.941	52.96
816.114	52.16
816.287	46.16
816.46	41.86
816.634	43.2
816.807	41.32
816.98	39.9
817.153	40.52
817.327	39.7
817.5	34.49
817.673	33.21
817.846	35.72
818.019	33
818.192	34.92
818.365	34.44
818.538	36.64
818.711	39.61
818.884	38.14
819.057	39.91
819.23	38.37
819.403	40.8
819.576	40.06
819.749	39.12
819.922	41.6
820.095	41.03
820.268	44.19
820.441	44.33
820.614	43.52
820.786	44.22
820.959	41.48
821.132	42.68
821.305	42.9
821.477	43.31
821.65	42.76
821.823	41.86
821.996	42.07
822.168	40.93
822.341	39.96
822.514	38.63
822.686	38.71
822.859	39.89
823.031	40.22
823.204	40.24
823.376	39.94
823.549	40.08
823.722	39.96
823.894	39.19
824.067	39.49
824.239	39.56
824.411	40.55
824.584	40.5
824.756	40.52
824.929	40.07
825.101	39.43
825.273	40.31
825.446	40.94
825.618	40.92
825.79	40.94
825.963	40.8
826.135	41.34
826.307	40.69
826.479	40.37
826.652	39.4
826.824	39.64
826.996	39.35
827.168	38.86
827.34	39.04
827.512	39.07
827.684	40.11
827.856	41.37
828.029	41.58
828.201	42.22
828.373	43.17
828.545	43.01
828.717	43.54
828.889	44.68
829.061	44.23
829.232	44.06
829.404	44.32
829.576	44.56
829.748	43.37
829.92	42.19
830.092	41.6
830.264	41.07
830.436	42.38
830.607	41.51
830.779	42.28
830.951	43.11
831.123	42.42
831.294	42.61
831.466	42.87
831.638	43.84
831.809	44.53
831.981	47.32
832.153	47.22
832.324	47.03
832.496	46.73
832.667	45.13
832.839	42.46
833.011	42.96
833.182	44.19
833.354	41.86
833.525	39.58
833.697	40.86
833.868	40.09
834.039	40.13
834.211	39.61
834.382	40.45
834.554	42.2
834.725	43.96
834.896	44.59
835.068	45.33
835.239	46.73
835.41	48.38
835.581	47.5
835.753	46.56
835.924	45.33
836.095	45.7
836.266	44.86
836.438	43.77
836.609	44.49
836.78	43.08
836.951	42.09
837.122	41.12
837.293	41.22
837.464	41.6
837.635	42.18
837.806	42.28
837.977	43.05
838.148	42.84
838.319	43.67
838.49	41.13
838.661	40.68
838.832	40.64
839.003	39.7
839.174	40
839.345	38.87
839.516	37.31
839.687	39.25
839.857	39.7
840.028	41.99
840.199	40.39
840.37	42.67
840.54	47.06
840.711	44.72
840.882	49.05
841.053	46.42
841.223	48.71
841.394	48.93
841.564	47.2
841.735	48.29
841.906	45.51
842.076	47.16
842.247	46.54
842.417	44.33
842.588	44.67
842.758	41.39
842.929	39.39
843.099	34.14
843.27	37.14
843.44	42.86
843.611	41.65
843.781	42.26
843.951	38.99
844.122	46.97
844.292	49.43
844.462	53.53
844.633	58.48
844.803	58.51
844.973	61.25
845.144	58.55
845.314	52.33
845.484	47.48
845.654	54.92
845.824	55.24
845.995	49.52
846.165	52.59
846.335	51.12
846.505	47.19
846.675	51.38
846.845	57.14
847.015	63.17
847.185	68.96
847.355	73.54
847.525	68.45
847.695	68.73
847.865	64.68
848.035	60.76
848.205	58.12
848.375	69.96
848.545	71.81
848.715	65.92
848.884	59.89
849.054	56.64
849.224	58.51
849.394	59.24
849.564	56.6
849.733	55.12
849.903	48.5
850.073	44.48
850.243	35.7
850.412	29.17
850.582	28.82
850.752	35.67
850.921	36.45
851.091	31.63
851.26	29.13
851.43	24.79
851.599	21.91
851.769	21.91
851.939	30.99
852.108	31.93
852.278	39.02
852.447	40.21
852.616	35.88
852.786	44.84
852.955	48.24
853.125	53.98
853.294	65.23
853.463	65.27
853.633	69.27
853.802	66.37
853.971	71.14
854.141	56.71
854.31	58.27
854.479	58.59
854.648	46.7
854.818	46.91
854.987	41.37
855.156	34.9
855.325	34.37
855.494	31.34
855.663	36.42
855.832	35.51
856.001	38.32
856.171	41.09
856.34	41.89
856.509	43.85
856.678	45.55
856.847	53.7
857.016	67.24
857.185	75.47
857.353	82.28
857.522	71.97
857.691	65.83
857.86	76.07
858.029	71.65
858.198	69.8
858.367	71.5
858.535	66.45
858.704	65.06
858.873	60.46
859.042	58.44
859.21	57.63
859.379	61.06
859.548	71.05
859.717	73.41
859.885	80.42
860.054	78.64
860.222	74.5
860.391	79.76
860.56	72.66
860.728	66.42
860.897	69.26
861.065	69.53
861.234	75.11
861.402	74
861.571	69.68
861.739	61.88
861.908	67.74
862.076	71.56
862.244	76.33
862.413	82.23
862.581	83.44
862.749	88.99
862.918	82.73
863.086	71.94
863.254	62.38
863.423	69.23
863.591	60.69
863.759	59.9
863.927	53.12
864.096	48.54
864.264	47.72
864.432	45.45
864.6	38.85
864.768	24.3
864.936	25.4
865.104	31.33
865.272	29.43
865.44	34.63
865.608	26.96
865.776	36.33
865.944	28.77
866.112	26.42
866.28	32.43
866.448	33.27
866.616	46.89
866.784	47.39
866.952	47.29
867.12	42.06
867.288	41.84
867.455	45.46
867.623	37.95
867.791	44.5
867.959	56.48
868.127	52.01
868.294	59.16
868.462	58.37
868.63	62.48
868.797	65.68
868.965	57.95
869.133	55.51
869.3	53.39
869.468	65.76
869.636	63.58
869.803	57.07
869.971	62.42
870.138	52.38
870.306	54.92
870.473	52.56
870.641	48.09
870.808	54.78
870.975	54.37
871.143	58.26
871.31	57.54
871.478	61.27
871.645	62.83
871.812	62.17
871.98	75.63
872.147	78.3
872.314	80.16
872.482	75.77
872.649	62.87
872.816	74.18
872.983	79.62
873.15	77.18
873.318	71.06
873.485	65.52
873.652	65.89
873.819	60.82
873.986	65.6
874.153	69.26
874.32	75.84
874.487	85.13
874.654	82.87
874.821	84.32
874.988	81.06
875.155	84.44
875.322	80.66
875.489	78.44
875.656	85.68
875.823	89.94
875.99	93.5
876.157	92.26
876.324	89.18
876.49	82.52
876.657	83.75
876.824	83.36
876.991	78.24
877.157	88.75
877.324	95.79
877.491	85.14
877.658	70.01
877.824	48.18
877.991	49.73
878.157	50.83
878.324	54.39
878.491	48.03
878.657	52.84
878.824	55.82
878.99	52.32
879.157	52.45
879.323	50.74
879.49	44.82
879.656	58.27
879.823	52.6
879.989	46.57
880.156	49.88
880.322	50.14
880.488	47.83
880.655	42.42
880.821	41.53
880.987	37.07
881.154	39.9
881.32	48.66
881.486	46.03
881.652	48.79
881.819	51.26
881.985	44
882.151	44.5
882.317	43.63
882.483	44.82
882.649	46.11
882.816	45.28
882.982	43.46
883.148	40.08
883.314	40.25
883.48	37.1
883.646	36.56
883.812	37.76
883.978	36.17
884.144	36.09
884.31	35.64
884.476	35.32
884.642	34.73
884.807	36.04
884.973	37.25
885.139	37.63
885.305	41.4
885.471	40.36
885.637	42.42
885.802	45.89
885.968	47.59
886.134	51.06
886.3	50.79
886.465	53.36
886.631	53.72
886.797	56.81
886.962	58.16
887.128	54.83
887.293	55.94
887.459	59.76
887.625	57.83
887.79	61.55
887.956	56.79
888.121	60.37
888.287	64.24
888.452	62.57
888.618	60.05
888.783	57.84
