Data from CB_029_Reflection_2.txt Node
Date: Wed Nov 11 20:46:24 EST 2015
User: robert
Spectrometer: USB4E03001
Autoset integration time: false
Trigger mode: 4
Integration Time (sec): 1.000000E-1
Scans to average: 15
Electric dark correction enabled: true
Nonlinearity correction enabled: false
Boxcar width: 5
Stray light correction enabled: false
XAxis mode: Wavelengths
Stop averaging: false
Number of Pixels in Spectrum: 3648
>>>>>Begin Spectral Data<<<<<
177.566	-127.79
177.785	-301.67
178.005	680.73
178.225	-129.99
178.445	-78.18
178.665	-340.07
178.885	293.02
179.105	1952.17
179.324	109.32
179.544	248.46
179.764	-286.18
179.984	-333.11
180.204	12615
180.423	173.48
180.643	-272.94
180.863	-126.38
181.083	-58.1
181.302	-257.68
181.522	-268.88
181.742	103.19
181.961	29.1
182.181	168.6
182.401	-292.74
182.621	60.49
182.84	-37.31
183.06	-34.42
183.279	-172.4
183.499	-82.35
183.719	-156.11
183.938	-156.88
184.158	-101.75
184.377	-34.99
184.597	-74.44
184.816	-24.84
185.036	-92.04
185.256	-35.73
185.475	11.06
185.695	13.58
185.914	8.5
186.134	-282.86
186.353	1457.38
186.572	426.21
186.792	609.58
187.011	1541.32
187.231	2344.19
187.45	763.37
187.67	498.83
187.889	466.44
188.108	369.28
188.328	506.68
188.547	856.8
188.766	1053.53
188.986	4507.33
189.205	5159.91
189.424	1268.63
189.644	475.69
189.863	533.19
190.082	1998.87
190.302	303.55
190.521	419.63
190.74	217.68
190.959	166.12
191.178	181.85
191.398	166.68
191.617	167.95
191.836	414.38
192.055	233.15
192.274	377.25
192.494	631.99
192.713	1030.52
192.932	2188.61
193.151	-290.03
193.37	-225.68
193.589	-288.04
193.808	-458.11
194.027	-527.55
194.246	-1108.63
194.465	-306.96
194.685	-746.28
194.904	965.59
195.123	-755.92
195.342	-104.32
195.561	-300.53
195.78	-5643.69
195.999	-197.72
196.218	-114.53
196.436	-203.73
196.655	603.45
196.874	261.85
197.093	365.62
197.312	39.21
197.531	401.8
197.75	267.93
197.969	519.82
198.188	613.43
198.407	335.65
198.625	446.05
198.844	681.89
199.063	-2500.28
199.282	-1249.32
199.501	-872.74
199.719	-1014.41
199.938	-508.88
200.157	2787.56
200.376	-62.56
200.594	46.05
200.813	32.32
201.032	-2.41
201.251	0.1
201.469	75.06
201.688	105.86
201.907	337.04
202.125	424.48
202.344	2033.13
202.563	773.48
202.781	814.12
203	617.84
203.218	251.31
203.437	735.53
203.656	1054.79
203.874	799.66
204.093	1828.63
204.311	1036
204.53	263.59
204.748	329.72
204.967	587.46
205.185	9275.24
205.404	-256.38
205.622	-95.28
205.841	-33.67
206.059	-63.38
206.278	-27.57
206.496	-44.79
206.715	-169.41
206.933	-73.73
207.151	-172.03
207.37	-146.04
207.588	-184.2
207.806	-90.26
208.025	-15.86
208.243	144.72
208.461	-9.87
208.68	-17.54
208.898	331.38
209.116	121.69
209.335	158.76
209.553	122.97
209.771	124.94
209.989	93.85
210.208	111.55
210.426	186.47
210.644	378.36
210.862	910.44
211.081	498.66
211.299	308.44
211.517	325.85
211.735	874.35
211.953	359.04
212.171	486.74
212.39	-2954.41
212.608	-248.63
212.826	-216.73
213.044	-133.05
213.262	-162.33
213.48	-128.65
213.698	-179.71
213.916	-262.43
214.134	-425.69
214.352	-352.67
214.57	-114.18
214.788	-386.16
215.006	-680.57
215.224	320.33
215.442	1066.67
215.66	661.81
215.878	687.85
216.096	366.61
216.314	454.76
216.532	613.78
216.75	660.86
216.968	312.06
217.185	151.56
217.403	183.52
217.621	534.65
217.839	176.24
218.057	272.03
218.275	378.65
218.492	-653.19
218.71	282.57
218.928	174.84
219.146	264.44
219.363	1754.9
219.581	-982.88
219.799	-195.69
220.017	-318.31
220.234	-252.66
220.452	-317.75
220.67	-592.7
220.887	4466.87
221.105	-824.84
221.323	-211.87
221.54	-208.46
221.758	-534.28
221.976	-218.4
222.193	-153.63
222.411	-93.09
222.629	-76.53
222.846	-100.61
223.064	-70.96
223.281	-21.09
223.499	-8
223.716	-28.88
223.934	-43.63
224.151	-47.72
224.369	-40.49
224.586	-43.44
224.804	-62.85
225.021	-62.79
225.239	-92.73
225.456	-86.72
225.674	-58.16
225.891	-88.03
226.108	-86.9
226.326	-73.62
226.543	-21.28
226.76	-8.71
226.978	-2.07
227.195	16.73
227.413	32.98
227.63	27.87
227.847	23.54
228.064	16.36
228.282	20.32
228.499	18.76
228.716	19.47
228.934	17.24
229.151	12.93
229.368	13.3
229.585	9.11
229.802	4.58
230.02	3.31
230.237	2.46
230.454	4.45
230.671	-3.22
230.888	-2.76
231.105	3.85
231.323	3.12
231.54	5.19
231.757	-0.34
231.974	-2.06
232.191	-5.08
232.408	-6.51
232.625	-0.33
232.842	-2.61
233.059	-0.59
233.276	-3.17
233.493	-15.46
233.71	-19.58
233.927	-15.64
234.144	-19.01
234.361	-18.42
234.578	-14.15
234.795	-19.04
235.012	-21.48
235.229	-23.77
235.446	-19.93
235.663	-22.94
235.879	-21.29
236.096	-10.15
236.313	-22.46
236.53	-18.03
236.747	-10.4
236.964	-15.95
237.181	-9.11
237.397	-8.99
237.614	-11.76
237.831	-11.64
238.048	-10.55
238.264	-12.99
238.481	-20.59
238.698	-12.69
238.915	-12.39
239.131	-16.77
239.348	-11.81
239.565	-7.47
239.781	-8.7
239.998	-6.18
240.215	-0.65
240.431	-1.36
240.648	-0.71
240.865	1.59
241.081	-0.75
241.298	0.2
241.514	4.42
241.731	6.17
241.947	5.18
242.164	4.55
242.38	6.46
242.597	5.27
242.814	6.28
243.03	8.89
243.246	7.76
243.463	10.5
243.679	8.92
243.896	6.56
244.112	6.43
244.329	6.74
244.545	6.88
244.762	4.69
244.978	5.15
245.194	6.95
245.411	4.03
245.627	4.45
245.843	4.33
246.06	4.7
246.276	6.06
246.492	4.23
246.709	5.85
246.925	6.79
247.141	7.23
247.357	7.53
247.574	6.81
247.79	7.17
248.006	7.21
248.222	7.34
248.439	8.08
248.655	8.63
248.871	9.43
249.087	7.96
249.303	7.88
249.519	8.24
249.736	8.02
249.952	9.36
250.168	9.11
250.384	8.36
250.6	6.08
250.816	4.53
251.032	5.89
251.248	8.89
251.464	10.58
251.68	11.12
251.896	9.94
252.112	9.33
252.328	7.68
252.544	7.52
252.76	7.73
252.976	10.63
253.192	11.59
253.408	7.87
253.624	2.87
253.84	2.51
254.056	-0.76
254.272	-2.22
254.487	-1.4
254.703	-4.65
254.919	-3.05
255.135	-6.88
255.351	-15.4
255.567	-13.94
255.782	-11.03
255.998	-8.54
256.214	-11.11
256.43	-10.99
256.646	-7.77
256.861	-7.66
257.077	-4.01
257.293	-7.27
257.508	-3.62
257.724	-0.75
257.94	-1.57
258.155	0.67
258.371	1.7
258.587	2.74
258.802	2.56
259.018	3.2
259.234	2.35
259.449	3.13
259.665	2.88
259.88	4.49
260.096	4.64
260.312	6
260.527	6.16
260.743	6.4
260.958	5.91
261.174	7.79
261.389	7.25
261.605	8.34
261.82	8.86
262.036	11.45
262.251	9.31
262.466	9.9
262.682	9.72
262.897	8.86
263.113	8.68
263.328	9.65
263.543	7.56
263.759	9.35
263.974	6.5
264.189	4.49
264.405	3.04
264.62	3.49
264.835	2.74
265.051	0.18
265.266	-0.69
265.481	0.15
265.696	-3.2
265.912	-4.43
266.127	-7.46
266.342	-5.28
266.557	-5.21
266.773	-4.56
266.988	-3.38
267.203	-3.38
267.418	-2.54
267.633	-1.26
267.848	-1.25
268.064	1.55
268.279	3.14
268.494	4.09
268.709	3.34
268.924	2.99
269.139	2.52
269.354	1.91
269.569	1.95
269.784	2.19
269.999	3.08
270.214	3.34
270.429	2.81
270.644	1.79
270.859	2.03
271.074	2.44
271.289	3.21
271.504	3.28
271.719	2.86
271.934	2.16
272.149	2.57
272.363	1.81
272.578	1.39
272.793	2.37
273.008	3.04
273.223	3.25
273.438	1.71
273.653	2.07
273.867	1.93
274.082	2.9
274.297	4.84
274.512	5.01
274.726	5.17
274.941	4.74
275.156	4.7
275.371	4.05
275.585	4.27
275.8	6.79
276.015	7.38
276.229	7.73
276.444	9.35
276.659	8.74
276.873	8.13
277.088	6.94
277.302	6.44
277.517	7.33
277.732	7.38
277.946	8.14
278.161	6.72
278.375	5.56
278.59	4.88
278.804	2.22
279.019	1.54
279.233	1.58
279.448	3.63
279.662	6.15
279.877	5.28
280.091	6.67
280.306	6.89
280.52	9.4
280.735	10.25
280.949	10.71
281.163	10.27
281.378	11.18
281.592	11.39
281.806	9.8
282.021	10.06
282.235	8.98
282.449	8.4
282.664	9.32
282.878	7.99
283.092	5.99
283.307	5.19
283.521	6.02
283.735	4.45
283.949	3.58
284.164	3.76
284.378	2.83
284.592	3.08
284.806	2.73
285.02	2.18
285.234	1.83
285.449	2.46
285.663	3.05
285.877	3.1
286.091	4.07
286.305	4.32
286.519	5.26
286.733	6.02
286.947	6.55
287.161	7.23
287.375	7.01
287.589	7.7
287.803	8.18
288.017	8.66
288.231	8.38
288.445	9.15
288.659	10.09
288.873	9.67
289.087	9.34
289.301	8.6
289.515	8.21
289.729	7.83
289.943	8.31
290.157	9.78
290.371	9.5
290.584	9.58
290.798	8.79
291.012	7.46
291.226	6.83
291.44	6.08
291.654	5.52
291.867	5.53
292.081	4.87
292.295	4.13
292.509	3.4
292.722	2.58
292.936	2.88
293.15	1.89
293.364	3.34
293.577	4.96
293.791	5.69
294.005	7.04
294.218	7.99
294.432	8.26
294.645	7.75
294.859	7.82
295.073	7.93
295.286	8.66
295.5	10.61
295.713	9.5
295.927	9.8
296.14	9.23
296.354	9.62
296.568	8.87
296.781	9.56
296.994	9.57
297.208	9.66
297.421	10.03
297.635	9.51
297.848	8.91
298.062	10.03
298.275	10.09
298.489	10.7
298.702	9.78
298.915	10.03
299.129	9.84
299.342	10.45
299.555	9.8
299.769	9.9
299.982	9.82
300.195	8.85
300.409	8.57
300.622	7.25
300.835	6.7
301.048	7.41
301.262	6.01
301.475	5.23
301.688	4.79
301.901	5.18
302.115	4.51
302.328	4.63
302.541	6.47
302.754	6.13
302.967	6.4
303.18	6.79
303.393	6.88
303.607	7.07
303.82	7.74
304.033	8.13
304.246	8.69
304.459	8.03
304.672	7.95
304.885	6.51
305.098	6.35
305.311	6.15
305.524	5.47
305.737	5.87
305.95	7.42
306.163	7.35
306.376	7.35
306.589	6.83
306.802	8.82
307.015	8.11
307.228	9.08
307.44	8.84
307.653	7.99
307.866	8
308.079	8.58
308.292	7.35
308.505	7.22
308.718	7.28
308.93	7.15
309.143	5.93
309.356	7.66
309.569	8.21
309.781	8.03
309.994	9.12
310.207	9.35
310.42	8.92
310.632	9.12
310.845	9.18
311.058	9.24
311.27	10.27
311.483	11.29
311.696	10.92
311.908	10.57
312.121	10.77
312.333	10.56
312.546	10.17
312.759	9.5
312.971	9.56
313.184	9.31
313.396	9.4
313.609	9.27
313.821	8.36
314.034	7.52
314.246	6.95
314.459	7.04
314.671	7.1
314.884	7.82
315.096	8.35
315.309	9.57
315.521	9.92
315.733	9.5
315.946	7.75
316.158	7.97
316.371	8.87
316.583	8.84
316.795	9.55
317.008	9.69
317.22	8.86
317.432	8.8
317.644	7.33
317.857	8.13
318.069	9.17
318.281	10.08
318.494	10.29
318.706	9.88
318.918	9.68
319.13	10.02
319.342	10.73
319.555	11.63
319.767	10.9
319.979	11.21
320.191	9.55
320.403	9.27
320.615	10.29
320.827	9.87
321.039	9.71
321.252	10.65
321.464	9.61
321.676	9.6
321.888	10.37
322.1	11.97
322.312	12.85
322.524	14.21
322.736	14.75
322.948	13.58
323.16	14.1
323.372	15.73
323.584	16.58
323.796	17.54
324.007	17.55
324.219	17.69
324.431	16.6
324.643	15.83
324.855	15.22
325.067	15.05
325.279	15.74
325.491	15.98
325.702	15.49
325.914	14.63
326.126	14.57
326.338	14.61
326.55	15.42
326.761	14.8
326.973	16.58
327.185	17.48
327.396	17.4
327.608	17.16
327.82	16.78
328.032	15.97
328.243	14.98
328.455	15.61
328.666	15.29
328.878	14.57
329.09	16.63
329.301	16.2
329.513	16.18
329.725	16.18
329.936	16.34
330.148	16.76
330.359	17.49
330.571	18.88
330.782	18.43
330.994	18.5
331.205	17.64
331.417	18.23
331.628	17.23
331.84	16.93
332.051	16.99
332.262	17.37
332.474	16.15
332.685	15.69
332.897	16.05
333.108	16
333.319	16.06
333.531	16.42
333.742	15.76
333.953	15.83
334.165	17.01
334.376	16.63
334.587	15.33
334.799	15.97
335.01	16.97
335.221	17.89
335.432	18.05
335.644	18.48
335.855	18.64
336.066	19.25
336.277	18.99
336.488	18.96
336.7	19.39
336.911	20.02
337.122	19.49
337.333	18.56
337.544	17.5
337.755	16.49
337.966	16.22
338.177	16.01
338.388	16.36
338.599	17.27
338.811	16.45
339.022	17.14
339.233	16.93
339.444	18.19
339.655	18.97
339.866	18.65
340.076	20.01
340.287	19.82
340.498	21.02
340.709	19.74
340.92	19.83
341.131	19.81
341.342	18.48
341.553	19.25
341.764	19.82
341.975	19.15
342.185	19.56
342.396	19.65
342.607	19.75
342.818	19.27
343.029	20.53
343.239	19.8
343.45	20.19
343.661	21.21
343.872	20.72
344.082	19.87
344.293	20.55
344.504	20.2
344.714	19.62
344.925	20.11
345.136	19.57
345.346	18.6
345.557	18.6
345.768	17.85
345.978	17.32
346.189	17.7
346.399	17.03
346.61	16.62
346.821	17.25
347.031	16.4
347.242	16.26
347.452	16.66
347.663	16.81
347.873	16.7
348.084	17.1
348.294	17.36
348.504	17.45
348.715	18.54
348.925	18.91
349.136	18.66
349.346	18.97
349.557	18.72
349.767	18.61
349.977	18.64
350.188	18.74
350.398	18.67
350.608	18.95
350.819	18.69
351.029	18.51
351.239	17.72
351.449	17.28
351.66	17.96
351.87	18.26
352.08	17.98
352.29	18.61
352.501	18.54
352.711	18.32
352.921	17.43
353.131	17.97
353.341	17.76
353.552	18.52
353.762	19.61
353.972	19.05
354.182	18.33
354.392	17.53
354.602	16.94
354.812	17.31
355.022	17.98
355.232	18.17
355.442	18.2
355.652	17.54
355.862	17.51
356.072	17.95
356.282	18.45
356.492	18.65
356.702	19.58
356.912	19.33
357.122	18.63
357.332	18.36
357.542	18.8
357.752	18.26
357.962	18.71
358.171	18.44
358.381	17.12
358.591	16.69
358.801	17.02
359.011	16.62
359.221	16.1
359.43	15.98
359.64	16.11
359.85	15.78
360.06	15.76
360.269	15.85
360.479	15.94
360.689	16.42
360.899	16.74
361.108	16.61
361.318	16.86
361.528	17.93
361.737	18.44
361.947	18.01
362.156	18.42
362.366	18.47
362.576	18.44
362.785	18.61
362.995	18.93
363.204	18.55
363.414	18.3
363.623	18.6
363.833	17.5
364.042	17.55
364.252	18.01
364.461	17.48
364.671	17.2
364.88	17.31
365.09	16.9
365.299	16.86
365.509	17.03
365.718	17.65
365.927	17.17
366.137	18.07
366.346	17.8
366.555	17.64
366.765	17.94
366.974	18.46
367.183	17.9
367.393	18.75
367.602	18.53
367.811	18.37
368.021	17.96
368.23	17.85
368.439	17.61
368.648	17.45
368.857	16.93
369.067	16.86
369.276	17.14
369.485	17.89
369.694	17.06
369.903	16.52
370.112	16.21
370.321	16.28
370.531	16.23
370.74	16
370.949	16.5
371.158	16.61
371.367	15.93
371.576	15.26
371.785	14.64
371.994	14.51
372.203	14.36
372.412	15.1
372.621	15.12
372.83	15.57
373.039	15.47
373.248	15.31
373.457	15.4
373.666	15.56
373.874	15.99
374.083	16.34
374.292	16.31
374.501	16.6
374.71	16.05
374.919	15.89
375.128	14.43
375.336	14.63
375.545	14.46
375.754	14.52
375.963	15.16
376.171	14.95
376.38	14.78
376.589	14.27
376.798	13.88
377.006	14.07
377.215	13.75
377.424	14.37
377.632	13.82
377.841	13.78
378.05	13.45
378.258	12.82
378.467	12.78
378.675	13.05
378.884	13.61
379.093	13.62
379.301	13.5
379.51	13.79
379.718	13.74
379.927	14.48
380.135	14.37
380.344	14.63
380.552	15.14
380.761	14.95
380.969	14.53
381.177	14.45
381.386	14.75
381.594	14.53
381.803	14
382.011	14.1
382.219	13.92
382.428	14
382.636	13.75
382.845	12.98
383.053	12.65
383.261	12.52
383.469	12.24
383.678	12.35
383.886	11.97
384.094	12
384.302	12.16
384.511	11.89
384.719	11.89
384.927	11.84
385.135	11.83
385.343	11.6
385.552	11.62
385.76	11.36
385.968	11.04
386.176	11.22
386.384	11.4
386.592	11.05
386.8	11.11
387.008	11.01
387.216	10.87
387.424	11
387.633	11.61
387.841	11.7
388.049	11.75
388.257	11.76
388.465	12.1
388.672	12.11
388.88	11.94
389.088	11.69
389.296	11.62
389.504	11.6
389.712	11.57
389.92	10.94
390.128	10.55
390.336	10.96
390.544	10.82
390.751	10.5
390.959	10.24
391.167	10.66
391.375	10.54
391.583	10.46
391.79	10.71
391.998	10.68
392.206	10.93
392.414	11.43
392.621	11.09
392.829	11.3
393.037	11.39
393.244	11.58
393.452	11
393.66	11.18
393.867	11.07
394.075	10.92
394.283	10.36
394.49	10.24
394.698	10.06
394.905	10.1
395.113	10
395.32	9.96
395.528	9.87
395.735	9.89
395.943	9.47
396.15	9.36
396.358	9.38
396.565	9.64
396.773	9.49
396.98	9.56
397.188	9.54
397.395	9.59
397.602	9.67
397.81	9.5
398.017	9.45
398.225	9.92
398.432	10.06
398.639	9.8
398.847	9.61
399.054	9.73
399.261	9.33
399.468	9.11
399.676	8.96
399.883	8.89
400.09	8.83
400.297	9.03
400.505	8.76
400.712	8.61
400.919	8.74
401.126	9.29
401.333	9.07
401.54	9.07
401.748	9.09
401.955	8.97
402.162	8.77
402.369	8.59
402.576	8.72
402.783	8.56
402.99	8.6
403.197	8.59
403.404	8.4
403.611	8.55
403.818	8.47
404.025	8.81
404.232	8.69
404.439	8.5
404.646	8.54
404.853	8.43
405.06	8.71
405.267	8.49
405.474	8.34
405.681	8.29
405.887	8.32
406.094	8.39
406.301	8.31
406.508	8.16
406.715	8.53
406.922	8.83
407.128	8.23
407.335	8.08
407.542	7.93
407.749	7.92
407.955	7.92
408.162	7.93
408.369	7.95
408.575	7.79
408.782	8.14
408.989	8.2
409.195	7.95
409.402	8.49
409.609	8.31
409.815	8.46
410.022	8.37
410.228	8.45
410.435	8.32
410.642	8.42
410.848	8.29
411.055	8.08
411.261	7.95
411.468	7.96
411.674	8.02
411.881	8.03
412.087	8.11
412.294	8.36
412.5	8.32
412.706	8.35
412.913	8.2
413.119	8.31
413.326	8.02
413.532	7.79
413.738	7.9
413.945	7.77
414.151	7.91
414.357	8.04
414.564	7.74
414.77	7.7
414.976	7.93
415.182	7.72
415.389	8.06
415.595	8.28
415.801	8.24
416.007	8.14
416.214	8.25
416.42	8.15
416.626	7.91
416.832	8.03
417.038	7.74
417.244	7.66
417.45	8.03
417.657	7.64
417.863	7.55
418.069	7.56
418.275	7.63
418.481	7.57
418.687	7.45
418.893	7.57
419.099	7.62
419.305	7.7
419.511	7.65
419.717	7.55
419.923	7.68
420.129	7.77
420.335	7.87
420.541	7.8
420.746	7.84
420.952	7.82
421.158	7.87
421.364	7.74
421.57	7.81
421.776	7.74
421.982	7.7
422.187	7.53
422.393	7.44
422.599	7.42
422.805	7.49
423.01	7.26
423.216	7.36
423.422	7.24
423.628	7.28
423.833	7.33
424.039	7.26
424.245	7.26
424.45	7.29
424.656	7.39
424.862	7.21
425.067	7.02
425.273	7.12
425.478	7.01
425.684	7.09
425.889	6.92
426.095	6.84
426.301	6.84
426.506	6.76
426.712	6.65
426.917	6.48
427.123	6.83
427.328	6.96
427.533	6.87
427.739	6.87
427.944	6.63
428.15	6.89
428.355	6.79
428.561	6.77
428.766	6.65
428.971	6.76
429.177	6.87
429.382	6.29
429.587	6.08
429.793	6.18
429.998	6.01
430.203	6.01
430.408	5.89
430.614	5.89
430.819	5.85
431.024	5.74
431.229	5.69
431.434	5.69
431.64	5.84
431.845	6.02
432.05	6
432.255	6.38
432.46	6.46
432.665	6.5
432.87	6.63
433.076	6.73
433.281	6.92
433.486	7.05
433.691	7.07
433.896	7.07
434.101	6.99
434.306	7.08
434.511	6.95
434.716	6.88
434.921	6.91
435.126	6.79
435.331	6.67
435.535	6.67
435.74	6.46
435.945	6.39
436.15	6.24
436.355	6.28
436.56	6.2
436.765	5.94
436.97	6.08
437.174	6
437.379	6.28
437.584	6.33
437.789	6.31
437.993	6.4
438.198	6.49
438.403	6.73
438.608	6.86
438.812	7
439.017	7.26
439.222	7.27
439.426	7.25
439.631	7.19
439.836	7.36
440.04	7.55
440.245	7.53
440.45	7.43
440.654	7.26
440.859	7.08
441.063	6.92
441.268	6.76
441.472	6.71
441.677	6.68
441.881	6.55
442.086	6.68
442.29	6.38
442.495	6.43
442.699	6.54
442.904	6.56
443.108	6.75
443.312	6.84
443.517	6.84
443.721	6.91
443.925	6.99
444.13	6.8
444.334	6.48
444.538	6.47
444.743	6.37
444.947	6.43
445.151	6.28
445.356	6.06
445.56	5.98
445.764	6.13
445.968	6.06
446.173	5.97
446.377	6.1
446.581	6.06
446.785	6.14
446.989	6.14
447.193	6.02
447.398	6.18
447.602	6.31
447.806	6.28
448.01	6.32
448.214	6.27
448.418	6.31
448.622	6.29
448.826	6.48
449.03	6.41
449.234	6.42
449.438	6.42
449.642	6.5
449.846	6.41
450.05	6.51
450.254	6.47
450.458	6.67
450.662	6.62
450.866	6.56
451.069	6.3
451.273	6.33
451.477	6.24
451.681	6.3
451.885	6.25
452.089	6.23
452.292	6.15
452.496	6.14
452.7	6.04
452.904	6.09
453.107	6.03
453.311	6.08
453.515	6.07
453.719	6.18
453.922	6.09
454.126	5.89
454.33	6
454.533	6.11
454.737	6.15
454.94	6.01
455.144	6
455.348	6.13
455.551	6.23
455.755	6.3
455.958	6.11
456.162	6.01
456.365	6.37
456.569	6.58
456.772	6.5
456.976	6.38
457.179	6.48
457.383	6.47
457.586	6.54
457.79	6.3
457.993	6.1
458.196	6.35
458.4	6.58
458.603	6.43
458.807	6.47
459.01	6.45
459.213	6.41
459.417	6.52
459.62	6.42
459.823	6.25
460.026	6.41
460.23	6.5
460.433	6.44
460.636	6.45
460.839	6.54
461.042	6.28
461.246	6.37
461.449	6.41
461.652	6.37
461.855	6.54
462.058	6.62
462.261	6.6
462.464	6.43
462.668	6.27
462.871	5.97
463.074	5.83
463.277	5.96
463.48	5.79
463.683	5.76
463.886	5.64
464.089	5.5
464.292	5.47
464.495	5.6
464.698	5.65
464.901	5.85
465.104	5.86
465.306	5.7
465.509	5.62
465.712	5.91
465.915	5.91
466.118	5.9
466.321	6.04
466.524	6.19
466.726	6.28
466.929	6.51
467.132	6.27
467.335	6.41
467.538	6.65
467.74	6.62
467.943	6.5
468.146	6.69
468.348	6.86
468.551	6.85
468.754	6.82
468.956	6.63
469.159	6.56
469.362	6.62
469.564	6.74
469.767	6.74
469.969	6.63
470.172	6.36
470.375	6.28
470.577	5.97
470.78	6
470.982	6.02
471.185	6.1
471.387	6.12
471.59	6.24
471.792	6.11
471.995	6
472.197	6.13
472.399	6.38
472.602	6.3
472.804	6.72
473.007	6.81
473.209	6.77
473.411	6.74
473.614	6.62
473.816	6.61
474.018	6.58
474.22	6.71
474.423	6.9
474.625	6.82
474.827	6.89
475.03	6.61
475.232	6.4
475.434	6.45
475.636	6.36
475.838	6.57
476.04	6.68
476.243	6.79
476.445	6.72
476.647	6.52
476.849	6.59
477.051	6.41
477.253	6.46
477.455	6.54
477.657	6.56
477.859	6.7
478.061	6.6
478.263	6.41
478.465	6.28
478.667	6.25
478.869	6.22
479.071	6.01
479.273	6.08
479.475	5.83
479.677	5.69
479.879	5.53
480.081	5.35
480.283	5.53
480.485	5.64
480.686	5.65
480.888	5.64
481.09	5.76
481.292	6
481.494	5.95
481.695	6.06
481.897	6.34
482.099	6.39
482.301	6.41
482.502	6.41
482.704	6.48
482.906	6.49
483.107	6.53
483.309	6.49
483.511	6.41
483.712	6.46
483.914	6.54
484.115	6.5
484.317	6.52
484.519	6.59
484.72	6.56
484.922	6.53
485.123	6.53
485.325	6.55
485.526	6.56
485.728	6.56
485.929	6.54
486.131	6.47
486.332	6.45
486.534	6.39
486.735	6.32
486.936	6.28
487.138	6.34
487.339	6.39
487.541	6.31
487.742	6.26
487.943	6.36
488.144	6.32
488.346	6.34
488.547	6.26
488.748	6.29
488.95	6.32
489.151	6.31
489.352	6.25
489.553	6.2
489.755	6.25
489.956	6.25
490.157	6.13
490.358	6.12
490.559	6.21
490.76	6.28
490.961	6.27
491.163	6.18
491.364	6.16
491.565	6.11
491.766	6.07
491.967	6.05
492.168	6.16
492.369	6.21
492.57	6.27
492.771	6.09
492.972	6.11
493.173	6.02
493.374	6.03
493.575	6.01
493.776	6.02
493.976	6.13
494.177	6.08
494.378	5.89
494.579	5.83
494.78	5.83
494.981	6.01
495.182	6
495.382	6.11
495.583	6.06
495.784	6.1
495.985	6.13
496.185	5.89
496.386	5.98
496.587	6.03
496.788	6.05
496.988	5.94
497.189	6
497.39	6.07
497.59	6.07
497.791	6.15
497.992	6.17
498.192	6.09
498.393	6.27
498.593	6.27
498.794	6.38
498.994	6.37
499.195	6.47
499.395	6.38
499.596	6.42
499.796	6.44
499.997	6.39
500.197	6.55
500.398	6.78
500.598	6.83
500.799	6.84
500.999	6.87
501.199	6.97
501.4	7.01
501.6	7.03
501.801	6.94
502.001	6.95
502.201	7.23
502.402	7.17
502.602	6.98
502.802	6.99
503.002	7.12
503.203	7.2
503.403	7.08
503.603	7.02
503.803	7.16
504.003	7.31
504.204	7.35
504.404	7.31
504.604	7.31
504.804	7.63
505.004	7.73
505.204	7.77
505.404	7.84
505.604	7.89
505.804	7.9
506.005	7.87
506.205	7.81
506.405	7.97
506.605	8.03
506.805	7.97
507.005	7.84
507.204	7.81
507.404	7.8
507.604	7.9
507.804	7.98
508.004	8.02
508.204	8.05
508.404	8.24
508.604	8.05
508.804	8.08
509.003	8.22
509.203	8.38
509.403	8.52
509.603	8.61
509.803	8.42
510.002	8.42
510.202	8.54
510.402	8.56
510.602	8.52
510.801	8.5
511.001	8.43
511.201	8.52
511.4	8.54
511.6	8.6
511.8	8.59
511.999	8.65
512.199	8.9
512.398	8.98
512.598	9.1
512.797	9.03
512.997	9.19
513.197	9.39
513.396	9.36
513.596	9.28
513.795	9.1
513.994	9.15
514.194	9.21
514.393	9.25
514.593	9.33
514.792	9.27
514.992	9.5
515.191	9.69
515.39	9.64
515.59	9.74
515.789	9.85
515.988	9.98
516.188	10.06
516.387	10.27
516.586	10.24
516.786	10.13
516.985	10.22
517.184	10.15
517.383	10.19
517.582	10.18
517.782	10.24
517.981	10.43
518.18	10.62
518.379	10.52
518.578	10.4
518.777	10.42
518.976	10.59
519.176	10.67
519.375	10.75
519.574	10.72
519.773	10.7
519.972	10.65
520.171	10.61
520.37	10.48
520.569	10.6
520.768	10.58
520.967	10.66
521.166	10.78
521.365	10.74
521.564	10.71
521.762	10.92
521.961	11.07
522.16	11.22
522.359	11.06
522.558	11.26
522.757	11.29
522.956	11.54
523.154	11.56
523.353	11.45
523.552	11.57
523.751	11.69
523.949	11.67
524.148	11.83
524.347	11.87
524.546	12.16
524.744	12.1
524.943	12.11
525.142	12.26
525.34	12.27
525.539	12.36
525.737	12.3
525.936	12.35
526.135	12.41
526.333	12.37
526.532	12.44
526.73	12.44
526.929	12.61
527.127	12.77
527.326	12.77
527.524	12.83
527.723	12.86
527.921	12.93
528.12	12.97
528.318	13
528.516	13.07
528.715	13.07
528.913	13.14
529.112	13.1
529.31	13.11
529.508	13.17
529.707	13.21
529.905	13.29
530.103	13.35
530.301	13.38
530.5	13.45
530.698	13.47
530.896	13.55
531.094	13.52
531.293	13.6
531.491	13.65
531.689	13.66
531.887	13.72
532.085	13.73
532.283	13.86
532.481	13.87
532.68	13.85
532.878	14.01
533.076	14.04
533.274	14.13
533.472	14.17
533.67	14.18
533.868	14.21
534.066	14.25
534.264	14.37
534.462	14.45
534.66	14.53
534.858	14.53
535.056	14.52
535.253	14.61
535.451	14.65
535.649	14.69
535.847	14.74
536.045	14.9
536.243	14.94
536.441	14.83
536.638	14.75
536.836	14.82
537.034	15.09
537.232	15.09
537.43	15.21
537.627	15.24
537.825	15.23
538.023	15.36
538.22	15.26
538.418	15.38
538.616	15.45
538.813	15.51
539.011	15.49
539.209	15.41
539.406	15.64
539.604	15.7
539.801	15.7
539.999	15.8
540.196	15.98
540.394	16.05
540.591	16.11
540.789	16.17
540.986	16.22
541.184	16.39
541.381	16.49
541.579	16.45
541.776	16.43
541.974	16.56
542.171	16.56
542.368	16.56
542.566	16.62
542.763	16.64
542.96	16.74
543.158	16.92
543.355	16.95
543.552	16.98
543.75	17.11
543.947	17.27
544.144	17.37
544.341	17.57
544.539	17.65
544.736	17.8
544.933	17.97
545.13	18.13
545.327	18.12
545.524	18.21
545.722	18.28
545.919	18.28
546.116	18.45
546.313	18.61
546.51	18.69
546.707	18.87
546.904	18.86
547.101	18.82
547.298	18.83
547.495	18.84
547.692	18.89
547.889	18.89
548.086	18.99
548.283	18.95
548.48	18.96
548.677	19.02
548.874	18.76
549.07	18.97
549.267	19.12
549.464	19.27
549.661	19.38
549.858	19.57
550.055	19.7
550.251	19.88
550.448	19.83
550.645	19.96
550.842	20.06
551.038	20.37
551.235	20.48
551.432	20.38
551.628	20.39
551.825	20.49
552.022	20.51
552.218	20.84
552.415	20.91
552.612	21.14
552.808	21
553.005	21.13
553.201	21.17
553.398	21.11
553.594	21.27
553.791	21.45
553.987	21.57
554.184	21.64
554.38	21.29
554.577	21.39
554.773	21.38
554.97	21.61
555.166	21.66
555.362	21.75
555.559	21.92
555.755	22.12
555.952	22.05
556.148	21.98
556.344	22.06
556.541	22.46
556.737	22.56
556.933	22.82
557.129	22.93
557.326	22.98
557.522	22.87
557.718	22.98
557.914	22.83
558.11	23.03
558.307	23.36
558.503	23.52
558.699	23.5
558.895	23.56
559.091	23.46
559.287	23.54
559.483	23.7
559.679	24.04
559.876	24.15
560.072	24.64
560.268	24.84
560.464	24.95
560.66	24.97
560.856	25.24
561.052	25.25
561.247	25.3
561.443	25.33
561.639	25.5
561.835	25.71
562.031	25.69
562.227	25.51
562.423	25.45
562.619	25.66
562.815	25.5
563.01	25.42
563.206	25.66
563.402	25.95
563.598	26.16
563.793	26.38
563.989	26.35
564.185	26.42
564.381	26.86
564.576	26.85
564.772	26.52
564.968	26.92
565.163	27.18
565.359	26.97
565.555	27.02
565.75	27.19
565.946	27.28
566.141	27.53
566.337	27.78
566.532	27.6
566.728	27.74
566.923	28
567.119	28.06
567.314	27.99
567.51	28.25
567.705	28.38
567.901	28.27
568.096	28.2
568.292	28.08
568.487	28.28
568.682	28.52
568.878	28.82
569.073	28.87
569.268	28.69
569.464	28.88
569.659	28.85
569.854	28.96
570.05	29.23
570.245	29.23
570.44	29.37
570.635	29.17
570.831	29.14
571.026	29.17
571.221	29.32
571.416	29.71
571.611	29.75
571.806	29.92
572.002	29.81
572.197	29.94
572.392	29.82
572.587	29.85
572.782	29.89
572.977	29.94
573.172	30
573.367	30.19
573.562	30.06
573.757	30.13
573.952	30.26
574.147	30.2
574.342	30.09
574.537	30.22
574.732	30.4
574.927	30.51
575.121	30.71
575.316	30.76
575.511	30.75
575.706	30.9
575.901	30.88
576.096	30.69
576.29	30.91
576.485	30.94
576.68	31.19
576.875	30.98
577.069	31.2
577.264	31.21
577.459	31.26
577.654	31.24
577.848	31.37
578.043	31.54
578.238	31.77
578.432	31.89
578.627	31.92
578.821	32.02
579.016	32.37
579.21	32.42
579.405	32.4
579.6	32.12
579.794	32.1
579.989	32.14
580.183	32.24
580.378	32.08
580.572	31.87
580.766	31.93
580.961	31.8
581.155	31.61
581.35	31.43
581.544	31.5
581.738	31.89
581.933	32.07
582.127	32.06
582.321	32.02
582.516	32.47
582.71	32.83
582.904	32.88
583.099	33.12
583.293	33.35
583.487	33.17
583.681	33.21
583.875	33.18
584.07	33
584.264	33.09
584.458	32.87
584.652	32.76
584.846	32.62
585.04	32.78
585.234	32.63
585.428	32.73
585.623	33.29
585.817	33.48
586.011	33.48
586.205	33.63
586.399	33.71
586.593	34.17
586.787	34.37
586.981	34.45
587.174	34.15
587.368	34.25
587.562	34.07
587.756	34.01
587.95	33.86
588.144	33.86
588.338	33.76
588.532	33.62
588.725	33.4
588.919	33.32
589.113	33.65
589.307	33.83
589.501	33.64
589.694	33.79
589.888	33.49
590.082	33.64
590.275	33.95
590.469	34.21
590.663	34.43
590.856	34.85
591.05	34.97
591.244	34.68
591.437	34.71
591.631	35.15
591.824	35.27
592.018	35.55
592.212	35.39
592.405	35.07
592.599	35.23
592.792	35.31
592.986	35.23
593.179	35.11
593.372	35.36
593.566	35.69
593.759	35.7
593.953	35.69
594.146	35.66
594.339	35.6
594.533	35.73
594.726	35.54
594.92	35.46
595.113	35.32
595.306	35.22
595.499	35.09
595.693	34.93
595.886	34.7
596.079	34.57
596.272	34.85
596.466	35.13
596.659	35.23
596.852	35.38
597.045	35.49
597.238	35.73
597.431	35.97
597.624	36.04
597.818	36.04
598.011	36.15
598.204	36.44
598.397	36.23
598.59	36.38
598.783	36.53
598.976	36.54
599.169	36.72
599.362	36.81
599.555	36.82
599.748	36.89
599.941	36.87
600.134	37.21
600.326	36.94
600.519	36.86
600.712	36.57
600.905	36.51
601.098	36.39
601.291	36.08
601.483	35.9
601.676	35.93
601.869	35.86
602.062	36.12
602.255	35.77
602.447	35.83
602.64	36.27
602.833	36.53
603.025	36.38
603.218	36.42
603.411	36.32
603.603	36.43
603.796	36.57
603.989	36.54
604.181	36.49
604.374	36.52
604.566	36.69
604.759	36.54
604.951	36.35
605.144	36.42
605.336	36.48
605.529	36.59
605.721	36.51
605.914	36.38
606.106	36.41
606.299	36.35
606.491	36.4
606.683	36.38
606.876	36.66
607.068	36.89
607.26	37.03
607.453	37.3
607.645	37.51
607.837	37.25
608.03	37.05
608.222	37.14
608.414	37.29
608.606	37.39
608.799	37.42
608.991	37.17
609.183	37.4
609.375	37.68
609.567	37.43
609.759	37.48
609.952	37.81
610.144	38.24
610.336	38.54
610.528	38.66
610.72	39.04
610.912	39.31
611.104	39.61
611.296	39.67
611.488	39.61
611.68	39.87
611.872	39.88
612.064	39.94
612.256	40.09
612.448	40.03
612.64	40.02
612.832	39.68
613.023	39.57
613.215	39.33
613.407	38.97
613.599	38.93
613.791	38.91
613.983	38.85
614.174	38.73
614.366	38.41
614.558	38.6
614.75	38.69
614.941	38.77
615.133	38.56
615.325	38.48
615.516	38.82
615.708	38.69
615.9	38.63
616.091	38.51
616.283	38.8
616.475	38.55
616.666	38.28
616.858	37.9
617.049	37.76
617.241	38
617.432	37.97
617.624	37.65
617.815	37.52
618.007	37.32
618.198	37.56
618.39	37.46
618.581	37.51
618.773	37.6
618.964	37.72
619.155	37.56
619.347	37.53
619.538	37.56
619.729	37.95
619.921	38.11
620.112	38.24
620.303	37.78
620.494	37.61
620.686	37.9
620.877	37.83
621.068	38.12
621.259	38.55
621.451	38.2
621.642	38.44
621.833	37.66
622.024	37.41
622.215	37.44
622.406	37.8
622.597	37.96
622.788	37.84
622.98	37.97
623.171	37.77
623.362	37.81
623.553	37.75
623.744	37.48
623.935	38.28
624.126	38.28
624.317	38.3
624.508	38.11
624.698	38.05
624.889	38.05
625.08	37.61
625.271	37.81
625.462	37.83
625.653	38.24
625.844	38.32
626.034	38.17
626.225	38.62
626.416	38.54
626.607	38.63
626.798	38.35
626.988	38.65
627.179	38.87
627.37	38.92
627.56	38.68
627.751	38.53
627.942	38.5
628.132	38.45
628.323	38.37
628.514	38.47
628.704	38.5
628.895	38.64
629.085	38.27
629.276	38.4
629.466	38.46
629.657	38.6
629.847	38.82
630.038	38.85
630.228	39.03
630.419	38.97
630.609	39.35
630.8	39.5
630.99	39.49
631.181	39.58
631.371	39.66
631.561	39.23
631.752	39.6
631.942	39.38
632.132	39.5
632.323	39.22
632.513	39.4
632.703	39.03
632.893	38.78
633.084	39.07
633.274	38.77
633.464	38.55
633.654	38.79
633.844	38.26
634.034	38.24
634.225	38.45
634.415	38.39
634.605	38.22
634.795	38.05
634.985	37.95
635.175	37.78
635.365	38.02
635.555	38.14
635.745	37.78
635.935	37.89
636.125	37.69
636.315	37.34
636.505	37.42
636.695	36.91
636.885	37.12
637.075	37.29
637.265	37.17
637.455	37.31
637.644	36.81
637.834	36.99
638.024	37.23
638.214	37.51
638.404	37.88
638.593	38.04
638.783	38.45
638.973	38.29
639.163	38.5
639.352	38.64
639.542	38.87
639.732	38.92
639.921	39.12
640.111	38.86
640.301	39.03
640.49	38.79
640.68	38.46
640.87	38.42
641.059	38.68
641.249	38.28
641.438	37.82
641.628	37.49
641.817	38.04
642.007	38.18
642.196	38.49
642.386	38.44
642.575	38.63
642.764	38.88
642.954	38.95
643.143	38.41
643.333	38.45
643.522	38.91
643.711	38.98
643.901	38.82
644.09	38.52
644.279	38.17
644.469	38.05
644.658	37.79
644.847	37.81
645.036	38.05
645.226	38.47
645.415	39.12
645.604	39.64
645.793	39.59
645.982	39.81
646.171	39.8
646.361	39.82
646.55	39.74
646.739	39.71
646.928	39.43
647.117	39.23
647.306	39.03
647.495	38.69
647.684	38.13
647.873	37.86
648.062	37.83
648.251	38.35
648.44	38.44
648.629	38.43
648.818	38.58
649.007	38.9
649.196	38.73
649.384	38.91
649.573	38.9
649.762	39.3
649.951	39.55
650.14	39.37
650.328	39.15
650.517	39.06
650.706	38.83
650.895	38.77
651.083	38.67
651.272	39.07
651.461	39.12
651.65	39
651.838	38.66
652.027	38.88
652.216	39.04
652.404	38.62
652.593	38.8
652.781	39.37
652.97	39.62
653.158	39.38
653.347	39.4
653.535	39.22
653.724	39.33
653.912	39.44
654.101	39.2
654.289	39.21
654.478	39.58
654.666	39.66
654.855	39.33
655.043	38.85
655.231	39.05
655.42	38.36
655.608	38.85
655.796	38.78
655.985	38.94
656.173	39.05
656.361	38.65
656.55	38.56
656.738	38.28
656.926	39.16
657.114	39.45
657.302	39.54
657.491	40
657.679	39.54
657.867	39.71
658.055	39.52
658.243	39.22
658.431	39.35
658.619	39.46
658.807	39.56
658.996	38.92
659.184	38.58
659.372	38.54
659.56	38.6
659.748	38.66
659.936	38.49
660.124	38.36
660.311	38.69
660.499	38.69
660.687	38.6
660.875	38.39
661.063	38.69
661.251	39.21
661.439	39.23
661.627	38.88
661.814	39.13
662.002	39.5
662.19	39.83
662.378	39.6
662.565	39.82
662.753	39.62
662.941	39.66
663.129	39.33
663.316	38.99
663.504	39
663.692	39.23
663.879	39.04
664.067	38.89
664.254	38.71
664.442	38.68
664.63	38.75
664.817	38.69
665.005	39.42
665.192	39.49
665.38	39.21
665.567	39.47
665.755	39.35
665.942	38.9
666.13	38.41
666.317	38.25
666.504	38.11
666.692	37.8
666.879	37.64
667.067	37.35
667.254	37.15
667.441	37.48
667.629	37.12
667.816	37.51
668.003	37.91
668.19	38.62
668.378	39
668.565	39.39
668.752	39.43
668.939	39.7
669.127	39.92
669.314	40.11
669.501	40.24
669.688	40.71
669.875	40.54
670.062	40.3
670.249	39.85
670.436	39.53
670.623	39.44
670.81	39.62
670.997	39.79
671.184	39.18
671.371	38.84
671.558	38.91
671.745	38.55
671.932	38.78
672.119	39.11
672.306	39.25
672.493	39.19
672.68	38.66
672.867	38.55
673.054	38.67
673.24	39.44
673.427	39.61
673.614	39
673.801	39.41
673.988	39.23
674.174	39.04
674.361	39.23
674.548	39.4
674.734	40.09
674.921	40.51
675.108	40.16
675.294	39.51
675.481	39.7
675.668	39.99
675.854	39.84
676.041	39.49
676.227	39.9
676.414	39.85
676.601	40.09
676.787	40.09
676.974	39.67
677.16	39.57
677.347	39.36
677.533	39.22
677.719	39.01
677.906	38.6
678.092	39.03
678.279	38.82
678.465	38.59
678.651	38.09
678.838	38.15
679.024	37.97
679.21	38.02
679.397	38.49
679.583	38.78
679.769	39.31
679.955	39.47
680.142	39.28
680.328	39.44
680.514	39.46
680.7	39.7
680.886	39.48
681.073	39.55
681.259	39.42
681.445	39.28
681.631	39.4
681.817	39.04
682.003	38.51
682.189	38.37
682.375	38.21
682.561	38.26
682.747	38.71
682.933	38.58
683.119	38.76
683.305	39.13
683.491	39.03
683.677	38.54
683.863	38.5
684.049	38.87
684.235	39.03
684.42	39.28
684.606	39.44
684.792	39.28
684.978	39.72
685.164	40.02
685.349	39.79
685.535	40.01
685.721	40.1
685.907	40.43
686.092	40.99
686.278	40.86
686.464	40.51
686.649	40.17
686.835	40.49
687.021	40.29
687.206	39.84
687.392	40.03
687.577	39.53
687.763	39.69
687.948	39.78
688.134	39.13
688.319	39.16
688.505	39.25
688.69	39.35
688.876	38.43
689.061	38.08
689.247	38.45
689.432	38.54
689.618	39.2
689.803	38.9
689.988	38.69
690.174	39.11
690.359	39.49
690.544	39.17
690.73	38.91
690.915	39.3
691.1	39.62
691.285	39.09
691.471	39.48
691.656	38.99
691.841	39.76
692.026	39.43
692.211	39.64
692.396	39.61
692.582	40.3
692.767	40.73
692.952	40.55
693.137	40.04
693.322	40.08
693.507	39.71
693.692	39.77
693.877	39.46
694.062	39.67
694.247	39.18
694.432	38.93
694.617	38.55
694.802	39.32
694.987	39.44
695.172	39.97
695.357	40.01
695.541	40.04
695.726	40.06
695.911	39.64
696.096	40.03
696.281	40.02
696.466	39.71
696.65	39.77
696.835	39.4
697.02	39.48
697.204	39.68
697.389	40.03
697.574	39.7
697.759	39.87
697.943	39.71
698.128	39.88
698.312	40.01
698.497	40.05
698.682	39.87
698.866	39.87
699.051	39.88
699.235	39.9
699.42	39.81
699.604	39.81
699.789	39.61
699.973	39.64
700.158	39.29
700.342	39.52
700.527	39.86
700.711	40.54
700.895	40.23
701.08	40.18
701.264	40.26
701.448	40.28
701.633	40.9
701.817	40.51
702.001	41.07
702.186	41.2
702.37	40.71
702.554	40.15
702.738	39.44
702.923	40.34
703.107	40.43
703.291	40.34
703.475	40.42
703.659	40.59
703.843	41.78
704.027	41.44
704.212	41.23
704.396	42.38
704.58	42.64
704.764	43.01
704.948	42.01
705.132	42.43
705.316	42.18
705.5	42.04
705.684	41.72
705.868	41.32
706.052	41.56
706.235	41.82
706.419	41.43
706.603	41.92
706.787	40.95
706.971	41.21
707.155	40.77
707.339	40.85
707.522	40.82
707.706	40.54
707.89	40.3
708.074	39.98
708.257	39.63
708.441	38.81
708.625	37.66
708.808	38.65
708.992	38.32
709.176	38.78
709.359	38.16
709.543	38.48
709.727	38.01
709.91	38.35
710.094	38.9
710.277	38.86
710.461	39.35
710.644	40.22
710.828	39.99
711.011	40.38
711.195	40.67
711.378	41.36
711.562	41.11
711.745	41.37
711.928	41.45
712.112	41.34
712.295	41.8
712.478	41.32
712.662	40.94
712.845	39.7
713.028	39.67
713.212	39
713.395	38.38
713.578	37.94
713.761	38.19
713.945	37.77
714.128	37.66
714.311	37.03
714.494	37.54
714.677	38.19
714.86	38.88
715.043	38.38
715.227	38.51
715.41	39.11
715.593	39.66
715.776	39.94
715.959	39.67
716.142	39.56
716.325	40.31
716.508	40.23
716.691	39.86
716.874	39.99
717.057	40.64
717.239	40.33
717.422	39.98
717.605	40.07
717.788	39.38
717.971	38.88
718.154	38.22
718.337	38.17
718.519	37.89
718.702	38.16
718.885	39.14
719.068	38.61
719.25	38.15
719.433	38.26
719.616	37.97
719.798	37.98
719.981	39.18
720.164	39.69
720.346	38.79
720.529	38.34
720.712	36.71
720.894	36.38
721.077	36.7
721.259	37.31
721.442	36.99
721.624	36.31
721.807	36.4
721.989	36.72
722.172	36.89
722.354	36.5
722.537	36.94
722.719	38.25
722.901	38.11
723.084	38.08
723.266	37.91
723.448	38.61
723.631	39.02
723.813	39.17
723.995	38.67
724.178	38.29
724.36	39.36
724.542	39.04
724.724	38.93
724.907	38.96
725.089	38.88
725.271	39.24
725.453	39.31
725.635	39.36
725.817	39.36
725.999	39.01
726.181	39.51
726.364	39.96
726.546	40.25
726.728	40.16
726.91	39.92
727.092	40.17
727.274	39.56
727.456	38.92
727.638	38.82
727.819	38.6
728.001	39.5
728.183	39.72
728.365	38.95
728.547	39.34
728.729	39.81
728.911	39.18
729.093	39.45
729.274	39.93
729.456	40.09
729.638	39.48
729.82	39.96
730.001	39.93
730.183	39.98
730.365	40.58
730.546	40.77
730.728	40.3
730.91	40.39
731.091	39.61
731.273	39.7
731.455	40.56
731.636	41.98
731.818	41.63
731.999	41.79
732.181	40.99
732.362	40.66
732.544	39.71
732.725	40.4
732.907	40.72
733.088	40.95
733.27	40.62
733.451	40.44
733.633	39.24
733.814	40.02
733.995	39.13
734.177	39.23
734.358	39.85
734.539	40.13
734.721	39.69
734.902	39.5
735.083	39.3
735.264	39.53
735.446	38.95
735.627	38.88
735.808	38.74
735.989	38.48
736.17	38.49
736.351	37.7
736.533	38.24
736.714	39.46
736.895	40.44
737.076	40.33
737.257	40.89
737.438	40.86
737.619	40.94
737.8	40.41
737.981	40.19
738.162	40.08
738.343	39.73
738.524	38.69
738.705	37.61
738.886	36.67
739.067	36.99
739.247	36.25
739.428	34.87
739.609	35.86
739.79	35.52
739.971	36.4
740.151	35.9
740.332	36.77
740.513	37.54
740.694	36.42
740.874	37.03
741.055	37.64
741.236	38.23
741.417	39.5
741.597	39.11
741.778	39.94
741.958	40.32
742.139	41.7
742.32	41.23
742.5	40.74
742.681	41.38
742.861	41.17
743.042	40.31
743.222	39.42
743.403	39.8
743.583	40.89
743.764	39.64
743.944	38.92
744.124	37.85
744.305	37.69
744.485	37.77
744.666	38.81
744.846	38.22
745.026	38.69
745.207	38.58
745.387	38.98
745.567	36.87
745.747	37.98
745.928	37.49
746.108	38.99
746.288	40.07
746.468	40.91
746.648	41.66
746.829	43.49
747.009	42.66
747.189	42.56
747.369	42.54
747.549	43.87
747.729	43.85
747.909	44.25
748.089	43.21
748.269	42.55
748.449	41.27
748.629	39.63
748.809	38.6
748.989	37.74
749.169	37.64
749.349	36.15
749.529	36.23
749.709	36.95
749.889	37.79
750.068	37.18
750.248	36.99
750.428	37.89
750.608	38.03
750.788	38.03
750.967	39.92
751.147	40.88
751.327	40.18
751.507	40.63
751.686	39.15
751.866	38.59
752.046	39.06
752.225	37.9
752.405	38.84
752.585	38.01
752.764	37.11
752.944	37.19
753.123	36.2
753.303	37.37
753.482	35.6
753.662	36.1
753.841	36.7
754.021	36.25
754.2	37.55
754.38	36.96
754.559	37.37
754.739	37
754.918	35.91
755.097	36.47
755.277	36.99
755.456	37.18
755.635	36.52
755.815	35.2
755.994	35.93
756.173	36.15
756.352	35.29
756.532	34.98
756.711	36.22
756.89	35.57
757.069	36.21
757.248	36.37
757.427	36.99
757.607	37.61
757.786	38.31
757.965	38.82
758.144	37.64
758.323	37.68
758.502	38.24
758.681	38.45
758.86	40.04
759.039	39.67
759.218	39.6
759.397	39.79
759.576	39.54
759.755	39.37
759.934	39.37
760.113	39.93
760.291	40.49
760.47	39.83
760.649	38.83
760.828	38.14
761.007	37.97
761.186	36.85
761.364	36.54
761.543	37.1
761.722	37.49
761.901	36.59
762.079	36.77
762.258	37.28
762.437	37.86
762.615	38.49
762.794	39.2
762.972	39.43
763.151	40.16
763.33	40.23
763.508	39.72
763.687	39.19
763.865	39.76
764.044	39.77
764.222	38.83
764.401	39.11
764.579	39.4
764.758	38.51
764.936	38.36
765.114	38.61
765.293	38.75
765.471	39.03
765.65	39.3
765.828	38.27
766.006	38.33
766.184	38.39
766.363	37.77
766.541	36.99
766.719	37.55
766.898	37.41
767.076	36.45
767.254	36.22
767.432	35.97
767.61	36.22
767.788	37.19
767.967	35.75
768.145	37.31
768.323	36.57
768.501	35.97
768.679	35.76
768.857	35.73
769.035	34.97
769.213	34.59
769.391	35.61
769.569	35
769.747	34.67
769.925	37.58
770.103	37.13
770.281	38.54
770.459	39.4
770.636	40.94
770.814	41.01
770.992	41.93
771.17	42.71
771.348	41.2
771.525	41.97
771.703	43.15
771.881	42.24
772.059	41.79
772.236	41.96
772.414	42.7
772.592	39.65
772.769	38.96
772.947	40.4
773.125	39.47
773.302	39.03
773.48	39.78
773.657	37.81
773.835	37.92
774.013	35.32
774.19	35.6
774.368	35.32
774.545	37.13
774.723	36.91
774.9	35.84
775.077	35.63
775.255	35.78
775.432	34.77
775.61	34.46
775.787	34.39
775.964	36.21
776.142	34.84
776.319	34.73
776.496	33.58
776.674	33.09
776.851	34.92
777.028	34.51
777.205	36.26
777.382	35.77
777.56	35.55
777.737	33.03
777.914	34.38
778.091	32.59
778.268	33.88
778.445	34.74
778.622	37
778.8	35.68
778.977	35.94
779.154	3.55
779.331	2.63
779.508	4.75
779.685	7.97
779.862	6.96
780.038	10.97
780.215	9.43
780.392	8.86
780.569	7.42
780.746	8.11
780.923	6.93
781.1	39.76
781.277	39.85
781.453	37.18
781.63	36.42
781.807	35.76
781.984	34.86
782.16	34.58
782.337	35.12
782.514	34.82
782.691	34.39
782.867	35.98
783.044	32.8
783.221	31.1
783.397	32.71
783.574	32.29
783.75	32.62
783.927	29.63
784.103	30.1
784.28	29.2
784.456	28.76
784.633	25.86
784.809	24.89
784.986	29.32
785.162	31.4
785.339	31.32
785.515	31.46
785.692	31.6
785.868	35
786.044	36.46
786.221	35.71
786.397	37.67
786.573	39.72
786.749	41.42
786.926	39.39
787.102	37.93
787.278	39.17
787.454	40.77
787.631	40.61
787.807	40.56
787.983	38.9
788.159	41.04
788.335	38.81
788.511	38.49
788.687	35.67
788.863	35.76
789.039	34.59
789.216	31.94
789.392	29.45
789.568	29.5
789.744	26.82
789.919	28.33
790.095	28.08
790.271	28.86
790.447	28.26
790.623	31.73
790.799	32.18
790.975	33.13
791.151	34.9
791.327	35.59
791.502	36.29
791.678	39.17
791.854	37.69
792.03	36.85
792.205	36.44
792.381	38.16
792.557	36.86
792.733	38.46
792.908	40.05
793.084	40.79
793.259	40.86
793.435	40.41
793.611	39.78
793.786	41.63
793.962	44.02
794.137	44.4
794.313	42.84
794.488	41
794.664	37.71
794.839	36.53
795.015	34.15
795.19	34.55
795.366	36.25
795.541	37.02
795.716	34.08
795.892	32.91
796.067	32.26
796.242	33.71
796.418	37.65
796.593	35.96
796.768	33.87
796.944	33.87
797.119	33.13
797.294	33.61
797.469	31.6
797.644	33.88
797.82	33.82
797.995	35.36
798.17	34.37
798.345	30.68
798.52	33.52
798.695	36.23
798.87	37.36
799.045	37.26
799.22	33.41
799.395	34.87
799.57	31.14
799.745	30.82
799.92	27.52
800.095	27.18
800.27	30.1
800.445	29.17
800.62	28.31
800.795	29.25
800.97	29.46
801.145	29.49
801.319	27.51
801.494	28.62
801.669	26.36
801.844	32.17
802.018	33.09
802.193	32.39
802.368	33.45
802.543	31.73
802.717	32.99
802.892	32.73
803.067	33.29
803.241	35.24
803.416	35.29
803.59	37.64
803.765	34.77
803.94	36.19
804.114	34.58
804.289	35.28
804.463	37.74
804.638	39.46
804.812	40.85
804.986	43.12
805.161	40.49
805.335	41.95
805.51	41.01
805.684	41.1
805.858	39.95
806.033	40.38
806.207	40.51
806.381	39.64
806.556	34.93
806.73	33.92
806.904	33.34
807.078	34.47
807.253	32.6
807.427	33.84
807.601	32.35
807.775	34.88
807.949	34.06
808.123	32.31
808.298	32.96
808.472	34.76
808.646	35.62
808.82	32.13
808.994	32.82
809.168	34.4
809.342	31.04
809.516	33.64
809.69	31.73
809.864	33.05
810.038	33.67
810.212	33.6
810.385	28.89
810.559	30.27
810.733	35.06
810.907	34.87
811.081	34.56
811.255	36.11
811.428	35.19
811.602	29.07
811.776	26.89
811.95	29.32
812.123	33.62
812.297	37.34
812.471	34.5
812.644	30.58
812.818	30.13
812.992	29.1
813.165	29.1
813.339	28.6
813.512	36.16
813.686	40.8
813.86	38.85
814.033	38.96
814.207	40.05
814.38	40.9
814.554	41.98
814.727	43.99
814.9	42.86
815.074	43.19
815.247	40.6
815.421	41.31
815.594	38.48
815.767	37.71
815.941	29.24
816.114	23.04
816.287	26.92
816.46	29.62
816.634	26
816.807	29.68
816.98	28.32
817.153	30.48
817.327	26.23
817.5	26.14
817.673	26.37
817.846	31.87
818.019	36.61
818.192	31.84
818.365	23.32
818.538	26.51
818.711	28.42
818.884	31.15
819.057	32.19
819.23	35.09
819.403	36.84
819.576	37.08
819.749	35.08
819.922	36.9
820.095	37.1
820.268	43.22
820.441	41.14
820.614	38.29
820.786	38.42
820.959	38.43
821.132	37.54
821.305	38.06
821.477	38.4
821.65	39.3
821.823	38.96
821.996	39.62
822.168	37.75
822.341	38.05
822.514	37.85
822.686	37.31
822.859	37.33
823.031	37.01
823.204	36.46
823.376	36.25
823.549	35.85
823.722	35.5
823.894	35.25
824.067	36.15
824.239	35.89
824.411	36.09
824.584	36.54
824.756	36.75
824.929	36.88
825.101	37.8
825.273	37.61
825.446	37.44
825.618	37.4
825.79	38.03
825.963	38.33
826.135	38.43
826.307	39.03
826.479	38.32
826.652	38.48
826.824	38.71
826.996	37.88
827.168	38.55
827.34	38.64
827.512	38.73
827.684	36.75
827.856	35.63
828.029	36.37
828.201	35.82
828.373	35.62
828.545	34.93
828.717	34.55
828.889	35.14
829.061	34.9
829.232	34.99
829.404	36.73
829.576	39.12
829.748	40.47
829.92	40.04
830.092	40.27
830.264	39.69
830.436	38.19
830.607	42.29
830.779	41.97
830.951	39.57
831.123	39.35
831.294	38.57
831.466	37.88
831.638	37.11
831.809	38.44
831.981	37.82
832.153	42.86
832.324	46.63
832.496	41.43
832.667	39.89
832.839	39.94
833.011	40.22
833.182	36.69
833.354	33.79
833.525	34.04
833.697	30.63
833.868	29.11
834.039	28.88
834.211	27.06
834.382	27.93
834.554	30.14
834.725	31.84
834.896	31.92
835.068	33.42
835.239	33.13
835.41	33.02
835.581	32.13
835.753	34.72
835.924	30.54
836.095	30.83
836.266	30.18
836.438	30.62
836.609	31.84
836.78	29.86
836.951	30.14
837.122	30.92
837.293	30.3
837.464	32.44
837.635	30.54
837.806	34.09
837.977	32.63
838.148	32.57
838.319	29.14
838.49	26.99
838.661	30.95
838.832	30.16
839.003	31.18
839.174	30.68
839.345	34.52
839.516	35.35
839.687	29.87
839.857	32.26
840.028	31.22
840.199	27.96
840.37	22.86
840.54	18.72
840.711	18.02
840.882	22.25
841.053	21.02
841.223	20.97
841.394	21.72
841.564	28.04
841.735	25.01
841.906	26.5
842.076	27.81
842.247	33.82
842.417	38.57
842.588	36.95
842.758	30.58
842.929	32.18
843.099	27.89
843.27	27.09
843.44	26.39
843.611	28.46
843.781	22.14
843.951	29.23
844.122	23.45
844.292	26.48
844.462	27.66
844.633	27.97
844.803	26.64
844.973	19.76
845.144	20.58
845.314	12.74
845.484	22.39
845.654	22.1
845.824	20.46
845.995	29.19
846.165	22.91
846.335	22.95
846.505	26.12
846.675	33.86
846.845	37.22
847.015	35.31
847.185	38.43
847.355	35.22
847.525	38.6
847.695	35.59
847.865	27.17
848.035	25.09
848.205	27.79
848.375	22.44
848.545	16.04
848.715	14.24
848.884	14.01
849.054	7.71
849.224	5.3
849.394	12.57
849.564	17.22
849.733	25.43
849.903	22.17
850.073	21.53
850.243	26.17
850.412	28.24
850.582	39.18
850.752	38.2
850.921	45.39
851.091	48.36
851.26	46.75
851.43	44.42
851.599	44.54
851.769	42.98
851.939	49.52
852.108	43.75
852.278	41.86
852.447	37.93
852.616	38.3
852.786	40.93
852.955	36.06
853.125	31.47
853.294	19.81
853.463	14.36
853.633	15.54
853.802	1.63
853.971	-5.36
854.141	-18.17
854.31	-31.28
854.479	-31.9
854.648	-44.97
854.818	-36.59
854.987	-29.26
855.156	-7.58
855.325	-4.76
855.494	-6.66
855.663	-9.71
855.832	2
856.001	5.6
856.171	5.07
856.34	6.02
856.509	20.66
856.678	14.64
856.847	21.21
857.016	11.5
857.185	13.82
857.353	20.07
857.522	26.26
857.691	31.59
857.86	24.22
858.029	23.9
858.198	28.93
858.367	13.22
858.535	9.3
858.704	3.87
858.873	9.38
859.042	14.86
859.21	5.77
859.379	5.77
859.548	0.69
859.717	31.29
859.885	23.17
860.054	22.37
860.222	41.42
860.391	50.66
860.56	41.34
860.728	42.92
860.897	28.67
861.065	36.68
861.234	35.82
861.402	24.99
861.571	27.09
861.739	39.32
861.908	35.2
862.076	28.35
862.244	31.48
862.413	33.9
862.581	36.38
862.749	44.14
862.918	39.36
863.086	30.1
863.254	25.13
863.423	13.54
863.591	-0.07
863.759	1.64
863.927	-1.98
864.096	2.29
864.264	7.64
864.432	11.42
864.6	-12.11
864.768	-28.9
864.936	-13.06
865.104	1.12
865.272	12.26
865.44	28.63
865.608	28.56
865.776	23.18
865.944	19.22
866.112	29.32
866.28	6.82
866.448	15.37
866.616	27.25
866.784	28.26
866.952	38.23
867.12	33.93
867.288	38.73
867.455	39.21
867.623	37.14
867.791	67.97
867.959	39.52
868.127	82.55
868.294	64.57
868.462	47.38
868.63	66.32
868.797	69.77
868.965	89.03
869.133	67.2
869.3	62.69
869.468	67.11
869.636	48.49
869.803	42.31
869.971	41.13
870.138	43.79
870.306	31.22
870.473	31.19
870.641	13.83
870.808	7.93
870.975	23.02
871.143	18.39
871.31	15.56
871.478	19.8
871.645	27.92
871.812	22.34
871.98	44.2
872.147	50.71
872.314	44.01
872.482	52.83
872.649	34.64
872.816	21.59
872.983	21.78
873.15	7.54
873.318	14.31
873.485	12.69
873.652	11.93
873.819	-17.09
873.986	4.13
874.153	-22.01
874.32	-23.19
874.487	-15.81
874.654	-20.11
874.821	-39.77
874.988	-0.46
875.155	-4.55
875.322	5.75
875.489	0.19
875.656	11.95
875.823	11.27
875.99	17.12
876.157	15.35
876.324	16.38
876.49	20.13
876.657	28.81
876.824	22.79
876.991	21.09
877.157	9.58
877.324	19.65
877.491	6.84
877.658	7.52
877.824	12.37
877.991	12.26
878.157	7.07
878.324	9.05
878.491	10.79
878.657	10.3
878.824	16.25
878.99	25.56
879.157	20.49
879.323	19.1
879.49	13.93
879.656	23.48
879.823	22.39
879.989	39.56
880.156	34.71
880.322	21.56
880.488	24.84
880.655	18.24
880.821	12.08
880.987	15.31
881.154	18.51
881.32	22.35
881.486	18.23
881.652	18.56
881.819	13.83
881.985	18.11
882.151	21.9
882.317	23.69
882.483	27
882.649	28.51
882.816	30.97
882.982	32.65
883.148	32.83
883.314	33.7
883.48	34.65
883.646	33.22
883.812	33.88
883.978	34.03
884.144	32.59
884.31	30.68
884.476	31.94
884.642	31.75
884.807	30.82
884.973	30.29
885.139	30.51
885.305	29.27
885.471	31.34
885.637	30.27
885.802	31.17
885.968	32.04
886.134	34.5
886.3	34.62
886.465	31.39
886.631	31.94
886.797	30.59
886.962	29.7
887.128	27.73
887.293	25.7
887.459	28.35
887.625	28.61
887.79	28.26
887.956	22.55
888.121	19.1
888.287	22.7
888.452	24.08
888.618	24.11
888.783	22.61
