Data from CB_016_Reflection_4.txt Node
Date: Wed Nov 11 19:09:12 EST 2015
User: robert
Spectrometer: USB4E03001
Autoset integration time: false
Trigger mode: 4
Integration Time (sec): 1.000000E-1
Scans to average: 15
Electric dark correction enabled: true
Nonlinearity correction enabled: false
Boxcar width: 5
Stray light correction enabled: false
XAxis mode: Wavelengths
Stop averaging: false
Number of Pixels in Spectrum: 3648
>>>>>Begin Spectral Data<<<<<
177.566	16.14
177.785	-90.37
178.005	23.06
178.225	54.3
178.445	-246.82
178.665	-176.44
178.885	-29.42
179.105	494.39
179.324	280.14
179.544	-54.92
179.764	-25.74
179.984	59.42
180.204	118.02
180.423	-15.32
180.643	-250.51
180.863	378.1
181.083	2515.7
181.302	645.95
181.522	-1837.72
181.742	-510.24
181.961	367.25
182.181	143.93
182.401	217.67
182.621	1291.54
182.84	199.45
183.06	192.08
183.279	223.53
183.499	645.87
183.719	565.66
183.938	304.24
184.158	848.65
184.377	-1457.91
184.597	-414.21
184.816	-366.79
185.036	-889.58
185.256	-317.06
185.475	934.98
185.695	-11403.45
185.914	374.41
186.134	266.36
186.353	329.75
186.572	427.07
186.792	321.39
187.011	292.45
187.231	203.54
187.45	215.27
187.67	216.23
187.889	2888.61
188.108	973.42
188.328	1507.06
188.547	-1137.7
188.766	-1803.7
188.986	882.81
189.205	-53840.91
189.424	1159.41
189.644	11014.05
189.863	539.71
190.082	514.74
190.302	339.34
190.521	241.58
190.74	206.4
190.959	161.75
191.178	174.84
191.398	124.32
191.617	106.53
191.836	120.73
192.055	111.34
192.274	121.84
192.494	121.59
192.713	129.47
192.932	128.03
193.151	152.05
193.37	177.43
193.589	168.37
193.808	210.53
194.027	196.09
194.246	242.4
194.465	236.38
194.685	204.52
194.904	245.08
195.123	469.95
195.342	2475.11
195.561	271.92
195.78	226.75
195.999	268.64
196.218	1293.58
196.436	-492.95
196.655	-2870.32
196.874	1176.4
197.093	1049.31
197.312	1140.07
197.531	-448.2
197.75	-601.45
197.969	-199.14
198.188	-118.14
198.407	-94.4
198.625	-336.9
198.844	-385.06
199.063	-196.68
199.282	-244.22
199.501	-151.95
199.719	-223.17
199.938	-3743.36
200.157	284.06
200.376	358.1
200.594	696.64
200.813	-27640
201.032	1768.36
201.251	401.31
201.469	438.98
201.688	396.84
201.907	332.8
202.125	257.32
202.344	151.42
202.563	190.11
202.781	183.24
203	149.14
203.218	98
203.437	115.76
203.656	85.06
203.874	73.48
204.093	65.58
204.311	72.72
204.53	58.85
204.748	63.02
204.967	109.77
205.185	91.89
205.404	104.55
205.622	124.64
205.841	109.59
206.059	178.87
206.278	200.75
206.496	123.79
206.715	204.76
206.933	337.5
207.151	203.16
207.37	234.75
207.588	277.51
207.806	389.55
208.025	523.58
208.243	572.6
208.461	248.51
208.68	231.77
208.898	329.78
209.116	311.77
209.335	258.88
209.553	-799.51
209.771	316.89
209.989	-2126.09
210.208	-1307.25
210.426	-468.86
210.644	-159.76
210.862	-86.78
211.081	-180.65
211.299	-227.58
211.517	-506.73
211.735	-420.45
211.953	-789.99
212.171	-336.97
212.39	-2030.64
212.608	-5378.52
212.826	837.16
213.044	525.3
213.262	484.53
213.48	363.98
213.698	528.17
213.916	-2324.43
214.134	-736.42
214.352	-1675.65
214.57	1162.1
214.788	361.66
215.006	412.4
215.224	295.43
215.442	212.89
215.66	189.82
215.878	222.99
216.096	203.22
216.314	161.3
216.532	175.99
216.75	159.63
216.968	140.84
217.185	195.34
217.403	228.98
217.621	238.51
217.839	311.42
218.057	5984.92
218.275	-2289.44
218.492	-275.24
218.71	-160.44
218.928	-261.17
219.146	-156.51
219.363	-112.28
219.581	-198.66
219.799	-218.96
220.017	-162.88
220.234	-136.87
220.452	-169.78
220.67	-171.37
220.887	-329.18
221.105	-227.7
221.323	-198.95
221.54	-74.55
221.758	-90.57
221.976	-89.39
222.193	-63.79
222.411	-137.02
222.629	-155.17
222.846	-123.46
223.064	-96.64
223.281	-109.43
223.499	-135.3
223.716	-174.99
223.934	-827.32
224.151	-1177.38
224.369	-626.17
224.586	323750
224.804	-1144.46
225.021	-584.88
225.239	-408.33
225.456	-318.11
225.674	-283.58
225.891	-120.76
226.108	-97.09
226.326	-61.06
226.543	-64.38
226.76	-63.27
226.978	-35.75
227.195	-40.81
227.413	-27.86
227.63	-34.24
227.847	-37.08
228.064	-24.05
228.282	-16.34
228.499	-7.38
228.716	-7.26
228.934	-4.36
229.151	-2.73
229.368	-2.26
229.585	-3.23
229.802	-1.21
230.02	0.27
230.237	2.24
230.454	2.96
230.671	2.35
230.888	-3.67
231.105	-2.8
231.323	-2.41
231.54	-2.58
231.757	-6.86
231.974	-5.98
232.191	-9.97
232.408	-4.16
232.625	-5.83
232.842	-7.45
233.059	-10.92
233.276	-4.18
233.493	-8.74
233.71	-9.18
233.927	-12.45
234.144	-8.02
234.361	-11.13
234.578	-12.13
234.795	-14.57
235.012	-21.46
235.229	-25.41
235.446	-25.23
235.663	-37.29
235.879	-28.99
236.096	-32.68
236.313	-39.71
236.53	-45.34
236.747	-33.38
236.964	-28.89
237.181	-38.33
237.397	-21.2
237.614	-19.85
237.831	-29.54
238.048	-18.16
238.264	-27.04
238.481	-23.42
238.698	-21.93
238.915	-25.41
239.131	-28.66
239.348	-39.86
239.565	-35.7
239.781	-37.48
239.998	-35.64
240.215	-28.03
240.431	-28.08
240.648	-19.76
240.865	-17.2
241.081	-15.76
241.298	-11.29
241.514	-10.1
241.731	-5.24
241.947	-3.97
242.164	-3.02
242.38	-3.44
242.597	-2.56
242.814	-2.91
243.03	-4.96
243.246	-3.84
243.463	-2.18
243.679	-1.68
243.896	-0.67
244.112	-4.45
244.329	-4.46
244.545	-4.39
244.762	-2.96
244.978	-1.7
245.194	-3.75
245.411	-2.5
245.627	-3.78
245.843	-3.55
246.06	-2.53
246.276	-2.48
246.492	0.21
246.709	0.81
246.925	0.51
247.141	-0.04
247.357	-0.41
247.574	1.42
247.79	2.87
248.006	2.18
248.222	2.36
248.439	1.39
248.655	2.2
248.871	1.17
249.087	1.14
249.303	0.31
249.519	0.95
249.736	-1.94
249.952	-3.65
250.168	-7.62
250.384	-7.61
250.6	-7.54
250.816	-7
251.032	-8.98
251.248	-7.96
251.464	-8.07
251.68	-6.49
251.896	-5.1
252.112	-2.9
252.328	-2.61
252.544	-1.74
252.76	-1.83
252.976	-2.3
253.192	-0.3
253.408	-1.46
253.624	0.32
253.84	-1.81
254.056	-3.88
254.272	-8.49
254.487	-7.07
254.703	-5.07
254.919	-4.58
255.135	-5.06
255.351	-7.28
255.567	-11.44
255.782	-10.28
255.998	-11.12
256.214	-8.61
256.43	-6.27
256.646	-3.35
256.861	-5.09
257.077	-8.37
257.293	-9.22
257.508	-6.11
257.724	-6.3
257.94	-5.13
258.155	-3.72
258.371	-3.39
258.587	-2.86
258.802	-2.05
259.018	-1.81
259.234	-1.02
259.449	-0.46
259.665	-0.45
259.88	-0.82
260.096	-0.24
260.312	-0.29
260.527	0.11
260.743	-0.24
260.958	-0.28
261.174	-0.63
261.389	-1.43
261.605	-2.34
261.82	-1.8
262.036	-2.75
262.251	-2.42
262.466	-1.43
262.682	-1.7
262.897	-3.83
263.113	-4.69
263.328	-5.39
263.543	-4.18
263.759	-3.66
263.974	-3.19
264.189	-5.71
264.405	-5.38
264.62	-7.47
264.835	-8.66
265.051	-9.41
265.266	-10.63
265.481	-8.7
265.696	-8.7
265.912	-10.9
266.127	-10.35
266.342	-8.47
266.557	-9.71
266.773	-9.94
266.988	-10.4
267.203	-12.03
267.418	-10.86
267.633	-9.98
267.848	-10.29
268.064	-8.76
268.279	-7.37
268.494	-7.88
268.709	-8.7
268.924	-6.97
269.139	-5.2
269.354	-3.34
269.569	-1.36
269.784	-2.58
269.999	-1.27
270.214	-2.07
270.429	-4.5
270.644	-4.39
270.859	-3.71
271.074	-3.47
271.289	-2.79
271.504	-2.8
271.719	-3.9
271.934	-5.12
272.149	-5.46
272.363	-5.75
272.578	-4.92
272.793	-2.5
273.008	-3.3
273.223	-2.9
273.438	-2.31
273.653	-3.16
273.867	-2.88
274.082	-2.76
274.297	-2.04
274.512	-1.56
274.726	-0.98
274.941	-1.36
275.156	-3.13
275.371	-4.19
275.585	-4.9
275.8	-5.71
276.015	-7.6
276.229	-10.24
276.444	-8.62
276.659	-10.45
276.873	-9.44
277.088	-9.62
277.302	-9.44
277.517	-9.12
277.732	-7.07
277.946	-6.95
278.161	-7.91
278.375	-5.26
278.59	-4.77
278.804	-4.95
279.019	-2.78
279.233	-2.34
279.448	-2.77
279.662	-1.56
279.877	-2.08
280.091	-1.6
280.306	-0.69
280.52	-0.8
280.735	-1.58
280.949	1.16
281.163	1.23
281.378	1.87
281.592	2.18
281.806	2.14
282.021	0.58
282.235	0.45
282.449	0.13
282.664	-0.32
282.878	-0.03
283.092	0.3
283.307	-0.71
283.521	1.03
283.735	1
283.949	0.38
284.164	0.56
284.378	1.35
284.592	2.24
284.806	1.99
285.02	1.64
285.234	1.74
285.449	2.16
285.663	1.34
285.877	0.07
286.091	0.19
286.305	0.22
286.519	0.44
286.733	-0.02
286.947	-0.36
287.161	-0.68
287.375	-0.25
287.589	-0.93
287.803	-0.77
288.017	-1.02
288.231	-2.56
288.445	-3.17
288.659	-4.46
288.873	-5.02
289.087	-5.52
289.301	-4.24
289.515	-3.91
289.729	-4.06
289.943	-2
290.157	-2.77
290.371	-2.47
290.584	-0.83
290.798	-0.78
291.012	-0.25
291.226	0.46
291.44	0.88
291.654	-0.27
291.867	-0.24
292.081	-0.25
292.295	-1.35
292.509	-1.34
292.722	-0.61
292.936	-2.41
293.15	-2.86
293.364	-1.48
293.577	-1.94
293.791	-1.67
294.005	-1.57
294.218	-1.04
294.432	-1.45
294.645	-0.26
294.859	0.53
295.073	0.17
295.286	0.69
295.5	0.97
295.713	0.6
295.927	1.09
296.14	1.8
296.354	1.39
296.568	0.35
296.781	-0.01
296.994	-1.21
297.208	-2.09
297.421	-0.76
297.635	-0.01
297.848	0.38
298.062	1.41
298.275	1
298.489	-0.58
298.702	-0.65
298.915	0.21
299.129	1.22
299.342	2.31
299.555	3.75
299.769	2.01
299.982	1.19
300.195	1.66
300.409	-0.23
300.622	0.4
300.835	1.04
301.048	1.1
301.262	0.71
301.475	0.98
301.688	1.03
301.901	0.49
302.115	0.7
302.328	1.26
302.541	0.13
302.754	1.41
302.967	-0.85
303.18	0.94
303.393	2.27
303.607	3.14
303.82	2.01
304.033	0.9
304.246	1.25
304.459	0.68
304.672	1.11
304.885	1.59
305.098	0.22
305.311	1.36
305.524	-0.52
305.737	-0.89
305.95	-1.41
306.163	0.28
306.376	1.81
306.589	1.41
306.802	3.42
307.015	2.92
307.228	2.07
307.44	2.77
307.653	4.34
307.866	5.47
308.079	4.8
308.292	4.89
308.505	4.99
308.718	4.2
308.93	3.07
309.143	2.43
309.356	2.21
309.569	2.04
309.781	1.79
309.994	0.56
310.207	1.15
310.42	1.11
310.632	1.6
310.845	1.92
311.058	1.83
311.27	2.38
311.483	3.09
311.696	2.86
311.908	3.12
312.121	3.89
312.333	3.53
312.546	3.57
312.759	3.28
312.971	1.95
313.184	-0.54
313.396	1.09
313.609	1.9
313.821	1.08
314.034	3.55
314.246	4.94
314.459	3.92
314.671	4.59
314.884	4.54
315.096	6.57
315.309	7.17
315.521	8.33
315.733	5.38
315.946	5.71
316.158	5.78
316.371	3
316.583	0.28
316.795	0.61
317.008	0.27
317.22	-0.51
317.432	-1.39
317.644	-2.28
317.857	-1.85
318.069	-1.24
318.281	-2.63
318.494	-3.12
318.706	-3.24
318.918	-2.98
319.13	-3.89
319.342	-3.86
319.555	-4.44
319.767	-6.24
319.979	-5.15
320.191	-5.29
320.403	-6.03
320.615	-5.32
320.827	-6.28
321.039	-5.35
321.252	-3.42
321.464	-1.01
321.676	-2.26
321.888	-1.39
322.1	0.29
322.312	1.78
322.524	3.02
322.736	5.28
322.948	4.34
323.16	6.91
323.372	7.03
323.584	6.64
323.796	4.43
324.007	5.24
324.219	5.51
324.431	6.26
324.643	6.15
324.855	4.97
325.067	3.91
325.279	4.46
325.491	3.33
325.702	3.9
325.914	4.62
326.126	5.55
326.338	6.32
326.55	6.91
326.761	6.64
326.973	6.73
327.185	7
327.396	6.78
327.608	6.58
327.82	7.34
328.032	7.41
328.243	7.4
328.455	7.66
328.666	8.66
328.878	7.38
329.09	6.22
329.301	4.94
329.513	5.45
329.725	6.35
329.936	6.45
330.148	6.01
330.359	5.67
330.571	5.77
330.782	6.03
330.994	4.76
331.205	5.69
331.417	6.97
331.628	6.66
331.84	6.98
332.051	6.82
332.262	6.85
332.474	6.29
332.685	6.42
332.897	6.53
333.108	7.17
333.319	8.39
333.531	8.56
333.742	7.15
333.953	8.78
334.165	8.68
334.376	7.63
334.587	9.31
334.799	9.6
335.01	10.11
335.221	10.87
335.432	11.46
335.644	10.9
335.855	10.9
336.066	12.21
336.277	11.65
336.488	11.33
336.7	12.56
336.911	12.74
337.122	13.33
337.333	13.3
337.544	12.92
337.755	13.08
337.966	12.65
338.177	12.92
338.388	12.68
338.599	12.87
338.811	13.32
339.022	13.66
339.233	12.05
339.444	12.02
339.655	12.27
339.866	12.29
340.076	11.88
340.287	12.73
340.498	13.78
340.709	14.06
340.92	13.61
341.131	13.72
341.342	13.55
341.553	14.66
341.764	14.21
341.975	13
342.185	12.62
342.396	13.15
342.607	12.48
342.818	10.37
343.029	10.55
343.239	11.15
343.45	11.27
343.661	10.48
343.872	10.33
344.082	10.26
344.293	10.84
344.504	11.19
344.714	11.27
344.925	11.75
345.136	12.17
345.346	12.4
345.557	12.18
345.768	11.27
345.978	12.01
346.189	11.81
346.399	13.15
346.61	14.08
346.821	14.62
347.031	13.77
347.242	14.47
347.452	14.51
347.663	13.64
347.873	14.08
348.084	15.64
348.294	15.4
348.504	14.76
348.715	14.22
348.925	13.47
349.136	12.46
349.346	12.98
349.557	12.57
349.767	13.07
349.977	13.47
350.188	12.9
350.398	12.04
350.608	12.39
350.819	13.01
351.029	12.71
351.239	12.6
351.449	12.7
351.66	12.62
351.87	12.67
352.08	13.04
352.29	13.52
352.501	13.86
352.711	13.92
352.921	13.38
353.131	13.2
353.341	13.3
353.552	13.47
353.762	13.38
353.972	13.25
354.182	12.98
354.392	11.44
354.602	11.74
354.812	10.8
355.022	10.49
355.232	9.88
355.442	9.48
355.652	9.49
355.862	9.54
356.072	9.01
356.282	8.51
356.492	8.75
356.702	10.27
356.912	9.4
357.122	9.63
357.332	10.01
357.542	10.73
357.752	11.65
357.962	11.28
358.171	11.51
358.381	11.18
358.591	11.86
358.801	11.07
359.011	10.39
359.221	9.89
359.43	10.77
359.64	11.8
359.85	12.84
360.06	12.56
360.269	12.68
360.479	12.12
360.689	13.16
360.899	12.93
361.108	13.44
361.318	13.47
361.528	13.98
361.737	13.93
361.947	13.69
362.156	12.71
362.366	13.01
362.576	12.83
362.785	13.22
362.995	13.19
363.204	13.3
363.414	13.1
363.623	13.12
363.833	13.41
364.042	13.39
364.252	13.12
364.461	13.76
364.671	13.18
364.88	13.08
365.09	12.58
365.299	12.33
365.509	11.81
365.718	12.32
365.927	12.56
366.137	11.9
366.346	11.53
366.555	10.83
366.765	10.36
366.974	10.84
367.183	11.37
367.393	11.68
367.602	12.05
367.811	12.73
368.021	12.82
368.23	13
368.439	12.86
368.648	13.07
368.857	13.66
369.067	13.36
369.276	13.15
369.485	12.95
369.694	12.53
369.903	12.09
370.112	11.78
370.321	11.23
370.531	10.21
370.74	10.01
370.949	9.9
371.158	9.33
371.367	9.01
371.576	9.12
371.785	8.84
371.994	8.88
372.203	8.45
372.412	8.84
372.621	9.36
372.83	9.76
373.039	9.95
373.248	9.88
373.457	10.33
373.666	10.73
373.874	10.64
374.083	11.1
374.292	11
374.501	11.71
374.71	10.95
374.919	11.06
375.128	11.28
375.336	11.34
375.545	10.84
375.754	10.2
375.963	10.34
376.171	10.33
376.38	10.5
376.589	10.94
376.798	10.63
377.006	10.7
377.215	10.54
377.424	10.62
377.632	10.83
377.841	11.57
378.05	11.47
378.258	11.21
378.467	11.31
378.675	10.55
378.884	10.42
379.093	10.12
379.301	10.31
379.51	10.02
379.718	10
379.927	9.97
380.135	9.54
380.344	9.86
380.552	10.1
380.761	10.29
380.969	10.38
381.177	10.51
381.386	10.6
381.594	10.14
381.803	9.99
382.011	9.92
382.219	9.75
382.428	9.35
382.636	9.31
382.845	8.86
383.053	8.5
383.261	8.69
383.469	8.61
383.678	8.91
383.886	9.53
384.094	9.73
384.302	9.69
384.511	9.48
384.719	9.74
384.927	10.2
385.135	10.48
385.343	10.28
385.552	10.4
385.76	10.63
385.968	10.6
386.176	10.19
386.384	10.3
386.592	10.02
386.8	10.16
387.008	9.88
387.216	9.44
387.424	9.64
387.633	10
387.841	9.61
388.049	8.87
388.257	9.02
388.465	8.94
388.672	8.69
388.88	8.7
389.088	8.92
389.296	9.4
389.504	9.63
389.712	9.04
389.92	8.87
390.128	9.17
390.336	9.11
390.544	8.62
390.751	8.8
390.959	8.62
391.167	9.1
391.375	9.04
391.583	8.84
391.79	8.5
391.998	8.81
392.206	8.65
392.414	8.78
392.621	9.32
392.829	9.49
393.037	9.13
393.244	9.11
393.452	8.85
393.66	8.81
393.867	8.99
394.075	9.17
394.283	9.09
394.49	9.19
394.698	9.11
394.905	8.9
395.113	8.98
395.32	9.41
395.528	9.53
395.735	9.65
395.943	9.45
396.15	9.11
396.358	9.05
396.565	9.36
396.773	9.22
396.98	9.3
397.188	9.23
397.395	9.41
397.602	9.3
397.81	9.42
398.017	9.26
398.225	9.66
398.432	9.94
398.639	10.24
398.847	9.89
399.054	9.96
399.261	9.87
399.468	10.04
399.676	9.88
399.883	9.77
400.09	9.9
400.297	9.87
400.505	9.64
400.712	9.94
400.919	9.76
401.126	10
401.333	10.01
401.54	10.01
401.748	9.64
401.955	9.6
402.162	9.57
402.369	9.53
402.576	9.76
402.783	10.09
402.99	9.77
403.197	9.83
403.404	9.55
403.611	9.43
403.818	9.6
404.025	10.11
404.232	10.36
404.439	10.66
404.646	10.59
404.853	10.47
405.06	10.46
405.267	10.44
405.474	10.42
405.681	10.82
405.887	10.97
406.094	11.17
406.301	11
406.508	10.94
406.715	10.8
406.922	10.65
407.128	10.62
407.335	10.34
407.542	10.66
407.749	10.66
407.955	10.4
408.162	10.5
408.369	10.55
408.575	10.85
408.782	10.88
408.989	11.02
409.195	11.47
409.402	11.74
409.609	12.07
409.815	11.77
410.022	11.75
410.228	11.69
410.435	11.9
410.642	11.55
410.848	11.33
411.055	11.16
411.261	11.13
411.468	11.03
411.674	10.7
411.881	10.42
412.087	10.5
412.294	10.57
412.5	10.66
412.706	10.4
412.913	10.05
413.119	9.98
413.326	9.92
413.532	9.78
413.738	9.71
413.945	9.58
414.151	9.67
414.357	9.61
414.564	9.58
414.77	9.95
414.976	9.8
415.182	10.2
415.389	10.34
415.595	10.48
415.801	10.38
416.007	10.55
416.214	10.6
416.42	10.56
416.626	10.66
416.832	10.58
417.038	10.29
417.244	10.35
417.45	10.35
417.657	10.33
417.863	10.17
418.069	10.4
418.275	10.17
418.481	10.3
418.687	10.28
418.893	10.19
419.099	10.19
419.305	10.41
419.511	10.48
419.717	10.54
419.923	10.6
420.129	10.85
420.335	10.73
420.541	10.75
420.746	10.81
420.952	10.99
421.158	11.13
421.364	11.01
421.57	10.95
421.776	10.98
421.982	10.81
422.187	10.7
422.393	10.6
422.599	10.8
422.805	10.77
423.01	10.71
423.216	10.56
423.422	10.35
423.628	10.49
423.833	10.58
424.039	10.62
424.245	10.81
424.45	10.82
424.656	10.68
424.862	10.67
425.067	10.78
425.273	10.94
425.478	10.97
425.684	11.03
425.889	11.08
426.095	10.83
426.301	10.66
426.506	10.6
426.712	10.6
426.917	10.82
427.123	10.66
427.328	10.54
427.533	10.42
427.739	10.34
427.944	10.29
428.15	10.18
428.355	10.51
428.561	10.7
428.766	10.54
428.971	10.43
429.177	10.34
429.382	10.31
429.587	10.45
429.793	10.08
429.998	10.13
430.203	10.27
430.408	10.12
430.614	9.86
430.819	9.92
431.024	9.77
431.229	9.93
431.434	9.93
431.64	9.71
431.845	9.51
432.05	9.91
432.255	9.95
432.46	9.88
432.665	10.15
432.87	10.27
433.076	10.32
433.281	10.46
433.486	10.63
433.691	10.56
433.896	10.76
434.101	11.15
434.306	11.43
434.511	11.71
434.716	12.17
434.921	12.37
435.126	12.73
435.331	12.8
435.535	13.21
435.74	13.23
435.945	13.5
436.15	13.63
436.355	13.4
436.56	12.95
436.765	12.73
436.97	12.23
437.174	11.94
437.379	11.42
437.584	11.13
437.789	10.64
437.993	10.46
438.198	10.35
438.403	10.26
438.608	10.16
438.812	10.16
439.017	10.13
439.222	10.24
439.426	10.27
439.631	10.22
439.836	10.26
440.04	10.35
440.245	10.32
440.45	10.41
440.654	10.51
440.859	10.54
441.063	10.65
441.268	10.71
441.472	10.78
441.677	10.65
441.881	10.74
442.086	10.8
442.29	10.74
442.495	10.79
442.699	10.63
442.904	10.44
443.108	10.46
443.312	10.41
443.517	10.29
443.721	10.24
443.925	10.34
444.13	10.43
444.334	10.48
444.538	10.7
444.743	10.75
444.947	10.68
445.151	10.71
445.356	10.83
445.56	10.83
445.764	10.8
445.968	10.8
446.173	10.84
446.377	10.76
446.581	10.69
446.785	10.62
446.989	10.64
447.193	10.65
447.398	10.64
447.602	10.46
447.806	10.43
448.01	10.42
448.214	10.44
448.418	10.48
448.622	10.64
448.826	10.56
449.03	10.55
449.234	10.38
449.438	10.37
449.642	10.42
449.846	10.4
450.05	10.33
450.254	10.29
450.458	10.16
450.662	9.9
450.866	9.69
451.069	9.75
451.273	9.79
451.477	9.97
451.681	10.03
451.885	9.87
452.089	9.84
452.292	10.04
452.496	10.21
452.7	10.34
452.904	10.52
453.107	10.55
453.311	10.56
453.515	10.39
453.719	10.33
453.922	10.29
454.126	10.51
454.33	10.68
454.533	10.48
454.737	10.41
454.94	10.09
455.144	9.98
455.348	9.86
455.551	9.93
455.755	10
455.958	9.73
456.162	9.68
456.365	9.46
456.569	9.36
456.772	9.46
456.976	9.29
457.179	9.3
457.383	9.39
457.586	9.42
457.79	9.41
457.993	9.43
458.196	9.54
458.4	9.51
458.603	9.64
458.807	9.71
459.01	9.73
459.213	9.88
459.417	9.96
459.62	10.03
459.823	10.14
460.026	10.12
460.23	10.28
460.433	10.32
460.636	10.33
460.839	10.43
461.042	10.52
461.246	10.5
461.449	10.46
461.652	10.51
461.855	10.51
462.058	10.44
462.261	10.37
462.464	10.33
462.668	10.36
462.871	10.54
463.074	10.43
463.277	10.3
463.48	10.27
463.683	10.31
463.886	10.45
464.089	10.49
464.292	10.44
464.495	10.43
464.698	10.41
464.901	10.47
465.104	10.45
465.306	10.37
465.509	10.4
465.712	10.5
465.915	10.44
466.118	10.57
466.321	10.47
466.524	10.5
466.726	10.62
466.929	10.54
467.132	10.3
467.335	10.3
467.538	10.3
467.74	10.35
467.943	10.33
468.146	10.44
468.348	10.32
468.551	10.47
468.754	10.58
468.956	10.47
469.159	10.42
469.362	10.5
469.564	10.57
469.767	10.65
469.969	10.69
470.172	10.72
470.375	10.67
470.577	10.42
470.78	10.22
470.982	10.16
471.185	10.37
471.387	10.43
471.59	10.54
471.792	10.45
471.995	10.34
472.197	10.22
472.399	10.1
472.602	9.96
472.804	10.21
473.007	10.21
473.209	10.21
473.411	9.95
473.614	9.84
473.816	9.75
474.018	9.77
474.22	9.68
474.423	9.73
474.625	9.81
474.827	9.93
475.03	9.71
475.232	9.8
475.434	9.79
475.636	10.04
475.838	10.14
476.04	10.22
476.243	10.21
476.445	10.43
476.647	10.22
476.849	10.12
477.051	10.09
477.253	10.15
477.455	10.19
477.657	10.2
477.859	10.16
478.061	10.06
478.263	10.19
478.465	10.18
478.667	10.25
478.869	10.34
479.071	10.5
479.273	10.57
479.475	10.51
479.677	10.43
479.879	10.52
480.081	10.52
480.283	10.64
480.485	10.68
480.686	10.69
480.888	10.53
481.09	10.68
481.292	10.78
481.494	10.78
481.695	10.87
481.897	11.03
482.099	11.09
482.301	11.24
482.502	11.29
482.704	11.32
482.906	11.41
483.107	11.56
483.309	11.59
483.511	11.62
483.712	11.67
483.914	11.68
484.115	11.7
484.317	11.74
484.519	11.75
484.72	11.77
484.922	11.8
485.123	11.8
485.325	11.82
485.526	11.84
485.728	11.83
485.929	11.91
486.131	12
486.332	11.95
486.534	11.99
486.735	11.94
486.936	12.02
487.138	11.99
487.339	11.99
487.541	11.92
487.742	11.93
487.943	11.92
488.144	11.87
488.346	11.89
488.547	11.93
488.748	11.89
488.95	11.88
489.151	11.79
489.352	11.8
489.553	11.77
489.755	11.86
489.956	11.8
490.157	11.85
490.358	11.85
490.559	11.84
490.76	11.85
490.961	11.78
491.163	11.82
491.364	11.93
491.565	11.84
491.766	11.85
491.967	11.71
492.168	11.77
492.369	11.63
492.57	11.53
492.771	11.4
492.972	11.37
493.173	11.33
493.374	11.26
493.575	11.1
493.776	11.08
493.976	10.92
494.177	10.9
494.378	10.77
494.579	10.78
494.78	10.77
494.981	10.9
495.182	10.91
495.382	10.96
495.583	11.03
495.784	10.96
495.985	11.02
496.185	11.05
496.386	10.89
496.587	10.92
496.788	10.84
496.988	10.98
497.189	10.86
497.39	10.77
497.59	10.78
497.791	10.59
497.992	10.67
498.192	10.63
498.393	10.78
498.593	10.99
498.794	10.95
498.994	11
499.195	11.03
499.395	11.22
499.596	11.27
499.796	11.3
499.997	11.37
500.197	11.13
500.398	11.09
500.598	11.04
500.799	10.97
500.999	10.95
501.199	11.22
501.4	11.04
501.6	11.09
501.801	11.04
502.001	11.09
502.201	11.12
502.402	11.36
502.602	11.42
502.802	11.39
503.002	11.61
503.203	11.64
503.403	11.47
503.603	11.56
503.803	11.27
504.003	11.21
504.204	11.25
504.404	11.45
504.604	11.39
504.804	11.4
505.004	11.44
505.204	11.31
505.404	11.23
505.604	11.08
505.804	11.08
506.005	11.25
506.205	11.32
506.405	11.22
506.605	11.31
506.805	11.32
507.005	11.31
507.204	11.38
507.404	11.37
507.604	11.53
507.804	11.74
508.004	11.84
508.204	11.86
508.404	11.87
508.604	11.85
508.804	11.77
509.003	11.8
509.203	11.87
509.403	11.83
509.603	12.05
509.803	12.08
510.002	12.14
510.202	12.24
510.402	12.33
510.602	12.48
510.801	12.64
511.001	12.61
511.201	12.68
511.4	12.81
511.6	13.05
511.8	12.78
511.999	12.75
512.199	12.73
512.398	12.63
512.598	12.57
512.797	12.54
512.997	12.49
513.197	12.49
513.396	12.48
513.596	12.42
513.795	12.23
513.994	12.31
514.194	12.38
514.393	12.43
514.593	12.52
514.792	12.47
514.992	12.58
515.191	12.65
515.39	12.74
515.59	12.97
515.789	12.91
515.988	12.93
516.188	13.26
516.387	13.45
516.586	13.51
516.786	13.4
516.985	13.57
517.184	13.54
517.383	13.58
517.582	13.6
517.782	13.46
517.981	13.6
518.18	13.66
518.379	13.59
518.578	13.57
518.777	13.61
518.976	13.68
519.176	13.7
519.375	13.75
519.574	13.77
519.773	13.81
519.972	13.84
520.171	13.8
520.37	13.84
520.569	13.76
520.768	13.79
520.967	13.67
521.166	13.63
521.365	13.6
521.564	13.54
521.762	13.46
521.961	13.36
522.16	13.54
522.359	13.7
522.558	13.82
522.757	13.96
522.956	13.91
523.154	13.96
523.353	14.12
523.552	14.13
523.751	14.31
523.949	14.5
524.148	14.73
524.347	14.58
524.546	14.65
524.744	14.7
524.943	14.7
525.142	14.75
525.34	14.96
525.539	15.05
525.737	15.12
525.936	15.06
526.135	14.96
526.333	14.86
526.532	15
526.73	14.93
526.929	14.89
527.127	14.87
527.326	14.93
527.524	14.87
527.723	14.91
527.921	14.92
528.12	14.97
528.318	15.03
528.516	15.11
528.715	15.17
528.913	15.22
529.112	15.22
529.31	15.22
529.508	15.24
529.707	15.21
529.905	15.17
530.103	15.24
530.301	15.23
530.5	15.27
530.698	15.31
530.896	15.2
531.094	15.17
531.293	15.24
531.491	15.31
531.689	15.18
531.887	15.39
532.085	15.33
532.283	15.23
532.481	15.3
532.68	15.39
532.878	15.37
533.076	15.5
533.274	15.63
533.472	15.58
533.67	15.62
533.868	15.77
534.066	15.71
534.264	15.84
534.462	15.91
534.66	15.96
534.858	15.91
535.056	15.95
535.253	15.95
535.451	15.88
535.649	16.11
535.847	16.17
536.045	16.22
536.243	16.35
536.441	16.34
536.638	16.42
536.836	16.44
537.034	16.69
537.232	16.75
537.43	16.9
537.627	17.06
537.825	17.07
538.023	17.16
538.22	17.31
538.418	17.39
538.616	17.66
538.813	17.87
539.011	17.92
539.209	17.8
539.406	17.94
539.604	18.12
539.801	18.29
539.999	18.49
540.196	18.8
540.394	18.88
540.591	19.09
540.789	19.14
540.986	19.17
541.184	19.34
541.381	19.57
541.579	19.73
541.776	19.72
541.974	19.8
542.171	19.81
542.368	19.81
542.566	19.87
542.763	19.95
542.96	20.04
543.158	20.16
543.355	20.2
543.552	20.32
543.75	20.48
543.947	20.85
544.144	21.24
544.341	21.67
544.539	22.08
544.736	22.67
544.933	22.99
545.13	23.58
545.327	24.09
545.524	24.59
545.722	24.87
545.919	25.09
546.116	25.13
546.313	24.9
546.51	24.7
546.707	24.51
546.904	24.12
547.101	23.87
547.298	23.34
547.495	23.03
547.692	22.69
547.889	22.33
548.086	21.98
548.283	21.78
548.48	21.63
548.677	21.31
548.874	21.18
549.07	21.16
549.267	21.02
549.464	21.06
549.661	20.88
549.858	20.81
550.055	20.61
550.251	20.46
550.448	20.51
550.645	20.48
550.842	20.46
551.038	20.39
551.235	20.15
551.432	19.96
551.628	19.79
551.825	19.87
552.022	19.75
552.218	19.79
552.415	19.82
552.612	19.46
552.808	19.3
553.005	19.45
553.201	19.33
553.398	19.31
553.594	19.36
553.791	19.37
553.987	19.19
554.184	19.4
554.38	19.35
554.577	19.28
554.773	19.2
554.97	19.15
555.166	18.94
555.362	18.98
555.559	19.08
555.755	19.12
555.952	19.18
556.148	19.5
556.344	19.26
556.541	19.39
556.737	19.49
556.933	19.43
557.129	19.27
557.326	19.39
557.522	19.26
557.718	19.21
557.914	19.3
558.11	19.21
558.307	18.99
558.503	18.85
558.699	18.89
558.895	18.86
559.091	18.94
559.287	19.23
559.483	19.11
559.679	19.02
559.876	18.88
560.072	18.78
560.268	18.8
560.464	18.8
560.66	18.98
560.856	18.75
561.052	18.83
561.247	19.09
561.443	19.05
561.639	19.25
561.835	19.38
562.031	19.61
562.227	19.5
562.423	19.69
562.619	19.84
562.815	19.99
563.01	20.1
563.206	20
563.402	19.88
563.598	19.96
563.793	19.93
563.989	19.97
564.185	19.93
564.381	20.03
564.576	20
564.772	19.93
564.968	19.78
565.163	19.96
565.359	19.91
565.555	19.84
565.75	19.81
565.946	19.8
566.141	19.83
566.337	19.94
566.532	20.07
566.728	20.03
566.923	19.94
567.119	19.79
567.314	19.74
567.51	20.02
567.705	20.06
567.901	19.98
568.096	20.08
568.292	19.98
568.487	20.02
568.682	20.13
568.878	20.18
569.073	20.33
569.268	20.57
569.464	20.62
569.659	20.36
569.854	20.37
570.05	20.53
570.245	20.55
570.44	20.62
570.635	20.46
570.831	20.54
571.026	20.67
571.221	20.37
571.416	20.32
571.611	20.4
571.806	20.45
572.002	20.38
572.197	20.3
572.392	20.46
572.587	20.5
572.782	20.49
572.977	20.48
573.172	20.33
573.367	20.64
573.562	20.64
573.757	20.4
573.952	20.42
574.147	20.39
574.342	20.53
574.537	20.28
574.732	20.35
574.927	20.45
575.121	20.33
575.316	20.57
575.511	20.63
575.706	20.76
575.901	21.05
576.096	21.04
576.29	21.52
576.485	21.54
576.68	21.71
576.875	21.61
577.069	21.71
577.264	21.64
577.459	21.55
577.654	21.77
577.848	21.78
578.043	21.78
578.238	22.23
578.432	22.28
578.627	22.59
578.821	22.76
579.016	23.15
579.21	23.19
579.405	23.52
579.6	23.78
579.794	23.69
579.989	23.78
580.183	23.65
580.378	23.52
580.572	23.46
580.766	23.5
580.961	23.31
581.155	23.18
581.35	23.18
581.544	22.97
581.738	22.74
581.933	22.61
582.127	22.74
582.321	23.21
582.516	23.38
582.71	23.28
582.904	23.09
583.099	23.59
583.293	23.51
583.487	23.62
583.681	23.72
583.875	23.83
584.07	23.72
584.264	23.65
584.458	23.57
584.652	23.44
584.846	23.34
585.04	23.36
585.234	22.88
585.428	23.25
585.623	23.35
585.817	23.55
586.011	23.56
586.205	23.76
586.399	23.88
586.593	23.72
586.787	23.82
586.981	24.16
587.174	24.3
587.368	24.63
587.562	24.48
587.756	24.28
587.95	24.09
588.144	24.08
588.338	23.92
588.532	24.14
588.725	24.51
588.919	24.39
589.113	24.18
589.307	24.06
589.501	23.75
589.694	23.66
589.888	23.79
590.082	23.71
590.275	23.8
590.469	23.95
590.663	23.8
590.856	23.43
591.05	23.48
591.244	23.64
591.437	23.57
591.631	23.69
591.824	23.78
592.018	23.91
592.212	24.02
592.405	24.01
592.599	24.1
592.792	24.13
592.986	24.23
593.179	24.12
593.372	24.44
593.566	24.6
593.759	24.83
593.953	24.63
594.146	24.42
594.339	24.46
594.533	24.4
594.726	24.27
594.92	24.17
595.113	23.83
595.306	23.68
595.499	23.57
595.693	23.31
595.886	23.02
596.079	23.15
596.272	23.32
596.466	23.33
596.659	23.42
596.852	23.2
597.045	23.34
597.238	23.61
597.431	23.73
597.624	23.59
597.818	23.73
598.011	23.85
598.204	23.9
598.397	23.84
598.59	24.02
598.783	23.86
598.976	24.23
599.169	24.15
599.362	24.12
599.555	24.27
599.748	24.27
599.941	24.45
600.134	24.7
600.326	24.71
600.519	24.68
600.712	24.51
600.905	24.45
601.098	24.17
601.291	23.54
601.483	23.46
601.676	23.77
601.869	23.69
602.062	23.53
602.255	23.34
602.447	23.27
602.64	23.18
602.833	23.26
603.025	23.35
603.218	23.61
603.411	24.06
603.603	23.95
603.796	23.6
603.989	23.65
604.181	23.47
604.374	23.44
604.566	23.56
604.759	23.57
604.951	23.45
605.144	23.41
605.336	23.34
605.529	23.44
605.721	23.72
605.914	23.86
606.106	23.88
606.299	24.26
606.491	24.39
606.683	24.62
606.876	24.73
607.068	24.91
607.26	25.21
607.453	25.53
607.645	25.75
607.837	25.86
608.03	26.54
608.222	27.01
608.414	27.15
608.606	27.61
608.799	28.27
608.991	28.93
609.183	29.82
609.375	30.87
609.567	31.93
609.759	33.04
609.952	34.44
610.144	35.5
610.336	36.82
610.528	38.52
610.72	40.01
610.912	41.1
611.104	42.35
611.296	43.26
611.488	43.89
611.68	44.47
611.872	44.73
612.064	44.37
612.256	44.16
612.448	43.55
612.64	42.77
612.832	41.63
613.023	40.68
613.215	39.44
613.407	38.5
613.599	37.52
613.791	36.61
613.983	35.88
614.174	35.31
614.366	34.6
614.558	34.34
614.75	33.57
614.941	33.4
615.133	32.93
615.325	32.5
615.516	32.34
615.708	31.93
615.9	31.07
616.091	30.54
616.283	30.27
616.475	29.78
616.666	28.99
616.858	28.41
617.049	27.94
617.241	27.39
617.432	27.26
617.624	26.48
617.815	26.11
618.007	26.11
618.198	25.68
618.39	25.16
618.581	24.76
618.773	24.83
618.964	25.29
619.155	25.06
619.347	25.21
619.538	25.29
619.729	25.64
619.921	26.06
620.112	26.23
620.303	26.43
620.494	26.72
620.686	26.83
620.877	26.67
621.068	26.38
621.259	26.41
621.451	26.15
621.642	26.17
621.833	26.12
622.024	25.86
622.215	25.71
622.406	25.84
622.597	26.01
622.788	26.24
622.98	26.49
623.171	26.29
623.362	26.43
623.553	26.76
623.744	26.6
623.935	26.68
624.126	26.45
624.317	26.68
624.508	26.49
624.698	26.21
624.889	26.1
625.08	25.87
625.271	25.69
625.462	25.53
625.653	25.23
625.844	25.2
626.034	24.96
626.225	25.1
626.416	24.84
626.607	24.87
626.798	24.92
626.988	24.63
627.179	24.91
627.37	25.37
627.56	25.47
627.751	25.75
627.942	25.92
628.132	26.32
628.323	26.3
628.514	26.72
628.704	26.92
628.895	27.25
629.085	27.68
629.276	27.69
629.466	27.67
629.657	27.59
629.847	27.85
630.038	28.13
630.228	27.94
630.419	28.14
630.609	27.87
630.8	27.86
630.99	27.79
631.181	28.09
631.371	28.33
631.561	28.06
631.752	28.11
631.942	27.76
632.132	27.66
632.323	27.25
632.513	27.02
632.703	26.89
632.893	26.55
633.084	26.27
633.274	25.65
633.464	24.99
633.654	24.97
633.844	25
634.034	24.69
634.225	24.64
634.415	25.24
634.605	25.49
634.795	25.67
634.985	25.92
635.175	25.84
635.365	25.77
635.555	25.93
635.745	26.17
635.935	25.94
636.125	26.35
636.315	26
636.505	25.68
636.695	25.47
636.885	25.32
637.075	24.95
637.265	24.7
637.455	24.96
637.644	24.76
637.834	24.43
638.024	24.66
638.214	24.51
638.404	24.82
638.593	24.33
638.783	24.42
638.973	24.56
639.163	24.62
639.352	25.13
639.542	24.99
639.732	25.19
639.921	25.44
640.111	25.79
640.301	25.69
640.49	25.34
640.68	25.65
640.87	25.4
641.059	25.55
641.249	25.76
641.438	25.83
641.628	25.75
641.817	25.98
642.007	25.73
642.196	25.53
642.386	25.59
642.575	26.05
642.764	26.56
642.954	26.79
643.143	26.32
643.333	26.15
643.522	25.61
643.711	25.85
643.901	25.34
644.09	25.49
644.279	25.52
644.469	26.02
644.658	25.69
644.847	25.29
645.036	25.13
645.226	25.1
645.415	25.46
645.604	25.89
645.793	26.16
645.982	26.53
646.171	26.33
646.361	26.07
646.55	25.87
646.739	25.89
646.928	26.14
647.117	25.84
647.306	26.02
647.495	25.92
647.684	25.61
647.873	25.83
648.062	25.86
648.251	25.85
648.44	26.18
648.629	26.37
648.818	26.41
649.007	25.93
649.196	26.35
649.384	26.36
649.573	26.41
649.762	26.71
649.951	26.19
650.14	25.56
650.328	26.17
650.517	25.91
650.706	25.49
650.895	25.43
651.083	25.06
651.272	25.03
651.461	25.13
651.65	24.83
651.838	24.64
652.027	24.58
652.216	25.27
652.404	25.1
652.593	25.42
652.781	25.62
652.97	25.56
653.158	26.24
653.347	26.43
653.535	26.31
653.724	26.09
653.912	25.94
654.101	25.99
654.289	25.78
654.478	25.92
654.666	25.31
654.855	24.98
655.043	25.01
655.231	25.1
655.42	24.91
655.608	24.72
655.796	24.71
655.985	25.21
656.173	25.01
656.361	24.81
656.55	25.03
656.738	24.98
656.926	25.36
657.114	25.55
657.302	25.24
657.491	25.22
657.679	25.38
657.867	25.63
658.055	25.57
658.243	25.64
658.431	25.81
658.619	25.35
658.807	25.24
658.996	24.7
659.184	25
659.372	25.03
659.56	25.13
659.748	25.22
659.936	25.23
660.124	24.95
660.311	25.2
660.499	25.13
660.687	24.97
660.875	25.41
661.063	25.98
661.251	25.53
661.439	25.74
661.627	25.79
661.814	26.14
662.002	26.21
662.19	26.56
662.378	26.41
662.565	26.38
662.753	26.98
662.941	26.79
663.129	26.68
663.316	26.77
663.504	26.95
663.692	26.92
663.879	26.43
664.067	26.78
664.254	26.72
664.442	26.96
664.63	27.2
664.817	26.74
665.005	27.02
665.192	26.77
665.38	26.78
665.567	26.59
665.755	26.29
665.942	26.63
666.13	26.28
666.317	25.95
666.504	25.73
666.692	25.79
666.879	26.02
667.067	26.15
667.254	26.02
667.441	26.04
667.629	26.22
667.816	26.41
668.003	25.84
668.19	25.97
668.378	26.3
668.565	26.28
668.752	26.04
668.939	26.17
669.127	25.59
669.314	25.74
669.501	25.75
669.688	24.86
669.875	24.43
670.062	24.83
670.249	24.64
670.436	24.55
670.623	24.26
670.81	24.5
670.997	24.49
671.184	24.86
671.371	25.02
671.558	24.83
671.745	25.4
671.932	26.02
672.119	25.95
672.306	26.15
672.493	25.99
672.68	25.99
672.867	25.82
673.054	25.7
673.24	25.43
673.427	25.39
673.614	25.26
673.801	25.37
673.988	25.28
674.174	25.22
674.361	25.18
674.548	25.33
674.734	25.54
674.921	25.68
675.108	24.95
675.294	25.38
675.481	25
675.668	25.34
675.854	24.89
676.041	24.98
676.227	25.37
676.414	25.46
676.601	25.1
676.787	24.83
676.974	24.7
677.16	25.4
677.347	24.84
677.533	25.09
677.719	25.01
677.906	25.72
678.092	25.28
678.279	25.15
678.465	24.96
678.651	25.42
678.838	25.5
679.024	25.77
679.21	25.53
679.397	25.55
679.583	25.52
679.769	25.84
679.955	25.46
680.142	25.87
680.328	25.68
680.514	25.52
680.7	25.36
680.886	25.37
681.073	25.26
681.259	25.31
681.445	25.52
681.631	25.62
681.817	25.26
682.003	25.29
682.189	25.43
682.375	25.69
682.561	25.98
682.747	26.15
682.933	26.45
683.119	26.16
683.305	26.18
683.491	26.48
683.677	26.76
683.863	27.36
684.049	27.77
684.235	27.24
684.42	27.27
684.606	27.12
684.792	26.61
684.978	26.5
685.164	26.17
685.349	26.6
685.535	26.27
685.721	25.96
685.907	25.45
686.092	25.63
686.278	26.02
686.464	25.79
686.649	25.87
686.835	26.06
687.021	26.39
687.206	26.57
687.392	26.42
687.577	26.41
687.763	26.58
687.948	26.71
688.134	26.24
688.319	26.26
688.505	26.13
688.69	26.35
688.876	26.93
689.061	26.56
689.247	26.82
689.432	26.48
689.618	26.54
689.803	26.08
689.988	26.01
690.174	26.28
690.359	26.43
690.544	26.62
690.73	26.87
690.915	26.4
691.1	26.48
691.285	26.39
691.471	26.43
691.656	26.53
691.841	27.09
692.026	26.95
692.211	26.86
692.396	26.31
692.582	26.23
692.767	25.73
692.952	25.86
693.137	26.17
693.322	26.1
693.507	26
693.692	25.75
693.877	25.78
694.062	25.41
694.247	25.71
694.432	25.97
694.617	26.58
694.802	26.34
694.987	25.82
695.172	25.67
695.357	25.51
695.541	25.67
695.726	25.59
695.911	25.1
696.096	25.74
696.281	25.78
696.466	26.17
696.65	25.32
696.835	25.89
697.02	26.36
697.204	26.35
697.389	26.82
697.574	26.76
697.759	26.78
697.943	26.96
698.128	26.64
698.312	26.48
698.497	26.03
698.682	26.24
698.866	26.07
699.051	25.69
699.235	25.46
699.42	25.45
699.604	25.35
699.789	25.64
699.973	25.57
700.158	26.02
700.342	26.07
700.527	25.93
700.711	25.89
700.895	25.84
701.08	25.97
701.264	26.48
701.448	26.61
701.633	27.2
701.817	27.25
702.001	27.65
702.186	27.34
702.37	26.99
702.554	27.08
702.738	27.23
702.923	27.76
703.107	28.32
703.291	28.04
703.475	28.52
703.659	28.41
703.843	27.77
704.027	27.75
704.212	27.79
704.396	27.9
704.58	28.29
704.764	28.4
704.948	27.75
705.132	28.02
705.316	27.88
705.5	27.39
705.684	27.62
705.868	27.8
706.052	27.5
706.235	27.53
706.419	28.31
706.603	28.25
706.787	28.59
706.971	28.3
707.155	27.96
707.339	28.56
707.522	28.39
707.706	28.58
707.89	28.65
708.074	28.82
708.257	28.79
708.441	28.19
708.625	28.18
708.808	27.84
708.992	28.95
709.176	29.37
709.359	29.32
709.543	29.11
709.727	28.68
709.91	29.05
710.094	28.98
710.277	28.74
710.461	28.95
710.644	29.01
710.828	29.19
711.011	28.74
711.195	28.61
711.378	28.12
711.562	28.03
711.745	27.85
711.928	27.54
712.112	27.77
712.295	28.45
712.478	28.69
712.662	28.64
712.845	28.51
713.028	28.4
713.212	27.77
713.395	27.85
713.578	28.55
713.761	28.23
713.945	27.77
714.128	28.05
714.311	27.54
714.494	27.36
714.677	27.69
714.86	26.93
715.043	26.41
715.227	26.41
715.41	25.72
715.593	25.49
715.776	26.01
715.959	25.99
716.142	25.29
716.325	25.37
716.508	24.66
716.691	24.41
716.874	24.58
717.057	24.65
717.239	24.75
717.422	25.41
717.605	24.15
717.788	23.78
717.971	23.93
718.154	24.34
718.337	24.14
718.519	24.31
718.702	23.89
718.885	24.44
719.068	24.73
719.25	24.74
719.433	23.71
719.616	24.12
719.798	23.47
719.981	24.62
720.164	24.01
720.346	24.22
720.529	24.22
720.712	24.69
720.894	25.02
721.077	25.36
721.259	24.72
721.442	26.81
721.624	28.11
721.807	29.32
721.989	27.61
722.172	28.08
722.354	27.5
722.537	27.32
722.719	28.07
722.901	27.43
723.084	26.58
723.266	26.55
723.448	25.76
723.631	24.76
723.813	23.89
723.995	25.1
724.178	25.09
724.36	24.99
724.542	24.97
724.724	24.96
724.907	24.24
725.089	24.49
725.271	24.97
725.453	24.89
725.635	26.02
725.817	26.49
725.999	26.08
726.181	24.98
726.364	25.17
726.546	25.36
726.728	23.64
726.91	24.89
727.092	25.56
727.274	25.42
727.456	25.5
727.638	25.1
727.819	25.05
728.001	24.87
728.183	25.93
728.365	25.57
728.547	25.78
728.729	26.94
728.911	27.05
729.093	26.71
729.274	26.8
729.456	26.55
729.638	26.58
729.82	26.2
730.001	26.24
730.183	26.48
730.365	27.14
730.546	27.41
730.728	26.79
730.91	26.44
731.091	26.82
731.273	27.77
731.455	27.58
731.636	27.33
731.818	27.67
731.999	27.36
732.181	28.06
732.362	28.34
732.544	27.91
732.725	29.03
732.907	28.86
733.088	28.25
733.27	27.19
733.451	27.45
733.633	26.62
733.814	27.45
733.995	27.98
734.177	26.56
734.358	26.15
734.539	25.45
734.721	24.9
734.902	24.95
735.083	25.81
735.264	26.19
735.446	25.97
735.627	26.32
735.808	25.78
735.989	26.08
736.17	26.2
736.351	27.03
736.533	27.66
736.714	28.04
736.895	28.38
737.076	27.88
737.257	27.68
737.438	27.82
737.619	27.95
737.8	27.64
737.981	27.99
738.162	27.98
738.343	26.82
738.524	26
738.705	25.46
738.886	24.95
739.067	24.29
739.247	24.33
739.428	24.3
739.609	24.48
739.79	24.39
739.971	23.82
740.151	24.47
740.332	25.37
740.513	27.07
740.694	25.83
740.874	25.39
741.055	25.08
741.236	25.96
741.417	25.47
741.597	25.93
741.778	26.42
741.958	26.98
742.139	25.6
742.32	25.43
742.5	25.67
742.681	26.43
742.861	25.72
743.042	27.18
743.222	25.8
743.403	25.73
743.583	26.17
743.764	25.87
743.944	25.91
744.124	26.56
744.305	25.58
744.485	24.16
744.666	24.49
744.846	25.24
745.026	24.56
745.207	25.86
745.387	26.07
745.567	24.6
745.747	23.92
745.928	23.79
746.108	23.18
746.288	22.95
746.468	22.71
746.648	22.97
746.829	23.15
747.009	23.76
747.189	23.29
747.369	23.18
747.549	23.86
747.729	24.56
747.909	24.54
748.089	25.22
748.269	26.29
748.449	27.5
748.629	27.39
748.809	27.54
748.989	26.97
749.169	27.72
749.349	27.31
749.529	28.28
749.709	27.83
749.889	27.4
750.068	27.34
750.248	27.38
750.428	27.08
750.608	26.29
750.788	26.81
750.967	26.46
751.147	25.44
751.327	25.6
751.507	24.6
751.686	24.83
751.866	24.98
752.046	24.67
752.225	25.63
752.405	25.2
752.585	26.67
752.764	26.32
752.944	27.31
753.123	27.29
753.303	27.96
753.482	27.41
753.662	27.24
753.841	27.25
754.021	27.04
754.2	25.93
754.38	25.23
754.559	24.65
754.739	25.19
754.918	24.37
755.097	23.69
755.277	22.57
755.456	22.71
755.635	21.51
755.815	21.07
755.994	21.22
756.173	21.32
756.352	22.56
756.532	22.01
756.711	20.97
756.89	21.14
757.069	22.75
757.248	23.93
757.427	25.12
757.607	25.18
757.786	24.69
757.965	24.7
758.144	24.42
758.323	24.57
758.502	24.69
758.681	25.48
758.86	26
759.039	25.91
759.218	26.28
759.397	26.48
759.576	27.41
759.755	27.57
759.934	28.78
760.113	28.92
760.291	28.13
760.47	28.44
760.649	28.56
760.828	28.19
761.007	27.81
761.186	27.32
761.364	26.84
761.543	27.55
761.722	28.48
761.901	26.88
762.079	26.89
762.258	27.57
762.437	27.36
762.615	27.24
762.794	27.67
762.972	28.05
763.151	28.57
763.33	28.35
763.508	28.17
763.687	28.36
763.865	28.47
764.044	28.17
764.222	27.54
764.401	27.35
764.579	27.05
764.758	26.89
764.936	25.96
765.114	25.16
765.293	24.88
765.471	24.59
765.65	23.48
765.828	24.52
766.006	24.63
766.184	24.63
766.363	25.07
766.541	23.82
766.719	23.98
766.898	24.2
767.076	25.16
767.254	24.91
767.432	24.39
767.61	25.14
767.788	23.98
767.967	23.52
768.145	23.23
768.323	23.49
768.501	25.06
768.679	23.92
768.857	23.27
769.035	22.31
769.213	22.07
769.391	22.49
769.569	21.44
769.747	21.17
769.925	22.39
770.103	22.44
770.281	22.23
770.459	22.18
770.636	22.03
770.814	23.99
770.992	22.68
771.17	24.97
771.348	25.17
771.525	26.31
771.703	25.87
771.881	24.26
772.059	24.48
772.236	25.4
772.414	26.4
772.592	26.42
772.769	24.23
772.947	24.5
773.125	22.19
773.302	20.51
773.48	19.17
773.657	20.91
773.835	22.61
774.013	23.36
774.19	21.63
774.368	20.12
774.545	20.45
774.723	22.87
774.9	23.45
775.077	23.86
775.255	27.16
775.432	27.05
775.61	26.96
775.787	25.68
775.964	23.68
776.142	22.98
776.319	22.99
776.496	23.65
776.674	23.72
776.851	25.92
777.028	25.56
777.205	23.25
777.382	24.56
777.56	24.53
777.737	23.9
777.914	25.96
778.091	25.8
778.268	26.11
778.445	26.11
778.622	25.87
778.8	23.36
778.977	24.95
779.154	44.38
779.331	43.81
779.508	43.3
779.685	43.15
779.862	42.61
780.038	45.15
780.215	42.8
780.392	42.04
780.569	41.23
780.746	43.38
780.923	40.92
781.1	18.92
781.277	20.92
781.453	21.16
781.63	21.26
781.807	20.6
781.984	19.28
782.16	23.47
782.337	25.05
782.514	23.09
782.691	24.33
782.867	25.8
783.044	27.4
783.221	26.91
783.397	26.12
783.574	28.42
783.75	28.63
783.927	25.37
784.103	22.33
784.28	21.9
784.456	25.26
784.633	24.99
784.809	26.22
784.986	27.16
785.162	24.56
785.339	26.19
785.515	23.56
785.692	23.54
785.868	27.66
786.044	28.91
786.221	27.72
786.397	26.98
786.573	23.22
786.749	21.89
786.926	21.05
787.102	22.01
787.278	19.19
787.454	22.08
787.631	23.07
787.807	22.83
787.983	22.16
788.159	23.76
788.335	22.53
788.511	24.84
788.687	25.99
788.863	26.36
789.039	26.93
789.216	29.3
789.392	28.68
789.568	27.24
789.744	26.66
789.919	26.91
790.095	25.81
790.271	25.96
790.447	24.85
790.623	23.65
790.799	23.43
790.975	22.56
791.151	19.01
791.327	15.84
791.502	18.62
791.678	19.04
791.854	17.97
792.03	18.61
792.205	18.37
792.381	18.59
792.557	20.14
792.733	19.62
792.908	21.53
793.084	24.17
793.259	26.21
793.435	23.81
793.611	21.06
793.786	21.92
793.962	21.12
794.137	22.79
794.313	21.74
794.488	19.29
794.664	18.43
794.839	15.58
795.015	15.79
795.19	15.96
795.366	15.24
795.541	16.76
795.716	15.6
795.892	13.98
796.067	11.19
796.242	14.69
796.418	14.17
796.593	14.37
796.768	12.97
796.944	12.53
797.119	11.65
797.294	13.36
797.469	16.49
797.644	19.67
797.82	21.47
797.995	23.35
798.17	21.19
798.345	22.45
798.52	23.31
798.695	26.93
798.87	27.01
799.045	28.48
799.22	28.22
799.395	25.54
799.57	23.89
799.745	22.33
799.92	22.78
800.095	22.88
800.27	22.69
800.445	23.92
800.62	19.74
800.795	18.05
800.97	15.66
801.145	12.8
801.319	12.28
801.494	9.72
801.669	8.76
801.844	6.11
802.018	4.76
802.193	4.4
802.368	3.26
802.543	7.81
802.717	8.23
802.892	11.3
803.067	13.76
803.241	14.92
803.416	16.37
803.59	14.86
803.765	15.09
803.94	16.86
804.114	17.41
804.289	16.02
804.463	14.54
804.638	14.75
804.812	11.86
804.986	11.43
805.161	11.84
805.335	11.9
805.51	17.25
805.684	13.46
805.858	12.71
806.033	12.35
806.207	12.2
806.381	12.04
806.556	11.41
806.73	11.87
806.904	12.22
807.078	13.32
807.253	14.21
807.427	11.18
807.601	15.61
807.775	15.52
807.949	16.36
808.123	16
808.298	12.93
808.472	16.37
808.646	18.02
808.82	14.54
808.994	15.05
809.168	15.13
809.342	13.99
809.516	12.16
809.69	10.71
809.864	12.46
810.038	14.34
810.212	21.11
810.385	18.09
810.559	15.82
810.733	18.42
810.907	15.21
811.081	16.96
811.255	18.46
811.428	18.81
811.602	22.41
811.776	17.98
811.95	15.6
812.123	13.01
812.297	15.2
812.471	17.84
812.644	19.8
812.818	19.07
812.992	17.92
813.165	21.41
813.339	25.7
813.512	25.6
813.686	27.9
813.86	28.21
814.033	29.79
814.207	30.48
814.38	31.27
814.554	30.05
814.727	30.37
814.9	30.6
815.074	25.91
815.247	24.35
815.421	23.62
815.594	24.23
815.767	24.17
815.941	22.51
816.114	20.36
816.287	13.54
816.46	11.01
816.634	10.52
816.807	12.13
816.98	13.65
817.153	16.57
817.327	15.88
817.5	15
817.673	16.87
817.846	15.64
818.019	16.01
818.192	21.79
818.365	23.06
818.538	22.82
818.711	23.02
818.884	22.8
819.057	16.1
819.23	16.14
819.403	17.4
819.576	14.23
819.749	15.08
819.922	16.56
820.095	13.65
820.268	12.06
820.441	14.7
820.614	14.1
820.786	16.45
820.959	20.65
821.132	21.73
821.305	21.04
821.477	22.83
821.65	24.21
821.823	23.87
821.996	25.17
822.168	25.63
822.341	25.47
822.514	25.87
822.686	25.31
822.859	24.38
823.031	24.35
823.204	24.77
823.376	25.18
823.549	25.09
823.722	25.31
823.894	25.17
824.067	25.59
824.239	25.46
824.411	25.14
824.584	25.13
824.756	26.03
824.929	26.26
825.101	26.6
825.273	26.16
825.446	25.68
825.618	26.45
825.79	26.6
825.963	25.95
826.135	27.35
826.307	27.39
826.479	27.39
826.652	26.97
826.824	26.43
826.996	25.56
827.168	25.27
827.34	25.15
827.512	24.9
827.684	25.26
827.856	26.55
828.029	25.39
828.201	25.67
828.373	25.2
828.545	24.7
828.717	25.08
828.889	26.79
829.061	27.81
829.232	28.33
829.404	26.14
829.576	24.82
829.748	24.43
829.92	23.18
830.092	22.57
830.264	22.45
830.436	23.59
830.607	23.19
830.779	21.73
830.951	20.7
831.123	17.15
831.294	19.7
831.466	19.74
831.638	16.16
831.809	16.49
831.981	13.07
832.153	14.8
832.324	15.2
832.496	17.55
832.667	14.39
832.839	15.97
833.011	22.11
833.182	22.5
833.354	25.64
833.525	28.76
833.697	29.34
833.868	30.65
834.039	30.12
834.211	31.27
834.382	28.03
834.554	29.51
834.725	28.17
834.896	26.87
835.068	26.64
835.239	23.58
835.41	22.51
835.581	22.01
835.753	21.92
835.924	21.43
836.095	19.56
836.266	21.34
836.438	22.05
836.609	23.48
836.78	25.03
836.951	20.57
837.122	21.85
837.293	22.03
837.464	22.75
837.635	23.64
837.806	25.75
837.977	23.15
838.148	24.93
838.319	21.54
838.49	17.98
838.661	17.83
838.832	21.35
839.003	24.46
839.174	20.86
839.345	18.72
839.516	17.7
839.687	11.28
839.857	12.26
840.028	4.2
840.199	2.94
840.37	-1.83
840.54	-8.51
840.711	-2.07
840.882	-1.4
841.053	-0.88
841.223	-0.62
841.394	-3.99
841.564	-0.11
841.735	1.21
841.906	-0.83
842.076	1.3
842.247	10.75
842.417	6.63
842.588	-3.24
842.758	-6.81
842.929	-1
843.099	-0.59
843.27	8.63
843.44	4.11
843.611	0.63
843.781	3.98
843.951	10.58
844.122	3.74
844.292	10.38
844.462	15.44
844.633	10.47
844.803	4.03
844.973	2.35
845.144	2.63
845.314	3.88
845.484	8.98
845.654	11.42
845.824	-4.15
845.995	-1.72
846.165	-5.46
846.335	-2.23
846.505	-5.55
846.675	6.9
846.845	2.7
847.015	-1.34
847.185	8.14
847.355	8.93
847.525	8.21
847.695	16.84
847.865	15.04
848.035	20.41
848.205	17.53
848.375	24.16
848.545	12.42
848.715	18.56
848.884	8.98
849.054	0.39
849.224	3.41
849.394	1.12
849.564	3.6
849.733	4.78
849.903	2.3
850.073	-18.61
850.243	-20.14
850.412	-14.57
850.582	-27.23
850.752	-45.62
850.921	-39.3
851.091	-47.12
851.26	-52.52
851.43	-94.02
851.599	-67.41
851.769	-82.08
851.939	-65.57
852.108	-71.51
852.278	-51.84
852.447	-47.2
852.616	-9.12
852.786	-3.46
852.955	-4.58
853.125	-13.96
853.294	-0.2
853.463	-3.41
853.633	-2.82
853.802	-3.61
853.971	6.66
854.141	-0.13
854.31	0.41
854.479	-12.54
854.648	-4.04
854.818	1.45
854.987	5.21
855.156	3.02
855.325	-0.66
855.494	0.24
855.663	4.64
855.832	-6.02
856.001	-9.56
856.171	-5.01
856.34	-11.1
856.509	-26.19
856.678	-35.12
856.847	-25.69
857.016	-13.26
857.185	3.3
857.353	10.86
857.522	-1.84
857.691	6.43
857.86	3.99
858.029	-0.08
858.198	-5.02
858.367	-3.99
858.535	-8.16
858.704	-16.29
858.873	-27.47
859.042	-73.43
859.21	-86.67
859.379	-86.24
859.548	-92.24
859.717	-65.6
859.885	-42.59
860.054	-10.47
860.222	6.84
860.391	9.48
860.56	4.97
860.728	-0.11
860.897	-2.13
861.065	-24.77
861.234	-7.04
861.402	-13.49
861.571	-25.95
861.739	-43.71
861.908	-64.49
862.076	-91.96
862.244	-59.38
862.413	-56.06
862.581	-61.1
862.749	-50.11
862.918	-41.57
863.086	-67.79
863.254	-51.1
863.423	-84.32
863.591	-58.24
863.759	-107.87
863.927	-77
864.096	-107.19
864.264	-176.18
864.432	-149.33
864.6	-169.82
864.768	-121.86
864.936	-93.1
865.104	-95.74
865.272	-89.05
865.44	-113.12
865.608	-85.99
865.776	-119.79
865.944	-116.86
866.112	-91.52
866.28	-66
866.448	-51.66
866.616	-55.02
866.784	-53.08
866.952	-58.26
867.12	-71.35
867.288	-56.07
867.455	-45.18
867.623	-45.89
867.791	-14.44
867.959	-20.6
868.127	-64.83
868.294	-64.78
868.462	-67.86
868.63	-56.35
868.797	-40.38
868.965	-24.84
869.133	-21.14
869.3	-15.17
869.468	11.05
869.636	1.07
869.803	14.44
869.971	23.56
870.138	32.53
870.306	31.83
870.473	42.01
870.641	35.07
870.808	45.76
870.975	51.24
871.143	44.41
871.31	5.55
871.478	-4.61
871.645	-21.99
871.812	-21.32
871.98	-29.86
872.147	-25.81
872.314	-44.09
872.482	-37.29
872.649	-59.23
872.816	-53.38
872.983	-44.69
873.15	-17.38
873.318	-14.95
873.485	-15.63
873.652	-29.22
873.819	-21.08
873.986	-27.41
874.153	-26.16
874.32	-23.46
874.487	-19.33
874.654	-11
874.821	-21.51
874.988	-28.67
875.155	-23.52
875.322	-21.96
875.489	-18.8
875.656	-16.53
875.823	-14.19
875.99	-6.5
876.157	-10.08
876.324	-5.96
876.49	-14.78
876.657	-11.46
876.824	-27.72
876.991	-29.93
877.157	-15.97
877.324	-10.76
877.491	-12.85
877.658	5.21
877.824	8.67
877.991	-0.01
878.157	-10.36
878.324	-10.74
878.491	-35.54
878.657	13.78
878.824	26
878.99	-15.05
879.157	-17.14
879.323	6.87
879.49	-6.94
879.656	-2.3
879.823	9.77
879.989	12.27
880.156	9.23
880.322	24.95
880.488	17.31
880.655	21.79
880.821	27.55
880.987	24.68
881.154	18.73
881.32	29.08
881.486	28.11
881.652	30.64
881.819	31.22
881.985	36.9
882.151	34.36
882.317	33.91
882.483	30.9
882.649	29.16
882.816	31.39
882.982	31.24
883.148	26.04
883.314	24.71
883.48	23.23
883.646	24.31
883.812	22.58
883.978	22.94
884.144	21.85
884.31	20.38
884.476	22.08
884.642	21.81
884.807	19.68
884.973	20.1
885.139	20
885.305	19.65
885.471	19.18
885.637	19.3
885.802	17.47
885.968	17.55
886.134	19.93
886.3	22.73
886.465	21.33
886.631	23.79
886.797	23.09
886.962	24.28
887.128	23.57
887.293	17.43
887.459	16.97
887.625	16.27
887.79	14.19
887.956	8.49
888.121	-2.78
888.287	-2.96
888.452	-6.84
888.618	-9.71
888.783	-17.39
