Data from CB_040_Reflection_21-50-25-371.txt Node
Date: Wed Nov 11 21:50:25 EST 2015
User: robert
Spectrometer: USB4E03001
Autoset integration time: false
Trigger mode: 4
Integration Time (sec): 1.000000E-1
Scans to average: 15
Electric dark correction enabled: true
Nonlinearity correction enabled: false
Boxcar width: 5
Stray light correction enabled: false
XAxis mode: Wavelengths
Stop averaging: false
Number of Pixels in Spectrum: 3648
>>>>>Begin Spectral Data<<<<<
177.566	-137.96
177.785	-296.71
178.005	35.09
178.225	68.6
178.445	-12.61
178.665	14.77
178.885	27.52
179.105	-61.98
179.324	-3.01
179.544	67.91
179.764	67.57
179.984	56.67
180.204	74.94
180.423	102.12
180.643	88.58
180.863	60.88
181.083	78.73
181.302	85.32
181.522	90.87
181.742	76.7
181.961	77.74
182.181	87
182.401	84.85
182.621	93.25
182.84	75.85
183.06	73.46
183.279	66.97
183.499	75.52
183.719	67.19
183.938	75.1
184.158	107.77
184.377	94.03
184.597	105.57
184.816	132.71
185.036	117.68
185.256	135.08
185.475	162.86
185.695	222.91
185.914	258.44
186.134	265.09
186.353	214.94
186.572	127.89
186.792	126.46
187.011	115.86
187.231	105.09
187.45	170.06
187.67	160.59
187.889	108.51
188.108	91.62
188.328	78.8
188.547	81.29
188.766	106.92
188.986	145.12
189.205	143.42
189.424	117.87
189.644	120.42
189.863	89.55
190.082	103.52
190.302	106.51
190.521	113.18
190.74	105.8
190.959	95.24
191.178	78.89
191.398	72.13
191.617	74.51
191.836	82.59
192.055	71.68
192.274	71.09
192.494	57.49
192.713	57.33
192.932	77.65
193.151	85.65
193.37	83.12
193.589	89.64
193.808	98.34
194.027	105.71
194.246	105.43
194.465	105.72
194.685	81.93
194.904	75.28
195.123	69.11
195.342	38.54
195.561	39.76
195.78	63.06
195.999	82.32
196.218	76.09
196.436	77.59
196.655	89.04
196.874	136.59
197.093	183.99
197.312	157.44
197.531	166.93
197.75	165.21
197.969	184.32
198.188	121.18
198.407	124.18
198.625	120.38
198.844	114.91
199.063	104.44
199.282	99.55
199.501	124.42
199.719	132.39
199.938	128.27
200.157	168.6
200.376	99.61
200.594	160.97
200.813	109.37
201.032	107.66
201.251	162.47
201.469	122.99
201.688	96.99
201.907	38.3
202.125	47.38
202.344	39.62
202.563	51.7
202.781	41.77
203	46.1
203.218	42.08
203.437	60.29
203.656	46.21
203.874	49.99
204.093	45.88
204.311	64.05
204.53	71.1
204.748	82.9
204.967	82.68
205.185	90.31
205.404	80.59
205.622	101.34
205.841	79.59
206.059	53.36
206.278	66.67
206.496	72.02
206.715	62.31
206.933	63.61
207.151	62.63
207.37	53.24
207.588	54.3
207.806	60.25
208.025	56.34
208.243	59.61
208.461	73.84
208.68	67.54
208.898	71.83
209.116	65.15
209.335	63.96
209.553	47.58
209.771	56.33
209.989	51.52
210.208	48.11
210.426	34.99
210.644	21.59
210.862	48.35
211.081	71.48
211.299	72.14
211.517	98.49
211.735	87.03
211.953	118.72
212.171	120.93
212.39	117.79
212.608	129.13
212.826	113.47
213.044	136.3
213.262	116.9
213.48	107.34
213.698	116.52
213.916	116.93
214.134	125.6
214.352	112.78
214.57	70.8
214.788	65.49
215.006	16.93
215.224	63.24
215.442	-26.19
215.66	-23.35
215.878	33.88
216.096	16.44
216.314	1.46
216.532	-5.09
216.75	14.4
216.968	32.72
217.185	46.17
217.403	48.17
217.621	41.79
217.839	53.08
218.057	52.6
218.275	60.88
218.492	73.34
218.71	68
218.928	67.89
219.146	70.6
219.363	63.54
219.581	86.66
219.799	79.92
220.017	109.82
220.234	111.5
220.452	120.75
220.67	71.36
220.887	67.97
221.105	82.57
221.323	63.88
221.54	64.85
221.758	79.45
221.976	61.18
222.193	58.29
222.411	53.2
222.629	43.61
222.846	38.34
223.064	35.71
223.281	43.31
223.499	48.53
223.716	65.51
223.934	62.18
224.151	50.18
224.369	44.26
224.586	61.32
224.804	64.21
225.021	73.7
225.239	82.95
225.456	84.54
225.674	71.44
225.891	66.33
226.108	65.52
226.326	45.15
226.543	48.05
226.76	48.87
226.978	27.52
227.195	20.27
227.413	24.62
227.63	20.05
227.847	15.94
228.064	18.99
228.282	15.55
228.499	10.41
228.716	16.65
228.934	18.61
229.151	14.09
229.368	13.85
229.585	12.91
229.802	9.64
230.02	9.64
230.237	10.72
230.454	8.02
230.671	7.99
230.888	7.45
231.105	6.42
231.323	9.07
231.54	16.2
231.757	16.01
231.974	18.9
232.191	19.95
232.408	20.6
232.625	21.46
232.842	25.14
233.059	27.45
233.276	32.83
233.493	28.69
233.71	21.3
233.927	18.36
234.144	19.97
234.361	16.23
234.578	19.78
234.795	16.42
235.012	16.57
235.229	17.98
235.446	18.42
235.663	14.6
235.879	17.38
236.096	17.55
236.313	16.51
236.53	17.71
236.747	18.69
236.964	17.83
237.181	24.75
237.397	23.05
237.614	20.58
237.831	20.45
238.048	21.81
238.264	25.17
238.481	26.74
238.698	29.71
238.915	33.39
239.131	33.69
239.348	32.66
239.565	29.71
239.781	32.17
239.998	32.2
240.215	32.97
240.431	34.21
240.648	32.45
240.865	30.85
241.081	30.24
241.298	27.21
241.514	24.71
241.731	25.65
241.947	22.4
242.164	20.5
242.38	19.51
242.597	17.6
242.814	17.2
243.03	18.4
243.246	18.97
243.463	17.29
243.679	15.56
243.896	17.13
244.112	16.69
244.329	20.52
244.545	20.33
244.762	18.7
244.978	19.61
245.194	19.11
245.411	16.45
245.627	14.81
245.843	16.41
246.06	15.61
246.276	14.37
246.492	13.34
246.709	10.85
246.925	12.04
247.141	13.46
247.357	12.84
247.574	12.49
247.79	12.96
248.006	13.67
248.222	13.75
248.439	14.41
248.655	15.09
248.871	15.56
249.087	16.58
249.303	17.73
249.519	17.55
249.736	19
249.952	19.89
250.168	19.15
250.384	17.92
250.6	16.06
250.816	18.27
251.032	16.34
251.248	16.99
251.464	16.63
251.68	14.36
251.896	14.58
252.112	14.21
252.328	13.23
252.544	14.31
252.76	14.77
252.976	15.31
253.192	13.98
253.408	15.02
253.624	14.59
253.84	14.8
254.056	14.31
254.272	16.6
254.487	16
254.703	16.23
254.919	16.66
255.135	16.67
255.351	16.95
255.567	19.32
255.782	19.84
255.998	17.8
256.214	18.3
256.43	19.63
256.646	15.43
256.861	14.64
257.077	13.51
257.293	11.16
257.508	10.44
257.724	11.7
257.94	11.53
258.155	11.58
258.371	10.97
258.587	11.3
258.802	11.19
259.018	10.98
259.234	9.84
259.449	10.8
259.665	11.38
259.88	11.39
260.096	10.88
260.312	10.47
260.527	10.44
260.743	10.96
260.958	10.57
261.174	10.16
261.389	10.71
261.605	12.28
261.82	12.44
262.036	12.65
262.251	13.31
262.466	13.87
262.682	14.36
262.897	13.87
263.113	14.08
263.328	14.2
263.543	13.97
263.759	13.51
263.974	14.09
264.189	14.04
264.405	13.88
264.62	12.89
264.835	12.3
265.051	10.83
265.266	12.32
265.481	11.55
265.696	11.14
265.912	12.03
266.127	13.87
266.342	12.76
266.557	12.71
266.773	11.53
266.988	11.71
267.203	10.42
267.418	10.8
267.633	11.81
267.848	12.96
268.064	12.95
268.279	11.55
268.494	9.68
268.709	9.63
268.924	10.06
269.139	11.25
269.354	12.4
269.569	13.07
269.784	14.47
269.999	12.62
270.214	12.29
270.429	12.37
270.644	13.8
270.859	14.81
271.074	14.08
271.289	14.1
271.504	14.68
271.719	13.35
271.934	13.05
272.149	12.53
272.363	13.31
272.578	12.67
272.793	12.83
273.008	12.55
273.223	11.22
273.438	10.99
273.653	11.74
273.867	10.71
274.082	10.78
274.297	11.43
274.512	12.26
274.726	10.61
274.941	11.4
275.156	12.17
275.371	10.99
275.585	12.97
275.8	13.9
276.015	12.69
276.229	12.51
276.444	13.18
276.659	13.11
276.873	11.14
277.088	13.17
277.302	13.44
277.517	14.04
277.732	16.28
277.946	14.32
278.161	14.78
278.375	15.16
278.59	15.89
278.804	15.58
279.019	14.05
279.233	14.97
279.448	13.38
279.662	13.63
279.877	13.06
280.091	12.53
280.306	14.19
280.52	12.46
280.735	11.78
280.949	11.76
281.163	12.07
281.378	12.01
281.592	11.62
281.806	12.99
282.021	11.49
282.235	9.88
282.449	8.86
282.664	8.13
282.878	7.84
283.092	7.76
283.307	8.06
283.521	7.65
283.735	9.27
283.949	10.26
284.164	9.08
284.378	9.66
284.592	10.33
284.806	11.21
285.02	10.86
285.234	12.45
285.449	12.09
285.663	11.28
285.877	11.25
286.091	11.05
286.305	10.47
286.519	10.8
286.733	11.6
286.947	12.31
287.161	11.41
287.375	11.96
287.589	12.06
287.803	11.68
288.017	12.27
288.231	12.86
288.445	12.88
288.659	12.54
288.873	13.19
289.087	11.94
289.301	12.07
289.515	13.17
289.729	12.79
289.943	12.14
290.157	12.82
290.371	11.6
290.584	11.37
290.798	11.45
291.012	12.03
291.226	12.24
291.44	12.9
291.654	11.84
291.867	11.7
292.081	11.31
292.295	10.87
292.509	10.74
292.722	11.72
292.936	11.86
293.15	13.16
293.364	12.48
293.577	11.49
293.791	11.79
294.005	11.78
294.218	13.11
294.432	14.56
294.645	14.72
294.859	15.18
295.073	15.44
295.286	15.29
295.5	14.3
295.713	15.14
295.927	14.26
296.14	14.5
296.354	14.22
296.568	13.19
296.781	12.23
296.994	12.35
297.208	12.63
297.421	11.54
297.635	11.19
297.848	11.67
298.062	11.83
298.275	12.72
298.489	12.58
298.702	13.52
298.915	13.59
299.129	15.31
299.342	15.96
299.555	16.17
299.769	17.78
299.982	18.9
300.195	18.41
300.409	17.65
300.622	17.77
300.835	17.02
301.048	16.18
301.262	16.49
301.475	15.7
301.688	16.31
301.901	16.42
302.115	15.99
302.328	16.1
302.541	16.09
302.754	14.69
302.967	14.65
303.18	16.13
303.393	16.26
303.607	15.95
303.82	15.42
304.033	13.26
304.246	12.42
304.459	13.65
304.672	12.87
304.885	13.62
305.098	15.22
305.311	15.49
305.524	14.28
305.737	14.64
305.95	14.18
306.163	15.31
306.376	17.04
306.589	17.36
306.802	16.81
307.015	17.64
307.228	16.86
307.44	17.81
307.653	18.62
307.866	18.32
308.079	18.26
308.292	17.51
308.505	17.09
308.718	17.11
308.93	17.95
309.143	17.81
309.356	17.35
309.569	17.47
309.781	16.26
309.994	15.24
310.207	15.92
310.42	15.75
310.632	16.69
310.845	16.14
311.058	16.57
311.27	16.4
311.483	15.77
311.696	15.95
311.908	16.29
312.121	16.7
312.333	16.89
312.546	16.44
312.759	17.4
312.971	18.29
313.184	18.32
313.396	17.99
313.609	17.84
313.821	18.33
314.034	18.25
314.246	17.21
314.459	17.07
314.671	16.75
314.884	17.79
315.096	17.01
315.309	15.37
315.521	15.48
315.733	15.2
315.946	15
316.158	14.95
316.371	14.61
316.583	15.2
316.795	15.44
317.008	16.38
317.22	15.58
317.432	15.81
317.644	16.51
317.857	17.43
318.069	17.45
318.281	16.1
318.494	16.58
318.706	17.85
318.918	18.39
319.13	18.73
319.342	17.83
319.555	18.36
319.767	18.18
319.979	17.99
320.191	17.92
320.403	19.33
320.615	20.7
320.827	21.09
321.039	19.16
321.252	19.9
321.464	20.14
321.676	20.46
321.888	20.2
322.1	19.75
322.312	20.28
322.524	20.33
322.736	19.06
322.948	19.43
323.16	18.72
323.372	19.84
323.584	18.48
323.796	19.07
324.007	19.1
324.219	19.67
324.431	20.16
324.643	19.77
324.855	19.14
325.067	19.1
325.279	19.35
325.491	19.93
325.702	20.18
325.914	21.21
326.126	20.23
326.338	19.91
326.55	19.93
326.761	19.98
326.973	20.63
327.185	21.42
327.396	22.03
327.608	20.68
327.82	20.85
328.032	21.29
328.243	20.53
328.455	20.86
328.666	21.28
328.878	20.4
329.09	20.77
329.301	19.69
329.513	19.03
329.725	17.73
329.936	19.81
330.148	19.49
330.359	19.2
330.571	19.53
330.782	19.25
330.994	18.84
331.205	19.28
331.417	20.28
331.628	21.2
331.84	22.5
332.051	24
332.262	23.19
332.474	23.83
332.685	23.69
332.897	24.15
333.108	24.32
333.319	25.51
333.531	27.06
333.742	26.34
333.953	25.76
334.165	24.11
334.376	23.84
334.587	23.82
334.799	23.25
335.01	23.04
335.221	23.39
335.432	24.95
335.644	24.69
335.855	24
336.066	24.44
336.277	25.74
336.488	27.01
336.7	27.24
336.911	27.43
337.122	28.11
337.333	27.99
337.544	27.66
337.755	27.29
337.966	27.28
338.177	27.21
338.388	26.58
338.599	26.62
338.811	25.5
339.022	25.12
339.233	25.45
339.444	25.3
339.655	25.57
339.866	25.88
340.076	24.7
340.287	25.35
340.498	25.02
340.709	24.76
340.92	24.16
341.131	25.14
341.342	25.53
341.553	25.62
341.764	25.05
341.975	25.05
342.185	24.67
342.396	24.75
342.607	24.96
342.818	24.51
343.029	24.73
343.239	25.55
343.45	25.42
343.661	25.06
343.872	24.55
344.082	24.51
344.293	24.73
344.504	24.39
344.714	24.39
344.925	23.7
345.136	24.62
345.346	25.22
345.557	24.43
345.768	24.48
345.978	24.42
346.189	24.65
346.399	24.33
346.61	24.41
346.821	23.93
347.031	24.28
347.242	25.03
347.452	24.45
347.663	24.07
347.873	24.56
348.084	24.32
348.294	24.89
348.504	24.41
348.715	25.4
348.925	25.5
349.136	26.06
349.346	25.46
349.557	24.45
349.767	24.95
349.977	24.6
350.188	24
350.398	24.13
350.608	23.69
350.819	23.94
351.029	22.75
351.239	21.91
351.449	22.77
351.66	22.36
351.87	22.67
352.08	22.67
352.29	22.77
352.501	23.21
352.711	23.63
352.921	23.25
353.131	23.93
353.341	24.47
353.552	24.9
353.762	24.02
353.972	25.17
354.182	24.69
354.392	24.09
354.602	23.87
354.812	23.07
355.022	22.32
355.232	22.74
355.442	21.97
355.652	21.87
355.862	22.08
356.072	22.05
356.282	21.71
356.492	22.51
356.702	22.84
356.912	22.6
357.122	22.65
357.332	22.95
357.542	23.24
357.752	23.36
357.962	23.05
358.171	22.48
358.381	22.69
358.591	22.39
358.801	21.48
359.011	20.81
359.221	21.21
359.43	21.64
359.64	21.05
359.85	20.63
360.06	20.43
360.269	20.73
360.479	20.99
360.689	21.68
360.899	21.75
361.108	22.22
361.318	22.42
361.528	22.24
361.737	21.82
361.947	22.08
362.156	21.57
362.366	21.6
362.576	21.43
362.785	21.34
362.995	20.79
363.204	20.54
363.414	20.38
363.623	20.45
363.833	20.55
364.042	20.93
364.252	21.32
364.461	21.69
364.671	21.62
364.88	22.04
365.09	22.12
365.299	21.74
365.509	22.23
365.718	22.04
365.927	21.55
366.137	21.21
366.346	20.92
366.555	20.76
366.765	20.81
366.974	20.86
367.183	20.18
367.393	20.37
367.602	20.43
367.811	19.69
368.021	19.75
368.23	19.91
368.439	20.11
368.648	20.13
368.857	19.27
369.067	19.11
369.276	18.92
369.485	18.99
369.694	19.28
369.903	19.03
370.112	19.5
370.321	19.73
370.531	19.8
370.74	19.84
370.949	19.73
371.158	19.76
371.367	19.49
371.576	19.56
371.785	19.54
371.994	19.17
372.203	19.66
372.412	19.86
372.621	19.11
372.83	18.6
373.039	18.06
373.248	18.13
373.457	18.54
373.666	18.85
373.874	18.04
374.083	17.39
374.292	16.59
374.501	16.37
374.71	15.5
374.919	15.84
375.128	16.54
375.336	16.88
375.545	16.91
375.754	17.13
375.963	16.57
376.171	16.86
376.38	16.8
376.589	17.06
376.798	16.33
377.006	16.38
377.215	16.65
377.424	16.57
377.632	16.39
377.841	16.26
378.05	15.74
378.258	15.88
378.467	15.67
378.675	16.41
378.884	16.47
379.093	16.45
379.301	16.16
379.51	15.72
379.718	15.76
379.927	15.82
380.135	15.55
380.344	15.42
380.552	15.69
380.761	15.37
380.969	14.97
381.177	14.94
381.386	14.83
381.594	15.41
381.803	15.12
382.011	14.47
382.219	14.18
382.428	14.26
382.636	14.1
382.845	14.09
383.053	14.48
383.261	14.23
383.469	13.77
383.678	13.86
383.886	13.3
384.094	13.53
384.302	13.89
384.511	13.95
384.719	13.58
384.927	14.04
385.135	13.76
385.343	13.79
385.552	13.88
385.76	14.12
385.968	13.99
386.176	14.17
386.384	13.93
386.592	13.39
386.8	13.46
387.008	13.8
387.216	13.63
387.424	13.65
387.633	13.5
387.841	13.43
388.049	13.12
388.257	13.35
388.465	13.27
388.672	13.32
388.88	13.66
389.088	13.59
389.296	13.11
389.504	12.4
389.712	12.45
389.92	12.44
390.128	12.39
390.336	12.7
390.544	12.52
390.751	12.64
390.959	12.72
391.167	12.37
391.375	12.29
391.583	12.4
391.79	12.67
391.998	12.39
392.206	12.4
392.414	12.38
392.621	11.82
392.829	12.09
393.037	11.85
393.244	11.83
393.452	11.86
393.66	11.56
393.867	11.58
394.075	11.29
394.283	11.28
394.49	11.05
394.698	10.91
394.905	11.26
395.113	10.82
395.32	10.74
395.528	10.63
395.735	10.61
395.943	10.64
396.15	10.54
396.358	10.72
396.565	10.81
396.773	10.78
396.98	11.2
397.188	10.88
397.395	11.28
397.602	11.29
397.81	11.27
398.017	10.94
398.225	10.6
398.432	10.65
398.639	10.73
398.847	10.64
399.054	10.93
399.261	10.37
399.468	10.58
399.676	10.36
399.883	10.37
400.09	10.05
400.297	10.31
400.505	10.48
400.712	10.47
400.919	10.19
401.126	10.28
401.333	10.08
401.54	9.91
401.748	9.86
401.955	10.02
402.162	9.93
402.369	10.17
402.576	10.17
402.783	10.12
402.99	9.81
403.197	9.68
403.404	9.33
403.611	9.3
403.818	9.22
404.025	8.83
404.232	8.58
404.439	8.43
404.646	8.09
404.853	8.12
405.06	8.17
405.267	8.06
405.474	8.09
405.681	8.12
405.887	8.25
406.094	8.48
406.301	8.87
406.508	8.67
406.715	8.69
406.922	9.02
407.128	9.05
407.335	8.88
407.542	8.95
407.749	8.97
407.955	8.97
408.162	8.72
408.369	8.48
408.575	8.18
408.782	8.52
408.989	8.49
409.195	8.17
409.402	7.85
409.609	8.09
409.815	7.84
410.022	8.15
410.228	8.11
410.435	8.37
410.642	8.5
410.848	8.37
411.055	8.3
411.261	8.35
411.468	8.31
411.674	8.43
411.881	8.45
412.087	8.8
412.294	8.65
412.5	8.86
412.706	8.6
412.913	8.58
413.119	8.98
413.326	8.79
413.532	8.85
413.738	9.1
413.945	8.92
414.151	8.88
414.357	8.52
414.564	8.27
414.77	8.15
414.976	8.27
415.182	8.27
415.389	7.82
415.595	7.8
415.801	7.59
416.007	7.51
416.214	7.37
416.42	7.42
416.626	7.59
416.832	7.65
417.038	7.6
417.244	7.43
417.45	7.36
417.657	7.52
417.863	7.57
418.069	7.58
418.275	7.72
418.481	7.86
418.687	7.83
418.893	7.86
419.099	7.94
419.305	7.78
419.511	7.85
419.717	7.93
419.923	7.82
420.129	7.8
420.335	7.85
420.541	7.8
420.746	7.71
420.952	7.53
421.158	7.44
421.364	7.32
421.57	7.27
421.776	7.19
421.982	7.12
422.187	7.2
422.393	6.99
422.599	6.84
422.805	6.7
423.01	6.75
423.216	6.7
423.422	6.74
423.628	6.76
423.833	6.82
424.039	6.73
424.245	6.78
424.45	6.73
424.656	6.91
424.862	6.94
425.067	6.98
425.273	7.01
425.478	7.04
425.684	7.16
425.889	7
426.095	7.04
426.301	7.11
426.506	7.2
426.712	7.13
426.917	7.05
427.123	7.09
427.328	7.13
427.533	7.09
427.739	7.15
427.944	7
428.15	7.27
428.355	7.24
428.561	7.16
428.766	6.92
428.971	7.15
429.177	7.27
429.382	7.17
429.587	7.08
429.793	6.95
429.998	6.98
430.203	6.69
430.408	6.62
430.614	6.7
430.819	6.73
431.024	6.79
431.229	6.67
431.434	6.42
431.64	6.68
431.845	6.61
432.05	6.64
432.255	6.59
432.46	6.75
432.665	6.44
432.87	6.43
433.076	6.44
433.281	6.4
433.486	6.26
433.691	6.4
433.896	6.13
434.101	6.09
434.306	6.26
434.511	6.22
434.716	6.25
434.921	6.62
435.126	6.6
435.331	6.52
435.535	6.55
435.74	6.51
435.945	6.44
436.15	6.69
436.355	6.72
436.56	6.65
436.765	6.52
436.97	6.5
437.174	6.51
437.379	6.53
437.584	6.79
437.789	6.76
437.993	7
438.198	7.06
438.403	6.99
438.608	6.93
438.812	6.8
439.017	6.97
439.222	7.02
439.426	6.79
439.631	6.74
439.836	6.71
440.04	6.58
440.245	6.4
440.45	6.3
440.654	6.38
440.859	6.37
441.063	6.36
441.268	6.33
441.472	6.23
441.677	6.31
441.881	6.37
442.086	6.23
442.29	6.33
442.495	6.39
442.699	6.36
442.904	6.18
443.108	6.28
443.312	6.35
443.517	6.35
443.721	6.51
443.925	6.37
444.13	6.2
444.334	6.26
444.538	6.22
444.743	6.15
444.947	6.15
445.151	6.1
445.356	6.09
445.56	6.04
445.764	6
445.968	5.9
446.173	6.01
446.377	5.96
446.581	5.93
446.785	5.94
446.989	5.86
447.193	5.91
447.398	5.77
447.602	5.68
447.806	5.75
448.01	5.76
448.214	5.71
448.418	5.62
448.622	5.65
448.826	5.56
449.03	5.63
449.234	5.75
449.438	5.74
449.642	6.03
449.846	6.23
450.05	6.33
450.254	6.23
450.458	6.32
450.662	6.46
450.866	6.53
451.069	6.63
451.273	6.24
451.477	6.39
451.681	6.34
451.885	6.26
452.089	5.94
452.292	5.82
452.496	5.93
452.7	5.89
452.904	5.85
453.107	5.92
453.311	5.8
453.515	6.12
453.719	6
453.922	5.85
454.126	5.79
454.33	6.02
454.533	6.13
454.737	6.14
454.94	6.2
455.144	6.05
455.348	5.98
455.551	6.17
455.755	5.98
455.958	6.23
456.162	6.36
456.365	6.38
456.569	6.33
456.772	6.24
456.976	6.13
457.179	6.1
457.383	6.1
457.586	6.15
457.79	5.97
457.993	5.97
458.196	5.78
458.4	5.81
458.603	5.79
458.807	5.7
459.01	5.62
459.213	5.76
459.417	5.89
459.62	6.03
459.823	5.9
460.026	5.91
460.23	6.02
460.433	5.94
460.636	5.9
460.839	5.98
461.042	6.1
461.246	6.06
461.449	5.86
461.652	5.72
461.855	5.66
462.058	5.8
462.261	5.85
462.464	5.82
462.668	5.91
462.871	5.9
463.074	5.73
463.277	5.66
463.48	5.9
463.683	6.1
463.886	5.98
464.089	6.09
464.292	6.11
464.495	6.03
464.698	6.26
464.901	6.21
465.104	6.23
465.306	6.18
465.509	6.18
465.712	5.97
465.915	5.94
466.118	6.06
466.321	5.86
466.524	5.94
466.726	5.94
466.929	5.67
467.132	5.59
467.335	5.67
467.538	5.99
467.74	6.12
467.943	6.21
468.146	6.26
468.348	6.2
468.551	6.2
468.754	6.14
468.956	6.11
469.159	6.1
469.362	6.3
469.564	6.31
469.767	6.2
469.969	6.03
470.172	5.84
470.375	5.78
470.577	5.89
470.78	5.91
470.982	5.93
471.185	6.07
471.387	6.2
471.59	6.15
471.792	5.99
471.995	5.87
472.197	6.04
472.399	6.14
472.602	6.26
472.804	6.39
473.007	6.49
473.209	6.39
473.411	6.17
473.614	6.05
473.816	6.06
474.018	6.25
474.22	6.32
474.423	6.2
474.625	6.1
474.827	6.14
475.03	6.02
475.232	5.93
475.434	5.85
475.636	5.94
475.838	5.82
476.04	5.67
476.243	5.54
476.445	5.34
476.647	5.43
476.849	5.68
477.051	5.42
477.253	5.33
477.455	5.3
477.657	5.32
477.859	5.42
478.061	5.65
478.263	5.77
478.465	5.76
478.667	5.81
478.869	5.7
479.071	5.55
479.273	5.81
479.475	5.95
479.677	6.06
479.879	6.14
480.081	6.21
480.283	6.01
480.485	6.17
480.686	6.11
480.888	6.17
481.09	6.2
481.292	6.25
481.494	6.11
481.695	5.96
481.897	5.76
482.099	5.72
482.301	5.61
482.502	5.72
482.704	5.6
482.906	5.62
483.107	5.67
483.309	5.55
483.511	5.48
483.712	5.5
483.914	5.5
484.115	5.56
484.317	5.54
484.519	5.5
484.72	5.45
484.922	5.4
485.123	5.43
485.325	5.36
485.526	5.45
485.728	5.49
485.929	5.49
486.131	5.49
486.332	5.49
486.534	5.53
486.735	5.52
486.936	5.54
487.138	5.63
487.339	5.55
487.541	5.55
487.742	5.5
487.943	5.51
488.144	5.44
488.346	5.44
488.547	5.4
488.748	5.36
488.95	5.41
489.151	5.4
489.352	5.36
489.553	5.45
489.755	5.45
489.956	5.53
490.157	5.46
490.358	5.57
490.559	5.53
490.76	5.5
490.961	5.58
491.163	5.57
491.364	5.59
491.565	5.65
491.766	5.63
491.967	5.7
492.168	5.64
492.369	5.69
492.57	5.6
492.771	5.68
492.972	5.72
493.173	5.65
493.374	5.7
493.575	5.67
493.776	5.6
493.976	5.59
494.177	5.54
494.378	5.63
494.579	5.69
494.78	5.76
494.981	5.63
495.182	5.65
495.382	5.9
495.583	5.83
495.784	5.86
495.985	5.89
496.185	5.86
496.386	5.87
496.587	5.86
496.788	5.81
496.988	5.83
497.189	5.97
497.39	6.12
497.59	5.98
497.791	6.14
497.992	6.13
498.192	6.04
498.393	5.86
498.593	5.96
498.794	5.86
498.994	5.79
499.195	5.78
499.395	5.68
499.596	5.63
499.796	5.58
499.997	5.69
500.197	5.78
500.398	6.02
500.598	6.2
500.799	6.25
500.999	6.34
501.199	6.54
501.4	6.82
501.6	7.03
501.801	6.89
502.001	6.91
502.201	6.78
502.402	6.61
502.602	6.48
502.802	6.62
503.002	6.5
503.203	6.62
503.403	6.67
503.603	6.64
503.803	6.81
504.003	6.81
504.204	6.98
504.404	6.99
504.604	7.19
504.804	7.36
505.004	7.51
505.204	7.56
505.404	7.52
505.604	7.41
505.804	7.46
506.005	7.34
506.205	7.51
506.405	7.54
506.605	7.54
506.805	7.74
507.005	7.87
507.204	7.86
507.404	8.02
507.604	8
507.804	8.11
508.004	8.1
508.204	8.01
508.404	8.05
508.604	8
508.804	8.1
509.003	8.08
509.203	8.01
509.403	7.99
509.603	8
509.803	8.17
510.002	8.25
510.202	8.26
510.402	8.52
510.602	8.71
510.801	8.71
511.001	8.73
511.201	8.8
511.4	8.87
511.6	9.08
511.8	9.15
511.999	9.2
512.199	9.24
512.398	9.42
512.598	9.44
512.797	9.45
512.997	9.76
513.197	9.84
513.396	9.89
513.596	9.97
513.795	10.04
513.994	10.15
514.194	10.11
514.393	10.17
514.593	10.31
514.792	10.41
514.992	10.55
515.191	10.48
515.39	10.52
515.59	10.68
515.789	10.74
515.988	10.84
516.188	10.89
516.387	11.12
516.586	11.37
516.786	11.24
516.985	11.37
517.184	11.33
517.383	11.49
517.582	11.61
517.782	11.55
517.981	11.73
518.18	11.69
518.379	11.78
518.578	11.84
518.777	11.69
518.976	11.85
519.176	11.74
519.375	11.91
519.574	11.94
519.773	12.05
519.972	12.14
520.171	12.12
520.37	12.28
520.569	12.26
520.768	12.25
520.967	12.59
521.166	12.63
521.365	12.82
521.564	12.91
521.762	12.94
521.961	12.96
522.16	13.05
522.359	13.02
522.558	12.93
522.757	12.89
522.956	13.07
523.154	13.01
523.353	13.08
523.552	13.34
523.751	13.43
523.949	13.58
524.148	13.63
524.347	13.75
524.546	14.05
524.744	14.13
524.943	14.31
525.142	14.36
525.34	14.41
525.539	14.59
525.737	14.57
525.936	14.58
526.135	14.68
526.333	14.79
526.532	14.69
526.73	14.6
526.929	14.72
527.127	14.87
527.326	14.87
527.524	14.94
527.723	14.99
527.921	15.02
528.12	15.07
528.318	15.06
528.516	15.05
528.715	15.17
528.913	15.31
529.112	15.31
529.31	15.25
529.508	15.32
529.707	15.33
529.905	15.35
530.103	15.33
530.301	15.29
530.5	15.36
530.698	15.49
530.896	15.66
531.094	15.66
531.293	15.83
531.491	16.08
531.689	16.27
531.887	16.42
532.085	16.57
532.283	16.7
532.481	16.89
532.68	16.94
532.878	17.01
533.076	17.02
533.274	17.07
533.472	17.13
533.67	17.1
533.868	17.15
534.066	17.23
534.264	17.23
534.462	17.3
534.66	17.42
534.858	17.49
535.056	17.64
535.253	17.72
535.451	17.8
535.649	17.85
535.847	17.92
536.045	17.98
536.243	17.94
536.441	17.97
536.638	18.12
536.836	18.14
537.034	18.16
537.232	18.13
537.43	18.24
537.627	18.42
537.825	18.58
538.023	18.69
538.22	18.63
538.418	18.9
538.616	18.96
538.813	19.12
539.011	19.29
539.209	19.4
539.406	19.52
539.604	19.55
539.801	19.53
539.999	19.54
540.196	19.64
540.394	19.72
540.591	19.75
540.789	19.84
540.986	19.8
541.184	19.7
541.381	19.79
541.579	19.85
541.776	19.87
541.974	19.87
542.171	19.94
542.368	20.03
542.566	20.17
542.763	20.16
542.96	20.17
543.158	20.18
543.355	20.33
543.552	20.43
543.75	20.46
543.947	20.44
544.144	20.53
544.341	20.6
544.539	20.57
544.736	20.48
544.933	20.69
545.13	20.75
545.327	20.97
545.524	20.95
545.722	20.83
545.919	20.79
546.116	20.93
546.313	21.07
546.51	21.1
546.707	21.16
546.904	21.25
547.101	21.19
547.298	21.29
547.495	21.24
547.692	21.35
547.889	21.48
548.086	21.66
548.283	21.79
548.48	21.73
548.677	21.87
548.874	21.88
549.07	22.12
549.267	22.2
549.464	22.38
549.661	22.63
549.858	22.85
550.055	22.99
550.251	23.08
550.448	23.23
550.645	23.59
550.842	23.35
551.038	23.56
551.235	23.62
551.432	23.7
551.628	23.69
551.825	23.57
552.022	23.61
552.218	23.71
552.415	23.83
552.612	23.87
552.808	23.99
553.005	24.3
553.201	24.19
553.398	23.97
553.594	24.24
553.791	24.41
553.987	24.61
554.184	24.57
554.38	24.7
554.577	24.61
554.773	24.75
554.97	24.76
555.166	24.75
555.362	25.07
555.559	25.69
555.755	25.41
555.952	25.35
556.148	25.61
556.344	25.73
556.541	25.61
556.737	25.63
556.933	25.73
557.129	25.81
557.326	25.58
557.522	25.52
557.718	25.18
557.914	25.48
558.11	25.67
558.307	25.55
558.503	25.61
558.699	25.89
558.895	26.2
559.091	26.15
559.287	26.23
559.483	26.42
559.679	26.57
559.876	26.73
560.072	26.53
560.268	26.44
560.464	26.47
560.66	26.41
560.856	26.48
561.052	26.58
561.247	26.66
561.443	26.59
561.639	26.88
561.835	26.89
562.031	27.08
562.227	27.38
562.423	27.4
562.619	27.36
562.815	27.31
563.01	27.32
563.206	27.41
563.402	27.49
563.598	27.53
563.793	27.34
563.989	27.45
564.185	27.33
564.381	27.48
564.576	27.63
564.772	27.67
564.968	28
565.163	27.99
565.359	27.87
565.555	27.81
565.75	27.69
565.946	27.81
566.141	27.85
566.337	27.91
566.532	27.81
566.728	27.77
566.923	27.91
567.119	27.92
567.314	28.17
567.51	28.18
567.705	28.14
567.901	28.33
568.096	28.46
568.292	28.38
568.487	28.31
568.682	28.39
568.878	28.73
569.073	28.83
569.268	28.8
569.464	28.56
569.659	28.6
569.854	28.59
570.05	28.77
570.245	28.98
570.44	29.16
570.635	29.4
570.831	29.43
571.026	29.22
571.221	29.25
571.416	29.28
571.611	29.29
571.806	29.44
572.002	29.52
572.197	29.55
572.392	29.41
572.587	29.34
572.782	29.34
572.977	29.49
573.172	29.61
573.367	29.5
573.562	29.37
573.757	29.55
573.952	29.54
574.147	29.8
574.342	29.82
574.537	29.65
574.732	29.59
574.927	29.67
575.121	29.63
575.316	29.56
575.511	29.52
575.706	29.46
575.901	29.43
576.096	29.34
576.29	29.24
576.485	29.16
576.68	29.32
576.875	29.61
577.069	29.56
577.264	29.6
577.459	29.83
577.654	30.09
577.848	30.37
578.043	30.58
578.238	30.69
578.432	30.73
578.627	30.66
578.821	31.02
579.016	30.92
579.21	30.7
579.405	30.74
579.6	30.62
579.794	30.46
579.989	30.58
580.183	30.54
580.378	30.96
580.572	30.9
580.766	31.28
580.961	31.38
581.155	31.26
581.35	31.4
581.544	31.3
581.738	31.35
581.933	31.69
582.127	31.68
582.321	31.59
582.516	31.2
582.71	31.36
582.904	30.93
583.099	30.6
583.293	31.05
583.487	31.15
583.681	31.11
583.875	31.11
584.07	30.89
584.264	30.93
584.458	30.77
584.652	30.98
584.846	30.73
585.04	31.14
585.234	31.16
585.428	30.87
585.623	31.1
585.817	31.29
586.011	31.26
586.205	31.44
586.399	31.55
586.593	31.78
586.787	31.92
586.981	32.12
587.174	32.24
587.368	32.33
587.562	32.54
587.756	32.52
587.95	32.28
588.144	32.35
588.338	32.39
588.532	32.35
588.725	32.53
588.919	32.41
589.113	32.58
589.307	32.45
589.501	32.49
589.694	32.51
589.888	32.53
590.082	32.82
590.275	32.84
590.469	32.76
590.663	32.63
590.856	32.66
591.05	32.65
591.244	32.7
591.437	32.67
591.631	32.8
591.824	32.7
592.018	32.58
592.212	32.45
592.405	32.43
592.599	32.46
592.792	32.63
592.986	32.71
593.179	32.86
593.372	32.99
593.566	33.12
593.759	32.92
593.953	32.92
594.146	33.11
594.339	33.18
594.533	33.49
594.726	33.5
594.92	33.31
595.113	33.16
595.306	32.99
595.499	32.96
595.693	32.7
595.886	32.9
596.079	32.82
596.272	32.94
596.466	32.74
596.659	32.53
596.852	32.57
597.045	32.88
597.238	32.93
597.431	32.96
597.624	32.72
597.818	33.08
598.011	32.85
598.204	33.06
598.397	32.86
598.59	32.75
598.783	32.74
598.976	32.85
599.169	32.48
599.362	32.28
599.555	32.81
599.748	32.84
599.941	32.69
600.134	33.07
600.326	32.94
600.519	33.14
600.712	33.44
600.905	33.52
601.098	33.49
601.291	34.06
601.483	34.43
601.676	33.96
601.869	34.07
602.062	34.12
602.255	33.93
602.447	34.1
602.64	34.21
602.833	34.2
603.025	34.06
603.218	34.02
603.411	33.89
603.603	33.79
603.796	33.95
603.989	33.96
604.181	34.01
604.374	34.05
604.566	34
604.759	34.06
604.951	34.39
605.144	34.46
605.336	34.44
605.529	34.37
605.721	34.31
605.914	34.3
606.106	34.22
606.299	34.25
606.491	34.24
606.683	34.25
606.876	33.95
607.068	33.65
607.26	33.83
607.453	33.84
607.645	33.81
607.837	33.96
608.03	33.9
608.222	34.21
608.414	33.93
608.606	34.01
608.799	33.92
608.991	33.85
609.183	33.94
609.375	33.76
609.567	33.54
609.759	33.75
609.952	33.78
610.144	33.76
610.336	33.54
610.528	33.4
610.72	33.53
610.912	33.72
611.104	33.96
611.296	33.96
611.488	33.84
611.68	34.12
611.872	34.11
612.064	34.14
612.256	34.05
612.448	34.17
612.64	34.76
612.832	34.59
613.023	34.37
613.215	34.11
613.407	34.05
613.599	34.59
613.791	34.74
613.983	34.93
614.174	34.98
614.366	35.26
614.558	35.46
614.75	35.27
614.941	35.55
615.133	35.39
615.325	35.73
615.516	35.94
615.708	35.61
615.9	35.62
616.091	35.27
616.283	35.14
616.475	34.96
616.666	34.95
616.858	34.76
617.049	34.81
617.241	35.18
617.432	34.82
617.624	35.04
617.815	35.54
618.007	35.45
618.198	35.87
618.39	35.97
618.581	36.26
618.773	36.61
618.964	36.77
619.155	36.52
619.347	36.34
619.538	36.85
619.729	36.52
619.921	36.36
620.112	36.52
620.303	35.95
620.494	35.93
620.686	35.6
620.877	35.3
621.068	35.47
621.259	35.52
621.451	35.8
621.642	35.53
621.833	36.05
622.024	36.06
622.215	36.02
622.406	36.26
622.597	36.26
622.788	36.15
622.98	36.01
623.171	35.89
623.362	35.97
623.553	35.7
623.744	35.7
623.935	35.24
624.126	35.04
624.317	34.93
624.508	34.68
624.698	34.66
624.889	35.05
625.08	35.1
625.271	35.5
625.462	35.44
625.653	35.65
625.844	35.75
626.034	35.92
626.225	35.94
626.416	36.12
626.607	36.41
626.798	36.36
626.988	36.24
627.179	36.16
627.37	35.86
627.56	35.95
627.751	35.81
627.942	35.84
628.132	35.79
628.323	35.8
628.514	35.74
628.704	35.71
628.895	35.67
629.085	35.66
629.276	35.77
629.466	35.67
629.657	35.87
629.847	36.09
630.038	36.09
630.228	35.97
630.419	36.08
630.609	36.1
630.8	35.93
630.99	35.79
631.181	35.69
631.371	35.62
631.561	35.81
631.752	35.78
631.942	35.75
632.132	35.59
632.323	35.47
632.513	35.62
632.703	35.84
632.893	35.93
633.084	36.07
633.274	36.09
633.464	35.89
633.654	35.86
633.844	35.75
634.034	35.43
634.225	35.73
634.415	35.9
634.605	35.75
634.795	35.9
634.985	35.94
635.175	35.98
635.365	36.1
635.555	36.32
635.745	36.32
635.935	36.33
636.125	36.7
636.315	36.32
636.505	36.48
636.695	36.29
636.885	35.89
637.075	36
637.265	36.19
637.455	36.37
637.644	36.35
637.834	35.99
638.024	36
638.214	35.7
638.404	35.86
638.593	35.82
638.783	35.81
638.973	35.87
639.163	35.97
639.352	36
639.542	36.13
639.732	36.25
639.921	36.7
640.111	36.65
640.301	36.77
640.49	37.01
640.68	37.17
640.87	37.19
641.059	37.23
641.249	37.16
641.438	37
641.628	36.93
641.817	36.87
642.007	37.27
642.196	37.17
642.386	37.28
642.575	37.39
642.764	36.92
642.954	37.1
643.143	37.06
643.333	37.15
643.522	37.84
643.711	37.56
643.901	38.08
644.09	37.78
644.279	37.9
644.469	37.8
644.658	37.49
644.847	38.29
645.036	38.69
645.226	38.29
645.415	37.9
645.604	37.63
645.793	37.58
645.982	37.12
646.171	37.33
646.361	37.24
646.55	37.86
646.739	37.9
646.928	37.57
647.117	37.22
647.306	37.61
647.495	38.18
647.684	37.38
647.873	37.55
648.062	37.25
648.251	36.86
648.44	37.01
648.629	36.78
648.818	36.96
649.007	36.81
649.196	36.95
649.384	37.24
649.573	36.76
649.762	37.34
649.951	37.59
650.14	37.81
650.328	38.27
650.517	38.17
650.706	38.22
650.895	38.3
651.083	38.05
651.272	38.12
651.461	37.87
651.65	38.22
651.838	38.04
652.027	37.64
652.216	37.85
652.404	37.53
652.593	37.46
652.781	37.25
652.97	37.07
653.158	37.16
653.347	37.24
653.535	37.48
653.724	37.1
653.912	37.08
654.101	37.47
654.289	37.43
654.478	37.61
654.666	37.54
654.855	37.71
655.043	37.59
655.231	37.86
655.42	37.9
655.608	37.52
655.796	37.92
655.985	38.55
656.173	38.65
656.361	38.93
656.55	38.88
656.738	39.01
656.926	38.82
657.114	38.65
657.302	38.54
657.491	38.35
657.679	38.81
657.867	38.7
658.055	38.46
658.243	38.48
658.431	37.93
658.619	38.28
658.807	38.49
658.996	38.36
659.184	38.6
659.372	38.82
659.56	38.63
659.748	38.28
659.936	38.19
660.124	38.31
660.311	38.04
660.499	38.27
660.687	37.99
660.875	37.87
661.063	38.36
661.251	38.56
661.439	38.66
661.627	38.74
661.814	39.18
662.002	39.09
662.19	38.66
662.378	38.8
662.565	38.83
662.753	38.67
662.941	38.5
663.129	38.38
663.316	38.43
663.504	37.92
663.692	37.54
663.879	36.95
664.067	37.04
664.254	37.5
664.442	37.59
664.63	37.73
664.817	38.1
665.005	38.34
665.192	38.13
665.38	37.86
665.567	38.1
665.755	39.02
665.942	39.69
666.13	39.89
666.317	39.68
666.504	39.69
666.692	39.68
666.879	39.42
667.067	39.43
667.254	39.53
667.441	39.93
667.629	40.05
667.816	39.28
668.003	38.85
668.19	38.86
668.378	39.01
668.565	38.96
668.752	38.93
668.939	39.27
669.127	39.24
669.314	39.25
669.501	38.86
669.688	38.62
669.875	39.3
670.062	39.15
670.249	38.85
670.436	38.49
670.623	38.47
670.81	38.48
670.997	38.09
671.184	38.14
671.371	38.32
671.558	38.13
671.745	38.37
671.932	38.2
672.119	38.36
672.306	38.24
672.493	38.41
672.68	38.83
672.867	38.88
673.054	38.68
673.24	38.18
673.427	38.37
673.614	38.83
673.801	39.24
673.988	39.09
674.174	39.09
674.361	39.3
674.548	39.8
674.734	39.07
674.921	38.94
675.108	38.79
675.294	38.95
675.481	38.54
675.668	38.27
675.854	37.7
676.041	37.8
676.227	37.84
676.414	37.9
676.601	37.6
676.787	37.76
676.974	37.38
677.16	38.18
677.347	38.15
677.533	38.2
677.719	38.48
677.906	38.74
678.092	39.13
678.279	39.75
678.465	40
678.651	40.16
678.838	40.12
679.024	40.54
679.21	39.89
679.397	40.05
679.583	39.9
679.769	40
679.955	39.54
680.142	38.92
680.328	38.55
680.514	38.31
680.7	38.08
680.886	38.25
681.073	38.18
681.259	38.72
681.445	38.7
681.631	38.55
681.817	38.14
682.003	38.64
682.189	39.01
682.375	38.97
682.561	39.32
682.747	39.3
682.933	39.11
683.119	39.6
683.305	39.42
683.491	39.67
683.677	40.01
683.863	40.07
684.049	40.25
684.235	40.16
684.42	40.21
684.606	40.01
684.792	40.19
684.978	40.92
685.164	40.05
685.349	40.1
685.535	39.76
685.721	40.05
685.907	39.96
686.092	39.39
686.278	39.47
686.464	39.33
686.649	38.98
686.835	38.9
687.021	38.63
687.206	39.24
687.392	39.23
687.577	39.6
687.763	38.93
687.948	39.41
688.134	39.41
688.319	39.19
688.505	39.17
688.69	39.67
688.876	39.57
689.061	39.32
689.247	38.78
689.432	38.53
689.618	38.08
689.803	39
689.988	38.68
690.174	39.05
690.359	39.25
690.544	39.17
690.73	39.09
690.915	39.2
691.1	39.37
691.285	39.91
691.471	40.57
691.656	40.98
691.841	40.51
692.026	40.15
692.211	40.04
692.396	39.98
692.582	40.67
692.767	40.54
692.952	40.52
693.137	40.24
693.322	40.14
693.507	39.54
693.692	39.36
693.877	39.27
694.062	40.1
694.247	39.92
694.432	39.81
694.617	39.52
694.802	39.66
694.987	39.46
695.172	39.41
695.357	39.89
695.541	39.91
695.726	40.69
695.911	41.08
696.096	41.02
696.281	40.75
696.466	41.04
696.65	41.22
696.835	41.1
697.02	41.17
697.204	41.17
697.389	40.65
697.574	40.88
697.759	40.04
697.943	39.78
698.128	39.6
698.312	39.94
698.497	39.65
698.682	38.96
698.866	38.78
699.051	38.8
699.235	38.8
699.42	38.84
699.604	38.79
699.789	38.77
699.973	39.01
700.158	38.64
700.342	39.07
700.527	39.14
700.711	39.87
700.895	40.48
701.08	40.18
701.264	40.61
701.448	40.57
701.633	40.76
701.817	41.12
702.001	40.94
702.186	41.32
702.37	40.76
702.554	40.64
702.738	40.23
702.923	39.63
703.107	40.25
703.291	39.66
703.475	39.8
703.659	39.72
703.843	39.75
704.027	39.82
704.212	39.57
704.396	39.08
704.58	39.35
704.764	39.5
704.948	39.67
705.132	39.05
705.316	39.3
705.5	38.64
705.684	38.8
705.868	38.84
706.052	38.42
706.235	38.83
706.419	39.16
706.603	39.4
706.787	39.38
706.971	39.45
707.155	39.64
707.339	39.32
707.522	39.5
707.706	39.11
707.89	39.1
708.074	39.04
708.257	39.55
708.441	39.96
708.625	39.53
708.808	39.12
708.992	39.17
709.176	39.72
709.359	39.81
709.543	40.36
709.727	39.8
709.91	39.88
710.094	40.74
710.277	40.59
710.461	40.42
710.644	40.63
710.828	40.92
711.011	41.78
711.195	41.35
711.378	41.75
711.562	41.89
711.745	42.41
711.928	42.74
712.112	41.53
712.295	40.84
712.478	40.58
712.662	40.73
712.845	40.53
713.028	39.83
713.212	40.05
713.395	39.74
713.578	39.59
713.761	39.48
713.945	39.01
714.128	39.84
714.311	39.79
714.494	39.85
714.677	39.73
714.86	40.4
715.043	40.06
715.227	40.45
715.41	40.49
715.593	40.04
715.776	39.74
715.959	39.66
716.142	39.79
716.325	40.05
716.508	40.25
716.691	40.37
716.874	40.43
717.057	40.93
717.239	40.86
717.422	40.75
717.605	40.89
717.788	40.62
717.971	41.14
718.154	40.99
718.337	40.58
718.519	40.71
718.702	40.27
718.885	40.27
719.068	39.96
719.25	39.1
719.433	39.62
719.616	40.4
719.798	40.76
719.981	40.03
720.164	39.75
720.346	40.51
720.529	39.91
720.712	40.61
720.894	40.31
721.077	40.44
721.259	41.1
721.442	40.9
721.624	40.22
721.807	40.53
721.989	41.65
722.172	41.51
722.354	41.33
722.537	42.09
722.719	41.4
722.901	40.57
723.084	40.15
723.266	39.5
723.448	39.58
723.631	39.4
723.813	39.52
723.995	39.62
724.178	39.36
724.36	39.61
724.542	39.52
724.724	39.62
724.907	41.16
725.089	40.8
725.271	41.51
725.453	41.02
725.635	41.93
725.817	41.75
725.999	40.77
726.181	41.3
726.364	40.92
726.546	40.42
726.728	40.68
726.91	40.29
727.092	40.3
727.274	40.14
727.456	40.04
727.638	39.44
727.819	40.25
728.001	40.44
728.183	39.6
728.365	39.97
728.547	40.18
728.729	40.78
728.911	40.94
729.093	40.92
729.274	40.84
729.456	40.83
729.638	40.09
729.82	39.93
730.001	40.02
730.183	41.26
730.365	41.88
730.546	42.04
730.728	42.26
730.91	41.62
731.091	42.8
731.273	43.31
731.455	43.03
731.636	43.72
731.818	43.59
731.999	43.2
732.181	42.45
732.362	42.36
732.544	41.77
732.725	40.83
732.907	40.8
733.088	40.67
733.27	40
733.451	41.17
733.633	41.04
733.814	41.58
733.995	41.52
734.177	42.69
734.358	42.11
734.539	42.44
734.721	42.6
734.902	42.57
735.083	41.72
735.264	41.78
735.446	41.59
735.627	41.69
735.808	41.28
735.989	41.28
736.17	39.71
736.351	40.56
736.533	40.58
736.714	41.07
736.895	41.96
737.076	43.04
737.257	43.86
737.438	43.31
737.619	43.71
737.8	42.68
737.981	42.76
738.162	43.07
738.343	42.41
738.524	42.76
738.705	42.81
738.886	41.89
739.067	42.12
739.247	42.08
739.428	42.85
739.609	43.24
739.79	45.13
739.971	45.61
740.151	46.26
740.332	46.07
740.513	46.09
740.694	45.23
740.874	45.85
741.055	44.41
741.236	43.52
741.417	42.01
741.597	41.89
741.778	40.82
741.958	41.25
742.139	40.27
742.32	40.8
742.5	40.46
742.681	41.42
742.861	40.66
743.042	41.99
743.222	41.83
743.403	42.93
743.583	43.76
743.764	43.13
743.944	42.55
744.124	43.34
744.305	42.65
744.485	42.87
744.666	42.02
744.846	41.8
745.026	41.55
745.207	42.17
745.387	41.76
745.567	41.01
745.747	40.96
745.928	41.21
746.108	40.65
746.288	39.78
746.468	40.52
746.648	40.78
746.829	40.78
747.009	40.73
747.189	41.11
747.369	41.39
747.549	41.05
747.729	41.69
747.909	40.25
748.089	40.69
748.269	42
748.449	41.09
748.629	41.9
748.809	42
748.989	41.26
749.169	40.72
749.349	41.1
749.529	40.88
749.709	41.06
749.889	42.15
750.068	42.27
750.248	42.18
750.428	41.82
750.608	41.77
750.788	41.45
750.967	42.08
751.147	42
751.327	41.13
751.507	41.45
751.686	41.58
751.866	41.95
752.046	41.95
752.225	42.59
752.405	42.42
752.585	42.66
752.764	44.23
752.944	43.55
753.123	43.7
753.303	44.86
753.482	44.88
753.662	44.37
753.841	43.79
754.021	44.04
754.2	42.76
754.38	43.2
754.559	41.61
754.739	40.02
754.918	39.79
755.097	39.96
755.277	38.8
755.456	38.79
755.635	38.91
755.815	38.95
755.994	38.31
756.173	38.62
756.352	39.69
756.532	40.28
756.711	40.71
756.89	41.98
757.069	42.06
757.248	43.01
757.427	41.6
757.607	41.66
757.786	42.45
757.965	43.91
758.144	44.74
758.323	43.94
758.502	44.37
758.681	43.78
758.86	42.7
759.039	42.42
759.218	42.98
759.397	44.62
759.576	44.51
759.755	43.68
759.934	42.67
760.113	41.5
760.291	41.18
760.47	40.86
760.649	41.17
760.828	40.99
761.007	41.73
761.186	40.83
761.364	40.36
761.543	40.46
761.722	40.39
761.901	39.85
762.079	39.97
762.258	41.17
762.437	41.47
762.615	41.25
762.794	42.33
762.972	41.88
763.151	41.56
763.33	41.43
763.508	41.24
763.687	41.56
763.865	41.47
764.044	42.04
764.222	41.27
764.401	40.97
764.579	42.01
764.758	41.51
764.936	41.58
765.114	40.88
765.293	40.88
765.471	41.09
765.65	41.14
765.828	41.94
766.006	41.56
766.184	41.32
766.363	41.52
766.541	40
766.719	40.08
766.898	39.82
767.076	41.04
767.254	41.72
767.432	42.2
767.61	41.94
767.788	41.63
767.967	40.79
768.145	40.8
768.323	39.64
768.501	40.94
768.679	39.73
768.857	39.51
769.035	39.69
769.213	39.01
769.391	38.63
769.569	37.58
769.747	36.81
769.925	36.72
770.103	36.51
770.281	37.85
770.459	36.98
770.636	39.22
770.814	39.24
770.992	40.48
771.17	39.01
771.348	38.2
771.525	39.86
771.703	39.46
771.881	40.15
772.059	40.76
772.236	40.61
772.414	41.31
772.592	38.92
772.769	39.83
772.947	36.79
773.125	39.26
773.302	39.91
773.48	39.58
773.657	40.5
773.835	41.92
774.013	42.51
774.19	43.26
774.368	42.28
774.545	44.46
774.723	43.3
774.9	44.96
775.077	45.44
775.255	43.93
775.432	44.43
775.61	44.87
775.787	44.75
775.964	44.17
776.142	42.29
776.319	42.6
776.496	41.61
776.674	42.15
776.851	41.79
777.028	40.34
777.205	42.55
777.382	41.94
777.56	39.49
777.737	38.22
777.914	38.54
778.091	39.64
778.268	42.07
778.445	41.88
778.622	41.22
778.8	40.96
778.977	41.09
779.154	40.02
779.331	40.31
779.508	43.12
779.685	44.83
779.862	44.77
780.038	45.33
780.215	43.78
780.392	43.59
780.569	42.59
780.746	41.63
780.923	42.06
781.1	41.88
781.277	43.41
781.453	42.04
781.63	39.79
781.807	41.37
781.984	41.87
782.16	42.74
782.337	44.59
782.514	47.08
782.691	46.79
782.867	46.2
783.044	47.68
783.221	46.57
783.397	47.62
783.574	48.79
783.75	47.37
783.927	47.66
784.103	46.46
784.28	45.07
784.456	43.91
784.633	45.94
784.809	46.88
784.986	46.58
785.162	44.21
785.339	42.16
785.515	41.26
785.692	41.02
785.868	40.24
786.044	41.24
786.221	40.4
786.397	42.2
786.573	41.42
786.749	38.65
786.926	37.08
787.102	40.29
787.278	41.31
787.454	40.66
787.631	40.59
787.807	40.52
787.983	38.74
788.159	40.34
788.335	39.84
788.511	40.68
788.687	41.9
788.863	42.92
789.039	40.26
789.216	40.01
789.392	39.72
789.568	41.7
789.744	41.96
789.919	42.65
790.095	42.92
790.271	45.34
790.447	44.42
790.623	42.88
790.799	42.21
790.975	43.1
791.151	46.6
791.327	48.45
791.502	47
791.678	46.17
791.854	46.83
792.03	46.12
792.205	42.94
792.381	43.4
792.557	45.57
792.733	47.93
792.908	51.34
793.084	50.68
793.259	49.88
793.435	50.5
793.611	51.14
793.786	50.7
793.962	50
794.137	47.92
794.313	46.52
794.488	45.08
794.664	43.13
794.839	42.59
795.015	40.1
795.19	41.52
795.366	40.59
795.541	39.54
795.716	40.25
795.892	41.15
796.067	42.54
796.242	43.44
796.418	42.54
796.593	43.32
796.768	41.58
796.944	42.31
797.119	41.55
797.294	41.79
797.469	41.09
797.644	40.28
797.82	39.39
797.995	40.54
798.17	42.54
798.345	46.01
798.52	44.27
798.695	44.1
798.87	41.39
799.045	41.14
799.22	41.69
799.395	45.88
799.57	44.28
799.745	45.95
799.92	46.38
800.095	45.18
800.27	44.55
800.445	44.79
800.62	44.22
800.795	46.48
800.97	48.39
801.145	47.09
801.319	44.83
801.494	46.2
801.669	45.47
801.844	44.93
802.018	46.84
802.193	45.64
802.368	46.32
802.543	47.96
802.717	49.43
802.892	46.91
803.067	46.02
803.241	49.55
803.416	50.27
803.59	50.05
803.765	50.01
803.94	48.19
804.114	48.89
804.289	49.61
804.463	47.41
804.638	45.27
804.812	45.86
804.986	47.64
805.161	41.59
805.335	40.89
805.51	40.6
805.684	40.18
805.858	40.92
806.033	41.25
806.207	42.62
806.381	44.97
806.556	45.97
806.73	46.66
806.904	45.96
807.078	50.53
807.253	51.48
807.427	50.84
807.601	51.45
807.775	49.41
807.949	48.7
808.123	45.92
808.298	44.58
808.472	44.28
808.646	43.9
808.82	47.98
808.994	45.07
809.168	44.58
809.342	46.17
809.516	47.4
809.69	48.12
809.864	46.77
810.038	46.32
810.212	46.17
810.385	46.54
810.559	46.21
810.733	42.65
810.907	43.48
811.081	43.95
811.255	42.23
811.428	42.11
811.602	43.15
811.776	43.85
811.95	45.36
812.123	46.8
812.297	43.92
812.471	45.21
812.644	42.52
812.818	40.35
812.992	40.53
813.165	42.74
813.339	41.21
813.512	38.43
813.686	38.16
813.86	41.34
814.033	41.01
814.207	45.83
814.38	47.36
814.554	52.61
814.727	53.94
814.9	52.68
815.074	52.57
815.247	53.46
815.421	55.96
815.594	57.24
815.767	55.96
815.941	51.8
816.114	52.63
816.287	49.92
816.46	44.81
816.634	45.65
816.807	47
816.98	46.81
817.153	45.05
817.327	44.25
817.5	44.88
817.673	42.7
817.846	46.67
818.019	44.9
818.192	44.02
818.365	49
818.538	49.14
818.711	48.86
818.884	48.15
819.057	46.81
819.23	47.67
819.403	48.72
819.576	47.4
819.749	46
819.922	43.97
820.095	44.46
820.268	41.74
820.441	41.73
820.614	41.79
820.786	42.58
820.959	42.91
821.132	42.11
821.305	40.79
821.477	42.2
821.65	41.55
821.823	41.6
821.996	41.01
822.168	41.49
822.341	40.83
822.514	40.73
822.686	40.58
822.859	41.02
823.031	40.99
823.204	41.51
823.376	40.92
823.549	41.46
823.722	41.42
823.894	41.59
824.067	41.48
824.239	41.14
824.411	40.98
824.584	41.38
824.756	41.56
824.929	42.09
825.101	41.53
825.273	41.93
825.446	41.79
825.618	41.89
825.79	41.64
825.963	40.97
826.135	41.52
826.307	41.49
826.479	39.27
826.652	38.62
826.824	37.65
826.996	37.05
827.168	36.7
827.34	36.48
827.512	36.01
827.684	36.18
827.856	36.8
828.029	37.97
828.201	37.94
828.373	39.07
828.545	39.42
828.717	40.02
828.889	42.19
829.061	42.56
829.232	43.19
829.404	43.86
829.576	44.75
829.748	43.38
829.92	42.13
830.092	43.24
830.264	44.25
830.436	43.13
830.607	43.35
830.779	42.62
830.951	43.41
831.123	41.13
831.294	42.37
831.466	42.36
831.638	45.35
831.809	46.49
831.981	46.57
832.153	46.5
832.324	49.1
832.496	48.96
832.667	47.02
832.839	45.49
833.011	51.07
833.182	50.87
833.354	49.67
833.525	49.32
833.697	49.36
833.868	48.47
834.039	48.07
834.211	46.8
834.382	47.79
834.554	50.1
834.725	51.23
834.896	48.61
835.068	47.59
835.239	48.01
835.41	48.86
835.581	47.66
835.753	47.11
835.924	46.49
836.095	47.43
836.266	46.08
836.438	43.8
836.609	41.45
836.78	41.03
836.951	43.23
837.122	44.26
837.293	44.31
837.464	45.64
837.635	46.55
837.806	47.1
837.977	45.85
838.148	45.6
838.319	46.1
838.49	48.99
838.661	49.73
838.832	48.02
839.003	46.15
839.174	41.31
839.345	41.73
839.516	40.1
839.687	41.67
839.857	41.54
840.028	45.02
840.199	44.85
840.37	45.69
840.54	46.57
840.711	44.4
840.882	45.84
841.053	49.56
841.223	50.67
841.394	51.56
841.564	48.74
841.735	47.38
841.906	44.9
842.076	46.23
842.247	44.39
842.417	42.4
842.588	44.23
842.758	44.34
842.929	41.22
843.099	36.86
843.27	41.86
843.44	45.54
843.611	49.93
843.781	50.96
843.951	51.78
844.122	55.15
844.292	60.47
844.462	60.11
844.633	60.53
844.803	59.16
844.973	59.84
845.144	58.85
845.314	54.04
845.484	45.23
845.654	43.48
845.824	45.51
845.995	45.91
846.165	41.59
846.335	38.33
846.505	34.69
846.675	45.97
846.845	56.84
847.015	58.05
847.185	65.74
847.355	75.52
847.525	84.09
847.695	74.93
847.865	67.47
848.035	76.4
848.205	71.81
848.375	86.88
848.545	77.13
848.715	66.32
848.884	58.5
849.054	57.68
849.224	58.86
849.394	52.72
849.564	51.75
849.733	55.43
849.903	55.32
850.073	57.48
850.243	40.2
850.412	36.42
850.582	33.51
850.752	33.48
850.921	32.03
851.091	29.8
851.26	27.03
851.43	28.94
851.599	22.86
851.769	11.28
851.939	19.03
852.108	27.84
852.278	33.04
852.447	34.07
852.616	35.32
852.786	36.87
852.955	39.48
853.125	39.67
853.294	45.23
853.463	50.75
853.633	56.37
853.802	52.64
853.971	53.68
854.141	47.48
854.31	52.48
854.479	52.98
854.648	46.3
854.818	49.67
854.987	55.16
855.156	54.99
855.325	54.72
855.494	55.35
855.663	59.81
855.832	58.85
856.001	64.71
856.171	66.23
856.34	66.63
856.509	68.32
856.678	68.89
856.847	65.99
857.016	64.8
857.185	72.32
857.353	75.45
857.522	73.37
857.691	61.11
857.86	59.61
858.029	56.26
858.198	59.45
858.367	68.08
858.535	63.9
858.704	63.19
858.873	69.57
859.042	66.63
859.21	62.11
859.379	57.58
859.548	70.78
859.717	72.16
859.885	79.52
860.054	80.79
860.222	78.38
860.391	78.72
860.56	88.95
860.728	84.15
860.897	81.84
861.065	79.37
861.234	81.69
861.402	79.28
861.571	81.54
861.739	81.43
861.908	81.06
862.076	77.18
862.244	77.17
862.413	72.71
862.581	67.28
862.749	66.45
862.918	66.59
863.086	60.58
863.254	67.58
863.423	64.85
863.591	58.66
863.759	52.59
863.927	47.37
864.096	51.2
864.264	45.91
864.432	49.93
864.6	52.27
864.768	51.76
864.936	54.02
865.104	50.42
865.272	48.79
865.44	43.93
865.608	52.38
865.776	56.44
865.944	49.43
866.112	44.31
866.28	50.47
866.448	52.17
866.616	55.97
866.784	57.63
866.952	62.14
867.12	55.23
867.288	56.95
867.455	56.4
867.623	66.19
867.791	73.29
867.959	84.59
868.127	77.13
868.294	75.73
868.462	80.9
868.63	92.8
868.797	85.48
868.965	91.1
869.133	96.16
869.3	93.79
869.468	90.61
869.636	81.11
869.803	76.86
869.971	82.53
870.138	85.02
870.306	76.15
870.473	69.82
870.641	66.11
870.808	72.82
870.975	68.12
871.143	72.87
871.31	71.41
871.478	72.61
871.645	81.43
871.812	80.98
871.98	82.44
872.147	92.69
872.314	85.5
872.482	88.31
872.649	62.68
872.816	65.88
872.983	57.82
873.15	64.21
873.318	59.08
873.485	56.66
873.652	60.4
873.819	53.86
873.986	55.08
874.153	58.49
874.32	53.07
874.487	56.53
874.654	58.43
874.821	67.89
874.988	58.24
875.155	64.54
875.322	55.41
875.489	51.63
875.656	63.96
875.823	67
875.99	65.66
876.157	81.31
876.324	79.93
876.49	78.3
876.657	72.65
876.824	80.21
876.991	87.49
877.157	95.22
877.324	109.44
877.491	88.74
877.658	78.81
877.824	72.42
877.991	66.43
878.157	65.38
878.324	58.29
878.491	52.25
878.657	49.61
878.824	46.51
878.99	49.7
879.157	49.2
879.323	48.51
879.49	47.85
879.656	53.33
879.823	53.06
879.989	53.12
880.156	57
880.322	55.68
880.488	54.73
880.655	51.27
880.821	50
880.987	50.74
881.154	57.13
881.32	56.23
881.486	58.05
881.652	56.77
881.819	54.85
881.985	51.52
882.151	50.43
882.317	52.75
882.483	51.36
882.649	49.5
882.816	48.55
882.982	44.56
883.148	44.14
883.314	42.42
883.48	40.37
883.646	39.95
883.812	40.37
883.978	39.47
884.144	38.66
884.31	39.23
884.476	40.25
884.642	41.24
884.807	42.09
884.973	41.92
885.139	42.06
885.305	43.56
885.471	43.21
885.637	43.17
885.802	46.09
885.968	46.05
886.134	45.6
886.3	46.03
886.465	43.7
886.631	43.96
886.797	47.14
886.962	49.5
887.128	47.44
887.293	48.21
887.459	51.13
887.625	49.21
887.79	47.22
887.956	45.39
888.121	43.22
888.287	44.04
888.452	42.68
888.618	36.65
888.783	29.2
