Data from CB_069_Reflection_2.txt Node
Date: Sat Nov 14 10:57:45 EST 2015
User: robert
Spectrometer: USB4E03001
Autoset integration time: false
Trigger mode: 4
Integration Time (sec): 1.000000E-1
Scans to average: 15
Electric dark correction enabled: true
Nonlinearity correction enabled: false
Boxcar width: 5
Stray light correction enabled: false
XAxis mode: Wavelengths
Stop averaging: false
Number of Pixels in Spectrum: 3648
>>>>>Begin Spectral Data<<<<<
177.566	-125.79
177.785	-153.89
178.005	-687.34
178.225	-74.24
178.445	-149.02
178.665	-358.59
178.885	57.57
179.105	-91.16
179.324	-164.01
179.544	-331.9
179.764	-131.92
179.984	-140.83
180.204	-171.1
180.423	-653.73
180.643	-351.56
180.863	-644.69
181.083	-2575.8
181.302	-10721.43
181.522	1095.77
181.742	1038.22
181.961	1273.09
182.181	182.03
182.401	152.45
182.621	275.57
182.84	1136.07
183.06	-3336.61
183.279	-393.48
183.499	-292.94
183.719	-444.14
183.938	-280.07
184.158	-206.03
184.377	-169.78
184.597	-101.1
184.816	-59.76
185.036	-52.4
185.256	-95.19
185.475	-237.39
185.695	-189.91
185.914	-133.29
186.134	-15.12
186.353	-83.08
186.572	-129.91
186.792	-176.02
187.011	301.26
187.231	-139.94
187.45	-154.02
187.67	-128.88
187.889	321.51
188.108	155.4
188.328	198.18
188.547	187.6
188.766	130.55
188.986	93.49
189.205	119.02
189.424	151.71
189.644	144.91
189.863	187.63
190.082	247.16
190.302	297.56
190.521	231.31
190.74	232.76
190.959	702.14
191.178	573.32
191.398	518.5
191.617	1166.47
191.836	3320.97
192.055	372.74
192.274	163.54
192.494	180.74
192.713	6433.93
192.932	-998.54
193.151	157025
193.37	323.82
193.589	-9492.92
193.808	-741.69
194.027	-1425.85
194.246	3050.86
194.465	-2318.84
194.685	486.4
194.904	567.6
195.123	382.51
195.342	229.84
195.561	188.83
195.78	615.41
195.999	1704.77
196.218	808.55
196.436	468.45
196.655	274.26
196.874	166.23
197.093	329.42
197.312	205.82
197.531	317.39
197.75	650.14
197.969	1910.96
198.188	358.07
198.407	246.96
198.625	290.42
198.844	343.74
199.063	448.77
199.282	861.07
199.501	-4053.12
199.719	-2055.07
199.938	937.65
200.157	582.7
200.376	-3966.77
200.594	-246.57
200.813	-568.63
201.032	-1532.44
201.251	-916.47
201.469	-1020.13
201.688	-1919.28
201.907	3584.28
202.125	1217.53
202.344	4821.28
202.563	24608.7
202.781	1189.9
203	354.37
203.218	283.49
203.437	492.12
203.656	309.58
203.874	741.64
204.093	722.17
204.311	413.37
204.53	1181.18
204.748	302.66
204.967	404.44
205.185	291.16
205.404	429.15
205.622	458.11
205.841	216.87
206.059	185.88
206.278	149.49
206.496	182.23
206.715	236.82
206.933	184.37
207.151	225.57
207.37	144.43
207.588	199
207.806	228
208.025	431.55
208.243	673.71
208.461	-43677.27
208.68	1406.6
208.898	638.2
209.116	503.05
209.335	341.72
209.553	338.19
209.771	279.5
209.989	229.68
210.208	196.55
210.426	156.74
210.644	125.28
210.862	117.04
211.081	122.71
211.299	108.15
211.517	113.57
211.735	111.37
211.953	109.67
212.171	122.26
212.39	135.4
212.608	121.12
212.826	142.92
213.044	169.65
213.262	184.5
213.48	154.08
213.698	235.73
213.916	126.85
214.134	182.59
214.352	262.56
214.57	148.13
214.788	136.84
215.006	159.62
215.224	217.41
215.442	425.77
215.66	783.09
215.878	310.39
216.096	120.78
216.314	432.3
216.532	2062.69
216.75	-547.43
216.968	-1014.47
217.185	-8641.59
217.403	2018.63
217.621	-139700
217.839	-748.16
218.057	-27358.33
218.275	-1025.57
218.492	-204.24
218.71	-4081.77
218.928	2189.47
219.146	1275.23
219.363	664.61
219.581	730.95
219.799	-3762.93
220.017	320.06
220.234	405.41
220.452	421.18
220.67	688.05
220.887	270.78
221.105	390.5
221.323	251.06
221.54	218.17
221.758	218.89
221.976	186.63
222.193	134.83
222.411	157.38
222.629	144.51
222.846	121.64
223.064	82.17
223.281	92.91
223.499	92.1
223.716	84.13
223.934	53.32
224.151	59.43
224.369	61.14
224.586	76.55
224.804	89.45
225.021	105.25
225.239	117.13
225.456	127.06
225.674	119.55
225.891	124.81
226.108	110.51
226.326	102.5
226.543	93.64
226.76	75.57
226.978	64.88
227.195	60.24
227.413	51.01
227.63	49.1
227.847	49.39
228.064	43.25
228.282	41.26
228.499	40.64
228.716	40.21
228.934	37.02
229.151	39.27
229.368	37.23
229.585	33.72
229.802	34.81
230.02	34.02
230.237	34.76
230.454	34.8
230.671	33.12
230.888	35.62
231.105	36.32
231.323	39.54
231.54	42.05
231.757	42.63
231.974	51.64
232.191	53.25
232.408	48.67
232.625	46.27
232.842	40.28
233.059	37.71
233.276	37.17
233.493	33.43
233.71	31.59
233.927	32.06
234.144	30.33
234.361	25.37
234.578	23.05
234.795	23.86
235.012	24.13
235.229	29.03
235.446	33.31
235.663	30.46
235.879	32.57
236.096	37.71
236.313	34.77
236.53	28.34
236.747	31.16
236.964	25.51
237.181	31.75
237.397	33.84
237.614	43.04
237.831	41.29
238.048	47.11
238.264	39.34
238.481	34.49
238.698	35
238.915	43.57
239.131	37.35
239.348	37.23
239.565	35.31
239.781	31.44
239.998	26.56
240.215	20.65
240.431	19.28
240.648	24.42
240.865	25.56
241.081	23.96
241.298	21.99
241.514	24.66
241.731	23.21
241.947	23.2
242.164	24.41
242.38	22.25
242.597	21.86
242.814	20.59
243.03	22.03
243.246	21.6
243.463	19.82
243.679	19
243.896	18.36
244.112	18.6
244.329	17.45
244.545	15.95
244.762	17.59
244.978	20.79
245.194	18.45
245.411	16.68
245.627	17.33
245.843	20.52
246.06	19.63
246.276	19.44
246.492	20.97
246.709	20.99
246.925	20.86
247.141	20.33
247.357	19.5
247.574	20.56
247.79	19.98
248.006	19.39
248.222	19.08
248.439	18.29
248.655	17.94
248.871	17.58
249.087	17.71
249.303	18.1
249.519	18.96
249.736	19.53
249.952	19.34
250.168	22.72
250.384	23.03
250.6	22.25
250.816	25.93
251.032	25.48
251.248	25.62
251.464	24.63
251.68	21.61
251.896	18.35
252.112	16.55
252.328	16.65
252.544	13.95
252.76	13.19
252.976	10.61
253.192	9.34
253.408	9.71
253.624	7.38
253.84	8.86
254.056	9.55
254.272	9.3
254.487	9.53
254.703	7.49
254.919	6.33
255.135	8.08
255.351	12.18
255.567	12.82
255.782	16.43
255.998	18.68
256.214	15.91
256.43	15.12
256.646	17.43
256.861	19.42
257.077	18.47
257.293	16.92
257.508	16.15
257.724	18.77
257.94	17.27
258.155	14.71
258.371	11.79
258.587	12.38
258.802	13.72
259.018	13.31
259.234	12.68
259.449	13.05
259.665	13.68
259.88	13.51
260.096	12.49
260.312	12.39
260.527	12.35
260.743	13.04
260.958	12.57
261.174	12.93
261.389	13.66
261.605	13.98
261.82	14.15
262.036	13.86
262.251	14.28
262.466	15.23
262.682	14.5
262.897	14.67
263.113	15.43
263.328	15.2
263.543	15.95
263.759	15.29
263.974	15.44
264.189	13.13
264.405	13.12
264.62	13.57
264.835	11.16
265.051	11.86
265.266	11.07
265.481	13.88
265.696	17.57
265.912	14.41
266.127	13.53
266.342	13.94
266.557	15.33
266.773	15.94
266.988	14.49
267.203	16.7
267.418	17.13
267.633	18.5
267.848	15.86
268.064	13.02
268.279	15.09
268.494	15.3
268.709	15.08
268.924	16.12
269.139	14.35
269.354	14.57
269.569	12.65
269.784	14.23
269.999	13.16
270.214	13.43
270.429	14.34
270.644	13.07
270.859	13.16
271.074	12.83
271.289	13.24
271.504	13.96
271.719	14.12
271.934	15.23
272.149	13.87
272.363	14.32
272.578	13.42
272.793	12.39
273.008	12.26
273.223	11.47
273.438	10.43
273.653	10.37
273.867	10.7
274.082	11.85
274.297	11.14
274.512	12.46
274.726	11.5
274.941	12.18
275.156	14.8
275.371	15.14
275.585	15.59
275.8	17.51
276.015	16.36
276.229	16.87
276.444	15.3
276.659	15.22
276.873	13.96
277.088	15.87
277.302	16.61
277.517	14.63
277.732	13.23
277.946	12.79
278.161	13.06
278.375	13.46
278.59	12.29
278.804	12.61
279.019	13.58
279.233	12.51
279.448	10.15
279.662	8.82
279.877	9.71
280.091	8.69
280.306	9.07
280.52	7.47
280.735	7.95
280.949	9.68
281.163	10.06
281.378	9.19
281.592	10.5
281.806	10.48
282.021	10.55
282.235	9.98
282.449	12.5
282.664	13.37
282.878	14.12
283.092	12.91
283.307	11.35
283.521	10.43
283.735	11.15
283.949	12.56
284.164	12.76
284.378	12.27
284.592	13.08
284.806	12.06
285.02	11.48
285.234	9.89
285.449	11.69
285.663	12.72
285.877	13.15
286.091	12.02
286.305	10.29
286.519	11.13
286.733	12.42
286.947	11.85
287.161	11.51
287.375	10.67
287.589	12.62
287.803	12.19
288.017	12.18
288.231	12.24
288.445	13.22
288.659	14.22
288.873	14.66
289.087	13.82
289.301	14.9
289.515	14.54
289.729	14.6
289.943	14.92
290.157	14.32
290.371	15.22
290.584	15.44
290.798	15.62
291.012	15.69
291.226	14.66
291.44	15.34
291.654	14.54
291.867	15.07
292.081	16.11
292.295	15.67
292.509	15.58
292.722	12.93
292.936	12.15
293.15	10.8
293.364	8.79
293.577	8.83
293.791	9.3
294.005	8.96
294.218	10.37
294.432	10.13
294.645	9.7
294.859	9.77
295.073	11.57
295.286	12.65
295.5	13.66
295.713	13.9
295.927	15.32
296.14	14.08
296.354	13.7
296.568	12.55
296.781	11.88
296.994	12.83
297.208	12.73
297.421	12.49
297.635	12.57
297.848	12.29
298.062	12.69
298.275	12.12
298.489	12.31
298.702	13.29
298.915	12.2
299.129	12.69
299.342	12.56
299.555	13.1
299.769	12.68
299.982	13.09
300.195	13.47
300.409	13.67
300.622	13.22
300.835	13.22
301.048	12.96
301.262	14.55
301.475	14.16
301.688	13.06
301.901	12.91
302.115	13.4
302.328	12.19
302.541	12.59
302.754	13.14
302.967	13.79
303.18	14.94
303.393	14.48
303.607	14.46
303.82	14.91
304.033	15.08
304.246	15.54
304.459	15.62
304.672	15.47
304.885	15.35
305.098	15.36
305.311	15.52
305.524	14.94
305.737	15.82
305.95	17.3
306.163	17.66
306.376	18.2
306.589	18.23
306.802	17.64
307.015	18.77
307.228	18.95
307.44	18.61
307.653	18.03
307.866	19.36
308.079	19.18
308.292	18.05
308.505	18.4
308.718	19.9
308.93	19.96
309.143	20.72
309.356	20.87
309.569	20.43
309.781	19.55
309.994	19.48
310.207	19.35
310.42	18.51
310.632	17.99
310.845	17.88
311.058	16.81
311.27	16.71
311.483	16.62
311.696	16.26
311.908	15.79
312.121	16.3
312.333	17.56
312.546	16.05
312.759	16.55
312.971	17.32
313.184	16.7
313.396	16.75
313.609	15.59
313.821	15.3
314.034	14.64
314.246	14.84
314.459	15.51
314.671	13.54
314.884	14.35
315.096	14.26
315.309	13.79
315.521	16.14
315.733	15.42
315.946	16.6
316.158	17.51
316.371	17.96
316.583	17.91
316.795	17.77
317.008	17.9
317.22	18.08
317.432	18.63
317.644	19.47
317.857	16.97
318.069	16.95
318.281	16.35
318.494	15.81
318.706	16.1
318.918	16.97
319.13	16.37
319.342	16.35
319.555	15.78
319.767	16.65
319.979	15.58
320.191	16.61
320.403	17.46
320.615	18.3
320.827	18.95
321.039	18.73
321.252	19.61
321.464	21.44
321.676	21.53
321.888	22.04
322.1	21.25
322.312	21.25
322.524	21.81
322.736	21.52
322.948	22.46
323.16	22.4
323.372	23.05
323.584	22.1
323.796	20.99
324.007	21.88
324.219	22.69
324.431	23.59
324.643	25.36
324.855	25.85
325.067	24.54
325.279	23.74
325.491	24.95
325.702	25.78
325.914	27.06
326.126	28.09
326.338	26.47
326.55	27.41
326.761	26.76
326.973	26.71
327.185	26.52
327.396	28.35
327.608	29.67
327.82	28.79
328.032	29.81
328.243	29.59
328.455	29.36
328.666	31.57
328.878	30.89
329.09	32.75
329.301	33.32
329.513	33.04
329.725	33.78
329.936	34.17
330.148	33.75
330.359	33.2
330.571	34.21
330.782	35.25
330.994	35.25
331.205	36.51
331.417	36.33
331.628	35.21
331.84	37.18
332.051	38.08
332.262	37.61
332.474	36.58
332.685	37.42
332.897	36.82
333.108	36.29
333.319	36.98
333.531	36.65
333.742	37.16
333.953	38.16
334.165	37.02
334.376	37.61
334.587	38.31
334.799	39.35
335.01	38.19
335.221	38.73
335.432	38.31
335.644	37.77
335.855	37.58
336.066	36.74
336.277	36.35
336.488	37.17
336.7	36.34
336.911	36.27
337.122	36.37
337.333	36.48
337.544	36.92
337.755	37.59
337.966	37.95
338.177	37.77
338.388	37.3
338.599	37.73
338.811	36.79
339.022	36.2
339.233	35.9
339.444	35.64
339.655	35.59
339.866	34.71
340.076	34.29
340.287	33.97
340.498	33.81
340.709	34.88
340.92	35.43
341.131	36.59
341.342	36.84
341.553	36.05
341.764	37.33
341.975	37.54
342.185	37.84
342.396	38.64
342.607	37.96
342.818	38.05
343.029	36.95
343.239	36.33
343.45	35.23
343.661	35.18
343.872	34.96
344.082	34.58
344.293	34.98
344.504	34.89
344.714	34.68
344.925	36.06
345.136	36.16
345.346	35.22
345.557	34.4
345.768	34.03
345.978	34.25
346.189	34.82
346.399	33.92
346.61	33.13
346.821	33.47
347.031	33.3
347.242	32.03
347.452	31.78
347.663	33.07
347.873	33.87
348.084	34.6
348.294	33.53
348.504	33.32
348.715	34.12
348.925	34.58
349.136	33.16
349.346	33.22
349.557	33.49
349.767	33.72
349.977	34.09
350.188	33.5
350.398	33.97
350.608	34.71
350.819	36.05
351.029	35.05
351.239	35.09
351.449	35.48
351.66	35.25
351.87	35.62
352.08	36.35
352.29	35.92
352.501	36.23
352.711	35.14
352.921	35.53
353.131	34.18
353.341	34.69
353.552	34.41
353.762	34.33
353.972	33.77
354.182	34.56
354.392	33.61
354.602	33.79
354.812	34.03
355.022	34.44
355.232	34.24
355.442	34.42
355.652	34.69
355.862	34.38
356.072	34.86
356.282	35.14
356.492	34.49
356.702	34.76
356.912	34.44
357.122	35
357.332	34.51
357.542	34.45
357.752	33.79
357.962	33.83
358.171	34.15
358.381	33.88
358.591	34.48
358.801	34.25
359.011	33.69
359.221	33.95
359.43	33.45
359.64	33.44
359.85	32.86
360.06	33.19
360.269	32.65
360.479	32.68
360.689	32.55
360.899	32.24
361.108	32.56
361.318	32.49
361.528	32.03
361.737	32.05
361.947	32.34
362.156	32.6
362.366	32.3
362.576	32.35
362.785	32.32
362.995	32.02
363.204	31.89
363.414	32.06
363.623	32.3
363.833	32.73
364.042	32.78
364.252	32.61
364.461	32.88
364.671	33.17
364.88	33.28
365.09	33.62
365.299	33.88
365.509	34.14
365.718	32.92
365.927	32.97
366.137	32.56
366.346	31.55
366.555	31.19
366.765	30.91
366.974	31.01
367.183	30.59
367.393	29.2
367.602	28.54
367.811	28.18
368.021	28.86
368.23	27.88
368.439	28.08
368.648	28.58
368.857	28.33
369.067	27.97
369.276	27.72
369.485	27.87
369.694	28.75
369.903	29.33
370.112	28.89
370.321	28.2
370.531	28.06
370.74	27.95
370.949	27.32
371.158	27.25
371.367	26.71
371.576	26.3
371.785	25.79
371.994	25.57
372.203	25.24
372.412	24.73
372.621	24.82
372.83	25.18
373.039	24.73
373.248	24.54
373.457	24.45
373.666	24.35
373.874	24.24
374.083	24.3
374.292	24.09
374.501	24.04
374.71	24.37
374.919	23.98
375.128	23.8
375.336	23.92
375.545	24.22
375.754	24.54
375.963	24.58
376.171	24.21
376.38	23.87
376.589	23.05
376.798	21.94
377.006	22.08
377.215	22.09
377.424	22.01
377.632	21.4
377.841	21.46
378.05	20.96
378.258	20.57
378.467	20.32
378.675	20.26
378.884	20.88
379.093	21.42
379.301	21.44
379.51	21.34
379.718	21.55
379.927	22.24
380.135	22.3
380.344	21.81
380.552	22.15
380.761	22.25
380.969	22.53
381.177	22.07
381.386	22.75
381.594	22.07
381.803	21.8
382.011	21.81
382.219	20.78
382.428	19.97
382.636	20.26
382.845	19.23
383.053	19.25
383.261	18.92
383.469	18.72
383.678	18.25
383.886	18.33
384.094	18.88
384.302	18.37
384.511	18.68
384.719	18.63
384.927	18.72
385.135	19.47
385.343	19.25
385.552	19.51
385.76	19.42
385.968	19.08
386.176	18.79
386.384	17.79
386.592	17.53
386.8	17.52
387.008	17.91
387.216	17.59
387.424	17.42
387.633	17.45
387.841	17.18
388.049	17.55
388.257	17.32
388.465	17.27
388.672	17.63
388.88	17.96
389.088	17.52
389.296	17.19
389.504	16.81
389.712	16.76
389.92	16.85
390.128	16.83
390.336	16.23
390.544	16.4
390.751	16.54
390.959	16.37
391.167	15.8
391.375	16.07
391.583	15.78
391.79	15.59
391.998	15.6
392.206	15.36
392.414	14.93
392.621	15.07
392.829	15.12
393.037	14.86
393.244	14.66
393.452	14.98
393.66	14.72
393.867	14.8
394.075	15.06
394.283	14.85
394.49	14.72
394.698	14.75
394.905	14.64
395.113	14.5
395.32	14.29
395.528	14.28
395.735	14.13
395.943	14.1
396.15	13.81
396.358	13.59
396.565	13.53
396.773	13.49
396.98	13.49
397.188	13.33
397.395	13.24
397.602	13.5
397.81	13.4
398.017	13.12
398.225	13.42
398.432	13.47
398.639	13.43
398.847	13.52
399.054	13.52
399.261	13.3
399.468	13.09
399.676	13.21
399.883	12.64
400.09	12.73
400.297	12.95
400.505	12.42
400.712	12.73
400.919	13.14
401.126	13.01
401.333	12.89
401.54	13.05
401.748	13.25
401.955	12.76
402.162	12.82
402.369	12.9
402.576	12.64
402.783	12.49
402.99	12.15
403.197	11.68
403.404	11.41
403.611	11.61
403.818	11.42
404.025	11.43
404.232	11.68
404.439	11.62
404.646	11.14
404.853	11.09
405.06	10.97
405.267	11.09
405.474	11.18
405.681	11.64
405.887	11.41
406.094	11.73
406.301	11.58
406.508	11.74
406.715	12.17
406.922	12.53
407.128	12.77
407.335	12.94
407.542	12.72
407.749	12.58
407.955	12.39
408.162	12.34
408.369	11.84
408.575	12.38
408.782	12.28
408.989	11.85
409.195	11.55
409.402	11.5
409.609	11.37
409.815	11.51
410.022	11.73
410.228	11.45
410.435	11.72
410.642	11.75
410.848	11.38
411.055	11.15
411.261	11.24
411.468	11.59
411.674	11.46
411.881	11.64
412.087	11.5
412.294	11.32
412.5	11.44
412.706	11.15
412.913	11.25
413.119	11
413.326	10.87
413.532	10.81
413.738	10.69
413.945	10.27
414.151	10.14
414.357	10.28
414.564	10.39
414.77	10.4
414.976	10.02
415.182	10.07
415.389	10.22
415.595	9.91
415.801	9.78
416.007	9.84
416.214	9.87
416.42	9.85
416.626	9.63
416.832	9.58
417.038	9.53
417.244	9.97
417.45	9.92
417.657	9.57
417.863	9.57
418.069	9.76
418.275	9.65
418.481	9.72
418.687	9.68
418.893	9.67
419.099	9.55
419.305	9.48
419.511	9.32
419.717	9.13
419.923	9.23
420.129	9.27
420.335	9.25
420.541	9.29
420.746	9.32
420.952	9.39
421.158	9.46
421.364	9.44
421.57	9.49
421.776	9.47
421.982	9.66
422.187	9.57
422.393	9.63
422.599	9.56
422.805	9.5
423.01	9.5
423.216	9.5
423.422	9.51
423.628	9.57
423.833	9.24
424.039	9.14
424.245	9.02
424.45	9.02
424.656	9
424.862	8.9
425.067	8.74
425.273	8.72
425.478	8.56
425.684	8.44
425.889	8.6
426.095	8.91
426.301	8.97
426.506	9.04
426.712	9.15
426.917	9.22
427.123	9.27
427.328	9.32
427.533	9.39
427.739	9.41
427.944	9.44
428.15	9
428.355	8.82
428.561	8.9
428.766	8.73
428.971	8.73
429.177	8.67
429.382	8.68
429.587	8.74
429.793	8.73
429.998	8.91
430.203	8.8
430.408	8.8
430.614	8.92
430.819	8.81
431.024	8.81
431.229	8.71
431.434	8.83
431.64	8.77
431.845	8.86
432.05	8.89
432.255	8.69
432.46	8.72
432.665	8.73
432.87	8.6
433.076	8.53
433.281	8.57
433.486	8.65
433.691	8.46
433.896	8.38
434.101	8.27
434.306	8.17
434.511	8.34
434.716	8.18
434.921	8.33
435.126	8.38
435.331	8.47
435.535	8.49
435.74	8.4
435.945	8.29
436.15	8.41
436.355	8.65
436.56	8.52
436.765	8.57
436.97	8.63
437.174	8.6
437.379	8.65
437.584	8.7
437.789	8.68
437.993	8.63
438.198	8.8
438.403	8.81
438.608	8.63
438.812	8.6
439.017	8.32
439.222	8.52
439.426	8.51
439.631	8.36
439.836	8.27
440.04	8.36
440.245	8.41
440.45	8.49
440.654	8.59
440.859	8.5
441.063	8.62
441.268	8.78
441.472	8.63
441.677	8.53
441.881	8.53
442.086	8.55
442.29	8.3
442.495	8.34
442.699	8.28
442.904	7.97
443.108	8.16
443.312	8.01
443.517	7.96
443.721	8
443.925	7.97
444.13	8.07
444.334	7.8
444.538	8
444.743	7.92
444.947	7.76
445.151	7.83
445.356	7.72
445.56	7.83
445.764	7.7
445.968	7.66
446.173	7.58
446.377	7.65
446.581	7.82
446.785	7.75
446.989	7.74
447.193	7.75
447.398	7.87
447.602	7.7
447.806	7.7
448.01	7.81
448.214	7.8
448.418	7.79
448.622	7.71
448.826	7.66
449.03	7.64
449.234	7.71
449.438	7.72
449.642	7.56
449.846	7.88
450.05	7.84
450.254	7.69
450.458	7.71
450.662	7.95
450.866	7.87
451.069	7.87
451.273	7.92
451.477	8.03
451.681	8.09
451.885	8.06
452.089	8.04
452.292	7.82
452.496	7.9
452.7	8.05
452.904	8.01
453.107	8.07
453.311	7.89
453.515	7.9
453.719	7.74
453.922	7.85
454.126	7.96
454.33	7.71
454.533	7.73
454.737	7.72
454.94	7.42
455.144	7.43
455.348	7.48
455.551	7.77
455.755	7.6
455.958	7.42
456.162	7.41
456.365	7.4
456.569	7.38
456.772	7.49
456.976	7.6
457.179	7.69
457.383	7.6
457.586	7.57
457.79	7.42
457.993	7.55
458.196	7.7
458.4	7.82
458.603	7.76
458.807	7.72
459.01	7.83
459.213	7.73
459.417	7.78
459.62	7.78
459.823	7.81
460.026	7.75
460.23	7.7
460.433	7.58
460.636	7.38
460.839	7.31
461.042	7.32
461.246	7.2
461.449	7.22
461.652	7.18
461.855	7.2
462.058	7.12
462.261	7.23
462.464	7.12
462.668	7.2
462.871	7.34
463.074	7.34
463.277	7.41
463.48	7.35
463.683	7.4
463.886	7.22
464.089	7.16
464.292	6.96
464.495	6.97
464.698	7.05
464.901	7.07
465.104	6.88
465.306	6.83
465.509	7.02
465.712	7.28
465.915	7.27
466.118	7.43
466.321	7.37
466.524	7.42
466.726	7.54
466.929	7.56
467.132	7.62
467.335	7.73
467.538	7.69
467.74	7.49
467.943	7.29
468.146	6.98
468.348	7.07
468.551	7.17
468.754	7.3
468.956	7.21
469.159	7.07
469.362	7.22
469.564	7.33
469.767	7.5
469.969	7.58
470.172	7.79
470.375	8.03
470.577	8.05
470.78	8.09
470.982	8.02
471.185	7.88
471.387	8.09
471.59	7.84
471.792	7.74
471.995	7.75
472.197	7.82
472.399	7.76
472.602	7.78
472.804	7.73
473.007	7.88
473.209	7.9
473.411	8.01
473.614	8.14
473.816	8.27
474.018	8.18
474.22	8.39
474.423	8.3
474.625	8.28
474.827	8.27
475.03	8.32
475.232	8.22
475.434	8.28
475.636	8.2
475.838	8.1
476.04	8.13
476.243	8.15
476.445	7.86
476.647	8.06
476.849	8.1
477.051	7.91
477.253	8.03
477.455	8
477.657	7.99
477.859	7.88
478.061	7.67
478.263	7.5
478.465	7.52
478.667	7.51
478.869	7.3
479.071	7.21
479.273	7.22
479.475	6.92
479.677	6.81
479.879	6.65
480.081	6.76
480.283	6.87
480.485	6.92
480.686	7.18
480.888	7.41
481.09	7.3
481.292	7.2
481.494	7.33
481.695	7.33
481.897	7.37
482.099	7.46
482.301	7.45
482.502	7.36
482.704	7.35
482.906	7.13
483.107	7.02
483.309	7.03
483.511	7.05
483.712	7.06
483.914	7.08
484.115	7.03
484.317	7.03
484.519	7.04
484.72	7.06
484.922	7.03
485.123	7.04
485.325	7.07
485.526	7.1
485.728	7.13
485.929	7.11
486.131	7.06
486.332	7.02
486.534	7.04
486.735	6.97
486.936	7.05
487.138	7.11
487.339	7.1
487.541	7.04
487.742	7.1
487.943	7.08
488.144	7.08
488.346	7.15
488.547	7.24
488.748	7.21
488.95	7.2
489.151	7.18
489.352	7.23
489.553	7.21
489.755	7.37
489.956	7.35
490.157	7.33
490.358	7.3
490.559	7.27
490.76	7.25
490.961	7.21
491.163	7.4
491.364	7.39
491.565	7.32
491.766	7.42
491.967	7.29
492.168	7.31
492.369	7.29
492.57	7.26
492.771	7.35
492.972	7.33
493.173	7.43
493.374	7.42
493.575	7.48
493.776	7.56
493.976	7.6
494.177	7.78
494.378	7.78
494.579	7.99
494.78	8.09
494.981	8.01
495.182	8.17
495.382	8.13
495.583	8.05
495.784	7.97
495.985	8.12
496.185	8.08
496.386	7.95
496.587	8.05
496.788	7.98
496.988	7.96
497.189	7.99
497.39	7.95
497.59	7.95
497.791	7.84
497.992	7.87
498.192	7.69
498.393	7.8
498.593	7.94
498.794	7.86
498.994	7.87
499.195	7.97
499.395	8.08
499.596	8.06
499.796	8.02
499.997	8.26
500.197	8.17
500.398	8.26
500.598	7.97
500.799	8.04
500.999	7.91
501.199	7.96
501.4	8.05
501.6	8.1
501.801	8.18
502.001	8.39
502.201	8.28
502.402	8.54
502.602	8.49
502.802	8.85
503.002	8.86
503.203	9.19
503.403	9.31
503.603	9.49
503.803	9.42
504.003	9.58
504.204	9.71
504.404	9.88
504.604	9.83
504.804	10.09
505.004	9.94
505.204	10.05
505.404	10.04
505.604	9.93
505.804	9.87
506.005	10
506.205	9.96
506.405	10.02
506.605	10.06
506.805	10.07
507.005	10.06
507.204	10.23
507.404	10.14
507.604	10.3
507.804	10.59
508.004	10.64
508.204	10.57
508.404	10.55
508.604	10.49
508.804	10.53
509.003	10.61
509.203	10.59
509.403	10.6
509.603	10.76
509.803	10.8
510.002	10.92
510.202	11.05
510.402	11.33
510.602	11.42
510.801	11.59
511.001	11.59
511.201	11.65
511.4	11.68
511.6	11.83
511.8	11.96
511.999	12.19
512.199	12.01
512.398	12.09
512.598	12.13
512.797	12.41
512.997	12.48
513.197	12.61
513.396	12.99
513.596	13.24
513.795	13.35
513.994	13.38
514.194	13.32
514.393	13.57
514.593	13.67
514.792	13.79
514.992	13.98
515.191	14.08
515.39	14.24
515.59	14.22
515.789	14.34
515.988	14.4
516.188	14.43
516.387	14.66
516.586	14.88
516.786	15.08
516.985	15.24
517.184	15.35
517.383	15.47
517.582	15.58
517.782	15.62
517.981	15.85
518.18	16.01
518.379	16.3
518.578	16.3
518.777	16.41
518.976	16.43
519.176	16.55
519.375	16.51
519.574	16.62
519.773	16.74
519.972	17
520.171	17.05
520.37	17.19
520.569	17.27
520.768	17.44
520.967	17.59
521.166	17.8
521.365	18
521.564	18.25
521.762	18.49
521.961	18.62
522.16	18.67
522.359	18.75
522.558	18.91
522.757	18.99
522.956	19.12
523.154	19.03
523.353	19.29
523.552	19.41
523.751	19.47
523.949	19.58
524.148	19.78
524.347	19.97
524.546	20.21
524.744	20.44
524.943	20.54
525.142	20.63
525.34	21
525.539	21.03
525.737	21.15
525.936	21.36
526.135	21.48
526.333	21.56
526.532	21.66
526.73	21.79
526.929	22
527.127	22.22
527.326	22.45
527.524	22.54
527.723	22.69
527.921	22.77
528.12	22.86
528.318	23
528.516	23.19
528.715	23.3
528.913	23.32
529.112	23.35
529.31	23.45
529.508	23.5
529.707	23.54
529.905	23.61
530.103	23.74
530.301	23.87
530.5	23.95
530.698	24.02
530.896	24.13
531.094	24.35
531.293	24.47
531.491	24.69
531.689	24.83
531.887	25.07
532.085	25.27
532.283	25.39
532.481	25.56
532.68	25.68
532.878	25.84
533.076	26.04
533.274	26.08
533.472	26.14
533.67	26.12
533.868	26.28
534.066	26.39
534.264	26.43
534.462	26.52
534.66	26.56
534.858	26.74
535.056	26.84
535.253	26.85
535.451	27.08
535.649	27.28
535.847	27.49
536.045	27.61
536.243	27.73
536.441	27.86
536.638	27.96
536.836	28.15
537.034	28.23
537.232	28.34
537.43	28.41
537.627	28.47
537.825	28.68
538.023	28.65
538.22	28.81
538.418	28.84
538.616	28.98
538.813	29.07
539.011	29.2
539.209	29.17
539.406	29.29
539.604	29.59
539.801	29.83
539.999	29.92
540.196	30.03
540.394	30.06
540.591	30.2
540.789	30.32
540.986	30.38
541.184	30.43
541.381	30.65
541.579	30.64
541.776	30.61
541.974	30.68
542.171	30.7
542.368	30.85
542.566	30.92
542.763	30.96
542.96	30.98
543.158	31.2
543.355	31.25
543.552	31.26
543.75	31.51
543.947	31.61
544.144	31.69
544.341	31.8
544.539	31.89
544.736	31.87
544.933	31.95
545.13	32.07
545.327	32.06
545.524	32.14
545.722	32.17
545.919	32.11
546.116	32.19
546.313	32.08
546.51	32.2
546.707	32.2
546.904	32.49
547.101	32.56
547.298	32.72
547.495	32.72
547.692	32.81
547.889	32.83
548.086	32.89
548.283	33.17
548.48	33.32
548.677	33.46
548.874	33.59
549.07	33.6
549.267	33.76
549.464	33.64
549.661	33.94
549.858	34.17
550.055	34.48
550.251	34.7
550.448	34.53
550.645	34.5
550.842	34.31
551.038	34.42
551.235	34.7
551.432	34.81
551.628	35.07
551.825	35.18
552.022	35.19
552.218	35.05
552.415	35.29
552.612	35.52
552.808	35.89
553.005	36.02
553.201	35.92
553.398	35.8
553.594	36
553.791	36.23
553.987	36.22
554.184	36.22
554.38	36.24
554.577	36.02
554.773	36.19
554.97	36.02
555.166	36.3
555.362	36.38
555.559	36.46
555.755	36.48
555.952	36.47
556.148	36.63
556.344	36.88
556.541	37.04
556.737	37.13
556.933	37.01
557.129	37.14
557.326	37.21
557.522	37.42
557.718	37.67
557.914	37.8
558.11	37.61
558.307	37.46
558.503	37.5
558.699	37.73
558.895	37.92
559.091	38.19
559.287	38.49
559.483	38.52
559.679	38.41
559.876	38.22
560.072	37.86
560.268	38.13
560.464	38.2
560.66	38.08
560.856	38.14
561.052	38.13
561.247	37.98
561.443	37.82
561.639	37.85
561.835	38.23
562.031	38.45
562.227	38.73
562.423	38.87
562.619	38.86
562.815	39.29
563.01	39.58
563.206	39.72
563.402	39.8
563.598	39.93
563.793	39.97
563.989	39.94
564.185	39.86
564.381	40.03
564.576	40.08
564.772	39.95
564.968	39.79
565.163	39.64
565.359	39.55
565.555	39.67
565.75	39.76
565.946	39.8
566.141	39.92
566.337	39.99
566.532	40.16
566.728	40.07
566.923	40.27
567.119	40.3
567.314	40.2
567.51	40.23
567.705	40.27
567.901	40.27
568.096	40.08
568.292	40.01
568.487	39.94
568.682	39.79
568.878	39.85
569.073	40
569.268	40.08
569.464	40.26
569.659	40.56
569.854	40.4
570.05	40.39
570.245	40.82
570.44	40.9
570.635	41.06
570.831	41.22
571.026	41.37
571.221	41.6
571.416	41.57
571.611	41.61
571.806	41.45
572.002	41.83
572.197	41.9
572.392	41.68
572.587	41.62
572.782	41.55
572.977	41.47
573.172	41.32
573.367	41.15
573.562	41.48
573.757	41.49
573.952	41.46
574.147	41.29
574.342	41.2
574.537	41.3
574.732	41.28
574.927	41.44
575.121	41.52
575.316	41.75
575.511	41.81
575.706	41.61
575.901	41.5
576.096	41.7
576.29	41.71
576.485	42.01
576.68	42.13
576.875	42.28
577.069	42.25
577.264	42.3
577.459	42.13
577.654	42.16
577.848	42.07
578.043	42.41
578.238	42.52
578.432	42.7
578.627	42.57
578.821	42.79
579.016	42.91
579.21	43.14
579.405	42.99
579.6	43.07
579.794	43.07
579.989	43.2
580.183	43.29
580.378	43.24
580.572	43.5
580.766	43.42
580.961	43.35
581.155	43.21
581.35	43.23
581.544	43.29
581.738	43.6
581.933	43.56
582.127	43.74
582.321	43.4
582.516	43.37
582.71	43.13
582.904	43.34
583.099	43.25
583.293	43.26
583.487	43.16
583.681	43.37
583.875	43.29
584.07	43.51
584.264	43.52
584.458	43.51
584.652	43.49
584.846	43.39
585.04	43.41
585.234	43.65
585.428	43.86
585.623	43.96
585.817	43.93
586.011	43.51
586.205	43.64
586.399	43.59
586.593	43.93
586.787	44.15
586.981	44.09
587.174	44.03
587.368	43.99
587.562	43.93
587.756	43.88
587.95	43.71
588.144	44.24
588.338	44.26
588.532	44.05
588.725	44.16
588.919	44.18
589.113	44.31
589.307	44.31
589.501	44.14
589.694	44.47
589.888	44.59
590.082	44.88
590.275	44.67
590.469	44.66
590.663	45.02
590.856	44.9
591.05	44.68
591.244	44.74
591.437	44.97
591.631	45.03
591.824	44.66
592.018	44.56
592.212	44.56
592.405	44.66
592.599	44.51
592.792	44.4
592.986	44.3
593.179	44.41
593.372	44.38
593.566	44.09
593.759	44.21
593.953	44.36
594.146	44.48
594.339	44.57
594.533	44.64
594.726	44.53
594.92	44.37
595.113	44.4
595.306	44.55
595.499	44.84
595.693	45.15
595.886	45.37
596.079	45.58
596.272	45.78
596.466	45.78
596.659	45.69
596.852	46.08
597.045	46.17
597.238	46.25
597.431	46.2
597.624	46.1
597.818	46
598.011	45.96
598.204	45.89
598.397	45.82
598.59	45.67
598.783	45.7
598.976	45.48
599.169	45.31
599.362	45.53
599.555	45.38
599.748	45.23
599.941	45.07
600.134	44.91
600.326	44.78
600.519	44.65
600.712	44.84
600.905	45.2
601.098	45.35
601.291	45.28
601.483	45.24
601.676	45.29
601.869	45.6
602.062	45.83
602.255	45.92
602.447	45.86
602.64	45.76
602.833	45.75
603.025	45.44
603.218	45.45
603.411	45.69
603.603	45.77
603.796	46.11
603.989	45.8
604.181	45.73
604.374	45.74
604.566	45.92
604.759	45.91
604.951	45.97
605.144	46.14
605.336	46.35
605.529	46.42
605.721	46.26
605.914	46.29
606.106	46.45
606.299	46.58
606.491	46.73
606.683	46.64
606.876	46.57
607.068	46.68
607.26	46.66
607.453	46.31
607.645	46.37
607.837	46.53
608.03	46.43
608.222	46.54
608.414	46.44
608.606	46.13
608.799	46.45
608.991	46.75
609.183	46.51
609.375	46.42
609.567	46.35
609.759	46.31
609.952	46.08
610.144	45.92
610.336	45.95
610.528	45.94
610.72	45.96
610.912	45.9
611.104	46.02
611.296	46.17
611.488	46.25
611.68	46.53
611.872	46.39
612.064	46.92
612.256	47.06
612.448	46.94
612.64	47.14
612.832	47.32
613.023	47.03
613.215	46.93
613.407	47.06
613.599	47.12
613.791	47.17
613.983	47.42
614.174	47.34
614.366	47.32
614.558	47.42
614.75	47.68
614.941	47.67
615.133	47.78
615.325	48.03
615.516	48.12
615.708	48.12
615.9	48.08
616.091	48.06
616.283	47.66
616.475	47.62
616.666	47.81
616.858	47.59
617.049	47.57
617.241	47.8
617.432	47.6
617.624	47.64
617.815	47.61
618.007	47.76
618.198	47.88
618.39	48.3
618.581	48.15
618.773	47.82
618.964	47.47
619.155	47.29
619.347	46.85
619.538	46.93
619.729	46.82
619.921	46.85
620.112	46.6
620.303	46.3
620.494	46.04
620.686	46.29
620.877	46.51
621.068	46.77
621.259	46.67
621.451	47.13
621.642	46.91
621.833	46.82
622.024	46.6
622.215	46.41
622.406	46.52
622.597	46.47
622.788	46.31
622.98	46.41
623.171	46.2
623.362	46.48
623.553	46.42
623.744	46.5
623.935	46.38
624.126	46.82
624.317	47.22
624.508	46.87
624.698	46.81
624.889	46.96
625.08	47.31
625.271	47.42
625.462	47.59
625.653	47.44
625.844	47.53
626.034	47.71
626.225	47.82
626.416	47.51
626.607	47.92
626.798	47.93
626.988	47.87
627.179	47.59
627.37	47.63
627.56	47.48
627.751	47.66
627.942	47.74
628.132	47.55
628.323	47.38
628.514	47.68
628.704	47.42
628.895	47.51
629.085	47.38
629.276	46.85
629.466	46.97
629.657	47.25
629.847	47.13
630.038	46.99
630.228	47.15
630.419	47.08
630.609	47.21
630.8	47.34
630.99	47.37
631.181	47.91
631.371	48.4
631.561	48.36
631.752	48.27
631.942	48.56
632.132	48.2
632.323	48.19
632.513	48.28
632.703	47.95
632.893	48.13
633.084	48.11
633.274	47.84
633.464	47.66
633.654	47.73
633.844	47.61
634.034	47.34
634.225	47.66
634.415	47.59
634.605	47.36
634.795	47.26
634.985	47.31
635.175	47.66
635.365	47.79
635.555	47.98
635.745	47.6
635.935	47.83
636.125	47.9
636.315	48.24
636.505	48.55
636.695	48.28
636.885	48.33
637.075	48.52
637.265	48.07
637.455	47.89
637.644	48.05
637.834	48.55
638.024	48.4
638.214	48.52
638.404	48.43
638.593	48.07
638.783	48.53
638.973	48.92
639.163	48.69
639.352	48.53
639.542	48.79
639.732	48.94
639.921	48.85
640.111	49.12
640.301	48.84
640.49	48.87
640.68	49.1
640.87	49.18
641.059	48.85
641.249	49.01
641.438	49.39
641.628	49.23
641.817	49.21
642.007	49.55
642.196	49.36
642.386	49.54
642.575	49.63
642.764	49.54
642.954	49.48
643.143	49.57
643.333	49.7
643.522	49.72
643.711	49.71
643.901	49.67
644.09	49.18
644.279	49.56
644.469	49.51
644.658	49.44
644.847	49.58
645.036	49.89
645.226	49.9
645.415	50.1
645.604	50.55
645.793	50.59
645.982	50.13
646.171	50.37
646.361	49.87
646.55	50.25
646.739	49.9
646.928	49.66
647.117	49.35
647.306	49.61
647.495	49.3
647.684	49
647.873	49.36
648.062	49.53
648.251	49.13
648.44	49.01
648.629	48.28
648.818	48.52
649.007	48.59
649.196	48.67
649.384	48.27
649.573	48.33
649.762	48.18
649.951	47.83
650.14	47.81
650.328	47.97
650.517	48.41
650.706	49.07
650.895	49
651.083	49.56
651.272	49.51
651.461	49.63
651.65	49.18
651.838	49.37
652.027	49.09
652.216	49.04
652.404	48.95
652.593	49.08
652.781	48.78
652.97	48.76
653.158	48.45
653.347	48.6
653.535	48.75
653.724	49.01
653.912	49.13
654.101	49.44
654.289	49.79
654.478	50.24
654.666	50.01
654.855	50.04
655.043	49.87
655.231	50.08
655.42	50.13
655.608	50.48
655.796	50.45
655.985	50.15
656.173	49.77
656.361	49.92
656.55	50.08
656.738	49.91
656.926	50.02
657.114	50.08
657.302	50.13
657.491	49.86
657.679	49.5
657.867	49.66
658.055	49.58
658.243	50.18
658.431	50.25
658.619	50.09
658.807	50.31
658.996	50.09
659.184	50.01
659.372	49.73
659.56	49.8
659.748	49.5
659.936	49.39
660.124	49.37
660.311	48.99
660.499	48.6
660.687	48.16
660.875	48.02
661.063	48.02
661.251	48.1
661.439	47.95
661.627	48.11
661.814	48.14
662.002	48.26
662.19	48.65
662.378	48.69
662.565	48.95
662.753	49.36
662.941	49.55
663.129	49.26
663.316	49.27
663.504	49.38
663.692	49.25
663.879	49.64
664.067	49.65
664.254	49.03
664.442	49.48
664.63	49.29
664.817	49.64
665.005	49.2
665.192	49.79
665.38	49.71
665.567	49.62
665.755	49.64
665.942	49.76
666.13	49.77
666.317	50.04
666.504	49.72
666.692	50
666.879	49.67
667.067	50.03
667.254	50.29
667.441	50.4
667.629	50.77
667.816	50.63
668.003	50.61
668.19	51.03
668.378	51.15
668.565	51.43
668.752	51.32
668.939	51.15
669.127	50.63
669.314	50.07
669.501	49.78
669.688	49.86
669.875	50.23
670.062	50.3
670.249	49.75
670.436	49.87
670.623	49.65
670.81	49.53
670.997	49.8
671.184	50.36
671.371	50.51
671.558	50.62
671.745	50.66
671.932	50.16
672.119	49.53
672.306	49.65
672.493	49.23
672.68	49.47
672.867	49.79
673.054	49.94
673.24	49.94
673.427	50.32
673.614	50.77
673.801	50.32
673.988	50.91
674.174	51.51
674.361	51.41
674.548	51.46
674.734	51.54
674.921	51.12
675.108	51.36
675.294	51.33
675.481	50.91
675.668	50.84
675.854	51.53
676.041	51.39
676.227	51.39
676.414	51.5
676.601	51.66
676.787	51.55
676.974	51.9
677.16	51.22
677.347	51.58
677.533	51.79
677.719	51.63
677.906	50.81
678.092	51.01
678.279	50.79
678.465	50.61
678.651	50.58
678.838	50.48
679.024	49.96
679.21	49.64
679.397	49.4
679.583	49.39
679.769	49.14
679.955	49.49
680.142	49.09
680.328	49.49
680.514	49.51
680.7	49.41
680.886	49.11
681.073	49.36
681.259	49.79
681.445	49.3
681.631	49.02
681.817	49.16
682.003	48.97
682.189	48.94
682.375	49.17
682.561	49.5
682.747	49.37
682.933	49.41
683.119	49.07
683.305	49.2
683.491	49.79
683.677	50.45
683.863	50.59
684.049	50.69
684.235	50.88
684.42	50.14
684.606	49.67
684.792	49.85
684.978	50.11
685.164	50.47
685.349	50.47
685.535	50.16
685.721	49.73
685.907	49.74
686.092	50.04
686.278	49.98
686.464	50.28
686.649	50.63
686.835	50.95
687.021	51.48
687.206	51.61
687.392	51.21
687.577	51.49
687.763	51.49
687.948	51.59
688.134	51.14
688.319	51.57
688.505	51.41
688.69	50.74
688.876	50.71
689.061	50.02
689.247	49.92
689.432	50.25
689.618	49.65
689.803	49.79
689.988	49.92
690.174	50.08
690.359	49.1
690.544	49.12
690.73	49.83
690.915	49.82
691.1	49.86
691.285	50.08
691.471	50.18
691.656	50.88
691.841	50.32
692.026	50.16
692.211	50.55
692.396	51.25
692.582	51.77
692.767	51.83
692.952	51.71
693.137	51.74
693.322	51.82
693.507	51.66
693.692	51.35
693.877	52.4
694.062	52.3
694.247	52.31
694.432	51.98
694.617	51.11
694.802	51.23
694.987	51.31
695.172	51.56
695.357	51.39
695.541	51.21
695.726	51.79
695.911	51.35
696.096	51.73
696.281	51.54
696.466	52.19
696.65	52.5
696.835	51.95
697.02	51.39
697.204	51.5
697.389	51.29
697.574	51.75
697.759	51.13
697.943	51.05
698.128	51.25
698.312	51.27
698.497	50.77
698.682	50.88
698.866	51.24
699.051	51.56
699.235	51.78
699.42	51.91
699.604	51.96
699.789	52.31
699.973	52.02
700.158	51.8
700.342	51.69
700.527	51.87
700.711	52.1
700.895	51.93
701.08	52.12
701.264	51.58
701.448	51.23
701.633	50.88
701.817	51.11
702.001	51.85
702.186	51.87
702.37	51.61
702.554	52.04
702.738	52.25
702.923	51.71
703.107	51.62
703.291	52.54
703.475	53.35
703.659	53.25
703.843	52.83
704.027	52.85
704.212	52.18
704.396	53.08
704.58	53.02
704.764	51.87
704.948	52.96
705.132	53.41
705.316	52.76
705.5	52.4
705.684	53.09
705.868	53.34
706.052	53.59
706.235	55.06
706.419	54.78
706.603	54.52
706.787	55.06
706.971	54.24
707.155	53.47
707.339	52.89
707.522	52.74
707.706	52.41
707.89	52.05
708.074	51.3
708.257	50.01
708.441	50.22
708.625	50.07
708.808	49.95
708.992	50.68
709.176	51.11
709.359	51.84
709.543	51.97
709.727	52.02
709.91	51.86
710.094	51.66
710.277	52.57
710.461	51.87
710.644	52.56
710.828	53.27
711.011	52.72
711.195	52.62
711.378	52.28
711.562	52.04
711.745	52.02
711.928	52.59
712.112	52.92
712.295	52.08
712.478	52.7
712.662	52.48
712.845	52.27
713.028	52.18
713.212	52.13
713.395	52.19
713.578	52.58
713.761	52.74
713.945	52.13
714.128	52.44
714.311	52.44
714.494	51.97
714.677	51.7
714.86	50.82
715.043	50.86
715.227	50.94
715.41	51.3
715.593	51.41
715.776	50.99
715.959	51.09
716.142	51.12
716.325	51.66
716.508	52.33
716.691	52.2
716.874	52.58
717.057	53.02
717.239	53.21
717.422	52.98
717.605	52.23
717.788	52.39
717.971	53.24
718.154	53.64
718.337	53.42
718.519	52.48
718.702	53.13
718.885	53.17
719.068	52.93
719.25	52.94
719.433	53.03
719.616	53.74
719.798	54.28
719.981	53.27
720.164	52.3
720.346	52.8
720.529	53.64
720.712	52.87
720.894	53.83
721.077	53.41
721.259	53.43
721.442	53.81
721.624	53.9
721.807	53.27
721.989	53.27
722.172	53.45
722.354	52.96
722.537	53.26
722.719	53.89
722.901	54.16
723.084	54.31
723.266	53.96
723.448	53.93
723.631	54.09
723.813	54.43
723.995	54.78
724.178	55.01
724.36	55.55
724.542	55.57
724.724	55.5
724.907	54.85
725.089	55.56
725.271	55.4
725.453	54.57
725.635	53.71
725.817	53.42
725.999	53.91
726.181	54.75
726.364	54.99
726.546	55.35
726.728	55.45
726.91	54.45
727.092	54.42
727.274	55.02
727.456	55.36
727.638	55.69
727.819	56.2
728.001	55.6
728.183	55.05
728.365	54.48
728.547	53.58
728.729	53.23
728.911	53.89
729.093	53.16
729.274	51.78
729.456	51.95
729.638	51.79
729.82	51.54
730.001	51.48
730.183	51.56
730.365	51.04
730.546	50.75
730.728	50.98
730.91	50.79
731.091	51.84
731.273	52.78
731.455	52.72
731.636	53.1
731.818	54.1
731.999	54.15
732.181	53.69
732.362	54.09
732.544	55.04
732.725	54.86
732.907	55.14
733.088	55.02
733.27	55.85
733.451	55.21
733.633	54.59
733.814	53.93
733.995	54.26
734.177	54.55
734.358	54.16
734.539	53.14
734.721	53.37
734.902	53.28
735.083	53.05
735.264	51.92
735.446	53.08
735.627	54.32
735.808	53.81
735.989	53.57
736.17	53.95
736.351	55.32
736.533	55.37
736.714	55.05
736.895	54.5
737.076	54.1
737.257	54.55
737.438	53.52
737.619	52.51
737.8	52.33
737.981	53.04
738.162	52.85
738.343	51.21
738.524	52.05
738.705	52.33
738.886	53.02
739.067	53.31
739.247	53.74
739.428	53.36
739.609	53.01
739.79	53.87
739.971	53.86
740.151	54.55
740.332	55.21
740.513	55.5
740.694	55.49
740.874	55.09
741.055	54.62
741.236	53.8
741.417	54.85
741.597	55.48
741.778	55.06
741.958	53.29
742.139	51.32
742.32	49.69
742.5	47.85
742.681	48.63
742.861	48.78
743.042	48.85
743.222	47.61
743.403	47.4
743.583	47.38
743.764	47.09
743.944	48.43
744.124	49.56
744.305	50.6
744.485	51.29
744.666	49.75
744.846	50.23
745.026	50.55
745.207	53.28
745.387	52.82
745.567	53.8
745.747	53.16
745.928	52.77
746.108	53.45
746.288	53.64
746.468	54.48
746.648	55.43
746.829	54.53
747.009	54.75
747.189	53.13
747.369	52.6
747.549	52.07
747.729	53.78
747.909	53.55
748.089	53.44
748.269	53.49
748.449	54.12
748.629	53.72
748.809	53.81
748.989	53.15
749.169	54.49
749.349	55.21
749.529	55.32
749.709	54.5
749.889	55.19
750.068	54.44
750.248	54.97
750.428	54.56
750.608	54.39
750.788	55.52
750.967	55.91
751.147	54.37
751.327	55.01
751.507	55.09
751.686	55.09
751.866	55.06
752.046	55.56
752.225	55.47
752.405	55.06
752.585	55.06
752.764	54.24
752.944	53.31
753.123	54.69
753.303	53.68
753.482	52.93
753.662	52.44
753.841	51.5
754.021	50.59
754.2	50.31
754.38	49.27
754.559	49.17
754.739	49.61
754.918	51.35
755.097	50.5
755.277	50.81
755.456	50.9
755.635	51.76
755.815	53.9
755.994	55.14
756.173	54.38
756.352	55.14
756.532	55.8
756.711	55.03
756.89	54.58
757.069	55.72
757.248	55.56
757.427	56.3
757.607	55.65
757.786	53.49
757.965	51.89
758.144	51.9
758.323	52.6
758.502	52.47
758.681	52.31
758.86	52.65
759.039	51.47
759.218	51.9
759.397	51.85
759.576	51.81
759.755	52.05
759.934	51.64
760.113	54.47
760.291	53.84
760.47	54.8
760.649	55.76
760.828	55.37
761.007	55.06
761.186	54.68
761.364	53.84
761.543	54.38
761.722	55.03
761.901	55.8
762.079	55.05
762.258	54.78
762.437	54.22
762.615	53.2
762.794	53.64
762.972	53.87
763.151	53.21
763.33	53.13
763.508	53.23
763.687	52.92
763.865	53.56
764.044	53.48
764.222	53.39
764.401	52.17
764.579	52
764.758	51.07
764.936	51.43
765.114	52.56
765.293	52.59
765.471	52.03
765.65	52.1
765.828	51.37
766.006	50.5
766.184	50.78
766.363	51.63
766.541	51.93
766.719	52.09
766.898	51.7
767.076	50.79
767.254	51
767.432	51.39
767.61	51.12
767.788	51.22
767.967	51.47
768.145	51.14
768.323	51.78
768.501	50.94
768.679	51.42
768.857	50.48
769.035	51.34
769.213	53.25
769.391	52.99
769.569	52.86
769.747	53.64
769.925	53.06
770.103	53.78
770.281	53.01
770.459	54.12
770.636	53.47
770.814	54.98
770.992	56
771.17	53.65
771.348	53.84
771.525	55.44
771.703	55.21
771.881	56.07
772.059	56.4
772.236	56.4
772.414	58.56
772.592	58.52
772.769	58.04
772.947	55.72
773.125	56.44
773.302	56.73
773.48	56.84
773.657	55.24
773.835	54.75
774.013	57.19
774.19	56.25
774.368	54.05
774.545	54.84
774.723	55.59
774.9	57.08
775.077	57.16
775.255	56.86
775.432	56.17
775.61	56.78
775.787	56.34
775.964	53.24
776.142	54.6
776.319	54.27
776.496	54.26
776.674	55.6
776.851	55.12
777.028	55.68
777.205	55.66
777.382	56.29
777.56	56.6
777.737	59.33
777.914	59.16
778.091	58.95
778.268	59.22
778.445	61.3
778.622	59.17
778.8	59.4
778.977	59.98
779.154	61.85
779.331	60.68
779.508	60.34
779.685	58.94
779.862	59.57
780.038	61
780.215	64.56
780.392	63.34
780.569	65.19
780.746	64.06
780.923	61
781.1	58.41
781.277	58.21
781.453	57.66
781.63	56.16
781.807	56.2
781.984	54.7
782.16	51
782.337	51.1
782.514	49.52
782.691	51.62
782.867	53.09
783.044	55.23
783.221	57.31
783.397	58.97
783.574	59.08
783.75	58.01
783.927	59.99
784.103	61.56
784.28	60.47
784.456	58.74
784.633	59.02
784.809	60.36
784.986	57.37
785.162	56.8
785.339	55.17
785.515	56.84
785.692	58.21
785.868	56.47
786.044	57.61
786.221	58.41
786.397	63.17
786.573	61.75
786.749	60.56
786.926	62.16
787.102	61.16
787.278	62.21
787.454	62.54
787.631	61.99
787.807	61.66
787.983	61.4
788.159	59.88
788.335	57.44
788.511	56.77
788.687	55.28
788.863	54.84
789.039	55.03
789.216	54.39
789.392	52.1
789.568	50.35
789.744	51.37
789.919	50.03
790.095	52.34
790.271	52
790.447	51.86
790.623	53.55
790.799	53.81
790.975	53
791.151	55.07
791.327	56.61
791.502	56.1
791.678	56.08
791.854	58.24
792.03	56.81
792.205	56.93
792.381	58.01
792.557	56.63
792.733	55.53
792.908	57.51
793.084	55.74
793.259	55.4
793.435	57.46
793.611	56.68
793.786	53.21
793.962	51.21
794.137	52.08
794.313	51.11
794.488	51.56
794.664	52.48
794.839	50.73
795.015	53.05
795.19	50.18
795.366	49.5
795.541	49.61
795.716	50.62
795.892	52.41
796.067	52.75
796.242	55.06
796.418	56.44
796.593	56.7
796.768	57.58
796.944	56.43
797.119	58.01
797.294	62.51
797.469	64.82
797.644	64.37
797.82	65.69
797.995	64.06
798.17	61.27
798.345	61.33
798.52	59.04
798.695	59.56
798.87	56.34
799.045	56.45
799.22	52.64
799.395	51.18
799.57	49.82
799.745	50.35
799.92	51.35
800.095	53.28
800.27	50.95
800.445	52.96
800.62	51.75
800.795	54.18
800.97	57.69
801.145	59.01
801.319	57.97
801.494	61.05
801.669	61.9
801.844	62.52
802.018	62.27
802.193	66.55
802.368	65.97
802.543	65.43
802.717	67.64
802.892	67.21
803.067	67.86
803.241	65.86
803.416	63.1
803.59	62.52
803.765	61.72
803.94	62.91
804.114	60.27
804.289	61.7
804.463	62.16
804.638	59.7
804.812	58.48
804.986	56.03
805.161	57.56
805.335	61.41
805.51	59.22
805.684	57.66
805.858	57.33
806.033	56.25
806.207	56.86
806.381	59.19
806.556	58.71
806.73	55.65
806.904	57.17
807.078	58.44
807.253	56.56
807.427	56.89
807.601	58.01
807.775	56.37
807.949	59.08
808.123	57.36
808.298	58.06
808.472	59.74
808.646	60.04
808.82	59.19
808.994	56.53
809.168	55.06
809.342	56.28
809.516	58.1
809.69	62.97
809.864	64.01
810.038	64.11
810.212	60.82
810.385	57.57
810.559	63.07
810.733	62.26
810.907	66.72
811.081	68.27
811.255	69.34
811.428	67.75
811.602	61.82
811.776	60.72
811.95	62.69
812.123	64.93
812.297	66.67
812.471	64.71
812.644	66.82
812.818	62.51
812.992	64.87
813.165	61.77
813.339	63.46
813.512	65.58
813.686	65.78
813.86	62.96
814.033	60.54
814.207	60.3
814.38	58.09
814.554	58.15
814.727	60.98
814.9	60.36
815.074	59.06
815.247	53.62
815.421	50.94
815.594	51.89
815.767	53.21
815.941	51.14
816.114	57.22
816.287	58.68
816.46	54.57
816.634	53.46
816.807	54.47
816.98	56.11
817.153	58.93
817.327	62.16
817.5	59.93
817.673	63.69
817.846	64.06
818.019	61.4
818.192	61.6
818.365	63.66
818.538	64.49
818.711	60.95
818.884	58.83
819.057	60.3
819.23	57.06
819.403	58.88
819.576	57.26
819.749	59.25
819.922	55.64
820.095	55.42
820.268	55.46
820.441	56.68
820.614	58.52
820.786	59.26
820.959	57.91
821.132	57.43
821.305	54.11
821.477	51.7
821.65	51.68
821.823	52.79
821.996	53.22
822.168	53.24
822.341	52.43
822.514	52.78
822.686	52.66
822.859	52.05
823.031	52.28
823.204	52.83
823.376	53.41
823.549	53.21
823.722	52.59
823.894	52.19
824.067	52.01
824.239	51.87
824.411	51.21
824.584	51.79
824.756	52.73
824.929	52.34
825.101	52.23
825.273	52.03
825.446	52.27
825.618	52.91
825.79	52.88
825.963	53.3
826.135	53.6
826.307	53.74
826.479	52.59
826.652	52.56
826.824	52.85
826.996	52.4
827.168	52.8
827.34	52.99
827.512	53.22
827.684	53.64
827.856	53.04
828.029	53.79
828.201	53
828.373	54.08
828.545	53.61
828.717	53.21
828.889	54.27
829.061	54.33
829.232	54.44
829.404	54.16
829.576	53.78
829.748	54.92
829.92	55.85
830.092	58.23
830.264	56.6
830.436	57.52
830.607	60.22
830.779	60.89
830.951	61.15
831.123	60.83
831.294	61.88
831.466	61.89
831.638	62.68
831.809	58.97
831.981	57.5
832.153	58.2
832.324	56.27
832.496	57.13
832.667	58.26
832.839	59.49
833.011	60.89
833.182	60.74
833.354	58.72
833.525	56.4
833.697	56.43
833.868	54.88
834.039	56.51
834.211	58.01
834.382	56.93
834.554	55.99
834.725	55.86
834.896	53.69
835.068	52.73
835.239	54.9
835.41	55.43
835.581	56.29
835.753	58.5
835.924	59.12
836.095	57.68
836.266	57.12
836.438	55.66
836.609	53.97
836.78	55.5
836.951	57.67
837.122	56.18
837.293	56.24
837.464	54.73
837.635	54.66
837.806	53.03
837.977	53.17
838.148	54.28
838.319	57.43
838.49	60.34
838.661	60.87
838.832	62.18
839.003	64.96
839.174	64.92
839.345	70.83
839.516	70.24
839.687	76.24
839.857	78.32
840.028	80.5
840.199	77.36
840.37	76.87
840.54	79.4
840.711	76.63
840.882	73.97
841.053	77.47
841.223	77.09
841.394	81.92
841.564	80.22
841.735	80.25
841.906	76.73
842.076	79.65
842.247	79.42
842.417	75.26
842.588	79.57
842.758	83.89
842.929	79.87
843.099	80.34
843.27	72.22
843.44	70.94
843.611	72.86
843.781	76.86
843.951	74.94
844.122	72.01
844.292	67.59
844.462	64.87
844.633	64.11
844.803	63.68
844.973	58.04
845.144	60.35
845.314	57.45
845.484	59.36
845.654	57.52
845.824	58.82
845.995	59.7
846.165	67.63
846.335	65.03
846.505	61.54
846.675	63.6
846.845	67.19
847.015	81.52
847.185	85.99
847.355	82.96
847.525	89.26
847.695	97.88
847.865	106.86
848.035	113.51
848.205	102.42
848.375	108.89
848.545	108.91
848.715	100.1
848.884	83.85
849.054	83.98
849.224	81.46
849.394	81.16
849.564	74.93
849.733	84.29
849.903	74.27
850.073	79.25
850.243	82.54
850.412	95.57
850.582	96.78
850.752	100.04
850.921	93.78
851.091	107.4
851.26	115.82
851.43	110.98
851.599	97.36
851.769	94.81
851.939	93.48
852.108	84.13
852.278	67.35
852.447	74.7
852.616	82.69
852.786	88.67
852.955	80.34
853.125	76.68
853.294	79.91
853.463	71.28
853.633	82.43
853.802	98.39
853.971	114.14
854.141	129.03
854.31	124.11
854.479	119.5
854.648	131.2
854.818	113.57
854.987	101.7
855.156	90.47
855.325	101.92
855.494	90.01
855.663	73.07
855.832	55.87
856.001	41.44
856.171	33.59
856.34	44.28
856.509	50.75
856.678	59.21
856.847	62.97
857.016	67.74
857.185	69.49
857.353	78.46
857.522	82.11
857.691	83.02
857.86	80.8
858.029	99.18
858.198	96.31
858.367	86.27
858.535	85.67
858.704	97.3
858.873	104.67
859.042	102.16
859.21	106.67
859.379	102.48
859.548	108.18
859.717	110.42
859.885	99.68
860.054	91.62
860.222	79.36
860.391	75.41
860.56	77.75
860.728	81.22
860.897	80.68
861.065	77.17
861.234	68.04
861.402	72.5
861.571	76.78
861.739	76.09
861.908	78.21
862.076	89.5
862.244	93.74
862.413	93.39
862.581	93.14
862.749	93.52
862.918	80
863.086	83.95
863.254	80.74
863.423	76.25
863.591	68.03
863.759	65.62
863.927	59.03
864.096	54.43
864.264	38.65
864.432	46.88
864.6	44.58
864.768	54.09
864.936	65.41
865.104	72.45
865.272	72.61
865.44	84.93
865.608	83.71
865.776	97.57
865.944	97.61
866.112	112.82
866.28	106.71
866.448	111.13
866.616	129.68
866.784	106
866.952	101.57
867.12	120.76
867.288	123.32
867.455	141.08
867.623	130.6
867.791	133.34
867.959	121.94
868.127	128
868.294	115.96
868.462	95.34
868.63	119.91
868.797	112.8
868.965	83.51
869.133	80.43
869.3	74.91
869.468	85.82
869.636	71.26
869.803	82.37
869.971	76.96
870.138	71.04
870.306	76.14
870.473	73.39
870.641	77.84
870.808	82.36
870.975	83.93
871.143	83.74
871.31	79.98
871.478	84.82
871.645	78.63
871.812	96.35
871.98	109.74
872.147	105.73
872.314	105.2
872.482	92.74
872.649	89.97
872.816	90.09
872.983	93.03
873.15	97.97
873.318	94.94
873.485	97.67
873.652	84.55
873.819	86.82
873.986	95.48
874.153	92.27
874.32	99.71
874.487	115.58
874.654	116.24
874.821	111.36
874.988	93.79
875.155	109.01
875.322	94.22
875.489	100.19
875.656	76.97
875.823	71.7
875.99	58.34
876.157	51.68
876.324	42.76
876.49	46.29
876.657	49.23
876.824	53.57
876.991	55.57
877.157	57.82
877.324	55.87
877.491	67.92
877.658	64.55
877.824	75
877.991	76.43
878.157	80.28
878.324	83.22
878.491	81.05
878.657	83.72
878.824	87.24
878.99	86.15
879.157	88.27
879.323	77.86
879.49	80.54
879.656	79.72
879.823	91.67
879.989	91.06
880.156	94.91
880.322	90.76
880.488	85.38
880.655	76.39
880.821	80.97
880.987	91.68
881.154	96.48
881.32	94.09
881.486	86.65
881.652	79.99
881.819	75.33
881.985	68.49
882.151	67.9
882.317	64.45
882.483	66.84
882.649	66.19
882.816	60.54
882.982	59.74
883.148	57.91
883.314	54.99
883.48	54.22
883.646	54.14
883.812	55.41
883.978	56.01
884.144	55.7
884.31	55.27
884.476	54.38
884.642	54.14
884.807	53.32
884.973	52.2
885.139	55.05
885.305	54.93
885.471	56.32
885.637	56.76
885.802	56.17
885.968	57.75
886.134	57.23
886.3	59.31
886.465	60.95
886.631	61.21
886.797	64.87
886.962	66.92
887.128	72.57
887.293	71.06
887.459	65.79
887.625	64.93
887.79	70.44
887.956	71.87
888.121	68.27
888.287	67.05
888.452	71.23
888.618	72.15
888.783	66.52
