Data from CB_037_Reflection_21-38-13-441.txt Node
Date: Wed Nov 11 21:38:13 EST 2015
User: robert
Spectrometer: USB4E03001
Autoset integration time: false
Trigger mode: 4
Integration Time (sec): 1.000000E-1
Scans to average: 15
Electric dark correction enabled: true
Nonlinearity correction enabled: false
Boxcar width: 5
Stray light correction enabled: false
XAxis mode: Wavelengths
Stop averaging: false
Number of Pixels in Spectrum: 3648
>>>>>Begin Spectral Data<<<<<
177.566	49.64
177.785	694.08
178.005	-89.73
178.225	27.65
178.445	60.77
178.665	35.25
178.885	182.02
179.105	-21.48
179.324	23.79
179.544	81.02
179.764	76.57
179.984	56.76
180.204	59.15
180.423	88.18
180.643	33.39
180.863	51.15
181.083	41.08
181.302	42.08
181.522	23.93
181.742	35.01
181.961	27.92
182.181	28.21
182.401	31.4
182.621	22.19
182.84	16.21
183.06	31.86
183.279	23.69
183.499	34.44
183.719	24.23
183.938	56.45
184.158	41.13
184.377	34.65
184.597	40.31
184.816	36.2
185.036	35.21
185.256	40.13
185.475	24.9
185.695	0.51
185.914	-27.96
186.134	13.31
186.353	1.73
186.572	5.18
186.792	14.01
187.011	2.62
187.231	2.69
187.45	50.43
187.67	26.97
187.889	32.04
188.108	53.67
188.328	54.74
188.547	53.51
188.766	27.86
188.986	17.72
189.205	14.45
189.424	24.59
189.644	28.68
189.863	22.49
190.082	41.74
190.302	35.24
190.521	10.83
190.74	11.55
190.959	18.61
191.178	36.28
191.398	36.83
191.617	49.34
191.836	42.21
192.055	34.66
192.274	25.38
192.494	4.93
192.713	25.3
192.932	34.31
193.151	24.58
193.37	20.33
193.589	29.78
193.808	25.97
194.027	-14.08
194.246	13.57
194.465	31.94
194.685	28.83
194.904	37.79
195.123	44.98
195.342	40.31
195.561	63.29
195.78	59.58
195.999	84.99
196.218	66.58
196.436	81.87
196.655	69.27
196.874	100.18
197.093	122.22
197.312	101
197.531	86.77
197.75	87.89
197.969	66.68
198.188	53.42
198.407	33.9
198.625	45.63
198.844	44.32
199.063	41.9
199.282	10.67
199.501	-5.09
199.719	-12.99
199.938	5.45
200.157	-69.46
200.376	-1.3
200.594	18.88
200.813	34.17
201.032	29.27
201.251	14.17
201.469	57.2
201.688	71.11
201.907	52.17
202.125	24.65
202.344	10.68
202.563	35.77
202.781	27.14
203	30.19
203.218	10.61
203.437	18.59
203.656	22.33
203.874	18.7
204.093	19.23
204.311	31.76
204.53	18.45
204.748	35.67
204.967	26.29
205.185	22.27
205.404	30.11
205.622	52.3
205.841	59.74
206.059	57.15
206.278	58.72
206.496	75.15
206.715	60.63
206.933	74.88
207.151	63.89
207.37	66.58
207.588	70.11
207.806	48.6
208.025	49.03
208.243	34.6
208.461	42
208.68	45.13
208.898	31.41
209.116	20
209.335	19.51
209.553	19.19
209.771	10.37
209.989	15.17
210.208	30.51
210.426	14.51
210.644	18.46
210.862	12.3
211.081	15.06
211.299	45.1
211.517	70.6
211.735	32.03
211.953	42.58
212.171	59.35
212.39	60.18
212.608	66.23
212.826	68.34
213.044	74.18
213.262	58.92
213.48	52.71
213.698	49.58
213.916	44.21
214.134	65.89
214.352	63.4
214.57	34.48
214.788	15.54
215.006	-10.07
215.224	-13.55
215.442	-45.55
215.66	-15.93
215.878	38.32
216.096	31.8
216.314	27.23
216.532	30.27
216.75	22.41
216.968	38.75
217.185	46.05
217.403	48.78
217.621	41.39
217.839	39.8
218.057	37.47
218.275	36.34
218.492	35.09
218.71	43.05
218.928	43
219.146	46.76
219.363	32.1
219.581	21.45
219.799	4.49
220.017	2.36
220.234	2.05
220.452	9.58
220.67	5.33
220.887	3.56
221.105	-13.13
221.323	-36.95
221.54	-36.11
221.758	6.01
221.976	9.75
222.193	27.82
222.411	31.37
222.629	38.19
222.846	31.37
223.064	18.09
223.281	28.6
223.499	26.09
223.716	28.64
223.934	31.79
224.151	22.86
224.369	17.11
224.586	0.85
224.804	-5.48
225.021	-20.09
225.239	-15.57
225.456	1.21
225.674	-10.1
225.891	8.72
226.108	21.59
226.326	9.04
226.543	11.37
226.76	19.5
226.978	2.95
227.195	12.29
227.413	15.4
227.63	17.47
227.847	15.92
228.064	15.08
228.282	7.81
228.499	5.94
228.716	8.68
228.934	9.82
229.151	5.94
229.368	11.04
229.585	11.28
229.802	9.42
230.02	7.83
230.237	8.24
230.454	8.55
230.671	10.37
230.888	8.04
231.105	8.7
231.323	8.5
231.54	15.12
231.757	15.43
231.974	11.85
232.191	17.04
232.408	18.11
232.625	15.62
232.842	14.19
233.059	14.86
233.276	16.8
233.493	19.5
233.71	21.42
233.927	20.3
234.144	18.67
234.361	22.67
234.578	20.08
234.795	20.91
235.012	25.74
235.229	25.66
235.446	30.86
235.663	30.09
235.879	25.39
236.096	21.43
236.313	19.76
236.53	23.04
236.747	25.13
236.964	24.22
237.181	25.74
237.397	21.86
237.614	26.39
237.831	19.14
238.048	21.43
238.264	23.57
238.481	24.12
238.698	26.45
238.915	25.66
239.131	21.91
239.348	23.46
239.565	21.2
239.781	21.11
239.998	21.98
240.215	22.55
240.431	22.54
240.648	24.62
240.865	21.61
241.081	21.52
241.298	20.38
241.514	18.23
241.731	16.97
241.947	16.76
242.164	17.24
242.38	14.48
242.597	14.07
242.814	12.96
243.03	10.95
243.246	12.2
243.463	10.78
243.679	10.65
243.896	12.84
244.112	13.93
244.329	14.55
244.545	13.3
244.762	13.94
244.978	14.11
245.194	14.87
245.411	13.1
245.627	13.86
245.843	14.97
246.06	14.39
246.276	13.12
246.492	11.44
246.709	9.95
246.925	11.74
247.141	11.78
247.357	11.17
247.574	10.91
247.79	11.49
248.006	11.1
248.222	10.63
248.439	11.04
248.655	12.4
248.871	12.84
249.087	13.58
249.303	13.19
249.519	13.44
249.736	15.11
249.952	14.54
250.168	17.41
250.384	16.61
250.6	15.57
250.816	14.11
251.032	10.81
251.248	12.09
251.464	12.05
251.68	10.75
251.896	11.91
252.112	11.47
252.328	12.06
252.544	9.89
252.76	11.8
252.976	13.14
253.192	12.32
253.408	12.54
253.624	12.03
253.84	11.29
254.056	12.1
254.272	12.51
254.487	12.97
254.703	12.91
254.919	12.8
255.135	11.87
255.351	12.05
255.567	14.56
255.782	15.8
255.998	16.77
256.214	16.89
256.43	16.82
256.646	14.73
256.861	11.29
257.077	12.88
257.293	13.04
257.508	13
257.724	13.78
257.94	14.51
258.155	14.17
258.371	12.9
258.587	14
258.802	13.21
259.018	13.42
259.234	13.52
259.449	12.93
259.665	12.02
259.88	11.61
260.096	10.46
260.312	9.36
260.527	9.77
260.743	9.69
260.958	9.48
261.174	9.65
261.389	9.62
261.605	10.09
261.82	10.26
262.036	11.41
262.251	12.05
262.466	13.45
262.682	14.94
262.897	14.13
263.113	13.27
263.328	12.92
263.543	11.37
263.759	9.79
263.974	9.95
264.189	10.05
264.405	8.19
264.62	6.56
264.835	5.88
265.051	5.35
265.266	5.21
265.481	7.25
265.696	6.77
265.912	7.95
266.127	9.32
266.342	8.17
266.557	7.64
266.773	7.97
266.988	9.64
267.203	9.15
267.418	9.33
267.633	10.17
267.848	10.17
268.064	10.21
268.279	9.96
268.494	8.85
268.709	9.61
268.924	9.56
269.139	10.66
269.354	10.56
269.569	11.06
269.784	12.32
269.999	11.03
270.214	10.74
270.429	10.99
270.644	11.38
270.859	12.58
271.074	13.1
271.289	13.66
271.504	14.27
271.719	13.94
271.934	13.4
272.149	11.92
272.363	13.49
272.578	14.29
272.793	14.43
273.008	14.19
273.223	13.22
273.438	12.32
273.653	13.01
273.867	12.14
274.082	11.82
274.297	11.64
274.512	13.38
274.726	10.24
274.941	9.55
275.156	10.37
275.371	9.73
275.585	10.76
275.8	11.17
276.015	9.53
276.229	10.03
276.444	10.43
276.659	11.26
276.873	10.38
277.088	13.01
277.302	12.88
277.517	11.46
277.732	12.85
277.946	11.61
278.161	12.5
278.375	12.51
278.59	12.84
278.804	11.96
279.019	11.86
279.233	11.35
279.448	10.26
279.662	10.05
279.877	9.76
280.091	9.82
280.306	11.61
280.52	9.98
280.735	11.43
280.949	10.66
281.163	9.72
281.378	7.9
281.592	7
281.806	7.81
282.021	6.98
282.235	7.9
282.449	8.09
282.664	6.53
282.878	6.81
283.092	6.36
283.307	7.28
283.521	8.25
283.735	9.48
283.949	9.8
284.164	9.26
284.378	9.41
284.592	9.67
284.806	8.87
285.02	9.11
285.234	10.37
285.449	10.44
285.663	9.66
285.877	9.55
286.091	9.76
286.305	9.9
286.519	9.65
286.733	9.89
286.947	8.77
287.161	8.64
287.375	9.11
287.589	8.84
287.803	8.09
288.017	7.65
288.231	8.39
288.445	9.55
288.659	9.71
288.873	10.53
289.087	10.59
289.301	11.27
289.515	12.04
289.729	11.46
289.943	10.14
290.157	10.5
290.371	11.06
290.584	11.05
290.798	10.42
291.012	11.45
291.226	12.3
291.44	12.34
291.654	12.3
291.867	12.07
292.081	12.42
292.295	14.1
292.509	13.08
292.722	13.24
292.936	12.03
293.15	11.1
293.364	10.96
293.577	9.31
293.791	10.61
294.005	10.34
294.218	10.3
294.432	11.26
294.645	10.49
294.859	11.36
295.073	10.57
295.286	11.34
295.5	11.37
295.713	10.63
295.927	9.88
296.14	9.14
296.354	9.99
296.568	10.23
296.781	9.95
296.994	10.28
297.208	11.26
297.421	11.19
297.635	11.46
297.848	11.1
298.062	10.98
298.275	11.78
298.489	12.41
298.702	12.99
298.915	12.4
299.129	12.76
299.342	13.22
299.555	12.09
299.769	12.99
299.982	12.36
300.195	13.03
300.409	12.73
300.622	13.36
300.835	12.24
301.048	10.6
301.262	10.56
301.475	10.53
301.688	10.19
301.901	11.05
302.115	9.89
302.328	10.36
302.541	10.65
302.754	11.34
302.967	10.52
303.18	12.2
303.393	13.12
303.607	14.34
303.82	12.88
304.033	11.37
304.246	10
304.459	11.43
304.672	11.81
304.885	12.68
305.098	12.73
305.311	13.84
305.524	12.14
305.737	11.84
305.95	10.31
306.163	11.53
306.376	13
306.589	14.23
306.802	14.11
307.015	13.93
307.228	12.94
307.44	12.92
307.653	12.78
307.866	13.38
308.079	13.8
308.292	14.26
308.505	13.28
308.718	12.99
308.93	13.54
309.143	12.9
309.356	12.78
309.569	13.46
309.781	13.37
309.994	13.64
310.207	14.2
310.42	13.8
310.632	14.21
310.845	15.65
311.058	15.54
311.27	15.59
311.483	15.27
311.696	15.32
311.908	15.34
312.121	14.92
312.333	14.45
312.546	13.24
312.759	13.92
312.971	13.38
313.184	11.85
313.396	11.83
313.609	11.6
313.821	12.83
314.034	13.38
314.246	12.74
314.459	14.21
314.671	14.11
314.884	15.54
315.096	14.71
315.309	14.68
315.521	14.71
315.733	15.08
315.946	14.51
316.158	13.54
316.371	13.19
316.583	12.73
316.795	12.04
317.008	12.4
317.22	12.23
317.432	12.61
317.644	13.71
317.857	14.92
318.069	14.64
318.281	13.89
318.494	13.92
318.706	14.35
318.918	13.86
319.13	14.46
319.342	13.84
319.555	14.06
319.767	13.91
319.979	13.69
320.191	13.19
320.403	13.45
320.615	14.05
320.827	14.22
321.039	13.75
321.252	14.54
321.464	14.52
321.676	14.27
321.888	13.88
322.1	13.78
322.312	13.06
322.524	13.31
322.736	13.92
322.948	13.71
323.16	13.24
323.372	13.92
323.584	14.2
323.796	13.87
324.007	14.59
324.219	15.35
324.431	15.25
324.643	16.01
324.855	16.66
325.067	16.22
325.279	16.74
325.491	17.76
325.702	17.58
325.914	17.12
326.126	17.73
326.338	16.98
326.55	16.4
326.761	16.45
326.973	16.58
327.185	16.67
327.396	16.24
327.608	15.81
327.82	16.35
328.032	16.96
328.243	18.6
328.455	18.36
328.666	19.59
328.878	19.22
329.09	19.67
329.301	18.51
329.513	17.37
329.725	17.55
329.936	18.48
330.148	18.25
330.359	17.04
330.571	15.87
330.782	15.96
330.994	15.44
331.205	16.59
331.417	17.23
331.628	17.68
331.84	18.78
332.051	19.77
332.262	19.28
332.474	19.93
332.685	20.18
332.897	20.71
333.108	20.97
333.319	21.44
333.531	21.85
333.742	22.33
333.953	23.55
334.165	23.6
334.376	24.2
334.587	24.35
334.799	23.6
335.01	24.13
335.221	23.88
335.432	23.6
335.644	23.21
335.855	22.61
336.066	21.67
336.277	22.1
336.488	22.45
336.7	21.74
336.911	22.61
337.122	22.89
337.333	21.94
337.544	22.56
337.755	22.86
337.966	23.11
338.177	22.76
338.388	22.71
338.599	22.2
338.811	21.55
339.022	21.31
339.233	20.93
339.444	20.62
339.655	21.38
339.866	21.74
340.076	21.78
340.287	22.67
340.498	23.15
340.709	24.28
340.92	24.68
341.131	25.5
341.342	26.61
341.553	26.5
341.764	26.4
341.975	26.26
342.185	25.87
342.396	25.52
342.607	24.89
342.818	24.4
343.029	23.43
343.239	22.41
343.45	22.1
343.661	21.16
343.872	20.75
344.082	20.23
344.293	20.63
344.504	20.03
344.714	19.92
344.925	19.9
345.136	20.08
345.346	20.77
345.557	21.08
345.768	20.94
345.978	21.38
346.189	21.59
346.399	21.39
346.61	20.77
346.821	21.11
347.031	21.24
347.242	21.15
347.452	21.48
347.663	21.22
347.873	20.81
348.084	21.06
348.294	21
348.504	21.29
348.715	22.27
348.925	22.42
349.136	22.8
349.346	22.71
349.557	22.6
349.767	21.99
349.977	22.01
350.188	22.38
350.398	21.8
350.608	21.61
350.819	21.61
351.029	21
351.239	20.85
351.449	20.82
351.66	19.87
351.87	20.35
352.08	20.56
352.29	20.72
352.501	21.1
352.711	21.52
352.921	21.59
353.131	21.56
353.341	22.14
353.552	22.38
353.762	21.25
353.972	22.87
354.182	21.87
354.392	22
354.602	21.7
354.812	20.66
355.022	20.18
355.232	20.49
355.442	20.42
355.652	20.68
355.862	20.88
356.072	20.55
356.282	19.87
356.492	20.78
356.702	21.04
356.912	20.88
357.122	21.12
357.332	21.67
357.542	21.7
357.752	21.57
357.962	20.68
358.171	20.45
358.381	20.91
358.591	20.73
358.801	20.09
359.011	19.37
359.221	19.87
359.43	20.51
359.64	19.9
359.85	19.63
360.06	19.42
360.269	20.25
360.479	20.09
360.689	20.28
360.899	20.25
361.108	20.47
361.318	20.67
361.528	20.44
361.737	20.05
361.947	20.23
362.156	20.16
362.366	20.13
362.576	19.49
362.785	19.85
362.995	20.03
363.204	20.32
363.414	20.29
363.623	20.35
363.833	19.93
364.042	19.62
364.252	19.83
364.461	19.68
364.671	20.11
364.88	20.71
365.09	20.16
365.299	19.84
365.509	19.85
365.718	20.03
365.927	20.23
366.137	20.33
366.346	20.68
366.555	20.71
366.765	21.05
366.974	20.92
367.183	20.08
367.393	20.35
367.602	20.6
367.811	20.2
368.021	19.69
368.23	19.12
368.439	19.14
368.648	19.11
368.857	18.72
369.067	17.98
369.276	17.72
369.485	17.95
369.694	17.82
369.903	17.76
370.112	17.47
370.321	17.55
370.531	17.55
370.74	17.61
370.949	17.63
371.158	16.81
371.367	17
371.576	17.37
371.785	17.26
371.994	16.99
372.203	16.62
372.412	17.06
372.621	16.84
372.83	16.4
373.039	16.15
373.248	15.91
373.457	16.34
373.666	16.39
373.874	15.62
374.083	15.19
374.292	14.98
374.501	14.82
374.71	14.23
374.919	14.52
375.128	15.13
375.336	15.11
375.545	14.73
375.754	14.85
375.963	14.34
376.171	14.4
376.38	14.48
376.589	14.42
376.798	13.98
377.006	13.91
377.215	14.16
377.424	14
377.632	13.74
377.841	13.96
378.05	13.92
378.258	13.85
378.467	13.95
378.675	13.94
378.884	13.88
379.093	13.83
379.301	13.92
379.51	13.32
379.718	13.43
379.927	13.42
380.135	13.3
380.344	12.96
380.552	12.91
380.761	12.14
380.969	11.96
381.177	12.15
381.386	12.6
381.594	12.61
381.803	12.4
382.011	12.22
382.219	12.32
382.428	12.51
382.636	12.66
382.845	13.18
383.053	13.31
383.261	13.7
383.469	13.28
383.678	12.66
383.886	12.17
384.094	12.2
384.302	12.08
384.511	11.57
384.719	11.09
384.927	11.26
385.135	11
385.343	11.54
385.552	11.27
385.76	11.68
385.968	11.95
386.176	12.34
386.384	12.26
386.592	12.28
386.8	12.44
387.008	12.5
387.216	12.56
387.424	12.52
387.633	11.87
387.841	11.74
388.049	11.33
388.257	11.54
388.465	11.48
388.672	11.62
388.88	11.18
389.088	11.11
389.296	10.87
389.504	9.95
389.712	9.7
389.92	9.97
390.128	10.07
390.336	10.12
390.544	10.13
390.751	10.07
390.959	10.24
391.167	10.54
391.375	10.58
391.583	10.89
391.79	11.09
391.998	11.46
392.206	11.46
392.414	11.65
392.621	11.52
392.829	11.42
393.037	11.16
393.244	10.74
393.452	10.65
393.66	10.65
393.867	10.6
394.075	10.81
394.283	10.53
394.49	10.33
394.698	10.23
394.905	10.56
395.113	10.18
395.32	10.34
395.528	10.35
395.735	10.14
395.943	10.04
396.15	10.08
396.358	10.05
396.565	10.11
396.773	9.91
396.98	9.91
397.188	9.75
397.395	9.85
397.602	9.87
397.81	9.75
398.017	9.53
398.225	9.26
398.432	8.96
398.639	9.14
398.847	8.72
399.054	8.79
399.261	8.59
399.468	8.49
399.676	8.4
399.883	8.35
400.09	8.3
400.297	8.58
400.505	8.59
400.712	8.43
400.919	7.93
401.126	8.03
401.333	8.08
401.54	7.87
401.748	7.77
401.955	7.94
402.162	7.84
402.369	7.92
402.576	7.9
402.783	8.45
402.99	8.37
403.197	8.47
403.404	8.35
403.611	8.77
403.818	8.95
404.025	9.2
404.232	9.14
404.439	9.35
404.646	9.12
404.853	9.05
405.06	8.85
405.267	9.02
405.474	8.94
405.681	9.06
405.887	8.78
406.094	8.78
406.301	8.51
406.508	8.37
406.715	8.05
406.922	8.23
407.128	8.44
407.335	8.14
407.542	8.1
407.749	8.1
407.955	7.9
408.162	7.52
408.369	7.14
408.575	7.13
408.782	7.31
408.989	7.3
409.195	7.22
409.402	6.84
409.609	6.94
409.815	6.94
410.022	6.99
410.228	7.27
410.435	7.54
410.642	7.56
410.848	7.43
411.055	7.54
411.261	7.28
411.468	7.33
411.674	7.48
411.881	7.54
412.087	7.72
412.294	7.61
412.5	7.69
412.706	7.62
412.913	7.37
413.119	7.61
413.326	7.47
413.532	7.55
413.738	7.44
413.945	7.19
414.151	7.26
414.357	7.04
414.564	7.26
414.77	7.03
414.976	7.06
415.182	7.33
415.389	7.02
415.595	6.72
415.801	6.83
416.007	6.86
416.214	6.78
416.42	6.58
416.626	6.72
416.832	6.47
417.038	6.67
417.244	6.58
417.45	6.36
417.657	6.46
417.863	6.64
418.069	6.53
418.275	6.58
418.481	6.67
418.687	6.76
418.893	6.55
419.099	6.7
419.305	6.46
419.511	6.52
419.717	6.73
419.923	6.55
420.129	6.48
420.335	6.52
420.541	6.61
420.746	6.6
420.952	6.34
421.158	6.25
421.364	6.12
421.57	6
421.776	5.87
421.982	5.71
422.187	5.83
422.393	5.67
422.599	5.62
422.805	5.47
423.01	5.38
423.216	5.5
423.422	5.6
423.628	5.58
423.833	5.73
424.039	5.82
424.245	6.03
424.45	6.05
424.656	6.23
424.862	6.3
425.067	6.44
425.273	6.6
425.478	6.72
425.684	6.81
425.889	6.85
426.095	6.89
426.301	6.86
426.506	6.75
426.712	6.67
426.917	6.57
427.123	6.51
427.328	6.26
427.533	6.03
427.739	5.71
427.944	5.68
428.15	5.66
428.355	5.51
428.561	5.61
428.766	5.58
428.971	5.56
429.177	5.55
429.382	5.44
429.587	5.51
429.793	5.69
429.998	5.78
430.203	5.5
430.408	5.55
430.614	5.53
430.819	5.57
431.024	5.74
431.229	5.86
431.434	5.91
431.64	5.96
431.845	6.09
432.05	6.09
432.255	6.18
432.46	6.33
432.665	6.14
432.87	6.34
433.076	6.25
433.281	6.24
433.486	6.26
433.691	6.41
433.896	6.7
434.101	6.78
434.306	7.14
434.511	7.55
434.716	8.06
434.921	8.8
435.126	9.27
435.331	9.81
435.535	10.1
435.74	10.21
435.945	10.21
436.15	10.3
436.355	10.36
436.56	9.89
436.765	9.36
436.97	8.84
437.174	8.19
437.379	7.51
437.584	6.96
437.789	6.54
437.993	6.43
438.198	6.25
438.403	5.96
438.608	5.59
438.812	5.66
439.017	5.77
439.222	5.88
439.426	5.83
439.631	5.77
439.836	5.8
440.04	5.69
440.245	5.64
440.45	5.64
440.654	5.69
440.859	5.75
441.063	5.74
441.268	5.77
441.472	5.56
441.677	5.77
441.881	5.9
442.086	5.91
442.29	6
442.495	5.98
442.699	6.07
442.904	5.91
443.108	5.92
443.312	6.02
443.517	6.01
443.721	6.04
443.925	5.82
444.13	5.72
444.334	5.55
444.538	5.55
444.743	5.55
444.947	5.34
445.151	5.48
445.356	5.58
445.56	5.5
445.764	5.48
445.968	5.59
446.173	5.64
446.377	5.62
446.581	5.71
446.785	5.7
446.989	5.6
447.193	5.82
447.398	5.68
447.602	5.56
447.806	5.52
448.01	5.55
448.214	5.5
448.418	5.45
448.622	5.4
448.826	5.28
449.03	5.38
449.234	5.42
449.438	5.28
449.642	5.42
449.846	5.47
450.05	5.52
450.254	5.31
450.458	5.24
450.662	5.36
450.866	5.39
451.069	5.46
451.273	5.1
451.477	5.04
451.681	5.06
451.885	4.98
452.089	4.86
452.292	4.92
452.496	4.92
452.7	5.05
452.904	4.95
453.107	5.15
453.311	5.03
453.515	5.24
453.719	5.47
453.922	5.46
454.126	5.49
454.33	5.61
454.533	5.55
454.737	5.74
454.94	5.81
455.144	5.73
455.348	5.52
455.551	5.77
455.755	5.66
455.958	5.54
456.162	5.56
456.365	5.71
456.569	5.76
456.772	5.84
456.976	5.64
457.179	5.47
457.383	5.56
457.586	5.57
457.79	5.47
457.993	5.36
458.196	5.28
458.4	5.05
458.603	5
458.807	4.91
459.01	4.94
459.213	4.99
459.417	4.96
459.62	4.99
459.823	5.07
460.026	4.99
460.23	5.05
460.433	5.15
460.636	5.33
460.839	5.47
461.042	5.57
461.246	5.46
461.449	5.53
461.652	5.59
461.855	5.53
462.058	5.55
462.261	5.5
462.464	5.54
462.668	5.58
462.871	5.44
463.074	5.11
463.277	4.96
463.48	5.19
463.683	5.16
463.886	5.01
464.089	5.31
464.292	5.21
464.495	5.22
464.698	5.39
464.901	5.28
465.104	5.51
465.306	5.5
465.509	5.6
465.712	5.35
465.915	5.2
466.118	5.37
466.321	5.02
466.524	5.19
466.726	5.43
466.929	5.32
467.132	5.24
467.335	5.19
467.538	5.43
467.74	5.47
467.943	5.47
468.146	5.68
468.348	5.7
468.551	5.84
468.754	5.82
468.956	5.68
469.159	5.7
469.362	5.75
469.564	5.83
469.767	5.59
469.969	5.74
470.172	5.67
470.375	5.53
470.577	5.51
470.78	5.5
470.982	5.33
471.185	5.42
471.387	5.52
471.59	5.62
471.792	5.4
471.995	5.53
472.197	5.56
472.399	5.47
472.602	5.61
472.804	5.7
473.007	5.77
473.209	5.77
473.411	5.77
473.614	5.5
473.816	5.36
474.018	5.5
474.22	5.54
474.423	5.27
474.625	5.49
474.827	5.62
475.03	5.46
475.232	5.36
475.434	5.51
475.636	5.28
475.838	5.37
476.04	5.26
476.243	5.01
476.445	4.78
476.647	4.96
476.849	5.02
477.051	4.82
477.253	4.81
477.455	4.7
477.657	4.6
477.859	4.74
478.061	4.99
478.263	5.14
478.465	5.34
478.667	5.33
478.869	5.28
479.071	5.24
479.273	5.27
479.475	5.39
479.677	5.58
479.879	5.67
480.081	5.65
480.283	5.39
480.485	5.55
480.686	5.32
480.888	5.48
481.09	5.49
481.292	5.55
481.494	5.56
481.695	5.51
481.897	5.53
482.099	5.45
482.301	5.51
482.502	5.62
482.704	5.63
482.906	5.69
483.107	5.66
483.309	5.61
483.511	5.52
483.712	5.53
483.914	5.54
484.115	5.52
484.317	5.5
484.519	5.51
484.72	5.55
484.922	5.47
485.123	5.56
485.325	5.55
485.526	5.65
485.728	5.75
485.929	5.76
486.131	5.8
486.332	5.83
486.534	5.9
486.735	5.89
486.936	5.84
487.138	5.95
487.339	5.86
487.541	5.93
487.742	5.84
487.943	5.83
488.144	5.87
488.346	5.89
488.547	5.85
488.748	5.85
488.95	5.81
489.151	5.76
489.352	5.73
489.553	5.77
489.755	5.79
489.956	5.8
490.157	5.79
490.358	5.72
490.559	5.65
490.76	5.68
490.961	5.73
491.163	5.77
491.364	5.76
491.565	5.74
491.766	5.77
491.967	5.75
492.168	5.75
492.369	5.76
492.57	5.76
492.771	5.76
492.972	5.87
493.173	5.85
493.374	5.85
493.575	5.93
493.776	5.95
493.976	5.95
494.177	5.91
494.378	6.09
494.579	6.17
494.78	6.14
494.981	5.98
495.182	5.78
495.382	5.85
495.583	5.88
495.784	5.91
495.985	5.97
496.185	6.04
496.386	6.15
496.587	5.99
496.788	5.76
496.988	5.73
497.189	5.97
497.39	6.13
497.59	6.1
497.791	6.14
497.992	6.09
498.192	6.07
498.393	5.85
498.593	5.85
498.794	5.83
498.994	5.94
499.195	6.09
499.395	6.16
499.596	6.11
499.796	5.97
499.997	6.09
500.197	6.28
500.398	6.31
500.598	6.34
500.799	6.12
500.999	6.2
501.199	6.3
501.4	6.3
501.6	6.03
501.801	5.91
502.001	5.87
502.201	5.78
502.402	5.67
502.602	5.63
502.802	5.64
503.002	5.8
503.203	5.77
503.403	5.76
503.603	5.84
503.803	6.19
504.003	6.17
504.204	6.38
504.404	6.54
504.604	6.51
504.804	6.71
505.004	7.05
505.204	7.17
505.404	7.1
505.604	7.19
505.804	7.15
506.005	7.1
506.205	7.27
506.405	7.28
506.605	7.09
506.805	7.21
507.005	7.24
507.204	7.12
507.404	7.2
507.604	7.43
507.804	7.54
508.004	7.59
508.204	7.49
508.404	7.53
508.604	7.55
508.804	7.64
509.003	7.82
509.203	7.68
509.403	7.72
509.603	7.75
509.803	7.69
510.002	7.65
510.202	7.75
510.402	7.95
510.602	8.08
510.801	8.11
511.001	8.15
511.201	8.12
511.4	8.3
511.6	8.46
511.8	8.43
511.999	8.59
512.199	8.58
512.398	8.68
512.598	8.74
512.797	8.69
512.997	8.93
513.197	8.97
513.396	8.9
513.596	8.87
513.795	8.81
513.994	8.92
514.194	8.85
514.393	8.92
514.593	8.92
514.792	8.93
514.992	9.08
515.191	8.98
515.39	9.18
515.59	9.43
515.789	9.55
515.988	9.69
516.188	9.73
516.387	9.96
516.586	10.21
516.786	10.31
516.985	10.47
517.184	10.51
517.383	10.75
517.582	10.7
517.782	10.75
517.981	10.85
518.18	10.92
518.379	11
518.578	11.13
518.777	11.02
518.976	11.09
519.176	11.06
519.375	11.22
519.574	11.29
519.773	11.51
519.972	11.55
520.171	11.68
520.37	11.88
520.569	12.02
520.768	12
520.967	12.31
521.166	12.46
521.365	12.66
521.564	12.88
521.762	12.86
521.961	12.92
522.16	13.01
522.359	13.01
522.558	12.98
522.757	12.96
522.956	13.18
523.154	13.25
523.353	13.4
523.552	13.55
523.751	13.52
523.949	13.7
524.148	13.8
524.347	14.03
524.546	14.36
524.744	14.43
524.943	14.6
525.142	14.63
525.34	14.62
525.539	14.68
525.737	14.78
525.936	14.92
526.135	15.11
526.333	15.27
526.532	15.27
526.73	15.18
526.929	15.35
527.127	15.47
527.326	15.58
527.524	15.7
527.723	15.84
527.921	15.88
528.12	15.91
528.318	15.92
528.516	15.95
528.715	16.02
528.913	16.13
529.112	16.17
529.31	16.16
529.508	16.15
529.707	16.23
529.905	16.23
530.103	16.33
530.301	16.35
530.5	16.43
530.698	16.59
530.896	16.81
531.094	16.95
531.293	17.12
531.491	17.42
531.689	17.75
531.887	18
532.085	18.33
532.283	18.44
532.481	18.66
532.68	18.74
532.878	18.79
533.076	18.88
533.274	18.91
533.472	18.97
533.67	19.14
533.868	19.22
534.066	19.25
534.264	19.25
534.462	19.38
534.66	19.52
534.858	19.67
535.056	19.9
535.253	20.07
535.451	20.31
535.649	20.51
535.847	20.63
536.045	20.91
536.243	21.11
536.441	21.34
536.638	21.65
536.836	21.89
537.034	22.14
537.232	22.32
537.43	22.62
537.627	22.94
537.825	23.4
538.023	23.71
538.22	24.06
538.418	24.78
538.616	25.33
538.813	26.16
539.011	27.02
539.209	28.19
539.406	29.2
539.604	30.35
539.801	31.4
539.999	32.4
540.196	33.35
540.394	34.22
540.591	34.83
540.789	35.47
540.986	35.81
541.184	36.23
541.381	36.53
541.579	36.95
541.776	37.11
541.974	37.4
542.171	37.63
542.368	37.95
542.566	38.2
542.763	38.48
542.96	38.82
543.158	39.31
543.355	39.85
543.552	40.61
543.75	41.54
543.947	42.89
544.144	44.36
544.341	46.02
544.539	47.94
544.736	50.08
544.933	52.36
545.13	54.73
545.327	56.86
545.524	58.52
545.722	59.71
545.919	60.31
546.116	60.3
546.313	59.91
546.51	59.15
546.707	58.1
546.904	56.64
547.101	55
547.298	53.14
547.495	51.2
547.692	49.47
547.889	47.87
548.086	46.59
548.283	45.46
548.48	44.52
548.677	43.79
548.874	42.9
549.07	42.36
549.267	41.67
549.464	41.26
549.661	40.86
549.858	40.65
550.055	40.02
550.251	39.48
550.448	38.87
550.645	38.2
550.842	37.37
551.038	36.77
551.235	36.15
551.432	35.6
551.628	35
551.825	34.49
552.022	33.97
552.218	33.57
552.415	33.11
552.612	32.79
552.808	32.42
553.005	32.41
553.201	32.06
553.398	31.78
553.594	31.65
553.791	31.47
553.987	31.28
554.184	30.98
554.38	30.94
554.577	30.84
554.773	30.65
554.97	30.62
555.166	30.36
555.362	30.48
555.559	30.65
555.755	30.36
555.952	30.2
556.148	30.3
556.344	30.33
556.541	30.28
556.737	30.22
556.933	30.3
557.129	30.42
557.326	30.35
557.522	30.24
557.718	30.05
557.914	30.28
558.11	30.48
558.307	30.48
558.503	30.61
558.699	30.64
558.895	30.52
559.091	30.59
559.287	30.54
559.483	30.56
559.679	30.64
559.876	30.7
560.072	30.74
560.268	30.61
560.464	30.56
560.66	30.45
560.856	30.4
561.052	30.61
561.247	30.45
561.443	30.37
561.639	30.43
561.835	30.34
562.031	30.33
562.227	30.25
562.423	30.1
562.619	30
562.815	30.05
563.01	30.22
563.206	30.27
563.402	30.47
563.598	30.56
563.793	30.42
563.989	30.43
564.185	30.41
564.381	30.66
564.576	30.81
564.772	30.85
564.968	30.98
565.163	30.81
565.359	30.68
565.555	30.71
565.75	30.62
565.946	30.86
566.141	30.88
566.337	30.67
566.532	30.54
566.728	30.49
566.923	30.66
567.119	30.69
567.314	30.93
567.51	30.9
567.705	30.78
567.901	30.78
568.096	30.77
568.292	30.75
568.487	30.91
568.682	30.93
568.878	31.19
569.073	31.02
569.268	30.97
569.464	30.89
569.659	31.02
569.854	31.15
570.05	31.29
570.245	31.33
570.44	31.38
570.635	31.46
570.831	31.55
571.026	31.67
571.221	31.73
571.416	31.69
571.611	31.51
571.806	31.65
572.002	31.58
572.197	31.59
572.392	31.6
572.587	31.67
572.782	31.74
572.977	31.77
573.172	31.36
573.367	31.18
573.562	31.03
573.757	31.28
573.952	31.15
574.147	31.38
574.342	31.41
574.537	31.61
574.732	31.78
574.927	32.03
575.121	32.33
575.316	32.93
575.511	33.52
575.706	34.11
575.901	34.64
576.096	34.86
576.29	35.18
576.485	35.66
576.68	35.98
576.875	36.41
577.069	36.88
577.264	37.21
577.459	37.77
577.654	38.25
577.848	38.4
578.043	38.7
578.238	39.5
578.432	39.95
578.627	40.11
578.821	40.49
579.016	40.88
579.21	40.81
579.405	40.88
579.6	40.55
579.794	40.42
579.989	40.69
580.183	40.56
580.378	40.53
580.572	40.15
580.766	40.41
580.961	40.46
581.155	40.17
581.35	40.28
581.544	40.29
581.738	40.57
581.933	40.91
582.127	41.16
582.321	41.41
582.516	41.31
582.71	41.91
582.904	41.92
583.099	41.85
583.293	42.22
583.487	42.63
583.681	43.02
583.875	42.96
584.07	42.85
584.264	42.9
584.458	42.78
584.652	42.83
584.846	42.63
585.04	42.84
585.234	43.15
585.428	43.28
585.623	43.57
585.817	44.02
586.011	44.61
586.205	45.1
586.399	45.84
586.593	46.61
586.787	46.99
586.981	47.43
587.174	47.6
587.368	47.54
587.562	47.35
587.756	46.91
587.95	46.07
588.144	45.47
588.338	44.65
588.532	43.77
588.725	42.95
588.919	42.33
589.113	41.41
589.307	40.79
589.501	40.29
589.694	39.93
589.888	39.43
590.082	39.38
590.275	39.28
590.469	39.59
590.663	39.44
590.856	39.85
591.05	40.26
591.244	41.03
591.437	41.62
591.631	42.37
591.824	43.05
592.018	44
592.212	44.46
592.405	45.2
592.599	45.31
592.792	45.92
592.986	45.88
593.179	45.96
593.372	45.71
593.566	45.21
593.759	44.53
593.953	43.99
594.146	43.24
594.339	42.65
594.533	41.86
594.726	41.41
594.92	40.5
595.113	39.88
595.306	39.32
595.499	38.77
595.693	38.45
595.886	38.31
596.079	38.04
596.272	37.74
596.466	37.75
596.659	37.62
596.852	37.72
597.045	37.91
597.238	37.91
597.431	37.97
597.624	38.32
597.818	38.66
598.011	38.89
598.204	39.46
598.397	39.98
598.59	40.44
598.783	40.84
598.976	40.97
599.169	41.19
599.362	41.58
599.555	41.96
599.748	41.76
599.941	41.88
600.134	41.95
600.326	41.55
600.519	41.58
600.712	41.2
600.905	40.9
601.098	40.59
601.291	40.45
601.483	40.16
601.676	39.55
601.869	39.52
602.062	38.7
602.255	38.37
602.447	38.09
602.64	37.69
602.833	37.39
603.025	37.04
603.218	36.92
603.411	36.96
603.603	36.83
603.796	37.08
603.989	37.12
604.181	37.43
604.374	37.33
604.566	37.47
604.759	37.64
604.951	37.67
605.144	38
605.336	38.31
605.529	38.18
605.721	38.44
605.914	38.6
606.106	38.71
606.299	39.1
606.491	39.65
606.683	40.01
606.876	40.38
607.068	41.14
607.26	42.04
607.453	42.82
607.645	43.96
607.837	44.97
608.03	46.19
608.222	48.02
608.414	50.06
608.606	52.47
608.799	55.92
608.991	60.24
609.183	65.37
609.375	70.94
609.567	77.47
609.759	84.99
609.952	93.23
610.144	102.2
610.336	111.13
610.528	120.31
610.72	129.21
610.912	137.73
611.104	144.97
611.296	150.3
611.488	154.86
611.68	157.53
611.872	158.22
612.064	157.48
612.256	154.51
612.448	150.98
612.64	145.93
612.832	140.36
613.023	133.89
613.215	127.47
613.407	121.99
613.599	115.89
613.791	110.62
613.983	106.01
614.174	101.18
614.366	96.83
614.558	92.67
614.75	88.73
614.941	85.31
615.133	81.87
615.325	78.55
615.516	74.92
615.708	72.17
615.9	69.35
616.091	66.27
616.283	64.07
616.475	61.7
616.666	59.39
616.858	57.3
617.049	55.21
617.241	53.43
617.432	52
617.624	50.97
617.815	49.69
618.007	48.75
618.198	47.77
618.39	46.63
618.581	45.93
618.773	45.47
618.964	45.1
619.155	44.65
619.347	44.62
619.538	44.72
619.729	44.4
619.921	44.25
620.112	44.19
620.303	44.27
620.494	44.33
620.686	44.79
620.877	44.78
621.068	44.84
621.259	44.93
621.451	44.86
621.642	44.85
621.833	45.41
622.024	45.9
622.215	46.38
622.406	46.75
622.597	47.13
622.788	46.82
622.98	46.91
623.171	47.12
623.362	47.4
623.553	47.54
623.744	47.63
623.935	47.77
624.126	47.56
624.317	47.27
624.508	47.03
624.698	46.82
624.889	47.05
625.08	46.96
625.271	46.92
625.462	46.58
625.653	46.37
625.844	46.03
626.034	45.65
626.225	45.79
626.416	45.45
626.607	45.28
626.798	45.11
626.988	44.76
627.179	44.59
627.37	44.4
627.56	44.59
627.751	44.48
627.942	44.59
628.132	44.76
628.323	44.75
628.514	45.39
628.704	45.94
628.895	46.66
629.085	47.86
629.276	48.61
629.466	49.44
629.657	50.43
629.847	51.45
630.038	52.63
630.228	53.46
630.419	53.91
630.609	54.3
630.8	54.48
630.99	54.56
631.181	53.55
631.371	52.77
631.561	52.09
631.752	51.19
631.942	50.21
632.132	48.69
632.323	47.13
632.513	46.32
632.703	45.01
632.893	43.5
633.084	42.22
633.274	41.72
633.464	41.29
633.654	40.7
633.844	39.71
634.034	39.2
634.225	38.78
634.415	38.76
634.605	38.34
634.795	38.3
634.985	38.12
635.175	38.19
635.365	38.06
635.555	38.13
635.745	37.77
635.935	38.02
636.125	37.79
636.315	38.01
636.505	37.88
636.695	37.84
636.885	37.5
637.075	37.85
637.265	37.7
637.455	37.57
637.644	37.57
637.834	37.56
638.024	37.41
638.214	37.67
638.404	37.45
638.593	37.69
638.783	37.38
638.973	37.33
639.163	37.18
639.352	37.3
639.542	37.31
639.732	37.54
639.921	37.91
640.111	37.77
640.301	37.2
640.49	37.3
640.68	37.29
640.87	37.46
641.059	37.48
641.249	37.52
641.438	37.42
641.628	37.16
641.817	36.75
642.007	36.54
642.196	37.16
642.386	37.81
642.575	37.98
642.764	37.71
642.954	37.95
643.143	38.07
643.333	38.4
643.522	38.78
643.711	38.99
643.901	39.14
644.09	39.21
644.279	39.01
644.469	38.79
644.658	38.6
644.847	38.65
645.036	38.88
645.226	39.21
645.415	38.74
645.604	38.47
645.793	38.4
645.982	38.43
646.171	38.37
646.361	37.93
646.55	37.89
646.739	38.2
646.928	38.52
647.117	37.73
647.306	37.57
647.495	38.25
647.684	38.25
647.873	38.51
648.062	38.4
648.251	38.43
648.44	39.08
648.629	39.48
648.818	39.26
649.007	38.99
649.196	39.77
649.384	40.28
649.573	40.07
649.762	40.43
649.951	40.74
650.14	41.04
650.328	41.67
650.517	41.44
650.706	41.4
650.895	41.68
651.083	41.75
651.272	41.28
651.461	40.68
651.65	40.91
651.838	40.45
652.027	40.02
652.216	40.05
652.404	39.72
652.593	39.85
652.781	39.74
652.97	39.57
653.158	39.58
653.347	39.7
653.535	39.78
653.724	39.55
653.912	40.04
654.101	40.18
654.289	40.07
654.478	40.17
654.666	39.27
654.855	38.91
655.043	38.9
655.231	38.14
655.42	37.96
655.608	38.11
655.796	37.41
655.985	36.74
656.173	36.87
656.361	36.3
656.55	36.05
656.738	36.47
656.926	36.75
657.114	36.6
657.302	37.11
657.491	37.28
657.679	36.98
657.867	37.41
658.055	37.49
658.243	37.27
658.431	37.28
658.619	37.49
658.807	37.65
658.996	37.34
659.184	37.35
659.372	37.23
659.56	37.04
659.748	36.87
659.936	36.76
660.124	36.97
660.311	36.67
660.499	36.61
660.687	36.41
660.875	36.09
661.063	36.59
661.251	36.78
661.439	37.2
661.627	37.32
661.814	37.79
662.002	38.21
662.19	38.17
662.378	38.46
662.565	38.68
662.753	38.77
662.941	38.98
663.129	38.66
663.316	38.57
663.504	38.1
663.692	38.43
663.879	38.38
664.067	38.08
664.254	38.12
664.442	38.47
664.63	38.98
664.817	38.81
665.005	38.88
665.192	39.29
665.38	39.38
665.567	39.7
665.755	39.59
665.942	39.8
666.13	39.45
666.317	39.51
666.504	39.1
666.692	38.97
666.879	38.63
667.067	38.64
667.254	38.52
667.441	38.37
667.629	38.38
667.816	38.45
668.003	38.09
668.19	38.42
668.378	38.91
668.565	39.12
668.752	38.68
668.939	39.14
669.127	39.07
669.314	38.94
669.501	38.78
669.688	38.5
669.875	38.34
670.062	38.83
670.249	38.55
670.436	38.2
670.623	38.25
670.81	38.38
670.997	38.63
671.184	38.38
671.371	38.18
671.558	37.98
671.745	37.8
671.932	37.58
672.119	37.45
672.306	37.81
672.493	37.59
672.68	37.35
672.867	37.24
673.054	36.61
673.24	36.76
673.427	36.91
673.614	36.97
673.801	37.72
673.988	38.45
674.174	38.12
674.361	37.69
674.548	37.48
674.734	37.44
674.921	37.83
675.108	37.61
675.294	37.85
675.481	37.7
675.668	37.56
675.854	36.81
676.041	36.01
676.227	35.89
676.414	35.7
676.601	36.02
676.787	35.97
676.974	35.59
677.16	36.23
677.347	36.67
677.533	37.09
677.719	37.53
677.906	37.71
678.092	38.04
678.279	38.51
678.465	38.8
678.651	38.91
678.838	39.17
679.024	38.95
679.21	38.02
679.397	37.36
679.583	36.94
679.769	36.96
679.955	36.85
680.142	36.65
680.328	36.36
680.514	36.19
680.7	36.05
680.886	35.91
681.073	36.09
681.259	36.53
681.445	36.72
681.631	36.63
681.817	36.72
682.003	37
682.189	37.25
682.375	37.33
682.561	37.6
682.747	37.16
682.933	37.06
683.119	37.1
683.305	37.48
683.491	37.56
683.677	37.51
683.863	37.3
684.049	37.58
684.235	37.77
684.42	38.03
684.606	38.08
684.792	38.62
684.978	39.04
685.164	38.71
685.349	38.72
685.535	38.22
685.721	38.56
685.907	38.64
686.092	38.14
686.278	38.24
686.464	38.4
686.649	37.93
686.835	38.35
687.021	38.37
687.206	39.23
687.392	38.9
687.577	39.32
687.763	39.13
687.948	39.09
688.134	39.14
688.319	38.59
688.505	38.01
688.69	38.98
688.876	38.49
689.061	38.2
689.247	37.84
689.432	37.91
689.618	37.65
689.803	38.17
689.988	38.16
690.174	38.44
690.359	38.66
690.544	38.29
690.73	37.71
690.915	37.62
691.1	37.55
691.285	38.26
691.471	38.67
691.656	39.54
691.841	39.36
692.026	38.95
692.211	39
692.396	38.77
692.582	39.78
692.767	39.86
692.952	39.97
693.137	39.92
693.322	38.87
693.507	38.16
693.692	37.3
693.877	37.48
694.062	37.84
694.247	37.39
694.432	37.62
694.617	37.18
694.802	37.21
694.987	37.22
695.172	37.15
695.357	38.11
695.541	38.36
695.726	38.8
695.911	38.69
696.096	38.69
696.281	38.6
696.466	38.52
696.65	38.41
696.835	38.4
697.02	38.69
697.204	38.68
697.389	38.35
697.574	38.24
697.759	37.69
697.943	37.23
698.128	37.19
698.312	37.25
698.497	37.18
698.682	37.02
698.866	36.95
699.051	36.73
699.235	36.53
699.42	36.12
699.604	36.46
699.789	36.57
699.973	36.76
700.158	36.63
700.342	36.95
700.527	36.75
700.711	36.74
700.895	36.9
701.08	36.4
701.264	37.19
701.448	37.36
701.633	37.07
701.817	36.89
702.001	36.75
702.186	36.91
702.37	36.71
702.554	36.96
702.738	37.35
702.923	37.29
703.107	38.1
703.291	37.8
703.475	38.02
703.659	37.93
703.843	38.38
704.027	39.07
704.212	39.11
704.396	38.98
704.58	39.15
704.764	39.26
704.948	39.55
705.132	39.89
705.316	39.75
705.5	39.86
705.684	40.07
705.868	40.8
706.052	40.55
706.235	41.33
706.419	42.58
706.603	43.25
706.787	42.84
706.971	43
707.155	43.09
707.339	43.95
707.522	44.77
707.706	45.37
707.89	45.52
708.074	46.4
708.257	46.49
708.441	45.98
708.625	45.3
708.808	45.91
708.992	45.73
709.176	45.62
709.359	44.39
709.543	44.54
709.727	44.1
709.91	43.63
710.094	42.91
710.277	42.64
710.461	42.98
710.644	43.42
710.828	43.1
711.011	43.71
711.195	43.44
711.378	44.07
711.562	43.67
711.745	44.01
711.928	43.93
712.112	43.67
712.295	43.16
712.478	41.75
712.662	41.64
712.845	41.69
713.028	40.82
713.212	40.95
713.395	40.62
713.578	40.32
713.761	39.26
713.945	39.31
714.128	39.33
714.311	38.79
714.494	39.19
714.677	38.84
714.86	39.02
715.043	38.66
715.227	38.9
715.41	38.4
715.593	37.65
715.776	37.71
715.959	37.59
716.142	37.33
716.325	37.44
716.508	37.44
716.691	37.48
716.874	36.75
717.057	36.64
717.239	36.17
717.422	36.67
717.605	36.24
717.788	36.34
717.971	36.1
718.154	36.16
718.337	36.41
718.519	36.69
718.702	36.67
718.885	36.78
719.068	37.18
719.25	37.14
719.433	36.98
719.616	38.1
719.798	38.39
719.981	38.52
720.164	38.53
720.346	38.7
720.529	38.04
720.712	37.87
720.894	37.46
721.077	37.56
721.259	37.42
721.442	37.59
721.624	37.36
721.807	36.95
721.989	37.4
722.172	37.78
722.354	37.04
722.537	38.13
722.719	38.37
722.901	38.24
723.084	37.82
723.266	37.68
723.448	37.13
723.631	36.64
723.813	37.14
723.995	36.82
724.178	36.45
724.36	37.62
724.542	37.94
724.724	37.08
724.907	38.57
725.089	38.57
725.271	38.38
725.453	38.38
725.635	38.84
725.817	38.38
725.999	38.7
726.181	38.64
726.364	38.25
726.546	37.38
726.728	37.67
726.91	36.12
727.092	35.74
727.274	35.27
727.456	35.67
727.638	35.46
727.819	35.44
728.001	33.82
728.183	33.3
728.365	33.02
728.547	32.86
728.729	33.68
728.911	34.3
729.093	34.14
729.274	34.73
729.456	34.75
729.638	35.27
729.82	35.27
730.001	36.26
730.183	36.54
730.365	37.15
730.546	37.04
730.728	36.68
730.91	37.2
731.091	37.6
731.273	37.8
731.455	37.71
731.636	37.4
731.818	37.87
731.999	38.28
732.181	38.74
732.362	38.39
732.544	38.16
732.725	38.37
732.907	37.9
733.088	37.87
733.27	37.5
733.451	37.95
733.633	37.61
733.814	37.58
733.995	37.34
734.177	37.28
734.358	37.14
734.539	38.4
734.721	37.5
734.902	37.12
735.083	37.31
735.264	37.01
735.446	37.13
735.627	36.64
735.808	36.07
735.989	35.95
736.17	34.93
736.351	34.89
736.533	33.97
736.714	35.04
736.895	35.71
737.076	36.27
737.257	37.44
737.438	37.44
737.619	38.47
737.8	38.5
737.981	38.73
738.162	39.38
738.343	39.51
738.524	39.55
738.705	39.08
738.886	38.94
739.067	38.82
739.247	39.02
739.428	39.08
739.609	38.71
739.79	40.11
739.971	39.86
740.151	41.03
740.332	41.46
740.513	42.01
740.694	41.95
740.874	42.36
741.055	42.14
741.236	41.09
741.417	40.36
741.597	40.34
741.778	39.56
741.958	40.27
742.139	40.01
742.32	39.61
742.5	38.65
742.681	39.08
742.861	37.57
743.042	37.54
743.222	36.74
743.403	37.17
743.583	39.14
743.764	38.81
743.944	37.84
744.124	37.37
744.305	37.66
744.485	37.38
744.666	36.83
744.846	37.69
745.026	37.96
745.207	39.08
745.387	38.27
745.567	36.34
745.747	36.9
745.928	37.29
746.108	35.97
746.288	34.78
746.468	34.71
746.648	35.14
746.829	34.8
747.009	34.4
747.189	34.7
747.369	35.12
747.549	34.91
747.729	34.56
747.909	33.87
748.089	34.36
748.269	35.97
748.449	35.88
748.629	36.82
748.809	36.26
748.989	37.3
749.169	36.51
749.349	36.5
749.529	36.34
749.709	36.8
749.889	37.17
750.068	37.65
750.248	38.23
750.428	38.72
750.608	37.67
750.788	38.76
750.967	37.83
751.147	38.25
751.327	38.31
751.507	38.4
751.686	37.73
751.866	37.27
752.046	37.33
752.225	37.18
752.405	37.24
752.585	37.76
752.764	37.87
752.944	38.88
753.123	39.79
753.303	40.53
753.482	40.62
753.662	40.28
753.841	41.22
754.021	41.13
754.2	39.92
754.38	40.21
754.559	38.81
754.739	38.28
754.918	37.13
755.097	36.29
755.277	34.79
755.456	36.01
755.635	36.39
755.815	35.81
755.994	35.97
756.173	36.33
756.352	37.65
756.532	38.15
756.711	38.36
756.89	38.32
757.069	37.83
757.248	37.84
757.427	36.51
757.607	37.1
757.786	38.26
757.965	38.66
758.144	38.16
758.323	36.91
758.502	36.87
758.681	37.3
758.86	37.48
759.039	37.68
759.218	38.45
759.397	38.61
759.576	37.41
759.755	37.09
759.934	37.14
760.113	37.91
760.291	37.44
760.47	38
760.649	36.89
760.828	37.35
761.007	37.61
761.186	37.32
761.364	37.21
761.543	36.19
761.722	35.45
761.901	34.72
762.079	34.2
762.258	35.8
762.437	35.4
762.615	35.92
762.794	36
762.972	36.3
763.151	36.56
763.33	36.73
763.508	37.91
763.687	38.35
763.865	38.69
764.044	38.43
764.222	37.37
764.401	37.5
764.579	38.11
764.758	37.39
764.936	36.82
765.114	36.67
765.293	36.52
765.471	36.62
765.65	35.92
765.828	35.52
766.006	35.08
766.184	34.63
766.363	34.75
766.541	33.39
766.719	34.32
766.898	34.38
767.076	34.53
767.254	35.37
767.432	35.41
767.61	36.45
767.788	36.86
767.967	38.17
768.145	39.72
768.323	38.4
768.501	39.53
768.679	38.3
768.857	37.91
769.035	37.72
769.213	35.69
769.391	35.44
769.569	32.79
769.747	31.94
769.925	31.28
770.103	31.06
770.281	32.39
770.459	32.18
770.636	34.4
770.814	34.46
770.992	34.11
771.17	34.64
771.348	34.78
771.525	36.6
771.703	37.24
771.881	37.26
772.059	37.28
772.236	37.9
772.414	38.88
772.592	36.59
772.769	37.26
772.947	36.89
773.125	38.56
773.302	36.82
773.48	36.06
773.657	35.91
773.835	34.7
774.013	35.57
774.19	35.82
774.368	35.53
774.545	37.91
774.723	38.49
774.9	39.33
775.077	40.16
775.255	41.74
775.432	42.02
775.61	41.96
775.787	43
775.964	40.64
776.142	40.66
776.319	37.73
776.496	35.23
776.674	34.34
776.851	33.95
777.028	29.46
777.205	29.24
777.382	29.24
777.56	29.35
777.737	28.95
777.914	29.28
778.091	29.18
778.268	31.99
778.445	33.48
778.622	32.29
778.8	31.51
778.977	35.14
779.154	34.04
779.331	34.47
779.508	35
779.685	36.77
779.862	37.32
780.038	36.78
780.215	35.19
780.392	34.75
780.569	34.52
780.746	35.52
780.923	35.3
781.1	36.22
781.277	35.41
781.453	33.27
781.63	31.77
781.807	31.48
781.984	31.86
782.16	33.02
782.337	32.69
782.514	33.86
782.691	33.48
782.867	31.68
783.044	31.06
783.221	31.43
783.397	31.8
783.574	32.43
783.75	32.14
783.927	32.24
784.103	31.72
784.28	31.8
784.456	33.38
784.633	34.15
784.809	34.87
784.986	35.9
785.162	36.4
785.339	36.09
785.515	35.55
785.692	36.07
785.868	36.2
786.044	37.59
786.221	38.38
786.397	38.01
786.573	37.2
786.749	36.11
786.926	35.49
787.102	36.43
787.278	36.08
787.454	37.26
787.631	35.91
787.807	33.89
787.983	33.47
788.159	33.38
788.335	31.98
788.511	32.65
788.687	32.04
788.863	33.57
789.039	31.78
789.216	33.71
789.392	32.35
789.568	34.5
789.744	36.71
789.919	36.68
790.095	35.62
790.271	37.4
790.447	37.07
790.623	38.12
790.799	36.76
790.975	38.91
791.151	39.07
791.327	39.57
791.502	39.37
791.678	38.05
791.854	37.73
792.03	38.28
792.205	36.77
792.381	36.41
792.557	38.97
792.733	38.78
792.908	36.31
793.084	37.44
793.259	38.66
793.435	36.98
793.611	38.06
793.786	39.03
793.962	38.19
794.137	39.05
794.313	40.01
794.488	39.73
794.664	39.61
794.839	42.38
795.015	40.27
795.19	40.02
795.366	40.65
795.541	38.43
795.716	38.84
795.892	38.85
796.067	38.89
796.242	37.76
796.418	33.54
796.593	34.82
796.768	33.55
796.944	35.42
797.119	33.98
797.294	33.37
797.469	33.37
797.644	32.12
797.82	31.13
797.995	28.57
798.17	31.58
798.345	33.84
798.52	32.09
798.695	33.98
798.87	29.6
799.045	29.03
799.22	28.11
799.395	28.58
799.57	27.75
799.745	29.67
799.92	31.83
800.095	28.97
800.27	29.6
800.445	29.31
800.62	26.19
800.795	29.71
800.97	31.91
801.145	31.91
801.319	33.95
801.494	35.69
801.669	34.99
801.844	34.7
802.018	35.51
802.193	34.4
802.368	36.65
802.543	38.7
802.717	39.17
802.892	35.1
803.067	35.39
803.241	36.99
803.416	35.64
803.59	35.16
803.765	34.87
803.94	31.48
804.114	30.02
804.289	32.09
804.463	29.79
804.638	27.7
804.812	31.74
804.986	33.77
805.161	31.32
805.335	29.89
805.51	28.59
805.684	30.33
805.858	33.6
806.033	36.5
806.207	36.14
806.381	37.06
806.556	36.51
806.73	36.73
806.904	35.82
807.078	36.39
807.253	37.48
807.427	38.26
807.601	38
807.775	38.13
807.949	37.62
808.123	37.32
808.298	37.38
808.472	37.69
808.646	36.67
808.82	37.62
808.994	35.96
809.168	37.4
809.342	39.42
809.516	39.42
809.69	37.33
809.864	36.8
810.038	31.8
810.212	33.85
810.385	36.58
810.559	37.17
810.733	36.02
810.907	38.89
811.081	36.33
811.255	35.38
811.428	36.18
811.602	38.31
811.776	37.79
811.95	42.94
812.123	43.61
812.297	42.15
812.471	42.08
812.644	44.43
812.818	41.57
812.992	43.7
813.165	43.39
813.339	43.15
813.512	44.09
813.686	45.46
813.86	44.59
814.033	44.16
814.207	44.2
814.38	45.15
814.554	45.87
814.727	46.16
814.9	45.67
815.074	46.9
815.247	44.42
815.421	42.3
815.594	40.67
815.767	39.26
815.941	35.12
816.114	36.99
816.287	33.94
816.46	28.61
816.634	28.96
816.807	25.18
816.98	22.87
817.153	25.34
817.327	25.09
817.5	26.03
817.673	24.91
817.846	24.86
818.019	20.26
818.192	22.43
818.365	26.47
818.538	25.85
818.711	30.37
818.884	31.8
819.057	29.01
819.23	30.73
819.403	34.22
819.576	34.11
819.749	35.39
819.922	35.85
820.095	34.63
820.268	35.02
820.441	36.41
820.614	36.51
820.786	36.26
820.959	36.68
821.132	37.58
821.305	36.38
821.477	36.65
821.65	36.19
821.823	36.85
821.996	37.06
822.168	35.65
822.341	34.31
822.514	33.77
822.686	34.21
822.859	35.27
823.031	34.57
823.204	34.99
823.376	35.11
823.549	35.49
823.722	35.46
823.894	35.94
824.067	36.66
824.239	37.53
824.411	38.1
824.584	37.99
824.756	36.88
824.929	37.48
825.101	36.87
825.273	36.12
825.446	35.82
825.618	35.81
825.79	34.52
825.963	34.84
826.135	35.44
826.307	35.16
826.479	34.05
826.652	34.18
826.824	33.65
826.996	33.45
827.168	34.53
827.34	35.06
827.512	34.81
827.684	34.91
827.856	34.62
828.029	34.02
828.201	33.65
828.373	34.61
828.545	34.67
828.717	34.77
828.889	35.64
829.061	34.79
829.232	34.3
829.404	34.67
829.576	36.44
829.748	36.32
829.92	36.33
830.092	37.31
830.264	38.1
830.436	38.6
830.607	39.19
830.779	39.4
830.951	41.44
831.123	40.83
831.294	41.02
831.466	39.08
831.638	39.09
831.809	39.4
831.981	38.98
832.153	39.38
832.324	40.93
832.496	39.91
832.667	39.32
832.839	36.5
833.011	38.32
833.182	40.17
833.354	39.78
833.525	38.42
833.697	37.93
833.868	38.46
834.039	37.7
834.211	36.01
834.382	36.9
834.554	37.2
834.725	38.22
834.896	36.93
835.068	33.95
835.239	35.25
835.41	35.72
835.581	36.19
835.753	34.99
835.924	35.32
836.095	37.38
836.266	36.4
836.438	35.35
836.609	34.78
836.78	35.67
836.951	37.25
837.122	36.89
837.293	38.66
837.464	36.61
837.635	37.12
837.806	37.41
837.977	34.69
838.148	35.9
838.319	35.85
838.49	36.95
838.661	35.94
838.832	38.38
839.003	39.91
839.174	36.89
839.345	38.51
839.516	40.07
839.687	38.28
839.857	38.12
840.028	39.37
840.199	42.15
840.37	41.84
840.54	44.94
840.711	41.21
840.882	39.36
841.053	39.81
841.223	44.13
841.394	42.79
841.564	42.35
841.735	42.6
841.906	41.12
842.076	39.35
842.247	42.51
842.417	38.41
842.588	41.42
842.758	40.69
842.929	39.75
843.099	30.25
843.27	33.44
843.44	31.93
843.611	35.98
843.781	35.49
843.951	29.97
844.122	27.02
844.292	30.91
844.462	29.18
844.633	33.39
844.803	38.76
844.973	41.89
845.144	36.18
845.314	36.53
845.484	30.63
845.654	33.5
845.824	37.69
845.995	35.26
846.165	30.06
846.335	25.14
846.505	25.62
846.675	19
846.845	31.5
847.015	37.95
847.185	42.07
847.355	47.39
847.525	48.33
847.695	46.96
847.865	50.61
848.035	57.35
848.205	58.62
848.375	64.33
848.545	67.77
848.715	50.33
848.884	45.26
849.054	46.11
849.224	44.31
849.394	44.62
849.564	45.95
849.733	40.83
849.903	43.09
850.073	43.3
850.243	32.97
850.412	32.56
850.582	36.32
850.752	33.45
850.921	34.79
851.091	35.08
851.26	31.52
851.43	29.69
851.599	22.43
851.769	19.31
851.939	23.67
852.108	22.1
852.278	25.2
852.447	30.27
852.616	33.22
852.786	31.44
852.955	36.52
853.125	33.56
853.294	38.5
853.463	46.55
853.633	45.27
853.802	45.44
853.971	57.64
854.141	48.68
854.31	40.45
854.479	36.09
854.648	32.04
854.818	34.17
854.987	40.82
855.156	44.07
855.325	45.6
855.494	45.69
855.663	41.53
855.832	35.81
856.001	34.67
856.171	40.09
856.34	41.77
856.509	47.81
856.678	45.85
856.847	45.9
857.016	43.02
857.185	42.09
857.353	45.15
857.522	48.65
857.691	42.77
857.86	53.14
858.029	47.4
858.198	44.76
858.367	38.28
858.535	30.19
858.704	24.29
858.873	28.04
859.042	28.58
859.21	30.8
859.379	29.29
859.548	34.05
859.717	25.18
859.885	33.27
860.054	37.53
860.222	38.45
860.391	45.96
860.56	49.13
860.728	49.06
860.897	52.58
861.065	54.96
861.234	52.32
861.402	56.98
861.571	61.43
861.739	64.87
861.908	76.3
862.076	82.62
862.244	80.29
862.413	74.32
862.581	62.9
862.749	62.59
862.918	59.03
863.086	59.74
863.254	54.35
863.423	53.57
863.591	45.86
863.759	35.83
863.927	26.01
864.096	27.78
864.264	26.13
864.432	26.72
864.6	24.5
864.768	7.57
864.936	2.57
865.104	6.11
865.272	4.05
865.44	6.28
865.608	9.57
865.776	19.59
865.944	17.02
866.112	23.27
866.28	28.18
866.448	25.81
866.616	29.78
866.784	33.56
866.952	30.69
867.12	26.25
867.288	20.02
867.455	23.23
867.623	22.29
867.791	21.11
867.959	25.99
868.127	16.09
868.294	19.63
868.462	29.58
868.63	31.25
868.797	33.8
868.965	38.19
869.133	44.63
869.3	48.46
869.468	53.87
869.636	55.33
869.803	48.7
869.971	62.75
870.138	64.03
870.306	55.67
870.473	54.43
870.641	60.25
870.808	57.25
870.975	50.95
871.143	46.84
871.31	39.94
871.478	44.45
871.645	45.73
871.812	31.35
871.98	44.48
872.147	41.33
872.314	30.84
872.482	22.45
872.649	34.25
872.816	44.55
872.983	36.18
873.15	40.53
873.318	28.1
873.485	33.14
873.652	43.68
873.819	28.45
873.986	31.62
874.153	40.52
874.32	40.55
874.487	35.98
874.654	34.31
874.821	41.38
874.988	31.34
875.155	34.46
875.322	29.94
875.489	28.54
875.656	25.52
875.823	29
875.99	21.74
876.157	24.15
876.324	31
876.49	24.82
876.657	33.69
876.824	37.14
876.991	37.48
877.157	31.13
877.324	11.05
877.491	15.84
877.658	6.81
877.824	0.85
877.991	0.14
878.157	-8.73
878.324	-7.51
878.491	-20.44
878.657	1.32
878.824	4.74
878.99	19.09
879.157	35.79
879.323	38.66
879.49	41.5
879.656	43.73
879.823	41.54
879.989	40.3
880.156	41.67
880.322	39.68
880.488	36
880.655	34.26
880.821	29.53
880.987	25.61
881.154	29.67
881.32	33.24
881.486	40.45
881.652	41.69
881.819	44.75
881.985	41.46
882.151	41.69
882.317	40.15
882.483	40.68
882.649	40.27
882.816	40.6
882.982	38.49
883.148	34.93
883.314	33.73
883.48	33.38
883.646	33.14
883.812	33.12
883.978	32.04
884.144	31.69
884.31	31.32
884.476	32.51
884.642	31.4
884.807	31.58
884.973	33.55
885.139	31.97
885.305	31.34
885.471	30.47
885.637	31.43
885.802	32.24
885.968	32.77
886.134	33.86
886.3	30.6
886.465	30.39
886.631	30.74
886.797	30.75
886.962	31
887.128	35.01
887.293	36.06
887.459	35.84
887.625	36.92
887.79	36.13
887.956	32.45
888.121	36.03
888.287	38.03
888.452	36.72
888.618	34.38
888.783	35.45
