Data from CB_096_Reflection_6.txt Node
Date: Sat Nov 14 17:36:05 EST 2015
User: robert
Spectrometer: USB4E03001
Autoset integration time: false
Trigger mode: 4
Integration Time (sec): 1.000000E-1
Scans to average: 15
Electric dark correction enabled: true
Nonlinearity correction enabled: false
Boxcar width: 5
Stray light correction enabled: false
XAxis mode: Wavelengths
Stop averaging: false
Number of Pixels in Spectrum: 3648
>>>>>Begin Spectral Data<<<<<
177.566	108.52
177.785	-682.27
178.005	99.04
178.225	587.3
178.445	-2282.11
178.665	192.24
178.885	-296.91
179.105	73.31
179.324	70.97
179.544	48.69
179.764	57.8
179.984	46.79
180.204	39.91
180.423	29.73
180.643	81.91
180.863	80.37
181.083	36.79
181.302	30.36
181.522	41.94
181.742	56.89
181.961	30.14
182.181	39.61
182.401	145.6
182.621	82.49
182.84	70.26
183.06	40.85
183.279	37.89
183.499	94.3
183.719	22.42
183.938	-2.4
184.158	-19.94
184.377	2.21
184.597	-9.93
184.816	13.11
185.036	25.61
185.256	33.66
185.475	30.53
185.695	24.9
185.914	32.55
186.134	44.95
186.353	55.38
186.572	58.23
186.792	65.76
187.011	60.19
187.231	55.25
187.45	61.61
187.67	55.5
187.889	60.67
188.108	72.17
188.328	58.06
188.547	62.47
188.766	42.4
188.986	46.33
189.205	38.77
189.424	45.92
189.644	48.78
189.863	36.79
190.082	37.31
190.302	29.45
190.521	20.93
190.74	33.37
190.959	17.86
191.178	36.6
191.398	12.21
191.617	37
191.836	37.74
192.055	29.3
192.274	29.5
192.494	47.13
192.713	22.32
192.932	82.31
193.151	95.25
193.37	92.63
193.589	45.4
193.808	121.43
194.027	194.17
194.246	-562.66
194.465	1266.67
194.685	117.84
194.904	114.08
195.123	85.82
195.342	49.73
195.561	45.91
195.78	32.03
195.999	62.02
196.218	51.87
196.436	55.36
196.655	53.84
196.874	46.23
197.093	66.59
197.312	70.56
197.531	76.6
197.75	79.8
197.969	91.32
198.188	99.5
198.407	90.5
198.625	103.79
198.844	93.6
199.063	83.9
199.282	101.75
199.501	85.94
199.719	64.81
199.938	57.7
200.157	59.77
200.376	42.32
200.594	53.45
200.813	59.15
201.032	47.91
201.251	53.82
201.469	50.82
201.688	43.44
201.907	47.8
202.125	50.56
202.344	70.27
202.563	54.11
202.781	72.06
203	88.77
203.218	70.35
203.437	41.05
203.656	27.5
203.874	5.52
204.093	-19.99
204.311	20.7
204.53	23.54
204.748	15.5
204.967	30.3
205.185	41.46
205.404	43.67
205.622	37.27
205.841	71.82
206.059	75.29
206.278	74.76
206.496	63.24
206.715	78.07
206.933	65.87
207.151	77.05
207.37	76.99
207.588	61.69
207.806	53.15
208.025	54.32
208.243	36.38
208.461	44.44
208.68	65.66
208.898	66.86
209.116	51.99
209.335	56.99
209.553	56.37
209.771	55.18
209.989	58.5
210.208	60.18
210.426	61.04
210.644	57.1
210.862	40.8
211.081	30.44
211.299	44.66
211.517	48.12
211.735	30.26
211.953	35.65
212.171	49.1
212.39	41.01
212.608	33.38
212.826	31.33
213.044	37.03
213.262	36.97
213.48	42.46
213.698	35.47
213.916	45.97
214.134	39.83
214.352	29.73
214.57	3.95
214.788	11.69
215.006	13.69
215.224	1.93
215.442	-4.63
215.66	20.63
215.878	-4.02
216.096	18.58
216.314	27
216.532	41.64
216.75	38.62
216.968	63.25
217.185	43.59
217.403	26.07
217.621	40.59
217.839	16.58
218.057	5.74
218.275	52.25
218.492	62.6
218.71	69.78
218.928	83.19
219.146	170.14
219.363	152.89
219.581	162.4
219.799	228.08
220.017	184.2
220.234	188.47
220.452	183.07
220.67	227.7
220.887	308.23
221.105	349.44
221.323	4977.91
221.54	424.37
221.758	1723.21
221.976	918.06
222.193	204.03
222.411	251.89
222.629	450.19
222.846	761.44
223.064	-471.68
223.281	522.57
223.499	378.03
223.716	593.37
223.934	-161.98
224.151	-40.58
224.369	-35.68
224.586	-2.47
224.804	19.63
225.021	13.22
225.239	10.33
225.456	-3.25
225.674	-18.99
225.891	-31.32
226.108	-94.34
226.326	-131.72
226.543	-103.62
226.76	-52.77
226.978	-42.62
227.195	-64.54
227.413	-60.68
227.63	-29.44
227.847	-15
228.064	-2.93
228.282	-1.34
228.499	4.21
228.716	4.98
228.934	5.81
229.151	4.36
229.368	8.35
229.585	7.65
229.802	8.75
230.02	8.67
230.237	7.48
230.454	9.52
230.671	11.84
230.888	13.31
231.105	14.52
231.323	11.4
231.54	9.67
231.757	5.49
231.974	3.55
232.191	10.76
232.408	6.28
232.625	11.45
232.842	9.98
233.059	3.02
233.276	-2.29
233.493	-9.26
233.71	0.81
233.927	7.77
234.144	6.69
234.361	1.72
234.578	-0.6
234.795	2.95
235.012	-1.37
235.229	-4.86
235.446	-7.25
235.663	0.26
235.879	2.29
236.096	-6.12
236.313	-14.44
236.53	-9.53
236.747	-3.57
236.964	-8.94
237.181	-11.9
237.397	-10.72
237.614	-6.33
237.831	-0.29
238.048	-3.72
238.264	-15.97
238.481	-13.07
238.698	-4.48
238.915	-4.55
239.131	-1.5
239.348	3.38
239.565	4.82
239.781	6.39
239.998	5.54
240.215	3.38
240.431	4.58
240.648	15.08
240.865	14.6
241.081	12.67
241.298	10.3
241.514	10.24
241.731	10.96
241.947	10.52
242.164	9.66
242.38	9.99
242.597	10.37
242.814	10.77
243.03	7.52
243.246	10.12
243.463	9.92
243.679	10.11
243.896	10.71
244.112	9.64
244.329	9.97
244.545	10.02
244.762	10.14
244.978	11.91
245.194	10.03
245.411	11.61
245.627	9
245.843	7.36
246.06	7.05
246.276	6.76
246.492	7.15
246.709	6.92
246.925	6.94
247.141	6.33
247.357	5.7
247.574	5.99
247.79	6.19
248.006	6.43
248.222	7.21
248.439	6.72
248.655	5.02
248.871	4.4
249.087	5.63
249.303	5.29
249.519	4.84
249.736	4.95
249.952	5.96
250.168	6.61
250.384	5.96
250.6	5.64
250.816	5.97
251.032	9.81
251.248	9.56
251.464	6.08
251.68	6.34
251.896	5.76
252.112	3.9
252.328	1.2
252.544	-0.24
252.76	-1.99
252.976	-2.9
253.192	-2.09
253.408	-3.73
253.624	-3.89
253.84	-3.77
254.056	-5.69
254.272	-4.62
254.487	-3.35
254.703	-1.97
254.919	-4.23
255.135	-1.71
255.351	-4.31
255.567	1.62
255.782	3.16
255.998	6.55
256.214	5.16
256.43	10.44
256.646	11.94
256.861	13.34
257.077	11.91
257.293	15.31
257.508	15.28
257.724	17.5
257.94	13.8
258.155	13.34
258.371	12.21
258.587	10.9
258.802	9.84
259.018	8.95
259.234	8.69
259.449	8.51
259.665	8.09
259.88	7.96
260.096	7.73
260.312	7.97
260.527	8.42
260.743	8.07
260.958	8.86
261.174	8.48
261.389	9.71
261.605	9.57
261.82	9.87
262.036	10.15
262.251	9.72
262.466	9.96
262.682	8.99
262.897	7.35
263.113	7.24
263.328	9
263.543	8.31
263.759	3.62
263.974	2.51
264.189	0.27
264.405	-2.05
264.62	-0.16
264.835	0.02
265.051	2.63
265.266	3.69
265.481	5.79
265.696	4.71
265.912	4.83
266.127	6.74
266.342	8.16
266.557	10.52
266.773	10.57
266.988	9.45
267.203	8.08
267.418	5.88
267.633	7.87
267.848	7.41
268.064	6.65
268.279	6.84
268.494	6.97
268.709	6.2
268.924	6.53
269.139	5.99
269.354	6.91
269.569	8.27
269.784	9.51
269.999	6.99
270.214	7.25
270.429	7.64
270.644	8.46
270.859	9.44
271.074	8.4
271.289	6.74
271.504	8.51
271.719	8.67
271.934	6.99
272.149	6.39
272.363	6.7
272.578	7.04
272.793	5.55
273.008	3.78
273.223	2.82
273.438	3.82
273.653	5.32
273.867	4.62
274.082	4.04
274.297	4.98
274.512	4.7
274.726	4.35
274.941	3.07
275.156	4.58
275.371	6.82
275.585	7.34
275.8	6.85
276.015	5.4
276.229	4.48
276.444	3.74
276.659	3.9
276.873	6.65
277.088	7.34
277.302	6.7
277.517	7.41
277.732	5.36
277.946	5.19
278.161	4.75
278.375	5.04
278.59	5.48
278.804	5.36
279.019	5.29
279.233	3.05
279.448	1.36
279.662	2.04
279.877	2.15
280.091	4.28
280.306	4.67
280.52	4.93
280.735	5.58
280.949	5.73
281.163	5.81
281.378	5.52
281.592	6.72
281.806	8.82
282.021	8.63
282.235	7.78
282.449	6.78
282.664	6.65
282.878	6.59
283.092	5.8
283.307	6.43
283.521	6.85
283.735	7.85
283.949	6.34
284.164	5.96
284.378	6.71
284.592	7.38
284.806	8.19
285.02	7.77
285.234	7.75
285.449	9.01
285.663	8.92
285.877	9.16
286.091	8.16
286.305	8.41
286.519	8.11
286.733	7.06
286.947	7.04
287.161	7.1
287.375	7.49
287.589	8.16
287.803	8.34
288.017	8.88
288.231	8.64
288.445	9.85
288.659	9.27
288.873	9.31
289.087	9.93
289.301	9.28
289.515	8.54
289.729	7.99
289.943	6.75
290.157	4.95
290.371	4.54
290.584	5.2
290.798	3.74
291.012	5.83
291.226	5.29
291.44	5.03
291.654	4.8
291.867	5.96
292.081	6.45
292.295	8.53
292.509	8.64
292.722	7.86
292.936	7.7
293.15	8.71
293.364	8.01
293.577	8.12
293.791	9.29
294.005	9.57
294.218	7.85
294.432	6.36
294.645	5.31
294.859	7.05
295.073	7.62
295.286	7.47
295.5	8.42
295.713	7.61
295.927	8.11
296.14	7.72
296.354	7.83
296.568	7.74
296.781	8.87
296.994	9.4
297.208	8.53
297.421	8.97
297.635	8.13
297.848	7.34
298.062	7.01
298.275	7.12
298.489	6.55
298.702	6.34
298.915	6.4
299.129	6.33
299.342	6.14
299.555	5.5
299.769	5.56
299.982	6.75
300.195	6.9
300.409	8.23
300.622	7.4
300.835	7.55
301.048	7.74
301.262	7.64
301.475	6.91
301.688	5.81
301.901	6.29
302.115	5.63
302.328	5.26
302.541	6.68
302.754	5.62
302.967	6.25
303.18	6.11
303.393	7.07
303.607	7.67
303.82	9.1
304.033	11.12
304.246	11.25
304.459	11.53
304.672	11.03
304.885	10.3
305.098	11.17
305.311	11.83
305.524	12.61
305.737	11.59
305.95	12.62
306.163	11.2
306.376	8.24
306.589	9.61
306.802	7.97
307.015	7.18
307.228	7.04
307.44	7.71
307.653	8.22
307.866	7.18
308.079	8.14
308.292	7.63
308.505	8.74
308.718	10.33
308.93	10.01
309.143	11.42
309.356	11.56
309.569	12.04
309.781	12.24
309.994	11.36
310.207	11.49
310.42	10.02
310.632	9.79
310.845	8.89
311.058	9.56
311.27	9.84
311.483	10.38
311.696	11.39
311.908	10.87
312.121	9.15
312.333	8.92
312.546	10.25
312.759	10.77
312.971	10.48
313.184	10.53
313.396	9.04
313.609	7.72
313.821	6.77
314.034	6.38
314.246	6.32
314.459	8.13
314.671	7.59
314.884	6.42
315.096	6.9
315.309	6.28
315.521	7.37
315.733	8.54
315.946	9.32
316.158	8.43
316.371	8.35
316.583	7.09
316.795	5.81
317.008	6.88
317.22	7.69
317.432	7.65
317.644	6.85
317.857	8.45
318.069	8.24
318.281	7.47
318.494	7.84
318.706	7.57
318.918	7.1
319.13	7.79
319.342	7.37
319.555	6.3
319.767	6.4
319.979	8.37
320.191	6.69
320.403	6.27
320.615	7.1
320.827	6.45
321.039	6.63
321.252	9.72
321.464	10.33
321.676	11.31
321.888	11.42
322.1	11.61
322.312	12.42
322.524	12.33
322.736	13.89
322.948	13.6
323.16	15.01
323.372	14.55
323.584	12.98
323.796	12.99
324.007	12.25
324.219	13.52
324.431	13.86
324.643	12.74
324.855	13.38
325.067	13.06
325.279	13.3
325.491	14.53
325.702	15.93
325.914	16.13
326.126	15.66
326.338	16.79
326.55	17.34
326.761	19.04
326.973	20.53
327.185	21.43
327.396	22.11
327.608	22.8
327.82	21.5
328.032	21.58
328.243	22.75
328.455	24.39
328.666	25.65
328.878	26.79
329.09	26.22
329.301	27.09
329.513	26.71
329.725	25.97
329.936	25.55
330.148	26.45
330.359	27.16
330.571	27.38
330.782	27.14
330.994	27.04
331.205	26.39
331.417	27.05
331.628	26.07
331.84	25.45
332.051	26.79
332.262	29.42
332.474	28.96
332.685	29.34
332.897	29.09
333.108	28.73
333.319	28.01
333.531	27.29
333.742	26.98
333.953	27.56
334.165	28.53
334.376	28.3
334.587	28.32
334.799	30.07
335.01	29.14
335.221	29.37
335.432	30.88
335.644	31.97
335.855	32.29
336.066	32.86
336.277	32.4
336.488	32.27
336.7	32.21
336.911	30.86
337.122	29.98
337.333	31.08
337.544	31.17
337.755	29.48
337.966	28.41
338.177	29.18
338.388	28.16
338.599	28.8
338.811	28.7
339.022	29.12
339.233	29.71
339.444	29.34
339.655	27.82
339.866	28.26
340.076	29.2
340.287	29.52
340.498	29.31
340.709	29.71
340.92	29.56
341.131	29.42
341.342	29.1
341.553	28.86
341.764	29.94
341.975	30.8
342.185	31.12
342.396	30.76
342.607	30.99
342.818	30.73
343.029	30.84
343.239	30.89
343.45	31.03
343.661	31.37
343.872	30.86
344.082	30.33
344.293	30.55
344.504	30.49
344.714	31.15
344.925	31.23
345.136	31.77
345.346	31.73
345.557	31.83
345.768	32.18
345.978	31.19
346.189	31.63
346.399	31.33
346.61	31.22
346.821	30.34
347.031	30.86
347.242	30.36
347.452	29.22
347.663	28.65
347.873	28.75
348.084	28.58
348.294	30.06
348.504	29.45
348.715	30.63
348.925	30.02
349.136	30.14
349.346	29.26
349.557	30.11
349.767	30.3
349.977	30.86
350.188	29.73
350.398	29.84
350.608	29.59
350.819	30.35
351.029	30.07
351.239	30.48
351.449	31.31
351.66	31.35
351.87	31.2
352.08	30.97
352.29	30.63
352.501	31.57
352.711	31.46
352.921	31.07
353.131	30.74
353.341	29.93
353.552	30.1
353.762	29.42
353.972	29.37
354.182	29.91
354.392	29.79
354.602	29.38
354.812	29.24
355.022	29.23
355.232	29.54
355.442	30.32
355.652	30.58
355.862	30.2
356.072	30.33
356.282	30.45
356.492	29.77
356.702	29.73
356.912	30.19
357.122	30.43
357.332	30.36
357.542	29.8
357.752	29.1
357.962	29.71
358.171	29.34
358.381	30.35
358.591	30.15
358.801	29.99
359.011	30.14
359.221	30.07
359.43	29.54
359.64	28.64
359.85	28.72
360.06	28.7
360.269	28.02
360.479	28.31
360.689	27.45
360.899	27.25
361.108	27.21
361.318	27.55
361.528	27.63
361.737	27.88
361.947	28.26
362.156	28.16
362.366	27.8
362.576	27.87
362.785	28.04
362.995	28.41
363.204	28.61
363.414	28.58
363.623	27.81
363.833	27.74
364.042	27.64
364.252	28.17
364.461	28.35
364.671	28.79
364.88	28.96
365.09	28.72
365.299	27.83
365.509	27.82
365.718	27.66
365.927	28.14
366.137	28.02
366.346	28.48
366.555	27.91
366.765	27.33
366.974	26.71
367.183	25.95
367.393	26.32
367.602	26.51
367.811	26.39
368.021	26.1
368.23	26.14
368.439	25.84
368.648	25.77
368.857	25.42
369.067	25.37
369.276	25.51
369.485	25.48
369.694	24.96
369.903	25.2
370.112	25.37
370.321	25.97
370.531	26.09
370.74	26.05
370.949	25.56
371.158	26.32
371.367	26.67
371.576	26.53
371.785	26.38
371.994	25.93
372.203	25.73
372.412	25.32
372.621	24.87
372.83	24.4
373.039	24.52
373.248	23.98
373.457	23.6
373.666	23.32
373.874	22.91
374.083	22.98
374.292	22.8
374.501	22.29
374.71	21.69
374.919	21.85
375.128	21.96
375.336	22.2
375.545	22.54
375.754	22.54
375.963	22.39
376.171	22.47
376.38	22.88
376.589	23.56
376.798	23.26
377.006	23.55
377.215	23.17
377.424	22.67
377.632	22.29
377.841	21.97
378.05	21.17
378.258	21.06
378.467	20.83
378.675	20.65
378.884	19.68
379.093	20.12
379.301	19.66
379.51	19.54
379.718	19.78
379.927	20.08
380.135	20.56
380.344	20.9
380.552	20.52
380.761	21.06
380.969	20.95
381.177	21.48
381.386	21.14
381.594	21.6
381.803	21.21
382.011	20.76
382.219	20.21
382.428	19.56
382.636	19.6
382.845	19.89
383.053	19.4
383.261	19.23
383.469	19.03
383.678	19
383.886	19.17
384.094	19.28
384.302	19.33
384.511	19.57
384.719	19.36
384.927	18.94
385.135	19.15
385.343	18.75
385.552	18.27
385.76	17.78
385.968	17.5
386.176	16.89
386.384	17.14
386.592	17.38
386.8	16.71
387.008	16.56
387.216	16.85
387.424	16.18
387.633	16.25
387.841	16
388.049	16.56
388.257	16.38
388.465	16.34
388.672	15.7
388.88	15.41
389.088	15.47
389.296	15.22
389.504	14.52
389.712	15
389.92	15.17
390.128	15.78
390.336	15.36
390.544	15.59
390.751	15.09
390.959	14.97
391.167	15.04
391.375	15.18
391.583	15.27
391.79	15.2
391.998	14.67
392.206	14.61
392.414	13.78
392.621	13.57
392.829	13.03
393.037	13.51
393.244	13.68
393.452	13.08
393.66	12.91
393.867	12.93
394.075	13.42
394.283	13.35
394.49	13.07
394.698	13.39
394.905	13.37
395.113	13.52
395.32	13.08
395.528	12.62
395.735	12.56
395.943	12.36
396.15	12.01
396.358	11.48
396.565	11.72
396.773	11.7
396.98	11.37
397.188	11.54
397.395	11.42
397.602	11.45
397.81	11.86
398.017	11.94
398.225	12.19
398.432	12.38
398.639	12.53
398.847	12.05
399.054	12.05
399.261	12.19
399.468	11.78
399.676	12.25
399.883	12.26
400.09	12.09
400.297	12.11
400.505	11.7
400.712	11.56
400.919	11.33
401.126	11.11
401.333	11.21
401.54	11.33
401.748	11.19
401.955	10.59
402.162	10.42
402.369	10.11
402.576	10.09
402.783	10.28
402.99	10.37
403.197	10.39
403.404	10.46
403.611	10.17
403.818	9.94
404.025	10.02
404.232	10.01
404.439	10
404.646	9.95
404.853	10.01
405.06	9.74
405.267	9.8
405.474	9.8
405.681	9.69
405.887	9.55
406.094	9.24
406.301	9.26
406.508	9.28
406.715	9.35
406.922	9.31
407.128	9.11
407.335	9.29
407.542	9.02
407.749	8.97
407.955	8.98
408.162	9.26
408.369	9.6
408.575	9.74
408.782	9.84
408.989	9.46
409.195	9.91
409.402	9.98
409.609	9.84
409.815	10
410.022	9.79
410.228	9.94
410.435	9.81
410.642	9.97
410.848	9.51
411.055	9.23
411.261	9.34
411.468	9.21
411.674	8.98
411.881	8.89
412.087	8.72
412.294	8.9
412.5	8.86
412.706	8.53
412.913	7.95
413.119	8.18
413.326	8.32
413.532	8.47
413.738	8.48
413.945	8.5
414.151	8.59
414.357	8.71
414.564	8.6
414.77	8.41
414.976	8.6
415.182	8.89
415.389	9.05
415.595	9.09
415.801	8.93
416.007	8.73
416.214	8.74
416.42	8.8
416.626	8.77
416.832	8.93
417.038	8.98
417.244	9.12
417.45	9.13
417.657	8.83
417.863	8.69
418.069	8.79
418.275	8.63
418.481	8.6
418.687	8.54
418.893	8.41
419.099	8.32
419.305	8.36
419.511	8.15
419.717	7.97
419.923	7.96
420.129	7.95
420.335	7.85
420.541	8.11
420.746	8.1
420.952	8
421.158	8.01
421.364	7.86
421.57	7.76
421.776	7.79
421.982	7.76
422.187	7.75
422.393	7.69
422.599	7.75
422.805	7.53
423.01	7.62
423.216	7.56
423.422	7.41
423.628	7.44
423.833	7.43
424.039	7.58
424.245	7.62
424.45	7.61
424.656	7.65
424.862	7.59
425.067	7.5
425.273	7.34
425.478	7.32
425.684	7.39
425.889	7.21
426.095	7.32
426.301	6.93
426.506	6.97
426.712	7.02
426.917	6.95
427.123	6.8
427.328	6.93
427.533	6.96
427.739	7
427.944	7.08
428.15	7.37
428.355	7.04
428.561	7.38
428.766	7.2
428.971	6.9
429.177	6.88
429.382	6.88
429.587	6.69
429.793	6.58
429.998	6.48
430.203	6.25
430.408	6.23
430.614	6.16
430.819	5.91
431.024	5.75
431.229	5.78
431.434	5.6
431.64	5.59
431.845	5.78
432.05	5.84
432.255	5.91
432.46	5.98
432.665	5.83
432.87	6.07
433.076	6.1
433.281	6.25
433.486	6.28
433.691	6.41
433.896	6.47
434.101	6.38
434.306	6.32
434.511	6.19
434.716	6.13
434.921	6.27
435.126	6.17
435.331	6.17
435.535	6.22
435.74	6.17
435.945	6.39
436.15	6.09
436.355	6.09
436.56	6.19
436.765	6.31
436.97	6.4
437.174	6.4
437.379	6.36
437.584	6.5
437.789	6.48
437.993	6.62
438.198	6.39
438.403	6.7
438.608	6.62
438.812	6.68
439.017	6.62
439.222	6.61
439.426	6.43
439.631	6.52
439.836	6.46
440.04	6.53
440.245	6.45
440.45	6.31
440.654	6.21
440.859	6.27
441.063	6.21
441.268	6.21
441.472	6.12
441.677	6.37
441.881	6.35
442.086	6.32
442.29	6.11
442.495	6.2
442.699	6.36
442.904	6.37
443.108	6.35
443.312	6.28
443.517	6.18
443.721	6.04
443.925	5.77
444.13	5.91
444.334	5.89
444.538	5.99
444.743	5.93
444.947	5.85
445.151	5.94
445.356	5.98
445.56	6
445.764	6.24
445.968	6.33
446.173	6.33
446.377	6.06
446.581	5.99
446.785	5.96
446.989	5.83
447.193	5.88
447.398	5.86
447.602	5.86
447.806	5.81
448.01	5.61
448.214	5.67
448.418	5.48
448.622	5.4
448.826	5.42
449.03	5.5
449.234	5.65
449.438	5.66
449.642	5.55
449.846	5.47
450.05	5.27
450.254	5.16
450.458	5.05
450.662	5.3
450.866	5.41
451.069	5.45
451.273	5.18
451.477	5.23
451.681	5.11
451.885	5.26
452.089	5.09
452.292	5.27
452.496	5.34
452.7	5.3
452.904	5.26
453.107	5.32
453.311	5.34
453.515	5.53
453.719	5.35
453.922	5.28
454.126	5.01
454.33	5.18
454.533	5.02
454.737	4.89
454.94	4.87
455.144	4.89
455.348	4.91
455.551	4.73
455.755	4.65
455.958	4.81
456.162	4.79
456.365	4.9
456.569	4.86
456.772	4.99
456.976	5.2
457.179	5.19
457.383	5.12
457.586	5.1
457.79	5.35
457.993	5.47
458.196	5.33
458.4	5.45
458.603	5.34
458.807	5.29
459.01	5.33
459.213	5.41
459.417	5.48
459.62	5.45
459.823	5.38
460.026	5.22
460.23	5.22
460.433	5.19
460.636	5.24
460.839	5.34
461.042	5.37
461.246	5.25
461.449	5.18
461.652	5.08
461.855	5.17
462.058	5.11
462.261	5.13
462.464	4.93
462.668	4.93
462.871	4.86
463.074	4.88
463.277	5
463.48	5.1
463.683	4.9
463.886	4.93
464.089	4.77
464.292	4.89
464.495	4.9
464.698	5.01
464.901	5.16
465.104	4.99
465.306	4.88
465.509	4.63
465.712	4.65
465.915	4.79
466.118	4.75
466.321	4.74
466.524	4.78
466.726	4.8
466.929	4.57
467.132	4.56
467.335	4.57
467.538	4.64
467.74	4.66
467.943	4.63
468.146	4.77
468.348	4.91
468.551	4.96
468.754	5.04
468.956	5.02
469.159	5.25
469.362	5.29
469.564	5.39
469.767	5.43
469.969	5.67
470.172	5.79
470.375	5.54
470.577	5.49
470.78	5.31
470.982	5.43
471.185	5.45
471.387	5.55
471.59	5.63
471.792	5.53
471.995	5.5
472.197	5.54
472.399	5.36
472.602	5.5
472.804	5.43
473.007	5.72
473.209	5.65
473.411	5.65
473.614	5.47
473.816	5.35
474.018	5.56
474.22	5.6
474.423	5.58
474.625	5.77
474.827	5.73
475.03	5.74
475.232	5.67
475.434	5.76
475.636	5.86
475.838	5.91
476.04	5.94
476.243	5.7
476.445	5.74
476.647	5.66
476.849	5.57
477.051	5.58
477.253	5.61
477.455	5.42
477.657	5.23
477.859	5.08
478.061	5.15
478.263	5.07
478.465	5.19
478.667	5.03
478.869	4.96
479.071	5.09
479.273	5.23
479.475	5.23
479.677	5.4
479.879	5.5
480.081	5.55
480.283	5.52
480.485	5.6
480.686	5.65
480.888	5.7
481.09	5.7
481.292	5.6
481.494	5.52
481.695	5.6
481.897	5.75
482.099	5.63
482.301	5.58
482.502	5.57
482.704	5.58
482.906	5.6
483.107	5.61
483.309	5.6
483.511	5.65
483.712	5.63
483.914	5.59
484.115	5.53
484.317	5.64
484.519	5.64
484.72	5.6
484.922	5.56
485.123	5.55
485.325	5.54
485.526	5.55
485.728	5.48
485.929	5.45
486.131	5.43
486.332	5.41
486.534	5.31
486.735	5.34
486.936	5.43
487.138	5.46
487.339	5.41
487.541	5.45
487.742	5.43
487.943	5.48
488.144	5.55
488.346	5.53
488.547	5.5
488.748	5.5
488.95	5.52
489.151	5.44
489.352	5.4
489.553	5.46
489.755	5.37
489.956	5.39
490.157	5.35
490.358	5.32
490.559	5.37
490.76	5.42
490.961	5.46
491.163	5.45
491.364	5.46
491.565	5.5
491.766	5.44
491.967	5.45
492.168	5.47
492.369	5.47
492.57	5.44
492.771	5.44
492.972	5.37
493.173	5.34
493.374	5.34
493.575	5.42
493.776	5.4
493.976	5.44
494.177	5.47
494.378	5.59
494.579	5.7
494.78	5.72
494.981	5.76
495.182	5.99
495.382	6.05
495.583	5.93
495.784	5.8
495.985	5.96
496.185	5.88
496.386	5.96
496.587	5.85
496.788	5.84
496.988	5.91
497.189	6.07
497.39	6.21
497.59	6.04
497.791	6.17
497.992	6.31
498.192	6.2
498.393	6.33
498.593	6.34
498.794	6.29
498.994	6.3
499.195	6.2
499.395	6.03
499.596	5.96
499.796	6.11
499.997	6.24
500.197	6.14
500.398	6.31
500.598	6.44
500.799	6.59
500.999	6.79
501.199	6.62
501.4	6.78
501.6	6.9
501.801	6.77
502.001	6.99
502.201	7.01
502.402	7.13
502.602	7
502.802	6.94
503.002	6.8
503.203	6.7
503.403	6.89
503.603	7.03
503.803	7.23
504.003	7.39
504.204	7.21
504.404	7.22
504.604	7.34
504.804	7.4
505.004	7.43
505.204	7.53
505.404	7.78
505.604	7.84
505.804	7.91
506.005	7.81
506.205	8.06
506.405	8.27
506.605	8.42
506.805	8.42
507.005	8.54
507.204	8.77
507.404	8.94
507.604	8.91
507.804	9
508.004	9.04
508.204	9.09
508.404	9.06
508.604	9.22
508.804	9.34
509.003	9.62
509.203	9.79
509.403	9.91
509.603	9.91
509.803	10.19
510.002	10.39
510.202	10.49
510.402	10.63
510.602	10.64
510.801	10.79
511.001	10.73
511.201	10.74
511.4	10.69
511.6	10.73
511.8	10.89
511.999	10.93
512.199	10.99
512.398	11.12
512.598	11.23
512.797	11.32
512.997	11.3
513.197	11.51
513.396	11.59
513.596	11.8
513.795	12.04
513.994	12.06
514.194	12.2
514.393	12.45
514.593	12.54
514.792	12.6
514.992	12.86
515.191	13.01
515.39	13.17
515.59	13.49
515.789	13.72
515.988	13.85
516.188	14.21
516.387	14.36
516.586	14.43
516.786	14.56
516.985	14.74
517.184	15.01
517.383	15.08
517.582	15.14
517.782	15.25
517.981	15.39
518.18	15.43
518.379	15.49
518.578	15.43
518.777	15.52
518.976	15.62
519.176	15.79
519.375	15.87
519.574	16.09
519.773	16.2
519.972	16.27
520.171	16.4
520.37	16.53
520.569	16.75
520.768	17.06
520.967	17.34
521.166	17.57
521.365	17.73
521.564	17.77
521.762	17.87
521.961	18.11
522.16	18.34
522.359	18.46
522.558	18.56
522.757	18.5
522.956	18.72
523.154	18.87
523.353	19.07
523.552	19.23
523.751	19.42
523.949	19.68
524.148	19.8
524.347	19.81
524.546	20.04
524.744	20.27
524.943	20.35
525.142	20.32
525.34	20.42
525.539	20.54
525.737	20.75
525.936	20.89
526.135	21.08
526.333	21.23
526.532	21.43
526.73	21.61
526.929	21.67
527.127	21.87
527.326	22.04
527.524	22.08
527.723	22.28
527.921	22.35
528.12	22.44
528.318	22.39
528.516	22.49
528.715	22.57
528.913	22.6
529.112	22.67
529.31	22.77
529.508	22.89
529.707	23.05
529.905	23.03
530.103	23.11
530.301	23.24
530.5	23.4
530.698	23.52
530.896	23.69
531.094	23.86
531.293	24.08
531.491	24.16
531.689	24.29
531.887	24.35
532.085	24.5
532.283	24.58
532.481	24.69
532.68	24.85
532.878	24.99
533.076	25.05
533.274	25.16
533.472	25.23
533.67	25.34
533.868	25.38
534.066	25.44
534.264	25.54
534.462	25.69
534.66	25.76
534.858	25.79
535.056	25.79
535.253	25.83
535.451	25.86
535.649	26.04
535.847	26.14
536.045	26.28
536.243	26.38
536.441	26.52
536.638	26.6
536.836	26.67
537.034	26.83
537.232	26.96
537.43	27.15
537.627	27.25
537.825	27.29
538.023	27.32
538.22	27.47
538.418	27.56
538.616	27.67
538.813	27.77
539.011	27.89
539.209	27.97
539.406	28.14
539.604	28.28
539.801	28.42
539.999	28.53
540.196	28.72
540.394	28.83
540.591	29
540.789	29.04
540.986	29.17
541.184	29.24
541.381	29.28
541.579	29.27
541.776	29.28
541.974	29.26
542.171	29.31
542.368	29.38
542.566	29.41
542.763	29.43
542.96	29.52
543.158	29.56
543.355	29.72
543.552	29.84
543.75	29.94
543.947	30.04
544.144	30.23
544.341	30.31
544.539	30.48
544.736	30.64
544.933	30.8
545.13	30.79
545.327	30.81
545.524	30.79
545.722	30.74
545.919	30.87
546.116	30.81
546.313	30.78
546.51	30.93
546.707	30.81
546.904	30.73
547.101	30.72
547.298	30.83
547.495	30.93
547.692	31.04
547.889	31.3
548.086	31.29
548.283	31.49
548.48	31.58
548.677	31.54
548.874	31.58
549.07	31.69
549.267	31.82
549.464	32.04
549.661	31.95
549.858	31.98
550.055	32.03
550.251	32.07
550.448	32.01
550.645	32.25
550.842	32.29
551.038	32.48
551.235	32.71
551.432	32.8
551.628	32.73
551.825	32.94
552.022	32.91
552.218	32.98
552.415	33.06
552.612	33.18
552.808	33.17
553.005	33.33
553.201	33.49
553.398	33.47
553.594	33.45
553.791	33.55
553.987	33.48
554.184	33.6
554.38	33.58
554.577	33.78
554.773	33.9
554.97	33.98
555.166	34.17
555.362	34.2
555.559	34.28
555.755	34.47
555.952	34.52
556.148	34.65
556.344	34.74
556.541	34.91
556.737	34.92
556.933	35.22
557.129	35.35
557.326	35.3
557.522	35.48
557.718	35.47
557.914	35.49
558.11	35.66
558.307	35.87
558.503	35.83
558.699	35.87
558.895	35.87
559.091	35.7
559.287	35.67
559.483	35.63
559.679	35.62
559.876	35.83
560.072	35.99
560.268	35.84
560.464	36.12
560.66	36.41
560.856	36.5
561.052	36.62
561.247	36.88
561.443	36.97
561.639	37.28
561.835	37.22
562.031	37.23
562.227	37.18
562.423	37.21
562.619	37.27
562.815	37.32
563.01	37.48
563.206	37.68
563.402	37.56
563.598	37.66
563.793	37.51
563.989	37.65
564.185	37.84
564.381	37.89
564.576	37.87
564.772	37.73
564.968	37.49
565.163	37.24
565.359	37.45
565.555	37.45
565.75	37.52
565.946	37.69
566.141	37.79
566.337	37.73
566.532	37.81
566.728	38.12
566.923	38.08
567.119	38.47
567.314	38.54
567.51	38.39
567.705	38.48
567.901	38.33
568.096	38.41
568.292	38.46
568.487	38.63
568.682	38.62
568.878	38.71
569.073	38.76
569.268	38.56
569.464	38.48
569.659	38.53
569.854	38.66
570.05	39.04
570.245	39.22
570.44	39.2
570.635	39.04
570.831	39.21
571.026	39.15
571.221	39.24
571.416	39.35
571.611	39.58
571.806	39.63
572.002	39.58
572.197	39.57
572.392	39.47
572.587	39.4
572.782	39.41
572.977	39.46
573.172	39.43
573.367	39.49
573.562	39.47
573.757	39.41
573.952	39.23
574.147	39.19
574.342	39.12
574.537	39.08
574.732	39.24
574.927	39.36
575.121	39.27
575.316	39.36
575.511	39.35
575.706	39.57
575.901	39.79
576.096	40.19
576.29	40.23
576.485	40.3
576.68	40.26
576.875	40.47
577.069	40.45
577.264	40.66
577.459	40.8
577.654	40.94
577.848	40.72
578.043	40.69
578.238	40.53
578.432	40.54
578.627	40.68
578.821	40.78
579.016	40.47
579.21	40.55
579.405	40.43
579.6	40.2
579.794	40.01
579.989	40.25
580.183	39.99
580.378	40.07
580.572	40.26
580.766	40.34
580.961	40.27
581.155	40.42
581.35	40.45
581.544	40.55
581.738	40.68
581.933	40.91
582.127	40.89
582.321	41.06
582.516	40.8
582.71	40.8
582.904	40.69
583.099	40.75
583.293	40.94
583.487	41.23
583.681	41.05
583.875	40.86
584.07	40.81
584.264	40.92
584.458	41.08
584.652	41.28
584.846	41.35
585.04	41.28
585.234	41.33
585.428	41.37
585.623	41.35
585.817	41.53
586.011	41.9
586.205	42.07
586.399	41.97
586.593	41.99
586.787	42.09
586.981	41.99
587.174	42.12
587.368	42.15
587.562	41.99
587.756	41.78
587.95	41.9
588.144	41.9
588.338	41.82
588.532	41.84
588.725	41.87
588.919	42.02
589.113	42.17
589.307	42.2
589.501	42.07
589.694	42.32
589.888	42.49
590.082	42.25
590.275	42.16
590.469	42.03
590.663	41.95
590.856	42.06
591.05	41.91
591.244	41.89
591.437	41.96
591.631	42.3
591.824	42.25
592.018	42.07
592.212	42.14
592.405	42.25
592.599	42.24
592.792	42.23
592.986	42.25
593.179	42.45
593.372	42.43
593.566	42.38
593.759	42.28
593.953	42.38
594.146	42.48
594.339	42.63
594.533	42.56
594.726	42.7
594.92	42.89
595.113	42.83
595.306	42.53
595.499	42.68
595.693	42.98
595.886	43.12
596.079	42.92
596.272	43.04
596.466	43.03
596.659	43.12
596.852	43.13
597.045	43.12
597.238	42.97
597.431	43.18
597.624	43.22
597.818	43.06
598.011	42.94
598.204	43.16
598.397	43.2
598.59	43.2
598.783	43.34
598.976	43.34
599.169	43.46
599.362	43.71
599.555	43.48
599.748	43.51
599.941	43.33
600.134	43.46
600.326	43.3
600.519	43.19
600.712	43.18
600.905	42.93
601.098	42.81
601.291	42.56
601.483	42.47
601.676	42.42
601.869	42.25
602.062	42.5
602.255	42.16
602.447	42.24
602.64	42.3
602.833	42.52
603.025	42.7
603.218	42.69
603.411	42.92
603.603	43.14
603.796	43.31
603.989	43.66
604.181	43.42
604.374	43.8
604.566	43.83
604.759	43.59
604.951	43.5
605.144	43.41
605.336	43.54
605.529	43.35
605.721	43.37
605.914	43.43
606.106	43.21
606.299	43.32
606.491	43.19
606.683	43.13
606.876	43.28
607.068	43.31
607.26	43.34
607.453	43.41
607.645	43.78
607.837	43.53
608.03	43.72
608.222	43.61
608.414	43.8
608.606	43.98
608.799	43.68
608.991	43.89
609.183	44.09
609.375	44.23
609.567	44.29
609.759	44.25
609.952	44.36
610.144	44.39
610.336	44.63
610.528	44.59
610.72	44.57
610.912	44.86
611.104	44.95
611.296	44.58
611.488	44.5
611.68	44.6
611.872	44.28
612.064	44.44
612.256	44.1
612.448	43.65
612.64	43.54
612.832	43.32
613.023	43.26
613.215	43.14
613.407	43.43
613.599	43.49
613.791	43.18
613.983	43.43
614.174	43.37
614.366	43.63
614.558	44.14
614.75	44.24
614.941	44.28
615.133	44.34
615.325	44.26
615.516	44.3
615.708	44.52
615.9	44.64
616.091	44.53
616.283	44.53
616.475	44.64
616.666	44.21
616.858	44.22
617.049	44.32
617.241	44.38
617.432	44.32
617.624	44.17
617.815	43.77
618.007	43.84
618.198	44.07
618.39	43.83
618.581	43.64
618.773	43.63
618.964	43.74
619.155	43.97
619.347	43.87
619.538	43.95
619.729	44.17
619.921	44.44
620.112	44.49
620.303	44.34
620.494	44.34
620.686	44.61
620.877	45.17
621.068	45.14
621.259	45.02
621.451	45.01
621.642	44.99
621.833	44.56
622.024	44.46
622.215	44.53
622.406	44.66
622.597	44.89
622.788	44.77
622.98	44.44
623.171	44.75
623.362	44.46
623.553	44.62
623.744	44.71
623.935	44.81
624.126	44.88
624.317	44.36
624.508	44.4
624.698	44.45
624.889	44.28
625.08	44.17
625.271	43.81
625.462	44
625.653	44.2
625.844	44.12
626.034	44.31
626.225	44.26
626.416	44.74
626.607	44.65
626.798	44.51
626.988	44.67
627.179	44.71
627.37	45.14
627.56	45.36
627.751	45.29
627.942	45.55
628.132	45.63
628.323	45.57
628.514	45.41
628.704	45.7
628.895	45.73
629.085	45.59
629.276	45.68
629.466	45.54
629.657	45.13
629.847	45.13
630.038	44.76
630.228	44.77
630.419	44.87
630.609	44.99
630.8	44.65
630.99	44.84
631.181	45.16
631.371	45.09
631.561	44.97
631.752	45.24
631.942	44.84
632.132	45.12
632.323	44.89
632.513	44.85
632.703	44.95
632.893	44.87
633.084	44.62
633.274	44.35
633.464	44.48
633.654	44.36
633.844	44.36
634.034	44.75
634.225	44.58
634.415	44.68
634.605	44.74
634.795	44.59
634.985	44.78
635.175	45.15
635.365	45.14
635.555	45.12
635.745	45.02
635.935	45.12
636.125	45.15
636.315	45.16
636.505	45.18
636.695	45.35
636.885	45.38
637.075	45.32
637.265	45
637.455	45.2
637.644	45.35
637.834	45.4
638.024	45.13
638.214	45.25
638.404	45.55
638.593	45.64
638.783	45.33
638.973	45.48
639.163	45.58
639.352	45.29
639.542	45.3
639.732	45.39
639.921	45.27
640.111	45.61
640.301	45.51
640.49	45.27
640.68	45.13
640.87	45.51
641.059	45.61
641.249	45.82
641.438	46.08
641.628	46.08
641.817	46.22
642.007	46.58
642.196	46.58
642.386	46.58
642.575	46.76
642.764	47.02
642.954	46.9
643.143	46.71
643.333	46.53
643.522	46.45
643.711	46.4
643.901	46.05
644.09	45.99
644.279	45.97
644.469	45.73
644.658	45.58
644.847	45.28
645.036	45.1
645.226	44.78
645.415	44.83
645.604	44.84
645.793	44.6
645.982	44.32
646.171	44.12
646.361	44.16
646.55	44.41
646.739	44.56
646.928	44.62
647.117	44.69
647.306	45.1
647.495	45.19
647.684	45.59
647.873	46.24
648.062	46.51
648.251	46.41
648.44	46.35
648.629	46.16
648.818	46.03
649.007	46.25
649.196	46.09
649.384	45.97
649.573	46.13
649.762	46.17
649.951	45.85
650.14	45.73
650.328	46.19
650.517	46.1
650.706	46.05
650.895	45.97
651.083	45.87
651.272	46.33
651.461	46.48
651.65	45.97
651.838	45.93
652.027	45.93
652.216	46.07
652.404	45.99
652.593	46.16
652.781	46.24
652.97	46.67
653.158	47.17
653.347	47.17
653.535	46.95
653.724	47.33
653.912	47.22
654.101	47.3
654.289	47.36
654.478	47.37
654.666	47.27
654.855	47.36
655.043	46.79
655.231	46.42
655.42	46.28
655.608	46.46
655.796	46.95
655.985	47.12
656.173	46.87
656.361	46.95
656.55	46.96
656.738	47.31
656.926	47.44
657.114	47.74
657.302	47.58
657.491	47.55
657.679	47.33
657.867	47.36
658.055	47.53
658.243	47.48
658.431	47.34
658.619	47.46
658.807	47.34
658.996	47.32
659.184	47.3
659.372	47.35
659.56	47.36
659.748	47.6
659.936	47.22
660.124	46.99
660.311	47.2
660.499	47.65
660.687	47.38
660.875	47.2
661.063	47.12
661.251	47.18
661.439	47.06
661.627	47.24
661.814	47.24
662.002	47.27
662.19	46.85
662.378	46.87
662.565	46.21
662.753	46.36
662.941	46.8
663.129	46.44
663.316	46.64
663.504	46.77
663.692	46.47
663.879	46.43
664.067	46.58
664.254	47.36
664.442	47.37
664.63	47.62
664.817	47.68
665.005	47.1
665.192	47.29
665.38	47.1
665.567	46.94
665.755	46.99
665.942	46.84
666.13	46.52
666.317	46.31
666.504	45.83
666.692	45.83
666.879	46.33
667.067	46.18
667.254	46.52
667.441	46.56
667.629	47.19
667.816	47.24
668.003	47.18
668.19	47.15
668.378	47.17
668.565	47.69
668.752	47.97
668.939	47.79
669.127	48.67
669.314	48.31
669.501	48.21
669.688	48.05
669.875	47.6
670.062	48.06
670.249	47.85
670.436	47.84
670.623	48.13
670.81	48.13
670.997	47.66
671.184	47.2
671.371	47.56
671.558	47.26
671.745	46.94
671.932	47.4
672.119	46.86
672.306	47.12
672.493	47.45
672.68	47.28
672.867	46.96
673.054	46.98
673.24	46.94
673.427	46.73
673.614	47.09
673.801	47.41
673.988	47.38
674.174	47.88
674.361	48.08
674.548	48.2
674.734	47.99
674.921	48.11
675.108	48.17
675.294	48.03
675.481	47.9
675.668	47.8
675.854	47.29
676.041	47.06
676.227	46.75
676.414	46.77
676.601	46.39
676.787	46.52
676.974	46.3
677.16	46.28
677.347	47.2
677.533	47.75
677.719	47.64
677.906	48
678.092	47.85
678.279	48.17
678.465	47.79
678.651	47.43
678.838	47.74
679.024	48.26
679.21	48.43
679.397	47.99
679.583	47.71
679.769	47.73
679.955	47.88
680.142	48.27
680.328	48.42
680.514	48.48
680.7	48.48
680.886	48.39
681.073	48.26
681.259	47.79
681.445	47.33
681.631	47.18
681.817	47.59
682.003	47.12
682.189	46.8
682.375	46.52
682.561	46.46
682.747	46.79
682.933	46.09
683.119	46.25
683.305	46.66
683.491	46.79
683.677	47.22
683.863	47.15
684.049	46.89
684.235	47.02
684.42	46.99
684.606	47.14
684.792	47.02
684.978	46.78
685.164	46.84
685.349	46.83
685.535	46.74
685.721	46.6
685.907	45.98
686.092	46.83
686.278	47.13
686.464	46.77
686.649	46.39
686.835	46.56
687.021	47.12
687.206	46.71
687.392	46.23
687.577	46.37
687.763	46.6
687.948	46.86
688.134	46.47
688.319	46.42
688.505	46.46
688.69	46.55
688.876	46.27
689.061	47.06
689.247	46.85
689.432	46.59
689.618	46.62
689.803	46.62
689.988	46.7
690.174	46.5
690.359	46.12
690.544	46.31
690.73	46.74
690.915	46.87
691.1	46.45
691.285	46.35
691.471	47.11
691.656	47.22
691.841	46.65
692.026	46.2
692.211	46.4
692.396	46.65
692.582	46.89
692.767	46.51
692.952	46.5
693.137	46.63
693.322	46.86
693.507	47.11
693.692	46.72
693.877	47.1
694.062	47.42
694.247	47.85
694.432	48.61
694.617	47.69
694.802	48.48
694.987	48.87
695.172	48.34
695.357	48.55
695.541	48.53
695.726	48.62
695.911	48.54
696.096	48.6
696.281	48.4
696.466	47.85
696.65	49.01
696.835	48.94
697.02	48.53
697.204	48.47
697.389	48.34
697.574	48.3
697.759	48.45
697.943	48.33
698.128	48.43
698.312	48.28
698.497	48.26
698.682	47.49
698.866	46.91
699.051	46.97
699.235	46.88
699.42	47.06
699.604	46.91
699.789	46.78
699.973	46.48
700.158	46.47
700.342	46.65
700.527	46.43
700.711	46.85
700.895	47.05
701.08	46.95
701.264	47.34
701.448	47.44
701.633	47.62
701.817	47.45
702.001	47.92
702.186	47.88
702.37	48.11
702.554	48.11
702.738	48.56
702.923	49.35
703.107	49.21
703.291	48.74
703.475	48.12
703.659	47.79
703.843	47.74
704.027	47.79
704.212	47.52
704.396	46.93
704.58	46.56
704.764	46.45
704.948	45.43
705.132	45.6
705.316	46.03
705.5	46.64
705.684	46.81
705.868	48.38
706.052	49.03
706.235	49.18
706.419	49.35
706.603	50.37
706.787	49.61
706.971	50.41
707.155	51.23
707.339	50.97
707.522	51.23
707.706	50.95
707.89	49.68
708.074	49.09
708.257	49.34
708.441	49.52
708.625	49.13
708.808	49.65
708.992	48.98
709.176	48.11
709.359	47.59
709.543	46.97
709.727	47.01
709.91	46.58
710.094	46.46
710.277	46.77
710.461	46.46
710.644	46.3
710.828	46.12
711.011	46.06
711.195	46.7
711.378	47.12
711.562	46.8
711.745	47.36
711.928	48.21
712.112	48.66
712.295	47.99
712.478	48.52
712.662	48.68
712.845	48.99
713.028	49.04
713.212	48.94
713.395	49.04
713.578	49.18
713.761	49.35
713.945	49.42
714.128	49.04
714.311	49.18
714.494	49.51
714.677	49.36
714.86	49.1
715.043	49.33
715.227	48.87
715.41	48.3
715.593	48.99
715.776	48.83
715.959	48.84
716.142	49
716.325	49.18
716.508	47.93
716.691	47.51
716.874	47.81
717.057	47.99
717.239	48.28
717.422	48.82
717.605	48.55
717.788	47.87
717.971	47.2
718.154	46.48
718.337	46.23
718.519	46.79
718.702	47.73
718.885	47.26
719.068	47.31
719.25	46.86
719.433	46.56
719.616	45.76
719.798	46.65
719.981	46.96
720.164	47.38
720.346	48.07
720.529	47.82
720.712	47.04
720.894	46.42
721.077	45.23
721.259	44.83
721.442	44.72
721.624	45.75
721.807	45.47
721.989	45.84
722.172	45.74
722.354	45.37
722.537	46.29
722.719	46.86
722.901	46.88
723.084	47.93
723.266	48.72
723.448	48.65
723.631	48.22
723.813	48.51
723.995	47.11
724.178	47.73
724.36	48.36
724.542	47.5
724.724	47.3
724.907	48.55
725.089	48.17
725.271	47.47
725.453	47.71
725.635	47.96
725.817	47.42
725.999	47.76
726.181	47.28
726.364	46.81
726.546	47.05
726.728	46.78
726.91	45.33
727.092	46.12
727.274	46.56
727.456	47.1
727.638	46.94
727.819	47.86
728.001	48.57
728.183	48.58
728.365	48.05
728.547	47.93
728.729	47.88
728.911	47.9
729.093	47.71
729.274	47.83
729.456	47.11
729.638	46.73
729.82	45.75
730.001	45.37
730.183	46.01
730.365	46.42
730.546	47.22
730.728	47.66
730.91	48.36
731.091	47.2
731.273	46.77
731.455	47.07
731.636	47.46
731.818	47.67
731.999	47.69
732.181	47.82
732.362	47.49
732.544	46.58
732.725	46.47
732.907	46.95
733.088	48.11
733.27	48.56
733.451	48.23
733.633	47.5
733.814	46.95
733.995	47.36
734.177	44.99
734.358	45.51
734.539	44.94
734.721	44.39
734.902	45.12
735.083	44.76
735.264	44.99
735.446	46.41
735.627	47.34
735.808	47.91
735.989	46.73
736.17	47.79
736.351	47.43
736.533	48.2
736.714	48.63
736.895	46.94
737.076	46.47
737.257	46.61
737.438	45.63
737.619	45.14
737.8	45.11
737.981	45.8
738.162	46.21
738.343	46.99
738.524	47.07
738.705	46.7
738.886	46.93
739.067	47.08
739.247	47.26
739.428	47.31
739.609	48.09
739.79	48.71
739.971	49.19
740.151	48.48
740.332	47.51
740.513	47.67
740.694	47.9
740.874	48.17
741.055	47.54
741.236	47.14
741.417	47.3
741.597	47.1
741.778	45.77
741.958	45.08
742.139	46.75
742.32	46.67
742.5	47.35
742.681	48.66
742.861	48.39
743.042	49.5
743.222	49.48
743.403	49.09
743.583	47.73
743.764	47.8
743.944	47.85
744.124	46.41
744.305	46.31
744.485	45.48
744.666	43.9
744.846	43.8
745.026	43.17
745.207	42.15
745.387	43.03
745.567	44.32
745.747	44.59
745.928	45.7
746.108	45.73
746.288	46.74
746.468	46.63
746.648	46.87
746.829	48.01
747.009	48.57
747.189	48.76
747.369	46.94
747.549	46.08
747.729	45.57
747.909	45.21
748.089	44.99
748.269	43.44
748.449	44.42
748.629	44.65
748.809	44
748.989	44.56
749.169	45.11
749.349	46.37
749.529	47.12
749.709	48.24
749.889	47.92
750.068	48.31
750.248	47.97
750.428	46.36
750.608	46.29
750.788	47.99
750.967	46.3
751.147	46.45
751.327	47.39
751.507	45.96
751.686	45.75
751.866	45.7
752.046	46.75
752.225	46.95
752.405	47.73
752.585	49.04
752.764	48.48
752.944	49.64
753.123	49.84
753.303	48.42
753.482	49.51
753.662	49.8
753.841	50.1
754.021	48.4
754.2	49.47
754.38	49.02
754.559	49.08
754.739	48.96
754.918	49.42
755.097	48.76
755.277	49.17
755.456	49.43
755.635	50.33
755.815	49.44
755.994	49.74
756.173	48.5
756.352	49.14
756.532	48.2
756.711	46.66
756.89	46.44
757.069	46.7
757.248	45.43
757.427	44.77
757.607	42.87
757.786	45.14
757.965	45.26
758.144	46.86
758.323	46.5
758.502	47.55
758.681	48.52
758.86	48.29
759.039	48.78
759.218	49.68
759.397	49.63
759.576	50.46
759.755	48.95
759.934	49.9
760.113	49.13
760.291	49.3
760.47	48.88
760.649	48.3
760.828	48.25
761.007	46.81
761.186	46.54
761.364	46.5
761.543	45.87
761.722	46.57
761.901	46.02
762.079	46.72
762.258	46.52
762.437	45.41
762.615	44.97
762.794	45.75
762.972	46.5
763.151	46.47
763.33	46.22
763.508	46.11
763.687	45.71
763.865	45.65
764.044	45.17
764.222	45.2
764.401	44.97
764.579	46.63
764.758	46.09
764.936	45.66
765.114	46.31
765.293	47.13
765.471	49.02
765.65	48.7
765.828	48.76
766.006	49.26
766.184	49.46
766.363	50.39
766.541	49.23
766.719	49.03
766.898	50.2
767.076	49.27
767.254	49.74
767.432	48.34
767.61	49.21
767.788	48.89
767.967	48.77
768.145	47.88
768.323	48.61
768.501	48.58
768.679	47.72
768.857	46.37
769.035	47.25
769.213	47.22
769.391	45.77
769.569	44.97
769.747	44.76
769.925	43.73
770.103	44.6
770.281	42.84
770.459	41.98
770.636	44.29
770.814	45.75
770.992	46.02
771.17	42.87
771.348	42.98
771.525	43.87
771.703	43.79
771.881	45.87
772.059	46.13
772.236	46.13
772.414	45.97
772.592	44.28
772.769	45
772.947	45.93
773.125	47.24
773.302	49.75
773.48	50.31
773.657	52.37
773.835	52.12
774.013	51.63
774.19	51.68
774.368	52.1
774.545	51.85
774.723	50.32
774.9	49.88
775.077	51.09
775.255	50.2
775.432	49.74
775.61	49.28
775.787	49
775.964	50.05
776.142	48.79
776.319	49.93
776.496	49.24
776.674	48.73
776.851	48.11
777.028	46.59
777.205	45.74
777.382	44.73
777.56	44.43
777.737	44.39
777.914	40.8
778.091	41.89
778.268	39.52
778.445	41.62
778.622	41.31
778.8	42.16
778.977	44.1
779.154	44.68
779.331	43.98
779.508	45.43
779.685	43.21
779.862	48.08
780.038	48.54
780.215	48
780.392	45.48
780.569	46.44
780.746	45.8
780.923	46.39
781.1	46.9
781.277	47.15
781.453	46.09
781.63	47.18
781.807	46.12
781.984	48.5
782.16	50.1
782.337	52.7
782.514	51.98
782.691	51.09
782.867	48.88
783.044	46.92
783.221	48.11
783.397	48.45
783.574	47.2
783.75	47.64
783.927	48.99
784.103	49.64
784.28	48.18
784.456	49.73
784.633	47.18
784.809	49.74
784.986	49.36
785.162	47.68
785.339	47.7
785.515	48.43
785.692	47.07
785.868	43.79
786.044	42.18
786.221	42.06
786.397	40.47
786.573	43.12
786.749	40.35
786.926	41.78
787.102	43.73
787.278	43.28
787.454	43.92
787.631	42.96
787.807	43.03
787.983	44.38
788.159	46.22
788.335	43.93
788.511	45.18
788.687	46.7
788.863	48.02
789.039	47.9
789.216	46.85
789.392	47.3
789.568	47.49
789.744	47.3
789.919	45.77
790.095	46.12
790.271	49.73
790.447	51.08
790.623	53.18
790.799	52.51
790.975	49.76
791.151	47.78
791.327	48.92
791.502	49.48
791.678	47.97
791.854	48.78
792.03	46.92
792.205	46.57
792.381	43.94
792.557	41.95
792.733	42.43
792.908	45.6
793.084	47.45
793.259	44.97
793.435	45.42
793.611	49.31
793.786	46.3
793.962	45.02
794.137	42.84
794.313	45.18
794.488	44.72
794.664	43.36
794.839	39.46
795.015	38.68
795.19	40.17
795.366	39.57
795.541	37.4
795.716	41
795.892	41.43
796.067	44.12
796.242	44.34
796.418	43.04
796.593	43.62
796.768	45.47
796.944	46.09
797.119	45.71
797.294	45.96
797.469	46.93
797.644	47.29
797.82	46.27
797.995	44.27
798.17	43.28
798.345	43.29
798.52	43.28
798.695	44.55
798.87	43.64
799.045	43.47
799.22	43.62
799.395	44.27
799.57	45.23
799.745	47.45
799.92	47.72
800.095	47.42
800.27	46.47
800.445	46.25
800.62	45.84
800.795	48.17
800.97	48.38
801.145	48.06
801.319	45.35
801.494	42.77
801.669	42.64
801.844	40.21
802.018	42.51
802.193	46.93
802.368	46.87
802.543	46.44
802.717	47.51
802.892	47.19
803.067	48.05
803.241	50.95
803.416	54.36
803.59	54.08
803.765	58.03
803.94	55.89
804.114	52.42
804.289	49.98
804.463	49.56
804.638	47.66
804.812	46.91
804.986	46.52
805.161	45.9
805.335	44.74
805.51	43.8
805.684	41.72
805.858	41.97
806.033	41.74
806.207	41.97
806.381	43.12
806.556	43.05
806.73	44.68
806.904	45.86
807.078	43.54
807.253	40.74
807.427	40.87
807.601	41.81
807.775	42.45
807.949	41.41
808.123	43.51
808.298	42.66
808.472	43.74
808.646	41.27
808.82	39.8
808.994	38.91
809.168	40.16
809.342	40.19
809.516	42.69
809.69	41.28
809.864	42.53
810.038	43.21
810.212	40.77
810.385	43.35
810.559	45.04
810.733	46.56
810.907	45.85
811.081	44.43
811.255	41.36
811.428	40.3
811.602	40.86
811.776	42.57
811.95	44.55
812.123	48.59
812.297	42.15
812.471	42.36
812.644	43.45
812.818	46.1
812.992	45.25
813.165	48.23
813.339	49.62
813.512	46.63
813.686	49.29
813.86	48.98
814.033	45.87
814.207	48.7
814.38	48.2
814.554	47.96
814.727	49.82
814.9	52.67
815.074	55.34
815.247	52.32
815.421	57.49
815.594	55.16
815.767	50.78
815.941	51.39
816.114	47.28
816.287	48.37
816.46	46.94
816.634	44.94
816.807	41.43
816.98	40.78
817.153	42.04
817.327	37.73
817.5	34.83
817.673	37.26
817.846	36.51
818.019	38.58
818.192	38.25
818.365	38.65
818.538	41.6
818.711	46.27
818.884	44.61
819.057	41.65
819.23	37.97
819.403	40.66
819.576	37.74
819.749	38.55
819.922	41.08
820.095	42.2
820.268	43.83
820.441	42.02
820.614	42.06
820.786	42.8
820.959	45.45
821.132	46.77
821.305	46.49
821.477	46.61
821.65	46.55
821.823	46.07
821.996	45.33
822.168	44.92
822.341	45.76
822.514	44.86
822.686	44.31
822.859	43.61
823.031	44.07
823.204	43.51
823.376	44.11
823.549	44.69
823.722	44.64
823.894	45.33
824.067	45.28
824.239	44.73
824.411	45.6
824.584	46.14
824.756	46.23
824.929	46.13
825.101	46.87
825.273	46.18
825.446	46.14
825.618	46.92
825.79	46.92
825.963	46.38
826.135	46.08
826.307	45.82
826.479	45.17
826.652	45.74
826.824	45.89
826.996	45.44
827.168	45.87
827.34	45.24
827.512	44.79
827.684	43.21
827.856	43.58
828.029	44.19
828.201	43.41
828.373	44.2
828.545	44.12
828.717	44.08
828.889	44.04
829.061	44.86
829.232	44.4
829.404	43.01
829.576	44.11
829.748	43.27
829.92	43.06
830.092	42.38
830.264	41.7
830.436	40.63
830.607	39.94
830.779	41.23
830.951	39.6
831.123	38.12
831.294	38.08
831.466	38.45
831.638	37.77
831.809	36.87
831.981	37.31
832.153	36.11
832.324	36.58
832.496	37.09
832.667	33.77
832.839	33.07
833.011	35.36
833.182	36.08
833.354	32.76
833.525	37.79
833.697	39.69
833.868	42.38
834.039	45.58
834.211	46.45
834.382	46.92
834.554	47.72
834.725	49.31
834.896	47.43
835.068	47.7
835.239	49.55
835.41	48.56
835.581	48.27
835.753	46.66
835.924	44.47
836.095	45.47
836.266	44.41
836.438	44.72
836.609	41.95
836.78	44.57
836.951	47.29
837.122	48.46
837.293	47.27
837.464	45.91
837.635	47.26
837.806	48.81
837.977	44.2
838.148	40.13
838.319	40.9
838.49	46.12
838.661	45.71
838.832	40.26
839.003	33.14
839.174	27.5
839.345	26.53
839.516	22.15
839.687	14.75
839.857	20.76
840.028	31.31
840.199	30.1
840.37	26.43
840.54	29.64
840.711	29.91
840.882	34.23
841.053	38.35
841.223	36.26
841.394	42.3
841.564	42.73
841.735	42.41
841.906	39.44
842.076	37.02
842.247	39.73
842.417	29.3
842.588	30.46
842.758	27.57
842.929	26.4
843.099	27.22
843.27	24.61
843.44	25.94
843.611	22.7
843.781	20.89
843.951	22.82
844.122	24.68
844.292	32.76
844.462	27.59
844.633	34.63
844.803	41.01
844.973	47.05
845.144	46.68
845.314	51.87
845.484	60.42
845.654	69.72
845.824	80.23
845.995	67.41
846.165	68.93
846.335	75.03
846.505	64.32
846.675	52.82
846.845	36.2
847.015	25.44
847.185	13.66
847.355	6.28
847.525	7.97
847.695	-5.25
847.865	-15.45
848.035	-19.55
848.205	-24.27
848.375	-10.62
848.545	-4
848.715	15.49
848.884	27.65
849.054	33.48
849.224	45.48
849.394	49.71
849.564	41.36
849.733	58.58
849.903	43.22
850.073	39.66
850.243	51.73
850.412	34.22
850.582	19.91
850.752	-4.14
850.921	22.46
851.091	15.56
851.26	12.16
851.43	24.64
851.599	26.55
851.769	25.46
851.939	38.7
852.108	15.7
852.278	29.18
852.447	32.98
852.616	54.97
852.786	37.02
852.955	44.02
853.125	29.12
853.294	30.68
853.463	8.17
853.633	47.34
853.802	18.19
853.971	14.21
854.141	20.12
854.31	18.13
854.479	-6.62
854.648	-12.58
854.818	-15.91
854.987	-14.13
855.156	-12.34
855.325	21.96
855.494	-23.01
855.663	-26.88
855.832	-22.16
856.001	-12.06
856.171	-41.66
856.34	-31.11
856.509	-31.1
856.678	-20.47
856.847	11.54
857.016	-11.44
857.185	-15.6
857.353	4.05
857.522	18.52
857.691	37.99
857.86	39.99
858.029	58.48
858.198	53.04
858.367	53.84
858.535	41.85
858.704	40.61
858.873	45.83
859.042	44.6
859.21	67.26
859.379	33.12
859.548	15.87
859.717	14.09
859.885	16.32
860.054	12.83
860.222	-0.19
860.391	7.02
860.56	17.46
860.728	10.53
860.897	14.79
861.065	9.15
861.234	14.77
861.402	15.74
861.571	13.35
861.739	18.97
861.908	26.22
862.076	30.32
862.244	31.36
862.413	14.09
862.581	21.37
862.749	-11.6
862.918	-38.31
863.086	-0.58
863.254	8.41
863.423	72.33
863.591	66.07
863.759	49.18
863.927	99.47
864.096	619.95
864.264	-184.74
864.432	-223.44
864.6	880.49
864.768	346.84
864.936	193.76
865.104	129.82
865.272	115.15
865.44	104.56
865.608	90.46
865.776	82.81
865.944	57.66
866.112	50.5
866.28	53.37
866.448	44.14
866.616	54.98
866.784	57.14
866.952	74.13
867.12	57.24
867.288	65.93
867.455	61.23
867.623	71.57
867.791	58.18
867.959	56.55
868.127	76.96
868.294	78.32
868.462	53.92
868.63	37.38
868.797	34.42
868.965	-25.51
869.133	-43.02
869.3	-52.66
869.468	26.11
869.636	34.53
869.803	5.47
869.971	-13.02
870.138	1.95
870.306	8.82
870.473	31.31
870.641	10.15
870.808	25.53
870.975	28.37
871.143	45.47
871.31	33.87
871.478	5.26
871.645	37.83
871.812	36.46
871.98	38.9
872.147	70.59
872.314	53.47
872.482	62.26
872.649	32.97
872.816	57.7
872.983	52.86
873.15	18.74
873.318	42.92
873.485	62.59
873.652	119.36
873.819	89.91
873.986	61.48
874.153	76.98
874.32	90.49
874.487	84.35
874.654	68.41
874.821	61.15
874.988	80.36
875.155	66.47
875.322	52.14
875.489	44.78
875.656	41.46
875.823	37.11
875.99	40.48
876.157	48.6
876.324	54.22
876.49	66.6
876.657	71.06
876.824	41.91
876.991	50.52
877.157	66.73
877.324	62.73
877.491	62.68
877.658	67.91
877.824	52.07
877.991	49.84
878.157	56.62
878.324	57.97
878.491	48.5
878.657	68.28
878.824	56.98
878.99	62.73
879.157	75.33
879.323	61.01
879.49	53.66
879.656	44.07
879.823	25.37
879.989	26.04
880.156	6.46
880.322	25.32
880.488	19.2
880.655	34.14
880.821	27.14
880.987	27.09
881.154	31.89
881.32	38.79
881.486	44.82
881.652	49.96
881.819	49.94
881.985	52.8
882.151	43.31
882.317	43.43
882.483	39.83
882.649	41.76
882.816	40.74
882.982	40.1
883.148	40.8
883.314	41.5
883.48	42.74
883.646	41.92
883.812	40.81
883.978	41.98
884.144	41.23
884.31	43.26
884.476	42.71
884.642	44.09
884.807	46.06
884.973	46.65
885.139	46.64
885.305	47.32
885.471	47.16
885.637	47.67
885.802	47.98
885.968	52.06
886.134	50.78
886.3	50.83
886.465	48.33
886.631	47.68
886.797	46.56
886.962	46.84
887.128	45.62
887.293	44
887.459	40.3
887.625	42.06
887.79	40.96
887.956	48.32
888.121	51.06
888.287	59.17
888.452	56.45
888.618	63.33
888.783	65.93
