Data from CB_076_Reflection_1.txt Node
Date: Sat Nov 14 11:31:15 EST 2015
User: robert
Spectrometer: USB4E03001
Autoset integration time: false
Trigger mode: 4
Integration Time (sec): 1.000000E-1
Scans to average: 15
Electric dark correction enabled: true
Nonlinearity correction enabled: false
Boxcar width: 5
Stray light correction enabled: false
XAxis mode: Wavelengths
Stop averaging: false
Number of Pixels in Spectrum: 3648
>>>>>Begin Spectral Data<<<<<
177.566	-233.93
177.785	-211.3
178.005	-1096.38
178.225	-158.33
178.445	-157.98
178.665	-334.63
178.885	-20.42
179.105	-147.9
179.324	-243.58
179.544	-384.79
179.764	-104.61
179.984	-135.11
180.204	-122.1
180.423	-544.42
180.643	-257.52
180.863	-483.33
181.083	-2292.44
181.302	-11801.59
181.522	1344.35
181.742	1494.13
181.961	1783.87
182.181	295.13
182.401	248
182.621	401.82
182.84	1585.84
183.06	-5772.2
183.279	-735.04
183.499	-487.93
183.719	-541.08
183.938	-365.18
184.158	-246.99
184.377	-243.6
184.597	-124.12
184.816	-71.93
185.036	-140.84
185.256	-211.59
185.475	-482.15
185.695	-297.06
185.914	-293.7
186.134	-237.23
186.353	-250.26
186.572	-183.61
186.792	-465.89
187.011	2347.9
187.231	-1822.73
187.45	-258.31
187.67	-1246.71
187.889	496
188.108	288.59
188.328	216.15
188.547	197.93
188.766	161.77
188.986	163.89
189.205	175.82
189.424	185.14
189.644	149.04
189.863	223.21
190.082	272.32
190.302	403.51
190.521	341.47
190.74	354.02
190.959	1342.7
191.178	1183.97
191.398	925.5
191.617	2332.06
191.836	9700
192.055	1655.52
192.274	480.22
192.494	575.17
192.713	17500
192.932	-1658.39
193.151	336325
193.37	466.4
193.589	-11847.79
193.808	-1101.27
194.027	-1843
194.246	4001.72
194.465	-2819.37
194.685	583.83
194.904	588.02
195.123	405.12
195.342	374.1
195.561	341.13
195.78	1064.79
195.999	2624.43
196.218	1131.24
196.436	711.1
196.655	328.87
196.874	203.45
197.093	390.2
197.312	298.65
197.531	571.66
197.75	609.97
197.969	1149.51
198.188	247.92
198.407	160.82
198.625	156.67
198.844	211.48
199.063	232.49
199.282	426.67
199.501	-2086.33
199.719	-1247.91
199.938	399.61
200.157	336.24
200.376	-2027.25
200.594	-102.78
200.813	-459.74
201.032	-1295.83
201.251	-642.08
201.469	-807.51
201.688	-1815.82
201.907	3292.63
202.125	899.12
202.344	4183.89
202.563	21927.54
202.781	1361.21
203	461.99
203.218	314.25
203.437	555.42
203.656	424.24
203.874	1060.65
204.093	961.03
204.311	612.42
204.53	1904.89
204.748	506.72
204.967	713.85
205.185	454.46
205.404	475.07
205.622	644.28
205.841	348.54
206.059	299.14
206.278	266.31
206.496	397.24
206.715	595.7
206.933	426.91
207.151	484.73
207.37	323.11
207.588	460.35
207.806	530.61
208.025	684.93
208.243	1105.77
208.461	-78818.18
208.68	1757.65
208.898	805.5
209.116	513.36
209.335	399.6
209.553	352.23
209.771	307.78
209.989	274.45
210.208	231.23
210.426	222.42
210.644	186.76
210.862	170.41
211.081	177.88
211.299	143.69
211.517	157.87
211.735	136.22
211.953	135.67
212.171	151.45
212.39	128.54
212.608	122.6
212.826	125.92
213.044	130.22
213.262	147.65
213.48	165.11
213.698	254.07
213.916	136.76
214.134	233.47
214.352	416.8
214.57	246.16
214.788	259.9
215.006	232.49
215.224	443.2
215.442	1149.75
215.66	2197.53
215.878	629.85
216.096	245.1
216.314	951.68
216.532	3955.58
216.75	-1415.72
216.968	-1886.83
217.185	-13676.99
217.403	3131.69
217.621	-195411.11
217.839	-1215.84
218.057	-38454.17
218.275	-1284.65
218.492	-289.67
218.71	-5018.23
218.928	2851.08
219.146	1471.32
219.363	821.33
219.581	1049.13
219.799	-5563.86
220.017	572.57
220.234	649.93
220.452	749.35
220.67	1182.54
220.887	404.75
221.105	651.66
221.323	368.62
221.54	247.79
221.758	241.7
221.976	192.46
222.193	142.22
222.411	132.6
222.629	132.31
222.846	108.78
223.064	95.62
223.281	111.53
223.499	113.51
223.716	108.55
223.934	105.25
224.151	97.6
224.369	113.97
224.586	137.17
224.804	162.35
225.021	149.51
225.239	148.31
225.456	152.99
225.674	128.15
225.891	112.8
226.108	107.71
226.326	102.35
226.543	104.38
226.76	88.58
226.978	72.16
227.195	66.49
227.413	59.1
227.63	57.91
227.847	53.5
228.064	52.38
228.282	47.42
228.499	48.39
228.716	45.62
228.934	43.35
229.151	46.59
229.368	44.08
229.585	43.13
229.802	43.83
230.02	41.41
230.237	41.39
230.454	41
230.671	44.73
230.888	42.52
231.105	41.45
231.323	39.58
231.54	35.82
231.757	38.63
231.974	40.97
232.191	44.95
232.408	44.19
232.625	44.71
232.842	44.94
233.059	40.47
233.276	32.79
233.493	32.66
233.71	38.82
233.927	38.46
234.144	36.2
234.361	36.21
234.578	34.05
234.795	31.54
235.012	26.06
235.229	22.42
235.446	30.47
235.663	37.97
235.879	44.06
236.096	41.9
236.313	44.77
236.53	41.55
236.747	40.08
236.964	39.21
237.181	46.96
237.397	51.87
237.614	67.95
237.831	71.15
238.048	70.67
238.264	64.39
238.481	64.22
238.698	64.09
238.915	68.69
239.131	64.01
239.348	63.02
239.565	60.94
239.781	58.04
239.998	44.92
240.215	35.62
240.431	34.82
240.648	35.71
240.865	33.51
241.081	30.83
241.298	28.95
241.514	29.08
241.731	28.4
241.947	27.17
242.164	26.73
242.38	24.91
242.597	22.36
242.814	22.18
243.03	23.5
243.246	25.65
243.463	24.44
243.679	22.95
243.896	23.32
244.112	22.19
244.329	22.53
244.545	23.55
244.762	25.82
244.978	30.67
245.194	27.17
245.411	24.25
245.627	23.42
245.843	26.84
246.06	26.96
246.276	24.31
246.492	25.35
246.709	22.56
246.925	22.33
247.141	21.73
247.357	20.56
247.574	21.09
247.79	20.02
248.006	18.16
248.222	17.68
248.439	16.67
248.655	17.18
248.871	15.46
249.087	16.76
249.303	17.02
249.519	18.11
249.736	20.11
249.952	19.78
250.168	25.41
250.384	26.66
250.6	25.35
250.816	27.59
251.032	28.03
251.248	28.62
251.464	29.29
251.68	25.07
251.896	22.29
252.112	21.51
252.328	22.51
252.544	20.94
252.76	21.76
252.976	20.08
253.192	18.54
253.408	18.7
253.624	18.62
253.84	18.19
254.056	20.37
254.272	20.94
254.487	22.62
254.703	21.76
254.919	18.35
255.135	20.84
255.351	27.46
255.567	27.61
255.782	29.68
255.998	30.06
256.214	29.45
256.43	29.25
256.646	32.64
256.861	31.65
257.077	31.96
257.293	33.41
257.508	31.47
257.724	29.4
257.94	28.36
258.155	25.05
258.371	22.76
258.587	21.93
258.802	21.25
259.018	19.43
259.234	18.94
259.449	18.5
259.665	17.15
259.88	17.12
260.096	16.49
260.312	16.53
260.527	16.12
260.743	16.72
260.958	16.61
261.174	17.35
261.389	18.23
261.605	17.84
261.82	17.12
262.036	17.7
262.251	16.76
262.466	16.02
262.682	15.33
262.897	16.16
263.113	16.61
263.328	14.28
263.543	12.98
263.759	12.42
263.974	11.4
264.189	9.88
264.405	9.66
264.62	10.72
264.835	9.93
265.051	11.7
265.266	11.34
265.481	12.15
265.696	17.58
265.912	16.67
266.127	17.42
266.342	18.89
266.557	20.96
266.773	19.4
266.988	18.88
267.203	19.41
267.418	18.49
267.633	18.64
267.848	16.78
268.064	12.46
268.279	12.1
268.494	9.91
268.709	8.65
268.924	10.37
269.139	10.58
269.354	11.65
269.569	11.04
269.784	11.82
269.999	12.89
270.214	14.21
270.429	15.4
270.644	17.26
270.859	18.28
271.074	17.59
271.289	17.65
271.504	17.64
271.719	17.34
271.934	17.91
272.149	16.49
272.363	16.34
272.578	15.1
272.793	14.57
273.008	13.16
273.223	12.08
273.438	12.1
273.653	11.84
273.867	12.31
274.082	13.36
274.297	14.09
274.512	15.24
274.726	14.95
274.941	15.1
275.156	18.15
275.371	18.91
275.585	21.35
275.8	23.31
276.015	20
276.229	20.87
276.444	19.88
276.659	18.42
276.873	18.95
277.088	20.51
277.302	22.16
277.517	20.35
277.732	19.85
277.946	18.06
278.161	18.43
278.375	20.39
278.59	17.88
278.804	17.06
279.019	18.28
279.233	16.86
279.448	14.85
279.662	13.19
279.877	12.75
280.091	11.68
280.306	12.24
280.52	9.25
280.735	9.99
280.949	12.39
281.163	12.08
281.378	10.75
281.592	11.74
281.806	12.08
282.021	11.33
282.235	12.05
282.449	12.92
282.664	11.64
282.878	13.27
283.092	10.43
283.307	9.52
283.521	10.6
283.735	11.52
283.949	11.34
284.164	10.95
284.378	11.31
284.592	11.53
284.806	12.73
285.02	13.86
285.234	12.62
285.449	14.03
285.663	14.48
285.877	12.55
286.091	11.94
286.305	12.27
286.519	12.38
286.733	13.24
286.947	13.71
287.161	12.78
287.375	12.16
287.589	14.07
287.803	15.55
288.017	15.84
288.231	17.71
288.445	18.31
288.659	18.22
288.873	19.09
289.087	19.15
289.301	18.94
289.515	18.81
289.729	19.07
289.943	18.35
290.157	17.68
290.371	17.47
290.584	17.57
290.798	18.16
291.012	18.01
291.226	16.73
291.44	16.46
291.654	15.13
291.867	14.78
292.081	15.55
292.295	15.57
292.509	15.24
292.722	14.21
292.936	12.5
293.15	12.14
293.364	11.94
293.577	12.75
293.791	13.69
294.005	14.52
294.218	15.9
294.432	14.82
294.645	13.8
294.859	13.18
295.073	14.15
295.286	14.22
295.5	14.16
295.713	14.08
295.927	14.02
296.14	12.95
296.354	12.53
296.568	12.01
296.781	11.69
296.994	11.81
297.208	12.22
297.421	12.14
297.635	12.81
297.848	12.07
298.062	11.36
298.275	11.84
298.489	12.64
298.702	13.28
298.915	12.32
299.129	12.96
299.342	13.34
299.555	14.34
299.769	15.76
299.982	15.33
300.195	16.27
300.409	17.04
300.622	16.25
300.835	15.53
301.048	15.16
301.262	16.56
301.475	17.81
301.688	18.35
301.901	16.92
302.115	16.1
302.328	17.44
302.541	17.62
302.754	18.64
302.967	18.73
303.18	19.54
303.393	19.94
303.607	20.29
303.82	19.5
304.033	19.83
304.246	21.05
304.459	20.16
304.672	19.6
304.885	20.11
305.098	19.76
305.311	20.25
305.524	19.37
305.737	18.98
305.95	18.73
306.163	18.67
306.376	17.92
306.589	18.22
306.802	18.66
307.015	19.22
307.228	19.29
307.44	18.78
307.653	19.54
307.866	20.52
308.079	20.93
308.292	21.08
308.505	22.75
308.718	23.53
308.93	23.84
309.143	24.1
309.356	23.7
309.569	22.73
309.781	23.01
309.994	23.37
310.207	22.99
310.42	22.48
310.632	22.12
310.845	20.19
311.058	19.37
311.27	18.28
311.483	17.52
311.696	17.52
311.908	17.97
312.121	17.8
312.333	18.03
312.546	17.54
312.759	17.63
312.971	16.97
313.184	17.85
313.396	17.48
313.609	18.25
313.821	19.93
314.034	20.23
314.246	19.74
314.459	21.64
314.671	19.98
314.884	20.74
315.096	19.86
315.309	21.24
315.521	22.13
315.733	22.73
315.946	22.02
316.158	21.21
316.371	21.42
316.583	21.2
316.795	18.62
317.008	19.35
317.22	19.49
317.432	21.85
317.644	22.6
317.857	21.73
318.069	22.04
318.281	21.55
318.494	21.22
318.706	21.34
318.918	22.45
319.13	23.17
319.342	22.19
319.555	21.57
319.767	21.89
319.979	20.31
320.191	20.11
320.403	20.72
320.615	22.48
320.827	23.79
321.039	23.41
321.252	23.59
321.464	24.96
321.676	24.63
321.888	24.29
322.1	23.54
322.312	23.37
322.524	24.94
322.736	23.38
322.948	22.99
323.16	21.33
323.372	22.55
323.584	22.42
323.796	21.07
324.007	21.32
324.219	22.81
324.431	22.57
324.643	24.33
324.855	24.17
325.067	24.3
325.279	24.24
325.491	26.45
325.702	25.52
325.914	25
326.126	26.31
326.338	26.12
326.55	25.98
326.761	26.38
326.973	26.13
327.185	26.29
327.396	28.58
327.608	29.7
327.82	28.84
328.032	30.43
328.243	31.45
328.455	31.82
328.666	33.57
328.878	34.14
329.09	34.75
329.301	34.18
329.513	33.91
329.725	33.35
329.936	33.45
330.148	33.7
330.359	34.13
330.571	34.85
330.782	34.57
330.994	35.13
331.205	35.94
331.417	36.08
331.628	37.87
331.84	39.64
332.051	40.09
332.262	39.84
332.474	38.44
332.685	38.67
332.897	38.4
333.108	39.13
333.319	38.7
333.531	37.52
333.742	36.92
333.953	36.07
334.165	35.15
334.376	35.59
334.587	34.76
334.799	35.19
335.01	33.87
335.221	33.88
335.432	32.5
335.644	32.27
335.855	32.09
336.066	32.38
336.277	32.78
336.488	32.22
336.7	31.78
336.911	32.18
337.122	33.11
337.333	33.53
337.544	33.59
337.755	34.94
337.966	34.23
338.177	33.92
338.388	34.02
338.599	33.42
338.811	33.05
339.022	32.95
339.233	33.61
339.444	32.06
339.655	31.55
339.866	31.71
340.076	31.23
340.287	31.78
340.498	32.59
340.709	33.17
340.92	33.29
341.131	33.55
341.342	33.67
341.553	32.78
341.764	34.72
341.975	35.11
342.185	34.11
342.396	34.2
342.607	33.71
342.818	33.85
343.029	32.81
343.239	33.21
343.45	33.22
343.661	32.25
343.872	32.21
344.082	30.95
344.293	30.43
344.504	31.21
344.714	30.4
344.925	30.75
345.136	30.19
345.346	29.41
345.557	28.21
345.768	27.77
345.978	28.75
346.189	29.33
346.399	29.07
346.61	28.63
346.821	28.61
347.031	29.52
347.242	29.36
347.452	29.37
347.663	30.44
347.873	31.83
348.084	32.11
348.294	31.04
348.504	30.57
348.715	31.83
348.925	32.57
349.136	31.73
349.346	30.88
349.557	30.98
349.767	31.69
349.977	31.91
350.188	30.81
350.398	31.01
350.608	31.03
350.819	31.56
351.029	30.82
351.239	31.18
351.449	31.4
351.66	32.15
351.87	32.03
352.08	31.36
352.29	31.47
352.501	31.33
352.711	30.65
352.921	31.15
353.131	30.13
353.341	30.28
353.552	29.35
353.762	28.48
353.972	28.08
354.182	29.27
354.392	29.25
354.602	28.71
354.812	29.66
355.022	29.65
355.232	29.86
355.442	30.37
355.652	29.96
355.862	29.87
356.072	30.84
356.282	29.79
356.492	29.27
356.702	28.82
356.912	29.17
357.122	29.27
357.332	29.22
357.542	28.41
357.752	28.32
357.962	27.95
358.171	28.22
358.381	28.2
358.591	28.47
358.801	28.5
359.011	28.52
359.221	28.42
359.43	27.7
359.64	27.69
359.85	27.58
360.06	27.22
360.269	27.33
360.479	27.19
360.689	27.05
360.899	27.63
361.108	27.12
361.318	26.93
361.528	26.84
361.737	26.54
361.947	26.37
362.156	26.69
362.366	26.36
362.576	26.53
362.785	26.27
362.995	26.1
363.204	25.73
363.414	26.07
363.623	26.4
363.833	26.05
364.042	26.3
364.252	26.43
364.461	26.23
364.671	26.72
364.88	26.48
365.09	27.7
365.299	27.8
365.509	28.15
365.718	27.13
365.927	26.73
366.137	26.76
366.346	26.86
366.555	26.81
366.765	26.87
366.974	26.47
367.183	25.58
367.393	23.9
367.602	23.34
367.811	22.89
368.021	23.51
368.23	23.54
368.439	23.29
368.648	22.65
368.857	22.38
369.067	21.97
369.276	22.1
369.485	22.9
369.694	23.77
369.903	24.23
370.112	24.18
370.321	23.68
370.531	23.92
370.74	23.51
370.949	23.65
371.158	23.66
371.367	23.79
371.576	23.37
371.785	22.73
371.994	22.75
372.203	22.7
372.412	22.47
372.621	22.97
372.83	22.46
373.039	22.94
373.248	22.6
373.457	22.71
373.666	22.13
373.874	21.94
374.083	22.27
374.292	21.5
374.501	21.33
374.71	21.9
374.919	21.84
375.128	22.01
375.336	21.7
375.545	22.45
375.754	22.19
375.963	21.96
376.171	21.73
376.38	21.7
376.589	21.17
376.798	20.09
377.006	19.81
377.215	19.29
377.424	19.02
377.632	18.45
377.841	17.6
378.05	17.46
378.258	17.79
378.467	17.64
378.675	17.31
378.884	17.93
379.093	18.33
379.301	18.08
379.51	17.72
379.718	17.8
379.927	18.47
380.135	18.48
380.344	18.41
380.552	18.11
380.761	18.42
380.969	18.35
381.177	17.94
381.386	18.65
381.594	17.89
381.803	18.04
382.011	17.97
382.219	17.38
382.428	17.2
382.636	17.05
382.845	16.45
383.053	16.23
383.261	16.21
383.469	16.15
383.678	15.59
383.886	15.98
384.094	16.01
384.302	15.84
384.511	15.88
384.719	15.67
384.927	15.89
385.135	16.58
385.343	16.43
385.552	16.47
385.76	16.35
385.968	16.21
386.176	15.94
386.384	15.47
386.592	14.99
386.8	14.97
387.008	15.22
387.216	14.94
387.424	14.31
387.633	14.51
387.841	14.4
388.049	15.03
388.257	14.8
388.465	14.34
388.672	14.63
388.88	14.99
389.088	14.46
389.296	14.26
389.504	13.87
389.712	14.33
389.92	13.85
390.128	13.79
390.336	12.89
390.544	12.62
390.751	12.81
390.959	12.56
391.167	12.42
391.375	12.84
391.583	12.81
391.79	12.54
391.998	12.3
392.206	12.49
392.414	12.07
392.621	12.29
392.829	12.58
393.037	12.51
393.244	12.24
393.452	12.13
393.66	12.2
393.867	12.37
394.075	12.72
394.283	12.67
394.49	12.16
394.698	12.17
394.905	12.13
395.113	12.03
395.32	12.06
395.528	12.21
395.735	12.11
395.943	11.82
396.15	11.57
396.358	11.5
396.565	11.56
396.773	11.82
396.98	11.93
397.188	11.81
397.395	11.88
397.602	11.96
397.81	11.74
398.017	11.84
398.225	12.03
398.432	11.97
398.639	11.88
398.847	11.48
399.054	11.29
399.261	11.32
399.468	11.36
399.676	11.58
399.883	11.35
400.09	11.72
400.297	12.08
400.505	11.62
400.712	11.77
400.919	11.98
401.126	11.94
401.333	12.17
401.54	12.13
401.748	12.08
401.955	11.3
402.162	11.24
402.369	11.14
402.576	10.27
402.783	10.09
402.99	9.59
403.197	8.79
403.404	8.93
403.611	8.87
403.818	8.78
404.025	8.62
404.232	9.02
404.439	8.83
404.646	8.48
404.853	8.44
405.06	8.55
405.267	8.58
405.474	8.99
405.681	8.94
405.887	8.81
406.094	8.82
406.301	8.64
406.508	8.55
406.715	8.85
406.922	9.01
407.128	9.48
407.335	9.37
407.542	9.34
407.749	9.41
407.955	9.48
408.162	9.36
408.369	9.04
408.575	9.35
408.782	9.22
408.989	8.7
409.195	8.43
409.402	8.43
409.609	8.47
409.815	8.28
410.022	8.24
410.228	8.3
410.435	8.62
410.642	8.97
410.848	8.71
411.055	8.56
411.261	8.86
411.468	9.31
411.674	8.85
411.881	9.07
412.087	9.34
412.294	9.36
412.5	9.11
412.706	8.77
412.913	8.54
413.119	8.6
413.326	8.48
413.532	8.49
413.738	7.98
413.945	7.89
414.151	7.87
414.357	7.91
414.564	7.5
414.77	7.72
414.976	7.76
415.182	8.1
415.389	7.98
415.595	7.89
415.801	7.75
416.007	7.91
416.214	7.85
416.42	7.72
416.626	7.45
416.832	7.73
417.038	7.71
417.244	7.71
417.45	7.32
417.657	7.32
417.863	7.21
418.069	7.16
418.275	7.17
418.481	7.15
418.687	7.15
418.893	7.16
419.099	6.96
419.305	6.74
419.511	6.76
419.717	6.77
419.923	6.68
420.129	6.64
420.335	6.74
420.541	6.49
420.746	6.61
420.952	6.57
421.158	6.59
421.364	6.51
421.57	6.42
421.776	6.32
421.982	6.37
422.187	6.29
422.393	6.4
422.599	6.33
422.805	6.51
423.01	6.5
423.216	6.46
423.422	6.5
423.628	6.62
423.833	6.71
424.039	6.72
424.245	6.7
424.45	6.82
424.656	6.77
424.862	6.8
425.067	6.66
425.273	6.65
425.478	6.64
425.684	6.52
425.889	6.56
426.095	6.67
426.301	6.55
426.506	6.41
426.712	6.49
426.917	6.63
427.123	6.54
427.328	6.64
427.533	6.56
427.739	6.64
427.944	6.61
428.15	6.45
428.355	6.31
428.561	6.64
428.766	6.66
428.971	6.49
429.177	6.35
429.382	6.37
429.587	6.34
429.793	6.46
429.998	6.3
430.203	6.27
430.408	6.53
430.614	6.54
430.819	6.55
431.024	6.46
431.229	6.51
431.434	6.69
431.64	6.77
431.845	6.92
432.05	6.93
432.255	6.87
432.46	6.92
432.665	6.58
432.87	6.46
433.076	6.2
433.281	6.36
433.486	6.2
433.691	6.04
433.896	5.87
434.101	5.67
434.306	5.59
434.511	5.7
434.716	5.77
434.921	5.95
435.126	5.92
435.331	5.99
435.535	5.96
435.74	5.95
435.945	5.8
436.15	5.69
436.355	5.93
436.56	5.91
436.765	5.91
436.97	5.65
437.174	5.64
437.379	5.78
437.584	5.8
437.789	5.66
437.993	5.63
438.198	5.72
438.403	5.85
438.608	5.73
438.812	5.76
439.017	5.52
439.222	5.7
439.426	5.69
439.631	5.62
439.836	5.55
440.04	5.73
440.245	5.85
440.45	5.87
440.654	5.9
440.859	5.85
441.063	5.82
441.268	6.02
441.472	6.01
441.677	5.84
441.881	5.74
442.086	5.79
442.29	5.74
442.495	5.77
442.699	5.81
442.904	5.68
443.108	5.8
443.312	5.78
443.517	5.7
443.721	5.65
443.925	5.83
444.13	5.93
444.334	5.78
444.538	5.75
444.743	5.66
444.947	5.54
445.151	5.71
445.356	5.68
445.56	5.56
445.764	5.52
445.968	5.48
446.173	5.44
446.377	5.37
446.581	5.4
446.785	5.28
446.989	5.24
447.193	5.29
447.398	5.21
447.602	4.98
447.806	4.99
448.01	5.04
448.214	5.1
448.418	4.9
448.622	4.97
448.826	4.99
449.03	5.08
449.234	5.17
449.438	5.16
449.642	5.06
449.846	5.29
450.05	5.58
450.254	5.52
450.458	5.33
450.662	5.66
450.866	5.58
451.069	5.53
451.273	5.38
451.477	5.35
451.681	5.48
451.885	5.37
452.089	5.36
452.292	4.99
452.496	4.94
452.7	5.12
452.904	4.89
453.107	5.06
453.311	5.06
453.515	5.33
453.719	5.27
453.922	5.2
454.126	5.58
454.33	5.45
454.533	5.36
454.737	5.39
454.94	5.35
455.144	5.62
455.348	5.63
455.551	5.69
455.755	5.72
455.958	5.8
456.162	5.81
456.365	5.52
456.569	5.4
456.772	5.61
456.976	5.73
457.179	5.78
457.383	5.59
457.586	5.43
457.79	5.42
457.993	5.24
458.196	5.13
458.4	5.12
458.603	5.1
458.807	5.12
459.01	5.22
459.213	5.16
459.417	5.11
459.62	5.01
459.823	5.06
460.026	4.99
460.23	4.89
460.433	5.01
460.636	4.89
460.839	4.92
461.042	4.97
461.246	4.97
461.449	5.07
461.652	5.05
461.855	5.17
462.058	5.22
462.261	5.43
462.464	5.37
462.668	5.27
462.871	5.6
463.074	5.46
463.277	5.32
463.48	5.29
463.683	5.19
463.886	5.04
464.089	5.18
464.292	4.85
464.495	4.67
464.698	4.9
464.901	4.86
465.104	4.59
465.306	4.61
465.509	4.8
465.712	4.97
465.915	5
466.118	5.04
466.321	5.03
466.524	5.11
466.726	5.18
466.929	5.27
467.132	5.18
467.335	5.26
467.538	5.29
467.74	5.23
467.943	4.97
468.146	4.81
468.348	4.88
468.551	4.89
468.754	4.98
468.956	5.04
469.159	4.95
469.362	5.17
469.564	5.29
469.767	5.48
469.969	5.7
470.172	5.82
470.375	5.84
470.577	5.79
470.78	5.65
470.982	5.64
471.185	5.49
471.387	5.47
471.59	5.16
471.792	5.16
471.995	5.17
472.197	4.95
472.399	5.01
472.602	5.18
472.804	5.17
473.007	5.25
473.209	5.32
473.411	5.52
473.614	5.66
473.816	5.87
474.018	5.67
474.22	5.79
474.423	5.7
474.625	5.65
474.827	5.63
475.03	5.78
475.232	5.69
475.434	5.52
475.636	5.35
475.838	5.23
476.04	5.31
476.243	5.32
476.445	5.33
476.647	5.5
476.849	5.57
477.051	5.39
477.253	5.55
477.455	5.54
477.657	5.66
477.859	5.53
478.061	5.33
478.263	5.21
478.465	5.16
478.667	4.89
478.869	4.76
479.071	4.54
479.273	4.47
479.475	4.31
479.677	4.27
479.879	4.13
480.081	4.18
480.283	4.35
480.485	4.33
480.686	4.59
480.888	4.77
481.09	4.82
481.292	4.88
481.494	5.08
481.695	5
481.897	5.02
482.099	5.02
482.301	5.06
482.502	4.97
482.704	4.95
482.906	4.72
483.107	4.6
483.309	4.56
483.511	4.5
483.712	4.43
483.914	4.4
484.115	4.37
484.317	4.36
484.519	4.33
484.72	4.34
484.922	4.32
485.123	4.34
485.325	4.34
485.526	4.39
485.728	4.43
485.929	4.46
486.131	4.51
486.332	4.58
486.534	4.61
486.735	4.62
486.936	4.63
487.138	4.61
487.339	4.61
487.541	4.63
487.742	4.62
487.943	4.6
488.144	4.62
488.346	4.59
488.547	4.57
488.748	4.59
488.95	4.58
489.151	4.67
489.352	4.76
489.553	4.8
489.755	4.82
489.956	4.74
490.157	4.74
490.358	4.67
490.559	4.66
490.76	4.68
490.961	4.62
491.163	4.7
491.364	4.59
491.565	4.53
491.766	4.58
491.967	4.6
492.168	4.66
492.369	4.68
492.57	4.71
492.771	4.75
492.972	4.65
493.173	4.72
493.374	4.77
493.575	4.92
493.776	4.9
493.976	4.88
494.177	4.87
494.378	4.93
494.579	5.08
494.78	5.11
494.981	5.18
495.182	5.41
495.382	5.51
495.583	5.44
495.784	5.39
495.985	5.63
496.185	5.66
496.386	5.67
496.587	5.81
496.788	5.7
496.988	5.62
497.189	5.6
497.39	5.49
497.59	5.47
497.791	5.38
497.992	5.3
498.192	5.29
498.393	5.35
498.593	5.52
498.794	5.46
498.994	5.62
499.195	5.79
499.395	5.95
499.596	6.18
499.796	6.13
499.997	6.36
500.197	6.56
500.398	6.59
500.598	6.43
500.799	6.47
500.999	6.38
501.199	6.32
501.4	6.51
501.6	6.39
501.801	6.33
502.001	6.57
502.201	6.37
502.402	6.24
502.602	6.15
502.802	6.46
503.002	6.4
503.203	6.55
503.403	6.67
503.603	6.56
503.803	6.58
504.003	6.78
504.204	6.6
504.404	6.97
504.604	7.18
504.804	7.57
505.004	7.5
505.204	7.55
505.404	7.55
505.604	7.53
505.804	7.59
506.005	7.84
506.205	7.61
506.405	7.84
506.605	7.83
506.805	7.89
507.005	7.78
507.204	7.85
507.404	7.86
507.604	8.1
507.804	8.21
508.004	8.2
508.204	8.12
508.404	8.25
508.604	8.19
508.804	8.15
509.003	8.08
509.203	8.03
509.403	8.11
509.603	8.37
509.803	8.29
510.002	8.37
510.202	8.62
510.402	8.87
510.602	8.93
510.801	9.08
511.001	9.06
511.201	9.23
511.4	9.3
511.6	9.35
511.8	9.36
511.999	9.6
512.199	9.6
512.398	9.67
512.598	9.66
512.797	9.99
512.997	10.1
513.197	10.34
513.396	10.49
513.596	10.71
513.795	11
513.994	11.03
514.194	11.16
514.393	11.24
514.593	11.4
514.792	11.54
514.992	11.57
515.191	11.7
515.39	11.86
515.59	11.99
515.789	12.07
515.988	12.11
516.188	12.28
516.387	12.4
516.586	12.78
516.786	12.76
516.985	12.87
517.184	13.11
517.383	13.24
517.582	13.3
517.782	13.3
517.981	13.41
518.18	13.35
518.379	13.57
518.578	13.56
518.777	13.61
518.976	13.78
519.176	13.94
519.375	13.85
519.574	14.06
519.773	14.25
519.972	14.54
520.171	14.82
520.37	15.12
520.569	15.26
520.768	15.56
520.967	15.62
521.166	15.76
521.365	15.82
521.564	16.1
521.762	16.24
521.961	16.34
522.16	16.35
522.359	16.33
522.558	16.42
522.757	16.37
522.956	16.29
523.154	16.5
523.353	16.72
523.552	16.94
523.751	17
523.949	17.08
524.148	17.16
524.347	17.34
524.546	17.49
524.744	17.66
524.943	17.91
525.142	18.11
525.34	18.32
525.539	18.43
525.737	18.58
525.936	18.73
526.135	18.84
526.333	19
526.532	19.03
526.73	19.1
526.929	19.28
527.127	19.43
527.326	19.53
527.524	19.54
527.723	19.7
527.921	19.81
528.12	19.92
528.318	19.98
528.516	20.12
528.715	20.21
528.913	20.3
529.112	20.36
529.31	20.4
529.508	20.51
529.707	20.59
529.905	20.66
530.103	20.69
530.301	20.77
530.5	20.93
530.698	20.94
530.896	21.16
531.094	21.35
531.293	21.42
531.491	21.6
531.689	21.67
531.887	21.88
532.085	21.92
532.283	21.98
532.481	22.15
532.68	22.22
532.878	22.37
533.076	22.42
533.274	22.39
533.472	22.49
533.67	22.51
533.868	22.62
534.066	22.55
534.264	22.57
534.462	22.66
534.66	22.73
534.858	22.78
535.056	22.93
535.253	23.01
535.451	23.14
535.649	23.22
535.847	23.46
536.045	23.57
536.243	23.89
536.441	24.03
536.638	24.18
536.836	24.17
537.034	24.29
537.232	24.33
537.43	24.37
537.627	24.43
537.825	24.63
538.023	24.67
538.22	24.83
538.418	24.87
538.616	24.97
538.813	25.05
539.011	25.25
539.209	25.28
539.406	25.34
539.604	25.63
539.801	25.76
539.999	25.76
540.196	25.7
540.394	25.65
540.591	25.63
540.789	25.7
540.986	25.69
541.184	25.76
541.381	25.84
541.579	25.78
541.776	25.7
541.974	25.74
542.171	25.76
542.368	25.8
542.566	25.85
542.763	25.83
542.96	25.86
543.158	26.01
543.355	25.94
543.552	25.95
543.75	26.05
543.947	26.05
544.144	26.1
544.341	26.13
544.539	26.26
544.736	26.31
544.933	26.44
545.13	26.36
545.327	26.36
545.524	26.57
545.722	26.68
545.919	26.79
546.116	26.94
546.313	26.86
546.51	26.9
546.707	26.86
546.904	26.89
547.101	26.92
547.298	27.23
547.495	27.22
547.692	27.27
547.889	27.11
548.086	27.08
548.283	27.13
548.48	27.29
548.677	27.4
548.874	27.42
549.07	27.45
549.267	27.54
549.464	27.34
549.661	27.58
549.858	27.43
550.055	27.68
550.251	27.73
550.448	27.62
550.645	27.7
550.842	27.69
551.038	27.69
551.235	27.81
551.432	27.83
551.628	28.09
551.825	27.91
552.022	28.06
552.218	28
552.415	27.99
552.612	28.1
552.808	28.17
553.005	28.05
553.201	28.11
553.398	28.16
553.594	28.3
553.791	28.35
553.987	28.43
554.184	28.41
554.38	28.43
554.577	28.5
554.773	28.54
554.97	28.43
555.166	28.76
555.362	28.71
555.559	28.64
555.755	28.67
555.952	28.44
556.148	28.6
556.344	28.73
556.541	28.81
556.737	28.72
556.933	28.95
557.129	28.93
557.326	28.9
557.522	29.2
557.718	29.49
557.914	29.36
558.11	29.33
558.307	29.29
558.503	29
558.699	29.23
558.895	29.53
559.091	29.32
559.287	29.62
559.483	29.41
559.679	29.16
559.876	28.81
560.072	28.91
560.268	29.2
560.464	28.96
560.66	29.27
560.856	29.38
561.052	29.26
561.247	29.39
561.443	29.2
561.639	29.36
561.835	29.61
562.031	29.79
562.227	29.82
562.423	29.9
562.619	30.16
562.815	30.2
563.01	30.18
563.206	30.2
563.402	30.1
563.598	30.33
563.793	30.48
563.989	30.29
564.185	30.28
564.381	30.2
564.576	30.34
564.772	30.15
564.968	30.18
565.163	29.85
565.359	29.87
565.555	30.07
565.75	29.91
565.946	29.82
566.141	29.97
566.337	30.08
566.532	30.35
566.728	30.1
566.923	30.18
567.119	30.16
567.314	30.37
567.51	30.29
567.705	30.24
567.901	30.38
568.096	30.27
568.292	30.48
568.487	30.44
568.682	30.32
568.878	30.4
569.073	30.41
569.268	30.24
569.464	30.18
569.659	30.26
569.854	30.17
570.05	29.96
570.245	30.35
570.44	30.21
570.635	30.05
570.831	30.1
571.026	30.1
571.221	30.46
571.416	30.54
571.611	30.58
571.806	30.58
572.002	30.6
572.197	30.61
572.392	30.37
572.587	30.42
572.782	30.58
572.977	30.48
573.172	30.49
573.367	30.18
573.562	30.37
573.757	30.38
573.952	30.18
574.147	30.24
574.342	30.38
574.537	30.45
574.732	30.26
574.927	30.3
575.121	30.4
575.316	30.48
575.511	30.6
575.706	30.47
575.901	30.53
576.096	30.85
576.29	30.89
576.485	31
576.68	30.97
576.875	31.1
577.069	31.13
577.264	31.05
577.459	31.15
577.654	31.3
577.848	31.57
578.043	31.6
578.238	31.56
578.432	31.55
578.627	31.66
578.821	31.77
579.016	31.85
579.21	31.99
579.405	32.16
579.6	31.97
579.794	31.93
579.989	31.6
580.183	32.01
580.378	32.06
580.572	32.32
580.766	32.15
580.961	32.05
581.155	31.97
581.35	31.87
581.544	31.74
581.738	32.23
581.933	32.18
582.127	32.44
582.321	31.83
582.516	31.99
582.71	31.82
582.904	32.05
583.099	31.98
583.293	32.15
583.487	32.23
583.681	32.67
583.875	32.31
584.07	32.4
584.264	32.24
584.458	32.51
584.652	32.38
584.846	32.5
585.04	32.09
585.234	32.43
585.428	32.39
585.623	32.39
585.817	32.08
586.011	32.15
586.205	32.12
586.399	32.5
586.593	32.54
586.787	32.69
586.981	32.37
587.174	32.84
587.368	32.7
587.562	32.92
587.756	32.71
587.95	32.91
588.144	33.08
588.338	33.29
588.532	33.07
588.725	33.26
588.919	33.37
589.113	33.6
589.307	33.57
589.501	33.58
589.694	33.58
589.888	33.76
590.082	33.52
590.275	33.21
590.469	33.19
590.663	33.6
590.856	33.19
591.05	33.17
591.244	32.98
591.437	33.2
591.631	33.14
591.824	32.87
592.018	32.91
592.212	33
592.405	33.19
592.599	33.23
592.792	32.74
592.986	32.98
593.179	32.98
593.372	32.95
593.566	32.47
593.759	32.67
593.953	32.85
594.146	32.7
594.339	32.99
594.533	33.24
594.726	33.12
594.92	32.89
595.113	32.91
595.306	32.95
595.499	33.06
595.693	33.48
595.886	33.51
596.079	33.56
596.272	33.74
596.466	33.31
596.659	33.18
596.852	33.22
597.045	33.39
597.238	33.29
597.431	33.32
597.624	33.49
597.818	33.23
598.011	33.17
598.204	33.09
598.397	32.96
598.59	33.22
598.783	33.16
598.976	33.27
599.169	33.21
599.362	33.33
599.555	33.04
599.748	32.91
599.941	33.04
600.134	32.97
600.326	32.87
600.519	33.17
600.712	33.36
600.905	33.42
601.098	33.33
601.291	33.63
601.483	33.56
601.676	33.42
601.869	33.48
602.062	33.38
602.255	33.57
602.447	33.57
602.64	33.33
602.833	32.99
603.025	33.01
603.218	32.94
603.411	32.79
603.603	32.82
603.796	33.1
603.989	32.87
604.181	32.9
604.374	32.77
604.566	32.91
604.759	32.98
604.951	33.03
605.144	32.96
605.336	32.95
605.529	33.11
605.721	33.05
605.914	33.25
606.106	33.47
606.299	33.58
606.491	33.65
606.683	33.58
606.876	33.48
607.068	33.52
607.26	33.51
607.453	33.53
607.645	33.19
607.837	33.41
608.03	33.15
608.222	32.98
608.414	33.06
608.606	33.04
608.799	33.39
608.991	33.76
609.183	34.16
609.375	34.45
609.567	34.65
609.759	35
609.952	35.05
610.144	35.32
610.336	35.61
610.528	35.76
610.72	36.07
610.912	36.14
611.104	36.16
611.296	36.26
611.488	36.48
611.68	36.69
611.872	36.76
612.064	37.07
612.256	37.2
612.448	37.36
612.64	37.45
612.832	37.49
613.023	37.5
613.215	37.48
613.407	36.93
613.599	36.55
613.791	36.14
613.983	35.75
614.174	35.3
614.366	35.16
614.558	34.86
614.75	34.84
614.941	34.74
615.133	34.5
615.325	34.42
615.516	34.71
615.708	34.98
615.9	35.19
616.091	35.56
616.283	35.59
616.475	35.19
616.666	35.37
616.858	35.15
617.049	34.91
617.241	34.81
617.432	34.7
617.624	34.86
617.815	34.32
618.007	34.2
618.198	34.03
618.39	34.25
618.581	34.49
618.773	34.3
618.964	34.17
619.155	34.38
619.347	34.43
619.538	34.71
619.729	34.35
619.921	34.72
620.112	34.85
620.303	34.62
620.494	34.32
620.686	34.4
620.877	34.36
621.068	34.11
621.259	33.75
621.451	33.67
621.642	33.07
621.833	33.22
622.024	33.18
622.215	32.79
622.406	32.89
622.597	32.9
622.788	32.76
622.98	32.82
623.171	33.1
623.362	33.46
623.553	33.61
623.744	33.96
623.935	33.85
624.126	33.84
624.317	34.08
624.508	34.17
624.698	34.09
624.889	34.32
625.08	34.63
625.271	34.72
625.462	34.7
625.653	34.42
625.844	34.62
626.034	34.47
626.225	34.48
626.416	34.3
626.607	34.42
626.798	34.58
626.988	34.34
627.179	34.23
627.37	33.98
627.56	34.09
627.751	34.4
627.942	34.24
628.132	34.22
628.323	34.44
628.514	34.86
628.704	34.73
628.895	34.66
629.085	34.41
629.276	34.61
629.466	34.91
629.657	34.65
629.847	34.79
630.038	35.04
630.228	35.34
630.419	35.37
630.609	35.38
630.8	35.55
630.99	35.6
631.181	36.33
631.371	36.01
631.561	35.95
631.752	35.88
631.942	35.88
632.132	35.61
632.323	35.79
632.513	35.41
632.703	35.04
632.893	35.34
633.084	35.45
633.274	35.07
633.464	35.07
633.654	35.28
633.844	35.26
634.034	34.82
634.225	34.65
634.415	34.66
634.605	34.76
634.795	34.59
634.985	34.26
635.175	34.49
635.365	34.43
635.555	34.43
635.745	34.14
635.935	34.33
636.125	34.55
636.315	34.93
636.505	34.74
636.695	34.52
636.885	34.86
637.075	34.82
637.265	34.79
637.455	35.22
637.644	35.37
637.834	35.63
638.024	35.46
638.214	35.46
638.404	35.33
638.593	35.43
638.783	35.7
638.973	35.81
639.163	35.8
639.352	35.21
639.542	35.02
639.732	35.04
639.921	34.99
640.111	35.64
640.301	35.78
640.49	36.01
640.68	35.94
640.87	35.98
641.059	35.58
641.249	35.92
641.438	36.11
641.628	35.84
641.817	36.14
642.007	35.94
642.196	35.66
642.386	35.6
642.575	35.82
642.764	35.83
642.954	35.86
643.143	36.37
643.333	36.23
643.522	36.49
643.711	36.46
643.901	36.15
644.09	36.1
644.279	36.49
644.469	36.22
644.658	35.81
644.847	35.43
645.036	35.57
645.226	35.47
645.415	35.49
645.604	35.32
645.793	35.81
645.982	35.93
646.171	36.14
646.361	35.55
646.55	36.22
646.739	36.07
646.928	36.38
647.117	36.18
647.306	36.12
647.495	36.19
647.684	36.24
647.873	36.12
648.062	35.92
648.251	36.19
648.44	36.03
648.629	35.08
648.818	35.25
649.007	35.67
649.196	35.84
649.384	35.61
649.573	35.39
649.762	35.6
649.951	35.5
650.14	35.47
650.328	35.17
650.517	35.2
650.706	35.92
650.895	36.01
651.083	36.26
651.272	36.29
651.461	36.39
651.65	36.43
651.838	36.14
652.027	35.94
652.216	36.21
652.404	35.76
652.593	35.88
652.781	35.67
652.97	35.4
653.158	34.61
653.347	34.49
653.535	34.34
653.724	34.21
653.912	34.65
654.101	34.64
654.289	34.9
654.478	35.19
654.666	34.93
654.855	34.99
655.043	35.25
655.231	35.16
655.42	35
655.608	35.26
655.796	35.58
655.985	35.1
656.173	35.38
656.361	35.09
656.55	35.03
656.738	35.89
656.926	35.95
657.114	35.78
657.302	36.19
657.491	36.17
657.679	35.66
657.867	35.89
658.055	36.05
658.243	36
658.431	35.72
658.619	36
658.807	35.93
658.996	36
659.184	36.17
659.372	35.92
659.56	35.75
659.748	35.99
659.936	36.18
660.124	36.36
660.311	36.47
660.499	36.8
660.687	36.45
660.875	36.01
661.063	35.93
661.251	35.58
661.439	35.85
661.627	36.12
661.814	36.28
662.002	35.6
662.19	35.74
662.378	35.45
662.565	35.45
662.753	36.12
662.941	36.72
663.129	36.47
663.316	36.93
663.504	36.56
663.692	36.11
663.879	36.36
664.067	36.39
664.254	36.07
664.442	36.47
664.63	36.11
664.817	36
665.005	35.32
665.192	35.53
665.38	35.5
665.567	36.01
665.755	36.72
665.942	36.57
666.13	36.81
666.317	36.94
666.504	36.69
666.692	37.33
666.879	37.12
667.067	37.47
667.254	37.73
667.441	37.5
667.629	37.27
667.816	36.97
668.003	37.16
668.19	37.19
668.378	37.14
668.565	37.22
668.752	36.47
668.939	36.32
669.127	36.04
669.314	35.62
669.501	36
669.688	36.23
669.875	36.46
670.062	36.64
670.249	36.86
670.436	36.96
670.623	36.95
670.81	37.32
670.997	38.01
671.184	38.2
671.371	38.57
671.558	37.99
671.745	37.53
671.932	36.92
672.119	36.61
672.306	36.59
672.493	36.25
672.68	36.34
672.867	36.6
673.054	36.01
673.24	35.97
673.427	36.1
673.614	36.82
673.801	37.43
673.988	38.24
674.174	38.29
674.361	38.15
674.548	37.84
674.734	37.72
674.921	36.87
675.108	37.04
675.294	37.15
675.481	36.6
675.668	36.29
675.854	36.22
676.041	35.46
676.227	35.27
676.414	35.41
676.601	35.98
676.787	35.75
676.974	36.25
677.16	36.19
677.347	36.38
677.533	36.89
677.719	36.79
677.906	36.49
678.092	36.93
678.279	37.02
678.465	36.8
678.651	36.65
678.838	36.82
679.024	36.52
679.21	36.26
679.397	36.25
679.583	36.38
679.769	36.05
679.955	36.19
680.142	36
680.328	35.81
680.514	35.66
680.7	35.6
680.886	35.7
681.073	36.13
681.259	36.21
681.445	36
681.631	35.53
681.817	35.69
682.003	35.48
682.189	35.61
682.375	36.19
682.561	36.56
682.747	36.38
682.933	36.23
683.119	35.77
683.305	35.88
683.491	36.06
683.677	36.79
683.863	36.84
684.049	37.24
684.235	37.43
684.42	37.13
684.606	36.96
684.792	37.56
684.978	37.28
685.164	37.61
685.349	37.85
685.535	37.81
685.721	36.92
685.907	36.49
686.092	36.18
686.278	36.43
686.464	36.83
686.649	37.03
686.835	37.03
687.021	38.15
687.206	38.23
687.392	37.82
687.577	37.89
687.763	38.35
687.948	39.05
688.134	39.03
688.319	39.04
688.505	38.44
688.69	38.04
688.876	37.6
689.061	36.83
689.247	36.64
689.432	36.97
689.618	36.76
689.803	36.95
689.988	36.94
690.174	37.43
690.359	37.14
690.544	37.47
690.73	37.55
690.915	37.54
691.1	37.28
691.285	37.75
691.471	37.54
691.656	37.59
691.841	37.03
692.026	36.68
692.211	35.78
692.396	35.59
692.582	36.13
692.767	36.22
692.952	36.97
693.137	37.14
693.322	36.64
693.507	36.8
693.692	37.07
693.877	37.04
694.062	37.59
694.247	39.17
694.432	39.17
694.617	38.16
694.802	38.39
694.987	37.97
695.172	38.11
695.357	38.06
695.541	38.29
695.726	38.55
695.911	39.01
696.096	38.94
696.281	38.06
696.466	38.2
696.65	38.47
696.835	38.21
697.02	37.81
697.204	37.78
697.389	37.65
697.574	37.54
697.759	37.14
697.943	36.71
698.128	36.7
698.312	36.7
698.497	36.65
698.682	36.45
698.866	36.18
699.051	36.54
699.235	36.54
699.42	36.62
699.604	36.52
699.789	36.6
699.973	36.67
700.158	36.87
700.342	36.7
700.527	36.84
700.711	37.49
700.895	38.15
701.08	38.01
701.264	38.15
701.448	38.07
701.633	38.42
701.817	38.84
702.001	39.52
702.186	39.32
702.37	39.53
702.554	39.86
702.738	39.85
702.923	39.79
703.107	39.86
703.291	40.13
703.475	40.6
703.659	40.49
703.843	39.61
704.027	39.01
704.212	38.22
704.396	39.2
704.58	39.22
704.764	38.18
704.948	37.91
705.132	38.29
705.316	38.43
705.5	38.49
705.684	38.2
705.868	38.92
706.052	39.33
706.235	40.97
706.419	39.7
706.603	39.56
706.787	40.09
706.971	40.05
707.155	39.03
707.339	38.54
707.522	38.8
707.706	38.96
707.89	38.86
708.074	39.29
708.257	37.78
708.441	38.75
708.625	38.51
708.808	38.92
708.992	39.7
709.176	40.17
709.359	40.31
709.543	39.5
709.727	39.21
709.91	38.72
710.094	37.78
710.277	38.31
710.461	37.99
710.644	38.33
710.828	37.77
711.011	36.38
711.195	36.85
711.378	36.55
711.562	36.85
711.745	37.14
711.928	37.44
712.112	37.51
712.295	37.49
712.478	36.96
712.662	37.34
712.845	37.72
713.028	38.03
713.212	37.99
713.395	38.14
713.578	38.36
713.761	38.9
713.945	39.11
714.128	39.54
714.311	39.2
714.494	38.9
714.677	38.6
714.86	38.13
715.043	38.73
715.227	38.08
715.41	38.33
715.593	38.28
715.776	37.89
715.959	37.52
716.142	36.89
716.325	37.44
716.508	37.93
716.691	37.18
716.874	37.52
717.057	37.14
717.239	37.55
717.422	37.34
717.605	37.07
717.788	36.59
717.971	37.69
718.154	38.24
718.337	38.44
718.519	37.78
718.702	38.53
718.885	37.71
719.068	38.04
719.25	38.74
719.433	38.73
719.616	39.16
719.798	40.42
719.981	39.65
720.164	39.14
720.346	39.45
720.529	39.99
720.712	39.62
720.894	40.64
721.077	40.26
721.259	40.67
721.442	41.1
721.624	41.76
721.807	41.13
721.989	41.4
722.172	41.68
722.354	42.03
722.537	42.65
722.719	43.1
722.901	43.6
723.084	43.58
723.266	42.66
723.448	42.73
723.631	41.8
723.813	41.33
723.995	40.14
724.178	40.45
724.36	38.45
724.542	37.69
724.724	37.56
724.907	37.17
725.089	38.52
725.271	38.32
725.453	38.58
725.635	39.08
725.817	39.49
725.999	39.81
726.181	40.44
726.364	41.22
726.546	41.4
726.728	41.56
726.91	41.26
727.092	40.37
727.274	40.72
727.456	40.96
727.638	40.43
727.819	41.02
728.001	41.63
728.183	41.19
728.365	41.48
728.547	42.07
728.729	42.2
728.911	42.55
729.093	42.6
729.274	41.28
729.456	40.62
729.638	40.95
729.82	40.19
730.001	38.82
730.183	39.33
730.365	38.84
730.546	38.96
730.728	38.09
730.91	38.33
731.091	38.59
731.273	39.69
731.455	40.05
731.636	40.24
731.818	40.51
731.999	40.89
732.181	40.64
732.362	41
732.544	41.16
732.725	40.85
732.907	40.54
733.088	40.36
733.27	40.98
733.451	40.65
733.633	40.68
733.814	40.82
733.995	41.35
734.177	40.81
734.358	39.95
734.539	39.01
734.721	39.67
734.902	40.09
735.083	40.75
735.264	39.67
735.446	39.58
735.627	38.71
735.808	38.98
735.989	39.78
736.17	40.62
736.351	42.21
736.533	42.68
736.714	42.55
736.895	41.51
737.076	40.32
737.257	39.48
737.438	38.79
737.619	40.12
737.8	38.83
737.981	38.56
738.162	38.09
738.343	37.6
738.524	37.99
738.705	38.9
738.886	39.14
739.067	39.69
739.247	41.07
739.428	40.65
739.609	39.31
739.79	40.32
739.971	39.95
740.151	39.99
740.332	39.83
740.513	39.84
740.694	39.79
740.874	39.51
741.055	39.17
741.236	38.85
741.417	39.89
741.597	40.44
741.778	41
741.958	40.4
742.139	39.85
742.32	38.8
742.5	38.62
742.681	38.39
742.861	38.79
743.042	39.07
743.222	39.37
743.403	39.74
743.583	40.43
743.764	38.91
743.944	39.73
744.124	41.07
744.305	41.96
744.485	41.12
744.666	40.76
744.846	41.72
745.026	42.38
745.207	42.94
745.387	42.29
745.567	42.45
745.747	41.76
745.928	41.39
746.108	40.55
746.288	39.96
746.468	40.98
746.648	41.31
746.829	40.41
747.009	40.35
747.189	39.91
747.369	39.37
747.549	38.9
747.729	40.47
747.909	40.45
748.089	40.94
748.269	42.05
748.449	42.42
748.629	42.13
748.809	42.36
748.989	42.23
749.169	42.34
749.349	44.14
749.529	44.05
749.709	43.6
749.889	43.62
750.068	43.16
750.248	42.67
750.428	42.09
750.608	41.27
750.788	40.05
750.967	39.74
751.147	39.57
751.327	39.43
751.507	38.9
751.686	39.68
751.866	40.57
752.046	40.98
752.225	41.17
752.405	41.44
752.585	41.96
752.764	43.39
752.944	42.58
753.123	42.7
753.303	42.15
753.482	42.62
753.662	42.23
753.841	40.81
754.021	40.08
754.2	41.13
754.38	40.77
754.559	41.73
754.739	42.35
754.918	43.12
755.097	42.93
755.277	42.09
755.456	41.66
755.635	42.31
755.815	43.84
755.994	44.32
756.173	42.46
756.352	42.43
756.532	40.57
756.711	39.28
756.89	39.23
757.069	39.47
757.248	39.19
757.427	39
757.607	38.58
757.786	38.89
757.965	37.68
758.144	38.15
758.323	38.84
758.502	39.83
758.681	39.14
758.86	38.9
759.039	37.55
759.218	38.02
759.397	38.69
759.576	38.23
759.755	36.97
759.934	36.66
760.113	37.67
760.291	37.15
760.47	38.05
760.649	38.65
760.828	38.98
761.007	38.69
761.186	38.9
761.364	38.24
761.543	38.35
761.722	38.95
761.901	39.88
762.079	39.68
762.258	39.98
762.437	39.15
762.615	38.18
762.794	38.61
762.972	39.48
763.151	39.02
763.33	39.02
763.508	39.46
763.687	39.74
763.865	39.97
764.044	39.56
764.222	38.94
764.401	39.35
764.579	40.33
764.758	39.31
764.936	39.48
765.114	40.11
765.293	40.68
765.471	40.19
765.65	39.95
765.828	39.48
766.006	39.51
766.184	39.69
766.363	39.22
766.541	38.72
766.719	38.66
766.898	38.85
767.076	39.69
767.254	40.65
767.432	41.33
767.61	40.42
767.788	41.05
767.967	40.97
768.145	41.07
768.323	41.78
768.501	41.55
768.679	42.99
768.857	43.28
769.035	42.53
769.213	42.36
769.391	42.18
769.569	43.34
769.747	44.43
769.925	43.88
770.103	44.37
770.281	41.89
770.459	41.75
770.636	42.19
770.814	42.25
770.992	42.88
771.17	42.09
771.348	40.42
771.525	40.83
771.703	39.43
771.881	40.64
772.059	42.75
772.236	43.18
772.414	44.08
772.592	42.93
772.769	42.51
772.947	42.04
773.125	42.99
773.302	46.44
773.48	44.75
773.657	46.62
773.835	45.91
774.013	44.64
774.19	46.33
774.368	46.55
774.545	45.92
774.723	45.37
774.9	45.9
775.077	44.53
775.255	43.57
775.432	44.2
775.61	43.18
775.787	43.23
775.964	41.74
776.142	40.82
776.319	41.36
776.496	43.42
776.674	43.67
776.851	42.33
777.028	42.38
777.205	41.91
777.382	43.66
777.56	44.2
777.737	49.44
777.914	49.39
778.091	50.64
778.268	50.85
778.445	49.93
778.622	50.31
778.8	51.06
778.977	51.95
779.154	54.76
779.331	52.41
779.508	50.95
779.685	46.69
779.862	48.84
780.038	48.69
780.215	50.95
780.392	50.99
780.569	52.51
780.746	51.8
780.923	52.27
781.1	48.27
781.277	47.43
781.453	46.32
781.63	45.17
781.807	43.22
781.984	42.06
782.16	39.86
782.337	38.66
782.514	36.98
782.691	38.14
782.867	37.36
783.044	37.71
783.221	40.34
783.397	43.37
783.574	42.94
783.75	42.67
783.927	44.37
784.103	45.22
784.28	45.23
784.456	45.29
784.633	45.21
784.809	44.52
784.986	44.67
785.162	43.94
785.339	41.77
785.515	43.05
785.692	42.98
785.868	44.46
786.044	45.29
786.221	47.75
786.397	48.71
786.573	46.96
786.749	47.76
786.926	47.96
787.102	47.96
787.278	48.19
787.454	48.92
787.631	50.37
787.807	47.11
787.983	45.76
788.159	43.91
788.335	44.99
788.511	45.85
788.687	45.73
788.863	45.5
789.039	44.25
789.216	45.44
789.392	45.04
789.568	44.74
789.744	47.45
789.919	46.99
790.095	48.39
790.271	47.41
790.447	47.08
790.623	46.63
790.799	46.56
790.975	46.98
791.151	48.19
791.327	48.04
791.502	47.91
791.678	47.82
791.854	47.38
792.03	44.65
792.205	44.22
792.381	46.82
792.557	46.45
792.733	43.91
792.908	45.9
793.084	45.04
793.259	42.87
793.435	41.27
793.611	40.03
793.786	41.58
793.962	40.61
794.137	42.21
794.313	41.17
794.488	40.88
794.664	44.04
794.839	42.79
795.015	42.32
795.19	43.9
795.366	46.12
795.541	46.07
795.716	43.04
795.892	44.12
796.067	44.01
796.242	43.99
796.418	45.6
796.593	44.78
796.768	45.02
796.944	46.31
797.119	45.97
797.294	44.26
797.469	45.11
797.644	46.26
797.82	49.25
797.995	47.98
798.17	46.19
798.345	44.09
798.52	43.43
798.695	44.06
798.87	41.15
799.045	41.97
799.22	42.51
799.395	43.07
799.57	44.41
799.745	42.02
799.92	43.09
800.095	44.94
800.27	45.81
800.445	45.79
800.62	44.69
800.795	44.54
800.97	44.77
801.145	44.96
801.319	41.59
801.494	40.68
801.669	42.7
801.844	39.69
802.018	39.11
802.193	38.88
802.368	39.69
802.543	40.53
802.717	45.48
802.892	46.21
803.067	47.8
803.241	50.18
803.416	49.22
803.59	50.96
803.765	51.13
803.94	51.42
804.114	51.97
804.289	52.45
804.463	50
804.638	44.79
804.812	44.54
804.986	43.14
805.161	44
805.335	46.13
805.51	44.56
805.684	45.46
805.858	45.63
806.033	45.07
806.207	43.82
806.381	48.85
806.556	50.91
806.73	51.46
806.904	53.7
807.078	51.59
807.253	48.97
807.427	47.37
807.601	46.18
807.775	46.22
807.949	47.03
808.123	46.81
808.298	46.12
808.472	44.15
808.646	42.31
808.82	39.81
808.994	37.17
809.168	39.33
809.342	43.02
809.516	46.35
809.69	47.27
809.864	46.55
810.038	47.97
810.212	44.5
810.385	44.47
810.559	47.48
810.733	50.47
810.907	56.22
811.081	55.18
811.255	51.03
811.428	47.32
811.602	42.97
811.776	41.06
811.95	44.07
812.123	43.61
812.297	46.16
812.471	45.24
812.644	44.62
812.818	43.8
812.992	48.39
813.165	48.63
813.339	51.09
813.512	55.51
813.686	57.61
813.86	53.33
814.033	55.42
814.207	57.43
814.38	54.95
814.554	54.43
814.727	54.02
814.9	52.19
815.074	52.38
815.247	52.54
815.421	49.76
815.594	51.31
815.767	54.13
815.941	48
816.114	47.82
816.287	48.69
816.46	45.67
816.634	43.87
816.807	44.63
816.98	47.38
817.153	45.62
817.327	45.56
817.5	43.74
817.673	45.05
817.846	51.47
818.019	51.67
818.192	52.71
818.365	50.74
818.538	54.06
818.711	52.82
818.884	49.31
819.057	50
819.23	49.68
819.403	51.44
819.576	51.1
819.749	51.41
819.922	49.42
820.095	49.33
820.268	52.68
820.441	52.13
820.614	52.13
820.786	51.46
820.959	50.34
821.132	49.97
821.305	47.89
821.477	45.36
821.65	43.16
821.823	41.88
821.996	41.73
822.168	41.04
822.341	39.18
822.514	38.44
822.686	37.65
822.859	37.1
823.031	36.93
823.204	36.35
823.376	36.69
823.549	36.6
823.722	37.22
823.894	37.01
824.067	36.81
824.239	37.81
824.411	37.66
824.584	38.92
824.756	39.68
824.929	40.07
825.101	40.42
825.273	40.72
825.446	41.09
825.618	40.79
825.79	41.16
825.963	40.42
826.135	40.39
826.307	40.9
826.479	40.66
826.652	40.72
826.824	40.6
826.996	40.68
827.168	40.95
827.34	40.67
827.512	40.4
827.684	39.32
827.856	39.73
828.029	39.41
828.201	38.75
828.373	38.56
828.545	38.48
828.717	38.26
828.889	38.77
829.061	39.26
829.232	40.53
829.404	41.55
829.576	41.8
829.748	42.17
829.92	43.35
830.092	46.06
830.264	45.96
830.436	46.31
830.607	46.18
830.779	46.15
830.951	44.79
831.123	44.15
831.294	43.05
831.466	44.92
831.638	46.13
831.809	43.07
831.981	43.09
832.153	44.67
832.324	41.71
832.496	43.32
832.667	49.1
832.839	53.69
833.011	52.56
833.182	53.96
833.354	51.74
833.525	50.36
833.697	49.64
833.868	47.02
834.039	44.51
834.211	44.93
834.382	44.19
834.554	40.61
834.725	37.45
834.896	36.86
835.068	36.24
835.239	36.08
835.41	38.9
835.581	40.44
835.753	40.97
835.924	43.93
836.095	46.01
836.266	47.19
836.438	46.42
836.609	47.14
836.78	47.95
836.951	49.54
837.122	50.56
837.293	48.85
837.464	50.26
837.635	52.75
837.806	47.45
837.977	45.8
838.148	45.99
838.319	48.88
838.49	50.6
838.661	50.45
838.832	56.81
839.003	56.36
839.174	56.61
839.345	61.41
839.516	56.6
839.687	62.64
839.857	61.18
840.028	59.3
840.199	57.29
840.37	57.21
840.54	58.66
840.711	51.83
840.882	49.6
841.053	49.54
841.223	46.22
841.394	51.52
841.564	56.57
841.735	64.22
841.906	64.04
842.076	63.93
842.247	63.69
842.417	66.51
842.588	68.01
842.758	72.22
842.929	75.91
843.099	76.62
843.27	71.68
843.44	69.84
843.611	65.6
843.781	70.9
843.951	70.24
844.122	70.83
844.292	64.26
844.462	59.03
844.633	65.94
844.803	60.61
844.973	56.96
845.144	62.73
845.314	57.71
845.484	63.71
845.654	62.34
845.824	64.03
845.995	62.62
846.165	72.52
846.335	79.29
846.505	76.44
846.675	81.02
846.845	72.28
847.015	75.59
847.185	91.3
847.355	79.23
847.525	71.99
847.695	80.05
847.865	86.29
848.035	79.35
848.205	70.92
848.375	74.66
848.545	77.04
848.715	88.25
848.884	71.26
849.054	68.99
849.224	72.94
849.394	76.54
849.564	77.02
849.733	85.78
849.903	79.91
850.073	84.94
850.243	88.09
850.412	93.37
850.582	92.24
850.752	104.76
850.921	92.22
851.091	106.99
851.26	123.98
851.43	103.77
851.599	85.47
851.769	94.15
851.939	86.95
852.108	74.88
852.278	79.47
852.447	93.49
852.616	91.15
852.786	86.77
852.955	74.43
853.125	68.09
853.294	80.37
853.463	86.34
853.633	79.59
853.802	92.17
853.971	108.18
854.141	96.18
854.31	100.72
854.479	96.26
854.648	119.05
854.818	106.91
854.987	102.91
855.156	98.91
855.325	95.34
855.494	102.42
855.663	77.61
855.832	80.19
856.001	82.22
856.171	62.87
856.34	68.03
856.509	72.93
856.678	97.74
856.847	89.91
857.016	84.97
857.185	86.23
857.353	98.29
857.522	118.67
857.691	103.56
857.86	104.64
858.029	102.04
858.198	95.73
858.367	98.35
858.535	81.12
858.704	93
858.873	98.52
859.042	96.45
859.21	93.58
859.379	94.49
859.548	92.25
859.717	94.42
859.885	102.46
860.054	105.84
860.222	91.03
860.391	89.52
860.56	94.7
860.728	95.15
860.897	96.47
861.065	95.46
861.234	90.16
861.402	82.81
861.571	75.15
861.739	75.93
861.908	73.74
862.076	77.03
862.244	83.17
862.413	82.84
862.581	79.19
862.749	77.83
862.918	67.09
863.086	70.84
863.254	84.8
863.423	92.35
863.591	80.76
863.759	86.31
863.927	80.8
864.096	74.68
864.264	67.68
864.432	70.81
864.6	72.21
864.768	79.36
864.936	71.13
865.104	63.04
865.272	66.54
865.44	79.09
865.608	81.11
865.776	92.48
865.944	105.36
866.112	106.12
866.28	104.56
866.448	104.09
866.616	132.44
866.784	133.72
866.952	139.91
867.12	152.91
867.288	149.82
867.455	150.03
867.623	146.59
867.791	132.95
867.959	133.08
868.127	138.2
868.294	110.78
868.462	79.78
868.63	67.17
868.797	63.58
868.965	40.49
869.133	33.36
869.3	37.84
869.468	63.55
869.636	59.2
869.803	65.25
869.971	65.19
870.138	67.97
870.306	66.28
870.473	66.76
870.641	62.19
870.808	69.48
870.975	73.09
871.143	69.98
871.31	57.56
871.478	41.94
871.645	36.01
871.812	48.19
871.98	69.27
872.147	74.22
872.314	79.82
872.482	72.93
872.649	78.12
872.816	79.63
872.983	91.09
873.15	96.22
873.318	105.58
873.485	126.77
873.652	116.27
873.819	111.9
873.986	123.1
874.153	135.47
874.32	146.69
874.487	151.99
874.654	182.99
874.821	185.94
874.988	166.5
875.155	182.82
875.322	123.97
875.489	116.6
875.656	95.84
875.823	91.89
875.99	63.09
876.157	58.03
876.324	56.5
876.49	53.95
876.657	49.96
876.824	53.11
876.991	51.9
877.157	64.72
877.324	71.62
877.491	76.04
877.658	68.79
877.824	70.24
877.991	67.6
878.157	68.83
878.324	67.96
878.491	63.93
878.657	65.87
878.824	67.4
878.99	55.98
879.157	53.98
879.323	51.82
879.49	54.69
879.656	57.34
879.823	70.93
879.989	78.81
880.156	81.03
880.322	79.37
880.488	77.25
880.655	75.4
880.821	85.92
880.987	91.78
881.154	88.3
881.32	90.77
881.486	84
881.652	79.07
881.819	68.58
881.985	62.75
882.151	61.74
882.317	56.93
882.483	56.16
882.649	54.52
882.816	50.17
882.982	49.7
883.148	44.27
883.314	43.36
883.48	42.49
883.646	42.82
883.812	43.9
883.978	44.71
884.144	45.33
884.31	46.48
884.476	45.37
884.642	46.26
884.807	46.39
884.973	48.26
885.139	50.05
885.305	50.45
885.471	50.31
885.637	50.26
885.802	48.92
885.968	50.95
886.134	48.82
886.3	49.69
886.465	47.93
886.631	47.75
886.797	50.22
886.962	49.9
887.128	50.42
887.293	54.53
887.459	50.81
887.625	54.64
887.79	57.15
887.956	62.06
888.121	62.2
888.287	67.84
888.452	69.56
888.618	66.98
888.783	68.06
