Data from CB_046_Reflection_00003.txt Node
Date: Wed Nov 11 22:22:34 EST 2015
User: robert
Spectrometer: USB4E03001
Autoset integration time: false
Trigger mode: 4
Integration Time (sec): 1.000000E-1
Scans to average: 15
Electric dark correction enabled: true
Nonlinearity correction enabled: false
Boxcar width: 5
Stray light correction enabled: false
XAxis mode: Wavelengths
Stop averaging: false
Number of Pixels in Spectrum: 3648
>>>>>Begin Spectral Data<<<<<
177.566	136.68
177.785	442.76
178.005	-257.95
178.225	-332.08
178.445	73.58
178.665	94.51
178.885	407.08
179.105	68.05
179.324	146.05
179.544	102.07
179.764	117.85
179.984	102.8
180.204	74.36
180.423	188.85
180.643	119.1
180.863	89.52
181.083	92.7
181.302	100.22
181.522	81.24
181.742	82.01
181.961	107.86
182.181	91.3
182.401	90.19
182.621	109.53
182.84	68.34
183.06	63.62
183.279	60.04
183.499	74.11
183.719	58.97
183.938	72.38
184.158	80.75
184.377	58.45
184.597	84.75
184.816	99.44
185.036	87.26
185.256	94.88
185.475	103.08
185.695	122.44
185.914	94.25
186.134	139.12
186.353	113.71
186.572	43.91
186.792	24.17
187.011	13.46
187.231	17.49
187.45	-28.36
187.67	-9.31
187.889	29.85
188.108	39.25
188.328	41.25
188.547	30.74
188.766	23.97
188.986	21.25
189.205	21.76
189.424	7.21
189.644	-27.64
189.863	-2.65
190.082	9.98
190.302	-0.84
190.521	-7.52
190.74	6.17
190.959	24.2
191.178	37.3
191.398	30.71
191.617	49.72
191.836	63.28
192.055	73.46
192.274	74.3
192.494	71.3
192.713	79.51
192.932	88.48
193.151	76.18
193.37	53.15
193.589	70.08
193.808	101.15
194.027	91.19
194.246	65.08
194.465	57.62
194.685	44.04
194.904	41.99
195.123	23.11
195.342	3
195.561	11.23
195.78	16.88
195.999	0.18
196.218	-9.26
196.436	-7.18
196.655	-23.96
196.874	-46.13
197.093	-26.57
197.312	7.18
197.531	19.55
197.75	28.3
197.969	25.36
198.188	9.38
198.407	-8.9
198.625	5.73
198.844	21.98
199.063	17.39
199.282	14.93
199.501	18.96
199.719	-40.78
199.938	-0.78
200.157	-28.36
200.376	8.26
200.594	79
200.813	79.2
201.032	88.84
201.251	90.89
201.469	80.19
201.688	94.38
201.907	69.83
202.125	67.81
202.344	42.88
202.563	53.4
202.781	44.37
203	35.78
203.218	21.2
203.437	15.62
203.656	27.65
203.874	40.49
204.093	36.71
204.311	42.2
204.53	44.93
204.748	46
204.967	49.39
205.185	49.97
205.404	48.26
205.622	59.35
205.841	66.47
206.059	58.48
206.278	61.4
206.496	57.99
206.715	55.36
206.933	66.75
207.151	62.75
207.37	57.76
207.588	65.29
207.806	64.77
208.025	68.25
208.243	62.87
208.461	62.34
208.68	59.64
208.898	62.42
209.116	57.09
209.335	56.49
209.553	70.29
209.771	69.3
209.989	50.61
210.208	67.83
210.426	50.65
210.644	61.77
210.862	79.72
211.081	80.53
211.299	80.65
211.517	81.13
211.735	56.41
211.953	65.18
212.171	67.86
212.39	89.06
212.608	65.55
212.826	58.88
213.044	68.95
213.262	40.43
213.48	28.37
213.698	40.57
213.916	18.29
214.134	49
214.352	36.02
214.57	25.58
214.788	20.7
215.006	24.5
215.224	55.68
215.442	35.63
215.66	80.93
215.878	69.52
216.096	65.45
216.314	93.93
216.532	101.62
216.75	105.82
216.968	124.5
217.185	93
217.403	87.01
217.621	73.96
217.839	71.36
218.057	63.38
218.275	71.24
218.492	66.77
218.71	59.12
218.928	53.85
219.146	38.76
219.363	14.59
219.581	0.51
219.799	-4.95
220.017	18.14
220.234	-1.7
220.452	18.43
220.67	32.7
220.887	24.02
221.105	12.28
221.323	-13.47
221.54	7.03
221.758	31.54
221.976	38.09
222.193	40.73
222.411	38.22
222.629	38.29
222.846	32.98
223.064	26.18
223.281	42.15
223.499	65.04
223.716	60.52
223.934	50.6
224.151	39.61
224.369	40.59
224.586	38.06
224.804	26.2
225.021	29.1
225.239	37.98
225.456	24.33
225.674	20.97
225.891	9.89
226.108	18.06
226.326	22.51
226.543	31.87
226.76	28.94
226.978	19.29
227.195	30.11
227.413	24.32
227.63	22.37
227.847	24.65
228.064	17.39
228.282	16.2
228.499	15.18
228.716	14.25
228.934	13.67
229.151	10.43
229.368	11.46
229.585	9.86
229.802	9.72
230.02	8.01
230.237	5.89
230.454	9.29
230.671	8.7
230.888	5.72
231.105	7.28
231.323	11.73
231.54	17.44
231.757	14.83
231.974	15.57
232.191	15.98
232.408	15.78
232.625	15.89
232.842	15.28
233.059	11.88
233.276	18.1
233.493	17.9
233.71	15.74
233.927	13.17
234.144	15.59
234.361	15.38
234.578	18.06
234.795	19.75
235.012	23.17
235.229	20.89
235.446	27.61
235.663	22.96
235.879	23.5
236.096	16.27
236.313	19.47
236.53	24.19
236.747	26.95
236.964	24.98
237.181	27.2
237.397	20.21
237.614	20.36
237.831	13.93
238.048	15.72
238.264	12.1
238.481	18.37
238.698	16.44
238.915	15.04
239.131	13.27
239.348	12.52
239.565	7.31
239.781	10.94
239.998	16.87
240.215	20.36
240.431	22.5
240.648	25.5
240.865	20.48
241.081	21.95
241.298	20.58
241.514	16.52
241.731	18.78
241.947	18.1
242.164	16.95
242.38	15.12
242.597	13.84
242.814	13.72
243.03	11.89
243.246	14.43
243.463	13.22
243.679	13.5
243.896	16.57
244.112	16
244.329	19.23
244.545	19.37
244.762	17.7
244.978	17.72
245.194	17.38
245.411	16.55
245.627	14.35
245.843	14.06
246.06	13.58
246.276	12.97
246.492	11.04
246.709	9.21
246.925	9.53
247.141	9.67
247.357	8.77
247.574	8.78
247.79	8.97
248.006	9.23
248.222	9.84
248.439	9.9
248.655	9.42
248.871	8.91
249.087	8.64
249.303	9.44
249.519	9.03
249.736	9.13
249.952	9.23
250.168	10.66
250.384	11.05
250.6	9.74
250.816	9.94
251.032	8.96
251.248	11.92
251.464	11.65
251.68	11.94
251.896	12.58
252.112	13.55
252.328	10.82
252.544	9.74
252.76	8.71
252.976	8.4
253.192	8.27
253.408	9.67
253.624	10.42
253.84	13.01
254.056	11.83
254.272	15.08
254.487	16.49
254.703	20.19
254.919	20.15
255.135	20.18
255.351	21.08
255.567	22.88
255.782	21.16
255.998	16.92
256.214	15.14
256.43	15.92
256.646	13.92
256.861	12.69
257.077	9.28
257.293	8.01
257.508	8.46
257.724	9.2
257.94	10.41
258.155	10.62
258.371	11.19
258.587	12
258.802	10.93
259.018	10.69
259.234	9.84
259.449	11.26
259.665	11.21
259.88	11.1
260.096	10.12
260.312	7.98
260.527	7.88
260.743	8.18
260.958	7.42
261.174	7.46
261.389	6.87
261.605	7.68
261.82	7.68
262.036	8.56
262.251	9.27
262.466	10.7
262.682	12.69
262.897	13.43
263.113	12.3
263.328	14.09
263.543	13.94
263.759	12.74
263.974	12.78
264.189	11.69
264.405	10.42
264.62	9.51
264.835	8.96
265.051	8.46
265.266	7.86
265.481	8.9
265.696	7.86
265.912	7.93
266.127	10.68
266.342	9.61
266.557	9.26
266.773	9.12
266.988	9.58
267.203	7.43
267.418	7.88
267.633	8.91
267.848	8.9
268.064	6.63
268.279	7.28
268.494	5.37
268.709	6.8
268.924	8.23
269.139	9.1
269.354	9.4
269.569	10.34
269.784	10.61
269.999	8.44
270.214	9.14
270.429	11.02
270.644	11.38
270.859	12.19
271.074	11.63
271.289	11.3
271.504	10.81
271.719	10.15
271.934	9.32
272.149	8.79
272.363	10.94
272.578	10.84
272.793	11.75
273.008	11.17
273.223	10.22
273.438	9.41
273.653	9.62
273.867	9.54
274.082	9.56
274.297	9.66
274.512	10.39
274.726	7.79
274.941	7.83
275.156	7.06
275.371	7.17
275.585	8.15
275.8	9.03
276.015	8.54
276.229	7.78
276.444	7.91
276.659	8.96
276.873	8.75
277.088	10.87
277.302	10.39
277.517	11.03
277.732	10.42
277.946	9.75
278.161	10.36
278.375	9.82
278.59	10.76
278.804	10.15
279.019	10.8
279.233	10.22
279.448	9.12
279.662	10.11
279.877	8.69
280.091	9.3
280.306	11.51
280.52	9.49
280.735	10.21
280.949	10.31
281.163	10.49
281.378	9.46
281.592	8.82
281.806	9.54
282.021	7.67
282.235	8.33
282.449	7.47
282.664	6.23
282.878	6.46
283.092	6.27
283.307	7.3
283.521	7.32
283.735	8.47
283.949	9.1
284.164	8.7
284.378	8.83
284.592	8.54
284.806	9.69
285.02	9.64
285.234	10.58
285.449	10.78
285.663	9.34
285.877	9.54
286.091	9.13
286.305	8.72
286.519	8.13
286.733	8.37
286.947	8.77
287.161	8.48
287.375	8.32
287.589	8.6
287.803	8.26
288.017	7.9
288.231	8.38
288.445	7.95
288.659	8.53
288.873	9.2
289.087	9.19
289.301	9.03
289.515	9.9
289.729	9.87
289.943	9.36
290.157	10.32
290.371	11.23
290.584	12.28
290.798	12.58
291.012	12.67
291.226	13.29
291.44	13.49
291.654	13.64
291.867	13.25
292.081	13.17
292.295	13.43
292.509	12.77
292.722	12.97
292.936	11.27
293.15	11.76
293.364	11.48
293.577	11.28
293.791	12.81
294.005	11.84
294.218	12.01
294.432	13.1
294.645	11.77
294.859	10.76
295.073	9.98
295.286	10.52
295.5	10.31
295.713	10.2
295.927	9.61
296.14	9.23
296.354	9.82
296.568	9.11
296.781	8.16
296.994	9.6
297.208	10.83
297.421	10.68
297.635	10.51
297.848	10.42
298.062	10.24
298.275	10.65
298.489	10.91
298.702	10.88
298.915	10.86
299.129	12.6
299.342	12.18
299.555	11.82
299.769	13.39
299.982	12.27
300.195	12.51
300.409	13.62
300.622	14.39
300.835	12.78
301.048	12.12
301.262	12.32
301.475	11.13
301.688	11.94
301.901	11.27
302.115	10.47
302.328	12.03
302.541	12.09
302.754	10.99
302.967	10.73
303.18	12.25
303.393	13.23
303.607	13.71
303.82	13.89
304.033	12.66
304.246	12.06
304.459	11.39
304.672	11.34
304.885	12.92
305.098	13.12
305.311	12.62
305.524	11.34
305.737	11.82
305.95	11.82
306.163	12.6
306.376	13.24
306.589	14.62
306.802	15.36
307.015	14.96
307.228	13.43
307.44	14.4
307.653	15.43
307.866	15.91
308.079	14.65
308.292	14.81
308.505	14.75
308.718	14.85
308.93	14.83
309.143	13.99
309.356	14.3
309.569	14.34
309.781	13.35
309.994	12.81
310.207	12.58
310.42	13.26
310.632	14.2
310.845	13.61
311.058	13.78
311.27	14.19
311.483	14.67
311.696	14.68
311.908	15.26
312.121	16.01
312.333	15.43
312.546	15.57
312.759	15.4
312.971	14.22
313.184	14.28
313.396	13.72
313.609	13.39
313.821	12.99
314.034	12.72
314.246	11.99
314.459	12.47
314.671	13.13
314.884	13.89
315.096	14.74
315.309	13.59
315.521	14.04
315.733	14.88
315.946	14.18
316.158	14.24
316.371	15.64
316.583	15.43
316.795	14.38
317.008	14.71
317.22	14.58
317.432	14.14
317.644	16.53
317.857	16.58
318.069	14.96
318.281	14.44
318.494	14.47
318.706	13.97
318.918	13.9
319.13	15.35
319.342	15.04
319.555	14.57
319.767	13.8
319.979	12.66
320.191	11.85
320.403	13.97
320.615	14.02
320.827	14.85
321.039	14.1
321.252	15.09
321.464	14.77
321.676	14.76
321.888	15.21
322.1	15.6
322.312	15.29
322.524	16.63
322.736	15.2
322.948	16.64
323.16	15.41
323.372	15.8
323.584	15.63
323.796	15.67
324.007	15.54
324.219	16.56
324.431	16.45
324.643	17.3
324.855	16.94
325.067	17.59
325.279	17.48
325.491	19.48
325.702	18.83
325.914	18.7
326.126	18.62
326.338	18.25
326.55	17.42
326.761	17.94
326.973	17.87
327.185	18.36
327.396	18.65
327.608	18.43
327.82	19.48
328.032	20.58
328.243	21.06
328.455	21.79
328.666	23.46
328.878	24.04
329.09	23.81
329.301	23.31
329.513	22.26
329.725	21.88
329.936	22.91
330.148	21.78
330.359	22.1
330.571	22.7
330.782	23.24
330.994	22.73
331.205	23.26
331.417	24.18
331.628	24.83
331.84	25.59
332.051	27.79
332.262	27.46
332.474	28.13
332.685	28.18
332.897	28.41
333.108	28.95
333.319	30.45
333.531	30.62
333.742	30.85
333.953	30.97
334.165	31
334.376	30.52
334.587	30.74
334.799	30.75
335.01	31.11
335.221	31.6
335.432	30.9
335.644	30.17
335.855	30.31
336.066	30.43
336.277	31.27
336.488	31.95
336.7	31.95
336.911	32
337.122	31.7
337.333	31.07
337.544	31.16
337.755	30.84
337.966	30.71
338.177	30.4
338.388	29.83
338.599	29.92
338.811	29.26
339.022	28.2
339.233	28.46
339.444	28.17
339.655	29.41
339.866	29.02
340.076	28.98
340.287	29.52
340.498	29.87
340.709	30.1
340.92	29.58
341.131	30.05
341.342	30.62
341.553	30.95
341.764	31.34
341.975	30.21
342.185	29.81
342.396	30.44
342.607	30.31
342.818	30.23
343.029	30.49
343.239	31.33
343.45	30.95
343.661	31.24
343.872	30.36
344.082	30.18
344.293	30.5
344.504	31.04
344.714	30.73
344.925	30.46
345.136	30.12
345.346	30.91
345.557	30.01
345.768	29.81
345.978	30.38
346.189	30.58
346.399	30.53
346.61	30.54
346.821	30.68
347.031	30.82
347.242	31.09
347.452	31.53
347.663	31.11
347.873	31.52
348.084	32.11
348.294	31.09
348.504	31.15
348.715	31.5
348.925	31.64
349.136	30.81
349.346	30.63
349.557	30.83
349.767	30.58
349.977	30.12
350.188	29.14
350.398	27.85
350.608	28.35
350.819	28.89
351.029	28.15
351.239	27.66
351.449	28.14
351.66	27.3
351.87	27.14
352.08	27.66
352.29	28.32
352.501	29.65
352.711	30.87
352.921	30.3
353.131	30.39
353.341	30.51
353.552	30.94
353.762	30.14
353.972	30.9
354.182	30.4
354.392	30.21
354.602	29.76
354.812	29.31
355.022	29.22
355.232	29.51
355.442	28.88
355.652	28.96
355.862	29.4
356.072	29.34
356.282	29.08
356.492	29
356.702	28.73
356.912	28.71
357.122	28.54
357.332	28.53
357.542	28.9
357.752	28.77
357.962	28.4
358.171	27.75
358.381	28.25
358.591	28.16
358.801	28.25
359.011	27.84
359.221	27.56
359.43	27.47
359.64	26.6
359.85	26.06
360.06	25.94
360.269	26.74
360.479	26.45
360.689	26.48
360.899	26.56
361.108	27.06
361.318	27.45
361.528	27.53
361.737	27.32
361.947	27.35
362.156	27.12
362.366	27.46
362.576	27.1
362.785	27.54
362.995	27.27
363.204	27.63
363.414	27.13
363.623	26.92
363.833	26.86
364.042	27.34
364.252	28.02
364.461	28.3
364.671	28.33
364.88	28.35
365.09	27.87
365.299	28.07
365.509	27.82
365.718	28.3
365.927	28.27
366.137	27.65
366.346	27.66
366.555	27.65
366.765	27.17
366.974	26.57
367.183	26.58
367.393	26.42
367.602	26.11
367.811	26.01
368.021	25.25
368.23	25.17
368.439	25.94
368.648	25.42
368.857	24.83
369.067	24.96
369.276	25.44
369.485	25.25
369.694	25.64
369.903	25.72
370.112	25.47
370.321	25.57
370.531	25.3
370.74	24.83
370.949	24.8
371.158	25.28
371.367	25.23
371.576	24.59
371.785	24.29
371.994	24.2
372.203	23.92
372.412	23.97
372.621	23.68
372.83	23.32
373.039	23.13
373.248	22.64
373.457	21.95
373.666	22.14
373.874	22.23
374.083	21.84
374.292	21.3
374.501	21.33
374.71	20.71
374.919	20.8
375.128	20.89
375.336	21.06
375.545	21.04
375.754	20.97
375.963	20.42
376.171	20.22
376.38	20.09
376.589	20.06
376.798	19.67
377.006	19.97
377.215	20.04
377.424	20.57
377.632	20.19
377.841	20.4
378.05	20.79
378.258	20.75
378.467	20.59
378.675	21.28
378.884	21.32
379.093	21.34
379.301	20.95
379.51	20.71
379.718	20.18
379.927	20.11
380.135	19.69
380.344	19
380.552	19.45
380.761	19.17
380.969	18.13
381.177	18.04
381.386	17.89
381.594	17.69
381.803	17.51
382.011	17.24
382.219	17.38
382.428	17.9
382.636	18.17
382.845	17.8
383.053	17.93
383.261	17.92
383.469	17.92
383.678	17.92
383.886	17.69
384.094	17.43
384.302	18.13
384.511	17.48
384.719	16.91
384.927	16.8
385.135	16.73
385.343	17.13
385.552	17.95
385.76	17.99
385.968	18.06
386.176	18.33
386.384	18.38
386.592	17.78
386.8	18.3
387.008	18.27
387.216	18.23
387.424	18.19
387.633	17.52
387.841	17.15
388.049	16.36
388.257	15.9
388.465	15.52
388.672	15.76
388.88	15.9
389.088	15.55
389.296	15.48
389.504	15.25
389.712	14.89
389.92	15.29
390.128	14.91
390.336	15.46
390.544	15.53
390.751	15.61
390.959	15.25
391.167	15.04
391.375	15.08
391.583	15.06
391.79	14.87
391.998	14.86
392.206	14.7
392.414	14.83
392.621	14.39
392.829	14.62
393.037	14.69
393.244	14.73
393.452	14.66
393.66	14.56
393.867	14.41
394.075	14.71
394.283	14.57
394.49	14.59
394.698	14.22
394.905	14.87
395.113	14.56
395.32	14.65
395.528	14.56
395.735	14.5
395.943	14.54
396.15	14.8
396.358	14.54
396.565	14.61
396.773	14.31
396.98	14.37
397.188	13.69
397.395	13.66
397.602	13.38
397.81	13.41
398.017	13.15
398.225	12.82
398.432	12.95
398.639	12.86
398.847	12.88
399.054	12.95
399.261	12.86
399.468	13.01
399.676	12.88
399.883	12.88
400.09	12.71
400.297	12.75
400.505	12.57
400.712	12.17
400.919	12.04
401.126	11.84
401.333	11.78
401.54	11.5
401.748	11.24
401.955	11.58
402.162	11.58
402.369	11.77
402.576	11.6
402.783	12.1
402.99	11.75
403.197	11.72
403.404	11.83
403.611	11.89
403.818	11.88
404.025	12.21
404.232	11.95
404.439	12.01
404.646	11.72
404.853	11.72
405.06	11.37
405.267	11.54
405.474	11.38
405.681	11.48
405.887	11.51
406.094	12.02
406.301	11.8
406.508	11.73
406.715	11.72
406.922	11.81
407.128	12.16
407.335	11.99
407.542	11.94
407.749	12.17
407.955	12.07
408.162	11.84
408.369	11.4
408.575	11.45
408.782	11.7
408.989	11.58
409.195	11.42
409.402	10.96
409.609	11.25
409.815	11.14
410.022	11.1
410.228	10.88
410.435	11.06
410.642	10.99
410.848	10.84
411.055	10.86
411.261	10.85
411.468	10.73
411.674	10.92
411.881	10.73
412.087	11
412.294	11.19
412.5	11.21
412.706	10.93
412.913	11.05
413.119	11.02
413.326	10.77
413.532	10.67
413.738	11.2
413.945	11
414.151	11.23
414.357	11.02
414.564	10.76
414.77	10.82
414.976	10.88
415.182	10.75
415.389	10.82
415.595	10.87
415.801	10.79
416.007	10.57
416.214	10.23
416.42	10.22
416.626	10.21
416.832	10.28
417.038	10.41
417.244	10.4
417.45	10.49
417.657	10.5
417.863	10.47
418.069	10.44
418.275	10.43
418.481	10.76
418.687	10.7
418.893	10.75
419.099	10.9
419.305	10.66
419.511	10.8
419.717	10.9
419.923	10.72
420.129	10.6
420.335	10.64
420.541	10.61
420.746	10.54
420.952	10.46
421.158	10.35
421.364	10.04
421.57	10.02
421.776	9.96
421.982	9.78
422.187	9.79
422.393	9.87
422.599	9.79
422.805	9.73
423.01	9.7
423.216	9.55
423.422	9.58
423.628	9.73
423.833	9.73
424.039	9.62
424.245	9.69
424.45	9.65
424.656	9.63
424.862	9.72
425.067	9.83
425.273	9.88
425.478	9.98
425.684	9.87
425.889	9.82
426.095	9.89
426.301	9.8
426.506	9.75
426.712	9.74
426.917	9.65
427.123	9.41
427.328	9.18
427.533	8.99
427.739	8.99
427.944	9.15
428.15	9.18
428.355	9.01
428.561	9.03
428.766	9.11
428.971	9.32
429.177	9.57
429.382	9.83
429.587	9.71
429.793	9.71
429.998	9.71
430.203	9.66
430.408	9.64
430.614	9.82
430.819	9.8
431.024	9.79
431.229	9.89
431.434	9.52
431.64	9.44
431.845	9.64
432.05	9.86
432.255	9.79
432.46	9.83
432.665	9.56
432.87	9.56
433.076	9.83
433.281	9.66
433.486	9.52
433.691	9.66
433.896	9.61
434.101	9.51
434.306	9.36
434.511	9.28
434.716	9.22
434.921	9.54
435.126	9.52
435.331	9.21
435.535	9.25
435.74	9.2
435.945	9.01
436.15	9.2
436.355	9.42
436.56	9.49
436.765	9.44
436.97	9.57
437.174	9.5
437.379	9.38
437.584	9.45
437.789	9.4
437.993	9.45
438.198	9.61
438.403	9.53
438.608	9.33
438.812	9.35
439.017	9.6
439.222	9.7
439.426	9.63
439.631	9.63
439.836	9.75
440.04	9.58
440.245	9.52
440.45	9.41
440.654	9.45
440.859	9.56
441.063	9.48
441.268	9.36
441.472	9.28
441.677	9.28
441.881	9.29
442.086	9.24
442.29	9.41
442.495	9.5
442.699	9.66
442.904	9.5
443.108	9.44
443.312	9.39
443.517	9.42
443.721	9.32
443.925	9.23
444.13	9.3
444.334	9.24
444.538	9.27
444.743	9.15
444.947	9.05
445.151	9.02
445.356	8.97
445.56	8.9
445.764	8.91
445.968	8.9
446.173	9
446.377	8.93
446.581	8.89
446.785	8.9
446.989	8.82
447.193	8.81
447.398	8.86
447.602	8.76
447.806	8.86
448.01	8.89
448.214	8.82
448.418	8.81
448.622	8.72
448.826	8.64
449.03	8.54
449.234	8.68
449.438	8.67
449.642	8.59
449.846	8.76
450.05	8.81
450.254	8.77
450.458	8.73
450.662	8.75
450.866	8.91
451.069	9
451.273	8.89
451.477	8.71
451.681	8.8
451.885	8.81
452.089	8.69
452.292	8.61
452.496	8.65
452.7	8.78
452.904	8.68
453.107	8.66
453.311	8.52
453.515	8.73
453.719	8.94
453.922	8.83
454.126	8.98
454.33	8.96
454.533	9.03
454.737	9.01
454.94	9.05
455.144	9.07
455.348	9.02
455.551	9.24
455.755	9.17
455.958	9.35
456.162	9.29
456.365	9.16
456.569	9.31
456.772	9.21
456.976	9.15
457.179	9.13
457.383	9.1
457.586	8.99
457.79	8.8
457.993	8.74
458.196	8.5
458.4	8.59
458.603	8.64
458.807	8.62
459.01	8.66
459.213	8.63
459.417	8.65
459.62	8.69
459.823	8.73
460.026	8.89
460.23	8.8
460.433	8.83
460.636	8.89
460.839	8.83
461.042	8.84
461.246	8.82
461.449	8.76
461.652	8.69
461.855	8.56
462.058	8.66
462.261	8.56
462.464	8.57
462.668	8.53
462.871	8.44
463.074	8.37
463.277	8.3
463.48	8.39
463.683	8.68
463.886	8.64
464.089	8.88
464.292	8.95
464.495	8.91
464.698	9.1
464.901	8.98
465.104	8.98
465.306	9
465.509	9.12
465.712	9.13
465.915	8.99
466.118	9.09
466.321	8.97
466.524	8.94
466.726	8.87
466.929	8.89
467.132	8.98
467.335	8.99
467.538	9.06
467.74	9.13
467.943	9.05
468.146	9.09
468.348	9.23
468.551	9.08
468.754	9.11
468.956	9.24
469.159	9.06
469.362	9.07
469.564	9.19
469.767	9.16
469.969	9.15
470.172	8.99
470.375	8.79
470.577	8.72
470.78	8.84
470.982	9.1
471.185	9.3
471.387	9.46
471.59	9.5
471.792	9.27
471.995	9.2
472.197	9.18
472.399	9.12
472.602	9.22
472.804	9.18
473.007	9.23
473.209	8.81
473.411	8.6
473.614	8.59
473.816	8.46
474.018	8.64
474.22	8.69
474.423	8.52
474.625	8.75
474.827	8.94
475.03	8.89
475.232	8.78
475.434	8.89
475.636	8.74
475.838	8.61
476.04	8.62
476.243	8.42
476.445	8.57
476.647	8.73
476.849	8.77
477.051	8.68
477.253	8.8
477.455	8.96
477.657	8.88
477.859	9.02
478.061	9.28
478.263	9.31
478.465	9.45
478.667	9.27
478.869	9.29
479.071	9.37
479.273	9.3
479.475	9.13
479.677	9.02
479.879	9.11
480.081	9.05
480.283	8.87
480.485	9.04
480.686	8.79
480.888	8.93
481.09	8.92
481.292	8.9
481.494	9.02
481.695	9.04
481.897	8.97
482.099	8.9
482.301	8.9
482.502	8.87
482.704	8.74
482.906	8.75
483.107	8.69
483.309	8.55
483.511	8.5
483.712	8.47
483.914	8.45
484.115	8.49
484.317	8.47
484.519	8.46
484.72	8.46
484.922	8.46
485.123	8.52
485.325	8.51
485.526	8.6
485.728	8.62
485.929	8.54
486.131	8.62
486.332	8.63
486.534	8.66
486.735	8.65
486.936	8.69
487.138	8.72
487.339	8.63
487.541	8.62
487.742	8.62
487.943	8.62
488.144	8.61
488.346	8.55
488.547	8.52
488.748	8.51
488.95	8.5
489.151	8.43
489.352	8.4
489.553	8.49
489.755	8.48
489.956	8.44
490.157	8.42
490.358	8.51
490.559	8.48
490.76	8.5
490.961	8.47
491.163	8.51
491.364	8.6
491.565	8.64
491.766	8.66
491.967	8.73
492.168	8.68
492.369	8.69
492.57	8.61
492.771	8.64
492.972	8.67
493.173	8.59
493.374	8.58
493.575	8.55
493.776	8.45
493.976	8.46
494.177	8.43
494.378	8.61
494.579	8.63
494.78	8.76
494.981	8.76
495.182	8.79
495.382	9.1
495.583	9.19
495.784	9.29
495.985	9.38
496.185	9.4
496.386	9.36
496.587	9.21
496.788	9.26
496.988	9.18
497.189	9.21
497.39	9.33
497.59	9.33
497.791	9.36
497.992	9.31
498.192	9.36
498.393	9.26
498.593	9.38
498.794	9.39
498.994	9.42
499.195	9.55
499.395	9.58
499.596	9.55
499.796	9.39
499.997	9.56
500.197	9.69
500.398	9.7
500.598	9.77
500.799	9.7
500.999	9.77
501.199	9.8
501.4	9.82
501.6	9.91
501.801	9.9
502.001	10.08
502.201	10.01
502.402	9.77
502.602	9.8
502.802	9.94
503.002	10.06
503.203	10.07
503.403	9.99
503.603	10.16
503.803	10.31
504.003	10.34
504.204	10.38
504.404	10.4
504.604	10.5
504.804	10.73
505.004	10.88
505.204	10.95
505.404	11.01
505.604	11.05
505.804	11
506.005	10.94
506.205	10.93
506.405	11.03
506.605	10.96
506.805	11.15
507.005	11.04
507.204	11
507.404	11.08
507.604	11.3
507.804	11.61
508.004	11.7
508.204	11.67
508.404	11.76
508.604	11.83
508.804	11.97
509.003	12.12
509.203	12.17
509.403	12.17
509.603	12.25
509.803	12.16
510.002	12.19
510.202	12.26
510.402	12.47
510.602	12.68
510.801	12.69
511.001	12.79
511.201	12.64
511.4	12.82
511.6	13.05
511.8	13.13
511.999	13.36
512.199	13.38
512.398	13.44
512.598	13.58
512.797	13.49
512.997	13.68
513.197	13.76
513.396	13.95
513.596	13.97
513.795	14.07
513.994	14.15
514.194	14.12
514.393	14.16
514.593	14.33
514.792	14.36
514.992	14.65
515.191	14.61
515.39	14.67
515.59	14.79
515.789	14.96
515.988	14.84
516.188	14.94
516.387	15.14
516.586	15.44
516.786	15.52
516.985	15.57
517.184	15.55
517.383	15.64
517.582	15.83
517.782	15.93
517.981	16.01
518.18	16.21
518.379	16.3
518.578	16.45
518.777	16.45
518.976	16.49
519.176	16.53
519.375	16.73
519.574	16.92
519.773	17.09
519.972	17.18
520.171	17.24
520.37	17.38
520.569	17.43
520.768	17.43
520.967	17.64
521.166	17.79
521.365	18.12
521.564	18.27
521.762	18.26
521.961	18.37
522.16	18.51
522.359	18.56
522.558	18.61
522.757	18.73
522.956	18.96
523.154	18.98
523.353	19.09
523.552	19.25
523.751	19.27
523.949	19.59
524.148	19.55
524.347	19.79
524.546	20.12
524.744	20.34
524.943	20.5
525.142	20.5
525.34	20.57
525.539	20.83
525.737	20.83
525.936	21.02
526.135	21.13
526.333	21.31
526.532	21.28
526.73	21.4
526.929	21.46
527.127	21.54
527.326	21.75
527.524	22
527.723	22.13
527.921	22.28
528.12	22.38
528.318	22.42
528.516	22.48
528.715	22.64
528.913	22.67
529.112	22.77
529.31	22.79
529.508	22.8
529.707	22.85
529.905	22.85
530.103	22.82
530.301	22.8
530.5	22.9
530.698	23.1
530.896	23.24
531.094	23.38
531.293	23.48
531.491	23.84
531.689	24.09
531.887	24.09
532.085	24.36
532.283	24.49
532.481	24.66
532.68	24.75
532.878	24.72
533.076	24.78
533.274	24.86
533.472	24.95
533.67	25.06
533.868	25.06
534.066	25.14
534.264	25.11
534.462	25.28
534.66	25.46
534.858	25.57
535.056	25.77
535.253	25.8
535.451	25.89
535.649	25.97
535.847	26.06
536.045	26.28
536.243	26.42
536.441	26.56
536.638	26.61
536.836	26.54
537.034	26.59
537.232	26.61
537.43	26.74
537.627	26.85
537.825	27.02
538.023	26.9
538.22	26.92
538.418	27.07
538.616	26.91
538.813	27.16
539.011	27.41
539.209	27.64
539.406	27.63
539.604	27.71
539.801	27.9
539.999	28.01
540.196	28.25
540.394	28.31
540.591	28.28
540.789	28.51
540.986	28.39
541.184	28.34
541.381	28.37
541.579	28.43
541.776	28.35
541.974	28.3
542.171	28.29
542.368	28.32
542.566	28.38
542.763	28.42
542.96	28.39
543.158	28.57
543.355	28.71
543.552	28.74
543.75	28.93
543.947	29.01
544.144	29.02
544.341	29.07
544.539	29.13
544.736	29.13
544.933	29.29
545.13	29.48
545.327	29.58
545.524	29.47
545.722	29.48
545.919	29.42
546.116	29.66
546.313	29.85
546.51	29.85
546.707	30.03
546.904	30.16
547.101	30.16
547.298	30.21
547.495	30.1
547.692	30.25
547.889	30.21
548.086	30.32
548.283	30.36
548.48	30.43
548.677	30.62
548.874	30.34
549.07	30.42
549.267	30.5
549.464	30.53
549.661	30.78
549.858	31.02
550.055	31.28
550.251	31.4
550.448	31.31
550.645	31.42
550.842	31.35
551.038	31.67
551.235	31.85
551.432	32.03
551.628	32.16
551.825	31.97
552.022	31.88
552.218	31.73
552.415	31.75
552.612	31.98
552.808	31.93
553.005	31.98
553.201	32.05
553.398	31.9
553.594	31.89
553.791	31.87
553.987	31.84
554.184	31.81
554.38	31.99
554.577	32.04
554.773	32.12
554.97	32.14
555.166	32.21
555.362	32.07
555.559	32.2
555.755	31.99
555.952	31.98
556.148	32.39
556.344	32.66
556.541	32.69
556.737	32.59
556.933	32.63
557.129	32.95
557.326	33.05
557.522	33.27
557.718	33.05
557.914	33.36
558.11	33.47
558.307	33.25
558.503	33.08
558.699	33.26
558.895	33.22
559.091	33.27
559.287	33.24
559.483	33.12
559.679	33.2
559.876	33.59
560.072	33.69
560.268	33.67
560.464	34.07
560.66	34.16
560.856	34.11
561.052	34.33
561.247	34.26
561.443	34.32
561.639	34.63
561.835	34.46
562.031	34.24
562.227	33.96
562.423	33.92
562.619	33.43
562.815	33.25
563.01	33.34
563.206	33.3
563.402	33.28
563.598	33.14
563.793	32.8
563.989	32.78
564.185	32.82
564.381	33.24
564.576	33.4
564.772	33.53
564.968	33.69
565.163	33.54
565.359	33.57
565.555	33.74
565.75	33.61
565.946	33.75
566.141	33.96
566.337	33.9
566.532	33.9
566.728	33.74
566.923	33.92
567.119	34.03
567.314	34.19
567.51	34.23
567.705	34.16
567.901	34.37
568.096	34.45
568.292	34.4
568.487	34.55
568.682	34.6
568.878	34.87
569.073	34.82
569.268	34.63
569.464	34.63
569.659	34.67
569.854	34.56
570.05	34.63
570.245	34.74
570.44	34.73
570.635	34.73
570.831	34.69
571.026	34.79
571.221	34.76
571.416	34.8
571.611	34.73
571.806	34.77
572.002	34.77
572.197	34.6
572.392	34.77
572.587	34.82
572.782	34.83
572.977	34.75
573.172	34.51
573.367	34.45
573.562	34.47
573.757	34.5
573.952	34.34
574.147	34.59
574.342	34.71
574.537	34.56
574.732	34.6
574.927	34.69
575.121	34.9
575.316	34.94
575.511	35.12
575.706	35.27
575.901	35.33
576.096	35.44
576.29	35.47
576.485	35.54
576.68	35.44
576.875	35.4
577.069	35.28
577.264	35.07
577.459	35.31
577.654	35.2
577.848	35.37
578.043	35.46
578.238	35.63
578.432	35.42
578.627	35.17
578.821	35.29
579.016	35.5
579.21	35.71
579.405	35.59
579.6	35.34
579.794	35.43
579.989	35.42
580.183	35.04
580.378	35.13
580.572	34.91
580.766	35.38
580.961	35.54
581.155	35.26
581.35	35.31
581.544	35.42
581.738	35.49
581.933	35.66
582.127	35.75
582.321	35.83
582.516	35.74
582.71	36.11
582.904	35.71
583.099	35.46
583.293	35.82
583.487	35.53
583.681	35.89
583.875	35.96
584.07	35.97
584.264	35.99
584.458	36.1
584.652	36.01
584.846	35.97
585.04	36.23
585.234	36.17
585.428	35.93
585.623	36.34
585.817	36.09
586.011	36.1
586.205	36.08
586.399	36.04
586.593	36.1
586.787	36.18
586.981	36.28
587.174	36.35
587.368	36.61
587.562	36.69
587.756	36.66
587.95	36.81
588.144	37.15
588.338	36.93
588.532	36.84
588.725	36.79
588.919	36.8
589.113	37.07
589.307	36.8
589.501	36.87
589.694	36.88
589.888	36.73
590.082	36.4
590.275	36.03
590.469	36.17
590.663	36.22
590.856	36.38
591.05	36.49
591.244	36.35
591.437	36.74
591.631	36.75
591.824	36.79
592.018	36.96
592.212	37.14
592.405	37.43
592.599	37.4
592.792	37.42
592.986	37.58
593.179	37.64
593.372	37.75
593.566	37.61
593.759	37.42
593.953	37.43
594.146	37.47
594.339	37.4
594.533	37.43
594.726	37.46
594.92	37.2
595.113	37
595.306	36.81
595.499	36.64
595.693	36.76
595.886	36.96
596.079	36.92
596.272	36.88
596.466	36.98
596.659	36.83
596.852	37.01
597.045	37.24
597.238	37.25
597.431	37.19
597.624	37.14
597.818	37.17
598.011	37.01
598.204	37.2
598.397	37.07
598.59	37.02
598.783	37.18
598.976	37.1
599.169	37.03
599.362	37.25
599.555	37.64
599.748	37.45
599.941	37.44
600.134	37.54
600.326	37.35
600.519	37.6
600.712	37.77
600.905	37.65
601.098	37.85
601.291	37.97
601.483	38.06
601.676	37.8
601.869	38.12
602.062	37.96
602.255	38.18
602.447	38.12
602.64	38.14
602.833	38.07
603.025	38.03
603.218	37.9
603.411	37.83
603.603	37.57
603.796	37.72
603.989	37.73
604.181	37.82
604.374	37.62
604.566	37.65
604.759	37.79
604.951	37.82
605.144	37.79
605.336	37.77
605.529	37.56
605.721	37.6
605.914	37.52
606.106	37.5
606.299	37.59
606.491	37.69
606.683	37.81
606.876	37.69
607.068	37.66
607.26	37.82
607.453	37.66
607.645	37.99
607.837	38.16
608.03	38.02
608.222	38.12
608.414	37.97
608.606	37.84
608.799	37.69
608.991	37.52
609.183	37.39
609.375	37.36
609.567	37.56
609.759	37.38
609.952	37.41
610.144	37.63
610.336	37.57
610.528	37.48
610.72	37.87
610.912	37.91
611.104	38.04
611.296	38.11
611.488	38.04
611.68	37.9
611.872	37.95
612.064	37.88
612.256	37.62
612.448	37.69
612.64	37.83
612.832	37.41
613.023	37.16
613.215	36.79
613.407	37.08
613.599	37.16
613.791	37.07
613.983	37.61
614.174	37.59
614.366	37.81
614.558	37.74
614.75	37.71
614.941	37.82
615.133	38.02
615.325	38.2
615.516	38.07
615.708	38.06
615.9	38.16
616.091	37.77
616.283	37.85
616.475	37.96
616.666	37.81
616.858	37.83
617.049	37.86
617.241	37.87
617.432	38.18
617.624	38.41
617.815	38.47
618.007	38.81
618.198	39.04
618.39	39.04
618.581	38.62
618.773	38.82
618.964	38.77
619.155	38.73
619.347	38.95
619.538	38.93
619.729	38.88
619.921	38.91
620.112	38.92
620.303	38.76
620.494	38.6
620.686	39.07
620.877	39.35
621.068	39.59
621.259	39.56
621.451	39.49
621.642	39.41
621.833	39.53
622.024	39.84
622.215	39.76
622.406	39.69
622.597	39.79
622.788	39.69
622.98	39.62
623.171	39.47
623.362	39.58
623.553	39.47
623.744	39.65
623.935	39.32
624.126	38.8
624.317	38.46
624.508	38.42
624.698	38.19
624.889	38.43
625.08	38.12
625.271	38.14
625.462	37.92
625.653	38.03
625.844	37.93
626.034	38.09
626.225	38.36
626.416	38.43
626.607	38.47
626.798	38.6
626.988	38.36
627.179	38.51
627.37	38.44
627.56	38.57
627.751	38.36
627.942	38.32
628.132	38.26
628.323	38.2
628.514	38.12
628.704	38.08
628.895	38.19
629.085	38.2
629.276	38.04
629.466	38.15
629.657	38.53
629.847	38.98
630.038	38.78
630.228	38.81
630.419	38.44
630.609	38.62
630.8	38.66
630.99	38.76
631.181	38.62
631.371	38.72
631.561	38.64
631.752	38.55
631.942	38.56
632.132	39.03
632.323	38.94
632.513	39.76
632.703	40.15
632.893	40.36
633.084	40
633.274	40.04
633.464	39.86
633.654	39.87
633.844	39.4
634.034	39.36
634.225	38.96
634.415	39.01
634.605	38.76
634.795	38.75
634.985	38.53
635.175	38.71
635.365	38.71
635.555	38.81
635.745	39
635.935	39.31
636.125	39.17
636.315	39.53
636.505	39.54
636.695	39.52
636.885	39.11
637.075	39.25
637.265	39.32
637.455	39.36
637.644	39.34
637.834	38.81
638.024	38.69
638.214	38.58
638.404	38.25
638.593	38.18
638.783	37.89
638.973	37.82
639.163	37.85
639.352	37.71
639.542	37.9
639.732	37.82
639.921	38.19
640.111	38.59
640.301	38.69
640.49	39.07
640.68	39.15
640.87	39.46
641.059	39.78
641.249	39.4
641.438	39.46
641.628	39.32
641.817	39.82
642.007	39.94
642.196	40.03
642.386	40.08
642.575	40.06
642.764	39.74
642.954	39.48
643.143	39.44
643.333	39.96
643.522	40.39
643.711	40.46
643.901	40.28
644.09	40.2
644.279	39.81
644.469	39.48
644.658	39.35
644.847	39.8
645.036	40.26
645.226	40.2
645.415	40.04
645.604	39.68
645.793	39.68
645.982	39.8
646.171	40.12
646.361	39.87
646.55	40.35
646.739	40.5
646.928	40.41
647.117	39.7
647.306	39.69
647.495	40.05
647.684	39.77
647.873	39.47
648.062	39.35
648.251	39.16
648.44	39.64
648.629	39.15
648.818	38.97
649.007	38.96
649.196	39.22
649.384	39.6
649.573	39.15
649.762	39.27
649.951	39.52
650.14	39.6
650.328	39.57
650.517	39.39
650.706	39.46
650.895	39.68
651.083	39.48
651.272	39.83
651.461	39.35
651.65	39.57
651.838	39.73
652.027	39.6
652.216	39.52
652.404	39.46
652.593	39.35
652.781	39.46
652.97	39.14
653.158	39.22
653.347	38.79
653.535	39.05
653.724	39.02
653.912	39.03
654.101	39.56
654.289	39.7
654.478	39.98
654.666	40
654.855	40.19
655.043	40.34
655.231	40.51
655.42	41.26
655.608	41.6
655.796	41.68
655.985	41.36
656.173	40.88
656.361	40.77
656.55	40.16
656.738	40.33
656.926	40.24
657.114	39.89
657.302	40
657.491	39.83
657.679	39.33
657.867	39.42
658.055	39.52
658.243	39.83
658.431	39.89
658.619	40.47
658.807	40.26
658.996	40.33
659.184	40.28
659.372	39.74
659.56	39.71
659.748	39.55
659.936	39.1
660.124	39.12
660.311	38.94
660.499	38.67
660.687	38.4
660.875	38.33
661.063	38
661.251	38.59
661.439	39.14
661.627	38.96
661.814	39.27
662.002	39.3
662.19	39.32
662.378	39.15
662.565	39.14
662.753	39.25
662.941	39.08
663.129	39.41
663.316	39.07
663.504	38.66
663.692	38.47
663.879	38.3
664.067	38.2
664.254	38.39
664.442	38.53
664.63	38.47
664.817	38.23
665.005	38.66
665.192	39.23
665.38	39.26
665.567	39.71
665.755	40.09
665.942	40.18
666.13	40.65
666.317	40.63
666.504	40.64
666.692	41.08
666.879	40.88
667.067	40.89
667.254	39.83
667.441	40.08
667.629	40.06
667.816	39.69
668.003	39.77
668.19	39.6
668.378	39.75
668.565	39.78
668.752	39.43
668.939	39.74
669.127	39.54
669.314	40.11
669.501	39.89
669.688	40.05
669.875	40.59
670.062	40.37
670.249	40.66
670.436	40.65
670.623	40.74
670.81	40.59
670.997	41.07
671.184	41.31
671.371	41.29
671.558	40.7
671.745	40.48
671.932	40.13
672.119	40.26
672.306	39.84
672.493	39.17
672.68	38.83
672.867	38.89
673.054	38.38
673.24	37.78
673.427	38.11
673.614	38.93
673.801	39.25
673.988	39.98
674.174	39.78
674.361	39.82
674.548	40.59
674.734	40.86
674.921	40.85
675.108	40.48
675.294	41.16
675.481	40.96
675.668	40.36
675.854	39.93
676.041	39.17
676.227	39.33
676.414	39.22
676.601	39.25
676.787	39.12
676.974	39.25
677.16	39.89
677.347	39.58
677.533	40.07
677.719	40.71
677.906	40.61
678.092	41.12
678.279	41.61
678.465	42.03
678.651	41.72
678.838	42.14
679.024	42.23
679.21	41.83
679.397	41.98
679.583	41.29
679.769	40.98
679.955	40.98
680.142	39.97
680.328	39.45
680.514	39.35
680.7	39.83
680.886	39.68
681.073	39.47
681.259	39.46
681.445	39.52
681.631	39.71
681.817	39.81
682.003	40.07
682.189	40.5
682.375	40.71
682.561	40.44
682.747	40.01
682.933	39.86
683.119	40.23
683.305	40.43
683.491	40.68
683.677	40.7
683.863	40.26
684.049	40.34
684.235	40.56
684.42	40.48
684.606	40.67
684.792	40.46
684.978	40.46
685.164	40.11
685.349	40.2
685.535	39.66
685.721	40
685.907	40.01
686.092	39.87
686.278	39.41
686.464	39.67
686.649	40.03
686.835	40.14
687.021	40.46
687.206	40.94
687.392	40.89
687.577	41.17
687.763	40.95
687.948	41.07
688.134	41.22
688.319	41.06
688.505	40.57
688.69	40.76
688.876	40.61
689.061	40.09
689.247	39.66
689.432	39.21
689.618	39.07
689.803	39
689.988	39.46
690.174	39.18
690.359	39.54
690.544	39.6
690.73	39.47
690.915	40.21
691.1	40.38
691.285	40.7
691.471	41.18
691.656	41.45
691.841	41.39
692.026	40.61
692.211	40.47
692.396	40.35
692.582	40.68
692.767	40.48
692.952	39.86
693.137	40.16
693.322	40.14
693.507	40.43
693.692	40.11
693.877	39.99
694.062	40.71
694.247	40.83
694.432	41.27
694.617	41.57
694.802	41.54
694.987	41.62
695.172	41.29
695.357	41.39
695.541	40.98
695.726	41.36
695.911	41.45
696.096	41.12
696.281	40.87
696.466	40.51
696.65	40.03
696.835	39.94
697.02	39.98
697.204	40.04
697.389	40.05
697.574	40.13
697.759	39.76
697.943	39.86
698.128	39.89
698.312	40
698.497	40.13
698.682	39.95
698.866	39.8
699.051	39.59
699.235	39.64
699.42	39.28
699.604	38.81
699.789	38.94
699.973	38.95
700.158	38.84
700.342	39.11
700.527	39.14
700.711	39.49
700.895	39.64
701.08	39.87
701.264	39.79
701.448	40.31
701.633	41.06
701.817	41.08
702.001	40.84
702.186	40.92
702.37	40.56
702.554	39.83
702.738	39.57
702.923	39.28
703.107	39.59
703.291	39.24
703.475	38.86
703.659	38.63
703.843	38.76
704.027	39.3
704.212	39.85
704.396	39.59
704.58	40.2
704.764	40.32
704.948	40.18
705.132	39.31
705.316	39.74
705.5	39.52
705.684	39.69
705.868	39.72
706.052	39.45
706.235	38.93
706.419	39.26
706.603	39.83
706.787	39.49
706.971	40.03
707.155	40.07
707.339	40.02
707.522	40.39
707.706	40.52
707.89	40.21
708.074	40.49
708.257	41.07
708.441	41.18
708.625	41.17
708.808	40.91
708.992	41.45
709.176	41.76
709.359	42.04
709.543	41.89
709.727	41.64
709.91	41.92
710.094	42.01
710.277	41.46
710.461	41.6
710.644	41.19
710.828	42.02
711.011	42.08
711.195	42.37
711.378	42.04
711.562	42.03
711.745	42.37
711.928	41.67
712.112	40.56
712.295	40.41
712.478	39.45
712.662	39.71
712.845	39.59
713.028	39.2
713.212	38.7
713.395	38.81
713.578	38.84
713.761	38.52
713.945	38.98
714.128	40.21
714.311	40.3
714.494	41.23
714.677	41.2
714.86	41.18
715.043	40.94
715.227	41.53
715.41	41.23
715.593	41.23
715.776	40.49
715.959	40.24
716.142	39.72
716.325	39.86
716.508	39.55
716.691	39.51
716.874	39.73
717.057	39.22
717.239	39.26
717.422	39.55
717.605	38.96
717.788	39.13
717.971	39.67
718.154	39.23
718.337	39.38
718.519	39.59
718.702	39.02
718.885	39.11
719.068	39.76
719.25	39.66
719.433	40.38
719.616	40.45
719.798	40.83
719.981	40.43
720.164	40.84
720.346	40.71
720.529	40.69
720.712	40.74
720.894	40.4
721.077	40.57
721.259	40.87
721.442	40.51
721.624	40.86
721.807	41.8
721.989	42.39
722.172	41.64
722.354	42.03
722.537	42.47
722.719	42.92
722.901	42.67
723.084	42.33
723.266	41.71
723.448	40.83
723.631	41.31
723.813	40.33
723.995	39.99
724.178	41.29
724.36	40.71
724.542	40.57
724.724	39.88
724.907	40.14
725.089	39.19
725.271	39.05
725.453	39.35
725.635	39.05
725.817	39.02
725.999	39.25
726.181	38.31
726.364	39.03
726.546	37.83
726.728	39.01
726.91	38.62
727.092	39.06
727.274	39.85
727.456	40.11
727.638	40.28
727.819	40.32
728.001	39.54
728.183	39.44
728.365	38.84
728.547	40.26
728.729	40.27
728.911	40.87
729.093	40.29
729.274	40.05
729.456	39.67
729.638	39.82
729.82	40.05
730.001	40.06
730.183	40.71
730.365	41
730.546	40.41
730.728	40.62
730.91	40
731.091	41.67
731.273	41.76
731.455	41.84
731.636	42.09
731.818	42.57
731.999	43.05
732.181	42.15
732.362	41.92
732.544	42.01
732.725	41.27
732.907	40.76
733.088	39.63
733.27	39.56
733.451	39.41
733.633	38.74
733.814	38.59
733.995	38.35
734.177	39.51
734.358	39.1
734.539	39.84
734.721	40.12
734.902	40.85
735.083	40.8
735.264	40.23
735.446	41.61
735.627	42.11
735.808	41.82
735.989	41.86
736.17	41.19
736.351	41.62
736.533	41.08
736.714	41.67
736.895	41.85
737.076	42.55
737.257	42.82
737.438	41.51
737.619	41.5
737.8	41.08
737.981	41.17
738.162	41.27
738.343	41.4
738.524	40.88
738.705	40.41
738.886	40.42
739.067	40.67
739.247	41.33
739.428	42.07
739.609	42.68
739.79	43.61
739.971	44.21
740.151	44.23
740.332	44.37
740.513	44.56
740.694	43.69
740.874	43.93
741.055	43.85
741.236	43.61
741.417	42.59
741.597	41.53
741.778	40.42
741.958	40.03
742.139	39.7
742.32	40.16
742.5	40.43
742.681	40.91
742.861	39.45
743.042	39.8
743.222	39.02
743.403	39.77
743.583	40.78
743.764	40.94
743.944	40.77
744.124	41.56
744.305	40.42
744.485	39.82
744.666	39.85
744.846	40.55
745.026	40.28
745.207	41.84
745.387	41.31
745.567	40.8
745.747	40.97
745.928	41.13
746.108	41.26
746.288	41.63
746.468	41.24
746.648	41.43
746.829	41.73
747.009	41.13
747.189	40.77
747.369	40.53
747.549	40.31
747.729	40.61
747.909	40.11
748.089	38.84
748.269	38.94
748.449	39.09
748.629	39.54
748.809	38.64
748.989	38.73
749.169	37.8
749.349	38.97
749.529	39.15
749.709	39.72
749.889	39.91
750.068	40.81
750.248	41.32
750.428	41.57
750.608	41.39
750.788	41.55
750.967	42.6
751.147	42.27
751.327	41.62
751.507	40.56
751.686	40.21
751.866	40.24
752.046	40.31
752.225	39.78
752.405	40.12
752.585	40.12
752.764	41.21
752.944	40.78
753.123	41.37
753.303	41.79
753.482	42.32
753.662	41.55
753.841	42.27
754.021	40.84
754.2	40.28
754.38	40.74
754.559	39.84
754.739	38.38
754.918	38.05
755.097	37.59
755.277	36.85
755.456	37.91
755.635	38.11
755.815	36.86
755.994	37.67
756.173	38.03
756.352	38.15
756.532	38.47
756.711	39.41
756.89	38.78
757.069	38.98
757.248	39.25
757.427	38.63
757.607	39.16
757.786	39.78
757.965	40.76
758.144	41.23
758.323	41.09
758.502	41.45
758.681	42.53
758.86	42.23
759.039	41.95
759.218	42.02
759.397	41.9
759.576	41.55
759.755	41.62
759.934	39.98
760.113	41.01
760.291	40.24
760.47	40.92
760.649	38.63
760.828	38.92
761.007	39.96
761.186	39.32
761.364	38.87
761.543	38.45
761.722	38.1
761.901	38
762.079	37.5
762.258	37.62
762.437	37.23
762.615	37.99
762.794	38.59
762.972	37.92
763.151	38.26
763.33	38.03
763.508	37.89
763.687	38.38
763.865	39.96
764.044	40.11
764.222	39.83
764.401	39.53
764.579	39.74
764.758	39.59
764.936	39.85
765.114	40.45
765.293	41.2
765.471	41.57
765.65	41.86
765.828	40.72
766.006	39.65
766.184	39.59
766.363	39.41
766.541	38.66
766.719	39.24
766.898	39.82
767.076	39.53
767.254	40.14
767.432	40.81
767.61	39.54
767.788	40.85
767.967	41.24
768.145	42.3
768.323	41.73
768.501	43.72
768.679	43.43
768.857	42.7
769.035	43.32
769.213	43.39
769.391	43.81
769.569	44.69
769.747	44.94
769.925	44.41
770.103	43.86
770.281	45.09
770.459	43.89
770.636	43.73
770.814	43.37
770.992	42.74
771.17	41.18
771.348	39.75
771.525	40.04
771.703	39.05
771.881	38.76
772.059	39.18
772.236	38.95
772.414	40.74
772.592	40.27
772.769	40.87
772.947	39.84
773.125	40.41
773.302	41.36
773.48	41.5
773.657	41.28
773.835	42.91
774.013	43.67
774.19	44.21
774.368	42.28
774.545	42.33
774.723	42.6
774.9	44.1
775.077	44.83
775.255	43.85
775.432	41.26
775.61	41.81
775.787	42.39
775.964	40.45
776.142	38.94
776.319	38.23
776.496	37.63
776.674	36.97
776.851	35.84
777.028	35.44
777.205	35.57
777.382	37.02
777.56	36.54
777.737	36.12
777.914	37.28
778.091	38.28
778.268	38.24
778.445	40.12
778.622	39.15
778.8	38.97
778.977	38.78
779.154	40
779.331	40.9
779.508	42.16
779.685	41.14
779.862	41.29
780.038	40.83
780.215	42.52
780.392	42.45
780.569	43.66
780.746	44.99
780.923	46.08
781.1	45.91
781.277	45.52
781.453	42.98
781.63	42.28
781.807	41.67
781.984	41.45
782.16	41.99
782.337	40.35
782.514	39.82
782.691	38.07
782.867	36.54
783.044	36.31
783.221	37.13
783.397	38.19
783.574	38.14
783.75	38.45
783.927	40.41
784.103	39.38
784.28	40.35
784.456	42.01
784.633	42.98
784.809	44.73
784.986	43.09
785.162	42.06
785.339	41.66
785.515	42.83
785.692	41.25
785.868	41.75
786.044	41.04
786.221	40.22
786.397	39.03
786.573	38.43
786.749	35.8
786.926	36.64
787.102	40.41
787.278	39.3
787.454	37.7
787.631	37.62
787.807	34.66
787.983	36.11
788.159	36.2
788.335	36.44
788.511	36.89
788.687	37.23
788.863	38.14
789.039	34.45
789.216	34.46
789.392	35.83
789.568	38.09
789.744	39.2
789.919	37.17
790.095	37.19
790.271	37.44
790.447	37.87
790.623	38.21
790.799	36.79
790.975	38.07
791.151	39.27
791.327	41.02
791.502	41.47
791.678	41.47
791.854	44.07
792.03	45.01
792.205	43.9
792.381	43.95
792.557	44.83
792.733	45.6
792.908	45.13
793.084	46.46
793.259	44.97
793.435	42.91
793.611	45.39
793.786	44.23
793.962	42.13
794.137	43.3
794.313	41.56
794.488	41.35
794.664	39.62
794.839	39.09
795.015	37.55
795.19	37.05
795.366	39.01
795.541	35.73
795.716	35.23
795.892	37.94
796.067	39.05
796.242	40.23
796.418	39.7
796.593	42.11
796.768	42.65
796.944	43.05
797.119	44.53
797.294	44.27
797.469	45.03
797.644	44.66
797.82	43.07
797.995	41.64
798.17	42.08
798.345	42.42
798.52	40.96
798.695	42.4
798.87	40.36
799.045	39.5
799.22	39.42
799.395	42
799.57	40.19
799.745	40.28
799.92	41.52
800.095	40.26
800.27	38.58
800.445	37.75
800.62	37.73
800.795	41.24
800.97	40.74
801.145	39.24
801.319	38.02
801.494	40.76
801.669	41.26
801.844	40.6
802.018	43.07
802.193	45.46
802.368	47.94
802.543	47.87
802.717	45.07
802.892	44.19
803.067	45.72
803.241	45.78
803.416	47.09
803.59	45.66
803.765	44.39
803.94	42.52
804.114	39.69
804.289	39.09
804.463	39.86
804.638	43.65
804.812	43.95
804.986	44.62
805.161	42.83
805.335	42.93
805.51	44.18
805.684	43.07
805.858	40.62
806.033	44.63
806.207	46.41
806.381	45.95
806.556	41.03
806.73	40.1
806.904	39.26
807.078	39.67
807.253	38.1
807.427	38.35
807.601	41.07
807.775	44.44
807.949	43.43
808.123	42.6
808.298	39.67
808.472	44.9
808.646	46.71
808.82	47.24
808.994	47.83
809.168	48.74
809.342	49.54
809.516	48.47
809.69	46.21
809.864	45.69
810.038	44.08
810.212	46.46
810.385	44.05
810.559	42.91
810.733	41.85
810.907	43.24
811.081	42.63
811.255	41.61
811.428	38.95
811.602	39.22
811.776	37.19
811.95	36.79
812.123	37.7
812.297	36.27
812.471	36.23
812.644	34.51
812.818	34.19
812.992	35.12
813.165	33.04
813.339	36.21
813.512	38.6
813.686	40.92
813.86	42.68
814.033	42.91
814.207	45.61
814.38	49.47
814.554	52.69
814.727	49.82
814.9	49.72
815.074	54.38
815.247	54.79
815.421	52.99
815.594	49.77
815.767	47.98
815.941	47.48
816.114	48.01
816.287	44.75
816.46	42.47
816.634	41.93
816.807	41.54
816.98	38.12
817.153	38.65
817.327	38.68
817.5	41.04
817.673	41.04
817.846	38.63
818.019	36.16
818.192	36.07
818.365	36.03
818.538	39.55
818.711	40.25
818.884	38.57
819.057	37.56
819.23	40.26
819.403	39.17
819.576	38.69
819.749	40.17
819.922	39.65
820.095	39.37
820.268	40.67
820.441	40.41
820.614	40.06
820.786	40.63
820.959	41
821.132	40.98
821.305	41.61
821.477	41.14
821.65	40.13
821.823	40.19
821.996	40.48
822.168	40.34
822.341	39.29
822.514	39.31
822.686	39.91
822.859	39.96
823.031	40.12
823.204	40.21
823.376	40.73
823.549	41.22
823.722	41.44
823.894	41.21
824.067	41.71
824.239	41.77
824.411	41.75
824.584	41.31
824.756	41.46
824.929	41.08
825.101	41.17
825.273	40.97
825.446	40.62
825.618	40.86
825.79	40.66
825.963	39.77
826.135	40.78
826.307	40.41
826.479	40.29
826.652	39.63
826.824	40.11
826.996	40.18
827.168	40.65
827.34	41.59
827.512	40.35
827.684	40.56
827.856	40.57
828.029	39.87
828.201	39.17
828.373	40.24
828.545	40.7
828.717	41.16
828.889	40.74
829.061	40.05
829.232	38.33
829.404	40.38
829.576	41.09
829.748	41.93
829.92	42.18
830.092	43.88
830.264	42.64
830.436	43.24
830.607	42.23
830.779	42.53
830.951	43.06
831.123	44.37
831.294	43.36
831.466	43.03
831.638	42.78
831.809	43.25
831.981	42.9
832.153	43.91
832.324	44.37
832.496	45.12
832.667	45.9
832.839	46.15
833.011	46.9
833.182	45.64
833.354	43.9
833.525	42.07
833.697	41.03
833.868	41.44
834.039	41.06
834.211	39.31
834.382	37.62
834.554	39.17
834.725	39.76
834.896	38.91
835.068	39.4
835.239	41.32
835.41	42.26
835.581	42.03
835.753	43.16
835.924	43.63
836.095	42.82
836.266	42.79
836.438	39
836.609	39.6
836.78	39.48
836.951	39.09
837.122	38.93
837.293	39.07
837.464	39.96
837.635	37.43
837.806	38.17
837.977	40.17
838.148	39.21
838.319	43.47
838.49	42.48
838.661	42.12
838.832	42.51
839.003	41.5
839.174	41.08
839.345	39.61
839.516	38.2
839.687	36.14
839.857	35.95
840.028	41.93
840.199	40.67
840.37	40.1
840.54	42.63
840.711	42.73
840.882	40.62
841.053	39.05
841.223	45.13
841.394	46.47
841.564	43.88
841.735	42.75
841.906	39.27
842.076	36.29
842.247	36.39
842.417	34.17
842.588	35.73
842.758	38.34
842.929	37.35
843.099	29.41
843.27	33.16
843.44	39.59
843.611	40.26
843.781	36.66
843.951	40.58
844.122	40.02
844.292	42.83
844.462	42.24
844.633	40.1
844.803	44.79
844.973	47.62
845.144	49.57
845.314	47.38
845.484	47.52
845.654	56.57
845.824	53.57
845.995	51.44
846.165	50.85
846.335	47.95
846.505	47.99
846.675	45.66
846.845	47.55
847.015	46.94
847.185	46.24
847.355	54
847.525	48.84
847.695	44.47
847.865	48.17
848.035	46.35
848.205	48.22
848.375	59.04
848.545	60.01
848.715	56.62
848.884	56.49
849.054	59.81
849.224	61.79
849.394	62.88
849.564	64.34
849.733	63.29
849.903	66.66
850.073	72.03
850.243	60.54
850.412	60.88
850.582	61.75
850.752	54.86
850.921	52.72
851.091	47.69
851.26	45.66
851.43	42.77
851.599	37.93
851.769	33.77
851.939	35.99
852.108	39
852.278	38.84
852.447	35.39
852.616	38.03
852.786	31.19
852.955	30.81
853.125	32.29
853.294	34.87
853.463	34.67
853.633	29
853.802	27.78
853.971	24.8
854.141	19.41
854.31	25.17
854.479	20.13
854.648	23.94
854.818	29.61
854.987	30.1
855.156	30.11
855.325	36.59
855.494	40.62
855.663	36.42
855.832	36.56
856.001	38.77
856.171	37.81
856.34	37.75
856.509	34.98
856.678	31.16
856.847	30.52
857.016	28.65
857.185	29.71
857.353	31.87
857.522	34.08
857.691	34.44
857.86	37.64
858.029	39.44
858.198	43.27
858.367	50.39
858.535	54.73
858.704	56.56
858.873	65.78
859.042	69.05
859.21	70.58
859.379	65.94
859.548	63.73
859.717	62.32
859.885	58.49
860.054	57.75
860.222	54.05
860.391	55.91
860.56	56.49
860.728	47.74
860.897	48.63
861.065	48.85
861.234	51.51
861.402	48.85
861.571	48.98
861.739	50.66
861.908	50.1
862.076	52.52
862.244	48.61
862.413	47.68
862.581	47.66
862.749	42.38
862.918	46.95
863.086	49.15
863.254	54.12
863.423	54.94
863.591	48.91
863.759	48.82
863.927	41.53
864.096	45.44
864.264	37.3
864.432	33.82
864.6	33.13
864.768	16.99
864.936	12.55
865.104	19.18
865.272	18.41
865.44	20.28
865.608	16.22
865.776	21.43
865.944	19.15
866.112	25.99
866.28	33.71
866.448	36.36
866.616	40.76
866.784	38.82
866.952	38.61
867.12	34.73
867.288	33.41
867.455	43.85
867.623	48.03
867.791	47.53
867.959	52.85
868.127	53.53
868.294	54.14
868.462	59.05
868.63	70.73
868.797	72.39
868.965	73.74
869.133	67.92
869.3	64.76
869.468	66.48
869.636	64.61
869.803	59.14
869.971	56.86
870.138	59.08
870.306	56.11
870.473	55.3
870.641	48.81
870.808	46.86
870.975	51.06
871.143	45.14
871.31	51.88
871.478	59.45
871.645	61.93
871.812	63.39
871.98	57.91
872.147	60.77
872.314	55.12
872.482	38.17
872.649	31.76
872.816	35.88
872.983	38.88
873.15	34.9
873.318	28.13
873.485	27.83
873.652	26.42
873.819	32.71
873.986	40.95
874.153	44.35
874.32	59.75
874.487	62.16
874.654	63.38
874.821	66.56
874.988	63.58
875.155	64.12
875.322	55.53
875.489	60.85
875.656	56.38
875.823	45.95
875.99	39.24
876.157	31.61
876.324	37.87
876.49	35.75
876.657	41.85
876.824	41.94
876.991	39.2
877.157	58.54
877.324	56.21
877.491	66.27
877.658	68.19
877.824	61.31
877.991	60.71
878.157	65.65
878.324	71.34
878.491	54.06
878.657	62.65
878.824	73.36
878.99	68.96
879.157	58.53
879.323	50.7
879.49	48.52
879.656	54.31
879.823	55.57
879.989	49.46
880.156	45.8
880.322	47.38
880.488	37.67
880.655	31.65
880.821	31.94
880.987	37.2
881.154	39.36
881.32	41.21
881.486	44.61
881.652	43.3
881.819	43.76
881.985	41.4
882.151	41.18
882.317	43.51
882.483	41.16
882.649	40.16
882.816	40.83
882.982	39.03
883.148	39.26
883.314	37.89
883.48	35.97
883.646	36.31
883.812	38.3
883.978	38.65
884.144	38.13
884.31	40.37
884.476	41.28
884.642	41.26
884.807	43.23
884.973	42.14
885.139	42.89
885.305	45.46
885.471	44.93
885.637	44.14
885.802	44.59
885.968	45.47
886.134	43.32
886.3	42.86
886.465	42.73
886.631	41.52
886.797	43.85
886.962	45.51
887.128	44.38
887.293	45.79
887.459	47.22
887.625	45.96
887.79	44.77
887.956	45.07
888.121	46.82
888.287	46.06
888.452	47.86
888.618	47.89
888.783	40.03
