Data from CB_067_Reflection_2.txt Node
Date: Sat Nov 14 10:49:27 EST 2015
User: robert
Spectrometer: USB4E03001
Autoset integration time: false
Trigger mode: 4
Integration Time (sec): 1.000000E-1
Scans to average: 15
Electric dark correction enabled: true
Nonlinearity correction enabled: false
Boxcar width: 5
Stray light correction enabled: false
XAxis mode: Wavelengths
Stop averaging: false
Number of Pixels in Spectrum: 3648
>>>>>Begin Spectral Data<<<<<
177.566	-277.6
177.785	-408.11
178.005	-1847.29
178.225	-356.35
178.445	-259.53
178.665	-425.35
178.885	47.83
179.105	-168.04
179.324	-303.07
179.544	-538.34
179.764	-130.54
179.984	-143.55
180.204	-194.02
180.423	-814.99
180.643	-402.63
180.863	-500.52
181.083	-2005.86
181.302	-9133.33
181.522	900.6
181.742	818.16
181.961	1001.74
182.181	168.37
182.401	151.49
182.621	181.73
182.84	579.35
183.06	-1671.19
183.279	-198.06
183.499	-165.25
183.719	-203.5
183.938	-135.65
184.158	-116.03
184.377	-94.51
184.597	-30.3
184.816	-6.34
185.036	-16.12
185.256	-14.82
185.475	-161.01
185.695	-90.9
185.914	-22.02
186.134	32.47
186.353	76.5
186.572	104.55
186.792	316.93
187.011	-949.16
187.231	1438.31
187.45	159.47
187.67	251.36
187.889	20.66
188.108	130.82
188.328	151.91
188.547	124.17
188.766	129.17
188.986	103.08
189.205	117.85
189.424	114.39
189.644	137.22
189.863	175.66
190.082	208.02
190.302	226.33
190.521	142.7
190.74	162.43
190.959	567.19
191.178	454.8
191.398	454.25
191.617	1183.82
191.836	5187.63
192.055	772.54
192.274	187.76
192.494	239.94
192.713	7108.93
192.932	-1120.15
193.151	192150
193.37	287.83
193.589	-8469.91
193.808	-750.04
194.027	-1209.3
194.246	2290.91
194.465	-1410.39
194.685	397.77
194.904	432.6
195.123	315.55
195.342	183.98
195.561	108.33
195.78	288.7
195.999	82.44
196.218	-193.81
196.436	-362.14
196.655	-50.71
196.874	8.41
197.093	0.11
197.312	-12.54
197.531	-54.69
197.75	11.09
197.969	417.81
198.188	146.52
198.407	124.31
198.625	204.45
198.844	279.25
199.063	311.55
199.282	598.68
199.501	-3286.72
199.719	-1497.02
199.938	730.29
200.157	353.34
200.376	-1787.43
200.594	-106.31
200.813	-401.12
201.032	-754.91
201.251	-412.89
201.469	-677.91
201.688	-1311.2
201.907	2511.3
202.125	943.17
202.344	3343.77
202.563	19900
202.781	1071.09
203	368.8
203.218	281.73
203.437	421.86
203.656	311.28
203.874	707.98
204.093	652.93
204.311	479.98
204.53	1226.98
204.748	323.25
204.967	483
205.185	423.08
205.404	452.23
205.622	628.67
205.841	357.63
206.059	271.26
206.278	171.3
206.496	257.19
206.715	278.61
206.933	277.62
207.151	369.93
207.37	212.26
207.588	240.49
207.806	249.82
208.025	350.49
208.243	512.14
208.461	-35113.64
208.68	1336.41
208.898	493.81
209.116	372.32
209.335	233.68
209.553	194.96
209.771	202.51
209.989	201.03
210.208	183.99
210.426	157.04
210.644	135.07
210.862	133.18
211.081	136.64
211.299	126.11
211.517	132.15
211.735	117.8
211.953	106.89
212.171	109.77
212.39	81.83
212.608	54.2
212.826	66.08
213.044	64
213.262	49.44
213.48	22.96
213.698	10.86
213.916	10.27
214.134	-37.94
214.352	-70.33
214.57	-66.4
214.788	-40.59
215.006	-0.82
215.224	-26.1
215.442	-138.11
215.66	-564.95
215.878	-86.22
216.096	-22.45
216.314	-212.38
216.532	-659.14
216.75	574.45
216.968	213.28
217.185	1423.89
217.403	352.39
217.621	-23433.33
217.839	-188.12
218.057	-11002.08
218.275	-365
218.492	-44.72
218.71	-2360.32
218.928	1347.33
219.146	836.66
219.363	383.62
219.581	424.64
219.799	-1649.22
220.017	156.86
220.234	127.65
220.452	141.94
220.67	212.38
220.887	132.4
221.105	170.56
221.323	102.89
221.54	103.84
221.758	113.05
221.976	103.38
222.193	76.73
222.411	70.9
222.629	75.26
222.846	71.98
223.064	48.67
223.281	45.75
223.499	37.7
223.716	45.52
223.934	29.66
224.151	24.83
224.369	32.59
224.586	55.14
224.804	57.97
225.021	52.64
225.239	42.54
225.456	60.5
225.674	58.32
225.891	57.7
226.108	51.36
226.326	56.37
226.543	52.8
226.76	44.65
226.978	41.7
227.195	43.05
227.413	37.51
227.63	41.4
227.847	40.48
228.064	38.79
228.282	36.66
228.499	37.74
228.716	32.38
228.934	31.82
229.151	31.95
229.368	30.56
229.585	29.48
229.802	30.37
230.02	32.12
230.237	31.91
230.454	28.77
230.671	30.64
230.888	29.24
231.105	32.14
231.323	36.24
231.54	38.04
231.757	38.32
231.974	39.67
232.191	41.43
232.408	36.94
232.625	38.34
232.842	43.06
233.059	38.94
233.276	40.15
233.493	34.56
233.71	34.24
233.927	29.64
234.144	26.04
234.361	27.72
234.578	30.88
234.795	29.4
235.012	27.83
235.229	22.63
235.446	26.35
235.663	26.44
235.879	27.54
236.096	26.52
236.313	31.17
236.53	28.05
236.747	23.29
236.964	20.55
237.181	32.7
237.397	33.65
237.614	49.78
237.831	53.42
238.048	50.13
238.264	51.04
238.481	45.84
238.698	40.26
238.915	41.86
239.131	39.8
239.348	36.76
239.565	31.13
239.781	26.21
239.998	17.21
240.215	14.23
240.431	17
240.648	15.84
240.865	14.71
241.081	17.59
241.298	16.21
241.514	17.7
241.731	16.84
241.947	15.89
242.164	17.89
242.38	14.61
242.597	14.42
242.814	14.71
243.03	19.81
243.246	22.74
243.463	22.92
243.679	22.75
243.896	23.72
244.112	23.64
244.329	26.33
244.545	26.47
244.762	27.53
244.978	27.25
245.194	24.45
245.411	17.81
245.627	15.53
245.843	17.66
246.06	19.05
246.276	18.03
246.492	19.33
246.709	18.35
246.925	17.6
247.141	18.91
247.357	18.61
247.574	19.12
247.79	19.12
248.006	18.7
248.222	17.22
248.439	15.59
248.655	15.93
248.871	14.2
249.087	13.21
249.303	12.38
249.519	11.26
249.736	11.39
249.952	9.21
250.168	11.5
250.384	14.74
250.6	14.97
250.816	18.02
251.032	16.99
251.248	19.42
251.464	19.93
251.68	21.09
251.896	18.93
252.112	17.91
252.328	17.36
252.544	17.87
252.76	15.61
252.976	14.45
253.192	14.64
253.408	12.98
253.624	11.86
253.84	13.9
254.056	13.26
254.272	16.35
254.487	15.67
254.703	15.76
254.919	8.54
255.135	4.69
255.351	8.2
255.567	5.8
255.782	10.4
255.998	11.54
256.214	8.37
256.43	10.99
256.646	13.12
256.861	15.61
257.077	17.11
257.293	17.8
257.508	19.24
257.724	20.35
257.94	18.23
258.155	15.39
258.371	15.02
258.587	13.73
258.802	12.43
259.018	10.62
259.234	10.8
259.449	10.57
259.665	11.49
259.88	11.74
260.096	10.04
260.312	10.02
260.527	9.47
260.743	9.41
260.958	10.71
261.174	11.55
261.389	12.29
261.605	12.13
261.82	12.73
262.036	11.89
262.251	11.57
262.466	12.18
262.682	13.44
262.897	15.42
263.113	15.88
263.328	12.99
263.543	12.19
263.759	11.13
263.974	9.14
264.189	8.77
264.405	8.76
264.62	10.55
264.835	10.88
265.051	12.26
265.266	11.62
265.481	11.75
265.696	14.42
265.912	13.32
266.127	13.06
266.342	13.69
266.557	13.58
266.773	13.87
266.988	11.98
267.203	12.33
267.418	11.02
267.633	11.9
267.848	10.21
268.064	6.79
268.279	7.86
268.494	8.15
268.709	7.95
268.924	9.18
269.139	9.53
269.354	10.12
269.569	9.4
269.784	10.18
269.999	9.5
270.214	10.7
270.429	12.17
270.644	11.25
270.859	11.41
271.074	10.93
271.289	11.69
271.504	11.99
271.719	12.43
271.934	12.5
272.149	12.64
272.363	14.23
272.578	13.76
272.793	13.85
273.008	13.87
273.223	12.4
273.438	12.14
273.653	11.77
273.867	10.65
274.082	10.09
274.297	10.55
274.512	10.55
274.726	8.35
274.941	9.35
275.156	11.62
275.371	11.57
275.585	13.21
275.8	15.28
276.015	12.4
276.229	13.46
276.444	12.85
276.659	12.32
276.873	12.69
277.088	14.57
277.302	15.05
277.517	13.91
277.732	13.36
277.946	13.69
278.161	12.92
278.375	14.24
278.59	12.57
278.804	13.51
279.019	14.68
279.233	13.36
279.448	10.98
279.662	9.28
279.877	8.4
280.091	8.91
280.306	8.25
280.52	6.59
280.735	5.99
280.949	7.7
281.163	8.84
281.378	7.62
281.592	9.52
281.806	10.22
282.021	10.08
282.235	9.97
282.449	10.83
282.664	10.5
282.878	11.26
283.092	11.25
283.307	10.66
283.521	8.78
283.735	9.78
283.949	8.09
284.164	7.57
284.378	7.96
284.592	7.47
284.806	6.78
285.02	6.74
285.234	5.91
285.449	5.52
285.663	6.87
285.877	8.56
286.091	7.91
286.305	8.79
286.519	10.37
286.733	10.58
286.947	12.56
287.161	12.91
287.375	12.55
287.589	14.42
287.803	17.07
288.017	16.45
288.231	15.16
288.445	15.37
288.659	15.44
288.873	15.31
289.087	15.15
289.301	13.4
289.515	12.07
289.729	13.08
289.943	13.43
290.157	13.2
290.371	13.27
290.584	13.65
290.798	13.78
291.012	14.26
291.226	11.94
291.44	12.78
291.654	12.54
291.867	13.08
292.081	13.14
292.295	12.65
292.509	11.85
292.722	11.62
292.936	10.56
293.15	10.27
293.364	8.71
293.577	10.97
293.791	11.35
294.005	12.12
294.218	13.98
294.432	15.03
294.645	15.31
294.859	15.34
295.073	15.83
295.286	15.86
295.5	16.6
295.713	16.47
295.927	16.06
296.14	14.96
296.354	14.47
296.568	13.12
296.781	12.21
296.994	12.46
297.208	11.88
297.421	11.01
297.635	12.18
297.848	11.32
298.062	11.18
298.275	11.7
298.489	12.28
298.702	12.76
298.915	12.5
299.129	12.57
299.342	11.71
299.555	12.2
299.769	13.1
299.982	12.23
300.195	12.39
300.409	12.96
300.622	11.75
300.835	10.2
301.048	9.72
301.262	10.87
301.475	11.32
301.688	11.45
301.901	11.98
302.115	11.35
302.328	11.71
302.541	11.92
302.754	12.69
302.967	13.77
303.18	15.71
303.393	16.08
303.607	16.65
303.82	16.84
304.033	17.55
304.246	18.11
304.459	18.14
304.672	18.88
304.885	19.97
305.098	19.41
305.311	19.88
305.524	18.83
305.737	18.5
305.95	18.46
306.163	18.07
306.376	17.46
306.589	17.41
306.802	17.74
307.015	16.75
307.228	17.06
307.44	18.3
307.653	17.01
307.866	18.79
308.079	19.38
308.292	18.51
308.505	19.63
308.718	20.66
308.93	20.92
309.143	20.79
309.356	21.84
309.569	20.49
309.781	18.93
309.994	19.55
310.207	18.03
310.42	18.06
310.632	18.38
310.845	17.37
311.058	16.66
311.27	15.35
311.483	15.97
311.696	14.65
311.908	14.63
312.121	14.78
312.333	14.79
312.546	14.87
312.759	14.27
312.971	13.86
313.184	14.22
313.396	13.81
313.609	13.93
313.821	13.53
314.034	13.81
314.246	12.83
314.459	13.52
314.671	11.88
314.884	12.01
315.096	12.15
315.309	12.59
315.521	12.97
315.733	13.13
315.946	13.6
316.158	14.12
316.371	14.99
316.583	16.18
316.795	15.47
317.008	17.64
317.22	17.64
317.432	17.41
317.644	17.47
317.857	17.74
318.069	18.91
318.281	18.99
318.494	18.14
318.706	17.82
318.918	17.84
319.13	17.62
319.342	16.46
319.555	16.06
319.767	17.42
319.979	16.41
320.191	15.17
320.403	14.51
320.615	16.11
320.827	15.63
321.039	15.64
321.252	17.42
321.464	18.18
321.676	18.06
321.888	18.4
322.1	17.65
322.312	18.46
322.524	19.35
322.736	17.98
322.948	17.07
323.16	17.82
323.372	18.54
323.584	17.68
323.796	16.45
324.007	17.09
324.219	17.45
324.431	18.57
324.643	19.59
324.855	20.23
325.067	20.21
325.279	19.55
325.491	20.67
325.702	20.85
325.914	20.84
326.126	22.46
326.338	20.73
326.55	21.45
326.761	19.93
326.973	19.8
327.185	19.88
327.396	20.88
327.608	21.68
327.82	21.01
328.032	20.29
328.243	19.99
328.455	20.89
328.666	22.9
328.878	22.59
329.09	24.14
329.301	23.36
329.513	22.47
329.725	23.08
329.936	23.43
330.148	23.45
330.359	23.64
330.571	24.25
330.782	22.1
330.994	23.05
331.205	22.94
331.417	23.45
331.628	24
331.84	26.74
332.051	26.3
332.262	25.88
332.474	25.09
332.685	25.92
332.897	25.77
333.108	27.17
333.319	26.04
333.531	26.64
333.742	25.5
333.953	24.8
334.165	22.93
334.376	24.24
334.587	23.92
334.799	23.53
335.01	23.09
335.221	22.11
335.432	20.49
335.644	21.14
335.855	20.99
336.066	21.17
336.277	22.48
336.488	21.69
336.7	20.31
336.911	21.28
337.122	22.17
337.333	22.88
337.544	23.19
337.755	24.34
337.966	23.68
338.177	23.35
338.388	23.11
338.599	22.32
338.811	22.59
339.022	23.57
339.233	22.7
339.444	22.38
339.655	21.37
339.866	21.02
340.076	20.5
340.287	21.06
340.498	21.13
340.709	21.06
340.92	21.33
341.131	21.39
341.342	20.95
341.553	20.33
341.764	21.28
341.975	21.52
342.185	22.85
342.396	22.62
342.607	21.76
342.818	21.55
343.029	20.93
343.239	20.36
343.45	20.41
343.661	19.74
343.872	20.13
344.082	19.22
344.293	18.79
344.504	18.18
344.714	18.68
344.925	19.05
345.136	19.65
345.346	19.24
345.557	19.5
345.768	19.12
345.978	19.81
346.189	20.29
346.399	19.74
346.61	19.9
346.821	20.4
347.031	20.67
347.242	20.27
347.452	19.11
347.663	20.05
347.873	20.2
348.084	20.89
348.294	20.12
348.504	20.04
348.715	20.98
348.925	20.96
349.136	19.59
349.346	19.5
349.557	19.85
349.767	21.41
349.977	21.74
350.188	20.95
350.398	20.91
350.608	21.14
350.819	21.83
351.029	21.32
351.239	21.75
351.449	21.99
351.66	21.77
351.87	22.32
352.08	21.6
352.29	21.88
352.501	22.3
352.711	22.01
352.921	22.28
353.131	21.65
353.341	22.37
353.552	21.86
353.762	21.87
353.972	21.55
354.182	21.03
354.392	20.85
354.602	20.12
354.812	20.34
355.022	19.75
355.232	19.66
355.442	18.85
355.652	18.79
355.862	18.9
356.072	19.43
356.282	18.96
356.492	19.59
356.702	19.34
356.912	19.37
357.122	19.59
357.332	20.22
357.542	19.45
357.752	19.49
357.962	18.71
358.171	19.08
358.381	18.79
358.591	19.17
358.801	18.62
359.011	18.7
359.221	18.21
359.43	17.54
359.64	17.05
359.85	17.33
360.06	17.57
360.269	17.96
360.479	17.76
360.689	18.33
360.899	18.64
361.108	18.39
361.318	18.11
361.528	18.65
361.737	18.83
361.947	18.82
362.156	19
362.366	18.39
362.576	17.78
362.785	17.14
362.995	16.52
363.204	16.33
363.414	16.94
363.623	17.02
363.833	17.31
364.042	17.3
364.252	17.44
364.461	17.34
364.671	17.7
364.88	18.08
365.09	18.89
365.299	19.27
365.509	19.34
365.718	18.23
365.927	18.53
366.137	18.02
366.346	18.11
366.555	18.03
366.765	18.16
366.974	18.24
367.183	18.2
367.393	17.38
367.602	16.76
367.811	16.58
368.021	17.35
368.23	17.21
368.439	17.16
368.648	16.54
368.857	16.56
369.067	16.29
369.276	16.49
369.485	16.75
369.694	17.4
369.903	18.01
370.112	17.94
370.321	17.36
370.531	16.92
370.74	16.91
370.949	17.21
371.158	16.83
371.367	16.97
371.576	16.32
371.785	15.34
371.994	15
372.203	14.28
372.412	14.09
372.621	14.69
372.83	14.59
373.039	14.31
373.248	13.93
373.457	14.02
373.666	13.05
373.874	13.4
374.083	13.93
374.292	13.89
374.501	14.59
374.71	14.79
374.919	14.46
375.128	14.29
375.336	14.95
375.545	14.97
375.754	14.47
375.963	14.77
376.171	14.67
376.38	14.26
376.589	14.19
376.798	13.32
377.006	13.16
377.215	12.97
377.424	12.83
377.632	11.54
377.841	11.71
378.05	11.95
378.258	12.55
378.467	12.23
378.675	12.09
378.884	11.75
379.093	12.36
379.301	12.53
379.51	12.36
379.718	12.58
379.927	12.98
380.135	12.81
380.344	12.57
380.552	12.28
380.761	12.21
380.969	12.6
381.177	12.51
381.386	13.16
381.594	12.58
381.803	12.3
382.011	12.53
382.219	12.62
382.428	12.68
382.636	12.65
382.845	11.76
383.053	11.74
383.261	11.54
383.469	11.83
383.678	11.09
383.886	11.22
384.094	11.62
384.302	11.47
384.511	11.42
384.719	11.43
384.927	11.69
385.135	12.12
385.343	12.16
385.552	12.22
385.76	11.78
385.968	11.48
386.176	11.34
386.384	10.56
386.592	10.46
386.8	10.39
387.008	10
387.216	10.03
387.424	10
387.633	9.86
387.841	10.2
388.049	10.61
388.257	10.83
388.465	10.75
388.672	11.06
388.88	11.05
389.088	10.99
389.296	10.94
389.504	10.26
389.712	10.31
389.92	10.71
390.128	10.35
390.336	9.84
390.544	9.44
390.751	9.53
390.959	9.54
391.167	9.21
391.375	9.53
391.583	9.56
391.79	9.67
391.998	9.66
392.206	9.32
392.414	9.26
392.621	9.44
392.829	9.22
393.037	8.96
393.244	8.92
393.452	9
393.66	8.53
393.867	8.4
394.075	8.35
394.283	8.03
394.49	7.87
394.698	7.54
394.905	7.44
395.113	7.91
395.32	7.82
395.528	7.54
395.735	7.35
395.943	7.42
396.15	7.36
396.358	7.16
396.565	7.13
396.773	7.08
396.98	7.14
397.188	6.99
397.395	6.82
397.602	6.73
397.81	6.92
398.017	6.85
398.225	6.96
398.432	6.92
398.639	7
398.847	6.88
399.054	6.93
399.261	6.91
399.468	7.09
399.676	6.99
399.883	7.02
400.09	7.08
400.297	7.21
400.505	6.97
400.712	7.07
400.919	7.39
401.126	7.54
401.333	7.3
401.54	7.45
401.748	7.45
401.955	7.02
402.162	6.87
402.369	7
402.576	6.82
402.783	6.64
402.99	6.56
403.197	6.14
403.404	5.87
403.611	5.83
403.818	5.88
404.025	5.98
404.232	6.41
404.439	6.67
404.646	6.3
404.853	6.37
405.06	6.45
405.267	6.59
405.474	6.89
405.681	7.26
405.887	7.15
406.094	7.36
406.301	7.08
406.508	7.07
406.715	6.98
406.922	7.22
407.128	7.54
407.335	7.5
407.542	7.27
407.749	7.2
407.955	7.23
408.162	7.47
408.369	6.98
408.575	7.28
408.782	7.2
408.989	7.12
409.195	6.79
409.402	6.54
409.609	6.27
409.815	6.2
410.022	6.24
410.228	6.06
410.435	6.14
410.642	6.37
410.848	6.04
411.055	5.89
411.261	5.99
411.468	6.45
411.674	6.33
411.881	6.85
412.087	7.05
412.294	6.84
412.5	6.76
412.706	6.58
412.913	6.31
413.119	6.24
413.326	6.07
413.532	5.84
413.738	5.46
413.945	5.16
414.151	5.05
414.357	5.03
414.564	5.25
414.77	5.57
414.976	5.69
415.182	5.82
415.389	5.9
415.595	5.84
415.801	6.01
416.007	6.06
416.214	6.11
416.42	5.98
416.626	6.01
416.832	5.86
417.038	5.62
417.244	5.7
417.45	5.61
417.657	5.68
417.863	5.68
418.069	5.57
418.275	5.58
418.481	5.68
418.687	5.68
418.893	5.55
419.099	5.79
419.305	5.78
419.511	5.7
419.717	5.71
419.923	5.55
420.129	5.52
420.335	5.67
420.541	5.48
420.746	5.33
420.952	5.39
421.158	5.48
421.364	5.13
421.57	5.07
421.776	5.07
421.982	5.11
422.187	5
422.393	5.02
422.599	4.89
422.805	5.03
423.01	5.17
423.216	5.11
423.422	5.12
423.628	5.28
423.833	5.24
424.039	5.12
424.245	5.15
424.45	5.15
424.656	5.18
424.862	5.13
425.067	5.09
425.273	5.17
425.478	5.13
425.684	4.88
425.889	5
426.095	4.99
426.301	4.99
426.506	4.86
426.712	5.02
426.917	5
427.123	5.06
427.328	5.09
427.533	5.08
427.739	5.19
427.944	5.41
428.15	5.18
428.355	5.1
428.561	5.29
428.766	5.21
428.971	5.25
429.177	5.31
429.382	5.36
429.587	5.29
429.793	5.14
429.998	5.04
430.203	5.06
430.408	5.04
430.614	5.26
430.819	5.09
431.024	5.15
431.229	5.21
431.434	5.1
431.64	4.9
431.845	4.95
432.05	5.03
432.255	5.11
432.46	4.97
432.665	4.81
432.87	4.68
433.076	4.65
433.281	4.85
433.486	4.88
433.691	4.82
433.896	4.83
434.101	4.69
434.306	4.51
434.511	4.46
434.716	4.42
434.921	4.67
435.126	4.84
435.331	4.83
435.535	4.62
435.74	4.53
435.945	4.49
436.15	4.5
436.355	4.63
436.56	4.8
436.765	4.88
436.97	4.91
437.174	4.77
437.379	4.62
437.584	4.78
437.789	4.81
437.993	4.69
438.198	4.93
438.403	5.13
438.608	5.12
438.812	5.07
439.017	4.94
439.222	4.96
439.426	5.1
439.631	5.02
439.836	5.02
440.04	4.98
440.245	5.16
440.45	5.07
440.654	5.04
440.859	4.92
441.063	5.01
441.268	5.06
441.472	4.97
441.677	4.64
441.881	4.61
442.086	4.49
442.29	4.41
442.495	4.41
442.699	4.41
442.904	4.18
443.108	4.4
443.312	4.31
443.517	4.25
443.721	4.32
443.925	4.61
444.13	4.65
444.334	4.64
444.538	4.82
444.743	4.6
444.947	4.58
445.151	4.7
445.356	4.64
445.56	4.6
445.764	4.53
445.968	4.61
446.173	4.61
446.377	4.69
446.581	4.71
446.785	4.5
446.989	4.64
447.193	4.58
447.398	4.59
447.602	4.42
447.806	4.51
448.01	4.58
448.214	4.58
448.418	4.35
448.622	4.43
448.826	4.41
449.03	4.61
449.234	4.5
449.438	4.52
449.642	4.52
449.846	4.72
450.05	4.63
450.254	4.56
450.458	4.45
450.662	4.7
450.866	4.55
451.069	4.55
451.273	4.42
451.477	4.51
451.681	4.51
451.885	4.32
452.089	4.36
452.292	4.2
452.496	4.27
452.7	4.4
452.904	4.32
453.107	4.37
453.311	4.25
453.515	4.38
453.719	4.33
453.922	4.39
454.126	4.55
454.33	4.43
454.533	4.46
454.737	4.57
454.94	4.54
455.144	4.67
455.348	4.62
455.551	4.71
455.755	4.59
455.958	4.65
456.162	4.6
456.365	4.54
456.569	4.44
456.772	4.43
456.976	4.43
457.179	4.51
457.383	4.39
457.586	4.4
457.79	4.27
457.993	4.36
458.196	4.24
458.4	4.36
458.603	4.25
458.807	4.29
459.01	4.44
459.213	4.29
459.417	4.24
459.62	4.15
459.823	4.18
460.026	4.22
460.23	4.14
460.433	4.15
460.636	4
460.839	4.07
461.042	4.09
461.246	4.07
461.449	4.08
461.652	4
461.855	4.09
462.058	4.17
462.261	4.35
462.464	4.27
462.668	4.32
462.871	4.47
463.074	4.43
463.277	4.43
463.48	4.24
463.683	4.23
463.886	4.14
464.089	4.22
464.292	4.06
464.495	3.88
464.698	3.91
464.901	3.86
465.104	3.76
465.306	3.75
465.509	3.89
465.712	4.06
465.915	4.26
466.118	4.26
466.321	4.09
466.524	3.99
466.726	4.07
466.929	4.2
467.132	4.18
467.335	4.33
467.538	4.37
467.74	4.18
467.943	4.05
468.146	3.77
468.348	3.92
468.551	4
468.754	4.26
468.956	4.33
469.159	4.09
469.362	4.07
469.564	4.03
469.767	4.17
469.969	4.3
470.172	4.4
470.375	4.6
470.577	4.72
470.78	4.63
470.982	4.45
471.185	4.45
471.387	4.71
471.59	4.81
471.792	4.7
471.995	4.62
472.197	4.82
472.399	4.85
472.602	4.94
472.804	4.79
473.007	4.97
473.209	4.94
473.411	4.83
473.614	4.98
473.816	4.88
474.018	4.94
474.22	4.99
474.423	4.72
474.625	4.56
474.827	4.45
475.03	4.49
475.232	4.33
475.434	4.36
475.636	4.36
475.838	4.32
476.04	4.39
476.243	4.32
476.445	4.3
476.647	4.39
476.849	4.62
477.051	4.45
477.253	4.55
477.455	4.55
477.657	4.63
477.859	4.53
478.061	4.37
478.263	4.2
478.465	4.17
478.667	4.01
478.869	3.88
479.071	3.65
479.273	3.72
479.475	3.56
479.677	3.77
479.879	3.62
480.081	3.68
480.283	3.62
480.485	3.67
480.686	3.75
480.888	3.99
481.09	4.05
481.292	4.04
481.494	4.16
481.695	4.16
481.897	4.03
482.099	4.04
482.301	4.08
482.502	4.06
482.704	4.21
482.906	4.09
483.107	3.94
483.309	3.9
483.511	3.93
483.712	3.86
483.914	3.86
484.115	3.83
484.317	3.83
484.519	3.79
484.72	3.82
484.922	3.77
485.123	3.76
485.325	3.76
485.526	3.8
485.728	3.78
485.929	3.83
486.131	3.81
486.332	3.85
486.534	3.9
486.735	3.88
486.936	3.93
487.138	3.89
487.339	3.99
487.541	4.01
487.742	4
487.943	4
488.144	4
488.346	3.99
488.547	3.99
488.748	3.93
488.95	3.99
489.151	3.95
489.352	3.99
489.553	3.97
489.755	4.05
489.956	3.96
490.157	3.99
490.358	3.91
490.559	3.88
490.76	3.89
490.961	3.9
491.163	3.88
491.364	3.91
491.565	3.87
491.766	3.8
491.967	3.77
492.168	3.78
492.369	3.71
492.57	3.75
492.771	3.85
492.972	3.81
493.173	3.87
493.374	3.91
493.575	3.79
493.776	3.83
493.976	3.91
494.177	4.06
494.378	4.18
494.579	4.47
494.78	4.57
494.981	4.58
495.182	4.66
495.382	4.7
495.583	4.66
495.784	4.72
495.985	4.82
496.185	4.88
496.386	4.72
496.587	4.8
496.788	4.67
496.988	4.48
497.189	4.45
497.39	4.35
497.59	4.35
497.791	4.11
497.992	4.21
498.192	4.2
498.393	4.2
498.593	4.21
498.794	4.13
498.994	4.15
499.195	4.22
499.395	4.3
499.596	4.45
499.796	4.38
499.997	4.8
500.197	4.91
500.398	4.9
500.598	4.83
500.799	5.05
500.999	5.04
501.199	5.04
501.4	5.17
501.6	5.12
501.801	5.05
502.001	5.12
502.201	5.12
502.402	4.96
502.602	4.88
502.802	5.06
503.002	4.9
503.203	4.99
503.403	4.96
503.603	4.98
503.803	4.96
504.003	5.19
504.204	5.28
504.404	5.32
504.604	5.43
504.804	5.6
505.004	5.54
505.204	5.69
505.404	5.75
505.604	5.8
505.804	5.85
506.005	5.96
506.205	5.81
506.405	5.91
506.605	5.89
506.805	5.99
507.005	5.87
507.204	5.92
507.404	5.73
507.604	5.86
507.804	5.94
508.004	6.07
508.204	6.03
508.404	6.08
508.604	5.99
508.804	5.97
509.003	5.92
509.203	5.96
509.403	5.98
509.603	6.11
509.803	6.03
510.002	6.14
510.202	6.05
510.402	6.15
510.602	6.08
510.801	6.12
511.001	6.23
511.201	6.19
511.4	6.24
511.6	6.36
511.8	6.45
511.999	6.64
512.199	6.57
512.398	6.75
512.598	6.8
512.797	7.26
512.997	7.33
513.197	7.3
513.396	7.51
513.596	7.58
513.795	7.65
513.994	7.68
514.194	7.58
514.393	7.68
514.593	7.63
514.792	7.77
514.992	7.74
515.191	7.76
515.39	7.89
515.59	7.95
515.789	7.99
515.988	7.98
516.188	8.01
516.387	8.34
516.586	8.54
516.786	8.63
516.985	8.75
517.184	8.77
517.383	8.95
517.582	9
517.782	8.98
517.981	9.08
518.18	8.98
518.379	9.18
518.578	9.08
518.777	9.09
518.976	9.18
519.176	9.18
519.375	9.18
519.574	9.33
519.773	9.44
519.972	9.63
520.171	9.77
520.37	10.09
520.569	10.19
520.768	10.36
520.967	10.42
521.166	10.57
521.365	10.63
521.564	10.84
521.762	10.88
521.961	11.04
522.16	11.11
522.359	11.21
522.558	11.14
522.757	11.12
522.956	11.08
523.154	11.17
523.353	11.29
523.552	11.31
523.751	11.26
523.949	11.33
524.148	11.29
524.347	11.53
524.546	11.67
524.744	11.82
524.943	11.96
525.142	11.95
525.34	12.12
525.539	12.14
525.737	12.4
525.936	12.47
526.135	12.61
526.333	12.77
526.532	12.74
526.73	12.77
526.929	12.93
527.127	13.07
527.326	13.26
527.524	13.29
527.723	13.39
527.921	13.4
528.12	13.5
528.318	13.45
528.516	13.53
528.715	13.53
528.913	13.56
529.112	13.58
529.31	13.57
529.508	13.63
529.707	13.66
529.905	13.65
530.103	13.65
530.301	13.71
530.5	13.79
530.698	13.69
530.896	13.86
531.094	13.98
531.293	14.02
531.491	14.19
531.689	14.23
531.887	14.45
532.085	14.57
532.283	14.71
532.481	14.79
532.68	14.94
532.878	15.22
533.076	15.22
533.274	15.21
533.472	15.24
533.67	15.22
533.868	15.32
534.066	15.32
534.264	15.36
534.462	15.4
534.66	15.41
534.858	15.48
535.056	15.46
535.253	15.53
535.451	15.67
535.649	15.84
535.847	16.05
536.045	16.11
536.243	16.21
536.441	16.29
536.638	16.35
536.836	16.44
537.034	16.5
537.232	16.45
537.43	16.45
537.627	16.45
537.825	16.61
538.023	16.52
538.22	16.65
538.418	16.69
538.616	16.73
538.813	16.88
539.011	17.03
539.209	17.06
539.406	17.26
539.604	17.52
539.801	17.58
539.999	17.66
540.196	17.69
540.394	17.71
540.591	17.69
540.789	17.86
540.986	17.78
541.184	17.84
541.381	17.93
541.579	18.03
541.776	17.98
541.974	18.06
542.171	18.04
542.368	18.07
542.566	18.03
542.763	18.13
542.96	18.11
543.158	18.34
543.355	18.43
543.552	18.46
543.75	18.54
543.947	18.62
544.144	18.86
544.341	18.97
544.539	19.13
544.736	19.3
544.933	19.34
545.13	19.43
545.327	19.47
545.524	19.51
545.722	19.64
545.919	19.58
546.116	19.65
546.313	19.56
546.51	19.61
546.707	19.62
546.904	19.72
547.101	19.76
547.298	19.82
547.495	19.84
547.692	19.84
547.889	19.78
548.086	19.74
548.283	19.96
548.48	20.01
548.677	20.11
548.874	20.23
549.07	20.28
549.267	20.49
549.464	20.63
549.661	20.84
549.858	20.81
550.055	21.05
550.251	21.36
550.448	21.2
550.645	21.19
550.842	21.1
551.038	21
551.235	21.19
551.432	21.25
551.628	21.28
551.825	21.18
552.022	21.3
552.218	21.17
552.415	21.19
552.612	21.22
552.808	21.32
553.005	21.42
553.201	21.5
553.398	21.54
553.594	21.55
553.791	21.76
553.987	21.7
554.184	21.94
554.38	21.91
554.577	21.98
554.773	22.11
554.97	22.12
555.166	22.27
555.362	22.38
555.559	22.3
555.755	22.43
555.952	22.42
556.148	22.81
556.344	22.72
556.541	22.83
556.737	22.72
556.933	22.96
557.129	22.81
557.326	22.87
557.522	23.02
557.718	23.16
557.914	23.05
558.11	22.95
558.307	22.81
558.503	22.91
558.699	23.13
558.895	23.43
559.091	23.36
559.287	23.76
559.483	23.75
559.679	23.6
559.876	23.46
560.072	23.66
560.268	23.64
560.464	23.61
560.66	23.49
560.856	23.59
561.052	23.4
561.247	23.46
561.443	23.45
561.639	23.7
561.835	23.9
562.031	24.17
562.227	24.25
562.423	24.45
562.619	24.65
562.815	24.87
563.01	25
563.206	25.14
563.402	25.05
563.598	25.15
563.793	25.14
563.989	25.04
564.185	25.11
564.381	25.11
564.576	25.31
564.772	25.06
564.968	25
565.163	25.02
565.359	24.92
565.555	25.06
565.75	25.11
565.946	25.02
566.141	25.08
566.337	24.96
566.532	25.02
566.728	24.82
566.923	24.95
567.119	24.94
567.314	24.88
567.51	24.89
567.705	24.97
567.901	25.11
568.096	25.01
568.292	25.32
568.487	25.53
568.682	25.43
568.878	25.89
569.073	26.05
569.268	26.03
569.464	26.07
569.659	26.22
569.854	26.18
570.05	25.93
570.245	26.18
570.44	26.12
570.635	25.97
570.831	26.28
571.026	25.94
571.221	26.07
571.416	26.17
571.611	26.03
571.806	26.18
572.002	26.28
572.197	26.34
572.392	26.2
572.587	26.22
572.782	26.34
572.977	26.18
573.172	26.18
573.367	26.06
573.562	26.2
573.757	26.45
573.952	26.32
574.147	26.19
574.342	26.31
574.537	26.5
574.732	26.42
574.927	26.46
575.121	26.4
575.316	26.59
575.511	26.76
575.706	26.68
575.901	26.58
576.096	26.86
576.29	26.95
576.485	27.01
576.68	26.83
576.875	26.96
577.069	27.02
577.264	27.23
577.459	27.14
577.654	27.13
577.848	27.18
578.043	27.34
578.238	27.17
578.432	27.24
578.627	27.16
578.821	27.44
579.016	27.61
579.21	27.6
579.405	27.52
579.6	27.55
579.794	27.8
579.989	27.98
580.183	28.44
580.378	28.5
580.572	28.79
580.766	29.07
580.961	28.93
581.155	28.54
581.35	28.6
581.544	28.57
581.738	28.9
581.933	28.57
582.127	28.75
582.321	28.49
582.516	28.55
582.71	28.34
582.904	28.4
583.099	28.47
583.293	28.74
583.487	28.82
583.681	29.05
583.875	28.81
584.07	28.94
584.264	28.96
584.458	28.63
584.652	28.62
584.846	28.91
585.04	28.68
585.234	29.01
585.428	29.11
585.623	29.12
585.817	28.92
586.011	28.91
586.205	28.79
586.399	28.62
586.593	28.95
586.787	29.07
586.981	28.9
587.174	28.91
587.368	28.73
587.562	28.76
587.756	28.48
587.95	28.87
588.144	28.91
588.338	28.98
588.532	29.12
588.725	29.2
588.919	29.18
589.113	29.09
589.307	29.36
589.501	29.21
589.694	29.13
589.888	29.46
590.082	29.13
590.275	29.11
590.469	29.3
590.663	29.23
590.856	28.81
591.05	28.82
591.244	28.8
591.437	28.77
591.631	28.82
591.824	28.71
592.018	28.5
592.212	28.56
592.405	28.86
592.599	28.79
592.792	28.68
592.986	29.09
593.179	29.01
593.372	29.23
593.566	28.82
593.759	28.97
593.953	29.05
594.146	29.28
594.339	29.54
594.533	29.36
594.726	29.34
594.92	29.53
595.113	29.33
595.306	29.32
595.499	29.26
595.693	29.76
595.886	29.94
596.079	29.9
596.272	29.92
596.466	29.79
596.659	29.7
596.852	29.71
597.045	29.74
597.238	29.78
597.431	29.82
597.624	29.83
597.818	29.74
598.011	29.54
598.204	29.58
598.397	29.42
598.59	29.45
598.783	29.4
598.976	29.4
599.169	29.4
599.362	29.47
599.555	29.57
599.748	29.43
599.941	29.21
600.134	29.21
600.326	29.54
600.519	29.87
600.712	30.25
600.905	30.75
601.098	30.89
601.291	30.94
601.483	31.1
601.676	30.87
601.869	30.9
602.062	31
602.255	31.17
602.447	30.84
602.64	30.53
602.833	30.25
603.025	29.97
603.218	29.92
603.411	29.88
603.603	29.8
603.796	30.09
603.989	30.01
604.181	30.05
604.374	30.18
604.566	30.36
604.759	30.36
604.951	30.43
605.144	30.47
605.336	30.66
605.529	30.69
605.721	30.64
605.914	30.61
606.106	30.83
606.299	31.08
606.491	30.96
606.683	30.88
606.876	30.83
607.068	30.7
607.26	30.71
607.453	30.42
607.645	30.17
607.837	30.29
608.03	30.34
608.222	30.45
608.414	30.4
608.606	30.34
608.799	30.6
608.991	30.94
609.183	31.1
609.375	31.24
609.567	31.37
609.759	31.72
609.952	31.66
610.144	31.62
610.336	31.74
610.528	31.64
610.72	31.74
610.912	31.84
611.104	31.91
611.296	32.05
611.488	32.11
611.68	32.29
611.872	32.12
612.064	32.64
612.256	32.8
612.448	32.72
612.64	32.98
612.832	33.32
613.023	33
613.215	32.97
613.407	32.53
613.599	32.48
613.791	32.24
613.983	32.24
614.174	31.87
614.366	31.66
614.558	31.65
614.75	31.36
614.941	31.01
615.133	31.2
615.325	31.31
615.516	31.81
615.708	31.8
615.9	32.03
616.091	32.1
616.283	32.25
616.475	31.9
616.666	31.94
616.858	32.16
617.049	32
617.241	31.98
617.432	31.62
617.624	31.53
617.815	31.33
618.007	31.28
618.198	31.24
618.39	31.21
618.581	31.64
618.773	31.4
618.964	31.47
619.155	31.36
619.347	31.12
619.538	31.4
619.729	31.42
619.921	31.6
620.112	31.66
620.303	31.56
620.494	31.51
620.686	31.77
620.877	31.86
621.068	31.67
621.259	31.95
621.451	32.07
621.642	31.88
621.833	31.67
622.024	31.73
622.215	31.51
622.406	31.53
622.597	31.35
622.788	31.34
622.98	31.3
623.171	31.16
623.362	31.13
623.553	31.33
623.744	31.37
623.935	31.13
624.126	31.05
624.317	31.42
624.508	31.51
624.698	31.71
624.889	31.58
625.08	32.04
625.271	32.29
625.462	32.39
625.653	32.35
625.844	32.29
626.034	32.42
626.225	32.37
626.416	32.05
626.607	32.2
626.798	32.09
626.988	32.27
627.179	32.14
627.37	32.15
627.56	32.16
627.751	32.28
627.942	32.35
628.132	32.6
628.323	32.71
628.514	33.02
628.704	33
628.895	33.27
629.085	33.02
629.276	32.71
629.466	32.73
629.657	32.59
629.847	32.65
630.038	33.28
630.228	33.24
630.419	33.43
630.609	33.41
630.8	33.32
630.99	33.18
631.181	33.27
631.371	33.65
631.561	33.53
631.752	33.86
631.942	34.13
632.132	33.47
632.323	33.41
632.513	33.27
632.703	33.1
632.893	33.47
633.084	33.68
633.274	33.75
633.464	33.1
633.654	33.1
633.844	32.9
634.034	32.38
634.225	32.43
634.415	32.34
634.605	32.24
634.795	32.27
634.985	32.3
635.175	32.27
635.365	32.35
635.555	32.84
635.745	32.58
635.935	32.9
636.125	33.01
636.315	33.51
636.505	33.47
636.695	33.63
636.885	33.5
637.075	33.42
637.265	33.25
637.455	33.14
637.644	33.19
637.834	33.52
638.024	33.25
638.214	33.19
638.404	32.82
638.593	33.29
638.783	33.02
638.973	33.2
639.163	32.96
639.352	32.67
639.542	32.74
639.732	32.8
639.921	32.64
640.111	32.85
640.301	32.94
640.49	33.41
640.68	33.28
640.87	33.51
641.059	33.35
641.249	33.36
641.438	33.36
641.628	33.61
641.817	33.9
642.007	34.09
642.196	33.86
642.386	34.31
642.575	34.13
642.764	34
642.954	33.98
643.143	34.15
643.333	34.26
643.522	34.5
643.711	33.97
643.901	33.79
644.09	33.87
644.279	33.97
644.469	33.35
644.658	32.98
644.847	32.89
645.036	33
645.226	32.93
645.415	32.93
645.604	32.71
645.793	33.16
645.982	33.1
646.171	32.56
646.361	32.34
646.55	33.03
646.739	33.17
646.928	33.63
647.117	33.67
647.306	33.64
647.495	33.52
647.684	33.96
647.873	33.73
648.062	33.42
648.251	33.79
648.44	33.91
648.629	33.42
648.818	33.28
649.007	32.98
649.196	32.79
649.384	32.97
649.573	33.18
649.762	33.13
649.951	33.39
650.14	33.59
650.328	33.44
650.517	33.42
650.706	33.66
650.895	33.67
651.083	34.18
651.272	34.67
651.461	34.61
651.65	34.53
651.838	34.57
652.027	34.37
652.216	34.68
652.404	34.61
652.593	35.01
652.781	34.71
652.97	35
653.158	34.13
653.347	34.01
653.535	33.73
653.724	33.73
653.912	34.09
654.101	33.88
654.289	33.67
654.478	33.74
654.666	33.33
654.855	33.46
655.043	32.98
655.231	33.34
655.42	33.21
655.608	33.51
655.796	33.72
655.985	33.23
656.173	33.23
656.361	33.07
656.55	33.02
656.738	33.17
656.926	33.05
657.114	33.4
657.302	33.58
657.491	33.4
657.679	33.59
657.867	33.7
658.055	33.96
658.243	34.61
658.431	34.79
658.619	35.08
658.807	35.43
658.996	35.75
659.184	35.73
659.372	35.52
659.56	35.41
659.748	35.14
659.936	34.8
660.124	34.74
660.311	34.27
660.499	33.85
660.687	33.68
660.875	33.32
661.063	33.13
661.251	33.04
661.439	33.21
661.627	33.58
661.814	33.66
662.002	33.59
662.19	33.97
662.378	33.93
662.565	34.55
662.753	34.59
662.941	34.66
663.129	33.9
663.316	34.13
663.504	34.28
663.692	34.04
663.879	34.01
664.067	34.03
664.254	33.3
664.442	33.53
664.63	33.59
664.817	33.86
665.005	33.45
665.192	34.43
665.38	34.27
665.567	33.89
665.755	33.93
665.942	33.95
666.13	34.26
666.317	35.05
666.504	35.08
666.692	34.8
666.879	34.36
667.067	34.89
667.254	34.97
667.441	34.65
667.629	35.16
667.816	35.22
668.003	35.58
668.19	35.84
668.378	35.4
668.565	35.53
668.752	35.55
668.939	35.71
669.127	35.52
669.314	35.43
669.501	35.87
669.688	35.59
669.875	35.47
670.062	35.27
670.249	34.92
670.436	34.94
670.623	34.37
670.81	34.5
670.997	34.77
671.184	34.56
671.371	34.44
671.558	34.04
671.745	34.01
671.932	33.84
672.119	33.62
672.306	33.8
672.493	33.48
672.68	33.85
672.867	34.29
673.054	34.5
673.24	34.67
673.427	34.37
673.614	34.61
673.801	34.9
673.988	35.41
674.174	36.04
674.361	35.69
674.548	35.92
674.734	36.12
674.921	35.35
675.108	35.05
675.294	35.21
675.481	35.48
675.668	35.57
675.854	35.09
676.041	35.03
676.227	34.56
676.414	34.73
676.601	35.08
676.787	34.67
676.974	34.69
677.16	34.75
677.347	35.13
677.533	35.02
677.719	34.97
677.906	35.2
678.092	35.24
678.279	35.48
678.465	35.47
678.651	35.44
678.838	35.15
679.024	35
679.21	34.37
679.397	33.97
679.583	34.6
679.769	34.18
679.955	33.86
680.142	33.48
680.328	33.41
680.514	33.58
680.7	33.11
680.886	33.63
681.073	34.04
681.259	34.75
681.445	34.75
681.631	34.25
681.817	34.81
682.003	35.19
682.189	35.5
682.375	35.57
682.561	35.42
682.747	35.17
682.933	35.3
683.119	35.12
683.305	35.38
683.491	35.55
683.677	36.06
683.863	35.79
684.049	35.86
684.235	36.14
684.42	36.33
684.606	35.89
684.792	36.62
684.978	36.69
685.164	36.74
685.349	36.42
685.535	36.39
685.721	35.93
685.907	35.91
686.092	35.76
686.278	35.68
686.464	35.75
686.649	36.53
686.835	36.38
687.021	36.56
687.206	36.81
687.392	36.54
687.577	37.12
687.763	37.65
687.948	37.64
688.134	37.7
688.319	37.76
688.505	37.64
688.69	37.69
688.876	37.13
689.061	36.6
689.247	36.66
689.432	36.83
689.618	36.18
689.803	35.21
689.988	35.29
690.174	35.37
690.359	34.86
690.544	34.71
690.73	34.46
690.915	35.03
691.1	35.15
691.285	35.33
691.471	35.48
691.656	35.45
691.841	35.41
692.026	35.35
692.211	35.5
692.396	35.54
692.582	35.97
692.767	35.77
692.952	35.72
693.137	35.53
693.322	35.26
693.507	35.11
693.692	34.79
693.877	35.58
694.062	35.62
694.247	35.37
694.432	35.7
694.617	35.27
694.802	35.57
694.987	36.06
695.172	36.13
695.357	35.92
695.541	36.13
695.726	36.63
695.911	36.78
696.096	36.81
696.281	36.92
696.466	36.72
696.65	37.08
696.835	37.32
697.02	36.36
697.204	37
697.389	37.12
697.574	36.68
697.759	36.55
697.943	36.6
698.128	37.01
698.312	37.11
698.497	36.89
698.682	36.66
698.866	36.37
699.051	36.82
699.235	37.21
699.42	37.19
699.604	37.28
699.789	37.62
699.973	37.38
700.158	36.98
700.342	36.53
700.527	36.95
700.711	36.98
700.895	37.31
701.08	37.05
701.264	36.16
701.448	35.61
701.633	35.9
701.817	35.94
702.001	36.4
702.186	36.5
702.37	36.75
702.554	36.73
702.738	36.89
702.923	36.57
703.107	37.24
703.291	37.67
703.475	38.77
703.659	39.17
703.843	38.21
704.027	37.82
704.212	37.3
704.396	38.22
704.58	37.8
704.764	37.64
704.948	37.78
705.132	37.54
705.316	36.83
705.5	36.51
705.684	36.09
705.868	37.2
706.052	37.07
706.235	38.44
706.419	37.52
706.603	37.73
706.787	37.12
706.971	36.94
707.155	36.66
707.339	36.47
707.522	36.56
707.706	36.4
707.89	35.58
708.074	35.71
708.257	34.78
708.441	35.27
708.625	35.54
708.808	36.31
708.992	36.53
709.176	36.73
709.359	37.22
709.543	36.43
709.727	36.31
709.91	36.73
710.094	36.84
710.277	37.25
710.461	37.53
710.644	37.93
710.828	38.3
711.011	37.8
711.195	38.15
711.378	38.04
711.562	38.53
711.745	38.72
711.928	38.23
712.112	37.45
712.295	37.31
712.478	36.71
712.662	36.5
712.845	36.21
713.028	36.81
713.212	36.35
713.395	36.32
713.578	36.35
713.761	36.83
713.945	37.31
714.128	38.05
714.311	37.91
714.494	38.3
714.677	38.24
714.86	37.38
715.043	37.04
715.227	37.08
715.41	37.66
715.593	38.19
715.776	37.93
715.959	37.77
716.142	37.7
716.325	38.14
716.508	38.14
716.691	38.43
716.874	39.08
717.057	39.06
717.239	38.98
717.422	38.06
717.605	37.43
717.788	37
717.971	37.65
718.154	38.28
718.337	38.04
718.519	37.86
718.702	37.96
718.885	37.93
719.068	37.91
719.25	38.52
719.433	39.15
719.616	39.74
719.798	40.77
719.981	40.87
720.164	40.4
720.346	40.5
720.529	41.03
720.712	40.42
720.894	41.22
721.077	41.12
721.259	41.23
721.442	41.12
721.624	40.87
721.807	40.27
721.989	39.14
722.172	38.08
722.354	38.14
722.537	37.69
722.719	37.64
722.901	36.8
723.084	37.08
723.266	36.07
723.448	37.18
723.631	36.13
723.813	36.33
723.995	36.26
724.178	37.23
724.36	37.04
724.542	37.14
724.724	37.89
724.907	38.13
725.089	39.07
725.271	39.45
725.453	37.84
725.635	38.54
725.817	38.67
725.999	39.35
726.181	38.85
726.364	38.84
726.546	39.12
726.728	38.42
726.91	38.16
727.092	37.02
727.274	37.12
727.456	37.6
727.638	37.71
727.819	37.21
728.001	36.76
728.183	37.26
728.365	38.03
728.547	37.95
728.729	37.75
728.911	38.55
729.093	39.47
729.274	38.62
729.456	38.64
729.638	38.82
729.82	38.94
730.001	38.91
730.183	39.18
730.365	38.22
730.546	37.62
730.728	37.21
730.91	36.6
731.091	36.73
731.273	37.8
731.455	38.01
731.636	38.25
731.818	39.02
731.999	39.23
732.181	38.54
732.362	38.53
732.544	39.23
732.725	39.28
732.907	39.34
733.088	38.71
733.27	39.09
733.451	38.88
733.633	38.55
733.814	38.46
733.995	38.37
734.177	38.42
734.358	38.47
734.539	38.31
734.721	39.67
734.902	40.11
735.083	40.96
735.264	39.53
735.446	40.47
735.627	40.34
735.808	40.49
735.989	40.41
736.17	40.27
736.351	40.81
736.533	40.65
736.714	38.74
736.895	38.2
737.076	36.63
737.257	38.27
737.438	37.03
737.619	37.59
737.8	36.85
737.981	37.16
738.162	38.9
738.343	38.8
738.524	38.61
738.705	40.25
738.886	39.9
739.067	41.11
739.247	40.32
739.428	39.69
739.609	39.63
739.79	39.72
739.971	40.17
740.151	39.06
740.332	39.22
740.513	39.64
740.694	39.38
740.874	38.67
741.055	37.63
741.236	38.04
741.417	38.97
741.597	38.43
741.778	38.26
741.958	37.01
742.139	36.4
742.32	36.05
742.5	34.45
742.681	34.07
742.861	35.42
743.042	36.01
743.222	35.99
743.403	37.07
743.583	37.51
743.764	37.66
743.944	38.4
744.124	39.13
744.305	38.75
744.485	39.03
744.666	39.65
744.846	40.54
745.026	40.35
745.207	41.32
745.387	39.9
745.567	40.26
745.747	40.81
745.928	41.26
746.108	41.1
746.288	41.21
746.468	42.91
746.648	42.75
746.829	41.66
747.009	42.11
747.189	41.51
747.369	41.63
747.549	41.39
747.729	40.66
747.909	39.87
748.089	39.78
748.269	40.14
748.449	40.02
748.629	39.53
748.809	39.61
748.989	38.51
749.169	38.24
749.349	37.94
749.529	36.98
749.709	37.34
749.889	37.37
750.068	37.2
750.248	36.82
750.428	35.61
750.608	35.11
750.788	35.06
750.967	35.25
751.147	34.62
751.327	36.24
751.507	37.07
751.686	37.75
751.866	38.73
752.046	39.89
752.225	39.64
752.405	41.05
752.585	41.37
752.764	41.07
752.944	40.27
753.123	41.9
753.303	41.35
753.482	41.82
753.662	40.77
753.841	40.56
754.021	40.23
754.2	41.02
754.38	39.56
754.559	40.41
754.739	40.66
754.918	42.95
755.097	41.24
755.277	40.26
755.456	39.18
755.635	39.75
755.815	39.65
755.994	39.02
756.173	37.76
756.352	39
756.532	38.54
756.711	37.79
756.89	35.54
757.069	36.14
757.248	35.85
757.427	36.34
757.607	35.68
757.786	36.2
757.965	36.03
758.144	36.48
758.323	35.68
758.502	36.02
758.681	35.65
758.86	36.56
759.039	35.82
759.218	37.33
759.397	37.11
759.576	37.76
759.755	36.25
759.934	35.26
760.113	35.43
760.291	36.23
760.47	36.15
760.649	36.94
760.828	36.65
761.007	36.64
761.186	35.95
761.364	36.11
761.543	35.96
761.722	37.2
761.901	37.43
762.079	38.33
762.258	38.43
762.437	37.55
762.615	37.56
762.794	38.23
762.972	39.07
763.151	38.84
763.33	38.91
763.508	38.87
763.687	38.52
763.865	39.45
764.044	38.55
764.222	37.61
764.401	37.75
764.579	38.14
764.758	37.7
764.936	38.25
765.114	38.38
765.293	38.67
765.471	38.98
765.65	38.3
765.828	38.31
766.006	39.12
766.184	39.45
766.363	39.41
766.541	38.91
766.719	39.09
766.898	37.98
767.076	37.53
767.254	36.38
767.432	35.49
767.61	35.7
767.788	35.58
767.967	35.66
768.145	35.5
768.323	36.91
768.501	36.81
768.679	36.99
768.857	37.38
769.035	38.27
769.213	39.89
769.391	39.72
769.569	40.82
769.747	41.75
769.925	40.75
770.103	42.79
770.281	41.26
770.459	41.15
770.636	41.14
770.814	41.67
770.992	42.35
771.17	41.58
771.348	43.69
771.525	44.17
771.703	43.26
771.881	43.28
772.059	42.22
772.236	43.71
772.414	44.55
772.592	45.11
772.769	43.68
772.947	41.97
773.125	41.46
773.302	40.3
773.48	40.71
773.657	40.49
773.835	40
774.013	40.58
774.19	39.5
774.368	38.44
774.545	37.95
774.723	38.83
774.9	40.74
775.077	40.49
775.255	38.88
775.432	37.09
775.61	35.78
775.787	37.06
775.964	35.21
776.142	35.02
776.319	36.09
776.496	36.22
776.674	37.21
776.851	38.04
777.028	38.92
777.205	40.39
777.382	42.26
777.56	44.03
777.737	46.7
777.914	48.1
778.091	50.59
778.268	49.91
778.445	50.33
778.622	49.77
778.8	48.25
778.977	47.76
779.154	50.45
779.331	49.74
779.508	48.86
779.685	46.01
779.862	46.22
780.038	44.06
780.215	47.46
780.392	46.98
780.569	46.19
780.746	45.76
780.923	45.11
781.1	41.85
781.277	39.93
781.453	39.43
781.63	39.17
781.807	38.34
781.984	38.74
782.16	36.29
782.337	37.93
782.514	38.34
782.691	37.33
782.867	38.3
783.044	40.58
783.221	41.83
783.397	41.97
783.574	40.75
783.75	41.53
783.927	42.37
784.103	43.68
784.28	41.21
784.456	39.22
784.633	40.59
784.809	41.36
784.986	38.39
785.162	40.84
785.339	40.16
785.515	40.37
785.692	39.15
785.868	39.22
786.044	37.57
786.221	40.28
786.397	45.02
786.573	43.62
786.749	43.51
786.926	44.05
787.102	43.19
787.278	43.65
787.454	45.98
787.631	46.63
787.807	45.77
787.983	47.92
788.159	46.98
788.335	43.92
788.511	44.01
788.687	43.56
788.863	43.48
789.039	41.94
789.216	42.54
789.392	42.21
789.568	41.24
789.744	41.54
789.919	38.36
790.095	38.47
790.271	39.21
790.447	40.6
790.623	39.92
790.799	39.88
790.975	39.28
791.151	39.71
791.327	38.75
791.502	39.03
791.678	40.15
791.854	42.97
792.03	41.38
792.205	42.12
792.381	41.67
792.557	41.65
792.733	40.09
792.908	42.8
793.084	43.99
793.259	43.52
793.435	42.77
793.611	42.93
793.786	40.36
793.962	41.46
794.137	41.87
794.313	41.34
794.488	43.06
794.664	45.79
794.839	45.6
795.015	44.97
795.19	43.69
795.366	45
795.541	42.4
795.716	41.08
795.892	42.07
796.067	41.28
796.242	43.38
796.418	42.04
796.593	39.72
796.768	37.71
796.944	36.66
797.119	37.84
797.294	38.69
797.469	40.97
797.644	42.74
797.82	43.35
797.995	43.16
798.17	40.46
798.345	40.43
798.52	42.74
798.695	42.22
798.87	41.71
799.045	42.43
799.22	39.93
799.395	38.86
799.57	39.48
799.745	38.5
799.92	37.92
800.095	39.33
800.27	37.68
800.445	36.3
800.62	35.28
800.795	35.1
800.97	37.57
801.145	39.26
801.319	40.88
801.494	38.82
801.669	39.92
801.844	41.71
802.018	40.92
802.193	42.38
802.368	41.85
802.543	44.23
802.717	46.17
802.892	42.67
803.067	45.29
803.241	43.77
803.416	44.3
803.59	44.22
803.765	41.62
803.94	43.37
804.114	43.55
804.289	45.17
804.463	45.99
804.638	43.07
804.812	43.39
804.986	40.36
805.161	40.47
805.335	40.96
805.51	40.56
805.684	40.95
805.858	39.79
806.033	39.68
806.207	37.52
806.381	37.84
806.556	39.62
806.73	41.25
806.904	42.45
807.078	42.99
807.253	44.02
807.427	41.54
807.601	42.15
807.775	40.55
807.949	40.91
808.123	41.65
808.298	41.43
808.472	41.26
808.646	37.87
808.82	35.37
808.994	33.33
809.168	32.89
809.342	33.66
809.516	36.34
809.69	38.26
809.864	37.06
810.038	39.19
810.212	38.3
810.385	37.07
810.559	40.81
810.733	43.49
810.907	46.05
811.081	46.87
811.255	50.83
811.428	45.85
811.602	43.42
811.776	45.98
811.95	43.81
812.123	45.38
812.297	43.11
812.471	43.43
812.644	42.08
812.818	38.35
812.992	41.18
813.165	38.45
813.339	38.25
813.512	39.83
813.686	40.71
813.86	40.57
814.033	38.54
814.207	40.56
814.38	39.64
814.554	40.42
814.727	44.38
814.9	42.22
815.074	38.35
815.247	37
815.421	36.43
815.594	34.77
815.767	33.98
815.941	31.32
816.114	33.65
816.287	33.59
816.46	31.45
816.634	26.65
816.807	31.81
816.98	36.84
817.153	37.43
817.327	39.21
817.5	37.33
817.673	38.34
817.846	41.51
818.019	41.19
818.192	41.97
818.365	41.43
818.538	42.79
818.711	39.25
818.884	37.43
819.057	38.72
819.23	38.78
819.403	42.13
819.576	44.11
819.749	42.55
819.922	43.07
820.095	43.75
820.268	43.72
820.441	44.69
820.614	45.6
820.786	43.51
820.959	44.72
821.132	43.68
821.305	40.77
821.477	38.91
821.65	39.45
821.823	40.18
821.996	39.68
822.168	41.13
822.341	40.11
822.514	39.16
822.686	39.65
822.859	39.23
823.031	39.4
823.204	39.97
823.376	39.76
823.549	39.88
823.722	39.08
823.894	39.3
824.067	38.31
824.239	38.41
824.411	38.35
824.584	38.58
824.756	38.17
824.929	37.91
825.101	37.68
825.273	38.52
825.446	38.91
825.618	39.04
825.79	38.66
825.963	39.15
826.135	39.57
826.307	39.55
826.479	39.13
826.652	39.66
826.824	40.29
826.996	39.99
827.168	40
827.34	39.87
827.512	39.99
827.684	40.33
827.856	39.45
828.029	39.39
828.201	39.14
828.373	39.2
828.545	39.1
828.717	39
828.889	39.94
829.061	40.05
829.232	39.19
829.404	39.46
829.576	38.98
829.748	40.15
829.92	42.51
830.092	44.36
830.264	44.37
830.436	44.61
830.607	44.59
830.779	45.55
830.951	44.33
831.123	46.54
831.294	46.7
831.466	45.55
831.638	47.87
831.809	45.7
831.981	44.36
832.153	45
832.324	42.97
832.496	41.78
832.667	41.85
832.839	45.88
833.011	45.53
833.182	44.2
833.354	43.56
833.525	39.97
833.697	40.52
833.868	38.94
834.039	40.06
834.211	40.5
834.382	40.46
834.554	38.82
834.725	37.08
834.896	34.41
835.068	35.55
835.239	37.47
835.41	40.13
835.581	39.45
835.753	41.32
835.924	41.46
836.095	41.23
836.266	43.45
836.438	43.38
836.609	42.61
836.78	44.31
836.951	43.53
837.122	43.57
837.293	40.63
837.464	40.78
837.635	41.18
837.806	39.24
837.977	41.57
838.148	42.5
838.319	43.44
838.49	45.94
838.661	44.73
838.832	46.87
839.003	44.81
839.174	45.63
839.345	48.39
839.516	45.68
839.687	48.84
839.857	45.16
840.028	43.55
840.199	41.5
840.37	39.23
840.54	44.63
840.711	46.81
840.882	49.3
841.053	48.57
841.223	45.36
841.394	50.33
841.564	55.23
841.735	62.46
841.906	59.78
842.076	66.17
842.247	67.34
842.417	65.37
842.588	58.39
842.758	59.4
842.929	60.82
843.099	65.13
843.27	61.85
843.44	60.39
843.611	57.69
843.781	62.63
843.951	56.88
844.122	56.94
844.292	46.21
844.462	49.07
844.633	46.7
844.803	45.67
844.973	37.76
845.144	40.45
845.314	32.68
845.484	32.15
845.654	21.72
845.824	20.14
845.995	18.09
846.165	27.57
846.335	25.08
846.505	24.44
846.675	26.15
846.845	29.9
847.015	25.1
847.185	36.97
847.355	33.52
847.525	51.65
847.695	62.8
847.865	68.25
848.035	72.06
848.205	65.46
848.375	75.35
848.545	71.5
848.715	70.72
848.884	57.94
849.054	49.96
849.224	51.13
849.394	51.21
849.564	50.23
849.733	50.56
849.903	47.58
850.073	45.78
850.243	40.28
850.412	45.04
850.582	47.2
850.752	56.58
850.921	46.49
851.091	50.57
851.26	55.29
851.43	49.32
851.599	50.88
851.769	53.06
851.939	63.91
852.108	56.21
852.278	48.74
852.447	46.14
852.616	46.71
852.786	51.21
852.955	52.19
853.125	46.15
853.294	43.82
853.463	41.8
853.633	34.5
853.802	40.45
853.971	47.24
854.141	51.87
854.31	46.54
854.479	22.09
854.648	30.68
854.818	31.03
854.987	29.28
855.156	28.8
855.325	28.33
855.494	43.32
855.663	32.56
855.832	45.44
856.001	41.8
856.171	34.27
856.34	50.07
856.509	62.42
856.678	56.92
856.847	47.17
857.016	55.67
857.185	48.6
857.353	44
857.522	47.51
857.691	30.77
857.86	37.56
858.029	49.57
858.198	48.05
858.367	40.69
858.535	40.82
858.704	42.74
858.873	46.5
859.042	54.37
859.21	49.9
859.379	39.14
859.548	38.42
859.717	42.87
859.885	48.45
860.054	49.6
860.222	38.15
860.391	41.17
860.56	42.41
860.728	45.62
860.897	47.47
861.065	48.95
861.234	57.46
861.402	58.05
861.571	46.82
861.739	53.37
861.908	43.87
862.076	59.25
862.244	60.69
862.413	65.66
862.581	51.84
862.749	47.16
862.918	53.03
863.086	53.53
863.254	51.38
863.423	65.14
863.591	44.73
863.759	59.23
863.927	40.45
864.096	34.99
864.264	29.5
864.432	38.13
864.6	45.34
864.768	42.22
864.936	30.77
865.104	37.36
865.272	39.42
865.44	43.16
865.608	37.99
865.776	46.04
865.944	50.63
866.112	59.97
866.28	68.51
866.448	50.96
866.616	49.17
866.784	53.5
866.952	54.2
867.12	69.17
867.288	71.75
867.455	77.4
867.623	73.41
867.791	63.44
867.959	52.87
868.127	39.72
868.294	61.37
868.462	52.44
868.63	55.5
868.797	66.42
868.965	29.03
869.133	26.08
869.3	23.55
869.468	33.46
869.636	42.75
869.803	44.38
869.971	42.59
870.138	36.81
870.306	44.49
870.473	49.81
870.641	49.1
870.808	47.83
870.975	43.78
871.143	39.44
871.31	33.64
871.478	22.31
871.645	24.95
871.812	34.51
871.98	39.36
872.147	20.62
872.314	19.46
872.482	16.91
872.649	30.56
872.816	51.63
872.983	64.38
873.15	70.17
873.318	80.03
873.485	82.17
873.652	76.64
873.819	73.12
873.986	95.84
874.153	99.93
874.32	104.85
874.487	116
874.654	111.67
874.821	116.17
874.988	117.16
875.155	111.34
875.322	86.2
875.489	96.34
875.656	98.04
875.823	78.75
875.99	58.62
876.157	49.51
876.324	40.44
876.49	46.09
876.657	41.87
876.824	46.63
876.991	47.7
877.157	57.39
877.324	52.02
877.491	54.87
877.658	52.97
877.824	61.11
877.991	60.36
878.157	65.58
878.324	64.26
878.491	63.82
878.657	61.36
878.824	61.21
878.99	60.08
879.157	67.36
879.323	62.54
879.49	67.21
879.656	65.22
879.823	74.72
879.989	70.99
880.156	67.98
880.322	71.64
880.488	68.16
880.655	66.99
880.821	64.98
880.987	66.46
881.154	66.95
881.32	63.44
881.486	63.09
881.652	63.4
881.819	64.32
881.985	60.82
882.151	57.68
882.317	55.85
882.483	56.58
882.649	56.11
882.816	51.57
882.982	52.47
883.148	49.86
883.314	48.16
883.48	45.57
883.646	43.48
883.812	43.58
883.978	43.32
884.144	43.68
884.31	44.09
884.476	42.04
884.642	42.62
884.807	41.81
884.973	41.82
885.139	42.54
885.305	42.92
885.471	41.75
885.637	43.2
885.802	43.95
885.968	44.8
886.134	44.32
886.3	48.98
886.465	48.04
886.631	49.86
886.797	50.29
886.962	49.93
887.128	54.34
887.293	62.93
887.459	58.92
887.625	57.69
887.79	57.89
887.956	53.91
888.121	48.67
888.287	50.41
888.452	48.35
888.618	54.79
888.783	57.63
