Data from CB_099_Reflection_1.txt Node
Date: Sat Nov 14 17:41:27 EST 2015
User: robert
Spectrometer: USB4E03001
Autoset integration time: false
Trigger mode: 4
Integration Time (sec): 1.000000E-1
Scans to average: 15
Electric dark correction enabled: true
Nonlinearity correction enabled: false
Boxcar width: 5
Stray light correction enabled: false
XAxis mode: Wavelengths
Stop averaging: false
Number of Pixels in Spectrum: 3648
>>>>>Begin Spectral Data<<<<<
177.566	-48.73
177.785	1803.94
178.005	-302.88
178.225	-2.71
178.445	1078.95
178.665	43.95
178.885	2623.71
179.105	-33.06
179.324	-59.47
179.544	0.78
179.764	5.62
179.984	17.17
180.204	-23.41
180.423	22.49
180.643	60.58
180.863	68.32
181.083	43.97
181.302	68.09
181.522	55.6
181.742	47.53
181.961	54.16
182.181	28.74
182.401	40.63
182.621	80.19
182.84	7.88
183.06	24.18
183.279	35.17
183.499	72.95
183.719	12.93
183.938	-3.84
184.158	14.66
184.377	14.94
184.597	-8.18
184.816	12.11
185.036	14.23
185.256	35.8
185.475	42.31
185.695	39.94
185.914	42.36
186.134	59.6
186.353	77.61
186.572	70.74
186.792	80.62
187.011	90.29
187.231	84.02
187.45	80.49
187.67	65.06
187.889	55.53
188.108	54.2
188.328	65.09
188.547	63.5
188.766	50.22
188.986	62.72
189.205	51.88
189.424	50.15
189.644	67.33
189.863	74.52
190.082	72.81
190.302	90.07
190.521	75.42
190.74	56.54
190.959	50.46
191.178	33.19
191.398	24
191.617	51.96
191.836	41.28
192.055	22
192.274	10.98
192.494	10.57
192.713	-73.46
192.932	-23.69
193.151	-77
193.37	-67.9
193.589	-66.8
193.808	-38.97
194.027	-367.12
194.246	802.95
194.465	-1545.42
194.685	-32.19
194.904	-24.62
195.123	3.34
195.342	-23.31
195.561	28.78
195.78	30.36
195.999	52.7
196.218	25.69
196.436	45.83
196.655	37.11
196.874	53.49
197.093	54.6
197.312	66.76
197.531	63.42
197.75	66.37
197.969	58.16
198.188	65.32
198.407	70.23
198.625	98.5
198.844	97.85
199.063	116.79
199.282	114.86
199.501	126.34
199.719	91.58
199.938	87.76
200.157	83.48
200.376	105.21
200.594	100.38
200.813	106.63
201.032	79.69
201.251	90.74
201.469	64.88
201.688	54.85
201.907	45.82
202.125	37.74
202.344	43.41
202.563	12.83
202.781	-39.75
203	-63.77
203.218	-55.22
203.437	-27.43
203.656	-49.71
203.874	-51.81
204.093	-76.15
204.311	-13.6
204.53	-4.5
204.748	7.65
204.967	16.36
205.185	57.34
205.404	63.91
205.622	50.8
205.841	50.12
206.059	67.39
206.278	75.49
206.496	71.29
206.715	91.55
206.933	81.36
207.151	85.92
207.37	80.59
207.588	74.39
207.806	68
208.025	67.39
208.243	68.52
208.461	60.71
208.68	65.86
208.898	68.06
209.116	56.74
209.335	63.87
209.553	53.29
209.771	62.47
209.989	41.58
210.208	31.29
210.426	34.67
210.644	30.47
210.862	15.82
211.081	15.15
211.299	25.03
211.517	26.08
211.735	10.21
211.953	25.6
212.171	27.35
212.39	36.71
212.608	41.38
212.826	43.06
213.044	49.56
213.262	69.9
213.48	75.16
213.698	65.62
213.916	61.27
214.134	55.36
214.352	54.34
214.57	50.94
214.788	56.75
215.006	53.19
215.224	49.25
215.442	58.48
215.66	63.14
215.878	45.33
216.096	41.61
216.314	80.55
216.532	91.84
216.75	92.82
216.968	91.42
217.185	89.69
217.403	104.99
217.621	149.01
217.839	107.71
218.057	98.71
218.275	109.05
218.492	104.65
218.71	84.74
218.928	82.3
219.146	107.61
219.363	114.16
219.581	84.11
219.799	116.57
220.017	100.29
220.234	84.72
220.452	93.17
220.67	76.67
220.887	154.31
221.105	147.71
221.323	2833.13
221.54	341.29
221.758	2308.57
221.976	1104.48
222.193	216.74
222.411	282.25
222.629	566
222.846	747.73
223.064	-761.05
223.281	813.99
223.499	548.73
223.716	674.47
223.934	-354.5
224.151	-10.03
224.369	-11.94
224.586	5.01
224.804	22.58
225.021	23.69
225.239	26.43
225.456	26.34
225.674	22.65
225.891	7.49
226.108	-10.41
226.326	-4.14
226.543	-3.56
226.76	-7.52
226.978	-9.74
227.195	-25.81
227.413	-21.61
227.63	-9.68
227.847	-6.55
228.064	0.19
228.282	5
228.499	8.25
228.716	5.6
228.934	1.54
229.151	4.67
229.368	6.64
229.585	6.62
229.802	6.8
230.02	6.87
230.237	5.96
230.454	6.77
230.671	6.88
230.888	6.88
231.105	3.72
231.323	5.15
231.54	-6.33
231.757	-9.55
231.974	-10.21
232.191	-6.93
232.408	-8.64
232.625	-1.05
232.842	-7.45
233.059	-10.46
233.276	-17.49
233.493	-14.93
233.71	-4.59
233.927	12.42
234.144	8.96
234.361	6.39
234.578	0.18
234.795	7.21
235.012	2.38
235.229	2.53
235.446	-1.17
235.663	-0.76
235.879	1.2
236.096	-2.07
236.313	-7.66
236.53	-4.72
236.747	-4.54
236.964	-4.32
237.181	-16.89
237.397	-17.08
237.614	-18.17
237.831	-15.3
238.048	-22.75
238.264	-28.01
238.481	-35.87
238.698	-27.74
238.915	-23.66
239.131	-16.52
239.348	-17.37
239.565	-12.47
239.781	-6.98
239.998	-4.62
240.215	-7.77
240.431	-3.55
240.648	6.61
240.865	9.75
241.081	11.29
241.298	11.98
241.514	11.28
241.731	11.79
241.947	10.18
242.164	10.53
242.38	12.4
242.597	13.72
242.814	14.17
243.03	10.81
243.246	12.16
243.463	11.22
243.679	8.74
243.896	8.86
244.112	8.77
244.329	8.41
244.545	7.98
244.762	6.9
244.978	9.75
245.194	8.07
245.411	7.62
245.627	5.58
245.843	4.78
246.06	6.1
246.276	7.24
246.492	8.42
246.709	9.17
246.925	8.73
247.141	8.09
247.357	8.55
247.574	9.52
247.79	9.85
248.006	10.38
248.222	10.46
248.439	10.76
248.655	8.64
248.871	7.61
249.087	8.21
249.303	7.78
249.519	7.63
249.736	6.23
249.952	5.05
250.168	6.94
250.384	6.47
250.6	8.62
250.816	9.01
251.032	12.86
251.248	14.16
251.464	13.48
251.68	12.24
251.896	12.71
252.112	11.58
252.328	8.67
252.544	5.35
252.76	4.2
252.976	-0
253.192	-0.83
253.408	-3.07
253.624	-2.22
253.84	-2.8
254.056	-2.03
254.272	-5.15
254.487	-6.15
254.703	-2.4
254.919	-3.62
255.135	-2.63
255.351	-2.46
255.567	-1.31
255.782	2.57
255.998	1.71
256.214	-1.13
256.43	3.12
256.646	7.44
256.861	8.81
257.077	4.5
257.293	8.91
257.508	9.7
257.724	10.27
257.94	9.74
258.155	9.95
258.371	9.07
258.587	8.3
258.802	7.45
259.018	7.57
259.234	7.01
259.449	8.62
259.665	8.52
259.88	8.82
260.096	9.18
260.312	9.21
260.527	8.88
260.743	8.47
260.958	9.14
261.174	9.04
261.389	8.91
261.605	9.21
261.82	9.28
262.036	8.43
262.251	7.35
262.466	8.12
262.682	6.73
262.897	5.9
263.113	6.59
263.328	5.98
263.543	5.31
263.759	1.93
263.974	1.13
264.189	0.72
264.405	-1.37
264.62	-0.91
264.835	-2.35
265.051	2.49
265.266	2.34
265.481	3.84
265.696	5.69
265.912	7.05
266.127	9.69
266.342	11.08
266.557	11.01
266.773	12.75
266.988	11.47
267.203	11.44
267.418	9.75
267.633	11.44
267.848	10.44
268.064	10.66
268.279	9.09
268.494	7.75
268.709	6.43
268.924	6.6
269.139	5.69
269.354	8.12
269.569	7.58
269.784	7.22
269.999	5.01
270.214	3.66
270.429	1.25
270.644	2.01
270.859	3.05
271.074	3
271.289	3.15
271.504	4.71
271.719	3.97
271.934	4.08
272.149	5.66
272.363	6.3
272.578	8.19
272.793	8.56
273.008	8.1
273.223	9.09
273.438	7.6
273.653	8.01
273.867	6.39
274.082	5.71
274.297	6.98
274.512	4.62
274.726	3.42
274.941	2.67
275.156	4.7
275.371	5.29
275.585	3.37
275.8	5.67
276.015	3.73
276.229	5.45
276.444	5.49
276.659	5.08
276.873	6.15
277.088	6.54
277.302	6.7
277.517	6.46
277.732	5.67
277.946	6.8
278.161	5.52
278.375	6.39
278.59	5.83
278.804	6.89
279.019	5.24
279.233	5.37
279.448	4.38
279.662	4.59
279.877	3.52
280.091	5.19
280.306	4.66
280.52	4.26
280.735	5.2
280.949	5.76
281.163	5.4
281.378	5.39
281.592	5.56
281.806	6.58
282.021	5.71
282.235	7.22
282.449	6.38
282.664	6.52
282.878	8.38
283.092	7.26
283.307	7.07
283.521	6.4
283.735	6.7
283.949	5.9
284.164	7.44
284.378	8.36
284.592	7.42
284.806	7.52
285.02	7.86
285.234	7.54
285.449	8.89
285.663	8.94
285.877	9.36
286.091	8.89
286.305	9.56
286.519	8.8
286.733	8.07
286.947	8.85
287.161	9.15
287.375	9.16
287.589	9.01
287.803	8.46
288.017	8.06
288.231	8.16
288.445	9.29
288.659	9.25
288.873	9.54
289.087	9.5
289.301	7.92
289.515	7.78
289.729	6.71
289.943	6.09
290.157	4.72
290.371	5.45
290.584	5.91
290.798	4.8
291.012	4.9
291.226	4.7
291.44	5.19
291.654	5.14
291.867	5.17
292.081	6.51
292.295	7.23
292.509	7.87
292.722	7.41
292.936	7.46
293.15	9.88
293.364	9.91
293.577	9.56
293.791	10.06
294.005	11.65
294.218	11.89
294.432	10.71
294.645	10.53
294.859	12.1
295.073	12.2
295.286	11.68
295.5	10.7
295.713	10.45
295.927	10.92
296.14	10.84
296.354	10.1
296.568	9.39
296.781	9.88
296.994	10.45
297.208	9.43
297.421	9.5
297.635	9.16
297.848	9.56
298.062	9.11
298.275	9.56
298.489	9.57
298.702	10.2
298.915	10.45
299.129	10.9
299.342	11.13
299.555	11.08
299.769	11.51
299.982	12.67
300.195	12.2
300.409	12.85
300.622	11.3
300.835	11.35
301.048	10.66
301.262	10.52
301.475	9.4
301.688	8.12
301.901	8.72
302.115	7.96
302.328	7.22
302.541	8.52
302.754	8.46
302.967	10.11
303.18	8.57
303.393	9.26
303.607	9.99
303.82	10.68
304.033	12.14
304.246	12.09
304.459	12.2
304.672	12.2
304.885	11.46
305.098	11.51
305.311	11.5
305.524	12.83
305.737	11.17
305.95	10.59
306.163	10.23
306.376	8.26
306.589	8.84
306.802	8.66
307.015	8.88
307.228	8.78
307.44	9.74
307.653	8.99
307.866	8.96
308.079	10.41
308.292	11.62
308.505	12.21
308.718	12.63
308.93	12.21
309.143	12.26
309.356	11.73
309.569	12.42
309.781	12.9
309.994	12.66
310.207	12.53
310.42	12.02
310.632	12.02
310.845	12.04
311.058	13.43
311.27	13.89
311.483	14.51
311.696	15.09
311.908	15.25
312.121	13.83
312.333	14.41
312.546	14.47
312.759	15.21
312.971	14.91
313.184	14.42
313.396	12.65
313.609	11.28
313.821	10.57
314.034	10.09
314.246	9.43
314.459	11.42
314.671	10.89
314.884	10.39
315.096	9.16
315.309	8.09
315.521	8.42
315.733	9.87
315.946	9.71
316.158	9.13
316.371	10.33
316.583	9.37
316.795	8
317.008	9.06
317.22	10.09
317.432	10.69
317.644	10.99
317.857	12.95
318.069	13.21
318.281	14.13
318.494	14.68
318.706	14.27
318.918	14.4
319.13	15.27
319.342	14.97
319.555	14.22
319.767	14.21
319.979	13.69
320.191	13.25
320.403	12.25
320.615	12.8
320.827	12.1
321.039	11.04
321.252	12.72
321.464	13.21
321.676	12.6
321.888	13.02
322.1	13.04
322.312	14.24
322.524	13.73
322.736	14.93
322.948	14.45
323.16	15.94
323.372	16.11
323.584	14.53
323.796	13.85
324.007	14.44
324.219	14.64
324.431	15.85
324.643	15.11
324.855	16.06
325.067	16.22
325.279	16.66
325.491	17.19
325.702	16.95
325.914	17.99
326.126	18.59
326.338	19.88
326.55	21.51
326.761	21.59
326.973	23.06
327.185	23.26
327.396	23.84
327.608	24.18
327.82	23.19
328.032	24.56
328.243	25.24
328.455	26.53
328.666	26.12
328.878	26.54
329.09	27.29
329.301	29.54
329.513	30.06
329.725	29.41
329.936	29.86
330.148	30.3
330.359	30.44
330.571	31.28
330.782	30.64
330.994	30.9
331.205	30.39
331.417	30.14
331.628	28.74
331.84	27.56
332.051	27.22
332.262	28.03
332.474	28.81
332.685	29.41
332.897	28.96
333.108	29.23
333.319	28.68
333.531	27.84
333.742	28.12
333.953	28.11
334.165	27.98
334.376	29.18
334.587	29.44
334.799	30.54
335.01	30.6
335.221	31.57
335.432	31.91
335.644	32.85
335.855	34.34
336.066	34.37
336.277	34.15
336.488	34.28
336.7	33.49
336.911	33.23
337.122	31.99
337.333	31.94
337.544	30.56
337.755	29.04
337.966	29.01
338.177	28.93
338.388	29
338.599	29.35
338.811	30.23
339.022	31.29
339.233	32.44
339.444	32.32
339.655	31.82
339.866	31.94
340.076	33.15
340.287	32.39
340.498	32.21
340.709	31.57
340.92	32.74
341.131	32.63
341.342	31.91
341.553	30.87
341.764	31.56
341.975	32.41
342.185	33.57
342.396	32.5
342.607	33.04
342.818	32.39
343.029	33.1
343.239	32.85
343.45	32.38
343.661	32.86
343.872	32.26
344.082	32.33
344.293	31.75
344.504	31
344.714	32.3
344.925	32.26
345.136	33.26
345.346	32.77
345.557	31.47
345.768	31.98
345.978	31.97
346.189	32.56
346.399	32.27
346.61	32.44
346.821	32.09
347.031	31.95
347.242	32.26
347.452	30.9
347.663	30.15
347.873	29.95
348.084	29.45
348.294	29.64
348.504	29.02
348.715	29.15
348.925	28.99
349.136	29.29
349.346	28.42
349.557	27.9
349.767	28.31
349.977	29.14
350.188	29.09
350.398	29.69
350.608	30.19
350.819	30.11
351.029	30.73
351.239	29.93
351.449	29.64
351.66	30.43
351.87	31.38
352.08	31.61
352.29	31.3
352.501	31.82
352.711	31.98
352.921	31.78
353.131	32.09
353.341	31.21
353.552	31.79
353.762	32.22
353.972	32.49
354.182	31.26
354.392	31.1
354.602	30.73
354.812	31.19
355.022	30.47
355.232	30.6
355.442	30.82
355.652	30.75
355.862	30.86
356.072	30.24
356.282	29.38
356.492	30
356.702	30.22
356.912	31.1
357.122	30.82
357.332	30.44
357.542	29.19
357.752	28.86
357.962	29.2
358.171	28.91
358.381	29.31
358.591	29.59
358.801	29.15
359.011	28.91
359.221	28.21
359.43	27.29
359.64	27.36
359.85	27.81
360.06	27.87
360.269	28.13
360.479	28.03
360.689	27.78
360.899	27.44
361.108	27.5
361.318	27.35
361.528	27.55
361.737	27.91
361.947	28.35
362.156	28.54
362.366	28.27
362.576	27.88
362.785	28.11
362.995	28.57
363.204	28.67
363.414	29.06
363.623	28.95
363.833	28.98
364.042	28.8
364.252	28.78
364.461	28.67
364.671	28.78
364.88	28.55
365.09	28.18
365.299	27.86
365.509	27.79
365.718	26.99
365.927	26.97
366.137	27.05
366.346	27.72
366.555	27.31
366.765	26.56
366.974	26.52
367.183	26.57
367.393	26.56
367.602	26.47
367.811	26.56
368.021	26.91
368.23	26.7
368.439	26.62
368.648	26.29
368.857	26.28
369.067	26.57
369.276	26.65
369.485	26.28
369.694	26.32
369.903	26.21
370.112	25.94
370.321	26.28
370.531	26.47
370.74	25.83
370.949	25.25
371.158	25.01
371.367	25.09
371.576	24.58
371.785	24.66
371.994	24.62
372.203	25.02
372.412	25.08
372.621	24.76
372.83	24.64
373.039	24.91
373.248	25.23
373.457	24.98
373.666	24.59
373.874	24.56
374.083	24.26
374.292	23.83
374.501	22.59
374.71	22.28
374.919	22.18
375.128	22.21
375.336	22.58
375.545	22.63
375.754	22.56
375.963	22.59
376.171	22.15
376.38	22.31
376.589	22.54
376.798	22.35
377.006	22.59
377.215	22.3
377.424	21.73
377.632	21.16
377.841	20.7
378.05	20.41
378.258	20.42
378.467	20.45
378.675	20.62
378.884	20.64
379.093	20.71
379.301	20.18
379.51	20.15
379.718	20.53
379.927	20.57
380.135	20.92
380.344	21.2
380.552	20.48
380.761	20.72
380.969	20.48
381.177	20.56
381.386	20.28
381.594	20.79
381.803	19.94
382.011	19.85
382.219	19.81
382.428	19.86
382.636	19.83
382.845	20.08
383.053	20.37
383.261	20.1
383.469	19.8
383.678	20.38
383.886	19.86
384.094	20.34
384.302	20
384.511	19.91
384.719	19.63
384.927	19.58
385.135	19.43
385.343	19.06
385.552	19.12
385.76	18.8
385.968	18.19
386.176	17.67
386.384	17.49
386.592	17.46
386.8	16.95
387.008	16.8
387.216	16.67
387.424	16.8
387.633	16.29
387.841	16.16
388.049	16.62
388.257	16.76
388.465	17.21
388.672	17.42
388.88	17.72
389.088	17.9
389.296	17.59
389.504	17.19
389.712	17.43
389.92	17.69
390.128	17.68
390.336	16.93
390.544	17.17
390.751	16.42
390.959	15.81
391.167	15.56
391.375	15.5
391.583	15.25
391.79	15.53
391.998	15.13
392.206	15.35
392.414	14.99
392.621	14.84
392.829	14.38
393.037	14.89
393.244	14.99
393.452	14.64
393.66	14.69
393.867	14.52
394.075	14.2
394.283	14.02
394.49	13.68
394.698	13.79
394.905	14.08
395.113	14.31
395.32	14.47
395.528	14.44
395.735	14.71
395.943	14.28
396.15	14.58
396.358	14.76
396.565	14.85
396.773	14.7
396.98	14.57
397.188	14.54
397.395	14.4
397.602	14.33
397.81	14.25
398.017	14.03
398.225	14.45
398.432	14.48
398.639	14.47
398.847	14.74
399.054	14.62
399.261	14.68
399.468	14.5
399.676	14.54
399.883	14.42
400.09	14.47
400.297	14.36
400.505	14.08
400.712	14
400.919	13.69
401.126	13.23
401.333	13.39
401.54	13.48
401.748	13.59
401.955	13.52
402.162	13.47
402.369	13.41
402.576	13.43
402.783	13.67
402.99	13.57
403.197	13.76
403.404	13.87
403.611	13.62
403.818	13.68
404.025	13.64
404.232	13.32
404.439	13.27
404.646	13.36
404.853	13.43
405.06	13.06
405.267	12.96
405.474	12.82
405.681	12.71
405.887	12.82
406.094	12.4
406.301	12.48
406.508	12.48
406.715	12.25
406.922	12.04
407.128	12.11
407.335	12.35
407.542	12.5
407.749	12.65
407.955	12.62
408.162	12.72
408.369	12.8
408.575	12.66
408.782	12.72
408.989	12.65
409.195	13.13
409.402	12.91
409.609	12.78
409.815	12.73
410.022	12.61
410.228	12.62
410.435	12.6
410.642	13.08
410.848	12.64
411.055	12.63
411.261	12.89
411.468	12.42
411.674	12.62
411.881	12.45
412.087	12.44
412.294	12.39
412.5	12.5
412.706	12.28
412.913	11.72
413.119	12.14
413.326	12.34
413.532	12.03
413.738	12
413.945	11.77
414.151	11.96
414.357	12.09
414.564	12
414.77	11.65
414.976	11.93
415.182	11.89
415.389	11.69
415.595	11.47
415.801	11.42
416.007	11.54
416.214	11.42
416.42	11.26
416.626	11.18
416.832	11.26
417.038	11.36
417.244	11.31
417.45	11.5
417.657	11.53
417.863	11.6
418.069	11.93
418.275	11.65
418.481	11.81
418.687	12.02
418.893	12.07
419.099	11.98
419.305	12.08
419.511	11.93
419.717	11.85
419.923	11.76
420.129	11.7
420.335	11.5
420.541	11.78
420.746	11.72
420.952	11.53
421.158	11.51
421.364	11.44
421.57	11.4
421.776	11.48
421.982	11.39
422.187	11.37
422.393	11.36
422.599	11.36
422.805	11.21
423.01	11.14
423.216	11.18
423.422	11.05
423.628	11.15
423.833	11.13
424.039	11.3
424.245	11.32
424.45	11.46
424.656	11.55
424.862	11.54
425.067	11.5
425.273	11.58
425.478	11.61
425.684	11.66
425.889	11.62
426.095	11.74
426.301	11.4
426.506	11.35
426.712	11.29
426.917	11.31
427.123	11.25
427.328	11.65
427.533	11.47
427.739	11.52
427.944	11.58
428.15	11.51
428.355	11.1
428.561	11.26
428.766	11.48
428.971	11.51
429.177	11.35
429.382	11.52
429.587	11.07
429.793	10.95
429.998	10.79
430.203	10.59
430.408	10.7
430.614	10.83
430.819	10.82
431.024	10.74
431.229	10.53
431.434	10.51
431.64	10.57
431.845	10.53
432.05	10.81
432.255	10.87
432.46	10.93
432.665	10.78
432.87	10.95
433.076	10.97
433.281	10.84
433.486	11.05
433.691	10.96
433.896	10.82
434.101	10.84
434.306	10.71
434.511	10.65
434.716	10.63
434.921	10.75
435.126	10.65
435.331	10.69
435.535	10.69
435.74	10.56
435.945	10.63
436.15	10.68
436.355	10.57
436.56	10.48
436.765	10.5
436.97	10.56
437.174	10.53
437.379	10.54
437.584	10.56
437.789	10.6
437.993	10.69
438.198	10.77
438.403	10.88
438.608	11.11
438.812	11.2
439.017	11.19
439.222	11.34
439.426	11.25
439.631	11.23
439.836	11.11
440.04	11.28
440.245	11.16
440.45	11.08
440.654	10.87
440.859	10.79
441.063	10.8
441.268	10.76
441.472	10.6
441.677	10.73
441.881	10.82
442.086	10.88
442.29	10.66
442.495	10.71
442.699	10.73
442.904	10.86
443.108	10.67
443.312	10.67
443.517	10.61
443.721	10.4
443.925	10.21
444.13	10.18
444.334	10.04
444.538	10.1
444.743	10.12
444.947	10.19
445.151	10.21
445.356	10.49
445.56	10.6
445.764	10.84
445.968	10.97
446.173	11.09
446.377	10.9
446.581	10.87
446.785	10.85
446.989	10.88
447.193	10.92
447.398	10.91
447.602	10.84
447.806	10.86
448.01	10.69
448.214	10.77
448.418	10.51
448.622	10.55
448.826	10.64
449.03	10.75
449.234	10.69
449.438	10.54
449.642	10.48
449.846	10.32
450.05	10.16
450.254	10.09
450.458	9.93
450.662	10.15
450.866	10.22
451.069	10.36
451.273	10.31
451.477	10.27
451.681	10.19
451.885	10.27
452.089	10.24
452.292	10.28
452.496	10.48
452.7	10.47
452.904	10.46
453.107	10.35
453.311	10.23
453.515	10.33
453.719	10.46
453.922	10.4
454.126	10.3
454.33	10.33
454.533	10.23
454.737	10.03
454.94	10.2
455.144	10.23
455.348	10.3
455.551	10.28
455.755	10.08
455.958	10.05
456.162	10.17
456.365	10.23
456.569	10.27
456.772	10.26
456.976	10.56
457.179	10.38
457.383	10.44
457.586	10.44
457.79	10.49
457.993	10.64
458.196	10.54
458.4	10.69
458.603	10.5
458.807	10.51
459.01	10.48
459.213	10.37
459.417	10.44
459.62	10.3
459.823	10.27
460.026	10.19
460.23	10.1
460.433	10.04
460.636	10.04
460.839	10.12
461.042	10.2
461.246	10.23
461.449	10.08
461.652	10.07
461.855	10.13
462.058	10.2
462.261	10.29
462.464	10.16
462.668	10.14
462.871	9.96
463.074	10.04
463.277	9.94
463.48	9.71
463.683	9.64
463.886	9.67
464.089	9.57
464.292	9.49
464.495	9.49
464.698	9.63
464.901	9.83
465.104	9.79
465.306	9.71
465.509	9.57
465.712	9.88
465.915	9.9
466.118	9.73
466.321	9.68
466.524	9.84
466.726	9.72
466.929	9.53
467.132	9.51
467.335	9.45
467.538	9.48
467.74	9.53
467.943	9.49
468.146	9.71
468.348	9.93
468.551	10.08
468.754	10.02
468.956	10.01
469.159	10.11
469.362	10.13
469.564	10.32
469.767	10.33
469.969	10.57
470.172	10.46
470.375	10.23
470.577	10.06
470.78	10.1
470.982	10.21
471.185	10.19
471.387	10.2
471.59	10.14
471.792	9.95
471.995	9.98
472.197	9.81
472.399	9.64
472.602	9.79
472.804	9.69
473.007	9.65
473.209	9.58
473.411	9.5
473.614	9.54
473.816	9.54
474.018	9.9
474.22	9.89
474.423	9.87
474.625	10.14
474.827	10.15
475.03	10.21
475.232	10.08
475.434	10.36
475.636	10.66
475.838	10.76
476.04	10.74
476.243	10.59
476.445	10.62
476.647	10.56
476.849	10.48
477.051	10.48
477.253	10.46
477.455	10.43
477.657	10.21
477.859	10.02
478.061	10.02
478.263	10.01
478.465	9.87
478.667	9.91
478.869	9.93
479.071	9.96
479.273	10.01
479.475	9.98
479.677	10
479.879	10.06
480.081	10.15
480.283	9.98
480.485	9.91
480.686	10.13
480.888	10.06
481.09	10.12
481.292	10.13
481.494	10.01
481.695	10.09
481.897	10.2
482.099	10.07
482.301	10.1
482.502	10.14
482.704	10.17
482.906	10.09
483.107	10.08
483.309	10.1
483.511	10.13
483.712	10.14
483.914	10.14
484.115	10.16
484.317	10.18
484.519	10.16
484.72	10.13
484.922	10.15
485.123	10.14
485.325	10.11
485.526	10.09
485.728	10.02
485.929	10.07
486.131	10
486.332	9.98
486.534	9.95
486.735	9.91
486.936	9.95
487.138	9.93
487.339	9.92
487.541	10.05
487.742	10
487.943	10.05
488.144	10.07
488.346	10.09
488.547	10.04
488.748	10.04
488.95	10.15
489.151	10.07
489.352	10.07
489.553	10.12
489.755	10.09
489.956	10.12
490.157	10.08
490.358	9.97
490.559	10.05
490.76	10.11
490.961	10.1
491.163	9.98
491.364	10.02
491.565	9.94
491.766	9.94
491.967	9.86
492.168	9.93
492.369	9.92
492.57	9.98
492.771	9.93
492.972	9.89
493.173	9.91
493.374	10.01
493.575	10.06
493.776	10.26
493.976	10.22
494.177	10.16
494.378	10.15
494.579	10.3
494.78	10.3
494.981	10.29
495.182	10.35
495.382	10.34
495.583	10.25
495.784	10.25
495.985	10.06
496.185	10.05
496.386	10
496.587	9.98
496.788	9.94
496.988	9.87
497.189	9.96
497.39	10.14
497.59	10.13
497.791	10.19
497.992	10.25
498.192	10.21
498.393	10.26
498.593	10.48
498.794	10.31
498.994	10.33
499.195	10.27
499.395	10.36
499.596	10.28
499.796	10.25
499.997	10.33
500.197	10.26
500.398	10.32
500.598	10.4
500.799	10.42
500.999	10.48
501.199	10.43
501.4	10.66
501.6	10.42
501.801	10.27
502.001	10.39
502.201	10.28
502.402	10.26
502.602	10.32
502.802	10.19
503.002	10.18
503.203	10.45
503.403	10.41
503.603	10.4
503.803	10.52
504.003	10.6
504.204	10.62
504.404	10.87
504.604	11.01
504.804	11.09
505.004	11.31
505.204	11.29
505.404	11.3
505.604	11.42
505.804	11.42
506.005	11.5
506.205	11.71
506.405	11.88
506.605	11.9
506.805	11.78
507.005	11.83
507.204	11.9
507.404	11.84
507.604	11.82
507.804	11.95
508.004	12.03
508.204	12.13
508.404	11.99
508.604	12.03
508.804	11.94
509.003	12.28
509.203	12.33
509.403	12.38
509.603	12.54
509.803	12.63
510.002	12.76
510.202	12.85
510.402	12.97
510.602	13.07
510.801	13.19
511.001	13.35
511.201	13.34
511.4	13.35
511.6	13.32
511.8	13.53
511.999	13.56
512.199	13.45
512.398	13.42
512.598	13.32
512.797	13.42
512.997	13.23
513.197	13.24
513.396	13.18
513.596	13.31
513.795	13.47
513.994	13.37
514.194	13.49
514.393	13.59
514.593	13.77
514.792	13.9
514.992	14.05
515.191	14.35
515.39	14.42
515.59	14.58
515.789	14.7
515.988	14.72
516.188	14.99
516.387	15.16
516.586	15.33
516.786	15.36
516.985	15.42
517.184	15.53
517.383	15.45
517.582	15.52
517.782	15.64
517.981	15.65
518.18	15.77
518.379	15.81
518.578	15.78
518.777	15.73
518.976	15.81
519.176	15.91
519.375	15.94
519.574	16.12
519.773	16.15
519.972	16.18
520.171	16.35
520.37	16.37
520.569	16.39
520.768	16.47
520.967	16.61
521.166	16.77
521.365	16.91
521.564	16.96
521.762	17.02
521.961	17.13
522.16	17.27
522.359	17.37
522.558	17.51
522.757	17.53
522.956	17.74
523.154	17.9
523.353	17.95
523.552	18.17
523.751	18.34
523.949	18.56
524.148	18.6
524.347	18.68
524.546	18.74
524.744	18.77
524.943	18.93
525.142	18.83
525.34	18.8
525.539	18.81
525.737	18.83
525.936	18.84
526.135	18.88
526.333	18.92
526.532	19.08
526.73	19.22
526.929	19.25
527.127	19.36
527.326	19.48
527.524	19.6
527.723	19.78
527.921	19.89
528.12	20.01
528.318	20.06
528.516	20.2
528.715	20.25
528.913	20.25
529.112	20.32
529.31	20.37
529.508	20.48
529.707	20.61
529.905	20.64
530.103	20.64
530.301	20.6
530.5	20.69
530.698	20.71
530.896	20.74
531.094	20.83
531.293	20.91
531.491	20.84
531.689	20.9
531.887	20.88
532.085	20.94
532.283	20.91
532.481	21.17
532.68	21.18
532.878	21.33
533.076	21.39
533.274	21.52
533.472	21.63
533.67	21.78
533.868	21.82
534.066	21.91
534.264	21.97
534.462	22.23
534.66	22.18
534.858	22.25
535.056	22.26
535.253	22.33
535.451	22.27
535.649	22.38
535.847	22.35
536.045	22.48
536.243	22.57
536.441	22.76
536.638	22.67
536.836	22.84
537.034	22.91
537.232	22.95
537.43	23.03
537.627	23.17
537.825	23.17
538.023	23.26
538.22	23.33
538.418	23.35
538.616	23.43
538.813	23.61
539.011	23.67
539.209	23.81
539.406	24.03
539.604	24.09
539.801	24.15
539.999	24.28
540.196	24.35
540.394	24.39
540.591	24.49
540.789	24.37
540.986	24.4
541.184	24.41
541.381	24.47
541.579	24.36
541.776	24.42
541.974	24.47
542.171	24.51
542.368	24.61
542.566	24.62
542.763	24.63
542.96	24.69
543.158	24.77
543.355	24.84
543.552	24.82
543.75	24.89
543.947	24.96
544.144	25.02
544.341	25.03
544.539	25.05
544.736	25.1
544.933	25.24
545.13	25.26
545.327	25.26
545.524	25.15
545.722	25.14
545.919	25.29
546.116	25.33
546.313	25.28
546.51	25.33
546.707	25.31
546.904	25.26
547.101	25.15
547.298	25.28
547.495	25.28
547.692	25.47
547.889	25.55
548.086	25.57
548.283	25.42
548.48	25.43
548.677	25.45
548.874	25.48
549.07	25.64
549.267	25.86
549.464	25.83
549.661	25.75
549.858	25.81
550.055	25.94
550.251	25.85
550.448	25.84
550.645	25.97
550.842	25.96
551.038	26.05
551.235	26.26
551.432	25.98
551.628	25.88
551.825	25.92
552.022	25.94
552.218	25.88
552.415	25.93
552.612	26.1
552.808	25.99
553.005	25.99
553.201	25.97
553.398	25.85
553.594	25.87
553.791	26.05
553.987	26.03
554.184	26.01
554.38	26.1
554.577	26.22
554.773	26.51
554.97	26.64
555.166	26.71
555.362	26.85
555.559	26.77
555.755	26.92
555.952	26.83
556.148	26.99
556.344	27.11
556.541	27.14
556.737	27.2
556.933	26.92
557.129	26.97
557.326	27.13
557.522	27.21
557.718	27.18
557.914	27.24
558.11	27.54
558.307	27.55
558.503	27.58
558.699	27.57
558.895	27.44
559.091	27.43
559.287	27.53
559.483	27.52
559.679	27.53
559.876	27.64
560.072	27.48
560.268	27.23
560.464	27.5
560.66	27.45
560.856	27.64
561.052	27.83
561.247	27.82
561.443	27.88
561.639	27.88
561.835	27.72
562.031	27.95
562.227	28.05
562.423	28.01
562.619	27.84
562.815	27.98
563.01	27.8
563.206	28.07
563.402	28.17
563.598	28.03
563.793	28.04
563.989	28.22
564.185	27.93
564.381	27.91
564.576	28.26
564.772	28.4
564.968	28.35
565.163	28.3
565.359	28.23
565.555	28.23
565.75	28.24
565.946	28.44
566.141	28.4
566.337	28.57
566.532	28.61
566.728	28.47
566.923	28.34
567.119	28.33
567.314	28.31
567.51	28.14
567.705	28.05
567.901	27.92
568.096	27.81
568.292	28.02
568.487	28.1
568.682	28.18
568.878	28.45
569.073	28.46
569.268	28.5
569.464	28.66
569.659	28.78
569.854	29.07
570.05	29.39
570.245	29.5
570.44	29.24
570.635	29.41
570.831	29.16
571.026	28.83
571.221	28.93
571.416	28.87
571.611	28.98
571.806	28.86
572.002	28.88
572.197	28.86
572.392	28.63
572.587	28.56
572.782	28.48
572.977	28.77
573.172	28.9
573.367	28.84
573.562	28.95
573.757	28.84
573.952	28.82
574.147	28.79
574.342	28.85
574.537	28.8
574.732	29.1
574.927	28.98
575.121	28.85
575.316	28.87
575.511	28.99
575.706	29.01
575.901	28.88
576.096	29.1
576.29	29.17
576.485	29.1
576.68	29.24
576.875	29.17
577.069	29.21
577.264	29.4
577.459	29.45
577.654	29.47
577.848	29.43
578.043	29.62
578.238	29.57
578.432	29.26
578.627	29.25
578.821	29.43
579.016	29.35
579.21	29.62
579.405	29.65
579.6	29.39
579.794	29.41
579.989	29.5
580.183	29.54
580.378	29.68
580.572	29.87
580.766	29.74
580.961	29.58
581.155	29.52
581.35	29.47
581.544	29.47
581.738	29.76
581.933	29.78
582.127	29.96
582.321	29.81
582.516	29.45
582.71	29.53
582.904	29.45
583.099	29.52
583.293	29.84
583.487	29.74
583.681	29.69
583.875	29.53
584.07	29.4
584.264	29.33
584.458	29.53
584.652	29.8
584.846	29.87
585.04	29.86
585.234	29.87
585.428	29.69
585.623	30.04
585.817	30.2
586.011	30.21
586.205	30.32
586.399	30.16
586.593	29.81
586.787	30.08
586.981	30.11
587.174	30.45
587.368	30.49
587.562	30.41
587.756	29.89
587.95	29.87
588.144	30.21
588.338	29.93
588.532	30.15
588.725	30.44
588.919	30.45
589.113	30.33
589.307	30.21
589.501	30.19
589.694	30.55
589.888	30.69
590.082	30.82
590.275	30.7
590.469	30.85
590.663	30.57
590.856	30.74
591.05	30.57
591.244	30.67
591.437	30.74
591.631	30.73
591.824	30.48
592.018	30.44
592.212	30.2
592.405	30.15
592.599	30.16
592.792	30.08
592.986	29.8
593.179	29.64
593.372	29.88
593.566	30.06
593.759	30.16
593.953	30.29
594.146	30.4
594.339	30.56
594.533	30.66
594.726	30.77
594.92	30.97
595.113	31.17
595.306	31.29
595.499	31.05
595.693	31.11
595.886	31.22
596.079	31.33
596.272	31.25
596.466	30.97
596.659	30.94
596.852	31.04
597.045	31.13
597.238	31
597.431	31.14
597.624	31.26
597.818	31.07
598.011	30.83
598.204	30.64
598.397	30.64
598.59	30.89
598.783	30.92
598.976	30.71
599.169	30.79
599.362	30.88
599.555	30.81
599.748	30.89
599.941	30.95
600.134	31.21
600.326	31.11
600.519	30.98
600.712	30.72
600.905	30.65
601.098	30.45
601.291	30.35
601.483	30.37
601.676	30.26
601.869	30.14
602.062	30.31
602.255	30.12
602.447	30.33
602.64	30.69
602.833	30.98
603.025	31.2
603.218	31.33
603.411	31.4
603.603	31.46
603.796	31.38
603.989	31.45
604.181	31.44
604.374	31.83
604.566	31.8
604.759	31.56
604.951	31.61
605.144	31.43
605.336	31.75
605.529	31.8
605.721	31.81
605.914	32.08
606.106	32.12
606.299	31.96
606.491	31.66
606.683	31.62
606.876	31.61
607.068	31.4
607.26	31.46
607.453	31.32
607.645	30.93
607.837	30.92
608.03	30.75
608.222	30.52
608.414	30.73
608.606	30.72
608.799	30.71
608.991	31.01
609.183	31.26
609.375	31.41
609.567	31.53
609.759	31.76
609.952	32.08
610.144	32.2
610.336	32.72
610.528	32.6
610.72	32.74
610.912	33.02
611.104	33.08
611.296	32.95
611.488	32.96
611.68	32.83
611.872	32.99
612.064	32.62
612.256	32.57
612.448	32.21
612.64	32.32
612.832	32.26
613.023	32.22
613.215	32.03
613.407	32.17
613.599	31.94
613.791	31.91
613.983	31.68
614.174	31.67
614.366	31.77
614.558	31.83
614.75	31.96
614.941	32.07
615.133	31.88
615.325	31.89
615.516	31.8
615.708	32.02
615.9	31.94
616.091	32.01
616.283	32.1
616.475	31.93
616.666	31.72
616.858	31.59
617.049	31.49
617.241	31.36
617.432	31.45
617.624	31.13
617.815	30.93
618.007	31.27
618.198	31.44
618.39	31.37
618.581	31.45
618.773	31.56
618.964	31.55
619.155	31.88
619.347	31.89
619.538	31.95
619.729	32.35
619.921	32.71
620.112	32.45
620.303	32.32
620.494	32.41
620.686	32.44
620.877	32.33
621.068	32.35
621.259	31.86
621.451	32.18
621.642	32.04
621.833	32.08
622.024	31.68
622.215	31.66
622.406	31.77
622.597	31.75
622.788	31.83
622.98	31.82
623.171	32.16
623.362	32.45
623.553	32.39
623.744	32.54
623.935	32.5
624.126	32.87
624.317	32.72
624.508	32.78
624.698	32.83
624.889	32.54
625.08	32.52
625.271	32.46
625.462	32.3
625.653	32.48
625.844	32.36
626.034	32.42
626.225	32.39
626.416	32.73
626.607	32.73
626.798	32.75
626.988	32.95
627.179	33.21
627.37	33.22
627.56	33.29
627.751	33.16
627.942	33.32
628.132	33.27
628.323	33.31
628.514	33.04
628.704	32.97
628.895	32.82
629.085	32.71
629.276	32.69
629.466	32.56
629.657	32.49
629.847	32.4
630.038	32.36
630.228	32.3
630.419	32.29
630.609	32.56
630.8	32.46
630.99	32.55
631.181	32.52
631.371	32.48
631.561	32.56
631.752	32.75
631.942	32.91
632.132	32.99
632.323	32.73
632.513	32.85
632.703	32.69
632.893	32.74
633.084	32.83
633.274	32.76
633.464	32.77
633.654	32.73
633.844	32.67
634.034	32.44
634.225	32.44
634.415	32.78
634.605	32.57
634.795	32.68
634.985	32.63
635.175	32.63
635.365	32.74
635.555	32.35
635.745	32.3
635.935	32.32
636.125	32.58
636.315	32.24
636.505	32.17
636.695	32.23
636.885	32.07
637.075	32.21
637.265	32.05
637.455	32.26
637.644	32.75
637.834	32.7
638.024	32.49
638.214	32.44
638.404	32.67
638.593	32.66
638.783	32.69
638.973	32.99
639.163	32.91
639.352	32.91
639.542	32.74
639.732	32.56
639.921	32.36
640.111	32.53
640.301	32.17
640.49	32.04
640.68	32.33
640.87	32.3
641.059	32.14
641.249	32.25
641.438	32.38
641.628	32.37
641.817	32.69
642.007	32.8
642.196	32.88
642.386	33.28
642.575	32.88
642.764	32.79
642.954	33.25
643.143	33.27
643.333	33.64
643.522	33.35
643.711	33.27
643.901	32.68
644.09	32.58
644.279	32.74
644.469	32.79
644.658	33.13
644.847	32.88
645.036	32.21
645.226	32.16
645.415	31.63
645.604	31.7
645.793	32.14
645.982	32.23
646.171	32.34
646.361	32.02
646.55	31.47
646.739	31.04
646.928	30.53
647.117	31.05
647.306	31.12
647.495	31.24
647.684	31.73
647.873	31.76
648.062	32.11
648.251	32.55
648.44	32.97
648.629	33.54
648.818	34.39
649.007	34.91
649.196	34.89
649.384	34.62
649.573	34.81
649.762	34.76
649.951	34.65
650.14	33.87
650.328	33.58
650.517	33.21
650.706	32.58
650.895	32.38
651.083	32.52
651.272	32.21
651.461	32.65
651.65	32.35
651.838	32.53
652.027	32.17
652.216	32.76
652.404	32.84
652.593	32.98
652.781	33.22
652.97	33.07
653.158	33.22
653.347	33.23
653.535	32.89
653.724	33.07
653.912	32.82
654.101	33.3
654.289	33.34
654.478	33.61
654.666	33.71
654.855	33.94
655.043	34.08
655.231	33.52
655.42	33.65
655.608	33.71
655.796	33.77
655.985	33.73
656.173	33.38
656.361	33.4
656.55	32.92
656.738	32.81
656.926	32.89
657.114	32.76
657.302	33.06
657.491	32.88
657.679	33.11
657.867	33.11
658.055	33.27
658.243	33.08
658.431	32.88
658.619	33.21
658.807	33.49
658.996	33.43
659.184	33.65
659.372	33.62
659.56	33.33
659.748	33.5
659.936	33.48
660.124	33.09
660.311	33.32
660.499	33.71
660.687	33.44
660.875	33.06
661.063	33.18
661.251	33.49
661.439	33.5
661.627	34.15
661.814	33.98
662.002	34.3
662.19	34.5
662.378	34.47
662.565	34.26
662.753	34.22
662.941	34.55
663.129	34.32
663.316	33.89
663.504	33.8
663.692	33.51
663.879	33.07
664.067	32.46
664.254	32.48
664.442	32.52
664.63	32.67
664.817	32.86
665.005	32.71
665.192	32.62
665.38	32.39
665.567	32.54
665.755	32.53
665.942	32.67
666.13	32.83
666.317	32.85
666.504	32.28
666.692	32.15
666.879	32.3
667.067	32.33
667.254	32.4
667.441	32.58
667.629	32.83
667.816	32.65
668.003	32.91
668.19	32.73
668.378	33.03
668.565	33.85
668.752	34.23
668.939	34.16
669.127	33.99
669.314	33.93
669.501	34.22
669.688	34.17
669.875	34.53
670.062	34.42
670.249	35.04
670.436	34.67
670.623	34.5
670.81	34.29
670.997	34.37
671.184	34.52
671.371	34.43
671.558	33.81
671.745	33.65
671.932	33.81
672.119	33.56
672.306	33.19
672.493	33.53
672.68	33.43
672.867	33.31
673.054	33.19
673.24	33.19
673.427	33.36
673.614	33.49
673.801	33.86
673.988	33.04
674.174	33.37
674.361	33.5
674.548	33.38
674.734	33.66
674.921	33.56
675.108	33.63
675.294	33.79
675.481	33.56
675.668	34.09
675.854	33.82
676.041	33.75
676.227	33.74
676.414	33.56
676.601	33.34
676.787	33.39
676.974	32.97
677.16	33
677.347	33.26
677.533	33.86
677.719	33.46
677.906	33.19
678.092	33.6
678.279	33.74
678.465	33.51
678.651	33.47
678.838	33.02
679.024	33.3
679.21	32.9
679.397	33.06
679.583	32.46
679.769	32.73
679.955	33.06
680.142	33.38
680.328	33.26
680.514	33.37
680.7	33.43
680.886	33.58
681.073	33.55
681.259	33.62
681.445	32.89
681.631	33.11
681.817	32.94
682.003	32.44
682.189	32.07
682.375	31.78
682.561	31.9
682.747	32.21
682.933	31.8
683.119	32.15
683.305	32.23
683.491	32.38
683.677	32.65
683.863	32.97
684.049	32.96
684.235	33.4
684.42	33.86
684.606	34.35
684.792	34.41
684.978	34.69
685.164	34.18
685.349	34.25
685.535	34.63
685.721	34.76
685.907	34.67
686.092	35.46
686.278	35.22
686.464	35.1
686.649	33.92
686.835	33.74
687.021	33.75
687.206	34.36
687.392	34.5
687.577	34.52
687.763	34.17
687.948	34.06
688.134	33.42
688.319	33.33
688.505	33.43
688.69	33.93
688.876	33.68
689.061	34.34
689.247	33.96
689.432	33.8
689.618	33.73
689.803	33.86
689.988	33.77
690.174	34.01
690.359	33.54
690.544	33.15
690.73	33
690.915	33.14
691.1	32.45
691.285	32.81
691.471	32.73
691.656	32.84
691.841	33.26
692.026	33.05
692.211	32.89
692.396	33.53
692.582	33.63
692.767	34.16
692.952	34.11
693.137	34.24
693.322	33.98
693.507	34.18
693.692	33.66
693.877	33.27
694.062	33.28
694.247	34.12
694.432	34.08
694.617	33.78
694.802	33.6
694.987	33.88
695.172	33.99
695.357	34.19
695.541	34
695.726	34.47
695.911	34.24
696.096	34.15
696.281	33.3
696.466	33.69
696.65	34.82
696.835	34.75
697.02	34.32
697.204	34.04
697.389	33.49
697.574	33.62
697.759	33.61
697.943	33.7
698.128	33.67
698.312	33.61
698.497	33.63
698.682	33.19
698.866	32.99
699.051	33.25
699.235	33.32
699.42	33.78
699.604	33.6
699.789	33.4
699.973	33.82
700.158	33.88
700.342	34.19
700.527	34.23
700.711	34.1
700.895	34.2
701.08	33.66
701.264	33.69
701.448	33.73
701.633	33.86
701.817	33.74
702.001	33.5
702.186	33.45
702.37	33.08
702.554	32.46
702.738	32.58
702.923	33.02
703.107	33.7
703.291	33.93
703.475	33.36
703.659	33.87
703.843	34.34
704.027	34.53
704.212	34.7
704.396	34.9
704.58	35.25
704.764	35.17
704.948	35.1
705.132	35.21
705.316	35.1
705.5	35.39
705.684	35.2
705.868	35.35
706.052	35
706.235	35.46
706.419	35.82
706.603	36.06
706.787	35.87
706.971	35.81
707.155	35.49
707.339	35.95
707.522	36.74
707.706	36.48
707.89	35.89
708.074	36.05
708.257	36.24
708.441	36.08
708.625	36.13
708.808	36.87
708.992	36.77
709.176	36.89
709.359	35.85
709.543	35.21
709.727	35.18
709.91	35.64
710.094	35.04
710.277	35.22
710.461	34.82
710.644	34.43
710.828	35.02
711.011	34.68
711.195	34.84
711.378	35.31
711.562	34.71
711.745	34.95
711.928	34.64
712.112	35.2
712.295	34.79
712.478	35.62
712.662	35.38
712.845	34.3
713.028	34.36
713.212	34.03
713.395	33.69
713.578	33.86
713.761	33.72
713.945	33.65
714.128	32.89
714.311	32.86
714.494	32.86
714.677	32.75
714.86	33.46
715.043	32.89
715.227	33.22
715.41	33.25
715.593	33.69
715.776	33.55
715.959	34.34
716.142	35.27
716.325	35.32
716.508	34.86
716.691	35.03
716.874	34.21
717.057	34.9
717.239	34.92
717.422	35.32
717.605	35.36
717.788	35.47
717.971	34.97
718.154	34.11
718.337	33.64
718.519	33.87
718.702	33.59
718.885	34.15
719.068	34.37
719.25	33.9
719.433	34.16
719.616	34.32
719.798	35.14
719.981	34.74
720.164	35.21
720.346	35.25
720.529	34.72
720.712	34.94
720.894	34.74
721.077	34.21
721.259	34.59
721.442	33.63
721.624	32.61
721.807	31.53
721.989	31.89
722.172	32.01
722.354	32.28
722.537	33.09
722.719	32.92
722.901	33.27
723.084	33.49
723.266	33.16
723.448	33.97
723.631	35.25
723.813	36.19
723.995	34.81
724.178	34.61
724.36	34.97
724.542	34.71
724.724	35.69
724.907	35.52
725.089	35.98
725.271	35.88
725.453	35.8
725.635	35.09
725.817	34.7
725.999	35.79
726.181	35.29
726.364	34.44
726.546	33.92
726.728	33.68
726.91	33.11
727.092	32.08
727.274	33.2
727.456	33.04
727.638	33.37
727.819	33.41
728.001	33.89
728.183	34.17
728.365	34.44
728.547	35
728.729	34.44
728.911	34.17
729.093	35.04
729.274	34.32
729.456	34.55
729.638	33.98
729.82	33.25
730.001	33.06
730.183	33.81
730.365	33.63
730.546	33.28
730.728	33.61
730.91	34
731.091	32.57
731.273	32.09
731.455	31.89
731.636	31.81
731.818	32.98
731.999	32.56
732.181	32.7
732.362	32.77
732.544	32.46
732.725	31.64
732.907	32.05
733.088	32.5
733.27	33.41
733.451	34.17
733.633	33.43
733.814	31.41
733.995	31.47
734.177	29.91
734.358	30.77
734.539	30.51
734.721	30.66
734.902	30.34
735.083	30.85
735.264	29.64
735.446	29.96
735.627	31.75
735.808	33.84
735.989	32.83
736.17	33.32
736.351	32.36
736.533	33.41
736.714	33.52
736.895	32.82
737.076	33.04
737.257	34.2
737.438	33.68
737.619	32.87
737.8	32.97
737.981	35.12
738.162	36.21
738.343	36.83
738.524	36.84
738.705	37.01
738.886	37.79
739.067	37.11
739.247	36.69
739.428	36.3
739.609	36.24
739.79	36.12
739.971	35.99
740.151	35.04
740.332	35.4
740.513	35.65
740.694	36.23
740.874	36.1
741.055	36.13
741.236	35.94
741.417	36.21
741.597	35.38
741.778	34.49
741.958	33.52
742.139	33.65
742.32	32.75
742.5	31.78
742.681	31.07
742.861	30.82
743.042	30.56
743.222	32.02
743.403	31.5
743.583	32.75
743.764	33.11
743.944	33.13
744.124	33.49
744.305	32.75
744.485	33.22
744.666	33.86
744.846	34.25
745.026	35.86
745.207	35.05
745.387	34.42
745.567	33.99
745.747	33.47
745.928	33.28
746.108	33.34
746.288	34.79
746.468	35.15
746.648	34.99
746.829	35.04
747.009	34.19
747.189	34.49
747.369	35.34
747.549	35.18
747.729	36.19
747.909	36.82
748.089	36.37
748.269	36.01
748.449	35.8
748.629	35.56
748.809	35.36
748.989	36.39
749.169	35.61
749.349	34.76
749.529	35.74
749.709	35.21
749.889	35.05
750.068	34.68
750.248	34.33
750.428	33.55
750.608	33.8
750.788	34.53
750.967	32.26
751.147	32.44
751.327	33.69
751.507	33.12
751.686	33.21
751.866	33.74
752.046	33.54
752.225	33.57
752.405	34.68
752.585	35.81
752.764	35.49
752.944	36.74
753.123	36.94
753.303	34.84
753.482	34.96
753.662	35.11
753.841	34.39
754.021	33.83
754.2	33.04
754.38	32.6
754.559	31.75
754.739	30.99
754.918	31.62
755.097	31.34
755.277	32.7
755.456	31.77
755.635	31.44
755.815	31.48
755.994	32.86
756.173	33.9
756.352	34.25
756.532	34.44
756.711	34.97
756.89	34.43
757.069	35.82
757.248	35.28
757.427	35.97
757.607	34.64
757.786	35.73
757.965	36.11
758.144	36.08
758.323	35.8
758.502	37
758.681	36.78
758.86	37.53
759.039	36.33
759.218	36.49
759.397	36.87
759.576	37.16
759.755	36.32
759.934	36.22
760.113	36.21
760.291	36.2
760.47	35.36
760.649	35.25
760.828	34.96
761.007	34.33
761.186	35.8
761.364	35.78
761.543	37.25
761.722	37.77
761.901	38.12
762.079	38.66
762.258	37.32
762.437	36.89
762.615	36.98
762.794	36.87
762.972	37.18
763.151	37.16
763.33	37.33
763.508	37.09
763.687	37.13
763.865	36.05
764.044	35.45
764.222	35.82
764.401	35.34
764.579	36.05
764.758	36.06
764.936	36.24
765.114	35.29
765.293	35.26
765.471	35.82
765.65	35.5
765.828	35.7
766.006	36.14
766.184	36.88
766.363	37.64
766.541	37.1
766.719	37.45
766.898	37.9
767.076	37.32
767.254	37.12
767.432	36.85
767.61	35.91
767.788	36.55
767.967	36.08
768.145	35.69
768.323	35.02
768.501	34.95
768.679	35.68
768.857	34.09
769.035	35.87
769.213	36.7
769.391	35.79
769.569	36.88
769.747	36.05
769.925	36.01
770.103	37.24
770.281	37.41
770.459	37.47
770.636	36.97
770.814	39.33
770.992	39.42
771.17	37.03
771.348	36.64
771.525	35.79
771.703	36.79
771.881	35.26
772.059	34.26
772.236	32.9
772.414	31.6
772.592	30.64
772.769	28.6
772.947	28.55
773.125	29.86
773.302	31.08
773.48	32.64
773.657	33.48
773.835	35.64
774.013	33.44
774.19	33.1
774.368	34.81
774.545	34.47
774.723	33
774.9	34.99
775.077	34.7
775.255	33.98
775.432	32.2
775.61	31.41
775.787	30.96
775.964	31.61
776.142	34.58
776.319	33.88
776.496	33.2
776.674	34.39
776.851	31.64
777.028	31.03
777.205	30.89
777.382	30.48
777.56	29.28
777.737	28.65
777.914	27.84
778.091	27.52
778.268	25.39
778.445	25.95
778.622	26.08
778.8	25.35
778.977	28.56
779.154	25.55
779.331	26.99
779.508	27.25
779.685	28.47
779.862	30.32
780.038	31.09
780.215	33.44
780.392	33.01
780.569	31.71
780.746	33.86
780.923	30.85
781.1	35.61
781.277	34.75
781.453	38.21
781.63	38.5
781.807	39.94
781.984	39.39
782.16	39.73
782.337	40.79
782.514	41
782.691	38.35
782.867	37.57
783.044	36.52
783.221	37.06
783.397	33.59
783.574	31.36
783.75	29.77
783.927	31.01
784.103	31.29
784.28	30.54
784.456	33.07
784.633	32.41
784.809	34.57
784.986	36.21
785.162	35.56
785.339	36.36
785.515	37.45
785.692	38.65
785.868	34.84
786.044	33.49
786.221	33.17
786.397	32.92
786.573	36.53
786.749	35.21
786.926	33.67
787.102	32.93
787.278	34.06
787.454	33.39
787.631	31.54
787.807	33.03
787.983	33.85
788.159	35.38
788.335	32
788.511	31.2
788.687	30.99
788.863	31.34
789.039	33.34
789.216	30.26
789.392	29.79
789.568	30.89
789.744	29.64
789.919	28.88
790.095	28.95
790.271	31.27
790.447	29.26
790.623	32.67
790.799	32.38
790.975	30.63
791.151	32.5
791.327	35.85
791.502	34.81
791.678	36.87
791.854	36.44
792.03	33.51
792.205	34.51
792.381	35.18
792.557	33.73
792.733	32.62
792.908	34.11
793.084	35.59
793.259	35.61
793.435	36.22
793.611	37.34
793.786	36.95
793.962	37.94
794.137	38.23
794.313	39.13
794.488	36.96
794.664	39
794.839	37.6
795.015	38.88
795.19	37
795.366	36.49
795.541	35.16
795.716	36.45
795.892	36.79
796.067	35.55
796.242	37.53
796.418	37.16
796.593	35.84
796.768	36.18
796.944	33.96
797.119	33.44
797.294	33.32
797.469	34.21
797.644	32.27
797.82	31.35
797.995	31.18
798.17	30.64
798.345	32.19
798.52	32.03
798.695	33.42
798.87	32.82
799.045	34.21
799.22	36.02
799.395	34.58
799.57	38.27
799.745	37.89
799.92	37.49
800.095	36.54
800.27	34.68
800.445	33.95
800.62	32.93
800.795	34.69
800.97	34.56
801.145	34.42
801.319	34.95
801.494	32.25
801.669	34.65
801.844	35.15
802.018	34.26
802.193	35.93
802.368	38.52
802.543	37.12
802.717	36.23
802.892	36.35
803.067	34.91
803.241	36.42
803.416	35.93
803.59	37.48
803.765	38.11
803.94	35.57
804.114	35.1
804.289	33.96
804.463	30.93
804.638	30.02
804.812	29.09
804.986	31.39
805.161	32.69
805.335	35.07
805.51	33.63
805.684	35.03
805.858	37.48
806.033	35.97
806.207	35.45
806.381	41.43
806.556	41.33
806.73	41.3
806.904	41.21
807.078	36.79
807.253	36.17
807.427	33.24
807.601	32.62
807.775	32.59
807.949	35.42
808.123	33.75
808.298	34.71
808.472	35.61
808.646	34.47
808.82	33.91
808.994	32.74
809.168	30.45
809.342	30.6
809.516	31.38
809.69	32.32
809.864	29.06
810.038	32.54
810.212	27.9
810.385	26.19
810.559	28.24
810.733	25.08
810.907	26.25
811.081	29.77
811.255	30.76
811.428	30.99
811.602	31.08
811.776	36.34
811.95	38.12
812.123	42.26
812.297	43.63
812.471	43.18
812.644	42.06
812.818	42.98
812.992	41.66
813.165	40.14
813.339	38.04
813.512	38.81
813.686	37.66
813.86	35.97
814.033	29.27
814.207	29.16
814.38	31.16
814.554	40.43
814.727	42.73
814.9	40.79
815.074	44.08
815.247	45.3
815.421	42.53
815.594	40.24
815.767	34.89
815.941	40.3
816.114	37.39
816.287	37.3
816.46	35.21
816.634	31.08
816.807	30.09
816.98	28.91
817.153	29.81
817.327	28.76
817.5	26.75
817.673	32.46
817.846	28.45
818.019	34.21
818.192	32.71
818.365	28.91
818.538	33.91
818.711	35.65
818.884	35.66
819.057	28.73
819.23	29.04
819.403	30.77
819.576	29.33
819.749	31.86
819.922	28.23
820.095	29.54
820.268	28.21
820.441	26.56
820.614	30.76
820.786	31.11
820.959	36.45
821.132	35.47
821.305	36.31
821.477	36.4
821.65	36.75
821.823	37.24
821.996	37.06
822.168	37.05
822.341	36.73
822.514	35.5
822.686	36.01
822.859	35.5
823.031	35.94
823.204	36.23
823.376	35.63
823.549	36.01
823.722	36.06
823.894	36.09
824.067	36.56
824.239	36.1
824.411	36.5
824.584	36.33
824.756	35.73
824.929	36.18
825.101	35.2
825.273	35.41
825.446	34.24
825.618	34.37
825.79	34.38
825.963	33.14
826.135	34.5
826.307	34.16
826.479	33.26
826.652	33.43
826.824	32.27
826.996	32.15
827.168	31.75
827.34	31.8
827.512	31.43
827.684	31.01
827.856	32.71
828.029	32.74
828.201	32.81
828.373	33.08
828.545	33.15
828.717	33.2
828.889	32.72
829.061	32.72
829.232	32.88
829.404	33
829.576	32.3
829.748	31.51
829.92	30.77
830.092	30.16
830.264	29.2
830.436	29.4
830.607	29.57
830.779	30.94
830.951	31.75
831.123	31.32
831.294	29.1
831.466	28.66
831.638	26.14
831.809	23.24
831.981	23.9
832.153	25.2
832.324	23.21
832.496	21.05
832.667	16.83
832.839	19.63
833.011	21.4
833.182	22.83
833.354	20.86
833.525	24.26
833.697	24.44
833.868	24.64
834.039	26.14
834.211	28.56
834.382	31.25
834.554	34.78
834.725	34.62
834.896	32.95
835.068	33.94
835.239	36.69
835.41	36.2
835.581	39.73
835.753	40.29
835.924	37.24
836.095	37.61
836.266	37.77
836.438	36.06
836.609	34.92
836.78	36.05
836.951	35.77
837.122	34.92
837.293	34.58
837.464	31.08
837.635	30.5
837.806	33.49
837.977	30.16
838.148	27.81
838.319	27.52
838.49	31.27
838.661	34.19
838.832	33.03
839.003	32.44
839.174	32.72
839.345	31.66
839.516	22.98
839.687	17.63
839.857	20.9
840.028	23.49
840.199	26.92
840.37	15.4
840.54	15.65
840.711	18.58
840.882	19.01
841.053	20.9
841.223	25.05
841.394	33.37
841.564	37.52
841.735	39.1
841.906	39.25
842.076	32.9
842.247	42.06
842.417	36.12
842.588	36.65
842.758	38.92
842.929	29.77
843.099	19.63
843.27	16.36
843.44	17.45
843.611	16.4
843.781	17.94
843.951	27.44
844.122	31.56
844.292	29.83
844.462	25.6
844.633	26.82
844.803	38.63
844.973	49.63
845.144	50.77
845.314	54.46
845.484	59.56
845.654	61.42
845.824	59.49
845.995	43.5
846.165	55.93
846.335	66.37
846.505	59.99
846.675	53.05
846.845	44.22
847.015	41.48
847.185	39.81
847.355	24.96
847.525	26.84
847.695	21.51
847.865	6.57
848.035	7.29
848.205	-10.14
848.375	6.87
848.545	6.4
848.715	17.97
848.884	26.53
849.054	8.95
849.224	32.82
849.394	30.45
849.564	37.76
849.733	70.92
849.903	46.55
850.073	44.02
850.243	47.68
850.412	49.2
850.582	45.34
850.752	0.52
850.921	10.73
851.091	8.25
851.26	9.42
851.43	20.62
851.599	13.2
851.769	22.91
851.939	19.26
852.108	13.99
852.278	8.6
852.447	4.6
852.616	61.31
852.786	71.68
852.955	55.25
853.125	53.36
853.294	41.05
853.463	24.69
853.633	30.64
853.802	41.09
853.971	20.54
854.141	10.98
854.31	10.3
854.479	-22.83
854.648	-29.32
854.818	-33.2
854.987	-33.14
855.156	-24.27
855.325	1.29
855.494	-3.54
855.663	3.7
855.832	16.71
856.001	42.49
856.171	28.53
856.34	29.85
856.509	38.62
856.678	68.69
856.847	90.87
857.016	73.54
857.185	84.97
857.353	46.8
857.522	29.26
857.691	27.77
857.86	32.53
858.029	41.45
858.198	38.95
858.367	47.85
858.535	35.04
858.704	21.79
858.873	31.63
859.042	22.7
859.21	22.79
859.379	39.56
859.548	30.79
859.717	30.08
859.885	26.15
860.054	18.32
860.222	4.42
860.391	8.56
860.56	25.11
860.728	21.19
860.897	28.62
861.065	37.23
861.234	30.51
861.402	37.45
861.571	41.18
861.739	53.41
861.908	74.64
862.076	56.27
862.244	75.01
862.413	64.73
862.581	57.99
862.749	41.15
862.918	4.85
863.086	-17.29
863.254	-20.89
863.423	-121.23
863.591	-145.09
863.759	-362.24
863.927	-364.82
864.096	-1730.81
864.264	443.82
864.432	472.8
864.6	-523.82
864.768	-1.19
864.936	104.13
865.104	97.26
865.272	80.53
865.44	74.8
865.608	99.12
865.776	104.47
865.944	69.56
866.112	69.43
866.28	35.48
866.448	25.66
866.616	28.77
866.784	26.36
866.952	-0.27
867.12	12.81
867.288	22.12
867.455	13.86
867.623	18.06
867.791	18.03
867.959	7.86
868.127	18.36
868.294	35.54
868.462	29.71
868.63	14.27
868.797	10.24
868.965	-41.07
869.133	-21.86
869.3	-22.27
869.468	0.67
869.636	32.88
869.803	10.41
869.971	24.66
870.138	25.94
870.306	37
870.473	30.38
870.641	33.77
870.808	32.89
870.975	34.97
871.143	42.65
871.31	53.75
871.478	15.57
871.645	36.21
871.812	27.58
871.98	5.52
872.147	-21.75
872.314	35.91
872.482	21.82
872.649	-14.19
872.816	26.98
872.983	-74.59
873.15	-11.95
873.318	-9.86
873.485	-10.7
873.652	43.77
873.819	50.19
873.986	44.94
874.153	34.58
874.32	60.12
874.487	77.22
874.654	57.06
874.821	52.25
874.988	53.27
875.155	70.31
875.322	62.72
875.489	45.99
875.656	49.86
875.823	39.33
875.99	33.74
876.157	17.3
876.324	22.28
876.49	33.84
876.657	45.46
876.824	53.13
876.991	45.03
877.157	44.91
877.324	43.08
877.491	41.86
877.658	43.68
877.824	39.12
877.991	60.06
878.157	39.1
878.324	32.88
878.491	45.74
878.657	36.5
878.824	36.12
878.99	49.05
879.157	67.97
879.323	62.92
879.49	94.08
879.656	104
879.823	75.34
879.989	86.81
880.156	85.56
880.322	86.92
880.488	79.03
880.655	84.65
880.821	51.5
880.987	59.16
881.154	57.74
881.32	28.25
881.486	21.32
881.652	25.36
881.819	23.15
881.985	23
882.151	19.84
882.317	20.42
882.483	21.73
882.649	27.94
882.816	23.82
882.982	26.48
883.148	29.38
883.314	30.26
883.48	28.21
883.646	27.53
883.812	28.35
883.978	30.55
884.144	30.63
884.31	31.01
884.476	31.94
884.642	33.06
884.807	33
884.973	33.77
885.139	34.11
885.305	37.28
885.471	38.68
885.637	38.33
885.802	38.07
885.968	38.14
886.134	38.91
886.3	37.29
886.465	37.81
886.631	34.98
886.797	31.8
886.962	34.39
887.128	32.24
887.293	29.94
887.459	32.73
887.625	33.71
887.79	29.83
887.956	27.23
888.121	27.07
888.287	26.45
888.452	31.53
888.618	44.67
888.783	29.22
