Data from CB_042_Reflection_00003.txt Node
Date: Wed Nov 11 22:05:19 EST 2015
User: robert
Spectrometer: USB4E03001
Autoset integration time: false
Trigger mode: 4
Integration Time (sec): 1.000000E-1
Scans to average: 15
Electric dark correction enabled: true
Nonlinearity correction enabled: false
Boxcar width: 5
Stray light correction enabled: false
XAxis mode: Wavelengths
Stop averaging: false
Number of Pixels in Spectrum: 3648
>>>>>Begin Spectral Data<<<<<
177.566	212.77
177.785	1467.76
178.005	-352.57
178.225	-954.27
178.445	162.69
178.665	98.48
178.885	246.32
179.105	13.5
179.324	91.5
179.544	94.54
179.764	146.39
179.984	110.62
180.204	109.97
180.423	172.15
180.643	125.51
180.863	100.18
181.083	88.93
181.302	65.85
181.522	59.13
181.742	54.15
181.961	64.88
182.181	52.78
182.401	60.81
182.621	61.34
182.84	51.68
183.06	55.46
183.279	56.57
183.499	39.49
183.719	47.1
183.938	54.17
184.158	48.21
184.377	54.66
184.597	62.86
184.816	57.38
185.036	52.49
185.256	39.63
185.475	41.46
185.695	12.74
185.914	8.48
186.134	33.15
186.353	55.13
186.572	39.96
186.792	33.11
187.011	19.98
187.231	40.22
187.45	34.21
187.67	41.04
187.889	39.31
188.108	53.65
188.328	58.25
188.547	68.19
188.766	61.26
188.986	84.89
189.205	69.38
189.424	62.02
189.644	49.93
189.863	62.86
190.082	62.89
190.302	43.01
190.521	56.57
190.74	75.16
190.959	52.06
191.178	43.4
191.398	39.69
191.617	55.84
191.836	58.98
192.055	58.54
192.274	49.56
192.494	53.14
192.713	80.34
192.932	73.16
193.151	69.52
193.37	77.13
193.589	101.13
193.808	101.06
194.027	85.29
194.246	74.04
194.465	67.42
194.685	80.86
194.904	72.5
195.123	71.28
195.342	44.09
195.561	50.3
195.78	46.22
195.999	19.95
196.218	22.13
196.436	27.28
196.655	43.2
196.874	50.02
197.093	26.48
197.312	60
197.531	63.91
197.75	99.49
197.969	108.54
198.188	94.14
198.407	96.58
198.625	91.08
198.844	84.69
199.063	72.46
199.282	53.21
199.501	60.1
199.719	34.23
199.938	30.32
200.157	-33.22
200.376	4.12
200.594	10.42
200.813	40.18
201.032	32.87
201.251	38.06
201.469	41.07
201.688	76.93
201.907	55.21
202.125	49.14
202.344	32.81
202.563	50.54
202.781	31.25
203	32.51
203.218	12.24
203.437	30.96
203.656	45.41
203.874	44.77
204.093	36.03
204.311	48.35
204.53	56.11
204.748	61.1
204.967	56.08
205.185	78.22
205.404	86.2
205.622	101.13
205.841	82.59
206.059	53.7
206.278	62.65
206.496	66.92
206.715	48.3
206.933	51.69
207.151	56.62
207.37	54.94
207.588	36.81
207.806	27.72
208.025	30.42
208.243	28.64
208.461	42.66
208.68	46.13
208.898	47.49
209.116	44.82
209.335	51.55
209.553	36.19
209.771	41.28
209.989	51.27
210.208	48.24
210.426	39
210.644	40.82
210.862	41.88
211.081	37.16
211.299	38.55
211.517	80.9
211.735	77.6
211.953	100.09
212.171	92.26
212.39	111.64
212.608	111.81
212.826	108.3
213.044	119
213.262	108.54
213.48	133.18
213.698	122.64
213.916	116.18
214.134	111.52
214.352	129.31
214.57	99.7
214.788	105.02
215.006	146.75
215.224	145.31
215.442	137.65
215.66	195.11
215.878	107.36
216.096	104.12
216.314	129.06
216.532	120.44
216.75	108.66
216.968	118.96
217.185	103.83
217.403	95.49
217.621	82.55
217.839	73.03
218.057	64.49
218.275	74.4
218.492	77.21
218.71	72.19
218.928	81.7
219.146	79.29
219.363	61.63
219.581	51.01
219.799	38.62
220.017	59.26
220.234	60.39
220.452	71.48
220.67	60.94
220.887	51.56
221.105	48.21
221.323	33.69
221.54	24.76
221.758	66.52
221.976	59.14
222.193	50.65
222.411	45.2
222.629	46.58
222.846	41.64
223.064	25.9
223.281	26.76
223.499	27.1
223.716	22.71
223.934	38.44
224.151	18.06
224.369	14.74
224.586	10.37
224.804	7.87
225.021	-4.35
225.239	-1.69
225.456	10.73
225.674	17.3
225.891	20.42
226.108	27.23
226.326	3.4
226.543	13.06
226.76	12.66
226.978	-0.39
227.195	1.37
227.413	6.61
227.63	13.06
227.847	10.5
228.064	8.09
228.282	7.91
228.499	8.47
228.716	10.13
228.934	8.86
229.151	7.12
229.368	12.44
229.585	15.27
229.802	16.02
230.02	12.48
230.237	14.94
230.454	14.73
230.671	12.15
230.888	9.28
231.105	11.81
231.323	13.21
231.54	21.59
231.757	21.59
231.974	14.17
232.191	12.52
232.408	18.63
232.625	17.33
232.842	16.42
233.059	18.51
233.276	21.68
233.493	18.2
233.71	21.83
233.927	17.4
234.144	16.02
234.361	21.3
234.578	24.22
234.795	21.57
235.012	23.33
235.229	23.02
235.446	29.83
235.663	29.59
235.879	31.74
236.096	31.37
236.313	30.76
236.53	31.05
236.747	37.02
236.964	34.44
237.181	38.12
237.397	33.19
237.614	37.1
237.831	30.73
238.048	31.59
238.264	28.63
238.481	28.44
238.698	28.56
238.915	30.56
239.131	23.75
239.348	24.61
239.565	18.54
239.781	21.54
239.998	22.25
240.215	21.94
240.431	20.74
240.648	23.75
240.865	19.52
241.081	21
241.298	17.85
241.514	18.21
241.731	18.48
241.947	18.5
242.164	17.47
242.38	16.55
242.597	15.2
242.814	16.24
243.03	15.35
243.246	16.81
243.463	17.08
243.679	18.1
243.896	19.18
244.112	18.69
244.329	20.96
244.545	20.99
244.762	21.42
244.978	24.6
245.194	23.74
245.411	20.97
245.627	20.36
245.843	18.16
246.06	17.3
246.276	15.75
246.492	14.94
246.709	13.89
246.925	15.2
247.141	15.35
247.357	14.14
247.574	13.37
247.79	13.99
248.006	14.46
248.222	15.06
248.439	15.49
248.655	16.35
248.871	16.39
249.087	16.22
249.303	15.4
249.519	15.31
249.736	15.96
249.952	16.89
250.168	18.43
250.384	17.58
250.6	16.17
250.816	15.82
251.032	14.05
251.248	16.34
251.464	17.5
251.68	17.56
251.896	17.29
252.112	16.39
252.328	14.89
252.544	13.58
252.76	14.27
252.976	14.36
253.192	13.72
253.408	14.9
253.624	16.41
253.84	16.46
254.056	17.84
254.272	19.67
254.487	20.18
254.703	23.01
254.919	23.84
255.135	21.45
255.351	23.55
255.567	25.24
255.782	24
255.998	22.05
256.214	20.88
256.43	20.29
256.646	17.44
256.861	17.01
257.077	17.2
257.293	15.86
257.508	16.63
257.724	14.15
257.94	14.03
258.155	14.17
258.371	12.35
258.587	13.36
258.802	12.92
259.018	12.97
259.234	12.58
259.449	12.29
259.665	11.85
259.88	11.66
260.096	11.98
260.312	11.06
260.527	11.58
260.743	11.26
260.958	10.82
261.174	10.65
261.389	11.25
261.605	11.44
261.82	11.73
262.036	13.46
262.251	14.63
262.466	15.22
262.682	16.48
262.897	16.39
263.113	17.83
263.328	17.77
263.543	16.18
263.759	13.82
263.974	14.88
264.189	13.23
264.405	12.32
264.62	10.49
264.835	10.69
265.051	9.83
265.266	9.02
265.481	9.29
265.696	9.99
265.912	12.12
266.127	14.03
266.342	13.88
266.557	13.88
266.773	13.29
266.988	14.14
267.203	12.02
267.418	12.41
267.633	13.51
267.848	13.2
268.064	12.52
268.279	12.11
268.494	10.69
268.709	10.35
268.924	12.24
269.139	11.42
269.354	12.71
269.569	13.86
269.784	14.48
269.999	12.36
270.214	12.05
270.429	11.95
270.644	12.15
270.859	12.97
271.074	12.44
271.289	12.65
271.504	14.44
271.719	12.38
271.934	11.92
272.149	10.84
272.363	11.84
272.578	12.08
272.793	12.61
273.008	12.08
273.223	11.2
273.438	11.14
273.653	11.01
273.867	9.59
274.082	9.7
274.297	9.29
274.512	10.11
274.726	9.32
274.941	9.62
275.156	10.29
275.371	10.77
275.585	11.82
275.8	12.8
276.015	12.26
276.229	12.93
276.444	13.39
276.659	14.44
276.873	14.85
277.088	15.61
277.302	14.71
277.517	13.77
277.732	13.56
277.946	12.02
278.161	11.74
278.375	10.93
278.59	11.3
278.804	11.11
279.019	10.71
279.233	10.03
279.448	9.98
279.662	11.49
279.877	10.94
280.091	10.47
280.306	12.26
280.52	11.37
280.735	11.71
280.949	10.49
281.163	10.65
281.378	10.74
281.592	10.02
281.806	10.07
282.021	8.66
282.235	8.92
282.449	9.91
282.664	9.81
282.878	9.7
283.092	9.34
283.307	11.02
283.521	11.66
283.735	12.63
283.949	13.75
284.164	13.96
284.378	15.11
284.592	14.78
284.806	13.98
285.02	13.78
285.234	13.56
285.449	14.37
285.663	13.56
285.877	13.58
286.091	13.26
286.305	13.13
286.519	12.79
286.733	12.35
286.947	12.01
287.161	12.21
287.375	12.59
287.589	14.1
287.803	13.34
288.017	12.75
288.231	12.12
288.445	11.53
288.659	11.1
288.873	11.32
289.087	11.77
289.301	12.27
289.515	12.62
289.729	12.89
289.943	11.1
290.157	11.35
290.371	11.46
290.584	12.54
290.798	13.13
291.012	13.32
291.226	13.83
291.44	13.53
291.654	13.11
291.867	13.03
292.081	11.4
292.295	13.75
292.509	12.5
292.722	12.54
292.936	10.76
293.15	11.8
293.364	11.9
293.577	10.39
293.791	9.98
294.005	10.07
294.218	10.66
294.432	11.94
294.645	10.88
294.859	11.61
295.073	10.57
295.286	10.79
295.5	9.24
295.713	9.02
295.927	8.31
296.14	9.48
296.354	10.42
296.568	10.16
296.781	9.51
296.994	9.77
297.208	10.95
297.421	11.43
297.635	11.22
297.848	11.81
298.062	12.1
298.275	13.06
298.489	12.96
298.702	12.27
298.915	12.04
299.129	12.98
299.342	12.59
299.555	12.53
299.769	13.64
299.982	14.23
300.195	13.98
300.409	13.22
300.622	13.5
300.835	12.42
301.048	12.33
301.262	12.64
301.475	11.97
301.688	12.56
301.901	11.84
302.115	10.73
302.328	11.34
302.541	11.86
302.754	12.22
302.967	11.47
303.18	12.38
303.393	13.09
303.607	12.77
303.82	12.62
304.033	11.76
304.246	11.24
304.459	12.33
304.672	11.78
304.885	12.49
305.098	12.13
305.311	12.99
305.524	12.38
305.737	12.09
305.95	12.15
306.163	12.05
306.376	12.59
306.589	13.94
306.802	13.6
307.015	14.8
307.228	12.19
307.44	13.38
307.653	13.51
307.866	13.88
308.079	14.22
308.292	13.61
308.505	13.58
308.718	13.52
308.93	12.9
309.143	12.8
309.356	12.5
309.569	13.75
309.781	13.6
309.994	13.71
310.207	13.15
310.42	12.45
310.632	13.38
310.845	13.27
311.058	13.15
311.27	12.88
311.483	13.23
311.696	13.1
311.908	13.41
312.121	12.24
312.333	11.7
312.546	11.4
312.759	11.86
312.971	10.79
313.184	10.72
313.396	10.63
313.609	11.09
313.821	10.16
314.034	10.46
314.246	9.68
314.459	11.81
314.671	12.39
314.884	14.29
315.096	14.25
315.309	13.1
315.521	13.79
315.733	13.24
315.946	13.06
316.158	12.36
316.371	11.58
316.583	11.67
316.795	11.51
317.008	11.46
317.22	10.79
317.432	11.34
317.644	12.23
317.857	12.57
318.069	12.62
318.281	10.58
318.494	11.97
318.706	11.86
318.918	12.37
319.13	12.24
319.342	12.37
319.555	11.81
319.767	11.78
319.979	12.71
320.191	12.01
320.403	13.95
320.615	15.08
320.827	14.35
321.039	14.53
321.252	14.18
321.464	13.07
321.676	12.68
321.888	12.47
322.1	12.56
322.312	11.87
322.524	12.58
322.736	12.14
322.948	12.39
323.16	12.55
323.372	12.84
323.584	12.95
323.796	13.31
324.007	13.25
324.219	14.18
324.431	14.01
324.643	14.76
324.855	14.93
325.067	14.34
325.279	14.58
325.491	14.45
325.702	14.16
325.914	13.63
326.126	13.58
326.338	12.96
326.55	11.95
326.761	11.96
326.973	11.36
327.185	11.05
327.396	11.57
327.608	10.97
327.82	12.29
328.032	12.36
328.243	13.18
328.455	13.52
328.666	14.69
328.878	14.67
329.09	14.99
329.301	15.49
329.513	14.52
329.725	14.19
329.936	15.22
330.148	13.85
330.359	13.12
330.571	12.81
330.782	11.65
330.994	12.14
331.205	12.48
331.417	12.64
331.628	13.18
331.84	13.54
332.051	13.5
332.262	13.25
332.474	14.03
332.685	14.82
332.897	14.6
333.108	15.96
333.319	15.61
333.531	16.49
333.742	16.66
333.953	16.7
334.165	16.92
334.376	17.14
334.587	17.07
334.799	17.02
335.01	16.93
335.221	16.08
335.432	16.38
335.644	16.01
335.855	15.73
336.066	15.44
336.277	15.49
336.488	16.03
336.7	14.7
336.911	15.02
337.122	14.43
337.333	14.62
337.544	16.04
337.755	15.76
337.966	15.57
338.177	15.66
338.388	14.95
338.599	14.38
338.811	12.98
339.022	13.33
339.233	12.94
339.444	13.53
339.655	13.33
339.866	13.21
340.076	12.84
340.287	13.55
340.498	12.67
340.709	13
340.92	13.67
341.131	14.34
341.342	15.09
341.553	15.57
341.764	15.75
341.975	15.46
342.185	15.43
342.396	15.88
342.607	16.07
342.818	15.37
343.029	14.93
343.239	14.83
343.45	14.98
343.661	14.17
343.872	13.22
344.082	12.84
344.293	12.48
344.504	12
344.714	12.01
344.925	11.13
345.136	12.81
345.346	13.87
345.557	13.08
345.768	12.43
345.978	13.13
346.189	14.2
346.399	13.89
346.61	14.29
346.821	14.16
347.031	14.26
347.242	14.15
347.452	13.72
347.663	13.5
347.873	14.06
348.084	15.11
348.294	15.22
348.504	14.73
348.715	15.83
348.925	15.6
349.136	15.49
349.346	14.37
349.557	15.2
349.767	15.52
349.977	14.89
350.188	14.58
350.398	13.94
350.608	13.29
350.819	13.64
351.029	12.36
351.239	11.92
351.449	12.27
351.66	11.47
351.87	11.66
352.08	11.67
352.29	12.24
352.501	12.75
352.711	12.84
352.921	13.03
353.131	12.88
353.341	13.54
353.552	13.58
353.762	13.18
353.972	14.39
354.182	13.1
354.392	12.64
354.602	12.78
354.812	12.23
355.022	12.4
355.232	12.66
355.442	12.58
355.652	12.41
355.862	13.62
356.072	14.17
356.282	14.59
356.492	15.04
356.702	15.24
356.912	14.47
357.122	14.65
357.332	15.13
357.542	14.98
357.752	14.72
357.962	14.73
358.171	14.64
358.381	14.47
358.591	14.16
358.801	13.82
359.011	13.23
359.221	14.04
359.43	14.59
359.64	13.75
359.85	13.63
360.06	13.56
360.269	13.94
360.479	13.55
360.689	13.15
360.899	12.95
361.108	13.75
361.318	13.87
361.528	13.3
361.737	12.55
361.947	12.93
362.156	12.61
362.366	12.43
362.576	11.99
362.785	11.84
362.995	12.13
363.204	12.47
363.414	12.4
363.623	12.31
363.833	12.11
364.042	11.99
364.252	12.45
364.461	12.75
364.671	13.4
364.88	13.84
365.09	13.93
365.299	13.91
365.509	13.4
365.718	12.7
365.927	12.57
366.137	12.38
366.346	12.71
366.555	11.75
366.765	11.3
366.974	11.23
367.183	10.89
367.393	11.34
367.602	11.41
367.811	11.67
368.021	12
368.23	11.86
368.439	12.13
368.648	12.33
368.857	12.37
369.067	12.67
369.276	12.44
369.485	12.41
369.694	11.98
369.903	11.42
370.112	10.67
370.321	10.5
370.531	10.78
370.74	10.95
370.949	11.04
371.158	10.71
371.367	10.89
371.576	11.1
371.785	11.08
371.994	11.13
372.203	11.09
372.412	11.88
372.621	11.65
372.83	11.18
373.039	10.85
373.248	10.48
373.457	11.08
373.666	11.36
373.874	10.86
374.083	10.03
374.292	9.41
374.501	10.07
374.71	9.76
374.919	9.63
375.128	10.29
375.336	10.38
375.545	10.52
375.754	10.81
375.963	10.04
376.171	10
376.38	10.36
376.589	10.63
376.798	9.87
377.006	9.81
377.215	10.09
377.424	10.02
377.632	9.84
377.841	9.82
378.05	9.52
378.258	9.68
378.467	9.71
378.675	9.83
378.884	9.77
379.093	9.77
379.301	9.31
379.51	9.35
379.718	9.73
379.927	9.72
380.135	9.5
380.344	8.85
380.552	8.93
380.761	9.06
380.969	9.07
381.177	8.89
381.386	8.95
381.594	9.19
381.803	9
382.011	8.5
382.219	8.75
382.428	8.61
382.636	8.79
382.845	9.16
383.053	8.61
383.261	8.62
383.469	8.45
383.678	8.51
383.886	8.52
384.094	8.88
384.302	9.11
384.511	8.94
384.719	8.96
384.927	9.3
385.135	8.98
385.343	9.28
385.552	9.21
385.76	9.41
385.968	9.3
386.176	9.44
386.384	8.96
386.592	8.51
386.8	8.38
387.008	8.28
387.216	8.24
387.424	8.5
387.633	8.18
387.841	8.32
388.049	7.72
388.257	7.85
388.465	7.59
388.672	7.55
388.88	7.41
389.088	7.33
389.296	7.09
389.504	6.47
389.712	6.15
389.92	6.12
390.128	6.07
390.336	6.56
390.544	6.66
390.751	6.81
390.959	7.01
391.167	7.14
391.375	7.17
391.583	7.37
391.79	7.41
391.998	7.39
392.206	7.7
392.414	7.54
392.621	7.15
392.829	7.02
393.037	7.11
393.244	6.98
393.452	7.24
393.66	7.27
393.867	7.25
394.075	7.68
394.283	7.66
394.49	7.74
394.698	7.96
394.905	8.61
395.113	8.42
395.32	8.08
395.528	8.28
395.735	8.02
395.943	8.33
396.15	8.54
396.358	8.12
396.565	8.39
396.773	8.07
396.98	7.63
397.188	7.44
397.395	7.67
397.602	7.74
397.81	7.68
398.017	7.41
398.225	7.19
398.432	6.85
398.639	7.23
398.847	6.99
399.054	6.9
399.261	6.97
399.468	6.98
399.676	6.83
399.883	6.93
400.09	6.38
400.297	6.45
400.505	6.05
400.712	6.37
400.919	5.76
401.126	5.71
401.333	5.64
401.54	5.49
401.748	5.29
401.955	5.39
402.162	5.38
402.369	5.84
402.576	5.79
402.783	6.04
402.99	5.62
403.197	5.78
403.404	5.92
403.611	6.27
403.818	6.28
404.025	6.12
404.232	5.81
404.439	5.78
404.646	5.46
404.853	5.71
405.06	5.64
405.267	5.68
405.474	5.73
405.681	5.67
405.887	5.71
406.094	5.85
406.301	6.01
406.508	6.29
406.715	6.26
406.922	6.43
407.128	6.61
407.335	6.62
407.542	6.62
407.749	6.99
407.955	6.69
408.162	6.41
408.369	6.17
408.575	6.18
408.782	6.38
408.989	6.44
409.195	6.17
409.402	5.72
409.609	5.71
409.815	5.59
410.022	5.21
410.228	5.23
410.435	5.26
410.642	5.35
410.848	5.24
411.055	5.17
411.261	5.2
411.468	5.55
411.674	5.8
411.881	5.79
412.087	5.99
412.294	6.25
412.5	6.71
412.706	6.48
412.913	6.49
413.119	6.5
413.326	6.24
413.532	6.1
413.738	5.97
413.945	5.7
414.151	5.67
414.357	5.49
414.564	5.64
414.77	5.48
414.976	5.85
415.182	5.95
415.389	5.97
415.595	5.97
415.801	6.1
416.007	5.79
416.214	5.56
416.42	5.68
416.626	5.49
416.832	5.26
417.038	5.21
417.244	4.98
417.45	4.77
417.657	4.68
417.863	4.76
418.069	4.57
418.275	4.88
418.481	5.02
418.687	5.09
418.893	5.25
419.099	5.42
419.305	5.23
419.511	5.3
419.717	5.59
419.923	5.46
420.129	5.25
420.335	5.27
420.541	5.19
420.746	5.04
420.952	4.89
421.158	4.84
421.364	4.56
421.57	4.54
421.776	4.41
421.982	4.27
422.187	4.31
422.393	4.45
422.599	4.52
422.805	4.44
423.01	4.61
423.216	4.61
423.422	4.56
423.628	4.69
423.833	4.72
424.039	4.76
424.245	4.77
424.45	4.83
424.656	4.76
424.862	4.65
425.067	4.91
425.273	4.98
425.478	5.06
425.684	5.12
425.889	5.03
426.095	5.15
426.301	5.23
426.506	5.27
426.712	5.2
426.917	5.26
427.123	5.24
427.328	4.79
427.533	4.47
427.739	4.51
427.944	4.64
428.15	4.52
428.355	4.3
428.561	4.15
428.766	4.08
428.971	4.31
429.177	4.52
429.382	4.56
429.587	4.79
429.793	4.88
429.998	4.81
430.203	4.54
430.408	4.88
430.614	5.17
430.819	5.27
431.024	5.31
431.229	5.2
431.434	4.86
431.64	5.11
431.845	5.11
432.05	5.1
432.255	5.09
432.46	5.26
432.665	4.97
432.87	4.96
433.076	5.14
433.281	5.03
433.486	4.98
433.691	5.07
433.896	4.82
434.101	4.83
434.306	4.91
434.511	4.84
434.716	4.83
434.921	5.05
435.126	4.87
435.331	4.64
435.535	4.56
435.74	4.46
435.945	4.39
436.15	4.7
436.355	4.74
436.56	4.79
436.765	4.7
436.97	4.77
437.174	4.72
437.379	4.66
437.584	4.71
437.789	4.89
437.993	5.06
438.198	5.02
438.403	4.75
438.608	4.59
438.812	4.41
439.017	4.6
439.222	4.54
439.426	4.34
439.631	4.31
439.836	4.44
440.04	4.29
440.245	4.17
440.45	4.2
440.654	4.44
440.859	4.46
441.063	4.51
441.268	4.49
441.472	4.41
441.677	4.52
441.881	4.69
442.086	4.61
442.29	4.74
442.495	4.82
442.699	4.91
442.904	4.62
443.108	4.65
443.312	4.75
443.517	4.76
443.721	4.83
443.925	4.76
444.13	4.63
444.334	4.46
444.538	4.41
444.743	4.43
444.947	4.38
445.151	4.42
445.356	4.32
445.56	4.23
445.764	4.31
445.968	4.2
446.173	4.18
446.377	4.2
446.581	4.2
446.785	4.1
446.989	3.97
447.193	4.07
447.398	4
447.602	4.02
447.806	4.03
448.01	3.85
448.214	3.88
448.418	3.98
448.622	4.02
448.826	4.02
449.03	4.09
449.234	4.1
449.438	3.92
449.642	3.89
449.846	4.03
450.05	4.19
450.254	4.22
450.458	4.29
450.662	4.37
450.866	4.31
451.069	4.3
451.273	4.27
451.477	4.28
451.681	4.27
451.885	4.26
452.089	4.1
452.292	3.96
452.496	3.89
452.7	3.85
452.904	3.77
453.107	4.01
453.311	4.1
453.515	4.09
453.719	4.27
453.922	4.2
454.126	4.31
454.33	4.24
454.533	4.25
454.737	4.29
454.94	4.29
455.144	4.32
455.348	4.04
455.551	4.13
455.755	4.08
455.958	4.04
456.162	4.23
456.365	4.42
456.569	4.75
456.772	4.77
456.976	4.64
457.179	4.75
457.383	4.61
457.586	4.61
457.79	4.35
457.993	4.41
458.196	4.41
458.4	4.25
458.603	4.07
458.807	3.86
459.01	3.93
459.213	4.1
459.417	4.17
459.62	4.3
459.823	4.25
460.026	4.29
460.23	4.19
460.433	4.14
460.636	4.13
460.839	4.17
461.042	4.28
461.246	4.23
461.449	4.16
461.652	3.95
461.855	3.88
462.058	3.99
462.261	4.12
462.464	4.27
462.668	4.32
462.871	4.46
463.074	4.34
463.277	4.3
463.48	4.37
463.683	4.47
463.886	4.48
464.089	4.55
464.292	4.67
464.495	4.52
464.698	4.62
464.901	4.5
465.104	4.55
465.306	4.6
465.509	4.54
465.712	4.37
465.915	4.21
466.118	4.26
466.321	4.35
466.524	4.19
466.726	4.27
466.929	4.27
467.132	4.3
467.335	4.22
467.538	4.4
467.74	4.42
467.943	4.58
468.146	4.59
468.348	4.71
468.551	4.43
468.754	4.59
468.956	4.46
469.159	4.4
469.362	4.39
469.564	4.56
469.767	4.41
469.969	4.52
470.172	4.26
470.375	4.32
470.577	4.31
470.78	4.46
470.982	4.4
471.185	4.6
471.387	4.59
471.59	4.42
471.792	4.17
471.995	4.1
472.197	4.16
472.399	4.08
472.602	4.16
472.804	4.09
473.007	4.05
473.209	3.95
473.411	3.79
473.614	3.61
473.816	3.71
474.018	3.72
474.22	3.79
474.423	3.66
474.625	3.8
474.827	3.99
475.03	4.07
475.232	4.02
475.434	4.21
475.636	4.18
475.838	4.32
476.04	4.24
476.243	4.25
476.445	4.19
476.647	4.28
476.849	4.61
477.051	4.27
477.253	4.2
477.455	4.25
477.657	4.17
477.859	4.25
478.061	4.29
478.263	4.43
478.465	4.39
478.667	4.33
478.869	4.33
479.071	4.07
479.273	4.31
479.475	4.35
479.677	4.39
479.879	4.15
480.081	4.16
480.283	4.05
480.485	4.2
480.686	4.32
480.888	4.34
481.09	4.34
481.292	4.35
481.494	4.24
481.695	4.21
481.897	4.07
482.099	4.17
482.301	4.14
482.502	4.16
482.704	4.09
482.906	4.06
483.107	4.08
483.309	3.99
483.511	3.95
483.712	3.87
483.914	3.85
484.115	3.88
484.317	3.86
484.519	3.82
484.72	3.87
484.922	3.79
485.123	3.83
485.325	3.82
485.526	3.85
485.728	3.85
485.929	3.87
486.131	3.82
486.332	3.79
486.534	3.77
486.735	3.8
486.936	3.76
487.138	3.79
487.339	3.67
487.541	3.67
487.742	3.69
487.943	3.7
488.144	3.71
488.346	3.76
488.547	3.77
488.748	3.79
488.95	3.79
489.151	3.64
489.352	3.63
489.553	3.76
489.755	3.76
489.956	3.71
490.157	3.68
490.358	3.72
490.559	3.67
490.76	3.63
490.961	3.69
491.163	3.69
491.364	3.83
491.565	3.97
491.766	3.94
491.967	3.94
492.168	3.95
492.369	3.99
492.57	3.91
492.771	4.03
492.972	4.09
493.173	3.96
493.374	3.93
493.575	3.88
493.776	3.72
493.976	3.7
494.177	3.64
494.378	3.73
494.579	3.67
494.78	3.79
494.981	3.6
495.182	3.56
495.382	3.87
495.583	3.78
495.784	3.75
495.985	3.84
496.185	3.75
496.386	3.84
496.587	3.83
496.788	3.95
496.988	3.91
497.189	3.97
497.39	4.12
497.59	4.14
497.791	4.38
497.992	4.52
498.192	4.63
498.393	4.56
498.593	4.64
498.794	4.58
498.994	4.47
499.195	4.56
499.395	4.55
499.596	4.52
499.796	4.33
499.997	4.41
500.197	4.51
500.398	4.33
500.598	4.39
500.799	4.22
500.999	4.21
501.199	4.36
501.4	4.32
501.6	4.33
501.801	4.25
502.001	4.29
502.201	4.14
502.402	3.92
502.602	3.98
502.802	4.07
503.002	4.14
503.203	4.05
503.403	4.06
503.603	4.15
503.803	4.38
504.003	4.37
504.204	4.51
504.404	4.66
504.604	4.63
504.804	4.8
505.004	5.01
505.204	5.03
505.404	5.04
505.604	4.91
505.804	4.98
506.005	4.9
506.205	5.04
506.405	5.03
506.605	4.98
506.805	5.12
507.005	5.15
507.204	5.02
507.404	5.11
507.604	5.29
507.804	5.41
508.004	5.34
508.204	5.18
508.404	5.14
508.604	5.17
508.804	5.2
509.003	5.23
509.203	5.16
509.403	5.17
509.603	5.17
509.803	5.18
510.002	5.1
510.202	5.1
510.402	5.39
510.602	5.46
510.801	5.33
511.001	5.39
511.201	5.37
511.4	5.32
511.6	5.46
511.8	5.47
511.999	5.5
512.199	5.65
512.398	5.7
512.598	5.72
512.797	5.76
512.997	5.99
513.197	5.91
513.396	5.95
513.596	6.06
513.795	5.95
513.994	5.99
514.194	5.92
514.393	5.96
514.593	5.92
514.792	5.79
514.992	5.88
515.191	5.88
515.39	6.19
515.59	6.4
515.789	6.36
515.988	6.48
516.188	6.45
516.387	6.66
516.586	6.69
516.786	6.76
516.985	6.9
517.184	6.87
517.383	6.87
517.582	6.6
517.782	6.54
517.981	6.57
518.18	6.61
518.379	6.77
518.578	6.81
518.777	6.83
518.976	6.9
519.176	6.85
519.375	6.91
519.574	6.99
519.773	7.23
519.972	7.2
520.171	7.21
520.37	7.3
520.569	7.22
520.768	7.14
520.967	7.25
521.166	7.18
521.365	7.36
521.564	7.43
521.762	7.45
521.961	7.42
522.16	7.55
522.359	7.63
522.558	7.56
522.757	7.58
522.956	7.69
523.154	7.6
523.353	7.72
523.552	7.77
523.751	7.77
523.949	7.71
524.148	7.6
524.347	7.76
524.546	7.95
524.744	7.93
524.943	8.14
525.142	8.14
525.34	8.18
525.539	8.33
525.737	8.33
525.936	8.35
526.135	8.59
526.333	8.72
526.532	8.68
526.73	8.7
526.929	8.86
527.127	8.88
527.326	8.92
527.524	9.08
527.723	9.12
527.921	9.14
528.12	9.13
528.318	9.06
528.516	9.03
528.715	9.01
528.913	9.03
529.112	9.05
529.31	8.92
529.508	8.92
529.707	8.88
529.905	8.83
530.103	8.82
530.301	8.85
530.5	8.89
530.698	8.95
530.896	9.01
531.094	9.06
531.293	9.11
531.491	9.42
531.689	9.57
531.887	9.55
532.085	9.71
532.283	9.7
532.481	9.72
532.68	9.73
532.878	9.85
533.076	9.88
533.274	9.84
533.472	9.9
533.67	9.86
533.868	9.94
534.066	10.04
534.264	10.03
534.462	10.09
534.66	10.07
534.858	10.13
535.056	10.17
535.253	10.3
535.451	10.38
535.649	10.34
535.847	10.39
536.045	10.42
536.243	10.38
536.441	10.48
536.638	10.51
536.836	10.7
537.034	10.71
537.232	10.69
537.43	10.69
537.627	10.87
537.825	11.05
538.023	11.04
538.22	11
538.418	11.1
538.616	10.95
538.813	11.15
539.011	11.18
539.209	11.31
539.406	11.44
539.604	11.56
539.801	11.49
539.999	11.4
540.196	11.49
540.394	11.54
540.591	11.59
540.789	11.7
540.986	11.61
541.184	11.57
541.381	11.56
541.579	11.6
541.776	11.56
541.974	11.58
542.171	11.59
542.368	11.62
542.566	11.64
542.763	11.7
542.96	11.71
543.158	11.8
543.355	11.92
543.552	12.02
543.75	12.04
543.947	11.97
544.144	12.04
544.341	12.16
544.539	12.27
544.736	12.21
544.933	12.18
545.13	12.33
545.327	12.53
545.524	12.41
545.722	12.35
545.919	12.35
546.116	12.54
546.313	12.57
546.51	12.54
546.707	12.64
546.904	12.8
547.101	12.98
547.298	12.99
547.495	12.89
547.692	13.03
547.889	12.98
548.086	13.08
548.283	13.18
548.48	13.35
548.677	13.43
548.874	13.46
549.07	13.5
549.267	13.52
549.464	13.58
549.661	13.73
549.858	13.88
550.055	14.12
550.251	14.14
550.448	14.13
550.645	14.02
550.842	13.99
551.038	14.01
551.235	14.28
551.432	14.33
551.628	14.42
551.825	14.37
552.022	14.11
552.218	14.22
552.415	14.23
552.612	14.34
552.808	14.36
553.005	14.42
553.201	14.41
553.398	14.27
553.594	14.49
553.791	14.6
553.987	14.65
554.184	14.94
554.38	14.99
554.577	15.32
554.773	15.44
554.97	15.68
555.166	15.89
555.362	16.12
555.559	16.46
555.755	16.11
555.952	16.13
556.148	16.32
556.344	16.49
556.541	16.59
556.737	16.33
556.933	16.46
557.129	16.53
557.326	16.45
557.522	16.42
557.718	16.21
557.914	16.64
558.11	16.65
558.307	16.65
558.503	16.4
558.699	16.48
558.895	16.64
559.091	16.52
559.287	16.59
559.483	16.61
559.679	16.69
559.876	16.81
560.072	16.74
560.268	16.77
560.464	16.83
560.66	16.85
560.856	16.82
561.052	16.87
561.247	16.93
561.443	17.03
561.639	17.15
561.835	17.14
562.031	17.18
562.227	16.98
562.423	16.7
562.619	16.7
562.815	17
563.01	17.13
563.206	17.32
563.402	17.45
563.598	17.28
563.793	17.24
563.989	17.32
564.185	17.47
564.381	17.86
564.576	18.08
564.772	18.1
564.968	18.18
565.163	18.21
565.359	18.08
565.555	18.08
565.75	18.06
565.946	18.24
566.141	18.25
566.337	18.2
566.532	18.12
566.728	18.2
566.923	18.25
567.119	18.26
567.314	18.26
567.51	18.38
567.705	18.38
567.901	18.45
568.096	18.43
568.292	18.57
568.487	18.59
568.682	18.61
568.878	18.86
569.073	19.01
569.268	19.02
569.464	19.07
569.659	18.97
569.854	18.93
570.05	19.26
570.245	19.38
570.44	19.35
570.635	19.46
570.831	19.7
571.026	19.8
571.221	19.71
571.416	19.74
571.611	19.66
571.806	19.88
572.002	19.86
572.197	19.71
572.392	19.65
572.587	19.61
572.782	19.56
572.977	19.38
573.172	19.13
573.367	19.09
573.562	19.12
573.757	19.18
573.952	19.06
574.147	19.24
574.342	19.24
574.537	19.41
574.732	19.48
574.927	19.57
575.121	19.7
575.316	19.89
575.511	20.02
575.706	20.01
575.901	20.09
576.096	20.16
576.29	20.21
576.485	20.35
576.68	20.18
576.875	20.32
577.069	20.33
577.264	20.44
577.459	20.37
577.654	20.47
577.848	20.49
578.043	20.55
578.238	20.55
578.432	20.63
578.627	20.49
578.821	20.84
579.016	20.88
579.21	20.77
579.405	20.63
579.6	20.7
579.794	20.64
579.989	20.75
580.183	20.79
580.378	20.96
580.572	20.93
580.766	21.25
580.961	21.27
581.155	21.09
581.35	21.18
581.544	21.25
581.738	21.19
581.933	21.45
582.127	21.82
582.321	21.96
582.516	21.97
582.71	21.86
582.904	21.57
583.099	21.24
583.293	21.55
583.487	21.48
583.681	21.57
583.875	21.82
584.07	21.66
584.264	21.57
584.458	21.54
584.652	21.45
584.846	21.32
585.04	21.64
585.234	21.71
585.428	21.58
585.623	21.82
585.817	22.02
586.011	21.72
586.205	21.82
586.399	21.77
586.593	21.72
586.787	21.63
586.981	21.95
587.174	21.88
587.368	22.23
587.562	22.38
587.756	22.49
587.95	22.19
588.144	22.54
588.338	22.42
588.532	22.34
588.725	22.5
588.919	22.6
589.113	22.68
589.307	22.66
589.501	22.56
589.694	22.69
589.888	22.57
590.082	22.51
590.275	22.32
590.469	22.24
590.663	22.23
590.856	22.12
591.05	22.28
591.244	22.33
591.437	22.03
591.631	22.1
591.824	21.78
592.018	21.7
592.212	21.82
592.405	21.93
592.599	22.18
592.792	22.23
592.986	22.33
593.179	22.36
593.372	22.29
593.566	22.62
593.759	22.38
593.953	22.55
594.146	22.79
594.339	22.79
594.533	22.75
594.726	22.59
594.92	22.47
595.113	22.54
595.306	22.42
595.499	22.33
595.693	22.31
595.886	22.49
596.079	22.41
596.272	22.16
596.466	22.28
596.659	22.25
596.852	22.38
597.045	22.43
597.238	22.48
597.431	22.28
597.624	22.34
597.818	22.4
598.011	22.25
598.204	22.41
598.397	22.52
598.59	22.47
598.783	22.55
598.976	22.69
599.169	22.71
599.362	22.65
599.555	23.29
599.748	23.19
599.941	23.26
600.134	23.53
600.326	23.43
600.519	23.96
600.712	23.97
600.905	23.93
601.098	23.99
601.291	24.19
601.483	24.05
601.676	23.83
601.869	24.08
602.062	24.02
602.255	23.86
602.447	23.87
602.64	23.52
602.833	23.72
603.025	23.9
603.218	23.85
603.411	23.86
603.603	23.95
603.796	24.09
603.989	24.07
604.181	24.09
604.374	23.94
604.566	23.98
604.759	24.13
604.951	24.22
605.144	24.11
605.336	23.95
605.529	23.77
605.721	23.9
605.914	23.7
606.106	23.64
606.299	23.77
606.491	24.15
606.683	24.17
606.876	24.08
607.068	24
607.26	24.09
607.453	24.11
607.645	24.22
607.837	24.19
608.03	24.26
608.222	24.36
608.414	24.01
608.606	23.83
608.799	23.83
608.991	23.89
609.183	23.54
609.375	23.44
609.567	23.46
609.759	23.53
609.952	23.58
610.144	23.52
610.336	23.59
610.528	23.52
610.72	23.76
610.912	23.79
611.104	23.65
611.296	23.76
611.488	23.69
611.68	23.85
611.872	23.93
612.064	23.75
612.256	23.79
612.448	23.59
612.64	24.05
612.832	23.56
613.023	23.65
613.215	23.61
613.407	23.65
613.599	23.94
613.791	23.89
613.983	24.23
614.174	24.27
614.366	24.39
614.558	24.55
614.75	24.55
614.941	24.9
615.133	24.6
615.325	24.67
615.516	24.88
615.708	24.75
615.9	25.03
616.091	24.44
616.283	24.6
616.475	24.56
616.666	24.55
616.858	24.51
617.049	24.54
617.241	24.81
617.432	24.94
617.624	25.13
617.815	25.38
618.007	25.25
618.198	25.78
618.39	25.48
618.581	25.38
618.773	25.22
618.964	24.94
619.155	24.86
619.347	24.96
619.538	25.03
619.729	24.9
619.921	24.67
620.112	24.74
620.303	24.34
620.494	24.53
620.686	24.64
620.877	25.24
621.068	25.61
621.259	25.65
621.451	25.38
621.642	25.43
621.833	25.8
622.024	25.86
622.215	25.68
622.406	25.87
622.597	25.87
622.788	25.67
622.98	25.5
623.171	25.49
623.362	25.68
623.553	25.92
623.744	25.99
623.935	25.54
624.126	25.48
624.317	25.38
624.508	25.49
624.698	25.43
624.889	25.8
625.08	25.73
625.271	25.68
625.462	25.61
625.653	25.45
625.844	25.29
626.034	25.62
626.225	25.78
626.416	25.9
626.607	25.88
626.798	25.89
626.988	25.62
627.179	25.68
627.37	25.5
627.56	25.52
627.751	25.57
627.942	25.6
628.132	25.41
628.323	25.44
628.514	25.23
628.704	25.19
628.895	25.27
629.085	25.49
629.276	25.24
629.466	25.42
629.657	25.72
629.847	25.71
630.038	25.77
630.228	25.95
630.419	25.92
630.609	26.25
630.8	26.21
630.99	26.2
631.181	26.11
631.371	26.15
631.561	26.23
631.752	26.04
631.942	26
632.132	26.13
632.323	25.81
632.513	26
632.703	25.93
632.893	25.97
633.084	26.08
633.274	26.29
633.464	26.31
633.654	26.07
633.844	25.98
634.034	26.2
634.225	26.07
634.415	26.34
634.605	26.18
634.795	26.32
634.985	26.13
635.175	25.69
635.365	25.69
635.555	25.56
635.745	25.69
635.935	25.42
636.125	25.38
636.315	25.36
636.505	25.21
636.695	25.43
636.885	25.23
637.075	25.49
637.265	25.94
637.455	25.92
637.644	26.21
637.834	26.12
638.024	26.34
638.214	26.27
638.404	26.19
638.593	26.5
638.783	26.29
638.973	26.33
639.163	26.1
639.352	26.16
639.542	26.15
639.732	25.77
639.921	25.78
640.111	26.07
640.301	26.1
640.49	26.41
640.68	26.44
640.87	26.32
641.059	26.42
641.249	26.59
641.438	26.5
641.628	26.62
641.817	27.02
642.007	27.41
642.196	27.65
642.386	27.68
642.575	27.62
642.764	27.12
642.954	27.46
643.143	27.61
643.333	27.82
643.522	27.96
643.711	27.93
643.901	27.91
644.09	27.8
644.279	27.39
644.469	27.34
644.658	27.09
644.847	27.66
645.036	27.93
645.226	27.71
645.415	27.23
645.604	26.85
645.793	26.35
645.982	26.6
646.171	26.97
646.361	26.81
646.55	27.39
646.739	27.54
646.928	27.36
647.117	26.65
647.306	26.62
647.495	26.99
647.684	27.28
647.873	27.66
648.062	27.62
648.251	27.21
648.44	27.26
648.629	26.76
648.818	26.45
649.007	26.3
649.196	26.67
649.384	27.14
649.573	26.99
649.762	27.13
649.951	27.21
650.14	27.03
650.328	27.28
650.517	27.56
650.706	27.37
650.895	27.94
651.083	27.54
651.272	27.46
651.461	27.05
651.65	27.17
651.838	27
652.027	26.47
652.216	26.58
652.404	26.1
652.593	26.33
652.781	26.66
652.97	26.4
653.158	27.02
653.347	27.44
653.535	27.66
653.724	27.63
653.912	27.45
654.101	27.88
654.289	27.77
654.478	28.14
654.666	27.73
654.855	27.95
655.043	27.54
655.231	27.13
655.42	26.96
655.608	27.18
655.796	27.38
655.985	27.47
656.173	27.66
656.361	27.45
656.55	27.47
656.738	27.5
656.926	27.04
657.114	27.04
657.302	27.14
657.491	27.08
657.679	26.83
657.867	26.85
658.055	26.95
658.243	26.8
658.431	27.06
658.619	27.21
658.807	27.56
658.996	27.65
659.184	27.96
659.372	28.07
659.56	28.06
659.748	27.82
659.936	27.67
660.124	27.76
660.311	27.5
660.499	27.4
660.687	27.07
660.875	26.81
661.063	27.02
661.251	27.05
661.439	27.09
661.627	27.19
661.814	27.62
662.002	27.94
662.19	27.96
662.378	28.28
662.565	27.98
662.753	28.07
662.941	27.8
663.129	27.45
663.316	27.33
663.504	27.07
663.692	26.61
663.879	26.21
664.067	26.42
664.254	26.46
664.442	26.9
664.63	27.38
664.817	27.69
665.005	28.21
665.192	28.55
665.38	28.85
665.567	29.21
665.755	29.43
665.942	29.88
666.13	29.25
666.317	28.75
666.504	28.49
666.692	28.62
666.879	28.47
667.067	28.49
667.254	28.39
667.441	28.27
667.629	28.33
667.816	28.31
668.003	28.28
668.19	28.48
668.378	29.14
668.565	29.1
668.752	28.7
668.939	28.7
669.127	28.37
669.314	28.67
669.501	28.74
669.688	28.53
669.875	28.89
670.062	28.74
670.249	28.48
670.436	28.41
670.623	28.75
670.81	29.28
670.997	29.48
671.184	29.3
671.371	28.94
671.558	28.74
671.745	28.72
671.932	28.14
672.119	28.2
672.306	28.42
672.493	28.07
672.68	27.35
672.867	26.96
673.054	26.36
673.24	26.53
673.427	26.84
673.614	26.99
673.801	27.58
673.988	28.34
674.174	28.29
674.361	28.45
674.548	28.78
674.734	29.34
674.921	29.91
675.108	30.24
675.294	30.53
675.481	30.01
675.668	30.24
675.854	29.62
676.041	29.3
676.227	29.55
676.414	29.41
676.601	28.83
676.787	28.65
676.974	28.45
677.16	28.84
677.347	28.81
677.533	29.09
677.719	29.15
677.906	29.39
678.092	29.27
678.279	29.22
678.465	29.4
678.651	30.02
678.838	29.87
679.024	29.26
679.21	28.61
679.397	28.64
679.583	28.34
679.769	28.27
679.955	27.75
680.142	27.41
680.328	27.29
680.514	27.25
680.7	27.22
680.886	27.38
681.073	27.98
681.259	28.68
681.445	28.53
681.631	28.61
681.817	28.56
682.003	29.14
682.189	29.49
682.375	29.32
682.561	28.83
682.747	28.63
682.933	28.48
683.119	28.52
683.305	28.2
683.491	28.37
683.677	28.43
683.863	28.08
684.049	28.09
684.235	28.21
684.42	28.96
684.606	29.6
684.792	29.68
684.978	30.12
685.164	30.18
685.349	30.38
685.535	30.21
685.721	30.52
685.907	30.64
686.092	30.63
686.278	30.29
686.464	30.27
686.649	29.94
686.835	29.92
687.021	29.46
687.206	29.01
687.392	28.51
687.577	28.64
687.763	28.39
687.948	28.87
688.134	28.72
688.319	28.93
688.505	28.24
688.69	29.16
688.876	29.09
689.061	28.91
689.247	28.94
689.432	29.43
689.618	29.44
689.803	29.83
689.988	29.75
690.174	29.77
690.359	29.46
690.544	29.41
690.73	29.01
690.915	29.25
691.1	29.5
691.285	30.16
691.471	30.55
691.656	30.85
691.841	30.58
692.026	30.35
692.211	30.44
692.396	31
692.582	31.32
692.767	30.52
692.952	30.04
693.137	30.39
693.322	30.01
693.507	29.54
693.692	29.24
693.877	28.72
694.062	28.91
694.247	28.98
694.432	28.56
694.617	28.6
694.802	28.9
694.987	29.38
695.172	29.21
695.357	29.43
695.541	29.36
695.726	29.71
695.911	30.1
696.096	30.26
696.281	29.61
696.466	29.93
696.65	30.06
696.835	30.1
697.02	30.37
697.204	30.55
697.389	30.19
697.574	30.46
697.759	30.28
697.943	30.59
698.128	30.51
698.312	31.27
698.497	31.36
698.682	31.11
698.866	31.07
699.051	31.04
699.235	30.51
699.42	30.35
699.604	30.2
699.789	29.96
699.973	29.88
700.158	29.63
700.342	29.4
700.527	29.39
700.711	29.52
700.895	29.76
701.08	28.94
701.264	29.42
701.448	29.78
701.633	29.82
701.817	29.61
702.001	29.68
702.186	29.46
702.37	29.65
702.554	28.78
702.738	28.84
702.923	28.44
703.107	29.49
703.291	29.45
703.475	28.92
703.659	28.51
703.843	29.09
704.027	28.92
704.212	28.99
704.396	28.04
704.58	28.74
704.764	28.09
704.948	28.19
705.132	27.82
705.316	28.08
705.5	28.11
705.684	28.34
705.868	28.18
706.052	28.01
706.235	28.15
706.419	28.99
706.603	28.71
706.787	28.99
706.971	29.43
707.155	29.51
707.339	29.31
707.522	29.84
707.706	30.35
707.89	30.35
708.074	30.41
708.257	30.67
708.441	30.66
708.625	30.49
708.808	30.46
708.992	30.31
709.176	30.4
709.359	30.5
709.543	30.75
709.727	29.73
709.91	30.15
710.094	30.87
710.277	31.11
710.461	31.5
710.644	31.98
710.828	32.25
711.011	32.72
711.195	32.65
711.378	32.51
711.562	32.18
711.745	32.96
711.928	32.17
712.112	31.59
712.295	31
712.478	30.25
712.662	30.26
712.845	30.43
713.028	29.94
713.212	29.67
713.395	28.79
713.578	28.87
713.761	28.16
713.945	28.84
714.128	29.14
714.311	29.39
714.494	29.65
714.677	29.21
714.86	29.4
715.043	29.53
715.227	29.39
715.41	30.22
715.593	30.57
715.776	30.31
715.959	30.53
716.142	30.73
716.325	31.11
716.508	31.04
716.691	31.44
716.874	31.53
717.057	31.7
717.239	33.03
717.422	33.43
717.605	32.42
717.788	32.64
717.971	32.28
718.154	32.15
718.337	31.94
718.519	31.9
718.702	31.62
718.885	31.58
719.068	31.37
719.25	30.17
719.433	30.5
719.616	31.12
719.798	31.89
719.981	31.17
720.164	30.62
720.346	29.88
720.529	30.11
720.712	29.96
720.894	29.24
721.077	29.71
721.259	29.49
721.442	28.96
721.624	28.97
721.807	28.7
721.989	30.66
722.172	30.19
722.354	30.6
722.537	30.6
722.719	31.35
722.901	31.19
723.084	30.73
723.266	30.76
723.448	30.82
723.631	30.18
723.813	30.68
723.995	29.22
724.178	29.67
724.36	30.82
724.542	31.5
724.724	31.58
724.907	31.85
725.089	31.8
725.271	32.1
725.453	31.25
725.635	32.15
725.817	32.47
725.999	32.87
726.181	32.26
726.364	31.8
726.546	31.34
726.728	31.81
726.91	32.01
727.092	31.26
727.274	30.76
727.456	31.24
727.638	30.37
727.819	30.41
728.001	29.26
728.183	30.21
728.365	29.91
728.547	29.68
728.729	29.88
728.911	29.84
729.093	30.09
729.274	31.08
729.456	31.31
729.638	32
729.82	31.18
730.001	32.26
730.183	32.84
730.365	32.87
730.546	32.63
730.728	32.24
730.91	32.73
731.091	33.29
731.273	33.53
731.455	32.77
731.636	32.77
731.818	33.11
731.999	33.08
732.181	31.34
732.362	31.92
732.544	31.66
732.725	31.08
732.907	31.04
733.088	31.35
733.27	31.2
733.451	31.55
733.633	31.5
733.814	31.56
733.995	30.87
734.177	31.42
734.358	30.78
734.539	31.75
734.721	31.5
734.902	30.73
735.083	30.3
735.264	29.27
735.446	31.22
735.627	31.07
735.808	31.08
735.989	32.12
736.17	32.56
736.351	33.11
736.533	32.69
736.714	32.81
736.895	33.25
737.076	33.09
737.257	34.09
737.438	33.16
737.619	33.83
737.8	32.69
737.981	31.93
738.162	32.02
738.343	32.06
738.524	32.12
738.705	33.11
738.886	32.55
739.067	33.76
739.247	33.18
739.428	31.9
739.609	31.54
739.79	32.47
739.971	32.35
740.151	32.57
740.332	32.13
740.513	31.97
740.694	30.83
740.874	32.11
741.055	30.75
741.236	30.76
741.417	31.11
741.597	30.6
741.778	31.2
741.958	31.41
742.139	31.8
742.32	32.2
742.5	32.67
742.681	32.48
742.861	31.07
743.042	32.23
743.222	32.29
743.403	33.03
743.583	34.4
743.764	33.33
743.944	33.19
744.124	32.22
744.305	31.46
744.485	30.62
744.666	31.64
744.846	31.51
745.026	30.38
745.207	31.19
745.387	29.92
745.567	29.09
745.747	30.21
745.928	30.06
746.108	29.96
746.288	29.99
746.468	30.22
746.648	29.56
746.829	30.23
747.009	30.59
747.189	29.9
747.369	30.45
747.549	29.73
747.729	29.08
747.909	29.37
748.089	29.2
748.269	30.44
748.449	30.25
748.629	30.54
748.809	30.11
748.989	30.16
749.169	29.44
749.349	30.07
749.529	30.03
749.709	30.19
749.889	30.62
750.068	31.97
750.248	31.83
750.428	31.08
750.608	30.7
750.788	30.74
750.967	29.55
751.147	30.75
751.327	30.68
751.507	30.58
751.686	31.15
751.866	31.47
752.046	29.42
752.225	29.3
752.405	30.81
752.585	32.31
752.764	33.82
752.944	35.33
753.123	34.16
753.303	34.87
753.482	34.71
753.662	33.84
753.841	34.53
754.021	35.95
754.2	34.84
754.38	34.32
754.559	32.23
754.739	30.07
754.918	28.28
755.097	29.09
755.277	27.79
755.456	28.55
755.635	28.47
755.815	27.57
755.994	26.64
756.173	26.42
756.352	27.21
756.532	28.33
756.711	30.64
756.89	31.54
757.069	32.16
757.248	33.21
757.427	32.82
757.607	33.6
757.786	34.1
757.965	34.86
758.144	35.9
758.323	35.22
758.502	34.31
758.681	34.43
758.86	34.53
759.039	33.83
759.218	33.75
759.397	33.67
759.576	32.58
759.755	32.73
759.934	32.31
760.113	32.93
760.291	32.22
760.47	33.48
760.649	31.95
760.828	32.35
761.007	33.25
761.186	32.68
761.364	33.34
761.543	33.59
761.722	33.7
761.901	33.76
762.079	33.72
762.258	34.84
762.437	33.2
762.615	33.75
762.794	32.94
762.972	32.06
763.151	31.76
763.33	31.67
763.508	31.64
763.687	30.92
763.865	31.05
764.044	29.91
764.222	29.43
764.401	30.9
764.579	31.28
764.758	32
764.936	31.84
765.114	32.34
765.293	32.48
765.471	32.78
765.65	33.15
765.828	33.5
766.006	34.46
766.184	33.93
766.363	32.51
766.541	31.79
766.719	32.61
766.898	33.85
767.076	33.68
767.254	33.98
767.432	34.13
767.61	34.04
767.788	34.39
767.967	34.41
768.145	35.42
768.323	35.44
768.501	35.41
768.679	32.85
768.857	32.18
769.035	31.42
769.213	30.85
769.391	30.54
769.569	30.11
769.747	28.67
769.925	26.46
770.103	26.02
770.281	27.74
770.459	27.82
770.636	28.93
770.814	28.1
770.992	30.33
771.17	29.94
771.348	29.96
771.525	30.41
771.703	31.2
771.881	32.55
772.059	33.11
772.236	32.39
772.414	33.06
772.592	33.84
772.769	34.81
772.947	32.72
773.125	33.26
773.302	32.5
773.48	32.35
773.657	33.35
773.835	33.72
774.013	33.52
774.19	33.36
774.368	32.19
774.545	32.31
774.723	32.05
774.9	32.2
775.077	33.92
775.255	34.86
775.432	35.57
775.61	35.16
775.787	35.2
775.964	35.25
776.142	34.24
776.319	34.39
776.496	33.13
776.674	32.27
776.851	32.68
777.028	29.66
777.205	30.91
777.382	31.26
777.56	30.72
777.737	31.02
777.914	30.94
778.091	32.67
778.268	32.32
778.445	32.28
778.622	33.52
778.8	34.92
778.977	34.81
779.154	34.14
779.331	34.21
779.508	34.34
779.685	35.64
779.862	35.36
780.038	35.17
780.215	35.86
780.392	37.04
780.569	35.75
780.746	35.23
780.923	37.22
781.1	37.51
781.277	35.88
781.453	35.78
781.63	33.27
781.807	33.2
781.984	33.04
782.16	33.57
782.337	33.76
782.514	35.27
782.691	34.7
782.867	34.95
783.044	34.18
783.221	35.44
783.397	36.37
783.574	36.73
783.75	36.06
783.927	37.86
784.103	36.95
784.28	36.61
784.456	35.99
784.633	34.95
784.809	34.35
784.986	34.16
785.162	32.89
785.339	32.34
785.515	33.3
785.692	35.57
785.868	35.3
786.044	36.41
786.221	34.57
786.397	37.44
786.573	39.33
786.749	37.47
786.926	37.72
787.102	41.35
787.278	38.53
787.454	37.39
787.631	36.52
787.807	35.07
787.983	33.9
788.159	35.79
788.335	33.71
788.511	33.25
788.687	34.13
788.863	34.8
789.039	33.25
789.216	34.87
789.392	35.6
789.568	35.73
789.744	36.87
789.919	37
790.095	37.3
790.271	38.51
790.447	38.04
790.623	36.25
790.799	35.73
790.975	35.51
791.151	37.08
791.327	38.09
791.502	37.55
791.678	37.89
791.854	38.68
792.03	38.88
792.205	36.45
792.381	35.41
792.557	39.82
792.733	40.29
792.908	38.38
793.084	37.45
793.259	37.13
793.435	36.45
793.611	35.17
793.786	35.59
793.962	35.07
794.137	36.26
794.313	35.76
794.488	32.4
794.664	30.66
794.839	32.95
795.015	32.7
795.19	32.38
795.366	31.66
795.541	32.16
795.716	33.3
795.892	32.78
796.067	33.08
796.242	34.16
796.418	34.86
796.593	36.43
796.768	35.25
796.944	35.05
797.119	34.69
797.294	36.34
797.469	33.92
797.644	32.04
797.82	33.45
797.995	32.93
798.17	33.61
798.345	33.68
798.52	31.99
798.695	32.19
798.87	29.66
799.045	29.14
799.22	30.64
799.395	31.84
799.57	31.38
799.745	29.79
799.92	29.24
800.095	28.63
800.27	29.18
800.445	30.35
800.62	31.95
800.795	34.15
800.97	36.05
801.145	33.74
801.319	35.84
801.494	35.98
801.669	34.79
801.844	35.42
802.018	35.4
802.193	34.45
802.368	35.43
802.543	33.85
802.717	35.52
802.892	33.07
803.067	31.57
803.241	32.25
803.416	34.06
803.59	35.84
803.765	35.21
803.94	33.64
804.114	33.09
804.289	33.74
804.463	33.56
804.638	33.43
804.812	33.44
804.986	35.94
805.161	33.5
805.335	33.72
805.51	32.8
805.684	34.02
805.858	35.09
806.033	36.37
806.207	33.76
806.381	35.94
806.556	32.8
806.73	32.62
806.904	33.52
807.078	35.23
807.253	33.27
807.427	33.18
807.601	32.79
807.775	33.44
807.949	34.52
808.123	35.83
808.298	34.14
808.472	36.85
808.646	38.97
808.82	38.16
808.994	35.94
809.168	36.09
809.342	38.05
809.516	38.52
809.69	39.26
809.864	40.08
810.038	36.71
810.212	37.98
810.385	37.01
810.559	35.84
810.733	35.56
810.907	37.03
811.081	38.25
811.255	33.85
811.428	32.58
811.602	30.18
811.776	28.87
811.95	33.98
812.123	32.04
812.297	29.82
812.471	28.38
812.644	29.45
812.818	26.01
812.992	24.89
813.165	27.81
813.339	29.19
813.512	33.81
813.686	32.82
813.86	31.55
814.033	32.99
814.207	35.88
814.38	41.02
814.554	41.38
814.727	44.08
814.9	44.59
815.074	45.48
815.247	45.52
815.421	39.77
815.594	39.17
815.767	40.11
815.941	35.99
816.114	35.76
816.287	32.4
816.46	29.49
816.634	31.75
816.807	29.74
816.98	29.41
817.153	31.09
817.327	34.38
817.5	34.75
817.673	34.09
817.846	36.28
818.019	35.37
818.192	35.12
818.365	37.76
818.538	38.05
818.711	41.99
818.884	40.51
819.057	39.46
819.23	40.09
819.403	41.55
819.576	41.3
819.749	42.09
819.922	40.97
820.095	42.01
820.268	42.05
820.441	40.17
820.614	38.56
820.786	39.08
820.959	36.84
821.132	35.3
821.305	34.78
821.477	33.61
821.65	33.15
821.823	32.87
821.996	31.93
822.168	31.41
822.341	30.93
822.514	31.3
822.686	31.1
822.859	31.75
823.031	32.14
823.204	32.3
823.376	32.27
823.549	32.3
823.722	32.71
823.894	32.69
824.067	32.7
824.239	33.6
824.411	33.52
824.584	34.43
824.756	34.39
824.929	34.55
825.101	33.91
825.273	34.04
825.446	35.09
825.618	34.87
825.79	34.58
825.963	34.56
826.135	33.53
826.307	32.61
826.479	31.29
826.652	30.23
826.824	30.25
826.996	30.41
827.168	31.21
827.34	30.48
827.512	30.3
827.684	31.13
827.856	31.32
828.029	32.79
828.201	32.36
828.373	32.86
828.545	34.48
828.717	33.98
828.889	35.15
829.061	35.96
829.232	36.57
829.404	37.25
829.576	38.19
829.748	38.42
829.92	37.83
830.092	39.2
830.264	40.99
830.436	39.88
830.607	41.91
830.779	40.67
830.951	39.13
831.123	37.9
831.294	38.01
831.466	38.95
831.638	39.85
831.809	40.57
831.981	41.26
832.153	38.86
832.324	42.88
832.496	41.48
832.667	42.08
832.839	41.47
833.011	42.7
833.182	43.5
833.354	39.95
833.525	37.69
833.697	37.51
833.868	37.31
834.039	38.25
834.211	34.99
834.382	33.73
834.554	34.87
834.725	35.21
834.896	34.92
835.068	35.68
835.239	37.46
835.41	38.11
835.581	35.58
835.753	35.59
835.924	35.13
836.095	35.77
836.266	35.74
836.438	33.72
836.609	32.59
836.78	31.84
836.951	31.64
837.122	31.57
837.293	32.73
837.464	34.09
837.635	33.57
837.806	34.27
837.977	35.13
838.148	36.04
838.319	37.56
838.49	38.65
838.661	40.62
838.832	36.88
839.003	35.62
839.174	34.57
839.345	37.76
839.516	39.19
839.687	38.71
839.857	37.55
840.028	40.43
840.199	40.87
840.37	42.64
840.54	43.59
840.711	44.34
840.882	44.23
841.053	43.45
841.223	42.3
841.394	40.54
841.564	35.78
841.735	35.76
841.906	36.12
842.076	34.33
842.247	34.36
842.417	30.98
842.588	36.94
842.758	37.85
842.929	35
843.099	32.14
843.27	35.89
843.44	40.98
843.611	43.87
843.781	41.74
843.951	40.48
844.122	44.04
844.292	43.14
844.462	39.03
844.633	42.07
844.803	45.7
844.973	49.14
845.144	53.22
845.314	48.82
845.484	41.93
845.654	44.59
845.824	54.39
845.995	52.03
846.165	53.49
846.335	51.69
846.505	45.91
846.675	48.3
846.845	54.66
847.015	46
847.185	48.77
847.355	58.2
847.525	62.65
847.695	46.77
847.865	45.11
848.035	40.54
848.205	37.93
848.375	47.88
848.545	49.4
848.715	36.14
848.884	39.46
849.054	46.83
849.224	44.45
849.394	34.29
849.564	44.72
849.733	44.18
849.903	50.5
850.073	53.06
850.243	44.26
850.412	44.17
850.582	44.81
850.752	49.39
850.921	42.23
851.091	42.2
851.26	40.87
851.43	37.66
851.599	33.05
851.769	26.99
851.939	32.06
852.108	34.26
852.278	35.4
852.447	37.03
852.616	28.55
852.786	35.21
852.955	36.25
853.125	36.58
853.294	35.28
853.463	40.59
853.633	41.88
853.802	35.36
853.971	31.22
854.141	25.96
854.31	26.42
854.479	34.13
854.648	27.97
854.818	31.04
854.987	33.6
855.156	35.1
855.325	32.36
855.494	33.37
855.663	33.48
855.832	36.33
856.001	39.51
856.171	50.04
856.34	41.98
856.509	43.06
856.678	41.28
856.847	44.39
857.016	46.9
857.185	53.74
857.353	59.14
857.522	62.14
857.691	56.78
857.86	55.86
858.029	44.97
858.198	53.79
858.367	57.59
858.535	52.88
858.704	50.16
858.873	54.71
859.042	51.36
859.21	46.94
859.379	41.75
859.548	49.44
859.717	46.92
859.885	58.6
860.054	59.07
860.222	58.97
860.391	64.54
860.56	64.31
860.728	60.08
860.897	61.63
861.065	62.71
861.234	74.94
861.402	68.32
861.571	69.15
861.739	65.87
861.908	62.33
862.076	58.73
862.244	57.23
862.413	57.34
862.581	54.25
862.749	56.35
862.918	60.24
863.086	52.93
863.254	63.07
863.423	69.52
863.591	53.94
863.759	52.56
863.927	44.61
864.096	44.68
864.264	41.32
864.432	47.46
864.6	44.29
864.768	29.53
864.936	20.87
865.104	15.19
865.272	6.08
865.44	12.42
865.608	11.87
865.776	25.32
865.944	22.03
866.112	27.34
866.28	25.29
866.448	36.12
866.616	36.81
866.784	43.18
866.952	43.16
867.12	43.85
867.288	39.38
867.455	48.32
867.623	54
867.791	61.34
867.959	63.28
868.127	64.08
868.294	50.57
868.462	65.83
868.63	67.88
868.797	79.46
868.965	75.66
869.133	84.64
869.3	80.48
869.468	76.1
869.636	67.28
869.803	69.17
869.971	69.95
870.138	72.36
870.306	70.77
870.473	70.4
870.641	67.44
870.808	73.9
870.975	72.11
871.143	73.36
871.31	72.71
871.478	83.25
871.645	81.22
871.812	74.9
871.98	70.39
872.147	70.61
872.314	74.43
872.482	69.41
872.649	52.74
872.816	51.12
872.983	51.77
873.15	54.71
873.318	45.39
873.485	47.37
873.652	50.2
873.819	53.42
873.986	48.15
874.153	44.62
874.32	40.24
874.487	45.37
874.654	43.95
874.821	46.4
874.988	44.26
875.155	43.26
875.322	34.55
875.489	40.64
875.656	41.84
875.823	45.09
875.99	43.97
876.157	52.92
876.324	45.97
876.49	45.28
876.657	42.74
876.824	35.03
876.991	38
877.157	44.15
877.324	33.57
877.491	38.81
877.658	36.98
877.824	36.52
877.991	31.24
878.157	43.21
878.324	40.02
878.491	31.05
878.657	42.68
878.824	37.25
878.99	44.97
879.157	52.87
879.323	47.09
879.49	45.55
879.656	43.5
879.823	43.67
879.989	33.42
880.156	31.85
880.322	38.52
880.488	39.15
880.655	38.02
880.821	32.87
880.987	27.35
881.154	30.23
881.32	34.32
881.486	35.39
881.652	39.28
881.819	42.57
881.985	41.35
882.151	41.63
882.317	38.19
882.483	38.41
882.649	40.25
882.816	41.51
882.982	40.76
883.148	38.87
883.314	39.76
883.48	38.05
883.646	38.38
883.812	38.81
883.978	36.14
884.144	37.46
884.31	37.07
884.476	36.66
884.642	34.84
884.807	34.42
884.973	33.92
885.139	32.87
885.305	33.65
885.471	31.99
885.637	31.32
885.802	35.23
885.968	34.17
886.134	36.45
886.3	35.58
886.465	38
886.631	37.76
886.797	40.82
886.962	42.93
887.128	42.73
887.293	44.39
887.459	50.57
887.625	50.4
887.79	52.98
887.956	52.84
888.121	54.88
888.287	56.27
888.452	60.4
888.618	58.92
888.783	57.71
