Data from CB_074_Reflection_5.txt Node
Date: Sat Nov 14 11:28:32 EST 2015
User: robert
Spectrometer: USB4E03001
Autoset integration time: false
Trigger mode: 4
Integration Time (sec): 1.000000E-1
Scans to average: 15
Electric dark correction enabled: true
Nonlinearity correction enabled: false
Boxcar width: 5
Stray light correction enabled: false
XAxis mode: Wavelengths
Stop averaging: false
Number of Pixels in Spectrum: 3648
>>>>>Begin Spectral Data<<<<<
177.566	-219.67
177.785	-234.23
178.005	-691.99
178.225	-181.88
178.445	-223.37
178.665	-598.62
178.885	147.2
179.105	-76.27
179.324	-98.66
179.544	-350.38
179.764	-112.2
179.984	-197.7
180.204	-208.94
180.423	-681.68
180.643	-434.3
180.863	-752.92
181.083	-3447.83
181.302	-13856.35
181.522	1617.14
181.742	1773.51
181.961	2185.27
182.181	296.71
182.401	218.73
182.621	339.38
182.84	1493.42
183.06	-5411.53
183.279	-712.39
183.499	-463.16
183.719	-600.94
183.938	-372.83
184.158	-260.79
184.377	-201.78
184.597	-144.26
184.816	-82.89
185.036	-167.24
185.256	-237.17
185.475	-454.69
185.695	-266.72
185.914	-279.69
186.134	-293.46
186.353	-295.69
186.572	-294.7
186.792	-970.95
187.011	4795.8
187.231	-3515.91
187.45	-565.53
187.67	-1939.92
187.889	809.84
188.108	392.94
188.328	338.41
188.547	277.53
188.766	241.65
188.986	204.85
189.205	195.18
189.424	214.46
189.644	185.28
189.863	264.23
190.082	305.66
190.302	423.31
190.521	413.94
190.74	418.8
190.959	1650.45
191.178	1427.57
191.398	1160.69
191.617	3133.38
191.836	11294.62
192.055	1995.92
192.274	523.59
192.494	776.51
192.713	37166.07
192.932	-3034.6
193.151	510250
193.37	669.84
193.589	-18671.68
193.808	-1755.05
194.027	-3016.06
194.246	6225.31
194.465	-4476.76
194.685	1099.23
194.904	998.62
195.123	539.98
195.342	431.69
195.561	393.67
195.78	1235
195.999	2319.66
196.218	839
196.436	381.07
196.655	253.61
196.874	136.44
197.093	317.9
197.312	340.18
197.531	606.87
197.75	988.15
197.969	2409.2
198.188	409.21
198.407	318.59
198.625	341.81
198.844	425.91
199.063	483.4
199.282	1089.87
199.501	-5337.11
199.719	-2804.17
199.938	1215.41
200.157	708.33
200.376	-4491.62
200.594	-314.61
200.813	-813.36
201.032	-2387.2
201.251	-1213.13
201.469	-1807.83
201.688	-3152.55
201.907	5426.78
202.125	1656.1
202.344	6318.24
202.563	32085.51
202.781	1723.75
203	560.44
203.218	456.53
203.437	736.37
203.656	527.84
203.874	1118.25
204.093	902.93
204.311	574.25
204.53	1665.37
204.748	425.25
204.967	597.28
205.185	454.06
205.404	525.32
205.622	660.24
205.841	340.85
206.059	259.16
206.278	248.07
206.496	456.35
206.715	652.15
206.933	445.48
207.151	600.39
207.37	440.59
207.588	546.2
207.806	608.43
208.025	813.46
208.243	1361.09
208.461	-109081.82
208.68	3222.56
208.898	1286.6
209.116	698.33
209.335	516.16
209.553	409.77
209.771	316.79
209.989	253.35
210.208	217.98
210.426	193.12
210.644	159.9
210.862	137.55
211.081	144.06
211.299	111.72
211.517	156.9
211.735	125.22
211.953	128.7
212.171	148.32
212.39	179.05
212.608	184.24
212.826	166.41
213.044	170.31
213.262	164.23
213.48	175.89
213.698	274.73
213.916	149.72
214.134	304.63
214.352	653.52
214.57	360.17
214.788	283.76
215.006	243.63
215.224	525.51
215.442	1424.18
215.66	2725.98
215.878	640.18
216.096	288.76
216.314	773.35
216.532	2916.75
216.75	-899.72
216.968	-1000.11
217.185	-9721.24
217.403	2689.01
217.621	-154988.89
217.839	-850.1
218.057	-35154.17
218.275	-1293.92
218.492	-281.83
218.71	-5248.79
218.928	3280.95
219.146	1701.76
219.363	985.17
219.581	1125.02
219.799	-5625.23
220.017	582.78
220.234	785.72
220.452	718.49
220.67	1092.7
220.887	350.59
221.105	588.01
221.323	284.74
221.54	220.08
221.758	227.88
221.976	195.74
222.193	140.5
222.411	138.64
222.629	137.17
222.846	131.21
223.064	111.05
223.281	137.18
223.499	137.94
223.716	136.6
223.934	114.02
224.151	108.38
224.369	100.7
224.586	140.3
224.804	158.59
225.021	138.72
225.239	130.71
225.456	130.9
225.674	111.3
225.891	105
226.108	116.63
226.326	112.98
226.543	117.99
226.76	107.93
226.978	81.97
227.195	83.05
227.413	75.36
227.63	73.12
227.847	71.62
228.064	69.24
228.282	65.71
228.499	58.36
228.716	52.2
228.934	51.29
229.151	51.32
229.368	47.98
229.585	44.22
229.802	43.62
230.02	43.46
230.237	41.98
230.454	41.44
230.671	41.03
230.888	43.64
231.105	50.27
231.323	48.49
231.54	54.38
231.757	59.48
231.974	62.88
232.191	67.71
232.408	64.02
232.625	69.55
232.842	62.29
233.059	60.88
233.276	59.91
233.493	57.23
233.71	54.49
233.927	44.29
234.144	44.81
234.361	42.6
234.578	39.64
234.795	41.59
235.012	34.87
235.229	34.3
235.446	37.84
235.663	38.24
235.879	38.72
236.096	41.81
236.313	50.57
236.53	45.52
236.747	55.04
236.964	57.82
237.181	59.5
237.397	64.24
237.614	78.76
237.831	77.92
238.048	73.58
238.264	68.36
238.481	67.68
238.698	65.88
238.915	69.16
239.131	54.01
239.348	52.25
239.565	51.29
239.781	50.35
239.998	39.6
240.215	37.84
240.431	42.13
240.648	44.31
240.865	40.11
241.081	36.59
241.298	31.54
241.514	34.45
241.731	30.12
241.947	27.85
242.164	26
242.38	24.95
242.597	23.67
242.814	21.55
243.03	22.92
243.246	24.97
243.463	27.18
243.679	28.96
243.896	27.98
244.112	29.65
244.329	32.35
244.545	34.57
244.762	36.52
244.978	40.02
245.194	38.44
245.411	33.73
245.627	30.95
245.843	30.13
246.06	29.69
246.276	30.67
246.492	30.93
246.709	29.84
246.925	29.16
247.141	28.9
247.357	27.4
247.574	27.68
247.79	27.06
248.006	25.9
248.222	25.33
248.439	24.78
248.655	24.22
248.871	23.68
249.087	24.42
249.303	25.85
249.519	26.63
249.736	28.34
249.952	29.47
250.168	34.37
250.384	37.49
250.6	36.61
250.816	38.3
251.032	38.26
251.248	38.85
251.464	35.88
251.68	32.57
251.896	32.13
252.112	32.03
252.328	30.7
252.544	30.55
252.76	27.61
252.976	28.44
253.192	26.74
253.408	27.26
253.624	26.12
253.84	28.76
254.056	31.82
254.272	30.45
254.487	28.79
254.703	29.7
254.919	26.22
255.135	31.52
255.351	31.73
255.567	32.51
255.782	33.9
255.998	36.51
256.214	32.82
256.43	28.19
256.646	28.37
256.861	31.08
257.077	31.02
257.293	29.01
257.508	28.5
257.724	28.89
257.94	28.56
258.155	25.54
258.371	23.12
258.587	22.44
258.802	21.36
259.018	20.02
259.234	18.82
259.449	17.46
259.665	18.11
259.88	18.13
260.096	17.64
260.312	17.35
260.527	17.92
260.743	18.08
260.958	18.51
261.174	19.31
261.389	21.08
261.605	21.32
261.82	21.85
262.036	22.35
262.251	21.69
262.466	22.21
262.682	21.33
262.897	22.3
263.113	22.4
263.328	20.97
263.543	21.67
263.759	20.97
263.974	20.93
264.189	19.89
264.405	18.36
264.62	19.56
264.835	18.34
265.051	23.07
265.266	20.67
265.481	23.62
265.696	26.97
265.912	24.97
266.127	23.67
266.342	23.26
266.557	25.02
266.773	24.22
266.988	22.4
267.203	22.77
267.418	21.44
267.633	20.78
267.848	18.35
268.064	14.75
268.279	15.46
268.494	14.98
268.709	15.1
268.924	15.53
269.139	15.22
269.354	17.26
269.569	16.74
269.784	16.77
269.999	17.45
270.214	18.56
270.429	20.05
270.644	19.91
270.859	19.54
271.074	17.9
271.289	18.52
271.504	19
271.719	18.91
271.934	20.01
272.149	18.64
272.363	19.28
272.578	18.23
272.793	17.53
273.008	17.07
273.223	16.28
273.438	16.31
273.653	16.13
273.867	17.2
274.082	18.69
274.297	18.49
274.512	20.61
274.726	20.66
274.941	19.81
275.156	23
275.371	22.96
275.585	23.97
275.8	26.82
276.015	25.59
276.229	25.61
276.444	24.05
276.659	22.23
276.873	19.08
277.088	20.54
277.302	23.64
277.517	20.65
277.732	21.75
277.946	23.92
278.161	23.63
278.375	23.38
278.59	21.15
278.804	21.48
279.019	22.65
279.233	22.44
279.448	19.36
279.662	17.41
279.877	18.86
280.091	17.46
280.306	16.88
280.52	14.84
280.735	14.57
280.949	17.02
281.163	15.95
281.378	17.05
281.592	18.51
281.806	18.83
282.021	17.98
282.235	17.62
282.449	19.26
282.664	18.16
282.878	19.26
283.092	19.71
283.307	19.08
283.521	19.24
283.735	18.34
283.949	19.29
284.164	20.09
284.378	20.92
284.592	20.54
284.806	20.06
285.02	20.28
285.234	18.47
285.449	17.69
285.663	18.13
285.877	18.13
286.091	18.29
286.305	17.25
286.519	16.38
286.733	16.31
286.947	17.14
287.161	16.65
287.375	16.56
287.589	19.08
287.803	20.26
288.017	20.24
288.231	20.15
288.445	21.44
288.659	22.33
288.873	24.12
289.087	24.83
289.301	25.15
289.515	24.13
289.729	24.21
289.943	23.7
290.157	23.5
290.371	23.44
290.584	24.2
290.798	23.9
291.012	23.1
291.226	21.3
291.44	20.88
291.654	20.77
291.867	21.98
292.081	22.2
292.295	21.51
292.509	22.19
292.722	22.01
292.936	19.51
293.15	18.45
293.364	18.17
293.577	19.53
293.791	19.98
294.005	18.86
294.218	19.42
294.432	19.26
294.645	20.73
294.859	20.84
295.073	21.22
295.286	22.78
295.5	22.44
295.713	22.84
295.927	22.41
296.14	21.21
296.354	21.34
296.568	19.97
296.781	19.45
296.994	18.53
297.208	17.45
297.421	16.69
297.635	17.13
297.848	16.86
298.062	16.39
298.275	16.7
298.489	17.3
298.702	17.62
298.915	17.36
299.129	18.13
299.342	18.34
299.555	19.68
299.769	20.32
299.982	19.65
300.195	20.35
300.409	20.55
300.622	20.32
300.835	20.08
301.048	19.35
301.262	21.07
301.475	22.05
301.688	22.2
301.901	21.68
302.115	21.04
302.328	21.08
302.541	22.31
302.754	23.7
302.967	24.21
303.18	24.18
303.393	24.34
303.607	24.45
303.82	23.97
304.033	24.48
304.246	23.93
304.459	23.84
304.672	24.65
304.885	23.7
305.098	23.66
305.311	24.49
305.524	25.31
305.737	25.34
305.95	25.24
306.163	24.62
306.376	23.12
306.589	24.61
306.802	25.56
307.015	25.99
307.228	26.12
307.44	25.41
307.653	23.6
307.866	23.05
308.079	23.82
308.292	22.68
308.505	23.49
308.718	23.94
308.93	23.46
309.143	23.83
309.356	22.97
309.569	23.08
309.781	24.04
309.994	26.21
310.207	26.42
310.42	25.57
310.632	26.24
310.845	25.57
311.058	25.97
311.27	25.41
311.483	24.77
311.696	25.2
311.908	25.19
312.121	24.2
312.333	23.88
312.546	23.77
312.759	23.56
312.971	23.63
313.184	24.25
313.396	24.82
313.609	24.48
313.821	25
314.034	24.62
314.246	23.54
314.459	24.52
314.671	22.97
314.884	23.77
315.096	24.76
315.309	25.43
315.521	26.02
315.733	24.66
315.946	25.49
316.158	25.34
316.371	26.35
316.583	27.78
316.795	27.11
317.008	28.15
317.22	27.35
317.432	28.15
317.644	28.15
317.857	27.31
318.069	27.42
318.281	28.29
318.494	28.84
318.706	28.1
318.918	28.68
319.13	27.78
319.342	27.05
319.555	26.73
319.767	26.25
319.979	25.25
320.191	25.28
320.403	27.19
320.615	27.43
320.827	28.08
321.039	28.5
321.252	28.65
321.464	30.18
321.676	30.41
321.888	31.13
322.1	30.14
322.312	29.94
322.524	30
322.736	28.34
322.948	28.33
323.16	27.21
323.372	26.7
323.584	25.44
323.796	24.18
324.007	24.16
324.219	24.54
324.431	25.82
324.643	26.7
324.855	26.76
325.067	26.52
325.279	25.68
325.491	26.76
325.702	27.95
325.914	28.07
326.126	29.76
326.338	28.64
326.55	28.8
326.761	28.87
326.973	28.75
327.185	29.65
327.396	30.56
327.608	31.03
327.82	30.33
328.032	29.65
328.243	30.04
328.455	29.9
328.666	31.72
328.878	32.02
329.09	31.54
329.301	31.86
329.513	30.17
329.725	30.28
329.936	30.24
330.148	30.06
330.359	30.75
330.571	31.82
330.782	31.93
330.994	32.14
331.205	31.62
331.417	32.77
331.628	34.18
331.84	36.59
332.051	36.88
332.262	38.68
332.474	38.37
332.685	38.95
332.897	38.41
333.108	37.68
333.319	36.42
333.531	37.02
333.742	36.49
333.953	34.53
334.165	33.06
334.376	33.16
334.587	31.61
334.799	30.95
335.01	29.33
335.221	28.57
335.432	27.79
335.644	27.35
335.855	26.28
336.066	25.41
336.277	26.28
336.488	26.8
336.7	25.92
336.911	26.68
337.122	28.1
337.333	28.36
337.544	28.96
337.755	30.35
337.966	31.52
338.177	31.65
338.388	31.66
338.599	31.69
338.811	31.41
339.022	31.18
339.233	30.88
339.444	29.28
339.655	28.14
339.866	28.36
340.076	27.71
340.287	27.04
340.498	27.26
340.709	27.79
340.92	27.59
341.131	27.52
341.342	28.26
341.553	26.9
341.764	28.04
341.975	29.32
342.185	28.5
342.396	28.34
342.607	27.58
342.818	27.33
343.029	26.82
343.239	27.15
343.45	26.56
343.661	25.62
343.872	26.32
344.082	26.1
344.293	26.64
344.504	27.01
344.714	26.88
344.925	27.46
345.136	27.14
345.346	26.24
345.557	25.38
345.768	25.44
345.978	26.62
346.189	27.05
346.399	25.88
346.61	24.92
346.821	24.98
347.031	25.89
347.242	25.66
347.452	25.78
347.663	27.53
347.873	28.04
348.084	28.49
348.294	27.31
348.504	26.5
348.715	27.13
348.925	26.97
349.136	25.95
349.346	25.36
349.557	25.88
349.767	26.69
349.977	25.7
350.188	25.43
350.398	25.38
350.608	25.61
350.819	26.42
351.029	26.51
351.239	27.37
351.449	27.81
351.66	27.47
351.87	27.08
352.08	26.64
352.29	27.15
352.501	27.21
352.711	26.94
352.921	27.1
353.131	25.11
353.341	25.51
353.552	24.15
353.762	23.8
353.972	24.11
354.182	24.39
354.392	24.49
354.602	24.24
354.812	24.57
355.022	24.42
355.232	24.69
355.442	26.37
355.652	26.02
355.862	25.87
356.072	26.6
356.282	25.81
356.492	25.46
356.702	24.8
356.912	24.37
357.122	25.25
357.332	25.25
357.542	24.48
357.752	23.92
357.962	23.51
358.171	24.06
358.381	23.68
358.591	24.8
358.801	24.81
359.011	24.73
359.221	24.76
359.43	23.67
359.64	22.62
359.85	22.77
360.06	22.78
360.269	22.6
360.479	22.68
360.689	22.27
360.899	21.72
361.108	21.83
361.318	21.94
361.528	21.96
361.737	21.39
361.947	21.93
362.156	21.55
362.366	21.28
362.576	21.42
362.785	20.74
362.995	21.12
363.204	20.84
363.414	21.01
363.623	21.09
363.833	21.12
364.042	21.14
364.252	21.97
364.461	22.17
364.671	22.34
364.88	22.81
365.09	23.66
365.299	23.85
365.509	24.33
365.718	23.63
365.927	23.75
366.137	23.52
366.346	24.07
366.555	23.03
366.765	23.25
366.974	23.55
367.183	22.64
367.393	21.93
367.602	21.42
367.811	20.9
368.021	21.78
368.23	21.3
368.439	21.09
368.648	20.4
368.857	20.46
369.067	20.86
369.276	20.19
369.485	20.92
369.694	21.36
369.903	21.36
370.112	21.23
370.321	20.27
370.531	20.28
370.74	20.33
370.949	20.49
371.158	20.03
371.367	20.04
371.576	19.32
371.785	18.96
371.994	18.52
372.203	18.75
372.412	18.82
372.621	19.61
372.83	19.43
373.039	19.76
373.248	19.31
373.457	19.52
373.666	18.47
373.874	18.9
374.083	19.52
374.292	19.81
374.501	19.39
374.71	19.22
374.919	17.99
375.128	17.23
375.336	16.97
375.545	17.74
375.754	17.99
375.963	18.35
376.171	18.24
376.38	17.31
376.589	16.41
376.798	15.74
377.006	16.06
377.215	16.62
377.424	17.07
377.632	16.6
377.841	16.25
378.05	16.33
378.258	15.84
378.467	15.73
378.675	15.71
378.884	16.66
379.093	16.66
379.301	16.65
379.51	16.09
379.718	16.19
379.927	16.62
380.135	16.51
380.344	15.94
380.552	16.52
380.761	16.57
380.969	16.5
381.177	15.45
381.386	16.4
381.594	15.49
381.803	15.47
382.011	15.63
382.219	15.29
382.428	15.07
382.636	15.37
382.845	14.16
383.053	14.17
383.261	14.36
383.469	14.89
383.678	14.41
383.886	14.91
384.094	15.07
384.302	14.94
384.511	15.18
384.719	14.93
384.927	14.81
385.135	15.54
385.343	15.32
385.552	15.58
385.76	15.29
385.968	15.42
386.176	15.08
386.384	14.81
386.592	14.34
386.8	14.3
387.008	14.74
387.216	14.31
387.424	14.35
387.633	14.69
387.841	14.56
388.049	15
388.257	14.79
388.465	14.25
388.672	14.6
388.88	14.79
389.088	13.88
389.296	13.55
389.504	13.65
389.712	13.51
389.92	13.18
390.128	12.98
390.336	12.46
390.544	12.03
390.751	12.14
390.959	11.45
391.167	11.25
391.375	11.99
391.583	11.92
391.79	11.71
391.998	11.69
392.206	11.63
392.414	11.3
392.621	11.4
392.829	11.47
393.037	11.65
393.244	11.71
393.452	11.98
393.66	11.47
393.867	11.38
394.075	11.4
394.283	11.06
394.49	10.84
394.698	11.11
394.905	11
395.113	11.1
395.32	10.74
395.528	10.97
395.735	10.62
395.943	10.86
396.15	10.91
396.358	10.84
396.565	10.97
396.773	11.08
396.98	10.88
397.188	10.56
397.395	10.77
397.602	11.05
397.81	10.5
398.017	10.61
398.225	10.5
398.432	10.33
398.639	10.3
398.847	10.23
399.054	10.23
399.261	10.11
399.468	10.36
399.676	10.02
399.883	9.65
400.09	10.14
400.297	9.95
400.505	10.04
400.712	10.2
400.919	10.46
401.126	10.54
401.333	10.44
401.54	10.2
401.748	10.16
401.955	9.95
402.162	10.15
402.369	10.17
402.576	10.32
402.783	10.17
402.99	9.92
403.197	9.35
403.404	9.11
403.611	8.98
403.818	8.93
404.025	8.77
404.232	9.11
404.439	9.11
404.646	8.65
404.853	8.33
405.06	7.96
405.267	8
405.474	8.22
405.681	8.35
405.887	8.25
406.094	8.61
406.301	8.63
406.508	8.58
406.715	8.76
406.922	9.11
407.128	9.39
407.335	9.57
407.542	9.31
407.749	9.19
407.955	9.49
408.162	9.47
408.369	9.24
408.575	9.33
408.782	9.09
408.989	8.75
409.195	8.43
409.402	8.44
409.609	8.4
409.815	8.44
410.022	8.41
410.228	8.06
410.435	8.3
410.642	8.53
410.848	8.41
411.055	8.42
411.261	8.36
411.468	8.77
411.674	8.62
411.881	8.7
412.087	8.56
412.294	8.77
412.5	8.98
412.706	9.01
412.913	8.73
413.119	8.64
413.326	8.5
413.532	8.69
413.738	8.53
413.945	8.18
414.151	8.43
414.357	8.68
414.564	8.72
414.77	8.54
414.976	8.35
415.182	8.33
415.389	8.51
415.595	8.45
415.801	8.28
416.007	8.29
416.214	8.52
416.42	8.41
416.626	8.13
416.832	8
417.038	8.03
417.244	7.93
417.45	7.85
417.657	7.45
417.863	7.25
418.069	7.39
418.275	7.25
418.481	7.18
418.687	7.07
418.893	7.05
419.099	7.04
419.305	6.8
419.511	6.89
419.717	6.85
419.923	6.97
420.129	6.99
420.335	6.89
420.541	6.8
420.746	6.7
420.952	6.61
421.158	6.76
421.364	6.59
421.57	6.69
421.776	6.59
421.982	6.65
422.187	6.64
422.393	6.72
422.599	6.69
422.805	6.67
423.01	6.75
423.216	6.71
423.422	6.67
423.628	6.74
423.833	6.69
424.039	6.74
424.245	6.7
424.45	6.73
424.656	6.67
424.862	6.6
425.067	6.55
425.273	6.57
425.478	6.62
425.684	6.56
425.889	6.69
426.095	6.69
426.301	6.65
426.506	6.55
426.712	6.53
426.917	6.72
427.123	6.72
427.328	6.74
427.533	6.77
427.739	6.86
427.944	6.97
428.15	6.79
428.355	6.77
428.561	6.82
428.766	6.9
428.971	6.79
429.177	6.73
429.382	6.64
429.587	6.68
429.793	6.68
429.998	6.52
430.203	6.47
430.408	6.66
430.614	6.9
430.819	6.85
431.024	6.87
431.229	6.97
431.434	6.9
431.64	6.99
431.845	7.1
432.05	7.04
432.255	7.1
432.46	7.09
432.665	6.91
432.87	6.56
433.076	6.57
433.281	6.55
433.486	6.46
433.691	6.34
433.896	6.21
434.101	6.16
434.306	6.21
434.511	6.09
434.716	5.94
434.921	6.06
435.126	6.13
435.331	5.99
435.535	6.01
435.74	5.95
435.945	5.9
436.15	6.01
436.355	6.13
436.56	5.94
436.765	6.17
436.97	6.31
437.174	6.37
437.379	6.45
437.584	6.66
437.789	6.6
437.993	6.72
438.198	6.83
438.403	6.82
438.608	6.71
438.812	6.67
439.017	6.48
439.222	6.46
439.426	6.27
439.631	6.04
439.836	5.98
440.04	6.03
440.245	5.89
440.45	5.93
440.654	5.98
440.859	5.88
441.063	5.77
441.268	5.82
441.472	5.86
441.677	5.74
441.881	5.73
442.086	5.74
442.29	5.54
442.495	5.73
442.699	5.65
442.904	5.5
443.108	5.62
443.312	5.77
443.517	5.75
443.721	5.69
443.925	5.88
444.13	6.02
444.334	5.82
444.538	5.86
444.743	5.73
444.947	5.67
445.151	5.73
445.356	5.81
445.56	5.94
445.764	5.86
445.968	5.9
446.173	5.85
446.377	5.87
446.581	5.99
446.785	5.97
446.989	5.9
447.193	5.86
447.398	5.86
447.602	5.64
447.806	5.6
448.01	5.67
448.214	5.53
448.418	5.32
448.622	5.35
448.826	5.26
449.03	5.39
449.234	5.6
449.438	5.66
449.642	5.62
449.846	5.87
450.05	5.79
450.254	5.74
450.458	5.74
450.662	6.13
450.866	6.11
451.069	6.17
451.273	6.03
451.477	5.95
451.681	5.96
451.885	6.04
452.089	5.97
452.292	5.94
452.496	6.08
452.7	6.21
452.904	6.11
453.107	6.22
453.311	6
453.515	6.19
453.719	6.19
453.922	6.3
454.126	6.3
454.33	6.07
454.533	5.92
454.737	5.76
454.94	5.47
455.144	5.47
455.348	5.18
455.551	5.42
455.755	5.28
455.958	5.36
456.162	5.32
456.365	5.2
456.569	5.31
456.772	5.4
456.976	5.51
457.179	5.79
457.383	5.69
457.586	5.74
457.79	5.76
457.993	5.78
458.196	5.54
458.4	5.66
458.603	5.61
458.807	5.38
459.01	5.51
459.213	5.4
459.417	5.38
459.62	5.35
459.823	5.42
460.026	5.36
460.23	5.27
460.433	5.24
460.636	5.17
460.839	5.25
461.042	5.43
461.246	5.41
461.449	5.48
461.652	5.42
461.855	5.54
462.058	5.53
462.261	5.61
462.464	5.63
462.668	5.73
462.871	5.74
463.074	5.68
463.277	5.57
463.48	5.5
463.683	5.61
463.886	5.57
464.089	5.48
464.292	5.44
464.495	5.32
464.698	5.38
464.901	5.47
465.104	5.37
465.306	5.23
465.509	5.37
465.712	5.59
465.915	5.66
466.118	5.57
466.321	5.69
466.524	5.57
466.726	5.68
466.929	5.84
467.132	5.62
467.335	5.75
467.538	5.89
467.74	5.83
467.943	5.62
468.146	5.36
468.348	5.51
468.551	5.48
468.754	5.5
468.956	5.35
469.159	5.2
469.362	5.41
469.564	5.37
469.767	5.28
469.969	5.53
470.172	5.51
470.375	5.64
470.577	5.63
470.78	5.51
470.982	5.7
471.185	5.7
471.387	5.67
471.59	5.53
471.792	5.43
471.995	5.56
472.197	5.54
472.399	5.56
472.602	5.47
472.804	5.53
473.007	5.6
473.209	5.53
473.411	5.8
473.614	6.1
473.816	6.21
474.018	6.22
474.22	6.32
474.423	6.13
474.625	6.08
474.827	6.26
475.03	6.23
475.232	6.19
475.434	6.19
475.636	5.85
475.838	5.49
476.04	5.47
476.243	5.54
476.445	5.5
476.647	5.66
476.849	5.86
477.051	5.49
477.253	5.72
477.455	5.72
477.657	5.65
477.859	5.66
478.061	5.72
478.263	5.65
478.465	5.48
478.667	5.35
478.869	5.16
479.071	5.15
479.273	5.23
479.475	5.12
479.677	5.07
479.879	5.03
480.081	5.03
480.283	4.93
480.485	4.87
480.686	5.05
480.888	5.19
481.09	5.19
481.292	5.01
481.494	5.15
481.695	4.97
481.897	4.95
482.099	4.97
482.301	4.96
482.502	4.95
482.704	4.97
482.906	4.83
483.107	4.68
483.309	4.67
483.511	4.65
483.712	4.62
483.914	4.62
484.115	4.6
484.317	4.55
484.519	4.55
484.72	4.55
484.922	4.55
485.123	4.54
485.325	4.6
485.526	4.6
485.728	4.62
485.929	4.62
486.131	4.59
486.332	4.57
486.534	4.63
486.735	4.62
486.936	4.66
487.138	4.6
487.339	4.63
487.541	4.61
487.742	4.6
487.943	4.6
488.144	4.62
488.346	4.67
488.547	4.72
488.748	4.75
488.95	4.8
489.151	4.84
489.352	4.93
489.553	4.96
489.755	5.09
489.956	5.09
490.157	5.11
490.358	5.05
490.559	4.98
490.76	4.98
490.961	4.82
491.163	4.85
491.364	4.83
491.565	4.74
491.766	4.77
491.967	4.73
492.168	4.76
492.369	4.79
492.57	4.84
492.771	5
492.972	5.04
493.173	5.19
493.374	5.24
493.575	5.29
493.776	5.42
493.976	5.46
494.177	5.5
494.378	5.67
494.579	5.81
494.78	5.86
494.981	5.93
495.182	5.86
495.382	5.87
495.583	5.82
495.784	5.81
495.985	5.9
496.185	5.82
496.386	5.72
496.587	5.61
496.788	5.38
496.988	5.18
497.189	5.09
497.39	5.06
497.59	5.05
497.791	4.99
497.992	4.94
498.192	4.89
498.393	4.94
498.593	4.97
498.794	5.08
498.994	5.23
499.195	5.28
499.395	5.2
499.596	5.29
499.796	5.26
499.997	5.48
500.197	5.6
500.398	5.58
500.598	5.44
500.799	5.66
500.999	5.53
501.199	5.4
501.4	5.59
501.6	5.79
501.801	5.9
502.001	6.13
502.201	5.94
502.402	5.84
502.602	5.94
502.802	6.23
503.002	6.04
503.203	6.23
503.403	6.43
503.603	6.49
503.803	6.43
504.003	6.56
504.204	6.43
504.404	6.69
504.604	6.85
504.804	7
505.004	6.87
505.204	6.92
505.404	6.88
505.604	6.8
505.804	6.66
506.005	6.65
506.205	6.45
506.405	6.6
506.605	6.51
506.805	6.62
507.005	6.47
507.204	6.49
507.404	6.36
507.604	6.5
507.804	6.71
508.004	6.81
508.204	6.72
508.404	6.83
508.604	6.75
508.804	6.82
509.003	6.78
509.203	6.88
509.403	7.01
509.603	7.2
509.803	7.17
510.002	7.08
510.202	7.16
510.402	7.51
510.602	7.58
510.801	7.59
511.001	7.42
511.201	7.37
511.4	7.4
511.6	7.49
511.8	7.43
511.999	7.64
512.199	7.62
512.398	7.65
512.598	7.64
512.797	7.85
512.997	8.08
513.197	8.29
513.396	8.61
513.596	8.74
513.795	8.77
513.994	8.94
514.194	8.77
514.393	8.95
514.593	9.21
514.792	9.22
514.992	9.38
515.191	9.31
515.39	9.45
515.59	9.43
515.789	9.55
515.988	9.58
516.188	9.73
516.387	9.89
516.586	10.12
516.786	10.12
516.985	10.2
517.184	10.04
517.383	10.13
517.582	10.2
517.782	10.12
517.981	10.12
518.18	10.13
518.379	10.39
518.578	10.4
518.777	10.42
518.976	10.59
519.176	10.64
519.375	10.68
519.574	10.81
519.773	10.89
519.972	11.1
520.171	11.26
520.37	11.39
520.569	11.28
520.768	11.54
520.967	11.57
521.166	11.57
521.365	11.64
521.564	11.95
521.762	12.05
521.961	12.2
522.16	12.28
522.359	12.33
522.558	12.45
522.757	12.54
522.956	12.51
523.154	12.51
523.353	12.55
523.552	12.76
523.751	12.62
523.949	12.79
524.148	12.73
524.347	12.79
524.546	12.87
524.744	13.02
524.943	13.17
525.142	13.19
525.34	13.37
525.539	13.51
525.737	13.57
525.936	13.73
526.135	13.82
526.333	13.93
526.532	14.01
526.73	14.04
526.929	14.2
527.127	14.31
527.326	14.46
527.524	14.54
527.723	14.63
527.921	14.72
528.12	14.81
528.318	14.83
528.516	14.96
528.715	15
528.913	15.05
529.112	15.05
529.31	15.09
529.508	15.12
529.707	15.15
529.905	15.21
530.103	15.25
530.301	15.28
530.5	15.33
530.698	15.33
530.896	15.5
531.094	15.69
531.293	15.82
531.491	15.98
531.689	16.14
531.887	16.31
532.085	16.36
532.283	16.48
532.481	16.62
532.68	16.76
532.878	16.86
533.076	16.93
533.274	16.99
533.472	17.05
533.67	17.1
533.868	17.2
534.066	17.27
534.264	17.25
534.462	17.27
534.66	17.46
534.858	17.6
535.056	17.81
535.253	17.81
535.451	18
535.649	18.18
535.847	18.28
536.045	18.35
536.243	18.52
536.441	18.73
536.638	18.83
536.836	18.82
537.034	19.01
537.232	18.94
537.43	19.12
537.627	19.07
537.825	19.1
538.023	19.16
538.22	19.38
538.418	19.47
538.616	19.59
538.813	19.68
539.011	19.83
539.209	19.79
539.406	19.98
539.604	20.15
539.801	20.27
539.999	20.35
540.196	20.41
540.394	20.39
540.591	20.43
540.789	20.39
540.986	20.47
541.184	20.51
541.381	20.61
541.579	20.64
541.776	20.68
541.974	20.78
542.171	20.81
542.368	20.85
542.566	20.82
542.763	20.79
542.96	20.98
543.158	21.17
543.355	21.14
543.552	21.16
543.75	21.22
543.947	21.26
544.144	21.39
544.341	21.44
544.539	21.62
544.736	21.83
544.933	22.07
545.13	22.12
545.327	22
545.524	22.13
545.722	22.15
545.919	22.26
546.116	22.33
546.313	22.23
546.51	22.39
546.707	22.34
546.904	22.32
547.101	22.29
547.298	22.49
547.495	22.58
547.692	22.68
547.889	22.76
548.086	22.93
548.283	23.14
548.48	23.31
548.677	23.42
548.874	23.58
549.07	23.82
549.267	23.97
549.464	23.88
549.661	24.15
549.858	24.25
550.055	24.59
550.251	24.52
550.448	24.43
550.645	24.53
550.842	24.54
551.038	24.58
551.235	24.58
551.432	24.69
551.628	24.78
551.825	24.81
552.022	24.92
552.218	24.67
552.415	24.74
552.612	24.75
552.808	24.77
553.005	24.73
553.201	24.76
553.398	24.93
553.594	25.04
553.791	25.3
553.987	25.3
554.184	25.41
554.38	25.68
554.577	25.82
554.773	25.98
554.97	26.18
555.166	26.32
555.362	26.48
555.559	26.51
555.755	26.51
555.952	26.45
556.148	26.76
556.344	26.84
556.541	26.83
556.737	26.99
556.933	27.12
557.129	27.11
557.326	27.24
557.522	27.31
557.718	27.39
557.914	27.57
558.11	27.55
558.307	27.28
558.503	27.29
558.699	27.56
558.895	27.48
559.091	27.69
559.287	27.99
559.483	28.21
559.679	28.2
559.876	28.33
560.072	28.37
560.268	28.47
560.464	28.63
560.66	28.7
560.856	28.74
561.052	28.75
561.247	28.56
561.443	28.45
561.639	28.42
561.835	28.65
562.031	28.66
562.227	28.74
562.423	28.75
562.619	28.86
562.815	29.07
563.01	29.18
563.206	29.42
563.402	29.53
563.598	29.46
563.793	29.57
563.989	29.58
564.185	29.68
564.381	29.62
564.576	29.81
564.772	29.73
564.968	29.8
565.163	29.78
565.359	29.77
565.555	29.88
565.75	29.94
565.946	29.87
566.141	29.9
566.337	29.88
566.532	30.15
566.728	30.12
566.923	30.26
567.119	30.21
567.314	30.22
567.51	30.37
567.705	30.36
567.901	30.6
568.096	30.58
568.292	30.81
568.487	30.86
568.682	30.64
568.878	30.7
569.073	30.69
569.268	30.6
569.464	30.67
569.659	30.62
569.854	30.68
570.05	30.49
570.245	30.81
570.44	30.78
570.635	30.83
570.831	30.93
571.026	31
571.221	31.26
571.416	31.45
571.611	31.36
571.806	31.33
572.002	31.3
572.197	31.41
572.392	31.27
572.587	31.29
572.782	31.52
572.977	31.6
573.172	31.68
573.367	31.62
573.562	31.67
573.757	31.88
573.952	31.85
574.147	31.93
574.342	31.99
574.537	31.96
574.732	31.8
574.927	31.78
575.121	31.86
575.316	31.92
575.511	31.94
575.706	31.93
575.901	31.77
576.096	32.02
576.29	31.95
576.485	32.06
576.68	32.24
576.875	32.24
577.069	32.25
577.264	32.16
577.459	32.24
577.654	32.24
577.848	32.27
578.043	32.41
578.238	32.51
578.432	32.63
578.627	32.52
578.821	32.68
579.016	33.07
579.21	33.1
579.405	33.13
579.6	33.05
579.794	33.29
579.989	33.45
580.183	33.55
580.378	33.41
580.572	33.87
580.766	34.1
580.961	33.81
581.155	33.62
581.35	33.62
581.544	33.75
581.738	34.22
581.933	33.84
582.127	33.97
582.321	34.05
582.516	34.2
582.71	33.73
582.904	33.94
583.099	34.33
583.293	34.4
583.487	34.3
583.681	34.72
583.875	34.3
584.07	34.49
584.264	34.39
584.458	34.19
584.652	34.02
584.846	34.23
585.04	33.97
585.234	33.91
585.428	33.91
585.623	34.26
585.817	33.87
586.011	33.86
586.205	34.27
586.399	34.49
586.593	34.54
586.787	34.73
586.981	34.65
587.174	34.95
587.368	34.92
587.562	35.09
587.756	35.08
587.95	35.2
588.144	35.2
588.338	35.03
588.532	34.83
588.725	35.32
588.919	35.35
589.113	35.41
589.307	35.33
589.501	35.37
589.694	35.51
589.888	35.31
590.082	35.26
590.275	35.2
590.469	35.14
590.663	35.22
590.856	34.89
591.05	35.08
591.244	35.04
591.437	35.16
591.631	35.02
591.824	34.81
592.018	35.1
592.212	35.19
592.405	35.47
592.599	35.66
592.792	35.4
592.986	35.54
593.179	35.05
593.372	35.12
593.566	34.81
593.759	35.17
593.953	35.18
594.146	35.15
594.339	35.52
594.533	35.48
594.726	35.38
594.92	35.64
595.113	35.53
595.306	35.85
595.499	36.11
595.693	36.53
595.886	36.44
596.079	36.63
596.272	36.52
596.466	36.15
596.659	36.18
596.852	36.32
597.045	36.36
597.238	36.37
597.431	36.35
597.624	36.11
597.818	35.92
598.011	35.88
598.204	35.7
598.397	35.78
598.59	35.96
598.783	35.97
598.976	35.87
599.169	35.79
599.362	35.82
599.555	35.93
599.748	36.04
599.941	35.89
600.134	36.03
600.326	36.04
600.519	36.26
600.712	36.47
600.905	36.57
601.098	36.58
601.291	36.75
601.483	36.8
601.676	36.72
601.869	36.62
602.062	36.59
602.255	36.6
602.447	36.54
602.64	36.16
602.833	35.63
603.025	35.6
603.218	35.58
603.411	35.64
603.603	35.53
603.796	35.71
603.989	35.62
604.181	35.66
604.374	35.66
604.566	35.76
604.759	35.74
604.951	35.95
605.144	35.98
605.336	36.28
605.529	36.17
605.721	36.08
605.914	36.07
606.106	36.38
606.299	36.61
606.491	36.7
606.683	36.75
606.876	36.99
607.068	37.09
607.26	37.16
607.453	36.69
607.645	36.64
607.837	37.03
608.03	36.82
608.222	36.74
608.414	36.58
608.606	36.46
608.799	36.55
608.991	36.49
609.183	36.59
609.375	36.71
609.567	36.82
609.759	37.07
609.952	36.91
610.144	37.05
610.336	37.04
610.528	37.13
610.72	37.18
610.912	37.22
611.104	37.5
611.296	37.32
611.488	37.35
611.68	37.67
611.872	37.46
612.064	37.84
612.256	38.17
612.448	38.5
612.64	38.92
612.832	39.08
613.023	39.09
613.215	38.95
613.407	38.86
613.599	38.65
613.791	38.45
613.983	38.49
614.174	38.18
614.366	38.08
614.558	37.94
614.75	37.69
614.941	37.4
615.133	37.33
615.325	37.39
615.516	37.72
615.708	37.75
615.9	37.94
616.091	37.83
616.283	37.91
616.475	37.64
616.666	37.51
616.858	37.53
617.049	37.17
617.241	37.25
617.432	37.25
617.624	37.26
617.815	37.12
618.007	36.9
618.198	37.32
618.39	37.58
618.581	37.72
618.773	37.54
618.964	37.23
619.155	37.54
619.347	37.48
619.538	37.36
619.729	37.24
619.921	37.27
620.112	37.43
620.303	37.02
620.494	36.88
620.686	36.77
620.877	37.15
621.068	37.28
621.259	37.33
621.451	37.6
621.642	37.46
621.833	37.46
622.024	37.61
622.215	37.57
622.406	37.88
622.597	37.9
622.788	37.84
622.98	37.69
623.171	37.72
623.362	37.88
623.553	38.01
623.744	38.39
623.935	38.33
624.126	38.31
624.317	38.45
624.508	38.29
624.698	38.12
624.889	38.11
625.08	38.55
625.271	38.7
625.462	38.77
625.653	38.44
625.844	38.17
626.034	38.4
626.225	38.28
626.416	38.05
626.607	38.05
626.798	38.24
626.988	38.21
627.179	37.98
627.37	37.65
627.56	37.79
627.751	37.93
627.942	38.17
628.132	37.87
628.323	37.97
628.514	38.03
628.704	38.06
628.895	37.98
629.085	37.86
629.276	37.71
629.466	38.03
629.657	37.71
629.847	37.65
630.038	37.91
630.228	38.42
630.419	38.9
630.609	39.2
630.8	39.36
630.99	39.34
631.181	39.74
631.371	40.04
631.561	39.8
631.752	39.75
631.942	39.97
632.132	39.36
632.323	39.27
632.513	39
632.703	38.71
632.893	38.73
633.084	38.9
633.274	39
633.464	38.72
633.654	38.86
633.844	38.91
634.034	38.71
634.225	38.64
634.415	38.5
634.605	38.39
634.795	38.14
634.985	38.43
635.175	38.46
635.365	38.41
635.555	38.4
635.745	38.15
635.935	38.59
636.125	38.51
636.315	39.27
636.505	39.09
636.695	39.14
636.885	39.41
637.075	39.28
637.265	39.33
637.455	39.29
637.644	39.5
637.834	40.22
638.024	39.71
638.214	40.02
638.404	39.61
638.593	39.81
638.783	39.58
638.973	39.55
639.163	39.25
639.352	38.84
639.542	38.78
639.732	38.92
639.921	38.65
640.111	39.22
640.301	39.08
640.49	39.15
640.68	39.47
640.87	39.9
641.059	39.89
641.249	39.99
641.438	39.9
641.628	40.12
641.817	40.4
642.007	40.5
642.196	40.18
642.386	40.28
642.575	40.39
642.764	40.12
642.954	39.72
643.143	39.95
643.333	40.11
643.522	40.28
643.711	39.96
643.901	39.47
644.09	39.18
644.279	39.73
644.469	39.87
644.658	39.89
644.847	39.71
645.036	40.1
645.226	40.17
645.415	40.1
645.604	40.3
645.793	40.83
645.982	40.68
646.171	40.34
646.361	39.86
646.55	40.02
646.739	39.74
646.928	39.9
647.117	39.72
647.306	39.84
647.495	39.79
647.684	40
647.873	39.8
648.062	39.99
648.251	40.44
648.44	40.1
648.629	39.49
648.818	39.42
649.007	39.32
649.196	39.32
649.384	38.7
649.573	38.58
649.762	38.34
649.951	38.22
650.14	38.6
650.328	38.73
650.517	38.92
650.706	39.22
650.895	39.58
651.083	40.12
651.272	40.52
651.461	41.2
651.65	41.37
651.838	41.32
652.027	41.22
652.216	40.52
652.404	40.36
652.593	40.88
652.781	41.24
652.97	41.14
653.158	40.55
653.347	40.24
653.535	39.82
653.724	39.45
653.912	39.85
654.101	39.75
654.289	40.38
654.478	40.84
654.666	40.42
654.855	39.95
655.043	39.87
655.231	40.17
655.42	40.56
655.608	40.76
655.796	41.45
655.985	41.3
656.173	41.33
656.361	41.03
656.55	40.3
656.738	40.58
656.926	40.91
657.114	40.55
657.302	40.77
657.491	40.35
657.679	40.38
657.867	40
658.055	40
658.243	40.19
658.431	40.12
658.619	40.39
658.807	40.55
658.996	40.27
659.184	40.63
659.372	40.66
659.56	40.95
659.748	41.12
659.936	41.75
660.124	41.95
660.311	41.83
660.499	41.93
660.687	41.92
660.875	41.73
661.063	41.83
661.251	41.87
661.439	42.14
661.627	42.08
661.814	42.04
662.002	41.11
662.19	41.12
662.378	41.62
662.565	41.87
662.753	42.39
662.941	42.43
663.129	42.4
663.316	42.56
663.504	42.15
663.692	42.06
663.879	42.22
664.067	42.39
664.254	41.75
664.442	41.45
664.63	41.66
664.817	41.55
665.005	41.58
665.192	41.95
665.38	42.21
665.567	41.93
665.755	41.92
665.942	41.57
666.13	41.93
666.317	42.37
666.504	42.49
666.692	42.71
666.879	42.54
667.067	43.17
667.254	43.15
667.441	42.66
667.629	43.01
667.816	42.83
668.003	43.14
668.19	43.19
668.378	43.2
668.565	43.43
668.752	42.94
668.939	43.01
669.127	42.1
669.314	41.75
669.501	41.9
669.688	42.05
669.875	42.16
670.062	42
670.249	42.32
670.436	42.59
670.623	42.3
670.81	42.06
670.997	41.74
671.184	41.93
671.371	42.56
671.558	42.21
671.745	42.09
671.932	42.17
672.119	42.23
672.306	41.88
672.493	41.47
672.68	41.8
672.867	42.36
673.054	42.63
673.24	42.71
673.427	42.43
673.614	42.59
673.801	42.93
673.988	43.28
674.174	43.45
674.361	43.16
674.548	43.51
674.734	43.3
674.921	42.58
675.108	43.09
675.294	43.18
675.481	43.01
675.668	43.03
675.854	42.61
676.041	42.05
676.227	41.93
676.414	42.36
676.601	42.25
676.787	41.88
676.974	42.59
677.16	41.72
677.347	42.11
677.533	42.27
677.719	42.54
677.906	42.76
678.092	43.32
678.279	43.34
678.465	43.29
678.651	43.39
678.838	43.42
679.024	43.03
679.21	42.61
679.397	42.14
679.583	42
679.769	41.47
679.955	41.32
680.142	41.06
680.328	41.27
680.514	41.08
680.7	41
680.886	41.06
681.073	40.89
681.259	41.69
681.445	41.51
681.631	41.25
681.817	41.73
682.003	41.42
682.189	41.23
682.375	40.85
682.561	41
682.747	40.61
682.933	40.92
683.119	40.94
683.305	40.79
683.491	41.02
683.677	41.7
683.863	41.7
684.049	41.97
684.235	42.24
684.42	42.38
684.606	42.17
684.792	42.79
684.978	42.31
685.164	42.4
685.349	42.87
685.535	42.95
685.721	42.41
685.907	42.38
686.092	42.46
686.278	42.86
686.464	43.02
686.649	43.43
686.835	43.37
687.021	44.22
687.206	44.28
687.392	43.88
687.577	44.21
687.763	44.41
687.948	44.32
688.134	44.33
688.319	44.1
688.505	43.65
688.69	43.21
688.876	42.52
689.061	42.05
689.247	42.56
689.432	42.43
689.618	42.15
689.803	41.89
689.988	42.22
690.174	42.57
690.359	42.52
690.544	43.35
690.73	43.13
690.915	43.84
691.1	43.46
691.285	43.49
691.471	43.5
691.656	43.15
691.841	43.44
692.026	42.86
692.211	42.23
692.396	42.33
692.582	42.11
692.767	42.48
692.952	42.08
693.137	42.21
693.322	42.21
693.507	42.35
693.692	42.36
693.877	42.5
694.062	43.02
694.247	43.73
694.432	43.2
694.617	42.96
694.802	42.85
694.987	43.26
695.172	42.9
695.357	42.55
695.541	42.24
695.726	42.76
695.911	42.84
696.096	42.63
696.281	42.57
696.466	43.15
696.65	43.59
696.835	43.97
697.02	43.09
697.204	43.86
697.389	43.83
697.574	43.99
697.759	43.52
697.943	43.51
698.128	43.71
698.312	43.44
698.497	42.95
698.682	42.52
698.866	42.43
699.051	43.15
699.235	43.18
699.42	43.26
699.604	43.21
699.789	43.58
699.973	43.1
700.158	43.06
700.342	43.03
700.527	43.64
700.711	43.99
700.895	44.41
701.08	44.37
701.264	44.39
701.448	43.87
701.633	44.53
701.817	44.94
702.001	46.04
702.186	45.73
702.37	45.88
702.554	45.56
702.738	45.63
702.923	44.92
703.107	44.42
703.291	43.76
703.475	44.47
703.659	43.75
703.843	42.69
704.027	42.2
704.212	42.04
704.396	42.92
704.58	42.75
704.764	42.05
704.948	42.39
705.132	42.82
705.316	43.29
705.5	43.63
705.684	43.85
705.868	44.49
706.052	44.71
706.235	45.66
706.419	45.14
706.603	45.55
706.787	45.56
706.971	45.35
707.155	45.22
707.339	45.08
707.522	44.85
707.706	44.29
707.89	44.27
708.074	44.38
708.257	43.7
708.441	43.45
708.625	43.64
708.808	43.76
708.992	44.35
709.176	44.09
709.359	44.19
709.543	43.98
709.727	44.55
709.91	45.03
710.094	44.9
710.277	45.46
710.461	45.75
710.644	45.95
710.828	46.4
711.011	45.93
711.195	46.28
711.378	46.21
711.562	46.08
711.745	45.79
711.928	45.2
712.112	44.93
712.295	44.6
712.478	44.31
712.662	44.19
712.845	44.26
713.028	43.79
713.212	44.15
713.395	44.13
713.578	44.33
713.761	44.67
713.945	44.87
714.128	45.18
714.311	45.21
714.494	45.07
714.677	44.45
714.86	43.83
715.043	44.55
715.227	44
715.41	44.12
715.593	44.2
715.776	44.39
715.959	43.94
716.142	43.7
716.325	43.96
716.508	44.31
716.691	44.2
716.874	45.17
717.057	44.68
717.239	44.61
717.422	44.18
717.605	43.97
717.788	43.23
717.971	44.75
718.154	44.9
718.337	44.81
718.519	44.64
718.702	45.26
718.885	44.57
719.068	44.56
719.25	45.57
719.433	46.48
719.616	46.47
719.798	47.48
719.981	47.01
720.164	46.76
720.346	46.92
720.529	47.91
720.712	47.38
720.894	48.06
721.077	48.19
721.259	47.98
721.442	48.07
721.624	48.89
721.807	48.55
721.989	47.21
722.172	47.56
722.354	47.75
722.537	46.85
722.719	46.76
722.901	46.86
723.084	46.66
723.266	45.54
723.448	45.25
723.631	43.97
723.813	43.45
723.995	44.52
724.178	44.24
724.36	43.21
724.542	42.58
724.724	43.62
724.907	43.15
725.089	44.29
725.271	45.9
725.453	45.35
725.635	46.59
725.817	47.12
725.999	47.07
726.181	48.03
726.364	48.42
726.546	49.15
726.728	48.38
726.91	47.97
727.092	47.36
727.274	47.13
727.456	46.99
727.638	46.58
727.819	46.98
728.001	47.1
728.183	46.39
728.365	46.6
728.547	46.16
728.729	46.66
728.911	47.75
729.093	47.98
729.274	46.84
729.456	47.2
729.638	47.42
729.82	47.16
730.001	46.19
730.183	46.63
730.365	46.47
730.546	46.68
730.728	46.14
730.91	44.74
731.091	44.73
731.273	44.89
731.455	45.39
731.636	45.76
731.818	45.66
731.999	46.04
732.181	45.78
732.362	45.45
732.544	46.35
732.725	46.04
732.907	46.32
733.088	46.11
733.27	47.15
733.451	47.06
733.633	47.42
733.814	47.31
733.995	47.51
734.177	47.8
734.358	48.3
734.539	47.55
734.721	47.87
734.902	48.2
735.083	48.72
735.264	48.13
735.446	48.26
735.627	46.98
735.808	47.14
735.989	47.26
736.17	47.21
736.351	46.83
736.533	46.98
736.714	47.46
736.895	47.11
737.076	46.33
737.257	47.21
737.438	46.34
737.619	46.62
737.8	46.29
737.981	46.56
738.162	46.41
738.343	47.24
738.524	46.84
738.705	46.91
738.886	47.35
739.067	47.85
739.247	47.69
739.428	48.04
739.609	47.18
739.79	48.43
739.971	48.08
740.151	47.82
740.332	47.16
740.513	48.17
740.694	48.37
740.874	47.28
741.055	47
741.236	46.35
741.417	46.45
741.597	47.43
741.778	46.8
741.958	45.78
742.139	45.88
742.32	45.67
742.5	45.13
742.681	46.08
742.861	47.71
743.042	47.77
743.222	47.93
743.403	48.27
743.583	49.18
743.764	48.93
743.944	50.27
744.124	50.65
744.305	51.26
744.485	50.97
744.666	49.76
744.846	49.6
745.026	50.5
745.207	50.47
745.387	50.21
745.567	49.62
745.747	49.02
745.928	47.98
746.108	48.4
746.288	48.26
746.468	48.51
746.648	48.29
746.829	47.98
747.009	47.67
747.189	48.13
747.369	48.52
747.549	48.48
747.729	49.33
747.909	50.79
748.089	50.64
748.269	49.89
748.449	49.45
748.629	50.1
748.809	50.03
748.989	49.81
749.169	49.4
749.349	48.62
749.529	48.2
749.709	46.99
749.889	46.76
750.068	45.31
750.248	46.81
750.428	47.07
750.608	46.57
750.788	47.12
750.967	46.19
751.147	45.05
751.327	46.68
751.507	46.77
751.686	47.87
751.866	47.93
752.046	48.64
752.225	48.56
752.405	48.3
752.585	49.76
752.764	49.69
752.944	49.28
753.123	51.49
753.303	50.07
753.482	50.4
753.662	50.23
753.841	49.59
754.021	49.76
754.2	49.04
754.38	49.81
754.559	49.21
754.739	48.91
754.918	50.38
755.097	49.02
755.277	48.95
755.456	48.31
755.635	48.65
755.815	49.45
755.994	50.16
756.173	49.77
756.352	49.85
756.532	49.17
756.711	48.64
756.89	49.13
757.069	50.07
757.248	49.24
757.427	49.81
757.607	49.94
757.786	49.43
757.965	48.74
758.144	49.34
758.323	48.6
758.502	49.12
758.681	49.52
758.86	48.56
759.039	48.22
759.218	49.23
759.397	49.39
759.576	49.37
759.755	49.05
759.934	49.06
760.113	48.93
760.291	49.52
760.47	49.55
760.649	49.83
760.828	49.81
761.007	48.35
761.186	49.81
761.364	49.8
761.543	48.67
761.722	48.99
761.901	47.68
762.079	48.4
762.258	47.78
762.437	46.22
762.615	45.82
762.794	45.94
762.972	46.7
763.151	45.02
763.33	44.65
763.508	45.16
763.687	45.85
763.865	47.28
764.044	46.86
764.222	45.9
764.401	47.05
764.579	47.03
764.758	47.21
764.936	47.56
765.114	48.35
765.293	48.59
765.471	48.57
765.65	47.52
765.828	47.23
766.006	47.29
766.184	47.98
766.363	48.08
766.541	48
766.719	47.02
766.898	46.61
767.076	46.31
767.254	45.99
767.432	47.43
767.61	47.5
767.788	47.11
767.967	46.12
768.145	46.79
768.323	46.32
768.501	45.79
768.679	47.09
768.857	47.56
769.035	49.18
769.213	50.34
769.391	49.49
769.569	48.95
769.747	48.96
769.925	48.75
770.103	49.92
770.281	48.94
770.459	50.57
770.636	50.37
770.814	50.88
770.992	50.33
771.17	49.14
771.348	48.43
771.525	49.47
771.703	50.11
771.881	52.13
772.059	51.49
772.236	52.11
772.414	51.98
772.592	52.79
772.769	52.45
772.947	51.45
773.125	51.81
773.302	53.27
773.48	53.93
773.657	53.21
773.835	52.49
774.013	52.87
774.19	51.38
774.368	50.34
774.545	49.31
774.723	49.89
774.9	51.86
775.077	51.61
775.255	50.64
775.432	51.16
775.61	51.64
775.787	51.93
775.964	52.31
776.142	53.38
776.319	55.32
776.496	56.57
776.674	56.42
776.851	54.12
777.028	56.72
777.205	56.47
777.382	56.65
777.56	57.38
777.737	60.89
777.914	60.18
778.091	61.89
778.268	61.3
778.445	61.93
778.622	61.26
778.8	61.99
778.977	59.58
779.154	63.06
779.331	61.78
779.508	61.05
779.685	57.48
779.862	57.69
780.038	57.55
780.215	58.2
780.392	56.32
780.569	54.86
780.746	55.15
780.923	55.14
781.1	50.2
781.277	48.18
781.453	47.29
781.63	46.74
781.807	50.02
781.984	49.37
782.16	48.76
782.337	48.15
782.514	50.25
782.691	49.11
782.867	49.19
783.044	51.33
783.221	53.33
783.397	54.48
783.574	53.74
783.75	49.07
783.927	51.59
784.103	51.1
784.28	52.68
784.456	49.7
784.633	51.55
784.809	54.67
784.986	51.16
785.162	51.49
785.339	51.14
785.515	52.75
785.692	54.56
785.868	51.64
786.044	51.59
786.221	52.98
786.397	57.89
786.573	58.14
786.749	55.16
786.926	56.6
787.102	56.45
787.278	55.19
787.454	57.62
787.631	55.55
787.807	55.57
787.983	56.16
788.159	55.06
788.335	53.21
788.511	52.09
788.687	51.12
788.863	52.61
789.039	53.77
789.216	53.24
789.392	51.16
789.568	52
789.744	53.31
789.919	53.14
790.095	52.49
790.271	51.07
790.447	52.42
790.623	53.71
790.799	53
790.975	51.74
791.151	53.3
791.327	51.25
791.502	51.08
791.678	49.66
791.854	50.66
792.03	48.66
792.205	51.56
792.381	50.59
792.557	51.2
792.733	50.08
792.908	52.43
793.084	53.31
793.259	55.24
793.435	55.31
793.611	58.88
793.786	56.38
793.962	56.4
794.137	55.5
794.313	54.52
794.488	54.55
794.664	56.94
794.839	55.2
795.015	54.29
795.19	54.54
795.366	54.6
795.541	53.74
795.716	51.5
795.892	53.81
796.067	54.4
796.242	54.92
796.418	55.06
796.593	54.11
796.768	54.69
796.944	54.51
797.119	53.39
797.294	55.13
797.469	53.15
797.644	55.64
797.82	55.98
797.995	54.3
798.17	53.07
798.345	51.8
798.52	51.8
798.695	51.18
798.87	49.04
799.045	50.61
799.22	47.46
799.395	47.49
799.57	48.51
799.745	48.07
799.92	48.06
800.095	50.68
800.27	51.12
800.445	50.84
800.62	50.89
800.795	53.45
800.97	55.06
801.145	56.61
801.319	55.97
801.494	55.95
801.669	58.14
801.844	60.44
802.018	58.77
802.193	58.94
802.368	57.46
802.543	55.11
802.717	59.61
802.892	57.36
803.067	59.17
803.241	59.63
803.416	58.09
803.59	58.04
803.765	56.78
803.94	59.16
804.114	56.59
804.289	58.59
804.463	59.89
804.638	55.62
804.812	55.54
804.986	52.24
805.161	53.02
805.335	56.53
805.51	53.01
805.684	51.51
805.858	51.59
806.033	55.24
806.207	54.09
806.381	54.93
806.556	54.49
806.73	55.61
806.904	57.74
807.078	56.92
807.253	56.04
807.427	56.34
807.601	55.97
807.775	54.19
807.949	54.61
808.123	54.15
808.298	54.96
808.472	54.18
808.646	54.23
808.82	55.39
808.994	54.07
809.168	51.86
809.342	55.63
809.516	57.62
809.69	59.03
809.864	58.1
810.038	60.4
810.212	62.03
810.385	61.27
810.559	62.73
810.733	61.83
810.907	66.73
811.081	69.22
811.255	65.29
811.428	61.98
811.602	59.71
811.776	61.39
811.95	58.87
812.123	56.97
812.297	59.22
812.471	56.36
812.644	57.09
812.818	54.87
812.992	56.11
813.165	55.58
813.339	58.87
813.512	58.03
813.686	56.55
813.86	58.82
814.033	58.55
814.207	58.2
814.38	57.09
814.554	55.54
814.727	57.61
814.9	58.79
815.074	60.19
815.247	57.33
815.421	59.27
815.594	60.08
815.767	60.64
815.941	57.29
816.114	59.73
816.287	59.09
816.46	61.49
816.634	62.44
816.807	60.91
816.98	60.62
817.153	66.61
817.327	67.15
817.5	64.47
817.673	67.66
817.846	69.7
818.019	69.92
818.192	72.97
818.365	69.39
818.538	68.67
818.711	65.39
818.884	62.04
819.057	58.55
819.23	58.98
819.403	59.98
819.576	57.85
819.749	59.93
819.922	56.74
820.095	55.73
820.268	57.12
820.441	57.19
820.614	58.56
820.786	60.79
820.959	59.76
821.132	57.77
821.305	54.21
821.477	51.87
821.65	49.9
821.823	50.58
821.996	50.41
822.168	49.6
822.341	47.9
822.514	46.78
822.686	46.12
822.859	45.49
823.031	45.3
823.204	45.72
823.376	45.09
823.549	44.99
823.722	44.48
823.894	44.42
824.067	44.14
824.239	44.37
824.411	44.5
824.584	44.61
824.756	45.07
824.929	44.61
825.101	45.15
825.273	46.28
825.446	46.81
825.618	46.8
825.79	46.87
825.963	46.12
826.135	46.14
826.307	46.51
826.479	46.35
826.652	46.07
826.824	47.3
826.996	46.92
827.168	47.21
827.34	47.03
827.512	47.69
827.684	46.86
827.856	48.5
828.029	48.7
828.201	48.09
828.373	48.03
828.545	47.96
828.717	47.64
828.889	47.85
829.061	48.29
829.232	48.76
829.404	48.36
829.576	47.38
829.748	47.41
829.92	48.6
830.092	51.12
830.264	51.4
830.436	52.03
830.607	52.4
830.779	53.74
830.951	51.74
831.123	51.29
831.294	53.05
831.466	55.51
831.638	56.43
831.809	56.11
831.981	53.44
832.153	54.55
832.324	53.71
832.496	53.69
832.667	54.69
832.839	60.02
833.011	59.7
833.182	59.28
833.354	55.85
833.525	54.52
833.697	51.04
833.868	50.83
834.039	51.7
834.211	53.22
834.382	52.23
834.554	50.61
834.725	49.97
834.896	48.1
835.068	47.68
835.239	48.81
835.41	49.71
835.581	51.29
835.753	51.55
835.924	50.56
836.095	50.17
836.266	50.92
836.438	53.08
836.609	51.97
836.78	53.72
836.951	55.56
837.122	56.51
837.293	57.42
837.464	59.22
837.635	63.42
837.806	64.76
837.977	67.03
838.148	69.7
838.319	69.11
838.49	68.76
838.661	72.33
838.832	73.01
839.003	74.76
839.174	73.51
839.345	77.26
839.516	69.96
839.687	70.51
839.857	66.51
840.028	65.26
840.199	61.79
840.37	62.9
840.54	64.81
840.711	63.62
840.882	63.67
841.053	65.18
841.223	62.25
841.394	71.43
841.564	75.53
841.735	80.64
841.906	81.45
842.076	87.17
842.247	88.85
842.417	81.86
842.588	78.31
842.758	79.17
842.929	77.61
843.099	79.5
843.27	71.63
843.44	70.07
843.611	67.38
843.781	68.3
843.951	66.73
844.122	64.48
844.292	61.68
844.462	68.82
844.633	67.79
844.803	66.79
844.973	64.8
845.144	64.04
845.314	61.87
845.484	65.12
845.654	59.39
845.824	62.69
845.995	62.59
846.165	72.59
846.335	74.57
846.505	76.02
846.675	83.53
846.845	83.59
847.015	108.06
847.185	114.92
847.355	120.05
847.525	127.96
847.695	134.17
847.865	142.7
848.035	128.33
848.205	101.35
848.375	106.76
848.545	108.3
848.715	106.47
848.884	85.98
849.054	80.85
849.224	73.5
849.394	78.23
849.564	72.49
849.733	74.91
849.903	76.22
850.073	82.62
850.243	80.62
850.412	79.25
850.582	79.22
850.752	83.79
850.921	85.81
851.091	96.76
851.26	100.24
851.43	93.57
851.599	99.4
851.769	91.31
851.939	98.46
852.108	97.39
852.278	100.93
852.447	105.28
852.616	108.06
852.786	96.66
852.955	96.33
853.125	87.75
853.294	96.02
853.463	95.93
853.633	99.86
853.802	106.56
853.971	125.94
854.141	117.71
854.31	116.97
854.479	105.99
854.648	143.67
854.818	119.03
854.987	121.8
855.156	118.92
855.325	101.99
855.494	121.98
855.663	103.93
855.832	102.51
856.001	93.83
856.171	88.74
856.34	111.28
856.509	110.51
856.678	135.2
856.847	128.46
857.016	125.18
857.185	134.98
857.353	139.14
857.522	142.29
857.691	130.67
857.86	142.45
858.029	145.77
858.198	137.65
858.367	142.63
858.535	124.44
858.704	141.75
858.873	141.24
859.042	140.12
859.21	152.35
859.379	147.07
859.548	145.98
859.717	136.17
859.885	142.06
860.054	130.83
860.222	109.04
860.391	110.55
860.56	101.55
860.728	106.91
860.897	104.7
861.065	96.26
861.234	83.65
861.402	78.12
861.571	80.72
861.739	79.75
861.908	77.82
862.076	89.21
862.244	93.45
862.413	102.36
862.581	105.17
862.749	98.22
862.918	89.38
863.086	103.6
863.254	122.64
863.423	134.63
863.591	103.21
863.759	106.02
863.927	104.18
864.096	100.87
864.264	82.52
864.432	72.64
864.6	84.85
864.768	82.69
864.936	78.33
865.104	66.83
865.272	67.99
865.44	87.09
865.608	90.85
865.776	87.75
865.944	89.83
866.112	100.1
866.28	112.23
866.448	106.87
866.616	129.74
866.784	118.5
866.952	115.17
867.12	130
867.288	117.15
867.455	125.36
867.623	127.81
867.791	138.9
867.959	142.23
868.127	131.77
868.294	101.83
868.462	77.76
868.63	87.02
868.797	96.79
868.965	72.77
869.133	80.79
869.3	73.96
869.468	95.3
869.636	76.08
869.803	76.14
869.971	78.84
870.138	88.98
870.306	92.28
870.473	92.61
870.641	92.02
870.808	92.15
870.975	88.19
871.143	92.04
871.31	81.19
871.478	81.54
871.645	79.37
871.812	83.77
871.98	88.78
872.147	85.34
872.314	66.5
872.482	64.07
872.649	66.94
872.816	75.42
872.983	80.54
873.15	76.44
873.318	88.98
873.485	102.99
873.652	103.6
873.819	107.28
873.986	124.47
874.153	151.46
874.32	169.56
874.487	200.03
874.654	221.84
874.821	216.74
874.988	228.08
875.155	253.51
875.322	204.14
875.489	217.6
875.656	194.18
875.823	168.69
875.99	137.02
876.157	101.29
876.324	99.44
876.49	93.07
876.657	97.85
876.824	102.37
876.991	99.79
877.157	95.2
877.324	93.05
877.491	96.21
877.658	94.48
877.824	96.19
877.991	101.41
878.157	96.11
878.324	104.82
878.491	103.51
878.657	91.77
878.824	91.38
878.99	90.61
879.157	86.58
879.323	85.59
879.49	90.71
879.656	91.75
879.823	100.03
879.989	100.83
880.156	97.36
880.322	94.83
880.488	96.35
880.655	93.48
880.821	90.77
880.987	98.1
881.154	97.35
881.32	100.71
881.486	96.08
881.652	91.41
881.819	89.06
881.985	86.23
882.151	80.65
882.317	75.69
882.483	73.24
882.649	72.39
882.816	68.9
882.982	67.98
883.148	62.59
883.314	60.5
883.48	58.12
883.646	54.31
883.812	54.42
883.978	54.28
884.144	55.53
884.31	56.44
884.476	54.83
884.642	54.48
884.807	53.79
884.973	53.09
885.139	53.71
885.305	54.46
885.471	55.02
885.637	54.47
885.802	55.29
885.968	55.79
886.134	55.65
886.3	59.63
886.465	60.39
886.631	60.65
886.797	66.36
886.962	69.45
887.128	69.54
887.293	77.21
887.459	73.43
887.625	76.73
887.79	80.64
887.956	83.98
888.121	79.41
888.287	81.71
888.452	86.62
888.618	81.34
888.783	78.45
