Data from CB_008_Reflection_2.txt Node
Date: Wed Nov 11 18:34:53 EST 2015
User: robert
Spectrometer: USB4E03001
Autoset integration time: false
Trigger mode: 4
Integration Time (sec): 1.000000E-1
Scans to average: 15
Electric dark correction enabled: true
Nonlinearity correction enabled: false
Boxcar width: 5
Stray light correction enabled: false
XAxis mode: Wavelengths
Stop averaging: false
Number of Pixels in Spectrum: 3648
>>>>>Begin Spectral Data<<<<<
177.566	-232.98
177.785	-505.5
178.005	-167.78
178.225	-1854.97
178.445	426.59
178.665	681.7
178.885	-70.87
179.105	684.44
179.324	377.37
179.544	-270.29
179.764	-201.88
179.984	-242.83
180.204	519.07
180.423	-363.85
180.643	-832.93
180.863	2757.14
181.083	10311.57
181.302	1245.62
181.522	-3537.13
181.742	-787.57
181.961	576.83
182.181	286.6
182.401	320.05
182.621	1779.46
182.84	306.66
183.06	320
183.279	401.47
183.499	983.56
183.719	880.69
183.938	523.28
184.158	1662.89
184.377	-2345.62
184.597	-581.48
184.816	-524.21
185.036	-1340.1
185.256	-423.92
185.475	1347.57
185.695	-15701.15
185.914	493.48
186.134	348.2
186.353	376.77
186.572	441.62
186.792	320.06
187.011	253.08
187.231	206.25
187.45	199.66
187.67	216.06
187.889	1451.27
188.108	604.86
188.328	1032.18
188.547	-746.14
188.766	-1231.65
188.986	602.7
189.205	-33372.73
189.424	874.4
189.644	6830.58
189.863	360.75
190.082	320.84
190.302	258.37
190.521	159.87
190.74	138.98
190.959	132.99
191.178	141.18
191.398	116.47
191.617	94.3
191.836	98.3
192.055	100.6
192.274	105.46
192.494	107.01
192.713	102.06
192.932	111.6
193.151	126.67
193.37	133.09
193.589	121.25
193.808	146.53
194.027	141.08
194.246	164.28
194.465	170.37
194.685	155.67
194.904	167.66
195.123	369.33
195.342	1544.17
195.561	215.14
195.78	162.03
195.999	209.38
196.218	848.09
196.436	-397.11
196.655	-1984.73
196.874	1006.31
197.093	907.2
197.312	1215.67
197.531	-514.76
197.75	-641.12
197.969	-194.79
198.188	-141.36
198.407	-138.26
198.625	-498.26
198.844	-437.32
199.063	-309.96
199.282	-225.24
199.501	-125.05
199.719	-182.81
199.938	-2375.39
200.157	324.51
200.376	375.24
200.594	614.47
200.813	-25954.29
201.032	1668.18
201.251	455.77
201.469	449.02
201.688	351.25
201.907	343.35
202.125	262.49
202.344	174.59
202.563	194.48
202.781	228.52
203	209.82
203.218	139.5
203.437	133.39
203.656	110.39
203.874	107.92
204.093	120.34
204.311	77.34
204.53	63.68
204.748	51.89
204.967	47.34
205.185	62.76
205.404	93.42
205.622	137.47
205.841	158.86
206.059	197.99
206.278	229.22
206.496	218.49
206.715	436.95
206.933	589.63
207.151	383.36
207.37	431.64
207.588	393.42
207.806	463.67
208.025	505.23
208.243	565.57
208.461	301.7
208.68	316.95
208.898	372.17
209.116	419.55
209.335	377.47
209.553	-1348
209.771	531.09
209.989	-5441.74
210.208	-3774.61
210.426	-1355.61
210.644	-438.82
210.862	-286.85
211.081	-254.3
211.299	-282.41
211.517	-364.3
211.735	-265.74
211.953	-476.19
212.171	-182.81
212.39	-1271.66
212.608	-3406.25
212.826	520.96
213.044	369.06
213.262	308.81
213.48	270.35
213.698	371.91
213.916	-2121.46
214.134	-804.24
214.352	-1693.71
214.57	1099.18
214.788	318.2
215.006	336.37
215.224	243.19
215.442	147.22
215.66	150.61
215.878	214.91
216.096	214.66
216.314	166.46
216.532	176.28
216.75	176.23
216.968	181.74
217.185	303.25
217.403	326.37
217.621	463.55
217.839	633.07
218.057	11593.97
218.275	-3932.97
218.492	-429.02
218.71	-336.21
218.928	-432.55
219.146	-194.93
219.363	-102.77
219.581	-143.36
219.799	-120.98
220.017	-53.48
220.234	-48.64
220.452	-76.42
220.67	-77.7
220.887	-188.89
221.105	-111.22
221.323	-105.99
221.54	-29.09
221.758	-52.11
221.976	-72.37
222.193	-92.84
222.411	-137.13
222.629	-178.44
222.846	-162.33
223.064	-146.02
223.281	-113.57
223.499	-98.02
223.716	-113.15
223.934	-568.12
224.151	-800.27
224.369	-315.76
224.586	94175
224.804	-554.12
225.021	-146.21
225.239	-96.57
225.456	-152.7
225.674	-180.43
225.891	-112.09
226.108	-109.57
226.326	-65.19
226.543	-63.6
226.76	-63.23
226.978	-33.6
227.195	-27.01
227.413	-14.74
227.63	-14.88
227.847	-12.77
228.064	-6.78
228.282	0.58
228.499	5.63
228.716	4.19
228.934	4.24
229.151	4.89
229.368	3.81
229.585	2
229.802	2.36
230.02	1.09
230.237	1.85
230.454	5.36
230.671	4.32
230.888	3.4
231.105	2.11
231.323	0.74
231.54	2.44
231.757	-2.33
231.974	6.5
232.191	-0.13
232.408	9.08
232.625	6.34
232.842	-6.73
233.059	-8.19
233.276	-7.61
233.493	-2.61
233.71	-4.84
233.927	-3.42
234.144	1.46
234.361	-2.28
234.578	-6.92
234.795	-13.35
235.012	-17.42
235.229	-11.22
235.446	-13.44
235.663	-23.87
235.879	-18.04
236.096	-15.25
236.313	-27.97
236.53	-34.24
236.747	-23.75
236.964	-14.07
237.181	-23.01
237.397	-7.26
237.614	-5.64
237.831	-10.64
238.048	-5.4
238.264	-17.31
238.481	-21.13
238.698	-16.81
238.915	-18.43
239.131	-29.5
239.348	-35.94
239.565	-28.62
239.781	-31.54
239.998	-31.84
240.215	-24.93
240.431	-21.25
240.648	-12.71
240.865	-8.14
241.081	-7.46
241.298	-5.04
241.514	-1.99
241.731	0.35
241.947	2.85
242.164	2.48
242.38	2.36
242.597	3.17
242.814	4.74
243.03	3.47
243.246	4.14
243.463	5.36
243.679	6.83
243.896	4.87
244.112	4.93
244.329	4.32
244.545	6.55
244.762	9.01
244.978	10.71
245.194	8.75
245.411	8.56
245.627	6.06
245.843	5.66
246.06	6.91
246.276	9.8
246.492	9.35
246.709	8.71
246.925	7.57
247.141	5.84
247.357	4.41
247.574	5.03
247.79	5.25
248.006	5.62
248.222	5.97
248.439	5.02
248.655	4.75
248.871	4.24
249.087	4.53
249.303	4.93
249.519	6.16
249.736	4.12
249.952	1.83
250.168	-2.03
250.384	-3.02
250.6	-4.52
250.816	-5.33
251.032	-8.78
251.248	-9.92
251.464	-10.23
251.68	-12.42
251.896	-10.32
252.112	-8.22
252.328	-5.39
252.544	-2.41
252.76	-0.44
252.976	-0.64
253.192	0.38
253.408	0.81
253.624	1.88
253.84	1.01
254.056	2.3
254.272	0
254.487	0.27
254.703	-2.1
254.919	-0.11
255.135	-3.84
255.351	-3.97
255.567	-3.23
255.782	-1.28
255.998	-0.48
256.214	-0.31
256.43	-1.94
256.646	-2.98
256.861	-3.43
257.077	-2.55
257.293	-7.09
257.508	-5.55
257.724	-6.41
257.94	-6.46
258.155	-7.32
258.371	-5.88
258.587	-4.51
258.802	-3.25
259.018	-0.87
259.234	0.91
259.449	1.97
259.665	2.74
259.88	3.2
260.096	3.61
260.312	3.73
260.527	4.44
260.743	4.49
260.958	4.56
261.174	5.13
261.389	4.05
261.605	3.32
261.82	2.56
262.036	2.51
262.251	1.55
262.466	2.66
262.682	1.29
262.897	0.95
263.113	-1.33
263.328	-1.72
263.543	-2.29
263.759	-3.16
263.974	-1.91
264.189	-1.92
264.405	-2.9
264.62	-3.13
264.835	-4.86
265.051	-4.26
265.266	-7.86
265.481	-4.73
265.696	-4.4
265.912	-3.81
266.127	-1.43
266.342	-1.14
266.557	-4.57
266.773	-3.95
266.988	-3.13
267.203	-4.92
267.418	-4.46
267.633	-3.61
267.848	-4.37
268.064	-4.46
268.279	-4.79
268.494	-5.18
268.709	-5.83
268.924	-3.76
269.139	-3.75
269.354	-4.36
269.569	-1.68
269.784	-0.97
269.999	-0.3
270.214	-1.93
270.429	-3.58
270.644	-3.04
270.859	-3.88
271.074	-3.07
271.289	-2.55
271.504	-2.76
271.719	-2.25
271.934	-1.72
272.149	-1.84
272.363	-1.97
272.578	-0.83
272.793	1.57
273.008	1.62
273.223	2.17
273.438	1.96
273.653	2.64
273.867	3.57
274.082	4.09
274.297	3.48
274.512	3.4
274.726	4.62
274.941	5.29
275.156	3.65
275.371	2.41
275.585	0.96
275.8	0.72
276.015	-0.42
276.229	-2.67
276.444	-1.2
276.659	-2.47
276.873	-2.81
277.088	-4.52
277.302	-4.8
277.517	-4.51
277.732	-5.32
277.946	-4.37
278.161	-5.99
278.375	-4.87
278.59	-2.83
278.804	-5.29
279.019	-4.69
279.233	-3.06
279.448	-2.19
279.662	-1.94
279.877	-1.04
280.091	1.36
280.306	3.2
280.52	4.98
280.735	3.85
280.949	4.03
281.163	5.61
281.378	6.21
281.592	5.74
281.806	7.15
282.021	6.32
282.235	6.11
282.449	4.53
282.664	3.56
282.878	4.15
283.092	5.47
283.307	5.28
283.521	4.5
283.735	4.37
283.949	3.55
284.164	2.4
284.378	3.45
284.592	3.53
284.806	4.71
285.02	3.67
285.234	3.06
285.449	2.99
285.663	2.61
285.877	1.89
286.091	1.46
286.305	1.6
286.519	2.57
286.733	2.17
286.947	1.66
287.161	1.8
287.375	3.08
287.589	2.73
287.803	2.57
288.017	2.82
288.231	3.07
288.445	3.77
288.659	2.95
288.873	1.87
289.087	2.01
289.301	4
289.515	4.33
289.729	4.03
289.943	4.66
290.157	3.55
290.371	3.71
290.584	4.49
290.798	5.25
291.012	6.35
291.226	6.52
291.44	6.5
291.654	4.84
291.867	4.89
292.081	4.42
292.295	3.24
292.509	4.47
292.722	4.6
292.936	3.69
293.15	3.42
293.364	2.91
293.577	1.92
293.791	2.56
294.005	2.02
294.218	1.39
294.432	1.87
294.645	3.47
294.859	3.47
295.073	3.59
295.286	3.05
295.5	3.22
295.713	3.92
295.927	5.13
296.14	4.6
296.354	5.57
296.568	4.83
296.781	5.05
296.994	3.93
297.208	2.77
297.421	3.71
297.635	4.96
297.848	5.36
298.062	6.16
298.275	5.92
298.489	5.64
298.702	4.97
298.915	6.03
299.129	5.85
299.342	6.96
299.555	8
299.769	7.61
299.982	7
300.195	6.93
300.409	5.81
300.622	7.02
300.835	7.66
301.048	8.05
301.262	8.06
301.475	8.6
301.688	8.95
301.901	9.1
302.115	8.52
302.328	9.2
302.541	8.26
302.754	8.03
302.967	6.94
303.18	6.44
303.393	7.21
303.607	7.2
303.82	6.75
304.033	5.5
304.246	6.04
304.459	5.39
304.672	4.82
304.885	4.76
305.098	5.11
305.311	5.12
305.524	4.67
305.737	3.95
305.95	4.81
306.163	5.43
306.376	5.44
306.589	5.73
306.802	6.64
307.015	8.22
307.228	7.59
307.44	9.37
307.653	9.56
307.866	10.31
308.079	10.59
308.292	9.96
308.505	10.83
308.718	11.04
308.93	10.52
309.143	11.2
309.356	9.41
309.569	10.51
309.781	9.1
309.994	8.01
310.207	8.62
310.42	9.39
310.632	10.04
310.845	9.13
311.058	9.57
311.27	9.85
311.483	9.2
311.696	9.12
311.908	8.98
312.121	9.32
312.333	9.8
312.546	11.04
312.759	9.52
312.971	8.04
313.184	6.51
313.396	6.91
313.609	6.92
313.821	5.88
314.034	6.84
314.246	7.03
314.459	6.22
314.671	7.65
314.884	6.06
315.096	7.65
315.309	7.88
315.521	8.95
315.733	8.81
315.946	8.87
316.158	9.28
316.371	7.62
316.583	6.1
316.795	6.79
317.008	5.76
317.22	6.34
317.432	5.81
317.644	5.01
317.857	5.84
318.069	5.1
318.281	4.82
318.494	5.94
318.706	5.79
318.918	6.73
319.13	5.7
319.342	5.18
319.555	3.52
319.767	2.46
319.979	4.47
320.191	3.34
320.403	1.91
320.615	2.38
320.827	1.99
321.039	4.82
321.252	5.09
321.464	5.94
321.676	6.15
321.888	7.18
322.1	8.66
322.312	7.75
322.524	9.49
322.736	11.28
322.948	9.34
323.16	9.9
323.372	8.61
323.584	8.35
323.796	8.67
324.007	8.1
324.219	7.76
324.431	7.89
324.643	8.84
324.855	8.43
325.067	8.53
325.279	9.57
325.491	7.96
325.702	8.61
325.914	8.71
326.126	7.37
326.338	7.93
326.55	8.58
326.761	9.08
326.973	8.51
327.185	7.89
327.396	7.47
327.608	7.04
327.82	10.24
328.032	10.7
328.243	10.88
328.455	11.84
328.666	12.3
328.878	11.44
329.09	9.72
329.301	8.74
329.513	9.05
329.725	9.54
329.936	9.98
330.148	7.22
330.359	5.91
330.571	5.65
330.782	6.12
330.994	6.06
331.205	6.04
331.417	7.23
331.628	8.43
331.84	9.79
332.051	9.59
332.262	9.5
332.474	10.19
332.685	11.32
332.897	12.52
333.108	12.38
333.319	13.36
333.531	13.2
333.742	13.32
333.953	13.24
334.165	12.38
334.376	12.91
334.587	13.24
334.799	12.78
335.01	12.77
335.221	11.87
335.432	12.16
335.644	11.91
335.855	12.15
336.066	12.44
336.277	11.99
336.488	12.06
336.7	12.02
336.911	13.12
337.122	14.27
337.333	14.19
337.544	14.96
337.755	14.87
337.966	13.55
338.177	13.94
338.388	13.54
338.599	14.16
338.811	15.1
339.022	15.21
339.233	14.23
339.444	13.52
339.655	14.37
339.866	14.22
340.076	13.77
340.287	14.68
340.498	15.42
340.709	15.51
340.92	14.64
341.131	14.45
341.342	13.8
341.553	13.93
341.764	13.97
341.975	12.84
342.185	13.15
342.396	13.61
342.607	13.47
342.818	12.59
343.029	13.02
343.239	13.67
343.45	13.48
343.661	13.72
343.872	13.9
344.082	13.75
344.293	13.35
344.504	13.03
344.714	13.71
344.925	14.36
345.136	13.71
345.346	13.76
345.557	14.05
345.768	13.76
345.978	13.31
346.189	12.79
346.399	13.36
346.61	14.25
346.821	14.35
347.031	13.37
347.242	12.86
347.452	13.29
347.663	13.3
347.873	14.51
348.084	14.72
348.294	15.44
348.504	14.86
348.715	14.6
348.925	14.41
349.136	13.21
349.346	13.84
349.557	14.29
349.767	14.4
349.977	13.61
350.188	13.02
350.398	13.62
350.608	13.44
350.819	14.82
351.029	14.39
351.239	14.8
351.449	14.98
351.66	14.35
351.87	14.55
352.08	15.01
352.29	15.49
352.501	14.86
352.711	13.74
352.921	13.75
353.131	13.19
353.341	13.54
353.552	12.95
353.762	13.79
353.972	14
354.182	13.32
354.392	12.34
354.602	11.79
354.812	11.24
355.022	11.59
355.232	11.46
355.442	11.14
355.652	11.77
355.862	12.54
356.072	11.75
356.282	11.74
356.492	11.88
356.702	13.32
356.912	12.83
357.122	12.22
357.332	12.29
357.542	12.35
357.752	13.11
357.962	12.18
358.171	11.97
358.381	12.7
358.591	13.18
358.801	13.35
359.011	12.64
359.221	13.32
359.43	14.13
359.64	14.65
359.85	15.44
360.06	15.09
360.269	15.62
360.479	15.35
360.689	15.21
360.899	14.86
361.108	14.56
361.318	14.36
361.528	14.13
361.737	14.26
361.947	13.6
362.156	12.7
362.366	12.57
362.576	11.99
362.785	11.76
362.995	11.57
363.204	11.66
363.414	11.65
363.623	11.71
363.833	11.96
364.042	11.95
364.252	12.28
364.461	13.03
364.671	12.67
364.88	13.38
365.09	13.27
365.299	13.3
365.509	12.41
365.718	12.48
365.927	12.49
366.137	12.67
366.346	12.45
366.555	11.63
366.765	11.06
366.974	11.31
367.183	10.64
367.393	10.8
367.602	10.52
367.811	10.78
368.021	10.71
368.23	10.91
368.439	10.16
368.648	10.46
368.857	10.78
369.067	10.31
369.276	10.33
369.485	10.74
369.694	10.9
369.903	11.1
370.112	11.69
370.321	11.23
370.531	11
370.74	10.91
370.949	10.15
371.158	9.71
371.367	9.95
371.576	10.06
371.785	9.44
371.994	9.37
372.203	9.31
372.412	9.11
372.621	9.88
372.83	9.66
373.039	9.98
373.248	10.63
373.457	10.96
373.666	10.87
373.874	10.9
374.083	11.51
374.292	10.91
374.501	10.44
374.71	9.87
374.919	9.83
375.128	10.02
375.336	9.88
375.545	9.23
375.754	8.67
375.963	8.78
376.171	8.64
376.38	8.62
376.589	9.02
376.798	8.88
377.006	8.83
377.215	8.61
377.424	8.76
377.632	8.67
377.841	8.96
378.05	8.55
378.258	8.37
378.467	8.51
378.675	7.78
378.884	7.5
379.093	7.72
379.301	8.09
379.51	8.27
379.718	7.91
379.927	7.93
380.135	7.47
380.344	8.38
380.552	8.82
380.761	8.77
380.969	9.11
381.177	9.54
381.386	9.55
381.594	9.19
381.803	8.68
382.011	9.07
382.219	8.71
382.428	8.59
382.636	8.72
382.845	8.33
383.053	8.14
383.261	7.84
383.469	7.7
383.678	7.85
383.886	8.13
384.094	8.14
384.302	7.88
384.511	7.99
384.719	8.38
384.927	8.66
385.135	8.51
385.343	8.31
385.552	8.88
385.76	8.67
385.968	8.53
386.176	8.14
386.384	7.96
386.592	7.71
386.8	7.47
387.008	7.29
387.216	6.8
387.424	7.07
387.633	7.02
387.841	6.59
388.049	6.52
388.257	6.65
388.465	6.76
388.672	6.49
388.88	6.31
389.088	6.35
389.296	6.09
389.504	6.13
389.712	5.82
389.92	5.73
390.128	5.49
390.336	5.12
390.544	4.87
390.751	4.98
390.959	5.3
391.167	5.7
391.375	5.85
391.583	6.07
391.79	6.04
391.998	6
392.206	6.03
392.414	6.27
392.621	6.58
392.829	6.67
393.037	6.28
393.244	5.91
393.452	5.66
393.66	5.49
393.867	5.54
394.075	5.64
394.283	5.65
394.49	5.64
394.698	5.56
394.905	5.28
395.113	4.98
395.32	5.55
395.528	5.55
395.735	5.4
395.943	5.25
396.15	4.94
396.358	4.92
396.565	4.81
396.773	4.59
396.98	4.42
397.188	4.38
397.395	4.57
397.602	3.88
397.81	4.02
398.017	4.1
398.225	4.61
398.432	4.79
398.639	4.74
398.847	4.96
399.054	4.93
399.261	5.24
399.468	5.27
399.676	5.53
399.883	5.62
400.09	5.94
400.297	5.85
400.505	5.47
400.712	5.63
400.919	5.44
401.126	5.17
401.333	5.38
401.54	5.26
401.748	5.19
401.955	5
402.162	4.92
402.369	4.82
402.576	4.92
402.783	5.05
402.99	4.96
403.197	4.98
403.404	4.78
403.611	4.67
403.818	4.25
404.025	4.47
404.232	4.53
404.439	4.49
404.646	4.08
404.853	3.85
405.06	4.05
405.267	4.14
405.474	4.29
405.681	4.79
405.887	4.7
406.094	5.18
406.301	5.2
406.508	4.89
406.715	5.02
406.922	5.34
407.128	5.62
407.335	5.42
407.542	5.23
407.749	4.93
407.955	4.66
408.162	5.04
408.369	4.92
408.575	5.07
408.782	5.41
408.989	5.33
409.195	5.42
409.402	5.46
409.609	5.38
409.815	5.38
410.022	5.25
410.228	5.07
410.435	4.82
410.642	4.67
410.848	4.5
411.055	4.27
411.261	4.32
411.468	4.31
411.674	4.02
411.881	3.96
412.087	3.78
412.294	3.95
412.5	3.98
412.706	4.38
412.913	4.01
413.119	4
413.326	4
413.532	3.78
413.738	3.64
413.945	3.83
414.151	4.04
414.357	3.93
414.564	4.06
414.77	4.21
414.976	3.83
415.182	4.17
415.389	4.3
415.595	4.47
415.801	4.7
416.007	4.75
416.214	4.57
416.42	4.27
416.626	4.52
416.832	4.37
417.038	4.24
417.244	4.11
417.45	4.38
417.657	4.09
417.863	4.04
418.069	3.94
418.275	4.01
418.481	4.09
418.687	4.12
418.893	4.02
419.099	3.99
419.305	4.28
419.511	4.42
419.717	4.45
419.923	4.53
420.129	4.45
420.335	4.67
420.541	4.62
420.746	4.82
420.952	4.96
421.158	5.12
421.364	5.2
421.57	5.03
421.776	4.96
421.982	4.77
422.187	4.81
422.393	4.79
422.599	4.72
422.805	4.66
423.01	4.51
423.216	4.35
423.422	4.21
423.628	4.18
423.833	4.26
424.039	4.26
424.245	4.37
424.45	4.44
424.656	4.43
424.862	4.34
425.067	4.4
425.273	4.52
425.478	4.52
425.684	4.64
425.889	4.67
426.095	4.55
426.301	4.53
426.506	4.48
426.712	4.36
426.917	4.58
427.123	4.63
427.328	4.5
427.533	4.38
427.739	4.46
427.944	4.26
428.15	4.17
428.355	4.26
428.561	4.24
428.766	4.02
428.971	4
429.177	3.79
429.382	3.63
429.587	3.6
429.793	3.23
429.998	3.12
430.203	3.2
430.408	3.13
430.614	2.91
430.819	3.03
431.024	2.94
431.229	3.07
431.434	3.18
431.64	3.01
431.845	3.14
432.05	3.59
432.255	3.64
432.46	3.48
432.665	3.58
432.87	3.79
433.076	3.8
433.281	3.75
433.486	3.7
433.691	3.5
433.896	3.57
434.101	3.58
434.306	3.38
434.511	3.31
434.716	3.31
434.921	3.29
435.126	3.25
435.331	3.04
435.535	3.34
435.74	3.29
435.945	3.49
436.15	3.63
436.355	3.72
436.56	3.77
436.765	3.81
436.97	3.86
437.174	3.8
437.379	3.75
437.584	3.82
437.789	3.64
437.993	3.63
438.198	3.61
438.403	3.88
438.608	3.81
438.812	3.72
439.017	3.73
439.222	3.86
439.426	3.96
439.631	4
439.836	4.2
440.04	4.27
440.245	4.35
440.45	4.34
440.654	4.27
440.859	4.14
441.063	4.16
441.268	4.28
441.472	4.3
441.677	4.11
441.881	3.98
442.086	3.88
442.29	3.85
442.495	3.94
442.699	3.86
442.904	3.71
443.108	3.87
443.312	3.93
443.517	3.89
443.721	3.82
443.925	4.02
444.13	4.21
444.334	4.25
444.538	4.37
444.743	4.27
444.947	4.28
445.151	4.32
445.356	4.37
445.56	4.21
445.764	4.15
445.968	4.27
446.173	4.22
446.377	4.16
446.581	4.01
446.785	3.94
446.989	3.94
447.193	3.96
447.398	3.91
447.602	3.83
447.806	4.01
448.01	3.98
448.214	3.84
448.418	3.87
448.622	3.84
448.826	3.93
449.03	3.99
449.234	3.78
449.438	3.75
449.642	3.68
449.846	3.57
450.05	3.38
450.254	3.37
450.458	3.38
450.662	3.26
450.866	3.28
451.069	3.33
451.273	3.47
451.477	3.58
451.681	3.69
451.885	3.72
452.089	3.73
452.292	3.79
452.496	3.8
452.7	3.8
452.904	3.81
453.107	3.64
453.311	3.61
453.515	3.39
453.719	3.35
453.922	3.21
454.126	3.29
454.33	3.34
454.533	3.37
454.737	3.56
454.94	3.45
455.144	3.35
455.348	3.37
455.551	3.36
455.755	3.46
455.958	3.3
456.162	3.08
456.365	3
456.569	2.89
456.772	2.95
456.976	2.67
457.179	2.69
457.383	2.9
457.586	2.79
457.79	2.83
457.993	2.61
458.196	2.7
458.4	2.91
458.603	3.02
458.807	3.21
459.01	3.13
459.213	3.31
459.417	3.3
459.62	3.39
459.823	3.56
460.026	3.51
460.23	3.6
460.433	3.61
460.636	3.53
460.839	3.55
461.042	3.49
461.246	3.49
461.449	3.35
461.652	3.36
461.855	3.26
462.058	3.22
462.261	3.16
462.464	3.3
462.668	3.43
462.871	3.6
463.074	3.48
463.277	3.34
463.48	3.38
463.683	3.28
463.886	3.47
464.089	3.45
464.292	3.38
464.495	3.48
464.698	3.39
464.901	3.44
465.104	3.27
465.306	3.28
465.509	3.49
465.712	3.38
465.915	3.51
466.118	3.47
466.321	3.5
466.524	3.53
466.726	3.55
466.929	3.55
467.132	3.33
467.335	3.53
467.538	3.63
467.74	3.61
467.943	3.68
468.146	3.67
468.348	3.62
468.551	3.75
468.754	3.86
468.956	3.81
469.159	3.68
469.362	3.85
469.564	3.76
469.767	3.67
469.969	3.68
470.172	3.81
470.375	3.76
470.577	3.56
470.78	3.37
470.982	3.28
471.185	3.44
471.387	3.6
471.59	3.58
471.792	3.65
471.995	3.66
472.197	3.67
472.399	3.61
472.602	3.68
472.804	3.79
473.007	3.74
473.209	3.8
473.411	3.62
473.614	3.5
473.816	3.44
474.018	3.44
474.22	3.49
474.423	3.46
474.625	3.38
474.827	3.5
475.03	3.42
475.232	3.59
475.434	3.61
475.636	3.72
475.838	3.6
476.04	3.73
476.243	3.63
476.445	3.64
476.647	3.54
476.849	3.63
477.051	3.41
477.253	3.49
477.455	3.36
477.657	3.2
477.859	3.28
478.061	3.27
478.263	3.43
478.465	3.41
478.667	3.54
478.869	3.63
479.071	3.6
479.273	3.72
479.475	3.78
479.677	3.77
479.879	3.84
480.081	3.81
480.283	3.89
480.485	3.83
480.686	3.87
480.888	3.64
481.09	3.53
481.292	3.63
481.494	3.63
481.695	3.58
481.897	3.67
482.099	3.81
482.301	3.89
482.502	3.86
482.704	3.8
482.906	3.84
483.107	3.91
483.309	3.97
483.511	4.02
483.712	4.05
483.914	4.04
484.115	4.08
484.317	4.08
484.519	4.02
484.72	4
484.922	4.04
485.123	3.98
485.325	4
485.526	4.02
485.728	3.94
485.929	3.93
486.131	3.99
486.332	3.89
486.534	3.82
486.735	3.86
486.936	3.91
487.138	3.88
487.339	3.91
487.541	3.83
487.742	3.81
487.943	3.76
488.144	3.74
488.346	3.74
488.547	3.79
488.748	3.8
488.95	3.73
489.151	3.76
489.352	3.78
489.553	3.75
489.755	3.83
489.956	3.78
490.157	3.81
490.358	3.86
490.559	3.86
490.76	3.84
490.961	3.81
491.163	3.88
491.364	3.86
491.565	3.81
491.766	3.93
491.967	3.9
492.168	3.96
492.369	4.04
492.57	3.96
492.771	3.91
492.972	3.96
493.173	3.97
493.374	3.92
493.575	3.86
493.776	3.84
493.976	3.72
494.177	3.57
494.378	3.52
494.579	3.37
494.78	3.49
494.981	3.51
495.182	3.33
495.382	3.46
495.583	3.54
495.784	3.71
495.985	3.84
496.185	3.83
496.386	3.92
496.587	3.93
496.788	3.93
496.988	3.92
497.189	3.9
497.39	3.89
497.59	3.72
497.791	3.69
497.992	3.72
498.192	3.76
498.393	3.79
498.593	3.87
498.794	3.9
498.994	4.01
499.195	3.95
499.395	4.09
499.596	4.11
499.796	4.28
499.997	4.4
500.197	4.08
500.398	3.83
500.598	3.88
500.799	3.84
500.999	3.66
501.199	3.82
501.4	3.88
501.6	3.95
501.801	4.09
502.001	3.93
502.201	3.87
502.402	4.09
502.602	4.24
502.802	4.34
503.002	4.5
503.203	4.62
503.403	4.52
503.603	4.42
503.803	4.17
504.003	3.99
504.204	4.25
504.404	4.37
504.604	4.39
504.804	4.41
505.004	4.29
505.204	4.06
505.404	4.11
505.604	4.03
505.804	4.05
506.005	4.18
506.205	4.34
506.405	4.19
506.605	4.17
506.805	4.15
507.005	4.11
507.204	4.21
507.404	4.31
507.604	4.37
507.804	4.47
508.004	4.53
508.204	4.59
508.404	4.62
508.604	4.64
508.804	4.5
509.003	4.57
509.203	4.67
509.403	4.59
509.603	4.65
509.803	4.64
510.002	4.64
510.202	4.64
510.402	4.69
510.602	4.7
510.801	4.82
511.001	5.16
511.201	5.04
511.4	5.15
511.6	5.48
511.8	5.49
511.999	5.52
512.199	5.57
512.398	5.68
512.598	5.69
512.797	5.86
512.997	5.72
513.197	5.51
513.396	5.79
513.596	5.82
513.795	5.68
513.994	5.89
514.194	5.89
514.393	6.03
514.593	6.07
514.792	6.13
514.992	6.11
515.191	6.26
515.39	6.24
515.59	6.36
515.789	6.4
515.988	6.37
516.188	6.28
516.387	6.34
516.586	6.29
516.786	6.37
516.985	6.52
517.184	6.55
517.383	6.57
517.582	6.73
517.782	6.72
517.981	6.76
518.18	6.88
518.379	6.96
518.578	7.08
518.777	7.24
518.976	7.31
519.176	7.33
519.375	7.46
519.574	7.65
519.773	7.7
519.972	7.62
520.171	7.7
520.37	7.66
520.569	7.7
520.768	7.76
520.967	7.59
521.166	7.55
521.365	7.54
521.564	7.42
521.762	7.37
521.961	7.33
522.16	7.46
522.359	7.53
522.558	7.74
522.757	7.85
522.956	7.83
523.154	7.91
523.353	8.1
523.552	8.16
523.751	8.33
523.949	8.39
524.148	8.52
524.347	8.52
524.546	8.6
524.744	8.68
524.943	8.74
525.142	8.88
525.34	9.09
525.539	9.08
525.737	9.12
525.936	9.13
526.135	9.16
526.333	9.17
526.532	9.3
526.73	9.18
526.929	9.2
527.127	9.18
527.326	9.21
527.524	9.19
527.723	9.34
527.921	9.4
528.12	9.51
528.318	9.57
528.516	9.65
528.715	9.69
528.913	9.78
529.112	9.77
529.31	9.85
529.508	9.86
529.707	9.88
529.905	9.83
530.103	9.87
530.301	9.84
530.5	9.91
530.698	9.98
530.896	9.98
531.094	10.08
531.293	10.27
531.491	10.26
531.689	10.32
531.887	10.41
532.085	10.47
532.283	10.46
532.481	10.53
532.68	10.57
532.878	10.58
533.076	10.71
533.274	10.72
533.472	10.67
533.67	10.71
533.868	10.84
534.066	10.89
534.264	11.01
534.462	11.14
534.66	11.21
534.858	11.16
535.056	11.26
535.253	11.32
535.451	11.46
535.649	11.59
535.847	11.74
536.045	11.72
536.243	11.8
536.441	11.9
536.638	11.84
536.836	11.9
537.034	12.13
537.232	12.13
537.43	12.18
537.627	12.19
537.825	12.22
538.023	12.27
538.22	12.33
538.418	12.43
538.616	12.34
538.813	12.57
539.011	12.51
539.209	12.4
539.406	12.44
539.604	12.51
539.801	12.52
539.999	12.64
540.196	12.73
540.394	12.87
540.591	13.01
540.789	13.24
540.986	13.27
541.184	13.37
541.381	13.5
541.579	13.55
541.776	13.63
541.974	13.74
542.171	13.73
542.368	13.79
542.566	13.78
542.763	13.85
542.96	13.81
543.158	13.8
543.355	13.83
543.552	13.84
543.75	13.89
543.947	13.93
544.144	13.88
544.341	14
544.539	13.98
544.736	14.12
544.933	14.05
545.13	14.13
545.327	14.26
545.524	14.38
545.722	14.5
545.919	14.54
546.116	14.68
546.313	14.76
546.51	14.8
546.707	15.07
546.904	15.17
547.101	15.29
547.298	15.31
547.495	15.47
547.692	15.54
547.889	15.61
548.086	15.62
548.283	15.68
548.48	15.84
548.677	15.92
548.874	15.97
549.07	16.04
549.267	16.21
549.464	16.43
549.661	16.44
549.858	16.63
550.055	16.62
550.251	16.95
550.448	17.03
550.645	17.17
550.842	17.22
551.038	17.09
551.235	17.14
551.432	16.99
551.628	17.11
551.825	17.15
552.022	17.39
552.218	17.48
552.415	17.66
552.612	17.57
552.808	17.49
553.005	17.72
553.201	17.92
553.398	18.06
553.594	18.33
553.791	18.36
553.987	18.55
554.184	18.57
554.38	18.71
554.577	18.68
554.773	18.93
554.97	19.12
555.166	19.07
555.362	19.18
555.559	19.38
555.755	19.31
555.952	19.46
556.148	19.52
556.344	19.35
556.541	19.64
556.737	19.74
556.933	19.49
557.129	19.48
557.326	19.66
557.522	19.6
557.718	19.68
557.914	19.99
558.11	19.98
558.307	20.08
558.503	20.35
558.699	20.46
558.895	20.62
559.091	20.85
559.287	21.04
559.483	21.06
559.679	21.21
559.876	21.23
560.072	21.06
560.268	21.01
560.464	20.87
560.66	20.99
560.856	20.71
561.052	20.7
561.247	21.03
561.443	21.14
561.639	21.41
561.835	21.5
562.031	21.54
562.227	21.78
562.423	21.94
562.619	22.17
562.815	22.24
563.01	22.71
563.206	22.85
563.402	22.86
563.598	22.88
563.793	22.75
563.989	22.83
564.185	22.9
564.381	22.83
564.576	22.89
564.772	23.15
564.968	23.13
565.163	23.02
565.359	23.15
565.555	23.23
565.75	23.34
565.946	23.46
566.141	23.48
566.337	23.56
566.532	23.91
566.728	24.06
566.923	23.97
567.119	24.03
567.314	24.17
567.51	24.21
567.705	24.22
567.901	24.28
568.096	24.52
568.292	24.65
568.487	24.88
568.682	24.88
568.878	24.93
569.073	25.04
569.268	25.12
569.464	25.28
569.659	25.36
569.854	25.29
570.05	25.48
570.245	25.42
570.44	25.49
570.635	25.37
570.831	25.41
571.026	25.46
571.221	25.59
571.416	25.84
571.611	25.96
571.806	26
572.002	26.09
572.197	25.98
572.392	25.96
572.587	26.11
572.782	26.23
572.977	26.33
573.172	26.36
573.367	26.45
573.562	26.19
573.757	26.09
573.952	26.2
574.147	26.27
574.342	26.45
574.537	26.61
574.732	26.55
574.927	26.7
575.121	26.56
575.316	26.7
575.511	26.59
575.706	26.81
575.901	26.85
576.096	26.76
576.29	26.84
576.485	26.84
576.68	26.74
576.875	26.63
577.069	26.45
577.264	26.64
577.459	26.49
577.654	26.82
577.848	26.92
578.043	26.89
578.238	26.98
578.432	26.96
578.627	27.02
578.821	27.17
579.016	27.4
579.21	27.57
579.405	27.61
579.6	27.88
579.794	27.56
579.989	27.54
580.183	27.76
580.378	27.81
580.572	27.99
580.766	28.41
580.961	28.49
581.155	28.55
581.35	28.33
581.544	28.15
581.738	28.14
581.933	28.05
582.127	28.01
582.321	28.05
582.516	28.12
582.71	28.08
582.904	27.76
583.099	27.92
583.293	27.81
583.487	28.27
583.681	28.31
583.875	28.22
584.07	28.27
584.264	28.32
584.458	28.28
584.652	28.32
584.846	28.33
585.04	28.5
585.234	28.2
585.428	28.22
585.623	27.98
585.817	28.25
586.011	28.38
586.205	28.47
586.399	28.61
586.593	28.47
586.787	28.56
586.981	28.73
587.174	28.52
587.368	28.97
587.562	29.07
587.756	29.12
587.95	28.97
588.144	28.93
588.338	28.88
588.532	29.05
588.725	29.16
588.919	29.18
589.113	29.24
589.307	29.38
589.501	29.31
589.694	29.42
589.888	29.28
590.082	29.25
590.275	29.37
590.469	29.84
590.663	29.81
590.856	29.59
591.05	29.61
591.244	29.58
591.437	29.61
591.631	29.61
591.824	29.67
592.018	30.01
592.212	30.36
592.405	30.32
592.599	30.15
592.792	30
592.986	30.43
593.179	30.45
593.372	30.74
593.566	30.55
593.759	30.52
593.953	30.51
594.146	30.75
594.339	30.44
594.533	30.34
594.726	30.56
594.92	30.72
595.113	30.47
595.306	30.53
595.499	30.46
595.693	30.68
595.886	30.71
596.079	30.87
596.272	30.9
596.466	31.06
596.659	31.32
596.852	31.11
597.045	31.08
597.238	31.31
597.431	31.2
597.624	31.33
597.818	31.41
598.011	31.39
598.204	31.34
598.397	31.04
598.59	30.93
598.783	30.81
598.976	30.92
599.169	30.84
599.362	30.85
599.555	30.73
599.748	30.53
599.941	30.56
600.134	30.54
600.326	30.41
600.519	30.72
600.712	30.87
600.905	30.83
601.098	30.75
601.291	30.58
601.483	30.54
601.676	31.01
601.869	30.93
602.062	30.86
602.255	30.9
602.447	31.07
602.64	31.02
602.833	31.06
603.025	31.43
603.218	31.5
603.411	31.77
603.603	31.67
603.796	31.54
603.989	31.74
604.181	31.63
604.374	31.63
604.566	31.69
604.759	31.74
604.951	31.85
605.144	31.54
605.336	31.43
605.529	31.55
605.721	31.68
605.914	31.55
606.106	31.53
606.299	31.8
606.491	31.76
606.683	31.86
606.876	31.66
607.068	31.5
607.26	31.5
607.453	31.59
607.645	31.3
607.837	31.28
608.03	31.68
608.222	31.97
608.414	31.83
608.606	31.9
608.799	31.91
608.991	31.85
609.183	31.97
609.375	32.2
609.567	32.23
609.759	32.39
609.952	32.32
610.144	32.07
610.336	31.5
610.528	31.45
610.72	31.45
610.912	31.09
611.104	31.06
611.296	30.93
611.488	30.74
611.68	30.67
611.872	30.68
612.064	30.67
612.256	30.83
612.448	30.89
612.64	30.91
612.832	30.9
613.023	30.96
613.215	31.1
613.407	31.05
613.599	30.88
613.791	30.98
613.983	31.14
614.174	31.44
614.366	31.27
614.558	31.78
614.75	31.86
614.941	32.11
615.133	32.33
615.325	32.28
615.516	32.56
615.708	33.11
615.9	33.31
616.091	32.81
616.283	32.63
616.475	32.71
616.666	32.46
616.858	32.41
617.049	32.33
617.241	32.42
617.432	32.35
617.624	32.11
617.815	31.78
618.007	31.67
618.198	31.99
618.39	31.85
618.581	31.44
618.773	31.39
618.964	31.51
619.155	31.61
619.347	31.45
619.538	31.9
619.729	32.04
619.921	32.19
620.112	31.82
620.303	31.83
620.494	31.83
620.686	32.03
620.877	31.99
621.068	31.86
621.259	31.62
621.451	31.63
621.642	31.16
621.833	31.35
622.024	31.41
622.215	31.72
622.406	31.54
622.597	31.71
622.788	31.79
622.98	31.78
623.171	31.83
623.362	32.08
623.553	32.24
623.744	32.55
623.935	32.5
624.126	32.4
624.317	32.06
624.508	32.3
624.698	32.28
624.889	32.38
625.08	32.5
625.271	32.38
625.462	32.36
625.653	32.23
625.844	32.19
626.034	32.04
626.225	32.02
626.416	32.33
626.607	32.27
626.798	32.24
626.988	32.38
627.179	32.38
627.37	32.39
627.56	32.42
627.751	32.54
627.942	32.46
628.132	32.59
628.323	32.68
628.514	32.91
628.704	32.86
628.895	32.81
629.085	32.91
629.276	32.82
629.466	32.89
629.657	32.78
629.847	32.87
630.038	32.83
630.228	32.81
630.419	32.56
630.609	32.22
630.8	32.19
630.99	32.63
631.181	32.66
631.371	33.18
631.561	33.13
631.752	32.79
631.942	32.54
632.132	32.97
632.323	32.97
632.513	32.98
632.703	33.18
632.893	33.12
633.084	32.84
633.274	32.85
633.464	32.45
633.654	32.42
633.844	32.54
634.034	32.4
634.225	32.28
634.415	32.34
634.605	32.9
634.795	32.93
634.985	33.27
635.175	33.17
635.365	32.75
635.555	32.87
635.745	33.02
635.935	32.93
636.125	32.96
636.315	32.9
636.505	33.02
636.695	32.65
636.885	32.74
637.075	32.43
637.265	32.53
637.455	32.87
637.644	32.68
637.834	32.66
638.024	32.91
638.214	33.1
638.404	32.87
638.593	32.55
638.783	32.73
638.973	32.7
639.163	32.35
639.352	32.38
639.542	32.36
639.732	32.54
639.921	32.66
640.111	32.61
640.301	32.75
640.49	32.6
640.68	32.63
640.87	32.25
641.059	32.21
641.249	32.78
641.438	33.14
641.628	33.01
641.817	33.16
642.007	33.05
642.196	33.05
642.386	32.82
642.575	33.2
642.764	33.27
642.954	33.48
643.143	33.09
643.333	33.26
643.522	32.72
643.711	32.69
643.901	32.19
644.09	32.36
644.279	32.69
644.469	32.87
644.658	33
644.847	33.15
645.036	33.07
645.226	33.28
645.415	33.07
645.604	33.67
645.793	33.99
645.982	33.91
646.171	33.42
646.361	33.38
646.55	33.5
646.739	33.35
646.928	33.83
647.117	33.89
647.306	34.25
647.495	34.28
647.684	33.63
647.873	33.67
648.062	33.99
648.251	34.33
648.44	34.2
648.629	34.31
648.818	34.33
649.007	33.61
649.196	33.32
649.384	33.47
649.573	33.33
649.762	33.72
649.951	33.26
650.14	33.32
650.328	33.3
650.517	33.1
650.706	32.81
650.895	32.56
651.083	32.39
651.272	33.03
651.461	32.77
651.65	32.75
651.838	33.09
652.027	33.29
652.216	33.46
652.404	33.63
652.593	34.12
652.781	34.34
652.97	34.77
653.158	35.26
653.347	34.65
653.535	34.49
653.724	34.45
653.912	33.81
654.101	33.95
654.289	33.53
654.478	33.59
654.666	33.26
654.855	32.95
655.043	32.73
655.231	32.61
655.42	32.92
655.608	32.44
655.796	32.25
655.985	32.65
656.173	32.66
656.361	32.61
656.55	32.61
656.738	32.26
656.926	32.67
657.114	32.79
657.302	32.6
657.491	32.55
657.679	32.82
657.867	33.68
658.055	33.63
658.243	33.88
658.431	33.92
658.619	33.89
658.807	34.06
658.996	33.63
659.184	33.71
659.372	34.06
659.56	34.19
659.748	34.46
659.936	34
660.124	33.66
660.311	33.2
660.499	33.67
660.687	33.5
660.875	33.59
661.063	33.84
661.251	33.53
661.439	33.39
661.627	33.49
661.814	33.64
662.002	33.59
662.19	34.11
662.378	34.13
662.565	33.78
662.753	34.29
662.941	34.21
663.129	34.39
663.316	34.39
663.504	34.32
663.692	34.19
663.879	33.71
664.067	33.74
664.254	33.88
664.442	33.96
664.63	34.23
664.817	33.77
665.005	33.92
665.192	33.68
665.38	33.9
665.567	34.1
665.755	33.83
665.942	34.14
666.13	34.61
666.317	34.5
666.504	34.7
666.692	33.98
666.879	34.32
667.067	34.27
667.254	34.41
667.441	34.1
667.629	33.7
667.816	33.99
668.003	33.75
668.19	33.52
668.378	33.47
668.565	33.22
668.752	33.91
668.939	34.23
669.127	34.12
669.314	34.11
669.501	34.49
669.688	34.65
669.875	34.72
670.062	34.51
670.249	34.57
670.436	34.52
670.623	34.57
670.81	34.38
670.997	34.06
671.184	34.31
671.371	34.39
671.558	34.13
671.745	34.51
671.932	34.07
672.119	34.62
672.306	34.96
672.493	34.46
672.68	34.38
672.867	34.45
673.054	33.95
673.24	33.41
673.427	33.31
673.614	33.33
673.801	33.03
673.988	33.61
674.174	33.55
674.361	33
674.548	33.34
674.734	33.42
674.921	33.56
675.108	33.7
675.294	34.75
675.481	34.58
675.668	35.18
675.854	35.13
676.041	34.72
676.227	34.49
676.414	34.34
676.601	34.54
676.787	34.61
676.974	34.48
677.16	34.31
677.347	33.63
677.533	33.7
677.719	33.82
677.906	34.05
678.092	34.08
678.279	34.35
678.465	34.64
678.651	34.39
678.838	34.25
679.024	34.34
679.21	34.47
679.397	34.54
679.583	34.48
679.769	33.87
679.955	33.95
680.142	33.78
680.328	33.31
680.514	33.1
680.7	33.26
680.886	33.58
681.073	33.63
681.259	33.62
681.445	33.51
681.631	33.71
681.817	33.94
682.003	33.95
682.189	34.66
682.375	35.19
682.561	35.45
682.747	35.35
682.933	34.97
683.119	34.15
683.305	34.22
683.491	34.66
683.677	34.84
683.863	34.58
684.049	34.37
684.235	33.72
684.42	34.01
684.606	33.84
684.792	33.84
684.978	33.94
685.164	34.15
685.349	34.48
685.535	34.45
685.721	34.01
685.907	34.31
686.092	34.39
686.278	35.25
686.464	34.49
686.649	34.49
686.835	34.08
687.021	34.24
687.206	34.51
687.392	33.97
687.577	34.19
687.763	34.33
687.948	34.34
688.134	33.99
688.319	33.33
688.505	33.46
688.69	33.35
688.876	34.04
689.061	34.06
689.247	34.17
689.432	34.39
689.618	34.15
689.803	34.15
689.988	34.28
690.174	34.85
690.359	35.17
690.544	35.68
690.73	36.12
690.915	35.69
691.1	35.69
691.285	35.64
691.471	35.61
691.656	35.92
691.841	36.21
692.026	35.88
692.211	35.23
692.396	34.52
692.582	34.32
692.767	33.81
692.952	33.82
693.137	34
693.322	34.24
693.507	34.15
693.692	33.07
693.877	32.62
694.062	32.49
694.247	33.36
694.432	33.83
694.617	33.77
694.802	33.9
694.987	33.53
695.172	33.57
695.357	33.4
695.541	33.18
695.726	33.41
695.911	33.8
696.096	34.49
696.281	34.08
696.466	33.83
696.65	33.96
696.835	34.4
697.02	35.3
697.204	35.26
697.389	35.11
697.574	35.42
697.759	35.35
697.943	35.03
698.128	34.63
698.312	34.96
698.497	35.02
698.682	35.12
698.866	35.01
699.051	34.79
699.235	34.61
699.42	34.91
699.604	34.78
699.789	35.03
699.973	35.11
700.158	35.35
700.342	35.21
700.527	35.44
700.711	35.06
700.895	35
701.08	34.59
701.264	34.59
701.448	34.46
701.633	34.58
701.817	34.88
702.001	35.14
702.186	35.14
702.37	34.66
702.554	34.29
702.738	34.66
702.923	34.91
703.107	35.3
703.291	35.32
703.475	35.25
703.659	35.54
703.843	34.66
704.027	34.78
704.212	34.67
704.396	34.69
704.58	35.03
704.764	34.55
704.948	34.63
705.132	34.64
705.316	34.89
705.5	35.05
705.684	34.63
705.868	35
706.052	34.61
706.235	34.52
706.419	34.91
706.603	34.83
706.787	35.01
706.971	34.13
707.155	33.95
707.339	33.81
707.522	33.64
707.706	33.76
707.89	34.05
708.074	33.57
708.257	33.45
708.441	33.14
708.625	32.67
708.808	32.92
708.992	33.28
709.176	33.41
709.359	33.78
709.543	33.77
709.727	34.18
709.91	34.04
710.094	35.06
710.277	35.17
710.461	35.19
710.644	35.44
710.828	34.14
711.011	33.88
711.195	34.14
711.378	33.45
711.562	33.25
711.745	32.93
711.928	32.87
712.112	33.06
712.295	33.6
712.478	33.95
712.662	34.16
712.845	35.34
713.028	35.4
713.212	35.22
713.395	35.28
713.578	35.27
713.761	35.29
713.945	35.55
714.128	35.08
714.311	34.54
714.494	34.5
714.677	34.28
714.86	33.83
715.043	34.12
715.227	34.26
715.41	34.32
715.593	34.64
715.776	34.47
715.959	34.53
716.142	33.95
716.325	33.76
716.508	33.89
716.691	34.03
716.874	33.91
717.057	33.54
717.239	34.06
717.422	35.11
717.605	34.81
717.788	35.08
717.971	34.53
718.154	34.87
718.337	35.06
718.519	34.56
718.702	34.15
718.885	34.99
719.068	35.11
719.25	33.95
719.433	32.93
719.616	33.27
719.798	33.17
719.981	34
720.164	33.43
720.346	33.16
720.529	32.77
720.712	33.32
720.894	32.84
721.077	33.1
721.259	33.61
721.442	34.17
721.624	33.4
721.807	34.31
721.989	33.07
722.172	33.64
722.354	33.71
722.537	34.25
722.719	34.75
722.901	35.31
723.084	35.31
723.266	35.09
723.448	34.95
723.631	35.38
723.813	34.3
723.995	34.96
724.178	35.57
724.36	35.15
724.542	34.4
724.724	33.28
724.907	32.73
725.089	31.52
725.271	31.83
725.453	31.96
725.635	32.44
725.817	32.65
725.999	33.02
726.181	32.3
726.364	33.47
726.546	33.79
726.728	33.91
726.91	34.13
727.092	34.69
727.274	34.05
727.456	33.82
727.638	33.24
727.819	33.43
728.001	33.04
728.183	33.16
728.365	32.63
728.547	32.73
728.729	33.02
728.911	32.69
729.093	33.4
729.274	33.66
729.456	34.24
729.638	35.16
729.82	35.18
730.001	34.94
730.183	34.54
730.365	34.21
730.546	35.14
730.728	34.52
730.91	35.17
731.091	34.94
731.273	35.1
731.455	34.61
731.636	33.45
731.818	33.23
731.999	33.24
732.181	33.92
732.362	34.77
732.544	34.33
732.725	34.98
732.907	34.44
733.088	34.43
733.27	34.26
733.451	33.12
733.633	32.5
733.814	33.23
733.995	33.68
734.177	33.13
734.358	32.49
734.539	31.97
734.721	32.69
734.902	32.72
735.083	32.56
735.264	33.52
735.446	34.37
735.627	35.04
735.808	33.54
735.989	32.99
736.17	33.02
736.351	33.09
736.533	34.03
736.714	33.52
736.895	33.85
737.076	34.55
737.257	32.94
737.438	33.2
737.619	33.51
737.8	34.17
737.981	34.72
738.162	35.35
738.343	35.01
738.524	34.37
738.705	32.82
738.886	32.49
739.067	31.26
739.247	32.03
739.428	32.68
739.609	32.55
739.79	32.81
739.971	32.88
740.151	32.37
740.332	32.95
740.513	33.26
740.694	34.31
740.874	33.76
741.055	33.39
741.236	33.49
741.417	33.68
741.597	34.41
741.778	34.12
741.958	34.69
742.139	34.65
742.32	33.73
742.5	33.51
742.681	33.45
742.861	33.94
743.042	35.62
743.222	35.72
743.403	35.35
743.583	36.8
743.764	35.92
743.944	35.4
744.124	35.24
744.305	35.63
744.485	35.85
744.666	36.11
744.846	36.04
745.026	35.98
745.207	35.05
745.387	35.12
745.567	32.58
745.747	32.95
745.928	32.48
746.108	32.53
746.288	31.97
746.468	31.64
746.648	31.45
746.829	32.79
747.009	32.59
747.189	32.88
747.369	32.61
747.549	33.99
747.729	34.49
747.909	34.42
748.089	35.99
748.269	36.21
748.449	35.75
748.629	36.83
748.809	36.34
748.989	36.07
749.169	37
749.349	36.41
749.529	35.27
749.709	36.24
749.889	36.76
750.068	35.46
750.248	36.08
750.428	36.33
750.608	35.84
750.788	36.77
750.967	36.88
751.147	35.54
751.327	35.8
751.507	36.32
751.686	34.85
751.866	34.83
752.046	34.02
752.225	34.14
752.405	34.51
752.585	34.1
752.764	32.68
752.944	33.12
753.123	32.92
753.303	32.27
753.482	30.65
753.662	31.63
753.841	30.63
754.021	31.54
754.2	31.05
754.38	29.81
754.559	29.71
754.739	29.91
754.918	28.63
755.097	29.81
755.277	29.3
755.456	31.92
755.635	30.87
755.815	31.31
755.994	31.48
756.173	31.85
756.352	32.8
756.532	32.67
756.711	32.65
756.89	33.54
757.069	33.78
757.248	34.35
757.427	34.08
757.607	33.51
757.786	34.18
757.965	34.41
758.144	34.22
758.323	34.13
758.502	34.58
758.681	34.75
758.86	35.08
759.039	35.17
759.218	36.02
759.397	36.47
759.576	36.57
759.755	36.06
759.934	36.71
760.113	37.4
760.291	37.98
760.47	37.3
760.649	37.06
760.828	36.97
761.007	36.46
761.186	35.86
761.364	35.21
761.543	36.94
761.722	36.24
761.901	35.93
762.079	36.41
762.258	36
762.437	36.95
762.615	37.11
762.794	37.19
762.972	36.42
763.151	36.28
763.33	35.76
763.508	35.17
763.687	35.93
763.865	35.15
764.044	34.13
764.222	33.36
764.401	31.96
764.579	31.68
764.758	31.89
764.936	31.62
765.114	31.51
765.293	31.58
765.471	31.35
765.65	30.63
765.828	30.68
766.006	30.43
766.184	30.74
766.363	31.99
766.541	31.81
766.719	30.95
766.898	32.05
767.076	32.73
767.254	32.05
767.432	32.02
767.61	33.13
767.788	32.37
767.967	31.76
768.145	31.71
768.323	31.02
768.501	31.47
768.679	32.06
768.857	30.29
769.035	29.94
769.213	30.87
769.391	29.49
769.569	27.84
769.747	28.44
769.925	30.64
770.103	29.57
770.281	29.59
770.459	29.44
770.636	29.53
770.814	32.11
770.992	30.45
771.17	31.5
771.348	33.02
771.525	34.32
771.703	34.48
771.881	32.38
772.059	34.44
772.236	36.41
772.414	36.26
772.592	35.61
772.769	34.21
772.947	35.22
773.125	33.25
773.302	32.66
773.48	30.65
773.657	29.1
773.835	30.67
774.013	30.52
774.19	30.9
774.368	31.09
774.545	30.63
774.723	32.36
774.9	31.56
775.077	31.78
775.255	31.22
775.432	30.95
775.61	33.7
775.787	32.83
775.964	32.63
776.142	29.81
776.319	30.27
776.496	31.14
776.674	29.55
776.851	30.91
777.028	32.04
777.205	33.37
777.382	35.97
777.56	34.24
777.737	32.9
777.914	32.26
778.091	32.89
778.268	31.45
778.445	30.51
778.622	30.26
778.8	30.08
778.977	28.94
779.154	48.07
779.331	46.78
779.508	47.49
779.685	48.79
779.862	50.54
780.038	51.49
780.215	51.02
780.392	50.29
780.569	49.91
780.746	49.88
780.923	49.24
781.1	27.68
781.277	29.44
781.453	29.09
781.63	27.35
781.807	26.71
781.984	27.46
782.16	28.95
782.337	29.94
782.514	31.18
782.691	33.28
782.867	33.59
783.044	33.79
783.221	33.22
783.397	33.82
783.574	35.68
783.75	34.13
783.927	29.52
784.103	29.11
784.28	29.63
784.456	29.47
784.633	29.53
784.809	30.73
784.986	31.54
785.162	29.24
785.339	27.5
785.515	25.98
785.692	28.05
785.868	31.67
786.044	30.81
786.221	28.57
786.397	28.16
786.573	26.3
786.749	26
786.926	24.17
787.102	24.33
787.278	26.37
787.454	28.92
787.631	28.49
787.807	29.4
787.983	29.52
788.159	31.16
788.335	30.99
788.511	32.68
788.687	32.5
788.863	33.62
789.039	34.71
789.216	34.08
789.392	34.27
789.568	32.08
789.744	30.93
789.919	30.6
790.095	31.19
790.271	31.11
790.447	30.03
790.623	30.74
790.799	31.27
790.975	32.01
791.151	32.21
791.327	30.75
791.502	32.28
791.678	31.33
791.854	32.79
792.03	31.55
792.205	33.27
792.381	33.15
792.557	33.52
792.733	34.65
792.908	33.83
793.084	32.16
793.259	33.16
793.435	31.68
793.611	32.62
793.786	29.1
793.962	30.41
794.137	28.71
794.313	26.27
794.488	22.37
794.664	21.69
794.839	21.36
795.015	24.24
795.19	24.34
795.366	24.86
795.541	26.56
795.716	27.5
795.892	24.79
796.067	22.78
796.242	25.2
796.418	28.21
796.593	26.41
796.768	24.9
796.944	22.77
797.119	20.59
797.294	21.27
797.469	22.08
797.644	23.93
797.82	26.55
797.995	28.92
798.17	27.57
798.345	27.65
798.52	26.39
798.695	28.75
798.87	29.36
799.045	31.58
799.22	33.44
799.395	31.33
799.57	30.93
799.745	29.44
799.92	31.3
800.095	30.74
800.27	29.83
800.445	33.26
800.62	33.78
800.795	33.71
800.97	32.88
801.145	29.61
801.319	30.05
801.494	29.27
801.669	29.4
801.844	28.02
802.018	28.87
802.193	30.3
802.368	28.34
802.543	25.81
802.717	25.55
802.892	24.28
803.067	25.79
803.241	25.37
803.416	27.13
803.59	25.14
803.765	22.97
803.94	23.47
804.114	23.75
804.289	22.17
804.463	24.95
804.638	23.26
804.812	25.51
804.986	25.53
805.161	24.67
805.335	21.89
805.51	25.43
805.684	24.66
805.858	24.78
806.033	23.77
806.207	25.87
806.381	24.58
806.556	27.96
806.73	25.3
806.904	25.32
807.078	26.85
807.253	28.55
807.427	26.88
807.601	26.36
807.775	26.83
807.949	27.57
808.123	27.33
808.298	23.99
808.472	23.14
808.646	25.8
808.82	24.98
808.994	26.55
809.168	24.25
809.342	22.5
809.516	23.86
809.69	20.01
809.864	19.51
810.038	16.9
810.212	21.38
810.385	19.97
810.559	18.94
810.733	16.11
810.907	9.69
811.081	13.3
811.255	14.32
811.428	17.4
811.602	22.08
811.776	17.91
811.95	16.83
812.123	17.91
812.297	20.69
812.471	23.2
812.644	27.6
812.818	31.33
812.992	33.43
813.165	34.04
813.339	34.57
813.512	34.54
813.686	38.2
813.86	39.19
814.033	38.53
814.207	37.82
814.38	38.63
814.554	36.54
814.727	32.07
814.9	28.99
815.074	29.23
815.247	28.33
815.421	30.07
815.594	27.78
815.767	28.53
815.941	24.5
816.114	25.96
816.287	21.46
816.46	23.29
816.634	26.7
816.807	26.58
816.98	27.49
817.153	27.88
817.327	23.61
817.5	23.76
817.673	28.78
817.846	31.23
818.019	30.65
818.192	31.49
818.365	29.43
818.538	32.14
818.711	30.82
818.884	32.44
819.057	31.35
819.23	34.43
819.403	34.4
819.576	31.94
819.749	31.09
819.922	29.56
820.095	28.94
820.268	29.03
820.441	29.98
820.614	30.59
820.786	29.83
820.959	29.65
821.132	29.65
821.305	28.97
821.477	30.37
821.65	31.97
821.823	32.61
821.996	32.4
822.168	32.72
822.341	32.85
822.514	33.99
822.686	33.48
822.859	33.43
823.031	34.36
823.204	35.48
823.376	35.86
823.549	35.82
823.722	35.91
823.894	36.38
824.067	36.74
824.239	36.42
824.411	35.81
824.584	37.15
824.756	38.15
824.929	37.49
825.101	36.81
825.273	36.02
825.446	35.85
825.618	36.31
825.79	36.83
825.963	36.98
826.135	37.05
826.307	37.74
826.479	36.81
826.652	36.26
826.824	36.05
826.996	36.95
827.168	37.15
827.34	36.53
827.512	36.53
827.684	35.87
827.856	36.68
828.029	37.61
828.201	37.12
828.373	36.55
828.545	36.65
828.717	37.24
828.889	37.34
829.061	37.93
829.232	37.96
829.404	35.92
829.576	35.5
829.748	34.29
829.92	32.12
830.092	32.81
830.264	32.26
830.436	31.26
830.607	28.84
830.779	28.63
830.951	27.23
831.123	26.75
831.294	29.63
831.466	29.34
831.638	27.17
831.809	28.48
831.981	26.4
832.153	29.87
832.324	30.75
832.496	33.22
832.667	29.48
832.839	28.86
833.011	33.35
833.182	31.19
833.354	33.2
833.525	34.1
833.697	32.98
833.868	33.22
834.039	29.55
834.211	29.24
834.382	28.54
834.554	29.92
834.725	30.18
834.896	28.27
835.068	29.44
835.239	28.36
835.41	28.73
835.581	30.83
835.753	29.91
835.924	32.29
836.095	32.67
836.266	33.64
836.438	35.8
836.609	35.63
836.78	36.55
836.951	34.69
837.122	35.12
837.293	35.96
837.464	33.91
837.635	36.31
837.806	35.23
837.977	34.2
838.148	35.02
838.319	31.38
838.49	31.68
838.661	29.74
838.832	31.52
839.003	30.63
839.174	26.14
839.345	26.15
839.516	24.42
839.687	23.13
839.857	23.65
840.028	15.68
840.199	17.36
840.37	16.01
840.54	17.59
840.711	17.18
840.882	19.43
841.053	21.16
841.223	17.76
841.394	14.38
841.564	14.11
841.735	12.41
841.906	10.45
842.076	8.95
842.247	7.32
842.417	-0.83
842.588	-6.73
842.758	-9.36
842.929	-8.56
843.099	-4.7
843.27	4.56
843.44	3.96
843.611	9.51
843.781	6.15
843.951	6.3
844.122	9.26
844.292	17.31
844.462	19.14
844.633	15.96
844.803	13.22
844.973	11.19
845.144	11.19
845.314	11.33
845.484	6.18
845.654	10.34
845.824	3.11
845.995	5.15
846.165	3.2
846.335	12.14
846.505	11.97
846.675	12.9
846.845	9.78
847.015	-5.03
847.185	4.49
847.355	5.34
847.525	0.44
847.695	-0.16
847.865	-0.56
848.035	2.37
848.205	-12.78
848.375	-14.73
848.545	-22.57
848.715	-4.36
848.884	-0.1
849.054	-13.62
849.224	-9.45
849.394	7.41
849.564	11.26
849.733	5.72
849.903	8.27
850.073	11.73
850.243	10.15
850.412	14.85
850.582	-5.65
850.752	-25.01
850.921	-23.92
851.091	-26.08
851.26	-34.95
851.43	-59.28
851.599	-37.89
851.769	-38.88
851.939	-34.27
852.108	-38.65
852.278	-10.49
852.447	-10.89
852.616	7.81
852.786	16.1
852.955	19.47
853.125	25.04
853.294	41.65
853.463	47.68
853.633	17.69
853.802	24.15
853.971	30.84
854.141	6.6
854.31	15.26
854.479	2.34
854.648	11.49
854.818	2.68
854.987	-13.57
855.156	-26.19
855.325	-34.93
855.494	-13.26
855.663	-10.9
855.832	-9.33
856.001	-5.51
856.171	-3.08
856.34	0.85
856.509	-6.63
856.678	-1.13
856.847	18.59
857.016	47.4
857.185	59.28
857.353	62.38
857.522	44.58
857.691	30.37
857.86	35.47
858.029	30.29
858.198	30.02
858.367	14.29
858.535	8.38
858.704	5.35
858.873	-17
859.042	-40.78
859.21	-63.71
859.379	-46.84
859.548	-31.24
859.717	-28.64
859.885	-24.65
860.054	-9.38
860.222	12.17
860.391	18.34
860.56	15.22
860.728	12.48
860.897	17.84
861.065	11.52
861.234	17.92
861.402	15.62
861.571	14.06
861.739	15.4
861.908	2.75
862.076	-2.93
862.244	6.43
862.413	9.65
862.581	-0.82
862.749	-6.41
862.918	-12.07
863.086	-26.28
863.254	-21.08
863.423	-50.06
863.591	-22.69
863.759	-41.21
863.927	-23.15
864.096	-38.89
864.264	-124.93
864.432	-77.85
864.6	-87.07
864.768	-46.49
864.936	-23.88
865.104	-33.75
865.272	-28.98
865.44	-40.52
865.608	-29.95
865.776	-65.79
865.944	-75.61
866.112	-40.48
866.28	-22.95
866.448	-21.83
866.616	-25.65
866.784	-35.36
866.952	-29.01
867.12	-33.99
867.288	-41.5
867.455	-32.94
867.623	-10.74
867.791	15.27
867.959	0.13
868.127	-33.02
868.294	-5.99
868.462	-3.65
868.63	-6.96
868.797	-6.63
868.965	1.31
869.133	-4.14
869.3	-0.77
869.468	9.08
869.636	-2.89
869.803	8.98
869.971	8.53
870.138	-7.93
870.306	-4.31
870.473	2.56
870.641	0.83
870.808	5.52
870.975	9.76
871.143	5
871.31	-18.32
871.478	-20.5
871.645	-32.21
871.812	-16.52
871.98	-11.97
872.147	-23.2
872.314	-23.93
872.482	-34.52
872.649	-42.78
872.816	-20.86
872.983	-13.1
873.15	-8.58
873.318	7.09
873.485	9.25
873.652	-9.05
873.819	-4.59
873.986	-20.15
874.153	-22.93
874.32	-26.35
874.487	-36.5
874.654	-41.58
874.821	-51.94
874.988	-44.07
875.155	-55.05
875.322	-52.39
875.489	-36.2
875.656	-39.47
875.823	-17.78
875.99	-10.57
876.157	-1.08
876.324	-7.12
876.49	-15.24
876.657	-18.33
876.824	-26.78
876.991	-25.6
877.157	-15.55
877.324	-17.73
877.491	-26.63
877.658	-30.42
877.824	-40.21
877.991	-47.84
878.157	-32.75
878.324	-18.24
878.491	-34.54
878.657	-11.35
878.824	-7.31
878.99	-18.1
879.157	-29.58
879.323	-9.61
879.49	4.92
879.656	12.03
879.823	12.1
879.989	13.69
880.156	0.69
880.322	8.71
880.488	8.15
880.655	9.46
880.821	10.95
880.987	18.9
881.154	17.06
881.32	23.5
881.486	21.55
881.652	28.37
881.819	26.25
881.985	30.39
882.151	35.22
882.317	34.76
882.483	36.92
882.649	35.56
882.816	36.28
882.982	37.97
883.148	35.34
883.314	35.58
883.48	35.3
883.646	36.21
883.812	35.14
883.978	33.04
884.144	31.77
884.31	30.14
884.476	32.33
884.642	32.77
884.807	33.34
884.973	32.66
885.139	32.73
885.305	31.26
885.471	30.85
885.637	33.61
885.802	34.12
885.968	35.22
886.134	36.8
886.3	34.9
886.465	32.07
886.631	29.13
886.797	28.59
886.962	27
887.128	30.65
887.293	28.87
887.459	24.24
887.625	22.07
887.79	20.4
887.956	17.54
888.121	13.3
888.287	15.22
888.452	18.26
888.618	16.53
888.783	17.02
