Data from CB_010_Reflection_2.txt Node
Date: Wed Nov 11 18:43:53 EST 2015
User: robert
Spectrometer: USB4E03001
Autoset integration time: false
Trigger mode: 4
Integration Time (sec): 1.000000E-1
Scans to average: 15
Electric dark correction enabled: true
Nonlinearity correction enabled: false
Boxcar width: 5
Stray light correction enabled: false
XAxis mode: Wavelengths
Stop averaging: false
Number of Pixels in Spectrum: 3648
>>>>>Begin Spectral Data<<<<<
177.566	-4.1
177.785	-10.32
178.005	28.6
178.225	492.05
178.445	47.17
178.665	-212.03
178.885	3.71
179.105	64.8
179.324	20.01
179.544	29.53
179.764	26.5
179.984	49.05
180.204	-36.22
180.423	186.39
180.643	340.93
180.863	-411.43
181.083	-1707.44
181.302	-277.24
181.522	248.8
181.742	-84.57
181.961	209.85
182.181	130.09
182.401	220.8
182.621	1329.8
182.84	234.45
183.06	237.98
183.279	281.89
183.499	768.3
183.719	790.84
183.938	456.02
184.158	1014.02
184.377	-1192.93
184.597	-215.45
184.816	-106.92
185.036	-364.12
185.256	-125.69
185.475	557.51
185.695	-6172.41
185.914	191.23
186.134	108.28
186.353	137.18
186.572	178.82
186.792	103.89
187.011	85.58
187.231	79.9
187.45	42.04
187.67	36.35
187.889	160.76
188.108	215.26
188.328	440.19
188.547	-305.28
188.766	-405.05
188.986	238.28
189.205	-21868.18
189.424	502.19
189.644	1590.91
189.863	155.08
190.082	155.53
190.302	125.34
190.521	31.29
190.74	27.57
190.959	27.95
191.178	40.56
191.398	41.44
191.617	31.93
191.836	30.94
192.055	34.53
192.274	19.37
192.494	3.55
192.713	28.63
192.932	48.11
193.151	43.2
193.37	71.83
193.589	56.32
193.808	74.02
194.027	74.75
194.246	109.69
194.465	121.87
194.685	108.36
194.904	141.18
195.123	292.06
195.342	1000
195.561	136.8
195.78	70.34
195.999	94.01
196.218	108.51
196.436	60.68
196.655	1056.2
196.874	-184.27
197.093	-25.12
197.312	-77.63
197.531	137.79
197.75	18.83
197.969	-1.88
198.188	-10.13
198.407	-2.01
198.625	-89.26
198.844	-158.32
199.063	-195.57
199.282	-162.28
199.501	-33.05
199.719	-28.41
199.938	-944.92
200.157	151.56
200.376	98.56
200.594	145.65
200.813	-3680
201.032	217.64
201.251	123.63
201.469	190.46
201.688	174.33
201.907	199.13
202.125	190.41
202.344	133.92
202.563	148.08
202.781	205.14
203	151.32
203.218	112.33
203.437	106.98
203.656	84.5
203.874	50.2
204.093	71.41
204.311	40.9
204.53	28.45
204.748	-2.43
204.967	-23.33
205.185	-19.89
205.404	7.9
205.622	33.66
205.841	45.34
206.059	37.68
206.278	95.81
206.496	52.54
206.715	76.38
206.933	200.23
207.151	166.24
207.37	152.11
207.588	170.84
207.806	300.55
208.025	249.5
208.243	186.14
208.461	72.84
208.68	87.11
208.898	116.12
209.116	153.87
209.335	75.27
209.553	-91.59
209.771	206.66
209.989	-1893.91
210.208	-582.9
210.426	-233.86
210.644	-129.73
210.862	-120.33
211.081	-60.32
211.299	-60.1
211.517	-198.67
211.735	-184.92
211.953	-285.53
212.171	0.86
212.39	-79.41
212.608	-812.89
212.826	279.89
213.044	168.65
213.262	103.33
213.48	136.25
213.698	166.61
213.916	-115.98
214.134	-97.38
214.352	-505.48
214.57	371.91
214.788	149.33
215.006	86.61
215.224	59.1
215.442	41.12
215.66	76.54
215.878	93.42
216.096	102.36
216.314	105.77
216.532	108.33
216.75	99.24
216.968	84.57
217.185	106.67
217.403	156.5
217.621	168.05
217.839	198.25
218.057	3253.77
218.275	-641.81
218.492	-76.98
218.71	-16.03
218.928	-75.98
219.146	-8.66
219.363	-35.78
219.581	-96.85
219.799	-95.97
220.017	-80.02
220.234	-66.11
220.452	-49.95
220.67	-66.08
220.887	-101.19
221.105	-53.83
221.323	-39.1
221.54	3.07
221.758	46.87
221.976	76.98
222.193	61.24
222.411	25.64
222.629	47.98
222.846	19.36
223.064	49.82
223.281	42.5
223.499	14.15
223.716	33.7
223.934	-27.69
224.151	-340.15
224.369	-190.87
224.586	70875
224.804	381.83
225.021	29.38
225.239	54.97
225.456	28.87
225.674	-24.01
225.891	73.24
226.108	74.75
226.326	32.03
226.543	43.51
226.76	25.95
226.978	17.33
227.195	4.87
227.413	5.42
227.63	-0.63
227.847	-5.71
228.064	-0.46
228.282	-1.95
228.499	2.05
228.716	7.3
228.934	7.6
229.151	8.4
229.368	8.98
229.585	9.28
229.802	12.55
230.02	13.88
230.237	17.5
230.454	19.57
230.671	18.61
230.888	14.38
231.105	11.65
231.323	13.8
231.54	18.49
231.757	20.53
231.974	19.29
232.191	13.13
232.408	12.61
232.625	8.97
232.842	6.58
233.059	10.64
233.276	23.18
233.493	27.3
233.71	23.02
233.927	20.33
234.144	20.84
234.361	17.07
234.578	16.74
234.795	17.27
235.012	14.14
235.229	16.06
235.446	7.23
235.663	-5.74
235.879	-2.07
236.096	1.13
236.313	-10.95
236.53	-11.57
236.747	-5.8
236.964	2.33
237.181	-1.11
237.397	10.97
237.614	12.44
237.831	15.68
238.048	13.27
238.264	10.49
238.481	7.29
238.698	17.12
238.915	7.25
239.131	4.02
239.348	-2.64
239.565	1.74
239.781	-4.69
239.998	-6.09
240.215	-2.75
240.431	0.22
240.648	1.24
240.865	5.16
241.081	3.46
241.298	5.48
241.514	5.39
241.731	6.69
241.947	7.01
242.164	7.42
242.38	7.23
242.597	6.88
242.814	6.61
243.03	6.06
243.246	5.91
243.463	6.75
243.679	7.62
243.896	9.03
244.112	6.86
244.329	6.45
244.545	8.05
244.762	9.33
244.978	10.56
245.194	8.8
245.411	9.11
245.627	8
245.843	8.18
246.06	8.22
246.276	8.01
246.492	10.42
246.709	10.92
246.925	10.41
247.141	9.94
247.357	9.28
247.574	9.82
247.79	9.64
248.006	9.18
248.222	9.29
248.439	9.5
248.655	10.87
248.871	10.31
249.087	10.74
249.303	10.12
249.519	9.85
249.736	8.56
249.952	8.74
250.168	6.28
250.384	5.4
250.6	5.13
250.816	4.62
251.032	2.16
251.248	0.78
251.464	-0.48
251.68	-2.34
251.896	-0.39
252.112	1.97
252.328	4.14
252.544	6.28
252.76	7.44
252.976	7.08
253.192	7.44
253.408	6.67
253.624	8.36
253.84	8.33
254.056	10.26
254.272	8.43
254.487	11.11
254.703	9.23
254.919	10.01
255.135	9.97
255.351	11.59
255.567	11.03
255.782	10.75
255.998	9.26
256.214	10
256.43	10.9
256.646	10.5
256.861	5.77
257.077	2.72
257.293	1.72
257.508	0.85
257.724	-1.87
257.94	-1.58
258.155	-1.55
258.371	0.33
258.587	-0.78
258.802	-1.59
259.018	-0.33
259.234	1.24
259.449	2.2
259.665	2.17
259.88	2.44
260.096	3
260.312	3.36
260.527	4.03
260.743	3.39
260.958	4.39
261.174	4.44
261.389	3.8
261.605	3.4
261.82	4.69
262.036	4.63
262.251	4.42
262.466	4.33
262.682	3.78
262.897	3.69
263.113	1.64
263.328	-1.41
263.543	-0.1
263.759	0.33
263.974	-0.1
264.189	-3.42
264.405	-3.88
264.62	-3.82
264.835	-3.28
265.051	-1.74
265.266	-4.32
265.481	0.04
265.696	1.4
265.912	0.81
266.127	0.92
266.342	0.44
266.557	-0.32
266.773	-0.77
266.988	-0.75
267.203	-3.06
267.418	-3.96
267.633	-3.71
267.848	-3.39
268.064	-2.35
268.279	-3.26
268.494	-3.69
268.709	-2.68
268.924	-1.32
269.139	-0.03
269.354	0.3
269.569	3.1
269.784	4.21
269.999	5.34
270.214	3.33
270.429	1.92
270.644	2.21
270.859	2.91
271.074	3.83
271.289	4.13
271.504	4.07
271.719	3.52
271.934	3.41
272.149	2.55
272.363	2.39
272.578	2.72
272.793	4.52
273.008	3.91
273.223	4.6
273.438	4.08
273.653	4.45
273.867	4.86
274.082	5.58
274.297	5.47
274.512	4.84
274.726	5.94
274.941	6.14
275.156	5.7
275.371	7.12
275.585	5.56
275.8	5.76
276.015	4.37
276.229	2.29
276.444	3.14
276.659	1.18
276.873	1.38
277.088	-0.1
277.302	0.59
277.517	-0.31
277.732	-2.91
277.946	-3.94
278.161	-3.88
278.375	-2.56
278.59	-2.08
278.804	-2.14
279.019	0.25
279.233	1.22
279.448	1.86
279.662	0.24
279.877	0.29
280.091	3.01
280.306	5.12
280.52	4.81
280.735	4.22
280.949	6.79
281.163	6.65
281.378	5.59
281.592	5.13
281.806	5.13
282.021	5.47
282.235	5.61
282.449	5.33
282.664	4.52
282.878	3.77
283.092	5.76
283.307	4.62
283.521	4.49
283.735	6.42
283.949	6.11
284.164	5.81
284.378	7.41
284.592	7.68
284.806	7.67
285.02	7.52
285.234	7.73
285.449	6.25
285.663	5.55
285.877	5.02
286.091	3.33
286.305	4.02
286.519	4.13
286.733	3.22
286.947	3.1
287.161	2.92
287.375	2.77
287.589	2.9
287.803	4.06
288.017	4.05
288.231	4.19
288.445	5.73
288.659	5.61
288.873	5.27
289.087	4.5
289.301	3.96
289.515	3.28
289.729	3.65
289.943	3.72
290.157	1.96
290.371	2.43
290.584	3.34
290.798	3.17
291.012	3.45
291.226	4.2
291.44	4.28
291.654	4.75
291.867	6.38
292.081	5.72
292.295	5.27
292.509	6.95
292.722	6.52
292.936	5.33
293.15	5.17
293.364	4.88
293.577	4.9
293.791	6.57
294.005	6.84
294.218	6.34
294.432	6.33
294.645	7
294.859	6.66
295.073	7.25
295.286	7.11
295.5	7.12
295.713	7
295.927	6.88
296.14	6.91
296.354	6.67
296.568	6.29
296.781	6.91
296.994	5.93
297.208	6.01
297.421	7.02
297.635	7.83
297.848	7.81
298.062	8.69
298.275	9.05
298.489	8.58
298.702	9.26
298.915	9.66
299.129	9.2
299.342	10.67
299.555	10.2
299.769	9.74
299.982	9.89
300.195	10.79
300.409	10.01
300.622	10.18
300.835	9.35
301.048	8.29
301.262	8.21
301.475	9.17
301.688	9.75
301.901	10.54
302.115	11.13
302.328	10.49
302.541	9.39
302.754	9.41
302.967	8.82
303.18	10.51
303.393	11.46
303.607	11.8
303.82	11.47
304.033	11.13
304.246	11.19
304.459	9.36
304.672	9.77
304.885	9.57
305.098	10.18
305.311	10.69
305.524	9.03
305.737	8.12
305.95	8.82
306.163	10.19
306.376	10.84
306.589	11
306.802	11.91
307.015	11.18
307.228	12.09
307.44	12.2
307.653	12.01
307.866	12.61
308.079	13.53
308.292	12.63
308.505	13
308.718	11.63
308.93	10.39
309.143	10.72
309.356	10.81
309.569	10.57
309.781	9.16
309.994	7.75
310.207	8.41
310.42	7.89
310.632	8
310.845	7.45
311.058	7.91
311.27	8.77
311.483	7.88
311.696	8.32
311.908	8.18
312.121	9.19
312.333	10.41
312.546	11.4
312.759	11.65
312.971	11.18
313.184	10.18
313.396	10.83
313.609	11.04
313.821	12.64
314.034	13.66
314.246	14.3
314.459	13.39
314.671	14.47
314.884	13.97
315.096	14.32
315.309	14.16
315.521	14.97
315.733	13.56
315.946	13.49
316.158	12.09
316.371	10.05
316.583	8.03
316.795	9.18
317.008	8.06
317.22	7.94
317.432	7.3
317.644	8.2
317.857	8.08
318.069	8.66
318.281	7.78
318.494	8.06
318.706	8.19
318.918	9.33
319.13	8.18
319.342	8.39
319.555	7.5
319.767	7.45
319.979	7.87
320.191	7.17
320.403	6.7
320.615	6.69
320.827	6.27
321.039	7.2
321.252	7.72
321.464	7.96
321.676	6.43
321.888	7.67
322.1	7.97
322.312	7.68
322.524	9.51
322.736	10.74
322.948	10.98
323.16	12.56
323.372	12.4
323.584	12.41
323.796	12.65
324.007	13.32
324.219	13.33
324.431	13.87
324.643	13.48
324.855	12.37
325.067	12.1
325.279	12.57
325.491	12.1
325.702	13.04
325.914	13.19
326.126	13.62
326.338	13.31
326.55	13.7
326.761	13.04
326.973	13.77
327.185	14.02
327.396	14.03
327.608	14.47
327.82	15.03
328.032	14.75
328.243	14.05
328.455	14.09
328.666	14.69
328.878	13.47
329.09	13.33
329.301	12.87
329.513	13.93
329.725	13.78
329.936	12.52
330.148	12.51
330.359	12.1
330.571	12.98
330.782	13.94
330.994	14.89
331.205	14.92
331.417	16.56
331.628	17.29
331.84	16.77
332.051	17.77
332.262	18.15
332.474	18.15
332.685	19.13
332.897	19.61
333.108	18.39
333.319	18.79
333.531	19.5
333.742	18.2
333.953	18.98
334.165	18.21
334.376	16.72
334.587	17.98
334.799	17.25
335.01	16.57
335.221	16.81
335.432	18.22
335.644	17.5
335.855	16.93
336.066	17.94
336.277	17.03
336.488	18.35
336.7	19.22
336.911	19.23
337.122	19.3
337.333	19.84
337.544	19.23
337.755	18.01
337.966	17.63
338.177	17.34
338.388	16.64
338.599	16.52
338.811	16.65
339.022	16.67
339.233	16.53
339.444	17.63
339.655	17.7
339.866	18.33
340.076	18.76
340.287	18.66
340.498	20.26
340.709	20.79
340.92	21.03
341.131	20.18
341.342	20.38
341.553	18.99
341.764	17.67
341.975	16.55
342.185	16.1
342.396	15.93
342.607	16.66
342.818	14.72
343.029	14.16
343.239	14.25
343.45	14.84
343.661	14.3
343.872	15.14
344.082	15.2
344.293	15.66
344.504	16.51
344.714	16.64
344.925	16.48
345.136	17.45
345.346	18.46
345.557	18.8
345.768	18.83
345.978	19.26
346.189	19.12
346.399	20.26
346.61	20.58
346.821	19.22
347.031	19.41
347.242	19.41
347.452	19.4
347.663	17.65
347.873	17.72
348.084	16.7
348.294	16.93
348.504	17.35
348.715	16.55
348.925	16.24
349.136	16.05
349.346	15.58
349.557	15.86
349.767	15.78
349.977	16.14
350.188	16.08
350.398	16.67
350.608	16.39
350.819	16.48
351.029	16.27
351.239	16.63
351.449	16.44
351.66	16.58
351.87	16.76
352.08	17.37
352.29	17.89
352.501	17.5
352.711	17.65
352.921	17.26
353.131	16.91
353.341	17.32
353.552	17.52
353.762	18.7
353.972	18.95
354.182	18.97
354.392	18.33
354.602	17.38
354.812	17.19
355.022	17.48
355.232	17.73
355.442	17.05
355.652	17.28
355.862	16.86
356.072	16.7
356.282	16.69
356.492	16.26
356.702	16.25
356.912	16.93
357.122	16.5
357.332	16.11
357.542	16.06
357.752	16.57
357.962	16.54
358.171	16.7
358.381	16.04
358.591	16.28
358.801	16.07
359.011	16.05
359.221	15.88
359.43	16.16
359.64	16.15
359.85	16.87
360.06	17.26
360.269	17.24
360.479	16.56
360.689	16.81
360.899	17.12
361.108	17.53
361.318	17.59
361.528	17.71
361.737	17.65
361.947	17.59
362.156	16.97
362.366	16.88
362.576	16.38
362.785	16.14
362.995	16.43
363.204	15.82
363.414	15.13
363.623	15.2
363.833	15.36
364.042	15.66
364.252	16.07
364.461	16.43
364.671	16.2
364.88	16.19
365.09	16.29
365.299	16.62
365.509	16.2
365.718	16.74
365.927	16.06
366.137	15.94
366.346	15.45
366.555	14.42
366.765	14.34
366.974	13.91
367.183	13.96
367.393	14.44
367.602	13.37
367.811	13.77
368.021	13.82
368.23	14.17
368.439	13.9
368.648	14.09
368.857	14.52
369.067	13.69
369.276	14.6
369.485	14.85
369.694	15.29
369.903	15.29
370.112	15.01
370.321	14.28
370.531	14.36
370.74	13.77
370.949	13.49
371.158	13.45
371.367	13.68
371.576	13.08
371.785	12.68
371.994	12.35
372.203	12.68
372.412	13.3
372.621	14.46
372.83	14.76
373.039	15.42
373.248	15.96
373.457	15.46
373.666	15.94
373.874	15.84
374.083	16.4
374.292	16.06
374.501	16.23
374.71	15.41
374.919	14.84
375.128	14.5
375.336	13.96
375.545	13.22
375.754	13.32
375.963	12.42
376.171	12.63
376.38	12.56
376.589	12.76
376.798	12.11
377.006	12.21
377.215	12.23
377.424	12.34
377.632	12.53
377.841	12.6
378.05	12.14
378.258	12.03
378.467	11.55
378.675	11.14
378.884	10.83
379.093	10.82
379.301	11.44
379.51	11.14
379.718	10.62
379.927	10.74
380.135	10.48
380.344	11.1
380.552	11.79
380.761	12.38
380.969	12.14
381.177	12.44
381.386	12.51
381.594	11.91
381.803	11.34
382.011	11.57
382.219	11.31
382.428	11.28
382.636	11.49
382.845	10.92
383.053	10.91
383.261	10.81
383.469	11.05
383.678	11.3
383.886	11.14
384.094	11.55
384.302	11.4
384.511	11.29
384.719	11.67
384.927	11.82
385.135	11.75
385.343	11.12
385.552	11.37
385.76	10.85
385.968	10.72
386.176	10.43
386.384	10.02
386.592	10.08
386.8	9.97
387.008	9.36
387.216	9.03
387.424	9.31
387.633	9.39
387.841	9.26
388.049	9.05
388.257	9.13
388.465	9.19
388.672	8.77
388.88	8.66
389.088	8.85
389.296	8.9
389.504	8.8
389.712	8.64
389.92	8.72
390.128	8.59
390.336	8.38
390.544	8.33
390.751	8.68
390.959	8.96
391.167	9.14
391.375	9.14
391.583	9.44
391.79	9.26
391.998	9.25
392.206	9.12
392.414	9.61
392.621	10.04
392.829	9.88
393.037	9.34
393.244	9.09
393.452	8.8
393.66	8.56
393.867	8.55
394.075	8.43
394.283	8.19
394.49	8.48
394.698	8.25
394.905	8.21
395.113	8.04
395.32	8.34
395.528	8.9
395.735	8.97
395.943	9.19
396.15	8.96
396.358	8.76
396.565	8.58
396.773	8.41
396.98	8.27
397.188	8.13
397.395	8.28
397.602	8.04
397.81	7.75
398.017	7.73
398.225	7.52
398.432	7.72
398.639	8.2
398.847	8.48
399.054	8.05
399.261	7.78
399.468	7.62
399.676	7.76
399.883	7.63
400.09	7.96
400.297	7.55
400.505	7.43
400.712	7.49
400.919	7.45
401.126	7.43
401.333	7.85
401.54	7.73
401.748	7.76
401.955	7.45
402.162	7.62
402.369	7.38
402.576	7.72
402.783	7.89
402.99	7.64
403.197	7.51
403.404	7.09
403.611	6.66
403.818	6.75
404.025	6.92
404.232	7.06
404.439	7.19
404.646	7.01
404.853	7.01
405.06	7.11
405.267	7.35
405.474	7.33
405.681	8.03
405.887	8.09
406.094	8.41
406.301	8.38
406.508	8.14
406.715	8.06
406.922	8.16
407.128	7.95
407.335	7.82
407.542	7.52
407.749	7.64
407.955	7.24
408.162	7.66
408.369	7.36
408.575	7.24
408.782	7.67
408.989	7.73
409.195	7.88
409.402	7.95
409.609	8.03
409.815	8.09
410.022	7.9
410.228	8.01
410.435	7.86
410.642	7.82
410.848	8.09
411.055	7.7
411.261	7.61
411.468	7.64
411.674	7.39
411.881	7.33
412.087	7.42
412.294	7.32
412.5	7.24
412.706	7.24
412.913	7.15
413.119	6.75
413.326	6.73
413.532	6.71
413.738	6.57
413.945	6.63
414.151	6.66
414.357	6.52
414.564	6.86
414.77	7.23
414.976	7.22
415.182	7.26
415.389	7.31
415.595	7.5
415.801	7.49
416.007	7.66
416.214	7.83
416.42	7.66
416.626	7.73
416.832	7.69
417.038	7.24
417.244	7.21
417.45	7.27
417.657	7.32
417.863	7.19
418.069	7.03
418.275	6.95
418.481	6.74
418.687	6.73
418.893	6.58
419.099	6.47
419.305	6.77
419.511	6.73
419.717	6.8
419.923	6.71
420.129	6.81
420.335	7
420.541	6.98
420.746	7.32
420.952	7.45
421.158	7.57
421.364	7.57
421.57	7.44
421.776	7.38
421.982	7.29
422.187	7.3
422.393	7.26
422.599	7.23
422.805	7.18
423.01	7.03
423.216	6.82
423.422	6.64
423.628	6.73
423.833	6.76
424.039	6.86
424.245	6.94
424.45	7.06
424.656	7
424.862	6.96
425.067	7.03
425.273	7.14
425.478	7.24
425.684	7.4
425.889	7.38
426.095	7.32
426.301	7.31
426.506	7.33
426.712	7.33
426.917	7.67
427.123	7.82
427.328	7.72
427.533	7.76
427.739	7.79
427.944	7.74
428.15	7.73
428.355	7.87
428.561	7.94
428.766	7.67
428.971	7.55
429.177	7.31
429.382	6.89
429.587	7.1
429.793	6.59
429.998	6.6
430.203	6.62
430.408	6.45
430.614	6.28
430.819	6.26
431.024	6.38
431.229	6.29
431.434	6.15
431.64	6.27
431.845	6.19
432.05	6.56
432.255	6.5
432.46	6.41
432.665	6.46
432.87	6.51
433.076	6.61
433.281	6.55
433.486	6.63
433.691	6.54
433.896	6.7
434.101	6.76
434.306	6.77
434.511	6.69
434.716	6.68
434.921	6.69
435.126	6.66
435.331	6.36
435.535	6.59
435.74	6.75
435.945	7.07
436.15	6.98
436.355	7.04
436.56	6.88
436.765	6.87
436.97	7.09
437.174	7.08
437.379	7.03
437.584	7.03
437.789	6.91
437.993	6.81
438.198	6.67
438.403	6.72
438.608	6.64
438.812	6.78
439.017	6.8
439.222	6.79
439.426	6.95
439.631	6.95
439.836	6.97
440.04	7.11
440.245	7.07
440.45	7.04
440.654	7.25
440.859	7.17
441.063	7.07
441.268	7.13
441.472	7.12
441.677	7.02
441.881	7.09
442.086	7.2
442.29	7.02
442.495	7.18
442.699	7.19
442.904	6.95
443.108	6.95
443.312	7.01
443.517	6.98
443.721	7.05
443.925	7.06
444.13	7.07
444.334	7.04
444.538	7.24
444.743	7.15
444.947	7.17
445.151	7.31
445.356	7.43
445.56	7.45
445.764	7.58
445.968	7.48
446.173	7.41
446.377	7.32
446.581	7.3
446.785	7.23
446.989	7.31
447.193	7.35
447.398	7.22
447.602	7.18
447.806	7.15
448.01	7
448.214	6.99
448.418	7.02
448.622	7.16
448.826	7.35
449.03	7.43
449.234	7.39
449.438	7.43
449.642	7.45
449.846	7.25
450.05	7.14
450.254	7.21
450.458	7.15
450.662	7.12
450.866	6.79
451.069	6.68
451.273	6.6
451.477	6.49
451.681	6.46
451.885	6.38
452.089	6.52
452.292	6.7
452.496	6.82
452.7	6.89
452.904	6.95
453.107	7.03
453.311	7
453.515	6.88
453.719	6.94
453.922	6.89
454.126	7.01
454.33	6.97
454.533	6.88
454.737	6.79
454.94	6.54
455.144	6.45
455.348	6.48
455.551	6.39
455.755	6.37
455.958	6.03
456.162	5.96
456.365	5.87
456.569	5.88
456.772	5.98
456.976	5.9
457.179	5.99
457.383	6.13
457.586	6.23
457.79	6.32
457.993	6.24
458.196	6.45
458.4	6.52
458.603	6.6
458.807	6.58
459.01	6.46
459.213	6.55
459.417	6.63
459.62	6.68
459.823	6.58
460.026	6.59
460.23	6.71
460.433	6.69
460.636	6.54
460.839	6.51
461.042	6.65
461.246	6.64
461.449	6.6
461.652	6.56
461.855	6.48
462.058	6.53
462.261	6.35
462.464	6.45
462.668	6.59
462.871	6.67
463.074	6.68
463.277	6.49
463.48	6.5
463.683	6.51
463.886	6.6
464.089	6.54
464.292	6.54
464.495	6.57
464.698	6.67
464.901	6.73
465.104	6.74
465.306	6.71
465.509	6.73
465.712	6.93
465.915	6.92
466.118	7
466.321	7.05
466.524	7.23
466.726	7.4
466.929	7.14
467.132	6.83
467.335	6.86
467.538	6.85
467.74	6.9
467.943	6.8
468.146	6.8
468.348	6.7
468.551	6.67
468.754	6.73
468.956	6.71
469.159	6.73
469.362	6.83
469.564	6.92
469.767	7.01
469.969	7.16
470.172	7.19
470.375	7.21
470.577	7.11
470.78	7.14
470.982	6.97
471.185	7.01
471.387	7.14
471.59	7.27
471.792	7.26
471.995	7.31
472.197	7.27
472.399	7.25
472.602	7.06
472.804	7.08
473.007	7.02
473.209	6.92
473.411	6.68
473.614	6.51
473.816	6.44
474.018	6.3
474.22	6.22
474.423	6.16
474.625	6.15
474.827	6.4
475.03	6.52
475.232	6.61
475.434	6.71
475.636	6.89
475.838	6.9
476.04	6.99
476.243	6.92
476.445	6.87
476.647	6.72
476.849	6.8
477.051	6.67
477.253	6.62
477.455	6.75
477.657	6.61
477.859	6.66
478.061	6.62
478.263	6.63
478.465	6.63
478.667	6.69
478.869	6.74
479.071	6.61
479.273	6.58
479.475	6.5
479.677	6.32
479.879	6.32
480.081	6.41
480.283	6.41
480.485	6.56
480.686	6.71
480.888	6.56
481.09	6.53
481.292	6.62
481.494	6.74
481.695	6.69
481.897	6.75
482.099	6.8
482.301	6.72
482.502	6.74
482.704	6.6
482.906	6.57
483.107	6.61
483.309	6.69
483.511	6.7
483.712	6.69
483.914	6.7
484.115	6.71
484.317	6.7
484.519	6.69
484.72	6.66
484.922	6.71
485.123	6.73
485.325	6.75
485.526	6.71
485.728	6.66
485.929	6.7
486.131	6.76
486.332	6.66
486.534	6.68
486.735	6.71
486.936	6.79
487.138	6.74
487.339	6.78
487.541	6.75
487.742	6.76
487.943	6.76
488.144	6.72
488.346	6.69
488.547	6.76
488.748	6.78
488.95	6.75
489.151	6.71
489.352	6.78
489.553	6.61
489.755	6.69
489.956	6.74
490.157	6.73
490.358	6.75
490.559	6.82
490.76	6.93
490.961	6.92
491.163	6.92
491.364	6.92
491.565	6.86
491.766	6.98
491.967	6.86
492.168	6.85
492.369	6.92
492.57	6.9
492.771	6.79
492.972	6.69
493.173	6.7
493.374	6.69
493.575	6.59
493.776	6.55
493.976	6.54
494.177	6.65
494.378	6.6
494.579	6.45
494.78	6.46
494.981	6.53
495.182	6.57
495.382	6.61
495.583	6.67
495.784	6.86
495.985	6.74
496.185	6.79
496.386	6.72
496.587	6.81
496.788	6.81
496.988	6.82
497.189	6.88
497.39	6.98
497.59	6.85
497.791	6.75
497.992	6.8
498.192	6.93
498.393	6.94
498.593	7.02
498.794	6.91
498.994	6.96
499.195	6.98
499.395	7.12
499.596	6.98
499.796	7.09
499.997	7.11
500.197	6.84
500.398	6.92
500.598	7.04
500.799	6.99
500.999	7.15
501.199	7.51
501.4	7.44
501.6	7.38
501.801	7.32
502.001	7.37
502.201	7.48
502.402	7.66
502.602	7.69
502.802	7.64
503.002	7.93
503.203	8.01
503.403	7.83
503.603	7.93
503.803	7.83
504.003	7.85
504.204	7.92
504.404	8.09
504.604	8.14
504.804	8.18
505.004	8.08
505.204	7.95
505.404	7.78
505.604	7.68
505.804	7.73
506.005	7.8
506.205	7.95
506.405	8.03
506.605	8.17
506.805	8.15
507.005	8.02
507.204	8.09
507.404	8.1
507.604	8.3
507.804	8.54
508.004	8.78
508.204	8.94
508.404	8.99
508.604	9
508.804	8.88
509.003	9.05
509.203	9.22
509.403	9.2
509.603	9.29
509.803	9.24
510.002	9.28
510.202	9.18
510.402	9.17
510.602	9.23
510.801	9.22
511.001	9.27
511.201	9.12
511.4	9.17
511.6	9.39
511.8	9.41
511.999	9.48
512.199	9.43
512.398	9.36
512.598	9.42
512.797	9.53
512.997	9.57
513.197	9.58
513.396	9.86
513.596	9.98
513.795	9.89
513.994	9.93
514.194	10.06
514.393	10.21
514.593	10.44
514.792	10.44
514.992	10.58
515.191	10.74
515.39	10.86
515.59	11
515.789	10.98
515.988	11.18
516.188	11.31
516.387	11.38
516.586	11.43
516.786	11.25
516.985	11.36
517.184	11.27
517.383	11.35
517.582	11.33
517.782	11.24
517.981	11.29
518.18	11.28
518.379	11.28
518.578	11.33
518.777	11.4
518.976	11.6
519.176	11.67
519.375	11.71
519.574	11.71
519.773	11.84
519.972	11.88
520.171	11.97
520.37	12
520.569	12.05
520.768	12.11
520.967	12.02
521.166	12.04
521.365	11.93
521.564	11.98
521.762	12.04
521.961	11.98
522.16	12.19
522.359	12.35
522.558	12.5
522.757	12.66
522.956	12.68
523.154	12.72
523.353	12.84
523.552	13.02
523.751	13.14
523.949	13.34
524.148	13.53
524.347	13.46
524.546	13.51
524.744	13.64
524.943	13.68
525.142	13.66
525.34	13.83
525.539	13.86
525.737	13.93
525.936	13.96
526.135	13.89
526.333	13.79
526.532	13.9
526.73	13.75
526.929	13.8
527.127	13.83
527.326	13.96
527.524	14
527.723	14.06
527.921	14.13
528.12	14.21
528.318	14.27
528.516	14.41
528.715	14.47
528.913	14.61
529.112	14.58
529.31	14.6
529.508	14.57
529.707	14.6
529.905	14.61
530.103	14.62
530.301	14.59
530.5	14.66
530.698	14.66
530.896	14.68
531.094	14.69
531.293	14.82
531.491	14.89
531.689	15
531.887	15.03
532.085	15.17
532.283	15.22
532.481	15.37
532.68	15.43
532.878	15.52
533.076	15.55
533.274	15.62
533.472	15.63
533.67	15.62
533.868	15.73
534.066	15.88
534.264	15.86
534.462	15.97
534.66	16.03
534.858	16.01
535.056	16.12
535.253	16.26
535.451	16.29
535.649	16.54
535.847	16.73
536.045	16.8
536.243	16.85
536.441	16.91
536.638	16.92
536.836	16.95
537.034	17.03
537.232	16.99
537.43	17.01
537.627	17.1
537.825	17.01
538.023	17.14
538.22	17.23
538.418	17.25
538.616	17.33
538.813	17.36
539.011	17.42
539.209	17.41
539.406	17.51
539.604	17.62
539.801	17.67
539.999	17.82
540.196	17.79
540.394	17.85
540.591	17.98
540.789	18.12
540.986	18.26
541.184	18.32
541.381	18.52
541.579	18.57
541.776	18.63
541.974	18.77
542.171	18.79
542.368	18.86
542.566	18.79
542.763	18.81
542.96	18.78
543.158	18.82
543.355	18.84
543.552	18.79
543.75	18.86
543.947	18.89
544.144	18.83
544.341	18.94
544.539	19.05
544.736	19.25
544.933	19.32
545.13	19.54
545.327	19.63
545.524	19.81
545.722	19.86
545.919	20.01
546.116	20.17
546.313	20.21
546.51	20.19
546.707	20.24
546.904	20.39
547.101	20.45
547.298	20.39
547.495	20.46
547.692	20.49
547.889	20.59
548.086	20.52
548.283	20.59
548.48	20.83
548.677	20.97
548.874	21.06
549.07	20.97
549.267	21.09
549.464	21.23
549.661	21.22
549.858	21.44
550.055	21.41
550.251	21.55
550.448	21.42
550.645	21.39
550.842	21.41
551.038	21.5
551.235	21.53
551.432	21.49
551.628	21.68
551.825	21.85
552.022	21.95
552.218	22.23
552.415	22.37
552.612	22.43
552.808	22.43
553.005	22.53
553.201	22.55
553.398	22.57
553.594	22.57
553.791	22.54
553.987	22.66
554.184	22.68
554.38	22.54
554.577	22.49
554.773	22.6
554.97	22.68
555.166	22.57
555.362	22.83
555.559	23.21
555.755	23.37
555.952	23.6
556.148	23.62
556.344	23.53
556.541	23.9
556.737	23.84
556.933	23.7
557.129	23.72
557.326	23.87
557.522	23.89
557.718	23.91
557.914	24.16
558.11	24.04
558.307	24.11
558.503	24.29
558.699	24.27
558.895	24.53
559.091	24.67
559.287	24.8
559.483	24.9
559.679	24.92
559.876	24.93
560.072	24.83
560.268	24.83
560.464	24.79
560.66	24.78
560.856	24.78
561.052	24.83
561.247	25.06
561.443	25.23
561.639	25.34
561.835	25.3
562.031	25.42
562.227	25.3
562.423	25.6
562.619	25.75
562.815	25.93
563.01	26.03
563.206	26.04
563.402	26.24
563.598	26.31
563.793	26.17
563.989	26.12
564.185	26.09
564.381	26.28
564.576	26.37
564.772	26.41
564.968	26.26
565.163	26.5
565.359	26.58
565.555	26.46
565.75	26.32
565.946	26.47
566.141	26.63
566.337	26.74
566.532	26.92
566.728	26.85
566.923	26.99
567.119	27.14
567.314	27.05
567.51	27.21
567.705	27.39
567.901	27.4
568.096	27.67
568.292	27.63
568.487	27.67
568.682	27.79
568.878	27.88
569.073	28.05
569.268	28.05
569.464	28.29
569.659	28.32
569.854	28.11
570.05	28.25
570.245	28.07
570.44	28.2
570.635	28.31
570.831	28.16
571.026	28.35
571.221	28.14
571.416	28.17
571.611	28.15
571.806	28.25
572.002	28.47
572.197	28.4
572.392	28.43
572.587	28.55
572.782	28.62
572.977	28.76
573.172	28.64
573.367	28.85
573.562	28.81
573.757	28.63
573.952	28.57
574.147	28.42
574.342	28.74
574.537	28.8
574.732	28.76
574.927	28.65
575.121	28.52
575.316	28.64
575.511	28.46
575.706	28.77
575.901	28.88
576.096	28.96
576.29	29.25
576.485	29.29
576.68	29.28
576.875	29.21
577.069	29.44
577.264	29.67
577.459	29.52
577.654	29.94
577.848	29.73
578.043	29.69
578.238	29.68
578.432	29.57
578.627	29.51
578.821	29.69
579.016	29.94
579.21	29.91
579.405	30.05
579.6	30.19
579.794	30
579.989	29.94
580.183	30.12
580.378	30.21
580.572	30.46
580.766	30.58
580.961	30.61
581.155	30.56
581.35	30.32
581.544	30.08
581.738	30.32
581.933	29.98
582.127	30.16
582.321	30.28
582.516	30.45
582.71	30.28
582.904	30.06
583.099	30.28
583.293	30.58
583.487	30.65
583.681	30.45
583.875	30.23
584.07	30.22
584.264	30.11
584.458	30.35
584.652	30.21
584.846	30.28
585.04	30.42
585.234	29.99
585.428	29.84
585.623	30.17
585.817	30.6
586.011	30.56
586.205	30.83
586.399	31.08
586.593	30.87
586.787	30.74
586.981	30.91
587.174	30.94
587.368	31.18
587.562	31.07
587.756	31.12
587.95	31.11
588.144	31.48
588.338	31.42
588.532	31.75
588.725	31.79
588.919	31.92
589.113	31.91
589.307	31.88
589.501	32.19
589.694	32.4
589.888	32.26
590.082	31.92
590.275	31.83
590.469	32.17
590.663	31.94
590.856	31.78
591.05	31.9
591.244	31.88
591.437	31.96
591.631	31.94
591.824	31.9
592.018	31.99
592.212	32.27
592.405	32.22
592.599	32.15
592.792	31.97
592.986	32.27
593.179	32.18
593.372	32.14
593.566	32.03
593.759	31.93
593.953	32.05
594.146	32.15
594.339	32.26
594.533	32.19
594.726	32.16
594.92	32.26
595.113	31.9
595.306	31.65
595.499	31.73
595.693	31.86
595.886	31.58
596.079	31.42
596.272	31.3
596.466	31.64
596.659	31.8
596.852	31.86
597.045	31.9
597.238	32.17
597.431	32.33
597.624	32.24
597.818	32.26
598.011	32.58
598.204	32.76
598.397	32.68
598.59	32.27
598.783	32.31
598.976	32.2
599.169	32.22
599.362	32.11
599.555	32.09
599.748	32.1
599.941	32.12
600.134	31.82
600.326	31.96
600.519	32.4
600.712	32.38
600.905	32.17
601.098	32.26
601.291	31.85
601.483	31.99
601.676	32.31
601.869	32.66
602.062	32.77
602.255	32.87
602.447	32.4
602.64	31.91
602.833	32.19
603.025	32.21
603.218	32.4
603.411	32.82
603.603	32.69
603.796	32.57
603.989	32.52
604.181	32.39
604.374	32.61
604.566	32.7
604.759	32.81
604.951	32.95
605.144	32.95
605.336	32.79
605.529	32.79
605.721	33.17
605.914	32.98
606.106	32.95
606.299	33.08
606.491	32.81
606.683	33.08
606.876	33.1
607.068	32.68
607.26	32.94
607.453	33.04
607.645	32.92
607.837	32.56
608.03	33.01
608.222	33.14
608.414	33.11
608.606	33.2
608.799	33.38
608.991	33.4
609.183	33.59
609.375	33.87
609.567	34.01
609.759	34.33
609.952	34.53
610.144	34.69
610.336	34.51
610.528	34.69
610.72	34.99
610.912	34.84
611.104	35.18
611.296	35.5
611.488	35.16
611.68	35.01
611.872	34.76
612.064	34.64
612.256	34.71
612.448	35.13
612.64	35.36
612.832	35.4
613.023	35.45
613.215	35.07
613.407	34.78
613.599	34.8
613.791	34.92
613.983	35.34
614.174	35.38
614.366	35.05
614.558	34.81
614.75	34.41
614.941	34.35
615.133	34.33
615.325	34.54
615.516	34.77
615.708	34.86
615.9	34.85
616.091	34.5
616.283	34.81
616.475	34.47
616.666	34.35
616.858	34.29
617.049	34.34
617.241	34.41
617.432	34.44
617.624	34.18
617.815	34.26
618.007	33.94
618.198	33.85
618.39	33.43
618.581	33.87
618.773	34.01
618.964	34.13
619.155	34.01
619.347	34.14
619.538	34.21
619.729	34.22
619.921	34.09
620.112	34.19
620.303	34.27
620.494	34.68
620.686	34.46
620.877	34.42
621.068	34.42
621.259	34.31
621.451	34
621.642	33.91
621.833	34.11
622.024	34.01
622.215	34.09
622.406	34.11
622.597	33.93
622.788	34.04
622.98	33.92
623.171	33.8
623.362	33.82
623.553	34.15
623.744	34.14
623.935	33.96
624.126	33.97
624.317	34.07
624.508	34.07
624.698	33.97
624.889	33.94
625.08	34.29
625.271	34.12
625.462	34
625.653	33.71
625.844	33.83
626.034	33.79
626.225	34.02
626.416	33.81
626.607	34.02
626.798	33.91
626.988	33.93
627.179	33.87
627.37	34.23
627.56	34.33
627.751	34.65
627.942	34.46
628.132	34.58
628.323	34.65
628.514	35.17
628.704	34.94
628.895	35.1
629.085	35.35
629.276	35.34
629.466	35.28
629.657	35.03
629.847	35.12
630.038	35.62
630.228	35.8
630.419	35.56
630.609	35.16
630.8	35.04
630.99	35.37
631.181	35.42
631.371	35.44
631.561	35
631.752	35.54
631.942	34.88
632.132	34.71
632.323	34.92
632.513	35.05
632.703	35.11
632.893	35.3
633.084	34.96
633.274	34.67
633.464	34.42
633.654	34.63
633.844	34.47
634.034	34.73
634.225	34.53
634.415	34.31
634.605	34.23
634.795	34.5
634.985	34.53
635.175	34.38
635.365	34.45
635.555	34.53
635.745	34.51
635.935	34.42
636.125	34.53
636.315	34.54
636.505	34.55
636.695	34.64
636.885	34.57
637.075	34.46
637.265	34.62
637.455	34.78
637.644	34.97
637.834	35.07
638.024	35.38
638.214	35.19
638.404	35.49
638.593	35.27
638.783	35.32
638.973	35.16
639.163	35.15
639.352	35.31
639.542	35.07
639.732	34.81
639.921	35.06
640.111	35.07
640.301	34.84
640.49	34.32
640.68	34.66
640.87	34.71
641.059	34.95
641.249	35.31
641.438	35.72
641.628	35.66
641.817	35.86
642.007	35.46
642.196	35.03
642.386	35.48
642.575	35.95
642.764	35.82
642.954	35.81
643.143	35.8
643.333	35.73
643.522	35.07
643.711	35.19
643.901	34.8
644.09	35.15
644.279	35.12
644.469	35.49
644.658	35.62
644.847	35.66
645.036	35.31
645.226	35.24
645.415	35.24
645.604	35.32
645.793	35.37
645.982	35.83
646.171	35.37
646.361	35.63
646.55	35.17
646.739	34.8
646.928	34.51
647.117	34.56
647.306	34.43
647.495	34.64
647.684	34.63
647.873	34.79
648.062	34.49
648.251	34.99
648.44	34.91
648.629	34.97
648.818	35.48
649.007	35.61
649.196	35.61
649.384	36.13
649.573	35.86
649.762	36.12
649.951	35.63
650.14	35.38
650.328	35.7
650.517	35.69
650.706	35.71
650.895	35.32
651.083	35.14
651.272	35.53
651.461	35.49
651.65	35.18
651.838	35.12
652.027	35.54
652.216	36.07
652.404	35.67
652.593	35.9
652.781	35.96
652.97	35.81
653.158	36.1
653.347	35.58
653.535	35.05
653.724	35.03
653.912	34.59
654.101	34.76
654.289	34.71
654.478	35.03
654.666	34.51
654.855	34.34
655.043	34.62
655.231	34.78
655.42	35.17
655.608	35.3
655.796	35.42
655.985	36.12
656.173	36.12
656.361	36.07
656.55	35.71
656.738	35.95
656.926	36.19
657.114	36.08
657.302	35.88
657.491	35.81
657.679	35.9
657.867	36.54
658.055	36.64
658.243	36.66
658.431	36.2
658.619	36.61
658.807	36.59
658.996	36.07
659.184	36.1
659.372	36.23
659.56	36.44
659.748	36.43
659.936	36.25
660.124	35.77
660.311	35.51
660.499	36.01
660.687	35.52
660.875	35.47
661.063	36.07
661.251	36.15
661.439	36.37
661.627	36.11
661.814	36.32
662.002	36.29
662.19	36.75
662.378	37.07
662.565	36.61
662.753	36.87
662.941	36.88
663.129	37
663.316	37.02
663.504	36.35
663.692	36.79
663.879	36.85
664.067	36.53
664.254	36.95
664.442	36.64
664.63	37.02
664.817	37.09
665.005	37.19
665.192	36.75
665.38	36.81
665.567	36.79
665.755	36.37
665.942	36.22
666.13	36.54
666.317	35.77
666.504	35.99
666.692	35.84
666.879	35.6
667.067	35.83
667.254	36.17
667.441	36.06
667.629	36.24
667.816	36.51
668.003	36.58
668.19	36.56
668.378	37.07
668.565	37.32
668.752	38.01
668.939	38.37
669.127	38.46
669.314	38.09
669.501	38.09
669.688	37.94
669.875	37.57
670.062	37.39
670.249	37.38
670.436	37.15
670.623	36.52
670.81	36.33
670.997	36.32
671.184	36.37
671.371	36.67
671.558	36.93
671.745	37.25
671.932	37.26
672.119	37.31
672.306	37.74
672.493	37.27
672.68	37.31
672.867	37.08
673.054	36.92
673.24	36.3
673.427	36.2
673.614	35.84
673.801	35.81
673.988	35.55
674.174	35.77
674.361	35.3
674.548	35.43
674.734	35.96
674.921	35.95
675.108	35.9
675.294	36.81
675.481	36.91
675.668	37.33
675.854	37.05
676.041	37.7
676.227	37.54
676.414	37.31
676.601	37.23
676.787	36.84
676.974	37.08
677.16	37.12
677.347	36.76
677.533	36.5
677.719	36.94
677.906	37.27
678.092	37.19
678.279	36.88
678.465	36.77
678.651	37.26
678.838	37.37
679.024	37.25
679.21	37.25
679.397	37.11
679.583	37.48
679.769	36.91
679.955	37.02
680.142	36.59
680.328	36.56
680.514	36.8
680.7	36.75
680.886	36.48
681.073	36.75
681.259	36.64
681.445	36.95
681.631	36.94
681.817	36.98
682.003	37.15
682.189	37.85
682.375	38.37
682.561	38.32
682.747	38.44
682.933	38.67
683.119	38.05
683.305	37.95
683.491	37.67
683.677	37.8
683.863	38.06
684.049	38.19
684.235	37.63
684.42	37.98
684.606	38.11
684.792	37.55
684.978	38.12
685.164	38.44
685.349	38.94
685.535	38.54
685.721	38.12
685.907	37.72
686.092	37.43
686.278	37.81
686.464	37.13
686.649	37.23
686.835	37.51
687.021	37.19
687.206	36.64
687.392	36.49
687.577	36.77
687.763	36.94
687.948	36.92
688.134	36.59
688.319	36.41
688.505	36.09
688.69	35.94
688.876	36.57
689.061	36.54
689.247	37.43
689.432	37.84
689.618	37.8
689.803	37.4
689.988	37.17
690.174	37.61
690.359	37.98
690.544	38.38
690.73	38.5
690.915	37.78
691.1	38.15
691.285	37.71
691.471	37.22
691.656	37.54
691.841	38.18
692.026	38.35
692.211	37.74
692.396	36.94
692.582	37.19
692.767	37.2
692.952	37.28
693.137	37.16
693.322	37.06
693.507	37.14
693.692	36.85
693.877	36.64
694.062	36.6
694.247	36.98
694.432	37.33
694.617	37.42
694.802	37.35
694.987	37.11
695.172	36.88
695.357	36.76
695.541	36.32
695.726	35.72
695.911	35.76
696.096	36.66
696.281	36.57
696.466	36.89
696.65	36.8
696.835	36.97
697.02	37.08
697.204	36.97
697.389	37.22
697.574	37.27
697.759	37.99
697.943	37.63
698.128	37.27
698.312	37.36
698.497	37.4
698.682	37
698.866	36.83
699.051	36.96
699.235	36.76
699.42	36.65
699.604	36.97
699.789	36.75
699.973	36.68
700.158	36.77
700.342	37.2
700.527	36.69
700.711	37.19
700.895	37.39
701.08	37.29
701.264	37.65
701.448	37.71
701.633	37.42
701.817	37.6
702.001	38.08
702.186	38.17
702.37	37.53
702.554	37.96
702.738	37.99
702.923	37.83
703.107	38.03
703.291	38.16
703.475	38.54
703.659	38.72
703.843	39.17
704.027	39.22
704.212	39.19
704.396	39.12
704.58	38.84
704.764	38.1
704.948	38.4
705.132	38.39
705.316	38.5
705.5	38.78
705.684	38.76
705.868	38.37
706.052	37.99
706.235	37.39
706.419	38.24
706.603	38.69
706.787	39.47
706.971	39.15
707.155	39.15
707.339	38.44
707.522	38.14
707.706	38.41
707.89	38.44
708.074	39.12
708.257	38.71
708.441	38.17
708.625	38.02
708.808	38.57
708.992	38.74
709.176	38.68
709.359	38.93
709.543	38.94
709.727	38.96
709.91	38.33
710.094	38.69
710.277	39.42
710.461	40.05
710.644	40.46
710.828	39.38
711.011	39.27
711.195	39.22
711.378	39.19
711.562	38.91
711.745	38.88
711.928	39.01
712.112	38.56
712.295	38.68
712.478	38.35
712.662	38.04
712.845	38.06
713.028	37.72
713.212	37.92
713.395	38.22
713.578	38.33
713.761	37.97
713.945	38.41
714.128	38
714.311	37.78
714.494	37.3
714.677	37.24
714.86	36.91
715.043	37.44
715.227	37.57
715.41	37.18
715.593	37.25
715.776	37.54
715.959	37.07
716.142	37.53
716.325	37.63
716.508	37.87
716.691	38.19
716.874	38.96
717.057	38.48
717.239	38.43
717.422	38.71
717.605	38.4
717.788	37.89
717.971	38.36
718.154	38.13
718.337	37.96
718.519	38.32
718.702	37.93
718.885	37.61
719.068	37.87
719.25	37.39
719.433	37.62
719.616	37.57
719.798	37.63
719.981	37.94
720.164	37.67
720.346	37.8
720.529	37.34
720.712	37.15
720.894	37.7
721.077	37.4
721.259	37.2
721.442	37.37
721.624	37.61
721.807	38.84
721.989	37.68
722.172	37.16
722.354	37.33
722.537	36.72
722.719	36.23
722.901	35.2
723.084	35.98
723.266	36.39
723.448	35.69
723.631	36.12
723.813	34.97
723.995	35.54
724.178	36.38
724.36	35.92
724.542	36.51
724.724	37.28
724.907	37.07
725.089	36.4
725.271	35.87
725.453	37.11
725.635	38.04
725.817	38.13
725.999	37.91
726.181	37.88
726.364	37.69
726.546	36.79
726.728	36.99
726.91	38.34
727.092	38.96
727.274	39.58
727.456	39.33
727.638	37.98
727.819	38.46
728.001	38.67
728.183	39.3
728.365	38.84
728.547	39.77
728.729	39.78
728.911	39.6
729.093	39.66
729.274	40.01
729.456	40.09
729.638	40.39
729.82	40.31
730.001	39.74
730.183	39.35
730.365	39.9
730.546	39.87
730.728	39.89
730.91	40.15
731.091	39.86
731.273	39.34
731.455	38.41
731.636	38.6
731.818	38.53
731.999	38.48
732.181	38.95
732.362	39.25
732.544	39.31
732.725	39.21
732.907	38.1
733.088	38.23
733.27	38.25
733.451	38.45
733.633	38.23
733.814	38.56
733.995	39.68
734.177	38.61
734.358	38.76
734.539	38.01
734.721	38.16
734.902	39.02
735.083	38.91
735.264	38.71
735.446	38.51
735.627	38.09
735.808	37.91
735.989	37.33
736.17	38.07
736.351	37.67
736.533	38.25
736.714	38.66
736.895	39.01
737.076	39.3
737.257	38.86
737.438	37.54
737.619	37.37
737.8	37.01
737.981	38.16
738.162	38.06
738.343	38.6
738.524	38.69
738.705	37.74
738.886	36.8
739.067	35.65
739.247	36.32
739.428	37.74
739.609	38.86
739.79	39.32
739.971	38.8
740.151	38.54
740.332	37.98
740.513	38.07
740.694	38.61
740.874	39.08
741.055	39.36
741.236	39.64
741.417	40.64
741.597	40.01
741.778	40.02
741.958	39.86
742.139	39.86
742.32	40.49
742.5	42.3
742.681	41.5
742.861	40.67
743.042	41.88
743.222	41.49
743.403	41.22
743.583	42.81
743.764	41.88
743.944	41.11
744.124	41.26
744.305	40.79
744.485	39.46
744.666	39.97
744.846	40.42
745.026	39.12
745.207	39.21
745.387	38.32
745.567	35.47
745.747	35.06
745.928	36.02
746.108	36.18
746.288	36.31
746.468	35.61
746.648	35.57
746.829	36.52
747.009	37
747.189	38.11
747.369	37.97
747.549	39.67
747.729	40.23
747.909	39.99
748.089	40.34
748.269	39.96
748.449	40.71
748.629	40.56
748.809	39.82
748.989	39.97
749.169	39.61
749.349	39.85
749.529	39.89
749.709	40.31
749.889	39.66
750.068	39.5
750.248	40.01
750.428	39.15
750.608	39.07
750.788	39.32
750.967	39.31
751.147	37.96
751.327	36.1
751.507	35.24
751.686	35.27
751.866	35.49
752.046	34.27
752.225	34.55
752.405	34.91
752.585	35.41
752.764	35.18
752.944	35.58
753.123	36.02
753.303	37.98
753.482	36.48
753.662	36.16
753.841	36.16
754.021	37.42
754.2	37.34
754.38	36.62
754.559	36.34
754.739	36.51
754.918	35.38
755.097	35.28
755.277	34.71
755.456	37.8
755.635	37.44
755.815	36.97
755.994	36.64
756.173	36.52
756.352	36.67
756.532	37.85
756.711	38.49
756.89	40.24
757.069	41.02
757.248	41.04
757.427	39.87
757.607	39.8
757.786	40.1
757.965	39.84
758.144	39.49
758.323	39.42
758.502	39.08
758.681	38
758.86	36.95
759.039	38.04
759.218	39.08
759.397	40.47
759.576	41.37
759.755	40.78
759.934	41.01
760.113	41.23
760.291	41.48
760.47	40.32
760.649	41.14
760.828	40.55
761.007	39.21
761.186	38.93
761.364	36.99
761.543	36.59
761.722	36.94
761.901	36.29
762.079	36.09
762.258	37.02
762.437	38.18
762.615	38.96
762.794	39.84
762.972	39.97
763.151	39.11
763.33	38.91
763.508	38.91
763.687	39.72
763.865	40.15
764.044	40.33
764.222	39.61
764.401	38.94
764.579	37.92
764.758	38.03
764.936	37.48
765.114	37.39
765.293	37.87
765.471	37.84
765.65	36.82
765.828	35.98
766.006	35.58
766.184	35.87
766.363	35.47
766.541	35.02
766.719	34.83
766.898	34.61
767.076	36.05
767.254	36.39
767.432	36.9
767.61	37.99
767.788	38.37
767.967	37.59
768.145	36.95
768.323	37.46
768.501	39.4
768.679	39.18
768.857	39.76
769.035	37.82
769.213	37.6
769.391	36.15
769.569	35.88
769.747	36.51
769.925	38.7
770.103	37.78
770.281	38.19
770.459	37.07
770.636	37.14
770.814	38.25
770.992	39.45
771.17	39.2
771.348	41.12
771.525	40.42
771.703	40.41
771.881	39.45
772.059	40.63
772.236	41.04
772.414	41.87
772.592	40.02
772.769	38.77
772.947	38.05
773.125	36.83
773.302	35.52
773.48	35.8
773.657	35.57
773.835	35.24
774.013	36.03
774.19	33.56
774.368	32.47
774.545	34.38
774.723	35.39
774.9	36.82
775.077	37.11
775.255	37.82
775.432	35.44
775.61	35.31
775.787	35.64
775.964	35.63
776.142	37.57
776.319	35.88
776.496	36.2
776.674	35.86
776.851	36.23
777.028	37.86
777.205	37.85
777.382	40.31
777.56	41.17
777.737	41.1
777.914	39.7
778.091	39
778.268	38.95
778.445	38.62
778.622	39.08
778.8	36.42
778.977	35.06
779.154	54.02
779.331	53.49
779.508	52.91
779.685	52.47
779.862	55.5
780.038	56.46
780.215	58.12
780.392	57.52
780.569	56.33
780.746	59.56
780.923	59.82
781.1	37.91
781.277	39.59
781.453	39.48
781.63	38.21
781.807	35.02
781.984	34.75
782.16	33.94
782.337	33.36
782.514	34.7
782.691	35.57
782.867	35.2
783.044	35.5
783.221	34.42
783.397	33.16
783.574	35.84
783.75	35.91
783.927	34.73
784.103	34.34
784.28	35.55
784.456	34.51
784.633	33.71
784.809	36.14
784.986	37.52
785.162	36.32
785.339	36.59
785.515	34.6
785.692	34.6
785.868	34.9
786.044	35.17
786.221	32.48
786.397	34.61
786.573	31.47
786.749	29.74
786.926	29.23
787.102	30.72
787.278	30.79
787.454	32.02
787.631	32.51
787.807	31.91
787.983	34.8
788.159	36.22
788.335	34.47
788.511	36.77
788.687	37.17
788.863	37.12
789.039	36.51
789.216	37.33
789.392	36.26
789.568	35.07
789.744	36.49
789.919	35.21
790.095	35.89
790.271	36.76
790.447	35.76
790.623	35.95
790.799	37.43
790.975	38.65
791.151	39.01
791.327	41.68
791.502	45.1
791.678	47.78
791.854	47.08
792.03	46.74
792.205	46.53
792.381	47.09
792.557	47.35
792.733	48.25
792.908	49.01
793.084	46.88
793.259	44.08
793.435	41.55
793.611	38.61
793.786	39.37
793.962	38.95
794.137	38.81
794.313	37.9
794.488	35.79
794.664	34.53
794.839	33.97
795.015	35.58
795.19	35.63
795.366	36.98
795.541	36.88
795.716	35.1
795.892	35.91
796.067	35.57
796.242	37.54
796.418	38.84
796.593	37.4
796.768	36.57
796.944	35.68
797.119	37.98
797.294	38.01
797.469	38.87
797.644	37.99
797.82	36.29
797.995	36.93
798.17	35.28
798.345	34.58
798.52	35.3
798.695	36.43
798.87	37.89
799.045	36.12
799.22	36.03
799.395	33.57
799.57	35.73
799.745	34.92
799.92	37.24
800.095	37.43
800.27	36.85
800.445	35.87
800.62	33.71
800.795	30.76
800.97	32.22
801.145	30.67
801.319	31.56
801.494	31.08
801.669	31.61
801.844	28.71
802.018	28.39
802.193	29.23
802.368	30.3
802.543	31.27
802.717	33.59
802.892	29.61
803.067	30.33
803.241	30.54
803.416	30.54
803.59	30.15
803.765	28.92
803.94	30.35
804.114	30.17
804.289	27.84
804.463	27.49
804.638	25.8
804.812	29.83
804.986	27.63
805.161	29.23
805.335	29.73
805.51	31.82
805.684	31.03
805.858	30.34
806.033	32.75
806.207	35.98
806.381	36.23
806.556	36.1
806.73	34.12
806.904	35.76
807.078	36.92
807.253	37.8
807.427	36.22
807.601	36.45
807.775	34.88
807.949	33.55
808.123	32.07
808.298	30.24
808.472	30.97
808.646	31.52
808.82	31.54
808.994	31.48
809.168	31.06
809.342	34.26
809.516	34.71
809.69	35.03
809.864	38.51
810.038	37.93
810.212	42.9
810.385	43.51
810.559	40.9
810.733	39.43
810.907	33.36
811.081	33.46
811.255	30.66
811.428	32.44
811.602	34.86
811.776	34.14
811.95	32.19
812.123	30.02
812.297	30.06
812.471	34.09
812.644	36.41
812.818	41.08
812.992	38.23
813.165	44.88
813.339	45.72
813.512	45.26
813.686	44.99
813.86	47.26
814.033	45.41
814.207	45.96
814.38	44.87
814.554	44.37
814.727	42.93
814.9	43.5
815.074	39.54
815.247	36.92
815.421	36.66
815.594	32.35
815.767	31.99
815.941	32.69
816.114	31.97
816.287	29.94
816.46	30.15
816.634	30.88
816.807	32.76
816.98	34.89
817.153	37.6
817.327	35.64
817.5	39.85
817.673	40.85
817.846	41.15
818.019	44.73
818.192	45.48
818.365	46.17
818.538	45.31
818.711	42.94
818.884	39.91
819.057	34.69
819.23	34.79
819.403	34.77
819.576	32.97
819.749	34.1
819.922	33.07
820.095	31.4
820.268	28.56
820.441	30.63
820.614	32.75
820.786	31.95
820.959	36.64
821.132	38.08
821.305	36.57
821.477	37.44
821.65	37.55
821.823	37.8
821.996	38.69
822.168	39.65
822.341	39.86
822.514	40.01
822.686	40.39
822.859	39.56
823.031	39.31
823.204	39.62
823.376	39.38
823.549	39.27
823.722	38.86
823.894	38.75
824.067	38.25
824.239	37.82
824.411	37.57
824.584	37.53
824.756	37.4
824.929	37.05
825.101	36.35
825.273	36.23
825.446	36.12
825.618	36.61
825.79	36.71
825.963	37.02
826.135	37.14
826.307	37.88
826.479	38.15
826.652	38.36
826.824	39.33
826.996	39.65
827.168	39.57
827.34	39.99
827.512	40.35
827.684	40.79
827.856	41.01
828.029	41.48
828.201	41.04
828.373	40.69
828.545	40.33
828.717	39.45
828.889	40.63
829.061	41.36
829.232	39.31
829.404	37.5
829.576	35.5
829.748	35.92
829.92	33.56
830.092	32.52
830.264	30.4
830.436	31.31
830.607	31.91
830.779	31.68
830.951	31.06
831.123	32.85
831.294	34.73
831.466	35.37
831.638	32.9
831.809	35.47
831.981	34.6
832.153	38.98
832.324	40.6
832.496	40.11
832.667	38.3
832.839	39.7
833.011	40.73
833.182	41.85
833.354	42.63
833.525	42.81
833.697	43.79
833.868	43.32
834.039	40.85
834.211	39.25
834.382	38.31
834.554	38.1
834.725	38.11
834.896	37.54
835.068	38.01
835.239	37.54
835.41	38.32
835.581	37.91
835.753	38.55
835.924	37.8
836.095	36.34
836.266	39.62
836.438	40.7
836.609	38.48
836.78	37.57
836.951	33.95
837.122	38.64
837.293	37.05
837.464	37.08
837.635	38.86
837.806	43.58
837.977	44.55
838.148	44.69
838.319	42.72
838.49	48.29
838.661	49.02
838.832	49.61
839.003	44.53
839.174	44.43
839.345	43.31
839.516	40.58
839.687	33.4
839.857	36.25
840.028	27.96
840.199	29.01
840.37	26.71
840.54	30.13
840.711	32.54
840.882	32.39
841.053	32.1
841.223	29.98
841.394	30.79
841.564	38.31
841.735	35.88
841.906	35.05
842.076	34.94
842.247	31.85
842.417	30.75
842.588	27.46
842.758	29.63
842.929	35.91
843.099	39.29
843.27	38.2
843.44	28.18
843.611	30.44
843.781	33.95
843.951	38.06
844.122	36.79
844.292	38.78
844.462	38.9
844.633	33.17
844.803	31.33
844.973	29.58
845.144	29.78
845.314	33.93
845.484	32.9
845.654	31.93
845.824	23.15
845.995	32.81
846.165	29.77
846.335	39.49
846.505	39.53
846.675	32.43
846.845	22.97
847.015	23.22
847.185	34.65
847.355	40.8
847.525	47.77
847.695	51.13
847.865	44.27
848.035	43.33
848.205	32.07
848.375	36.41
848.545	39.97
848.715	54.84
848.884	50.58
849.054	45.39
849.224	46.34
849.394	46.87
849.564	52.08
849.733	44.14
849.903	47.73
850.073	50.44
850.243	48.62
850.412	56.48
850.582	52.11
850.752	48.74
850.921	34.7
851.091	33.85
851.26	25.29
851.43	21.66
851.599	27.25
851.769	9.12
851.939	-3.22
852.108	4.28
852.278	13.9
852.447	4.71
852.616	15.91
852.786	14.28
852.955	9.28
853.125	1.47
853.294	15.3
853.463	18.76
853.633	20.48
853.802	37.45
853.971	37.49
854.141	29.69
854.31	39.43
854.479	44.44
854.648	50.29
854.818	52.9
854.987	57.83
855.156	48.18
855.325	46.55
855.494	48.09
855.663	54.77
855.832	49.73
856.001	45.37
856.171	48.63
856.34	47.4
856.509	29.97
856.678	32.26
856.847	37.44
857.016	39.23
857.185	42.64
857.353	46.51
857.522	34.77
857.691	44.46
857.86	51.71
858.029	58.81
858.198	55.86
858.367	79.35
858.535	70.18
858.704	65.75
858.873	64.05
859.042	51.35
859.21	55.34
859.379	38.05
859.548	41.76
859.717	39.47
859.885	35.17
860.054	46.79
860.222	41.01
860.391	55.23
860.56	63.85
860.728	43.73
860.897	52.9
861.065	34.82
861.234	53.63
861.402	46.16
861.571	52.68
861.739	36.6
861.908	30.17
862.076	15.87
862.244	20.1
862.413	11.02
862.581	23.91
862.749	28.99
862.918	34.09
863.086	24.07
863.254	18.72
863.423	1.94
863.591	12.04
863.759	3.19
863.927	34.7
864.096	18.76
864.264	3.79
864.432	15.23
864.6	-6.32
864.768	4.77
864.936	6.49
865.104	-0.01
865.272	9.84
865.44	13.37
865.608	2.23
865.776	-20.26
865.944	-12.64
866.112	21.28
866.28	25.68
866.448	32.8
866.616	32.46
866.784	34.47
866.952	50.01
867.12	45.94
867.288	50.83
867.455	60.18
867.623	68.04
867.791	80.35
867.959	44.94
868.127	22.85
868.294	34.8
868.462	64.38
868.63	54.82
868.797	47.65
868.965	33.04
869.133	21.13
869.3	32.73
869.468	38.21
869.636	32.8
869.803	33.44
869.971	33.61
870.138	26.78
870.306	14.47
870.473	23.61
870.641	16.43
870.808	27.85
870.975	36.32
871.143	20.65
871.31	1.04
871.478	-10.14
871.645	-2.74
871.812	12.74
871.98	24.51
872.147	36.06
872.314	33.47
872.482	30.28
872.649	28.37
872.816	31.02
872.983	43.1
873.15	46.93
873.318	59.34
873.485	52.14
873.652	40.18
873.819	35.52
873.986	23.85
874.153	13.11
874.32	19.3
874.487	22.57
874.654	33.05
874.821	7.79
874.988	20.58
875.155	18.27
875.322	18.04
875.489	17.05
875.656	6.62
875.823	20.66
875.99	28.2
876.157	19.84
876.324	15.56
876.49	16.38
876.657	27.04
876.824	34.05
876.991	31.2
877.157	44.51
877.324	55.12
877.491	64.56
877.658	56.96
877.824	63.59
877.991	91.6
878.157	90.59
878.324	74.31
878.491	59.49
878.657	50.5
878.824	51.82
878.99	36.13
879.157	34.58
879.323	30.96
879.49	39.4
879.656	42.89
879.823	35.19
879.989	38.5
880.156	30.24
880.322	36.53
880.488	30.63
880.655	38.16
880.821	39.63
880.987	37.33
881.154	31.98
881.32	36.98
881.486	34.13
881.652	35.95
881.819	38.19
881.985	40.3
882.151	41.8
882.317	43.96
882.483	40.86
882.649	39.17
882.816	40.2
882.982	40.96
883.148	37.61
883.314	36.76
883.48	35.27
883.646	35.51
883.812	35.13
883.978	34.34
884.144	31.77
884.31	30.82
884.476	32.72
884.642	34.46
884.807	34.69
884.973	32.8
885.139	32.65
885.305	32.69
885.471	31.68
885.637	33.28
885.802	31.19
885.968	32.34
886.134	33.85
886.3	32.61
886.465	29.02
886.631	29.69
886.797	32.54
886.962	34.87
887.128	38.53
887.293	36.27
887.459	34.19
887.625	36.28
887.79	34.17
887.956	28.4
888.121	24.27
888.287	24.23
888.452	20.71
888.618	16.82
888.783	6.54
