Data from CB_032_Reflection_21-21-49-544.txt Node
Date: Wed Nov 11 21:21:49 EST 2015
User: robert
Spectrometer: USB4E03001
Autoset integration time: false
Trigger mode: 4
Integration Time (sec): 1.000000E-1
Scans to average: 15
Electric dark correction enabled: true
Nonlinearity correction enabled: false
Boxcar width: 5
Stray light correction enabled: false
XAxis mode: Wavelengths
Stop averaging: false
Number of Pixels in Spectrum: 3648
>>>>>Begin Spectral Data<<<<<
177.566	73.08
177.785	448.03
178.005	-256.11
178.225	-935.84
178.445	206.12
178.665	133.12
178.885	504.63
179.105	39.15
179.324	60.25
179.544	38.03
179.764	30.95
179.984	11.49
180.204	30.17
180.423	42.52
180.643	13.31
180.863	39.77
181.083	28.51
181.302	6.78
181.522	-2.67
181.742	12.2
181.961	28.01
182.181	28.57
182.401	35.7
182.621	25.85
182.84	46.81
183.06	71.78
183.279	85.33
183.499	88.46
183.719	101.09
183.938	102.03
184.158	106.69
184.377	80.6
184.597	87.81
184.816	106.28
185.036	95.9
185.256	66.15
185.475	61.86
185.695	0.49
185.914	-34.31
186.134	-12.82
186.353	20.13
186.572	17.06
186.792	16.62
187.011	5.83
187.231	-0.56
187.45	-68.81
187.67	-36.49
187.889	-9.97
188.108	44.19
188.328	40.82
188.547	31.21
188.766	17.28
188.986	3.55
189.205	-0.59
189.424	21.05
189.644	11.27
189.863	56.54
190.082	71.75
190.302	71.98
190.521	59.93
190.74	83.49
190.959	84.2
191.178	70.18
191.398	64.48
191.617	72.16
191.836	69.31
192.055	61.96
192.274	45.87
192.494	36.94
192.713	39.76
192.932	32.99
193.151	21.05
193.37	19.95
193.589	38.36
193.808	66.67
194.027	74.99
194.246	69.07
194.465	88.75
194.685	94.27
194.904	90.65
195.123	94.39
195.342	94.45
195.561	96.35
195.78	90.42
195.999	111.2
196.218	97.32
196.436	92.91
196.655	98.24
196.874	73.73
197.093	67.66
197.312	71.92
197.531	57.59
197.75	71.33
197.969	72.47
198.188	75.31
198.407	48.1
198.625	31.63
198.844	39.5
199.063	46.1
199.282	45.21
199.501	53.71
199.719	69.13
199.938	82.63
200.157	120.71
200.376	82.7
200.594	112.38
200.813	109.54
201.032	113.48
201.251	141.27
201.469	100.85
201.688	77.26
201.907	46.78
202.125	15.29
202.344	10.06
202.563	12.17
202.781	18
203	15.8
203.218	13.45
203.437	44.19
203.656	45.26
203.874	42.49
204.093	52.06
204.311	65.48
204.53	81.46
204.748	76.63
204.967	73.26
205.185	65.08
205.404	78.92
205.622	80.04
205.841	65.21
206.059	38.5
206.278	47.39
206.496	35.33
206.715	39.75
206.933	42.22
207.151	33.42
207.37	20.26
207.588	17.26
207.806	10.23
208.025	15.49
208.243	-2.93
208.461	8.92
208.68	9.16
208.898	17.56
209.116	6.69
209.335	14.02
209.553	10.77
209.771	17.3
209.989	25.76
210.208	12.3
210.426	3.18
210.644	7.67
210.862	3.18
211.081	12.72
211.299	15.82
211.517	32.18
211.735	13.71
211.953	21.06
212.171	30.26
212.39	40.21
212.608	45.65
212.826	45.7
213.044	64.09
213.262	63.1
213.48	59.6
213.698	60.71
213.916	45.93
214.134	65.24
214.352	53.91
214.57	57.01
214.788	56.89
215.006	45.52
215.224	27.25
215.442	-28.7
215.66	-1.36
215.878	9.9
216.096	19.54
216.314	31.51
216.532	43.13
216.75	57.05
216.968	45.55
217.185	33.66
217.403	50.08
217.621	42.61
217.839	48.41
218.057	49.72
218.275	68.7
218.492	68.4
218.71	65.43
218.928	61.45
219.146	64.28
219.363	67.71
219.581	92.18
219.799	70.36
220.017	97.82
220.234	83.14
220.452	57.04
220.67	35.18
220.887	19.59
221.105	8.86
221.323	-21.49
221.54	-45.8
221.758	-11.41
221.976	-10.59
222.193	-4.71
222.411	-10.69
222.629	-8.76
222.846	-9.56
223.064	-18.53
223.281	-9.88
223.499	-4.02
223.716	1.99
223.934	15.54
224.151	3.52
224.369	-5.11
224.586	-7.95
224.804	-3.54
225.021	-5.98
225.239	10.32
225.456	17.86
225.674	15.75
225.891	20.94
226.108	33
226.326	25.29
226.543	33.26
226.76	34.62
226.978	30.39
227.195	32.27
227.413	31.3
227.63	26.14
227.847	24.52
228.064	20.78
228.282	18.18
228.499	16.43
228.716	14.5
228.934	12.62
229.151	12.34
229.368	11.74
229.585	11.64
229.802	10.32
230.02	6.93
230.237	4.14
230.454	6.29
230.671	5.7
230.888	4.7
231.105	8.33
231.323	12.95
231.54	15.37
231.757	14.88
231.974	10.15
232.191	8.75
232.408	6.97
232.625	10.86
232.842	8.49
233.059	12.51
233.276	14.9
233.493	8.45
233.71	5.15
233.927	3.73
234.144	5.44
234.361	12.48
234.578	14.36
234.795	22.93
235.012	19.5
235.229	22.7
235.446	22.47
235.663	17.09
235.879	17.93
236.096	15.41
236.313	16
236.53	15.25
236.747	15.49
236.964	13.55
237.181	10.93
237.397	9.83
237.614	10.08
237.831	3.8
238.048	7.65
238.264	8.86
238.481	10.54
238.698	12.61
238.915	17.22
239.131	16.67
239.348	19.36
239.565	18.08
239.781	19.61
239.998	18.16
240.215	21.78
240.431	23.56
240.648	23.87
240.865	20.85
241.081	22.83
241.298	19.71
241.514	16.93
241.731	16.16
241.947	13.34
242.164	14.92
242.38	14.28
242.597	14.18
242.814	13.68
243.03	12.38
243.246	13.52
243.463	11.36
243.679	10.74
243.896	12.49
244.112	12.58
244.329	15.61
244.545	12.41
244.762	13.58
244.978	13.81
245.194	12.18
245.411	12.01
245.627	11.85
245.843	13.01
246.06	13.4
246.276	11.42
246.492	9.66
246.709	8.85
246.925	10.66
247.141	10.97
247.357	10.09
247.574	9.9
247.79	10.53
248.006	11.12
248.222	10.85
248.439	10.91
248.655	11.94
248.871	12.73
249.087	12.63
249.303	12.17
249.519	10.95
249.736	10.13
249.952	10.53
250.168	10.21
250.384	8.24
250.6	7.56
250.816	9.33
251.032	6.36
251.248	9.3
251.464	9.33
251.68	10.47
251.896	11.11
252.112	12
252.328	12.55
252.544	12.88
252.76	13.02
252.976	13.56
253.192	11.67
253.408	13.11
253.624	12.28
253.84	12.95
254.056	13.25
254.272	16.43
254.487	16.84
254.703	16.26
254.919	15.22
255.135	16.7
255.351	16.45
255.567	16.63
255.782	16.54
255.998	13.79
256.214	14.37
256.43	14.4
256.646	8.48
256.861	9.49
257.077	9.24
257.293	7.37
257.508	6.48
257.724	8.24
257.94	8.56
258.155	9.85
258.371	9.61
258.587	10.39
258.802	10.77
259.018	12.25
259.234	10.44
259.449	10.56
259.665	10.9
259.88	11.28
260.096	10.43
260.312	10.54
260.527	10.28
260.743	10.8
260.958	10.44
261.174	9.98
261.389	9.04
261.605	10.3
261.82	10.83
262.036	11.43
262.251	11.18
262.466	12.13
262.682	11.74
262.897	11.12
263.113	10.06
263.328	11.12
263.543	10.27
263.759	11.12
263.974	11.73
264.189	10.66
264.405	9.74
264.62	9.76
264.835	9.96
265.051	10.83
265.266	11.29
265.481	11.05
265.696	8.97
265.912	8.9
266.127	9.44
266.342	8.55
266.557	8.46
266.773	8.11
266.988	8.23
267.203	6.45
267.418	7.14
267.633	8.02
267.848	10.71
268.064	10.56
268.279	10.66
268.494	9.69
268.709	10.82
268.924	11.95
269.139	12.52
269.354	13.09
269.569	13.12
269.784	12.59
269.999	12.23
270.214	10.34
270.429	11.03
270.644	11.04
270.859	12.17
271.074	10.12
271.289	10.1
271.504	10.71
271.719	9.98
271.934	10.26
272.149	10.11
272.363	10.27
272.578	11.68
272.793	12.79
273.008	12.26
273.223	10.31
273.438	11.06
273.653	11.47
273.867	11.71
274.082	12.7
274.297	13.59
274.512	13.91
274.726	12.28
274.941	10.76
275.156	10.22
275.371	10.28
275.585	12.47
275.8	11.95
276.015	11.16
276.229	10.48
276.444	9.87
276.659	8.99
276.873	9.22
277.088	10.97
277.302	11.14
277.517	10.1
277.732	11.08
277.946	9.53
278.161	11.1
278.375	11.82
278.59	11.89
278.804	11.69
279.019	12.28
279.233	10.51
279.448	8.79
279.662	9.8
279.877	8.93
280.091	8.23
280.306	9.38
280.52	8.28
280.735	8.88
280.949	8.14
281.163	7.99
281.378	7.34
281.592	8.3
281.806	10.11
282.021	8.26
282.235	8.93
282.449	9.15
282.664	9.54
282.878	8.8
283.092	7.84
283.307	8.47
283.521	9.25
283.735	9.54
283.949	9.96
284.164	8.95
284.378	9.04
284.592	9.56
284.806	9.39
285.02	8.64
285.234	9.99
285.449	9.85
285.663	10.16
285.877	10.03
286.091	10.15
286.305	9.8
286.519	9.79
286.733	10.17
286.947	10.18
287.161	10.39
287.375	10.39
287.589	10.72
287.803	11.1
288.017	10.55
288.231	10.2
288.445	10
288.659	9.44
288.873	10.25
289.087	10.35
289.301	10.67
289.515	11.47
289.729	12.42
289.943	11.75
290.157	11.71
290.371	11.13
290.584	11.83
290.798	11.92
291.012	13.35
291.226	13.94
291.44	13.15
291.654	11.78
291.867	10.29
292.081	9.4
292.295	9.67
292.509	8.98
292.722	9.98
292.936	9.11
293.15	9.97
293.364	8.48
293.577	7.99
293.791	8.99
294.005	9.32
294.218	10.25
294.432	10.83
294.645	10.52
294.859	10.56
295.073	9.43
295.286	9.11
295.5	8.69
295.713	9.2
295.927	8.33
296.14	8.33
296.354	8.17
296.568	7.81
296.781	7.71
296.994	8.41
297.208	9.33
297.421	9.85
297.635	10.1
297.848	10.12
298.062	9.97
298.275	10.82
298.489	10.74
298.702	12.43
298.915	13.12
299.129	14.64
299.342	14.22
299.555	14.63
299.769	15.83
299.982	16.24
300.195	15.55
300.409	16.1
300.622	16.64
300.835	17
301.048	15.12
301.262	14.67
301.475	13.48
301.688	13.28
301.901	12.62
302.115	12.09
302.328	12.16
302.541	12.07
302.754	11.89
302.967	10.86
303.18	11.78
303.393	12.82
303.607	12.96
303.82	13.25
304.033	13.71
304.246	13.02
304.459	13.55
304.672	12.86
304.885	14.27
305.098	14.12
305.311	14.47
305.524	13.33
305.737	13.56
305.95	14.33
306.163	14.2
306.376	14.93
306.589	16.05
306.802	15.69
307.015	17.12
307.228	16.52
307.44	16.77
307.653	18.1
307.866	19.56
308.079	19.42
308.292	17.86
308.505	17.4
308.718	16.41
308.93	16.51
309.143	15.94
309.356	15.41
309.569	16.17
309.781	15.99
309.994	14.62
310.207	14.14
310.42	13.37
310.632	15.61
310.845	15.94
311.058	16.23
311.27	16.01
311.483	16.06
311.696	16.02
311.908	16.4
312.121	16.4
312.333	16.08
312.546	15.9
312.759	16.49
312.971	14.1
313.184	13.37
313.396	12.85
313.609	12.41
313.821	12.32
314.034	12.13
314.246	10.67
314.459	12.08
314.671	12.57
314.884	13.36
315.096	14.3
315.309	15.68
315.521	16.95
315.733	17.3
315.946	16.56
316.158	16.51
316.371	17.05
316.583	17.3
316.795	15.86
317.008	16.86
317.22	17.23
317.432	16.97
317.644	17.23
317.857	16.78
318.069	16.88
318.281	17.04
318.494	17.77
318.706	18.3
318.918	19.23
319.13	20.18
319.342	19.64
319.555	18.58
319.767	18.52
319.979	17.6
320.191	17.23
320.403	17.94
320.615	17.98
320.827	17.9
321.039	16.85
321.252	15.92
321.464	14.41
321.676	13.91
321.888	14.23
322.1	13.28
322.312	14.17
322.524	15.09
322.736	14.95
322.948	15.86
323.16	15.59
323.372	15.64
323.584	15.98
323.796	17.33
324.007	17.6
324.219	17.53
324.431	18.11
324.643	18.32
324.855	18.17
325.067	18.09
325.279	17.97
325.491	18.26
325.702	18.84
325.914	19.24
326.126	19
326.338	18.4
326.55	19.02
326.761	19.71
326.973	20.08
327.185	19.49
327.396	19.57
327.608	20.23
327.82	20.81
328.032	21.96
328.243	21.7
328.455	22.13
328.666	23.05
328.878	22.56
329.09	22.13
329.301	21.26
329.513	21.41
329.725	21.3
329.936	21.27
330.148	21.07
330.359	19.61
330.571	19.78
330.782	19.85
330.994	20.11
331.205	20.36
331.417	20.58
331.628	20.99
331.84	21.08
332.051	21.01
332.262	21.06
332.474	21.8
332.685	22.47
332.897	22.86
333.108	23.8
333.319	23.01
333.531	23.29
333.742	23.92
333.953	23.64
334.165	23.37
334.376	24.19
334.587	24.36
334.799	24.47
335.01	24.47
335.221	24.49
335.432	24.44
335.644	25.56
335.855	26.08
336.066	25.89
336.277	26.47
336.488	26.74
336.7	26.34
336.911	26.27
337.122	25.67
337.333	25.41
337.544	25.09
337.755	24.27
337.966	23.97
338.177	22.72
338.388	21.86
338.599	22.07
338.811	21.67
339.022	21.48
339.233	21.6
339.444	21.72
339.655	21.53
339.866	22.6
340.076	21.98
340.287	22.07
340.498	23.19
340.709	24.21
340.92	23.88
341.131	24.52
341.342	24.71
341.553	24.42
341.764	24.45
341.975	24.44
342.185	23.53
342.396	24.11
342.607	23.59
342.818	22.64
343.029	22.06
343.239	22.13
343.45	21.39
343.661	20.81
343.872	20.76
344.082	20.23
344.293	20.69
344.504	20.37
344.714	20.33
344.925	20.59
345.136	21.17
345.346	21.8
345.557	21.12
345.768	21.43
345.978	21.88
346.189	22.62
346.399	22.68
346.61	22.77
346.821	23.12
347.031	22.66
347.242	22.71
347.452	22.68
347.663	22.59
347.873	23.37
348.084	23.89
348.294	24.07
348.504	23.17
348.715	23.31
348.925	22.97
349.136	22.62
349.346	22.81
349.557	22.54
349.767	23.06
349.977	22.29
350.188	21.87
350.398	21.7
350.608	21.96
350.819	22
351.029	21.55
351.239	20.87
351.449	21.05
351.66	20.98
351.87	22.31
352.08	21.35
352.29	21.75
352.501	22.7
352.711	23.2
352.921	22.79
353.131	23.21
353.341	23.87
353.552	24.66
353.762	24.57
353.972	25.19
354.182	23.34
354.392	23.14
354.602	22.76
354.812	21.6
355.022	21.14
355.232	20.63
355.442	20.08
355.652	19.72
355.862	19.31
356.072	19.11
356.282	18.59
356.492	19.56
356.702	19.94
356.912	19.64
357.122	19.84
357.332	20.02
357.542	20.47
357.752	20.43
357.962	20.33
358.171	20.53
358.381	20.89
358.591	20.57
358.801	20.36
359.011	20.13
359.221	20.2
359.43	20.73
359.64	19.55
359.85	19.33
360.06	19.2
360.269	19.57
360.479	19.92
360.689	19.79
360.899	19.95
361.108	20.39
361.318	20.36
361.528	20.37
361.737	20.08
361.947	20.49
362.156	20.11
362.366	20.49
362.576	20.08
362.785	19.58
362.995	19.72
363.204	19.72
363.414	19.54
363.623	19.53
363.833	19.47
364.042	18.89
364.252	19.53
364.461	19.82
364.671	19.65
364.88	19.92
365.09	19.78
365.299	19.44
365.509	19.17
365.718	19.12
365.927	19.12
366.137	18.83
366.346	19.18
366.555	18.93
366.765	18.9
366.974	18.86
367.183	18.77
367.393	19.36
367.602	19.17
367.811	19.4
368.021	18.67
368.23	18.46
368.439	18.88
368.648	19.08
368.857	18.32
369.067	18.36
369.276	17.64
369.485	17.43
369.694	17.08
369.903	17.38
370.112	17.13
370.321	17.57
370.531	17.68
370.74	17.87
370.949	17.26
371.158	17.24
371.367	17.06
371.576	17.53
371.785	17.67
371.994	17.47
372.203	17.18
372.412	17.41
372.621	17.15
372.83	16.98
373.039	16.91
373.248	16.97
373.457	16.62
373.666	16.75
373.874	16.35
374.083	15.45
374.292	15.4
374.501	15.39
374.71	15.22
374.919	15.1
375.128	15.26
375.336	15.22
375.545	15.16
375.754	16.07
375.963	15.81
376.171	15.86
376.38	15.82
376.589	15.95
376.798	15.88
377.006	15.55
377.215	15.77
377.424	15.85
377.632	15.91
377.841	15.51
378.05	14.89
378.258	14.87
378.467	14.57
378.675	15.49
378.884	15.29
379.093	15.24
379.301	15.3
379.51	15.02
379.718	14.51
379.927	13.86
380.135	13.89
380.344	13.92
380.552	14.25
380.761	14.17
380.969	13.38
381.177	13.32
381.386	13.18
381.594	13.1
381.803	13.18
382.011	13.36
382.219	13.57
382.428	13.72
382.636	13.45
382.845	13.1
383.053	13.43
383.261	13.49
383.469	13.3
383.678	12.91
383.886	12.84
384.094	12.44
384.302	12.59
384.511	12.53
384.719	12.71
384.927	12.98
385.135	12.86
385.343	12.64
385.552	12.9
385.76	12.85
385.968	12.88
386.176	13.22
386.384	13.29
386.592	12.91
386.8	12.67
387.008	12.39
387.216	12.13
387.424	12.41
387.633	12.06
387.841	11.65
388.049	11.33
388.257	11.46
388.465	11.16
388.672	11.32
388.88	11.31
389.088	11.15
389.296	11.27
389.504	11.24
389.712	10.54
389.92	10.99
390.128	11.16
390.336	11.27
390.544	11.52
390.751	11.17
390.959	11.12
391.167	11.15
391.375	11.1
391.583	11.15
391.79	10.87
391.998	11.32
392.206	11.3
392.414	11.3
392.621	10.84
392.829	10.52
393.037	10.62
393.244	10.55
393.452	10.67
393.66	10.86
393.867	10.86
394.075	11.39
394.283	11.18
394.49	11.15
394.698	10.94
394.905	11.38
395.113	11.45
395.32	11.71
395.528	11.48
395.735	11.35
395.943	11.24
396.15	10.99
396.358	10.73
396.565	11.01
396.773	10.78
396.98	10.82
397.188	10.87
397.395	10.84
397.602	10.81
397.81	10.84
398.017	10.43
398.225	10.31
398.432	10.16
398.639	9.97
398.847	9.35
399.054	9.46
399.261	9.36
399.468	9.29
399.676	9.06
399.883	8.57
400.09	8.23
400.297	8.41
400.505	8.35
400.712	8.66
400.919	8.67
401.126	8.76
401.333	8.68
401.54	8.53
401.748	8.29
401.955	8.49
402.162	8.97
402.369	9.36
402.576	9.5
402.783	9.5
402.99	9.02
403.197	9.06
403.404	9.16
403.611	9.31
403.818	9.23
404.025	9.15
404.232	9.25
404.439	8.84
404.646	8.62
404.853	8.27
405.06	8.32
405.267	8.4
405.474	8.35
405.681	8.11
405.887	8.11
406.094	8.31
406.301	8.36
406.508	8.26
406.715	8.48
406.922	8.42
407.128	8.71
407.335	8.3
407.542	8.29
407.749	8.38
407.955	8.48
408.162	8.05
408.369	7.72
408.575	7.89
408.782	7.92
408.989	7.84
409.195	7.81
409.402	7.71
409.609	7.72
409.815	7.54
410.022	7.31
410.228	7.25
410.435	7.31
410.642	7.51
410.848	7.3
411.055	7.29
411.261	6.94
411.468	6.97
411.674	6.9
411.881	6.95
412.087	7.11
412.294	7.22
412.5	7.44
412.706	7.56
412.913	7.32
413.119	7.2
413.326	6.79
413.532	7.11
413.738	7.31
413.945	7.06
414.151	6.88
414.357	6.72
414.564	6.64
414.77	6.3
414.976	6.31
415.182	6.49
415.389	6.46
415.595	6.59
415.801	6.46
416.007	6.42
416.214	6.36
416.42	6.69
416.626	6.93
416.832	6.79
417.038	7.03
417.244	6.93
417.45	6.86
417.657	7.07
417.863	7.21
418.069	7.16
418.275	7.2
418.481	7.31
418.687	7.33
418.893	7.2
419.099	7.43
419.305	7.2
419.511	7.25
419.717	7.46
419.923	7.44
420.129	7.27
420.335	7.3
420.541	7.28
420.746	7.3
420.952	7.14
421.158	7.08
421.364	6.8
421.57	6.74
421.776	6.7
421.982	6.43
422.187	6.33
422.393	6.29
422.599	6.19
422.805	5.96
423.01	5.92
423.216	5.89
423.422	5.89
423.628	6.07
423.833	6.05
424.039	5.99
424.245	6.13
424.45	6.22
424.656	6.3
424.862	6.47
425.067	6.83
425.273	6.91
425.478	6.99
425.684	6.98
425.889	6.85
426.095	7.07
426.301	7.06
426.506	7.02
426.712	6.88
426.917	6.85
427.123	6.64
427.328	6.26
427.533	6.14
427.739	6.12
427.944	6.14
428.15	6.15
428.355	6.03
428.561	6.14
428.766	6.18
428.971	6.51
429.177	6.65
429.382	6.72
429.587	6.6
429.793	6.55
429.998	6.43
430.203	6.47
430.408	6.66
430.614	6.8
430.819	6.57
431.024	6.52
431.229	6.19
431.434	5.91
431.64	6.21
431.845	6.33
432.05	6.46
432.255	6.63
432.46	6.42
432.665	6.26
432.87	6.25
433.076	6.46
433.281	6.47
433.486	6.39
433.691	6.32
433.896	6.05
434.101	5.94
434.306	5.91
434.511	5.85
434.716	6.15
434.921	6.22
435.126	5.97
435.331	5.78
435.535	5.63
435.74	5.76
435.945	5.73
436.15	5.97
436.355	6.08
436.56	6
436.765	5.85
436.97	5.85
437.174	5.72
437.379	5.94
437.584	5.97
437.789	6.11
437.993	6.24
438.198	6.35
438.403	6.18
438.608	6.18
438.812	6.18
439.017	6.42
439.222	6.22
439.426	6.38
439.631	6.29
439.836	6.31
440.04	6.08
440.245	5.87
440.45	5.97
440.654	6.01
440.859	6.07
441.063	6
441.268	5.99
441.472	6.14
441.677	6.08
441.881	6.27
442.086	6.32
442.29	6.49
442.495	6.6
442.699	6.51
442.904	6.47
443.108	6.38
443.312	6.52
443.517	6.36
443.721	6.33
443.925	6.29
444.13	6.04
444.334	6
444.538	6.03
444.743	5.87
444.947	5.89
445.151	5.85
445.356	5.83
445.56	5.75
445.764	5.93
445.968	5.78
446.173	5.8
446.377	5.83
446.581	5.75
446.785	5.62
446.989	5.66
447.193	5.75
447.398	5.73
447.602	5.65
447.806	5.64
448.01	5.52
448.214	5.55
448.418	5.55
448.622	5.57
448.826	5.46
449.03	5.61
449.234	5.69
449.438	5.53
449.642	5.42
449.846	5.56
450.05	5.77
450.254	5.6
450.458	5.77
450.662	5.68
450.866	5.63
451.069	5.77
451.273	5.56
451.477	5.42
451.681	5.3
451.885	5.22
452.089	5.09
452.292	5.01
452.496	5.05
452.7	4.98
452.904	4.99
453.107	5.13
453.311	5.18
453.515	5.29
453.719	5.36
453.922	5.36
454.126	5.56
454.33	5.6
454.533	5.59
454.737	5.87
454.94	5.65
455.144	5.42
455.348	5.42
455.551	5.46
455.755	5.34
455.958	5.38
456.162	5.59
456.365	5.68
456.569	5.73
456.772	5.81
456.976	5.44
457.179	5.45
457.383	5.72
457.586	5.48
457.79	5.26
457.993	5.31
458.196	5.35
458.4	5.31
458.603	5.08
458.807	5.11
459.01	4.98
459.213	5.19
459.417	5.35
459.62	5.43
459.823	5.54
460.026	5.72
460.23	5.74
460.433	5.7
460.636	5.77
460.839	5.96
461.042	5.99
461.246	6.02
461.449	5.93
461.652	5.8
461.855	5.68
462.058	5.63
462.261	5.57
462.464	5.67
462.668	5.7
462.871	5.69
463.074	5.5
463.277	5.53
463.48	5.71
463.683	5.75
463.886	5.72
464.089	5.74
464.292	5.73
464.495	5.53
464.698	5.5
464.901	5.42
465.104	5.47
465.306	5.53
465.509	5.47
465.712	5.28
465.915	5.36
466.118	5.54
466.321	5.5
466.524	5.52
466.726	5.74
466.929	5.84
467.132	5.81
467.335	5.79
467.538	5.99
467.74	6.06
467.943	6.11
468.146	6.07
468.348	5.9
468.551	5.82
468.754	5.86
468.956	5.72
469.159	5.64
469.362	5.64
469.564	5.73
469.767	5.43
469.969	5.36
470.172	5.34
470.375	5.44
470.577	5.63
470.78	5.79
470.982	5.77
471.185	6.04
471.387	6.02
471.59	6.11
471.792	5.81
471.995	5.77
472.197	5.87
472.399	5.6
472.602	5.48
472.804	5.61
473.007	5.73
473.209	5.75
473.411	5.6
473.614	5.41
473.816	5.22
474.018	5.5
474.22	5.76
474.423	5.63
474.625	5.78
474.827	5.96
475.03	5.81
475.232	5.58
475.434	5.61
475.636	5.42
475.838	5.45
476.04	5.51
476.243	5.28
476.445	5.09
476.647	5.3
476.849	5.42
477.051	5.2
477.253	5.17
477.455	5.13
477.657	5.08
477.859	5.07
478.061	5.39
478.263	5.5
478.465	5.67
478.667	5.68
478.869	5.45
479.071	5.37
479.273	5.53
479.475	5.52
479.677	5.74
479.879	5.72
480.081	5.86
480.283	5.53
480.485	5.59
480.686	5.39
480.888	5.47
481.09	5.67
481.292	5.75
481.494	5.57
481.695	5.59
481.897	5.49
482.099	5.48
482.301	5.56
482.502	5.65
482.704	5.64
482.906	5.67
483.107	5.62
483.309	5.51
483.511	5.44
483.712	5.46
483.914	5.46
484.115	5.42
484.317	5.39
484.519	5.39
484.72	5.39
484.922	5.33
485.123	5.34
485.325	5.3
485.526	5.33
485.728	5.36
485.929	5.33
486.131	5.31
486.332	5.38
486.534	5.42
486.735	5.37
486.936	5.36
487.138	5.44
487.339	5.4
487.541	5.49
487.742	5.49
487.943	5.54
488.144	5.56
488.346	5.49
488.547	5.47
488.748	5.48
488.95	5.46
489.151	5.37
489.352	5.27
489.553	5.35
489.755	5.3
489.956	5.29
490.157	5.26
490.358	5.25
490.559	5.37
490.76	5.41
490.961	5.37
491.163	5.44
491.364	5.5
491.565	5.53
491.766	5.57
491.967	5.65
492.168	5.59
492.369	5.58
492.57	5.57
492.771	5.54
492.972	5.5
493.173	5.56
493.374	5.57
493.575	5.6
493.776	5.55
493.976	5.43
494.177	5.25
494.378	5.38
494.579	5.49
494.78	5.56
494.981	5.54
495.182	5.42
495.382	5.53
495.583	5.44
495.784	5.43
495.985	5.46
496.185	5.51
496.386	5.67
496.587	5.61
496.788	5.43
496.988	5.34
497.189	5.36
497.39	5.56
497.59	5.47
497.791	5.6
497.992	5.7
498.192	5.78
498.393	5.66
498.593	5.7
498.794	5.78
498.994	5.79
499.195	5.88
499.395	5.95
499.596	5.88
499.796	5.92
499.997	6.06
500.197	6.23
500.398	6.31
500.598	6.53
500.799	6.47
500.999	6.4
501.199	6.49
501.4	6.65
501.6	6.7
501.801	6.64
502.001	6.67
502.201	6.57
502.402	6.45
502.602	6.57
502.802	6.58
503.002	6.67
503.203	6.66
503.403	6.7
503.603	6.77
503.803	7.04
504.003	7.19
504.204	7.3
504.404	7.42
504.604	7.3
504.804	7.32
505.004	7.49
505.204	7.55
505.404	7.78
505.604	7.84
505.804	7.79
506.005	7.69
506.205	7.87
506.405	7.85
506.605	7.85
506.805	8.05
507.005	8.08
507.204	8.09
507.404	8.31
507.604	8.34
507.804	8.56
508.004	8.64
508.204	8.6
508.404	8.63
508.604	8.73
508.804	8.8
509.003	9.06
509.203	9.24
509.403	9.24
509.603	9.29
509.803	9.37
510.002	9.41
510.202	9.4
510.402	9.6
510.602	9.75
510.801	9.8
511.001	9.78
511.201	9.7
511.4	9.65
511.6	9.83
511.8	9.72
511.999	9.76
512.199	9.82
512.398	10.02
512.598	10.06
512.797	10.12
512.997	10.36
513.197	10.41
513.396	10.43
513.596	10.47
513.795	10.5
513.994	10.74
514.194	10.78
514.393	10.71
514.593	10.7
514.792	10.86
514.992	11.01
515.191	10.98
515.39	11.16
515.59	11.35
515.789	11.44
515.988	11.54
516.188	11.52
516.387	11.63
516.586	11.98
516.786	12.13
516.985	12.2
517.184	12.08
517.383	12.17
517.582	12.23
517.782	12.22
517.981	12.37
518.18	12.49
518.379	12.59
518.578	12.7
518.777	12.65
518.976	12.87
519.176	12.83
519.375	12.99
519.574	13.17
519.773	13.36
519.972	13.54
520.171	13.56
520.37	13.68
520.569	13.78
520.768	13.83
520.967	14.06
521.166	14.11
521.365	14.31
521.564	14.54
521.762	14.51
521.961	14.45
522.16	14.52
522.359	14.56
522.558	14.52
522.757	14.6
522.956	14.79
523.154	14.64
523.353	14.64
523.552	14.7
523.751	14.67
523.949	14.83
524.148	14.99
524.347	15.16
524.546	15.48
524.744	15.58
524.943	15.67
525.142	15.77
525.34	15.97
525.539	16.01
525.737	16.01
525.936	16.02
526.135	16.15
526.333	16.24
526.532	16.3
526.73	16.22
526.929	16.26
527.127	16.32
527.326	16.43
527.524	16.51
527.723	16.59
527.921	16.68
528.12	16.81
528.318	16.8
528.516	16.78
528.715	16.81
528.913	16.84
529.112	16.88
529.31	16.86
529.508	16.81
529.707	16.84
529.905	16.82
530.103	16.86
530.301	16.8
530.5	16.86
530.698	16.96
530.896	17.03
531.094	17.19
531.293	17.28
531.491	17.43
531.689	17.62
531.887	17.66
532.085	17.92
532.283	17.97
532.481	18.06
532.68	18.11
532.878	18.12
533.076	18.14
533.274	18.12
533.472	18.14
533.67	18.32
533.868	18.37
534.066	18.46
534.264	18.39
534.462	18.49
534.66	18.51
534.858	18.55
535.056	18.66
535.253	18.78
535.451	18.93
535.649	19.01
535.847	18.87
536.045	18.91
536.243	18.84
536.441	18.96
536.638	19.04
536.836	19.19
537.034	19.21
537.232	19.25
537.43	19.14
537.627	19.15
537.825	19.34
538.023	19.38
538.22	19.42
538.418	19.6
538.616	19.55
538.813	19.71
539.011	19.79
539.209	20
539.406	19.98
539.604	20.18
539.801	20.18
539.999	20.15
540.196	20.33
540.394	20.38
540.591	20.47
540.789	20.58
540.986	20.44
541.184	20.45
541.381	20.44
541.579	20.58
541.776	20.59
541.974	20.71
542.171	20.76
542.368	20.75
542.566	20.77
542.763	20.83
542.96	20.81
543.158	20.97
543.355	21.05
543.552	21.11
543.75	21.24
543.947	21.26
544.144	21.28
544.341	21.33
544.539	21.39
544.736	21.39
544.933	21.41
545.13	21.62
545.327	21.74
545.524	21.66
545.722	21.69
545.919	21.64
546.116	21.72
546.313	21.72
546.51	21.73
546.707	21.85
546.904	22.06
547.101	22.03
547.298	22
547.495	21.86
547.692	21.92
547.889	21.99
548.086	22.14
548.283	22.17
548.48	22.27
548.677	22.42
548.874	22.37
549.07	22.38
549.267	22.41
549.464	22.52
549.661	22.67
549.858	22.84
550.055	22.67
550.251	22.43
550.448	22.53
550.645	22.57
550.842	22.38
551.038	22.32
551.235	22.35
551.432	22.4
551.628	22.27
551.825	22.13
552.022	22.13
552.218	22.26
552.415	22.32
552.612	22.45
552.808	22.46
553.005	22.71
553.201	22.79
553.398	22.67
553.594	22.74
553.791	22.82
553.987	22.89
554.184	23.01
554.38	23.04
554.577	23.24
554.773	23.26
554.97	23.29
555.166	23.01
555.362	23
555.559	23
555.755	22.92
555.952	23.06
556.148	23.32
556.344	23.18
556.541	23.17
556.737	23.05
556.933	23.08
557.129	23.16
557.326	23.16
557.522	23.26
557.718	23.25
557.914	23.28
558.11	23.41
558.307	23.35
558.503	23.53
558.699	23.6
558.895	23.65
559.091	23.52
559.287	23.62
559.483	23.78
559.679	23.89
559.876	24.02
560.072	24.13
560.268	23.83
560.464	23.75
560.66	23.78
560.856	23.94
561.052	23.84
561.247	23.68
561.443	23.64
561.639	23.83
561.835	24.11
562.031	23.99
562.227	24.05
562.423	24.1
562.619	24.11
562.815	24.19
563.01	24.11
563.206	24.21
563.402	24.77
563.598	24.72
563.793	24.45
563.989	24.25
564.185	24.37
564.381	24.5
564.576	24.55
564.772	24.39
564.968	24.26
565.163	24.17
565.359	24.08
565.555	23.78
565.75	23.67
565.946	23.74
566.141	23.76
566.337	23.63
566.532	23.62
566.728	23.67
566.923	23.91
567.119	24.05
567.314	24.28
567.51	24.39
567.705	24.47
567.901	24.53
568.096	24.67
568.292	24.59
568.487	24.8
568.682	24.75
568.878	24.96
569.073	25.04
569.268	24.89
569.464	24.94
569.659	24.92
569.854	24.95
570.05	25.26
570.245	25.22
570.44	25.31
570.635	25.41
570.831	25.45
571.026	25.28
571.221	25.25
571.416	25.41
571.611	25.11
571.806	25.22
572.002	25.1
572.197	25.05
572.392	25.13
572.587	25.09
572.782	25.07
572.977	25.09
573.172	25.13
573.367	25.07
573.562	24.89
573.757	25.27
573.952	25.36
574.147	25.52
574.342	25.46
574.537	25.49
574.732	25.67
574.927	25.81
575.121	25.81
575.316	25.94
575.511	25.93
575.706	25.95
575.901	25.82
576.096	25.61
576.29	25.51
576.485	25.53
576.68	25.41
576.875	25.28
577.069	25.21
577.264	25.21
577.459	25.16
577.654	25.43
577.848	25.68
578.043	25.82
578.238	26.01
578.432	26.17
578.627	25.92
578.821	26.12
579.016	26.55
579.21	26.49
579.405	26.44
579.6	26.29
579.794	25.93
579.989	25.88
580.183	25.79
580.378	25.91
580.572	25.72
580.766	26.19
580.961	26.31
581.155	25.89
581.35	25.77
581.544	25.97
581.738	26.11
581.933	26.31
582.127	26.36
582.321	26.24
582.516	26.09
582.71	26.32
582.904	26.08
583.099	25.84
583.293	26.17
583.487	26.45
583.681	26.32
583.875	26.14
584.07	25.99
584.264	26.03
584.458	25.99
584.652	26.07
584.846	25.75
585.04	25.96
585.234	25.91
585.428	25.62
585.623	25.57
585.817	25.93
586.011	26.24
586.205	26.24
586.399	26.26
586.593	26.48
586.787	26.38
586.981	26.45
587.174	26.32
587.368	26.48
587.562	26.62
587.756	26.75
587.95	26.34
588.144	26.22
588.338	26.4
588.532	26.42
588.725	26.15
588.919	26.02
589.113	26.29
589.307	26.32
589.501	26.56
589.694	26.44
589.888	26.35
590.082	26.43
590.275	26.48
590.469	26.38
590.663	26.27
590.856	26.67
591.05	26.81
591.244	26.99
591.437	26.88
591.631	26.82
591.824	26.75
592.018	26.95
592.212	26.9
592.405	26.8
592.599	26.94
592.792	26.98
592.986	26.63
593.179	26.7
593.372	26.46
593.566	26.61
593.759	26.46
593.953	26.59
594.146	26.31
594.339	26.42
594.533	26.46
594.726	26.37
594.92	26.32
595.113	26.45
595.306	26.48
595.499	26.47
595.693	26.33
595.886	26.48
596.079	26.39
596.272	26.32
596.466	26.38
596.659	26.45
596.852	26.51
597.045	26.78
597.238	26.84
597.431	26.69
597.624	26.78
597.818	27.06
598.011	26.85
598.204	27.05
598.397	27.29
598.59	27.34
598.783	27.33
598.976	27.47
599.169	27.14
599.362	27.18
599.555	27.63
599.748	27.38
599.941	27.23
600.134	27.64
600.326	27.53
600.519	27.56
600.712	27.36
600.905	27.37
601.098	27.24
601.291	27.47
601.483	27.44
601.676	27.21
601.869	27.3
602.062	27.2
602.255	26.84
602.447	26.81
602.64	26.95
602.833	27.08
603.025	27.1
603.218	27.06
603.411	27.07
603.603	27.06
603.796	27.2
603.989	27.42
604.181	27.63
604.374	27.58
604.566	27.71
604.759	27.71
604.951	27.74
605.144	27.79
605.336	27.97
605.529	27.95
605.721	27.92
605.914	27.8
606.106	27.8
606.299	27.71
606.491	27.86
606.683	27.84
606.876	27.75
607.068	27.66
607.26	27.74
607.453	27.5
607.645	27.4
607.837	27.43
608.03	27.62
608.222	27.61
608.414	27.62
608.606	27.64
608.799	27.68
608.991	27.76
609.183	27.98
609.375	27.92
609.567	28.14
609.759	28.53
609.952	28.78
610.144	29.07
610.336	29.18
610.528	29.33
610.72	29.67
610.912	29.84
611.104	30.1
611.296	30.21
611.488	30.33
611.68	30.5
611.872	30.54
612.064	30.62
612.256	30.33
612.448	30.44
612.64	30.5
612.832	30.19
613.023	30.04
613.215	29.72
613.407	29.87
613.599	29.88
613.791	29.82
613.983	29.9
614.174	29.65
614.366	29.8
614.558	29.77
614.75	29.7
614.941	29.97
615.133	29.86
615.325	29.96
615.516	29.71
615.708	29.57
615.9	29.39
616.091	29.05
616.283	28.92
616.475	28.54
616.666	28.39
616.858	28.26
617.049	28.22
617.241	28.23
617.432	28.19
617.624	27.88
617.815	27.93
618.007	28.17
618.198	28.2
618.39	28.21
618.581	28.13
618.773	28.18
618.964	27.93
619.155	27.69
619.347	28
619.538	28.28
619.729	28.61
619.921	28.6
620.112	28.59
620.303	28.73
620.494	28.82
620.686	28.98
620.877	29.03
621.068	29.4
621.259	29.56
621.451	29.17
621.642	28.98
621.833	28.96
622.024	29.28
622.215	29.04
622.406	28.95
622.597	28.86
622.788	28.92
622.98	29.08
623.171	29.08
623.362	28.7
623.553	29.01
623.744	28.97
623.935	28.74
624.126	28.36
624.317	28.38
624.508	28.37
624.698	28.4
624.889	28.59
625.08	28.34
625.271	28.5
625.462	28.43
625.653	28.31
625.844	28.4
626.034	28.38
626.225	28.41
626.416	28.48
626.607	28.4
626.798	28.25
626.988	27.95
627.179	27.86
627.37	27.64
627.56	27.93
627.751	27.87
627.942	27.62
628.132	27.87
628.323	27.92
628.514	27.69
628.704	27.68
628.895	27.87
629.085	27.91
629.276	27.71
629.466	27.65
629.657	27.8
629.847	28.14
630.038	28.14
630.228	28.02
630.419	28.22
630.609	28.37
630.8	28.31
630.99	28.34
631.181	28.48
631.371	28.78
631.561	28.94
631.752	29.04
631.942	28.77
632.132	28.81
632.323	28.69
632.513	28.88
632.703	29.06
632.893	29.23
633.084	29.23
633.274	29.31
633.464	29.41
633.654	29.42
633.844	29.07
634.034	29.04
634.225	29
634.415	29.03
634.605	28.79
634.795	28.93
634.985	28.68
635.175	28.86
635.365	28.88
635.555	28.79
635.745	28.95
635.935	29.33
636.125	29.26
636.315	29.1
636.505	29.03
636.695	29
636.885	28.73
637.075	28.74
637.265	28.53
637.455	28.39
637.644	28.25
637.834	27.99
638.024	27.5
638.214	27.54
638.404	27.7
638.593	28.04
638.783	27.96
638.973	27.97
639.163	28.01
639.352	27.87
639.542	28.13
639.732	27.99
639.921	28.14
640.111	28.37
640.301	28.39
640.49	28.83
640.68	29.15
640.87	29.03
641.059	29.33
641.249	29.36
641.438	29.35
641.628	29.26
641.817	29.57
642.007	29.32
642.196	29.51
642.386	29.54
642.575	29.28
642.764	28.57
642.954	28.92
643.143	28.77
643.333	29.19
643.522	29.72
643.711	29.38
643.901	29.56
644.09	29.75
644.279	29.91
644.469	29.77
644.658	29.41
644.847	29.69
645.036	29.75
645.226	29.88
645.415	29.28
645.604	28.85
645.793	29.31
645.982	28.91
646.171	29.05
646.361	28.43
646.55	28.74
646.739	29.1
646.928	29.13
647.117	28.59
647.306	28.36
647.495	28.86
647.684	28.89
647.873	28.5
648.062	28.92
648.251	28.5
648.44	28.81
648.629	28.91
648.818	28.75
649.007	28.44
649.196	28.72
649.384	28.86
649.573	28.54
649.762	28.47
649.951	28.59
650.14	28.39
650.328	28.76
650.517	29.06
650.706	29.15
650.895	29.28
651.083	29.31
651.272	29.31
651.461	29.12
651.65	29.3
651.838	29.41
652.027	29.36
652.216	29.38
652.404	29.43
652.593	29.52
652.781	28.97
652.97	28.86
653.158	29.1
653.347	29.3
653.535	29.59
653.724	29.7
653.912	29.7
654.101	29.8
654.289	30.01
654.478	30.04
654.666	29.5
654.855	29.81
655.043	30.09
655.231	29.88
655.42	29.71
655.608	29.64
655.796	29.38
655.985	29.39
656.173	29.16
656.361	29.04
656.55	28.45
656.738	28.47
656.926	28.52
657.114	27.91
657.302	28.25
657.491	28.6
657.679	28.69
657.867	28.86
658.055	28.55
658.243	28.98
658.431	29.03
658.619	29.62
658.807	29.72
658.996	29.47
659.184	29.94
659.372	29.44
659.56	29.4
659.748	29.34
659.936	28.83
660.124	29.19
660.311	28.88
660.499	28.58
660.687	28.49
660.875	28.63
661.063	28.9
661.251	28.67
661.439	29.39
661.627	29.16
661.814	29.26
662.002	29.82
662.19	29.93
662.378	30.28
662.565	30.68
662.753	30.46
662.941	30.45
663.129	30.29
663.316	30.49
663.504	29.75
663.692	29.59
663.879	29.2
664.067	29.17
664.254	29.21
664.442	29.03
664.63	29
664.817	29.51
665.005	29.37
665.192	29.48
665.38	29.5
665.567	29.76
665.755	29.74
665.942	30.46
666.13	30.47
666.317	30.19
666.504	30.27
666.692	30.2
666.879	29.55
667.067	29.44
667.254	29.43
667.441	29.68
667.629	29.79
667.816	29.77
668.003	29.17
668.19	29.19
668.378	29.46
668.565	29.57
668.752	29.16
668.939	29.67
669.127	29.73
669.314	30.14
669.501	29.96
669.688	29.97
669.875	30.43
670.062	30.88
670.249	30.8
670.436	30.61
670.623	30.8
670.81	31.41
670.997	31.41
671.184	31.39
671.371	30.84
671.558	30.39
671.745	30.54
671.932	30.23
672.119	29.92
672.306	30.05
672.493	29.87
672.68	29.22
672.867	29.15
673.054	28.68
673.24	28.1
673.427	28.55
673.614	29.26
673.801	29.42
673.988	30.05
674.174	30
674.361	29.62
674.548	30.23
674.734	30.16
674.921	30.12
675.108	29.87
675.294	30.5
675.481	30.16
675.668	29.98
675.854	29.81
676.041	29.08
676.227	28.79
676.414	28.78
676.601	28.22
676.787	28.52
676.974	28.32
677.16	29.11
677.347	28.96
677.533	29.33
677.719	29.31
677.906	29.13
678.092	29.46
678.279	30.18
678.465	30.6
678.651	30.81
678.838	30.58
679.024	30.51
679.21	29.94
679.397	30.24
679.583	29.91
679.769	29.82
679.955	29.72
680.142	29.51
680.328	29.3
680.514	29.17
680.7	29.7
680.886	30.09
681.073	30.23
681.259	30.12
681.445	29.89
681.631	29.96
681.817	29.63
682.003	30.04
682.189	30.03
682.375	29.56
682.561	29.51
682.747	28.93
682.933	28.78
683.119	28.82
683.305	29.22
683.491	29.16
683.677	28.85
683.863	29.03
684.049	28.78
684.235	29.36
684.42	29.82
684.606	30.22
684.792	30.27
684.978	30.54
685.164	30.32
685.349	30.4
685.535	30.22
685.721	30.67
685.907	30.45
686.092	30.26
686.278	29.18
686.464	29.45
686.649	29.08
686.835	29.09
687.021	28.8
687.206	29.31
687.392	29.14
687.577	29.39
687.763	29.57
687.948	29.95
688.134	29.86
688.319	30.59
688.505	30.26
688.69	30.86
688.876	30.69
689.061	30.6
689.247	29.75
689.432	29.84
689.618	30.07
689.803	30.25
689.988	30.58
690.174	30.67
690.359	30.64
690.544	30.89
690.73	30.28
690.915	30.56
691.1	30.24
691.285	31.28
691.471	31.5
691.656	31.39
691.841	31.1
692.026	30.69
692.211	30.81
692.396	30.51
692.582	30.42
692.767	30.77
692.952	30.67
693.137	30.82
693.322	30.22
693.507	30.28
693.692	30.17
693.877	30
694.062	30.37
694.247	29.62
694.432	29.96
694.617	29.96
694.802	30.11
694.987	29.97
695.172	29.8
695.357	30.17
695.541	29.63
695.726	30.41
695.911	30.64
696.096	30.81
696.281	31.65
696.466	31.53
696.65	31.09
696.835	30.82
697.02	31.45
697.204	31.65
697.389	31.61
697.574	32.3
697.759	31.3
697.943	31.28
698.128	30.86
698.312	30.88
698.497	30.62
698.682	30.66
698.866	30.73
699.051	30.63
699.235	30.6
699.42	30.05
699.604	29.67
699.789	30
699.973	30.15
700.158	30.45
700.342	30.54
700.527	30.99
700.711	31.19
700.895	31.14
701.08	30.48
701.264	30.77
701.448	30.9
701.633	31.16
701.817	31.16
702.001	30.54
702.186	30.42
702.37	30.09
702.554	29.63
702.738	29.97
702.923	29.89
703.107	30.96
703.291	30.49
703.475	30.47
703.659	30.11
703.843	30.18
704.027	30.7
704.212	30.21
704.396	29.79
704.58	29.81
704.764	28.86
704.948	28.77
705.132	28.27
705.316	28.25
705.5	28.74
705.684	28.82
705.868	29.22
706.052	29.33
706.235	29.77
706.419	30.8
706.603	30.94
706.787	31.07
706.971	31.11
707.155	30.9
707.339	31.81
707.522	31.63
707.706	32.05
707.89	31.29
708.074	31.48
708.257	31.83
708.441	31.41
708.625	31.44
708.808	32.26
708.992	32.7
709.176	32.81
709.359	32.63
709.543	32.76
709.727	32.02
709.91	32.63
710.094	32.33
710.277	32.07
710.461	32.28
710.644	32.79
710.828	32.95
711.011	33.09
711.195	33.04
711.378	32.9
711.562	33.08
711.745	33.46
711.928	33.34
712.112	33.17
712.295	32.37
712.478	32.01
712.662	31.71
712.845	31.17
713.028	30.34
713.212	30.12
713.395	29.29
713.578	29.16
713.761	28.74
713.945	28.48
714.128	29.39
714.311	30.21
714.494	30.27
714.677	30.01
714.86	30.63
715.043	30.79
715.227	31.39
715.41	31.84
715.593	31.56
715.776	31.71
715.959	31.53
716.142	30.43
716.325	30.32
716.508	30.26
716.691	30.67
716.874	29.82
717.057	29.53
717.239	29.23
717.422	28.98
717.605	28.99
717.788	28.75
717.971	28.93
718.154	28.86
718.337	28.56
718.519	28.45
718.702	27.74
718.885	27.59
719.068	28.34
719.25	27.67
719.433	28
719.616	28.01
719.798	28.88
719.981	28.25
720.164	28.12
720.346	28.11
720.529	28.07
720.712	27.94
720.894	27.89
721.077	27.11
721.259	28.03
721.442	28.85
721.624	29.27
721.807	28.62
721.989	30.24
722.172	29.81
722.354	29.83
722.537	30.53
722.719	31.35
722.901	31.8
723.084	32.2
723.266	31.61
723.448	31.1
723.631	31.28
723.813	32.35
723.995	31.72
724.178	32.52
724.36	33.01
724.542	33.1
724.724	32.89
724.907	32.93
725.089	32.56
725.271	32.67
725.453	32.49
725.635	32.68
725.817	31.5
725.999	31.22
726.181	30.48
726.364	30.98
726.546	30.61
726.728	30.29
726.91	30.06
727.092	30.26
727.274	30.66
727.456	30.36
727.638	30.14
727.819	30.05
728.001	30.5
728.183	31.82
728.365	31.38
728.547	32.09
728.729	32.51
728.911	32.55
729.093	32.75
729.274	33.11
729.456	33.12
729.638	33.63
729.82	34.12
730.001	33.98
730.183	33.47
730.365	34.09
730.546	33.37
730.728	33.54
730.91	33.9
731.091	33.48
731.273	32.71
731.455	33.14
731.636	32.57
731.818	32.47
731.999	32.47
732.181	32.38
732.362	31.48
732.544	30.94
732.725	30.4
732.907	30.34
733.088	30.97
733.27	31.13
733.451	31.01
733.633	30.76
733.814	30.91
733.995	30.19
734.177	30.35
734.358	30.79
734.539	32.07
734.721	32.57
734.902	32.56
735.083	32.44
735.264	32.31
735.446	32.76
735.627	33
735.808	32.26
735.989	32.44
736.17	32.17
736.351	32.3
736.533	32.1
736.714	32.08
736.895	31.81
737.076	32.26
737.257	33.28
737.438	33.37
737.619	33.72
737.8	33.32
737.981	33.69
738.162	33.48
738.343	32.91
738.524	32.83
738.705	32.31
738.886	32.15
739.067	32.78
739.247	31.19
739.428	30.95
739.609	31.4
739.79	33.12
739.971	32.91
740.151	33.84
740.332	33.87
740.513	33.01
740.694	33.23
740.874	33.74
741.055	32.39
741.236	33.76
741.417	32.25
741.597	31.12
741.778	30.09
741.958	31.07
742.139	30.8
742.32	31.14
742.5	31.95
742.681	31.61
742.861	30.09
743.042	30.57
743.222	29.22
743.403	30.94
743.583	31.74
743.764	32.25
743.944	31.04
744.124	31.49
744.305	31.03
744.485	30.16
744.666	30.42
744.846	31.51
745.026	31.68
745.207	33.03
745.387	31.59
745.567	30.83
745.747	29.61
745.928	30.37
746.108	29.04
746.288	28.73
746.468	28.98
746.648	29.11
746.829	28.89
747.009	29.31
747.189	28.69
747.369	29.16
747.549	30.33
747.729	31.65
747.909	30.15
748.089	30.69
748.269	31.54
748.449	31.46
748.629	31.91
748.809	32.18
748.989	30.73
749.169	30.81
749.349	31.97
749.529	30.83
749.709	31.05
749.889	31.52
750.068	31.69
750.248	30.88
750.428	31.61
750.608	31.02
750.788	30.05
750.967	30.62
751.147	30.24
751.327	29.7
751.507	29.77
751.686	29.7
751.866	30.32
752.046	30.06
752.225	30.59
752.405	29.67
752.585	29.53
752.764	31.73
752.944	32.12
753.123	32.51
753.303	33.74
753.482	33.95
753.662	33.02
753.841	32.55
754.021	32.07
754.2	31.35
754.38	31.59
754.559	31.45
754.739	29.17
754.918	28.7
755.097	28.38
755.277	26.39
755.456	27.07
755.635	27.02
755.815	27.81
755.994	28.41
756.173	29.23
756.352	29.57
756.532	29.12
756.711	30.91
756.89	30.08
757.069	30.42
757.248	31.04
757.427	30.08
757.607	31.56
757.786	31.48
757.965	32.51
758.144	32.29
758.323	31.56
758.502	32.51
758.681	32.71
758.86	34.16
759.039	33.33
759.218	33.19
759.397	33.36
759.576	32.79
759.755	33.09
759.934	32.16
760.113	32.34
760.291	32.72
760.47	33.6
760.649	32.77
760.828	31.94
761.007	33.76
761.186	33.61
761.364	32.88
761.543	32.34
761.722	32.42
761.901	31.99
762.079	31.68
762.258	32.07
762.437	31.67
762.615	31.33
762.794	30.93
762.972	30.28
763.151	30.49
763.33	30.9
763.508	31.3
763.687	30.78
763.865	31.02
764.044	31.31
764.222	31.37
764.401	31.02
764.579	31.56
764.758	31.9
764.936	30.98
765.114	31.68
765.293	32.42
765.471	32.33
765.65	33.28
765.828	33.36
766.006	33.52
766.184	32.54
766.363	32.34
766.541	31.63
766.719	32.2
766.898	33.25
767.076	32.27
767.254	32.58
767.432	32.81
767.61	31.54
767.788	31.52
767.967	30.8
768.145	32.01
768.323	30.69
768.501	31.86
768.679	30.52
768.857	30.83
769.035	31.54
769.213	31.22
769.391	30.29
769.569	29.95
769.747	30.69
769.925	30.32
770.103	29.9
770.281	31.87
770.459	30.99
770.636	33.24
770.814	31.92
770.992	32.26
771.17	31.02
771.348	31.24
771.525	31.61
771.703	31.53
771.881	32.66
772.059	32.94
772.236	32.55
772.414	33.05
772.592	29.24
772.769	30.74
772.947	29.58
773.125	29.57
773.302	29.56
773.48	30.35
773.657	30
773.835	28.53
774.013	29.88
774.19	31.39
774.368	29.86
774.545	33.31
774.723	32.49
774.9	34.25
775.077	35.09
775.255	36.04
775.432	34.57
775.61	34.5
775.787	36.01
775.964	33.94
776.142	32.94
776.319	33.31
776.496	31.84
776.674	31.47
776.851	30.01
777.028	29.96
777.205	29.17
777.382	30.89
777.56	30.74
777.737	30.56
777.914	30.95
778.091	31.46
778.268	33.98
778.445	35.87
778.622	37.16
778.8	35.03
778.977	34.62
779.154	35.53
779.331	37.66
779.508	37.55
779.685	37.76
779.862	37.37
780.038	36.61
780.215	35.18
780.392	33.53
780.569	31.51
780.746	33.52
780.923	33.57
781.1	33.93
781.277	31.82
781.453	31.75
781.63	29.14
781.807	30.66
781.984	29.49
782.16	30.73
782.337	30.72
782.514	33.2
782.691	32.79
782.867	32.93
783.044	29.73
783.221	29.3
783.397	28.21
783.574	29.8
783.75	28.42
783.927	32.07
784.103	29.4
784.28	29.4
784.456	27.47
784.633	28.48
784.809	27.49
784.986	30.26
785.162	29.78
785.339	30.18
785.515	31.16
785.692	31.22
785.868	31.13
786.044	33.35
786.221	32.43
786.397	33.16
786.573	33.25
786.749	32.67
786.926	31.46
787.102	34.51
787.278	33
787.454	31.01
787.631	30.67
787.807	27.7
787.983	27.07
788.159	27.93
788.335	31.12
788.511	30.45
788.687	29.55
788.863	30.34
789.039	28.06
789.216	28.53
789.392	30.21
789.568	31.37
789.744	31.68
789.919	30.7
790.095	30.36
790.271	29.18
790.447	27.13
790.623	28.15
790.799	29.1
790.975	28.76
791.151	31.7
791.327	33.18
791.502	33.73
791.678	32.03
791.854	33.79
792.03	35.97
792.205	33.64
792.381	37.25
792.557	38.69
792.733	36.43
792.908	37.24
793.084	37.18
793.259	36.78
793.435	35.61
793.611	37.94
793.786	38.27
793.962	34.31
794.137	33.84
794.313	29.98
794.488	28.94
794.664	27.66
794.839	29.39
795.015	28.07
795.19	25.18
795.366	25.09
795.541	24.91
795.716	26.57
795.892	28.11
796.067	29.24
796.242	30.64
796.418	29.36
796.593	32.26
796.768	29.33
796.944	29.89
797.119	30.16
797.294	30.29
797.469	29.62
797.644	26.32
797.82	27.41
797.995	26.7
798.17	28.61
798.345	30.72
798.52	30.47
798.695	31.58
798.87	29.42
799.045	29.3
799.22	31.07
799.395	32.59
799.57	31.99
799.745	33.22
799.92	34.09
800.095	33.12
800.27	32.28
800.445	30.03
800.62	30.06
800.795	30.74
800.97	33.63
801.145	30.19
801.319	27.79
801.494	29.12
801.669	26.77
801.844	26.94
802.018	28.48
802.193	27.62
802.368	30.61
802.543	30.49
802.717	30.51
802.892	26.32
803.067	27.63
803.241	30.48
803.416	31.95
803.59	31.63
803.765	32.04
803.94	31.25
804.114	29.93
804.289	27.66
804.463	27.56
804.638	31.14
804.812	32.48
804.986	33.76
805.161	30.86
805.335	28.1
805.51	29.75
805.684	30.19
805.858	29.02
806.033	32.64
806.207	32.8
806.381	36.33
806.556	30.6
806.73	30.11
806.904	29.68
807.078	30.32
807.253	30.11
807.427	29.24
807.601	28.08
807.775	27.75
807.949	28.7
808.123	33.6
808.298	28.79
808.472	30.72
808.646	32.98
808.82	32.78
808.994	34.49
809.168	38.39
809.342	38.39
809.516	39.29
809.69	37.64
809.864	35.43
810.038	30.42
810.212	35.15
810.385	37.4
810.559	35.89
810.733	35.72
810.907	35.72
811.081	33.06
811.255	33.16
811.428	32.03
811.602	34.18
811.776	34.24
811.95	34.49
812.123	32.35
812.297	27.77
812.471	29.29
812.644	28.88
812.818	26.84
812.992	28.6
813.165	29.27
813.339	29.18
813.512	32.96
813.686	33.94
813.86	33.89
814.033	34.4
814.207	35.98
814.38	38.01
814.554	39.91
814.727	40.21
814.9	38.06
815.074	38.12
815.247	35.97
815.421	29.3
815.594	28.08
815.767	29.85
815.941	27.46
816.114	30.24
816.287	28.34
816.46	26.93
816.634	26.73
816.807	26.84
816.98	26.36
817.153	31.04
817.327	33.64
817.5	31.82
817.673	30.42
817.846	30.01
818.019	27.03
818.192	28.55
818.365	27.12
818.538	29.57
818.711	31.74
818.884	29.19
819.057	24.95
819.23	24.01
819.403	27.58
819.576	26.43
819.749	27.01
819.922	28.19
820.095	27.88
820.268	29.74
820.441	27.5
820.614	28.77
820.786	31.06
820.959	32.32
821.132	34.37
821.305	34.2
821.477	33.44
821.65	33.08
821.823	32.48
821.996	32.4
822.168	31.73
822.341	31.55
822.514	31.21
822.686	31.55
822.859	31.55
823.031	31.07
823.204	31.35
823.376	31.9
823.549	32.06
823.722	31.91
823.894	31.2
824.067	31.36
824.239	31.3
824.411	30.9
824.584	30.94
824.756	31.05
824.929	31.12
825.101	30.29
825.273	29.78
825.446	29.99
825.618	31.27
825.79	31.61
825.963	31.67
826.135	32.27
826.307	32.72
826.479	31.89
826.652	30.99
826.824	31.11
826.996	31.11
827.168	31.38
827.34	32.23
827.512	31.35
827.684	31.8
827.856	31.56
828.029	32.35
828.201	31.74
828.373	32.01
828.545	32.95
828.717	33.19
828.889	33.9
829.061	34.19
829.232	33.69
829.404	33.73
829.576	34.2
829.748	34.9
829.92	33.87
830.092	33.67
830.264	33.35
830.436	31.88
830.607	30.44
830.779	30.85
830.951	31.04
831.123	29.2
831.294	30.09
831.466	27.58
831.638	29.34
831.809	31.22
831.981	32.82
832.153	31.97
832.324	34
832.496	35.81
832.667	35.45
832.839	33.49
833.011	35.83
833.182	34.33
833.354	35.25
833.525	31.97
833.697	30.04
833.868	29.32
834.039	29.96
834.211	27.62
834.382	27.65
834.554	27.9
834.725	29.62
834.896	28.81
835.068	28.12
835.239	30.04
835.41	31.94
835.581	31.6
835.753	31.07
835.924	30.78
836.095	33.58
836.266	32.05
836.438	29.68
836.609	28.92
836.78	28.25
836.951	30.12
837.122	28.03
837.293	27.62
837.464	29
837.635	29.96
837.806	31.31
837.977	29.6
838.148	32.76
838.319	35.76
838.49	36.63
838.661	36.65
838.832	35.56
839.003	35.7
839.174	35.64
839.345	32.7
839.516	32.29
839.687	33.59
839.857	34.23
840.028	32.12
840.199	32.81
840.37	33.62
840.54	36.93
840.711	37.98
840.882	35.7
841.053	31.72
841.223	37.74
841.394	41.65
841.564	36.37
841.735	36.26
841.906	34.41
842.076	28.43
842.247	29.4
842.417	24.18
842.588	24.98
842.758	27.22
842.929	24.63
843.099	17.9
843.27	15.38
843.44	20.28
843.611	22.93
843.781	24.44
843.951	27.79
844.122	25.89
844.292	31.46
844.462	30.86
844.633	31.4
844.803	37.55
844.973	40.5
845.144	37.25
845.314	32.12
845.484	28.19
845.654	30.87
845.824	30.4
845.995	28.2
846.165	25.01
846.335	20.98
846.505	20.46
846.675	20.86
846.845	23.8
847.015	25.97
847.185	30.82
847.355	38.2
847.525	38.46
847.695	37.46
847.865	38.94
848.035	39.1
848.205	40.76
848.375	44.51
848.545	49.02
848.715	48.85
848.884	39.79
849.054	35.63
849.224	33.51
849.394	36.65
849.564	37.17
849.733	32.69
849.903	34.43
850.073	37.46
850.243	36.16
850.412	32.05
850.582	24.23
850.752	27.65
850.921	30.9
851.091	26.21
851.26	21.03
851.43	21.79
851.599	20.32
851.769	15.98
851.939	13.76
852.108	11.63
852.278	10.18
852.447	17.03
852.616	22.91
852.786	26.07
852.955	24.85
853.125	33.08
853.294	34.56
853.463	35.5
853.633	35.39
853.802	35.98
853.971	39.75
854.141	36.38
854.31	33.41
854.479	26.29
854.648	25.05
854.818	37.11
854.987	29.32
855.156	27.51
855.325	32.58
855.494	35.04
855.663	36.26
855.832	39.16
856.001	41.52
856.171	39.17
856.34	37.37
856.509	39.22
856.678	34.68
856.847	32.7
857.016	36.6
857.185	32.57
857.353	33.23
857.522	27.26
857.691	14.21
857.86	12.77
858.029	20.65
858.198	28.49
858.367	23.97
858.535	23.69
858.704	26.79
858.873	32.52
859.042	44.03
859.21	41.04
859.379	43.91
859.548	51.88
859.717	56.02
859.885	55.49
860.054	58.33
860.222	59.02
860.391	56.37
860.56	60.58
860.728	54.23
860.897	53.15
861.065	55.08
861.234	56.19
861.402	55.59
861.571	60.1
861.739	59.82
861.908	59.62
862.076	60
862.244	64.6
862.413	59.2
862.581	55.72
862.749	42.61
862.918	41.88
863.086	39.37
863.254	38.58
863.423	24.07
863.591	23.33
863.759	20.69
863.927	13
864.096	10.47
864.264	15.13
864.432	15.56
864.6	21.68
864.768	15.75
864.936	7.94
865.104	11.76
865.272	13.32
865.44	14.38
865.608	10.92
865.776	18.95
865.944	19.78
866.112	15.76
866.28	19.94
866.448	24.88
866.616	26.68
866.784	36.04
866.952	31.87
867.12	29.89
867.288	26.6
867.455	28.56
867.623	28.44
867.791	28.1
867.959	36.23
868.127	25.92
868.294	25.74
868.462	29.47
868.63	24.65
868.797	33.86
868.965	33.51
869.133	34.1
869.3	38.52
869.468	40.12
869.636	37.76
869.803	30.42
869.971	43.71
870.138	35.35
870.306	33.37
870.473	35.42
870.641	31.01
870.808	28.89
870.975	26.74
871.143	20.45
871.31	14.51
871.478	23.2
871.645	22.68
871.812	13.96
871.98	17.36
872.147	22.07
872.314	7.67
872.482	-0.93
872.649	8.73
872.816	18.13
872.983	14.64
873.15	24.66
873.318	14.45
873.485	19.84
873.652	16.72
873.819	12.6
873.986	14.51
874.153	20.75
874.32	21.64
874.487	19.72
874.654	19.86
874.821	28.37
874.988	31.81
875.155	29.7
875.322	22.42
875.489	27.86
875.656	34.18
875.823	34.96
875.99	34.39
876.157	45.11
876.324	40.95
876.49	35.48
876.657	34.05
876.824	22.26
876.991	20.96
877.157	26.1
877.324	18.41
877.491	28.37
877.658	26.2
877.824	16.59
877.991	12.17
878.157	21.65
878.324	26.21
878.491	21.3
878.657	35.75
878.824	47.48
878.99	49.93
879.157	41.2
879.323	32.22
879.49	29.05
879.656	38.41
879.823	39.24
879.989	29.09
880.156	25.66
880.322	23.6
880.488	19.26
880.655	16.53
880.821	18.16
880.987	19.61
881.154	28.25
881.32	29.44
881.486	31.31
881.652	30.82
881.819	32.83
881.985	29.73
882.151	32.36
882.317	32.87
882.483	30.75
882.649	28.7
882.816	29.21
882.982	25.65
883.148	23.2
883.314	23.47
883.48	21.77
883.646	23.62
883.812	26.16
883.978	25.22
884.144	23.8
884.31	24.65
884.476	24.66
884.642	25.5
884.807	25.13
884.973	27.82
885.139	25.86
885.305	27.31
885.471	24.61
885.637	23.53
885.802	23.24
885.968	24.99
886.134	24.31
886.3	23.86
886.465	22.05
886.631	23.06
886.797	22.76
886.962	24.82
887.128	26.05
887.293	31.95
887.459	34.57
887.625	36.44
887.79	34.86
887.956	36.3
888.121	39.89
888.287	43.75
888.452	47.1
888.618	47.15
888.783	46.1
