Data from CB_031_Reflection_2.txt Node
Date: Wed Nov 11 20:53:39 EST 2015
User: robert
Spectrometer: USB4E03001
Autoset integration time: false
Trigger mode: 4
Integration Time (sec): 1.000000E-1
Scans to average: 15
Electric dark correction enabled: true
Nonlinearity correction enabled: false
Boxcar width: 5
Stray light correction enabled: false
XAxis mode: Wavelengths
Stop averaging: false
Number of Pixels in Spectrum: 3648
>>>>>Begin Spectral Data<<<<<
177.566	-124.5
177.785	-198.33
178.005	649.65
178.225	-191.51
178.445	-218.01
178.665	853.31
178.885	116.75
179.105	2889.13
179.324	314.09
179.544	524.29
179.764	-519.62
179.984	-676.09
180.204	26632.5
180.423	505.14
180.643	-2489.25
180.863	5849.79
181.083	830.9
181.302	2211.58
181.522	2461.98
181.742	-5353.72
181.961	-1074.66
182.181	-8569.08
182.401	6927.02
182.621	-839.51
182.84	-758.56
183.06	-534.76
183.279	-959.55
183.499	-481.75
183.719	-342.29
183.938	-326.27
184.158	-300.57
184.377	-225.18
184.597	-327
184.816	-244.32
185.036	-339.76
185.256	-340.24
185.475	-295.73
185.695	-194.14
185.914	-230.99
186.134	-2757.71
186.353	4727.32
186.572	637.25
186.792	636.04
187.011	1510.86
187.231	2126.56
187.45	927.39
187.67	455.56
187.889	390.98
188.108	305.46
188.328	544.64
188.547	935.88
188.766	1330.68
188.986	5358
189.205	6772.07
189.424	1751.86
189.644	627.41
189.863	600.57
190.082	2563.21
190.302	410.38
190.521	622.36
190.74	262.14
190.959	246.4
191.178	222.11
191.398	339.78
191.617	371.82
191.836	986.05
192.055	579.6
192.274	681.36
192.494	1112.73
192.713	1754.45
192.932	3621.53
193.151	-413.41
193.37	-354.01
193.589	-455.79
193.808	-606.99
194.027	-589.89
194.246	-1328.42
194.465	-307.56
194.685	-971.83
194.904	1134.41
195.123	-995.28
195.342	-169.11
195.561	-845.36
195.78	-7401.94
195.999	-329.42
196.218	-187.25
196.436	-737.14
196.655	1133.86
196.874	765.32
197.093	1527.92
197.312	-568.29
197.531	1825.65
197.75	900.6
197.969	1030.13
198.188	1635.87
198.407	885.58
198.625	847.7
198.844	1345.28
199.063	-4961.71
199.282	-2428.65
199.501	-1634.76
199.719	-1744.84
199.938	-1281.7
200.157	7044.02
200.376	-651.85
200.594	-2109.96
200.813	-764.01
201.032	928.6
201.251	585.99
201.469	710.92
201.688	491.7
201.907	1191
202.125	972.09
202.344	3084.44
202.563	1112.26
202.781	1147.8
203	692.98
203.218	308.16
203.437	878.91
203.656	1305.4
203.874	913.15
204.093	2328.49
204.311	1221.74
204.53	353.78
204.748	459.12
204.967	546.19
205.185	9279.05
205.404	-318.3
205.622	-87.25
205.841	-60.6
206.059	-67.53
206.278	-70.09
206.496	-106.84
206.715	-351.98
206.933	-181.4
207.151	-379.56
207.37	-481.23
207.588	-661.31
207.806	-327.75
208.025	-427.15
208.243	414.6
208.461	229.53
208.68	116.08
208.898	-592.82
209.116	55.92
209.335	-311.18
209.553	61.91
209.771	-96.39
209.989	476.37
210.208	200.95
210.426	320.38
210.644	648.48
210.862	1211.76
211.081	622.28
211.299	453.01
211.517	522.35
211.735	1336.79
211.953	499.62
212.171	649.35
212.39	-4236.76
212.608	-470.59
212.826	-190.2
213.044	-104.75
213.262	-165.32
213.48	-161.27
213.698	-213.15
213.916	-302.3
214.134	-419.57
214.352	-297.4
214.57	-148.85
214.788	-304.25
215.006	-343.72
215.224	354.25
215.442	1067.02
215.66	604.03
215.878	639.84
216.096	373.07
216.314	496.39
216.532	904.09
216.75	1917.28
216.968	518.98
217.185	320.06
217.403	306.37
217.621	905.13
217.839	297.75
218.057	490.87
218.275	865.45
218.492	-1532
218.71	600.62
218.928	376.85
219.146	418.86
219.363	2662.58
219.581	-1324.98
219.799	-323.7
220.017	-505
220.234	-442.93
220.452	-550.89
220.67	-1047.61
220.887	6314.42
221.105	-1104.02
221.323	-236.62
221.54	-255.55
221.758	-795.8
221.976	-335.41
222.193	-330.39
222.411	-250.96
222.629	-186.73
222.846	-251.83
223.064	-134.51
223.281	-106.26
223.499	-70.55
223.716	-126.32
223.934	-132.48
224.151	-92.19
224.369	-109.39
224.586	-81.37
224.804	-80.85
225.021	-98.1
225.239	-130.22
225.456	-123.9
225.674	-101.33
225.891	-123.51
226.108	-125.43
226.326	-120.54
226.543	-94.96
226.76	-61.17
226.978	-67.13
227.195	-51.34
227.413	-20.84
227.63	-5.67
227.847	-14.07
228.064	-14.45
228.282	-7.63
228.499	-6.54
228.716	-1.73
228.934	2.36
229.151	2.37
229.368	3.08
229.585	2.12
229.802	-3.75
230.02	-5.86
230.237	-5.27
230.454	-4.34
230.671	-9.09
230.888	-10.16
231.105	-6.76
231.323	-12.71
231.54	-13.88
231.757	-14.99
231.974	-18.97
232.191	-18.41
232.408	-22.92
232.625	-20.18
232.842	-19.74
233.059	-24.48
233.276	-14.15
233.493	-26.2
233.71	-25.25
233.927	-23.17
234.144	-30.8
234.361	-23.39
234.578	-22.96
234.795	-30.2
235.012	-30.24
235.229	-33.31
235.446	-35.03
235.663	-43.74
235.879	-40.14
236.096	-30.66
236.313	-42.88
236.53	-33.05
236.747	-33.24
236.964	-41.56
237.181	-32.83
237.397	-37.2
237.614	-42.29
237.831	-38.36
238.048	-33.58
238.264	-46.1
238.481	-42.64
238.698	-41.61
238.915	-35.96
239.131	-37.95
239.348	-26.31
239.565	-20.67
239.781	-20.34
239.998	-14.5
240.215	-8.22
240.431	-14.43
240.648	-6.94
240.865	-6.7
241.081	-4.84
241.298	-5.14
241.514	-1.16
241.731	-0.49
241.947	-2.04
242.164	0.16
242.38	3.78
242.597	1.23
242.814	0.93
243.03	3.12
243.246	-0.02
243.463	1.03
243.679	-0.21
243.896	-2.35
244.112	-2.23
244.329	-0.36
244.545	-4.17
244.762	-7.56
244.978	-5.2
245.194	0.55
245.411	0.21
245.627	0.08
245.843	2.02
246.06	2.95
246.276	3.75
246.492	1.83
246.709	3.57
246.925	5.79
247.141	5.19
247.357	5.25
247.574	3.62
247.79	3.88
248.006	5.24
248.222	3.92
248.439	3.67
248.655	3.91
248.871	4.8
249.087	2.97
249.303	3.29
249.519	3.72
249.736	4.1
249.952	4.99
250.168	3.05
250.384	2.91
250.6	1.9
250.816	0.97
251.032	1.58
251.248	3.48
251.464	3.45
251.68	2.09
251.896	0.46
252.112	0.09
252.328	0.36
252.544	0.53
252.76	0.51
252.976	3.55
253.192	3.98
253.408	1.88
253.624	-0.42
253.84	-1.28
254.056	-2.53
254.272	-2.01
254.487	-4.6
254.703	-7.57
254.919	-4.82
255.135	-7.9
255.351	-15.13
255.567	-9.86
255.782	-10.76
255.998	-10.13
256.214	-10.34
256.43	-11.07
256.646	-11.2
256.861	-10.23
257.077	-7.85
257.293	-13.51
257.508	-12.69
257.724	-8.91
257.94	-7.93
258.155	-3.26
258.371	-3.19
258.587	-0.88
258.802	0.11
259.018	2.35
259.234	3.15
259.449	3.47
259.665	4.86
259.88	6.13
260.096	6.63
260.312	6.85
260.527	6.02
260.743	6.01
260.958	5.37
261.174	5.28
261.389	3.93
261.605	4.81
261.82	3.93
262.036	4.12
262.251	3.16
262.466	2.34
262.682	0.82
262.897	1.96
263.113	3.66
263.328	3.73
263.543	4.25
263.759	6.04
263.974	2.68
264.189	3.92
264.405	3.93
264.62	1.78
264.835	2.54
265.051	-0.08
265.266	-0.51
265.481	-1.56
265.696	-2.18
265.912	-3.95
266.127	-5.59
266.342	-5.47
266.557	-4.86
266.773	-6.86
266.988	-4.96
267.203	-7.21
267.418	-4.5
267.633	-4.09
267.848	-2.84
268.064	-2.27
268.279	0.45
268.494	1.44
268.709	1.61
268.924	1.5
269.139	2.68
269.354	0.9
269.569	0.54
269.784	0.43
269.999	0.53
270.214	0.42
270.429	1.16
270.644	-0.17
270.859	-1.05
271.074	1.27
271.289	1.69
271.504	2.34
271.719	2.18
271.934	1.79
272.149	1.18
272.363	-0.4
272.578	-1.6
272.793	-1.99
273.008	-1.84
273.223	-1.1
273.438	-3.3
273.653	-3.52
273.867	-4.49
274.082	-3.28
274.297	-0.42
274.512	0
274.726	2.21
274.941	2.11
275.156	3.11
275.371	1.97
275.585	1.09
275.8	2.24
276.015	1.66
276.229	3.61
276.444	5.32
276.659	4.36
276.873	3.15
277.088	0.26
277.302	0.72
277.517	0.93
277.732	1.09
277.946	1.68
278.161	1.52
278.375	1.87
278.59	1.13
278.804	-1.37
279.019	-2.31
279.233	-1.14
279.448	2.05
279.662	2.41
279.877	1.87
280.091	3.02
280.306	5.4
280.52	6.57
280.735	6.25
280.949	5.61
281.163	7.02
281.378	8.37
281.592	8.75
281.806	6.64
282.021	7
282.235	5.88
282.449	4.97
282.664	4.07
282.878	4.09
283.092	3.89
283.307	3.66
283.521	2.97
283.735	1.92
283.949	0.44
284.164	1.35
284.378	2.53
284.592	3.49
284.806	2.56
285.02	2.33
285.234	1.55
285.449	1.4
285.663	2.05
285.877	2.32
286.091	2.76
286.305	3.37
286.519	3.33
286.733	2.65
286.947	3.41
287.161	4.66
287.375	4.77
287.589	5.39
287.803	6.13
288.017	6.68
288.231	6.4
288.445	7.59
288.659	7.33
288.873	8.54
289.087	7.75
289.301	6.77
289.515	7.34
289.729	7.8
289.943	8.13
290.157	8.53
290.371	7.91
290.584	7.72
290.798	6.29
291.012	6.21
291.226	4.85
291.44	4.61
291.654	3.87
291.867	3.31
292.081	2.7
292.295	1.7
292.509	0.93
292.722	1.19
292.936	1.56
293.15	1.35
293.364	2.42
293.577	4.46
293.791	4.95
294.005	6.26
294.218	7.47
294.432	8.19
294.645	7.89
294.859	8.81
295.073	8.89
295.286	9.61
295.5	10.56
295.713	9.62
295.927	9.16
296.14	8.29
296.354	8.82
296.568	8.19
296.781	7.48
296.994	7.94
297.208	8.33
297.421	7.92
297.635	8.04
297.848	7.58
298.062	8.41
298.275	9.06
298.489	10.4
298.702	9.68
298.915	9.79
299.129	9.62
299.342	9.86
299.555	9.09
299.769	9.49
299.982	8.01
300.195	7.34
300.409	7.25
300.622	6
300.835	5.33
301.048	6.15
301.262	5.18
301.475	6.16
301.688	6.18
301.901	6.56
302.115	7.3
302.328	8.97
302.541	10.82
302.754	10.5
302.967	10.9
303.18	10.42
303.393	10.12
303.607	9.95
303.82	9.13
304.033	8.68
304.246	8.52
304.459	7.28
304.672	7.26
304.885	6.85
305.098	6.36
305.311	6.16
305.524	6.56
305.737	6.31
305.95	8.14
306.163	7.61
306.376	8.1
306.589	7.14
306.802	8.16
307.015	7.61
307.228	7.84
307.44	7.29
307.653	6.36
307.866	5.92
308.079	6.8
308.292	5.77
308.505	5.84
308.718	5.4
308.93	5.42
309.143	5.19
309.356	5.6
309.569	5.6
309.781	6.82
309.994	7.76
310.207	8.68
310.42	8.15
310.632	7.76
310.845	8.1
311.058	9.29
311.27	10.64
311.483	10.2
311.696	9.75
311.908	9.25
312.121	9.2
312.333	7.96
312.546	7.42
312.759	7.06
312.971	7.36
313.184	6.96
313.396	5.16
313.609	4.66
313.821	4.84
314.034	5.07
314.246	4.94
314.459	4.53
314.671	5.76
314.884	6.63
315.096	7.13
315.309	7.74
315.521	9.51
315.733	10.3
315.946	10.28
316.158	9.6
316.371	9.74
316.583	9.91
316.795	10.66
317.008	11.31
317.22	10.05
317.432	9.9
317.644	9.45
317.857	8.78
318.069	9.51
318.281	9.46
318.494	9.96
318.706	10.63
318.918	10.06
319.13	10.21
319.342	10.65
319.555	11.13
319.767	10.46
319.979	9.56
320.191	7.79
320.403	6.46
320.615	6.32
320.827	5.78
321.039	5.01
321.252	5.58
321.464	4.05
321.676	3.24
321.888	3.94
322.1	5.12
322.312	6.85
322.524	9.13
322.736	10.06
322.948	9.84
323.16	11.38
323.372	12.42
323.584	12.62
323.796	14.72
324.007	15.4
324.219	15.32
324.431	14.19
324.643	14.24
324.855	14.43
325.067	15.08
325.279	15.18
325.491	14.93
325.702	14.26
325.914	14.52
326.126	13.67
326.338	13.25
326.55	13.28
326.761	14.63
326.973	14.81
327.185	14.68
327.396	13.82
327.608	14.6
327.82	14.11
328.032	14.2
328.243	12.75
328.455	13.17
328.666	12.86
328.878	14.28
329.09	13.6
329.301	13.49
329.513	12.86
329.725	14.38
329.936	14.17
330.148	14.38
330.359	15.03
330.571	15.73
330.782	15.49
330.994	15.93
331.205	14.91
331.417	16.25
331.628	15.05
331.84	14.97
332.051	14.56
332.262	15.73
332.474	16.33
332.685	15.12
332.897	15.73
333.108	15.44
333.319	15.85
333.531	16.11
333.742	15.43
333.953	16.47
334.165	16.81
334.376	16.62
334.587	15
334.799	14.6
335.01	16.16
335.221	17.08
335.432	16.98
335.644	17.51
335.855	16.73
336.066	17.61
336.277	17.22
336.488	17.82
336.7	17.5
336.911	17.67
337.122	17.25
337.333	16.26
337.544	15.68
337.755	15.12
337.966	14.59
338.177	14.01
338.388	13.72
338.599	13.57
338.811	13.39
339.022	14.72
339.233	15.26
339.444	15.85
339.655	16.6
339.866	16.48
340.076	18.48
340.287	17.95
340.498	19.48
340.709	19.34
340.92	19.78
341.131	18.83
341.342	17.69
341.553	16.5
341.764	17.43
341.975	16.09
342.185	17.05
342.396	16.68
342.607	17.43
342.818	16.62
343.029	17.73
343.239	17.42
343.45	18.95
343.661	18.72
343.872	19.84
344.082	18.86
344.293	20.04
344.504	19.05
344.714	18.54
344.925	18.81
345.136	18.7
345.346	17.62
345.557	17.67
345.768	15.84
345.978	16.44
346.189	15.7
346.399	15.69
346.61	15.85
346.821	16.17
347.031	15.14
347.242	13.88
347.452	13.46
347.663	13.3
347.873	13.58
348.084	14.41
348.294	13.53
348.504	13.71
348.715	13.78
348.925	13.82
349.136	14.44
349.346	14.96
349.557	15.34
349.767	16.29
349.977	16.3
350.188	16.09
350.398	16.58
350.608	17.29
350.819	17.11
351.029	17.76
351.239	16.91
351.449	16.27
351.66	16.17
351.87	16.75
352.08	16.87
352.29	16.8
352.501	16.78
352.711	15.83
352.921	15.72
353.131	16.26
353.341	15.37
353.552	15.57
353.762	16.09
353.972	16.99
354.182	15.29
354.392	14.49
354.602	15.33
354.812	15.21
355.022	15.9
355.232	15.68
355.442	15.75
355.652	15.95
355.862	16.2
356.072	16.02
356.282	15.9
356.492	16.77
356.702	17.08
356.912	16.24
357.122	15.73
357.332	15.65
357.542	16.12
357.752	16.68
357.962	16.66
358.171	16.59
358.381	16.34
358.591	16.03
358.801	15.94
359.011	16.09
359.221	16.3
359.43	16.19
359.64	16.66
359.85	16.38
360.06	15.64
360.269	15.99
360.479	15.64
360.689	15.21
360.899	15.55
361.108	15.4
361.318	15.65
361.528	15.63
361.737	16.4
361.947	16.37
362.156	16.63
362.366	16.48
362.576	16.27
362.785	16.59
362.995	17.29
363.204	16.78
363.414	16.88
363.623	16.75
363.833	16.07
364.042	15.65
364.252	15.46
364.461	14.69
364.671	15.02
364.88	14.99
365.09	14.76
365.299	14.77
365.509	15.39
365.718	15.28
365.927	15.24
366.137	16.07
366.346	15.93
366.555	15.61
366.765	15.59
366.974	15.64
367.183	15.55
367.393	15.7
367.602	14.83
367.811	14.3
368.021	14.46
368.23	14.09
368.439	13.81
368.648	14.18
368.857	14.18
369.067	14.57
369.276	14.69
369.485	15.18
369.694	14.9
369.903	14.62
370.112	14.68
370.321	14.99
370.531	14.89
370.74	15.26
370.949	15.32
371.158	15.03
371.367	14.44
371.576	14.23
371.785	13.67
371.994	13.33
372.203	14.09
372.412	14.35
372.621	14.03
372.83	14.17
373.039	13.52
373.248	13.32
373.457	13.13
373.666	13.43
373.874	13.13
374.083	13.39
374.292	13.39
374.501	13.36
374.71	13.04
374.919	12.89
375.128	12.17
375.336	12.83
375.545	12.81
375.754	12.65
375.963	12.77
376.171	12.85
376.38	12.33
376.589	11.73
376.798	11.32
377.006	11.39
377.215	11.47
377.424	12.03
377.632	11.25
377.841	10.73
378.05	10.67
378.258	10.42
378.467	10.51
378.675	10.28
378.884	10.74
379.093	10.65
379.301	10.17
379.51	10.1
379.718	9.65
379.927	10.07
380.135	10.38
380.344	10.77
380.552	10.58
380.761	10.02
380.969	10.22
381.177	10.33
381.386	10.33
381.594	10.52
381.803	9.95
382.011	10.4
382.219	10.13
382.428	9.89
382.636	9.38
382.845	9.05
383.053	9.44
383.261	9.31
383.469	9.04
383.678	9.45
383.886	9.4
384.094	9.46
384.302	9.29
384.511	9.29
384.719	9.94
384.927	9.83
385.135	9.89
385.343	9.47
385.552	9.11
385.76	9.05
385.968	8.67
386.176	8.58
386.384	8.71
386.592	8.67
386.8	8.66
387.008	8.24
387.216	8.1
387.424	8.37
387.633	8.39
387.841	8.52
388.049	8.17
388.257	7.99
388.465	8.11
388.672	7.79
388.88	7.59
389.088	7.61
389.296	7.32
389.504	7.43
389.712	7.23
389.92	7.46
390.128	7.23
390.336	7.51
390.544	7.45
390.751	7.16
390.959	7.29
391.167	7.64
391.375	7.38
391.583	7.17
391.79	7.55
391.998	7.5
392.206	7.35
392.414	7.89
392.621	7.9
392.829	7.74
393.037	7.82
393.244	8.05
393.452	7.28
393.66	7.3
393.867	7.34
394.075	6.92
394.283	6.59
394.49	6.36
394.698	6.15
394.905	6.15
395.113	6.35
395.32	6.33
395.528	5.91
395.735	5.66
395.943	5.5
396.15	5.67
396.358	5.6
396.565	5.76
396.773	5.76
396.98	5.59
397.188	5.33
397.395	5.14
397.602	5.12
397.81	5.26
398.017	5.65
398.225	5.63
398.432	5.65
398.639	5.76
398.847	5.33
399.054	5.47
399.261	5.45
399.468	5.37
399.676	5.32
399.883	5.45
400.09	5.09
400.297	5.37
400.505	5.56
400.712	5.47
400.919	5.6
401.126	6.22
401.333	6.13
401.54	6.17
401.748	6.48
401.955	6.15
402.162	5.76
402.369	5.77
402.576	5.7
402.783	5.6
402.99	5.4
403.197	5.38
403.404	4.96
403.611	4.99
403.818	4.75
404.025	4.74
404.232	5.06
404.439	5.37
404.646	5.48
404.853	5.4
405.06	5.22
405.267	5.55
405.474	5.4
405.681	5.47
405.887	5.14
406.094	5.09
406.301	5.16
406.508	5.19
406.715	5
406.922	5.22
407.128	5.11
407.335	5.28
407.542	4.8
407.749	4.9
407.955	5.02
408.162	5.48
408.369	5.49
408.575	5.23
408.782	5.08
408.989	5.12
409.195	5.06
409.402	5.11
409.609	4.77
409.815	4.66
410.022	4.45
410.228	4.59
410.435	4.2
410.642	4.28
410.848	4.14
411.055	4.25
411.261	4.34
411.468	4.31
411.674	4.39
411.881	4.47
412.087	4.7
412.294	5.22
412.5	5.06
412.706	5.11
412.913	5.08
413.119	5.14
413.326	4.82
413.532	4.5
413.738	4.43
413.945	4.23
414.151	4.43
414.357	4.17
414.564	3.63
414.77	3.68
414.976	3.82
415.182	3.91
415.389	4.09
415.595	4.36
415.801	4.77
416.007	4.81
416.214	5.05
416.42	4.98
416.626	5.22
416.832	5.25
417.038	5.14
417.244	5.33
417.45	5.6
417.657	5.57
417.863	5.62
418.069	5.32
418.275	5.31
418.481	5.21
418.687	4.98
418.893	4.94
419.099	5.06
419.305	5.15
419.511	4.88
419.717	4.64
419.923	4.69
420.129	4.66
420.335	4.75
420.541	4.74
420.746	4.67
420.952	4.83
421.158	4.74
421.364	4.71
421.57	4.77
421.776	4.94
421.982	4.88
422.187	4.68
422.393	4.51
422.599	4.47
422.805	4.53
423.01	4.5
423.216	4.41
423.422	4.49
423.628	4.5
423.833	4.63
424.039	4.46
424.245	4.48
424.45	4.64
424.656	4.67
424.862	4.6
425.067	4.45
425.273	4.53
425.478	4.5
425.684	4.51
425.889	4.3
426.095	4.02
426.301	4.03
426.506	4.1
426.712	3.98
426.917	3.97
427.123	4.09
427.328	4.24
427.533	4.31
427.739	4.42
427.944	4.18
428.15	4.42
428.355	4.45
428.561	4.2
428.766	4.04
428.971	4.01
429.177	4.07
429.382	3.84
429.587	3.6
429.793	3.27
429.998	3.05
430.203	3.13
430.408	3.16
430.614	3.15
430.819	3.24
431.024	3.39
431.229	3.33
431.434	3.36
431.64	3.46
431.845	3.39
432.05	3.24
432.255	3.6
432.46	3.69
432.665	3.58
432.87	3.63
433.076	3.61
433.281	3.63
433.486	3.65
433.691	3.76
433.896	3.79
434.101	4.01
434.306	4.25
434.511	4.07
434.716	4.16
434.921	4.07
435.126	4
435.331	4.16
435.535	4.12
435.74	4.12
435.945	3.97
436.15	3.88
436.355	3.8
436.56	3.81
436.765	3.6
436.97	3.46
437.174	3.45
437.379	3.67
437.584	3.62
437.789	3.74
437.993	3.99
438.198	3.97
438.403	4.06
438.608	4.12
438.812	4.11
439.017	4.21
439.222	4.42
439.426	4.55
439.631	4.56
439.836	4.8
440.04	4.82
440.245	4.73
440.45	4.85
440.654	4.67
440.859	4.57
441.063	4.59
441.268	4.72
441.472	4.61
441.677	4.47
441.881	4.32
442.086	4.25
442.29	4.08
442.495	4.18
442.699	4.12
442.904	4.2
443.108	4.21
443.312	4.23
443.517	4.12
443.721	4.09
443.925	4.21
444.13	4.15
444.334	3.96
444.538	3.96
444.743	3.79
444.947	3.85
445.151	3.88
445.356	3.9
445.56	3.82
445.764	3.84
445.968	3.83
446.173	3.88
446.377	3.99
446.581	4.03
446.785	4.08
446.989	4.07
447.193	4.04
447.398	4.03
447.602	4.07
447.806	4.09
448.01	4.11
448.214	4.19
448.418	4.17
448.622	4.16
448.826	4.11
449.03	4.14
449.234	4.02
449.438	3.99
449.642	4.13
449.846	3.95
450.05	4.07
450.254	4.14
450.458	4.03
450.662	3.92
450.866	3.86
451.069	3.66
451.273	3.71
451.477	3.86
451.681	3.95
451.885	3.88
452.089	4.09
452.292	3.98
452.496	4.01
452.7	4.02
452.904	4.02
453.107	4.01
453.311	4.29
453.515	4.17
453.719	4.18
453.922	4.02
454.126	3.74
454.33	3.52
454.533	3.46
454.737	3.12
454.94	2.95
455.144	3.03
455.348	3.09
455.551	2.95
455.755	3.12
455.958	2.97
456.162	2.8
456.365	3.17
456.569	3.62
456.772	3.57
456.976	3.86
457.179	3.9
457.383	3.9
457.586	3.81
457.79	3.66
457.993	3.41
458.196	3.64
458.4	3.85
458.603	3.73
458.807	3.65
459.01	3.65
459.213	3.5
459.417	3.57
459.62	3.49
459.823	3.47
460.026	3.55
460.23	3.73
460.433	3.6
460.636	3.49
460.839	3.5
461.042	3.27
461.246	3.36
461.449	3.36
461.652	3.37
461.855	3.37
462.058	3.32
462.261	3.36
462.464	3.23
462.668	3.07
462.871	3.13
463.074	3.3
463.277	3.55
463.48	3.63
463.683	3.7
463.886	3.94
464.089	3.92
464.292	3.91
464.495	3.94
464.698	4.11
464.901	4.25
465.104	4.2
465.306	4.02
465.509	3.87
465.712	3.93
465.915	3.91
466.118	3.74
466.321	3.79
466.524	3.95
466.726	3.98
466.929	3.72
467.132	3.7
467.335	3.74
467.538	3.74
467.74	3.75
467.943	3.63
468.146	3.56
468.348	3.65
468.551	3.76
468.754	3.65
468.956	3.72
469.159	3.85
469.362	3.82
469.564	3.9
469.767	3.93
469.969	3.96
470.172	3.75
470.375	3.9
470.577	3.68
470.78	3.67
470.982	3.71
471.185	3.64
471.387	3.65
471.59	3.67
471.792	3.6
471.995	3.55
472.197	3.53
472.399	3.72
472.602	3.59
472.804	3.67
473.007	3.64
473.209	3.65
473.411	3.63
473.614	3.46
473.816	3.7
474.018	3.64
474.22	3.67
474.423	3.74
474.625	3.64
474.827	3.65
475.03	3.69
475.232	3.58
475.434	3.52
475.636	3.35
475.838	3.5
476.04	3.48
476.243	3.59
476.445	3.64
476.647	3.65
476.849	3.69
477.051	3.5
477.253	3.47
477.455	3.5
477.657	3.66
477.859	3.9
478.061	3.85
478.263	3.76
478.465	3.69
478.667	3.62
478.869	3.48
479.071	3.33
479.273	3.59
479.475	3.38
479.677	3.25
479.879	3.1
480.081	3.06
480.283	3.14
480.485	3.16
480.686	3.13
480.888	3.12
481.09	3.2
481.292	3.44
481.494	3.35
481.695	3.6
481.897	3.71
482.099	3.86
482.301	3.87
482.502	3.81
482.704	3.91
482.906	4.01
483.107	4.07
483.309	4.06
483.511	4.08
483.712	4.15
483.914	4.17
484.115	4.23
484.317	4.16
484.519	4.17
484.72	4.2
484.922	4.18
485.123	4.16
485.325	4.18
485.526	4.23
485.728	4.19
485.929	4.19
486.131	4.16
486.332	4.11
486.534	4.17
486.735	4.27
486.936	4.3
487.138	4.37
487.339	4.33
487.541	4.24
487.742	4.22
487.943	4.2
488.144	4.2
488.346	4.18
488.547	4.06
488.748	4.02
488.95	3.91
489.151	3.84
489.352	3.7
489.553	3.69
489.755	3.75
489.956	3.72
490.157	3.7
490.358	3.63
490.559	3.63
490.76	3.75
490.961	3.78
491.163	3.69
491.364	3.7
491.565	3.63
491.766	3.72
491.967	3.71
492.168	3.74
492.369	3.84
492.57	3.85
492.771	3.77
492.972	3.75
493.173	3.77
493.374	3.93
493.575	3.92
493.776	4.03
493.976	3.97
494.177	3.87
494.378	3.85
494.579	3.71
494.78	3.7
494.981	3.8
495.182	3.92
495.382	3.93
495.583	3.73
495.784	3.68
495.985	3.74
496.185	3.64
496.386	3.66
496.587	3.65
496.788	3.59
496.988	3.61
497.189	3.72
497.39	3.75
497.59	3.73
497.791	3.73
497.992	3.83
498.192	3.78
498.393	3.95
498.593	3.98
498.794	4.04
498.994	4.14
499.195	4.15
499.395	4.15
499.596	4.12
499.796	4.09
499.997	4.13
500.197	4.12
500.398	4.2
500.598	4.06
500.799	4.1
500.999	4.04
501.199	4.05
501.4	4.21
501.6	4.01
501.801	3.76
502.001	3.68
502.201	3.76
502.402	3.77
502.602	3.71
502.802	3.92
503.002	4.07
503.203	4.09
503.403	4.06
503.603	4.01
503.803	4.11
504.003	4.46
504.204	4.69
504.404	4.76
504.604	4.68
504.804	4.75
505.004	4.87
505.204	4.89
505.404	5.06
505.604	5.03
505.804	5.01
506.005	5.07
506.205	4.85
506.405	4.84
506.605	4.88
506.805	5.05
507.005	5.15
507.204	5.04
507.404	5.05
507.604	5.01
507.804	5.24
508.004	5.19
508.204	5.22
508.404	5.34
508.604	5.25
508.804	5.43
509.003	5.49
509.203	5.62
509.403	5.69
509.603	5.68
509.803	5.57
510.002	5.49
510.202	5.63
510.402	5.75
510.602	5.99
510.801	6.09
511.001	6.04
511.201	6.08
511.4	6.09
511.6	6.11
511.8	6.3
511.999	6.51
512.199	6.67
512.398	6.86
512.598	6.93
512.797	6.76
512.997	6.91
513.197	6.97
513.396	7.18
513.596	7.1
513.795	7.14
513.994	7.11
514.194	7.1
514.393	7.35
514.593	7.25
514.792	7.15
514.992	7.27
515.191	7.38
515.39	7.39
515.59	7.35
515.789	7.6
515.988	7.61
516.188	7.82
516.387	7.99
516.586	8.03
516.786	8.18
516.985	8.53
517.184	8.71
517.383	8.72
517.582	8.83
517.782	9
517.981	9.13
518.18	9.45
518.379	9.5
518.578	9.55
518.777	9.55
518.976	9.67
519.176	9.72
519.375	9.8
519.574	9.85
519.773	9.89
519.972	9.93
520.171	9.98
520.37	9.93
520.569	9.95
520.768	9.9
520.967	9.99
521.166	10.18
521.365	10.14
521.564	10.27
521.762	10.4
521.961	10.6
522.16	10.77
522.359	10.84
522.558	11.05
522.757	11.26
522.956	11.52
523.154	11.73
523.353	11.89
523.552	12.05
523.751	12.2
523.949	12.46
524.148	12.68
524.347	12.76
524.546	13
524.744	13.06
524.943	13.2
525.142	13.4
525.34	13.42
525.539	13.47
525.737	13.54
525.936	13.57
526.135	13.77
526.333	13.84
526.532	13.93
526.73	14.04
526.929	14.28
527.127	14.42
527.326	14.56
527.524	14.72
527.723	14.87
527.921	15.1
528.12	15.31
528.318	15.39
528.516	15.46
528.715	15.56
528.913	15.67
529.112	15.71
529.31	15.79
529.508	15.83
529.707	15.89
529.905	15.94
530.103	15.97
530.301	15.95
530.5	15.98
530.698	16.02
530.896	16.12
531.094	16.13
531.293	16.31
531.491	16.42
531.689	16.61
531.887	16.82
532.085	16.97
532.283	17.16
532.481	17.39
532.68	17.6
532.878	17.88
533.076	17.95
533.274	18.07
533.472	18.11
533.67	18.12
533.868	18.19
534.066	18.23
534.264	18.29
534.462	18.42
534.66	18.43
534.858	18.43
535.056	18.5
535.253	18.64
535.451	18.77
535.649	18.9
535.847	19.02
536.045	19.08
536.243	19.3
536.441	19.37
536.638	19.45
536.836	19.51
537.034	19.75
537.232	19.68
537.43	19.77
537.627	19.75
537.825	19.69
538.023	19.76
538.22	19.84
538.418	19.79
538.616	19.93
538.813	19.86
539.011	20.04
539.209	20.05
539.406	20.26
539.604	20.43
539.801	20.58
539.999	20.73
540.196	20.98
540.394	21.17
540.591	21.24
540.789	21.3
540.986	21.47
541.184	21.57
541.381	21.6
541.579	21.67
541.776	21.69
541.974	21.76
542.171	21.74
542.368	21.79
542.566	21.82
542.763	21.91
542.96	22
543.158	22.01
543.355	21.96
543.552	22.09
543.75	22.08
543.947	22.1
544.144	22.23
544.341	22.38
544.539	22.5
544.736	22.48
544.933	22.61
545.13	22.67
545.327	22.73
545.524	22.85
545.722	22.76
545.919	22.73
546.116	22.88
546.313	22.86
546.51	22.93
546.707	22.9
546.904	23.12
547.101	23.04
547.298	23.03
547.495	23.14
547.692	23.2
547.889	23.19
548.086	23.49
548.283	23.43
548.48	23.54
548.677	23.7
548.874	23.61
549.07	23.56
549.267	23.82
549.464	23.85
549.661	23.89
549.858	23.92
550.055	23.99
550.251	23.81
550.448	23.95
550.645	23.94
550.842	23.95
551.038	23.98
551.235	24.13
551.432	24.01
551.628	24.31
551.825	24.44
552.022	24.65
552.218	24.87
552.415	25.1
552.612	25.1
552.808	25.13
553.005	25.22
553.201	25.32
553.398	25.24
553.594	25.09
553.791	25.1
553.987	24.98
554.184	24.93
554.38	24.83
554.577	24.96
554.773	24.9
554.97	25.11
555.166	25.03
555.362	25.13
555.559	25.19
555.755	25.38
555.952	25.37
556.148	25.46
556.344	25.61
556.541	25.93
556.737	25.98
556.933	26.21
557.129	26
557.326	26.07
557.522	26.02
557.718	26.15
557.914	26.37
558.11	26.52
558.307	26.63
558.503	26.67
558.699	26.47
558.895	26.41
559.091	26.36
559.287	26.43
559.483	26.49
559.679	26.65
559.876	26.55
560.072	26.62
560.268	26.54
560.464	26.6
560.66	26.46
560.856	26.63
561.052	26.53
561.247	26.57
561.443	26.85
561.639	27.1
561.835	27.28
562.031	27.29
562.227	27.26
562.423	27.37
562.619	27.57
562.815	27.86
563.01	27.92
563.206	28.15
563.402	28.27
563.598	28.2
563.793	28.17
563.989	28.19
564.185	28.27
564.381	28.48
564.576	28.5
564.772	28.37
564.968	28.46
565.163	28.65
565.359	28.49
565.555	28.5
565.75	28.64
565.946	28.67
566.141	28.76
566.337	28.99
566.532	29
566.728	29.01
566.923	29.01
567.119	28.77
567.314	28.53
567.51	28.73
567.705	28.75
567.901	28.58
568.096	28.62
568.292	28.51
568.487	28.59
568.682	28.57
568.878	28.69
569.073	28.72
569.268	28.88
569.464	28.89
569.659	28.76
569.854	28.9
570.05	29.25
570.245	29.22
570.44	29.3
570.635	29.05
570.831	29.07
571.026	28.81
571.221	28.97
571.416	29.05
571.611	29.32
571.806	29.55
572.002	29.56
572.197	29.45
572.392	29.33
572.587	29.39
572.782	29.58
572.977	29.74
573.172	29.99
573.367	29.96
573.562	29.82
573.757	29.55
573.952	29.57
574.147	29.51
574.342	29.55
574.537	29.71
574.732	29.65
574.927	29.56
575.121	29.44
575.316	29.44
575.511	29.63
575.706	29.77
575.901	29.97
576.096	29.67
576.29	29.72
576.485	29.64
576.68	29.62
576.875	29.56
577.069	29.79
577.264	29.89
577.459	29.87
577.654	29.67
577.848	29.71
578.043	29.99
578.238	30.25
578.432	30.36
578.627	30.46
578.821	30.45
579.016	30.54
579.21	30.15
579.405	30.14
579.6	30.04
579.794	29.86
579.989	29.77
580.183	29.56
580.378	29.41
580.572	29.23
580.766	29.48
580.961	29.61
581.155	29.63
581.35	29.8
581.544	29.83
581.738	30.03
581.933	30.28
582.127	30.22
582.321	30.35
582.516	30.65
582.71	31.09
582.904	30.45
583.099	30.58
583.293	30.57
583.487	30.66
583.681	30.71
583.875	30.84
584.07	30.9
584.264	31.14
584.458	30.79
584.652	30.64
584.846	30.49
585.04	30.93
585.234	30.79
585.428	30.8
585.623	31.03
585.817	31.38
586.011	31.21
586.205	31.02
586.399	31.04
586.593	31.18
586.787	31.38
586.981	31.23
587.174	31.05
587.368	31.1
587.562	31.19
587.756	30.96
587.95	30.67
588.144	30.76
588.338	30.66
588.532	30.77
588.725	30.95
588.919	31.12
589.113	31.19
589.307	31.35
589.501	31.34
589.694	31.34
589.888	31.48
590.082	31.29
590.275	31.38
590.469	31.74
590.663	31.76
590.856	31.96
591.05	31.78
591.244	31.8
591.437	31.59
591.631	31.68
591.824	31.82
592.018	31.89
592.212	32.13
592.405	32.18
592.599	32.29
592.792	32.41
592.986	32.31
593.179	32.45
593.372	32.62
593.566	33.1
593.759	33.23
593.953	33.11
594.146	33.05
594.339	32.91
594.533	32.95
594.726	32.86
594.92	32.71
595.113	32.73
595.306	32.72
595.499	32.79
595.693	32.57
595.886	32.61
596.079	32.69
596.272	32.8
596.466	33.08
596.659	33.09
596.852	33.24
597.045	33.36
597.238	33.44
597.431	33.47
597.624	33.55
597.818	33.59
598.011	33.62
598.204	33.86
598.397	33.77
598.59	33.58
598.783	33.59
598.976	33.46
599.169	33.74
599.362	33.59
599.555	33.45
599.748	33.17
599.941	33.4
600.134	33.34
600.326	33.27
600.519	33.29
600.712	33.39
600.905	33.4
601.098	33.31
601.291	32.82
601.483	32.77
601.676	32.75
601.869	33.03
602.062	33.14
602.255	32.95
602.447	32.93
602.64	33.23
602.833	33.26
603.025	33.5
603.218	33.59
603.411	33.61
603.603	33.96
603.796	34.08
603.989	34.01
604.181	33.96
604.374	34.12
604.566	34.11
604.759	34.09
604.951	34.14
605.144	33.85
605.336	33.98
605.529	34.22
605.721	34.09
605.914	34.22
606.106	34.18
606.299	33.96
606.491	33.96
606.683	34.03
606.876	33.91
607.068	34.05
607.26	34.19
607.453	34.21
607.645	34.23
607.837	34.1
608.03	33.89
608.222	33.98
608.414	34.12
608.606	34.03
608.799	33.97
608.991	33.91
609.183	33.65
609.375	33.74
609.567	33.58
609.759	33.53
609.952	33.53
610.144	33.53
610.336	33.39
610.528	33.39
610.72	33.59
610.912	33.41
611.104	33.26
611.296	33.23
611.488	33.26
611.68	33.31
611.872	33.18
612.064	33.33
612.256	33.34
612.448	33.28
612.64	33.27
612.832	32.86
613.023	33.06
613.215	32.92
613.407	32.92
613.599	32.87
613.791	32.72
613.983	32.72
614.174	32.55
614.366	32.5
614.558	33.02
614.75	33.02
614.941	33.53
615.133	33.55
615.325	33.99
615.516	34.54
615.708	34.44
615.9	34.64
616.091	34.69
616.283	34.93
616.475	35.08
616.666	34.74
616.858	34.85
617.049	34.66
617.241	34.83
617.432	34.83
617.624	34.33
617.815	34.21
618.007	34.47
618.198	34.68
618.39	34.71
618.581	34.95
618.773	35.23
618.964	35.19
619.155	35.21
619.347	35.13
619.538	35.23
619.729	35.27
619.921	35.61
620.112	35.38
620.303	35.15
620.494	35.03
620.686	34.73
620.877	34.63
621.068	34.63
621.259	34.48
621.451	34.3
621.642	34.14
621.833	33.5
622.024	33.2
622.215	33.19
622.406	33.16
622.597	33.41
622.788	33.43
622.98	33.47
623.171	33.56
623.362	33.85
623.553	34.12
623.744	34.13
623.935	35.27
624.126	35.31
624.317	35.38
624.508	35.46
624.698	35.17
624.889	35.31
625.08	35.28
625.271	35.41
625.462	35.31
625.653	35.4
625.844	35.37
626.034	34.94
626.225	35.1
626.416	35.05
626.607	35.04
626.798	34.99
626.988	35.14
627.179	35.19
627.37	35.27
627.56	35.34
627.751	35.18
627.942	35.19
628.132	35.43
628.323	35.58
628.514	35.57
628.704	35.6
628.895	35.83
629.085	35.64
629.276	35.75
629.466	35.46
629.657	35.29
629.847	35.25
630.038	35.46
630.228	35.23
630.419	35.01
630.609	35.29
630.8	35.26
630.99	35.09
631.181	35.22
631.371	35.12
631.561	35.16
631.752	35.68
631.942	35.5
632.132	35.37
632.323	35.51
632.513	35.67
632.703	35.55
632.893	35.76
633.084	35.91
633.274	35.61
633.464	35.77
633.654	35.93
633.844	35.44
634.034	35.74
634.225	35.91
634.415	35.83
634.605	35.78
634.795	35.52
634.985	35.48
635.175	35.43
635.365	35.87
635.555	35.67
635.745	35.5
635.935	35.42
636.125	35.23
636.315	35.15
636.505	35.21
636.695	35.05
636.885	35.58
637.075	35.23
637.265	35.57
637.455	35.09
637.644	34.86
637.834	34.86
638.024	34.95
638.214	34.99
638.404	34.9
638.593	35.12
638.783	35.19
638.973	34.88
639.163	35.72
639.352	35.46
639.542	35.71
639.732	36
639.921	36.15
640.111	35.99
640.301	36.26
640.49	36.37
640.68	36.09
640.87	36.3
641.059	35.92
641.249	35.33
641.438	34.73
641.628	35.09
641.817	35.34
642.007	35.58
642.196	35.62
642.386	35.71
642.575	36.01
642.764	36.39
642.954	36.1
643.143	36.64
643.333	36.66
643.522	37.26
643.711	36.66
643.901	36.22
644.09	35.75
644.279	36.15
644.469	36.3
644.658	36.34
644.847	36.35
645.036	36.76
645.226	36.24
645.415	36.36
645.604	36.46
645.793	36.6
645.982	36.81
646.171	37.01
646.361	36.8
646.55	36.65
646.739	36.11
646.928	36.25
647.117	35.89
647.306	36.06
647.495	36.26
647.684	35.84
647.873	36
648.062	36.25
648.251	36.27
648.44	35.94
648.629	35.59
648.818	35.63
649.007	35.16
649.196	34.92
649.384	35.31
649.573	34.86
649.762	35.12
649.951	35.01
650.14	34.51
650.328	34.69
650.517	35.13
650.706	35.03
650.895	35.03
651.083	34.99
651.272	35.51
651.461	34.98
651.65	35.13
651.838	35.11
652.027	35.55
652.216	35.85
652.404	35.58
652.593	36.03
652.781	36.37
652.97	36.57
653.158	36.44
653.347	36.29
653.535	36.7
653.724	36.65
653.912	36.65
654.101	36.82
654.289	36.76
654.478	36.85
654.666	36.17
654.855	36.2
655.043	36.11
655.231	36.37
655.42	36.51
655.608	36.37
655.796	36.38
655.985	36.56
656.173	36.01
656.361	35.78
656.55	35.85
656.738	35.64
656.926	35.49
657.114	35.74
657.302	35.74
657.491	35.79
657.679	35.83
657.867	35.79
658.055	35.83
658.243	35.99
658.431	36.37
658.619	36.43
658.807	37.18
658.996	37.34
659.184	36.98
659.372	37.05
659.56	37.36
659.748	37.6
659.936	37.66
660.124	37.56
660.311	37.71
660.499	37.33
660.687	37.42
660.875	37.12
661.063	37.18
661.251	37.48
661.439	37.35
661.627	36.67
661.814	36.47
662.002	36.51
662.19	36.82
662.378	36.17
662.565	36.41
662.753	36.45
662.941	36.34
663.129	36.04
663.316	36.04
663.504	36.12
663.692	36.53
663.879	36.8
664.067	36.69
664.254	36.67
664.442	37.1
664.63	37.14
664.817	36.76
665.005	36.67
665.192	37.15
665.38	37.07
665.567	37.15
665.755	36.67
665.942	36.02
666.13	36.11
666.317	35.9
666.504	36.07
666.692	36.49
666.879	36.72
667.067	36.74
667.254	36.61
667.441	36.74
667.629	36.54
667.816	37.35
668.003	37.76
668.19	37.71
668.378	37.73
668.565	37.89
668.752	37.38
668.939	37.37
669.127	37.73
669.314	37.66
669.501	37.53
669.688	38.15
669.875	37.85
670.062	38.11
670.249	38.34
670.436	38.07
670.623	37.95
670.81	37.99
670.997	38.09
671.184	37.61
671.371	37.26
671.558	37.15
671.745	37.33
671.932	37.59
672.119	37.4
672.306	37.42
672.493	37.26
672.68	37.17
672.867	37.64
673.054	37.48
673.24	38.11
673.427	38.44
673.614	38.38
673.801	38.1
673.988	37.78
674.174	37.69
674.361	37.76
674.548	38.16
674.734	38.27
674.921	38.08
675.108	37.8
675.294	37.5
675.481	37.48
675.668	37.76
675.854	37.49
676.041	36.83
676.227	36.92
676.414	36.57
676.601	36.99
676.787	36.83
676.974	36.79
677.16	37.06
677.347	36.73
677.533	36.6
677.719	36.43
677.906	36.45
678.092	37.09
678.279	36.92
678.465	37.09
678.651	36.88
678.838	36.82
679.024	36.66
679.21	36.55
679.397	36.73
679.583	36.98
679.769	37.14
679.955	36.77
680.142	37.27
680.328	37.57
680.514	37.94
680.7	37.87
680.886	37.65
681.073	37.87
681.259	37.57
681.445	37.43
681.631	37.59
681.817	37.51
682.003	37.46
682.189	37.06
682.375	36.87
682.561	36.31
682.747	36.41
682.933	36.93
683.119	37.04
683.305	37.73
683.491	38
683.677	37.52
683.863	37.54
684.049	37.7
684.235	37.68
684.42	38.04
684.606	37.93
684.792	37.83
684.978	38.24
685.164	38.11
685.349	37.56
685.535	37.72
685.721	37.74
685.907	38.15
686.092	38.77
686.278	38.46
686.464	37.9
686.649	37.9
686.835	37.98
687.021	36.82
687.206	36.85
687.392	37.11
687.577	36.84
687.763	37.03
687.948	36.92
688.134	36.84
688.319	37.02
688.505	37.25
688.69	37.24
688.876	36.67
689.061	37.32
689.247	37.71
689.432	38.04
689.618	38.28
689.803	38.46
689.988	38.36
690.174	37.93
690.359	37.92
690.544	37.76
690.73	38.26
690.915	38.72
691.1	38.76
691.285	37.63
691.471	37.49
691.656	37.01
691.841	37.39
692.026	36.88
692.211	36.66
692.396	36.77
692.582	36.77
692.767	36.42
692.952	36.17
693.137	36.01
693.322	36.34
693.507	36.58
693.692	36.65
693.877	35.8
694.062	36.78
694.247	37.06
694.432	37.19
694.617	37.04
694.802	38.15
694.987	38.41
695.172	38.29
695.357	38.74
695.541	38.65
695.726	38.94
695.911	38.92
696.096	38.48
696.281	38.8
696.466	38.99
696.65	39.12
696.835	38.68
697.02	38.68
697.204	39.12
697.389	39.15
697.574	38.89
697.759	38.68
697.943	39.25
698.128	39.21
698.312	39.33
698.497	38.74
698.682	39.22
698.866	38.76
699.051	38.97
699.235	39.28
699.42	38.77
699.604	39.06
699.789	39.17
699.973	38.7
700.158	38.7
700.342	38.29
700.527	38.69
700.711	38.64
700.895	38.84
701.08	38.21
701.264	37.46
701.448	37.65
701.633	37.37
701.817	37.23
702.001	37.27
702.186	37.48
702.37	37.75
702.554	37.63
702.738	36.91
702.923	37.04
703.107	37.44
703.291	38.16
703.475	38.65
703.659	38.97
703.843	39.59
704.027	39.8
704.212	39.93
704.396	39.83
704.58	39.72
704.764	40.2
704.948	40.32
705.132	40.39
705.316	40.56
705.5	40.11
705.684	40.31
705.868	40.4
706.052	39.62
706.235	39.97
706.419	39.79
706.603	39.88
706.787	38.69
706.971	37.96
707.155	37.88
707.339	36.88
707.522	37.25
707.706	36.28
707.89	35.7
708.074	35.96
708.257	34.54
708.441	34.55
708.625	33.69
708.808	34.98
708.992	35.12
709.176	35.17
709.359	34.97
709.543	34.83
709.727	34.9
709.91	35.61
710.094	36.33
710.277	36.97
710.461	37.06
710.644	37.97
710.828	37.73
711.011	37.79
711.195	37.7
711.378	37.99
711.562	38.21
711.745	38.28
711.928	38.12
712.112	37.89
712.295	37.54
712.478	38.08
712.662	37.51
712.845	37.81
713.028	38.24
713.212	37.89
713.395	37.57
713.578	37.38
713.761	37.97
713.945	37.2
714.128	37.1
714.311	37.35
714.494	36.77
714.677	37.75
714.86	37.51
715.043	37.61
715.227	38.15
715.41	38.64
715.593	39
715.776	39.01
715.959	39.18
716.142	39.3
716.325	39.38
716.508	39.31
716.691	38.98
716.874	38.21
717.057	37.88
717.239	37.86
717.422	37.5
717.605	37.26
717.788	36.6
717.971	36.8
718.154	36.5
718.337	36.86
718.519	37.35
718.702	36.54
718.885	36.71
719.068	36.24
719.25	36.4
719.433	36.82
719.616	36.9
719.798	36.71
719.981	36.45
720.164	36.37
720.346	35.42
720.529	35.33
720.712	35.77
720.894	36.56
721.077	37.53
721.259	36.5
721.442	35.71
721.624	36.05
721.807	36.16
721.989	36.73
722.172	37.82
722.354	37.4
722.537	37.88
722.719	38.48
722.901	39.03
723.084	38.35
723.266	38.56
723.448	38.82
723.631	38.35
723.813	38.04
723.995	38.38
724.178	37.68
724.36	38.93
724.542	38.37
724.724	37.38
724.907	36.43
725.089	36.46
725.271	37.02
725.453	37.22
725.635	36.52
725.817	36.98
725.999	36.67
726.181	36.2
726.364	36.28
726.546	36.08
726.728	37.65
726.91	38.06
727.092	38.87
727.274	38.38
727.456	37.69
727.638	38.21
727.819	38.89
728.001	39.1
728.183	39.74
728.365	38.84
728.547	38.95
728.729	37.5
728.911	37.62
729.093	37.66
729.274	38.48
729.456	39.44
729.638	38.88
729.82	37.89
730.001	37.1
730.183	36.87
730.365	37.4
730.546	37.68
730.728	37.99
730.91	36.89
731.091	35.91
731.273	36.44
731.455	35.75
731.636	36.52
731.818	37.25
731.999	38.29
732.181	38.04
732.362	38.13
732.544	37.38
732.725	37.02
732.907	37.22
733.088	36.89
733.27	35.62
733.451	36.23
733.633	35.09
733.814	35.17
733.995	35.23
734.177	35.74
734.358	35.66
734.539	36.23
734.721	36.88
734.902	38.02
735.083	38.75
735.264	38.86
735.446	39.16
735.627	40.02
735.808	40.57
735.989	39.65
736.17	39.84
736.351	39.52
736.533	39.32
736.714	40.13
736.895	39.45
737.076	39.51
737.257	40.07
737.438	39.04
737.619	38
737.8	36.88
737.981	36.43
738.162	35.17
738.343	35.36
738.524	35.25
738.705	35.08
738.886	35.77
739.067	35.36
739.247	34.6
739.428	34.78
739.609	35.42
739.79	35.32
739.971	35.93
740.151	36.58
740.332	36.91
740.513	36.62
740.694	35.83
740.874	35.45
741.055	34.64
741.236	35.15
741.417	35.71
741.597	36.65
741.778	36.48
741.958	37.41
742.139	37.57
742.32	36.44
742.5	37.2
742.681	37.38
742.861	37.25
743.042	37.73
743.222	37.49
743.403	37.73
743.583	37.58
743.764	37.35
743.944	36.54
744.124	37.35
744.305	37.65
744.485	37.59
744.666	37.4
744.846	36.48
745.026	37.52
745.207	37.54
745.387	37.51
745.567	36.63
745.747	37.37
745.928	36.68
746.108	35.88
746.288	36.98
746.468	35.75
746.648	36.42
746.829	37.29
747.009	37.23
747.189	37.21
747.369	37.52
747.549	38.32
747.729	37.87
747.909	37.99
748.089	38.38
748.269	37.68
748.449	37.89
748.629	37.08
748.809	35.99
748.989	35.29
749.169	35.11
749.349	34.62
749.529	34.96
749.709	35.33
749.889	35.87
750.068	34.76
750.248	34.93
750.428	35.3
750.608	35.28
750.788	36.01
750.967	35.58
751.147	35.75
751.327	33.29
751.507	32.56
751.686	32.42
751.866	32.65
752.046	33.94
752.225	33.8
752.405	34.76
752.585	34.64
752.764	33.98
752.944	34.83
753.123	34.09
753.303	36.21
753.482	35.65
753.662	36.41
753.841	36.08
754.021	34.67
754.2	34.29
754.38	34.1
754.559	33.99
754.739	34.08
754.918	33.15
755.097	33.85
755.277	33.91
755.456	34.99
755.635	34.36
755.815	34.68
755.994	34.82
756.173	35.55
756.352	34.96
756.532	35.57
756.711	37.39
756.89	38.44
757.069	39.46
757.248	39.4
757.427	39.49
757.607	39.77
757.786	39.91
757.965	40.91
758.144	40.69
758.323	39.97
758.502	39.42
758.681	38.26
758.86	38.51
759.039	37.29
759.218	38.2
759.397	38.07
759.576	38.13
759.755	37.6
759.934	37.54
760.113	37.15
760.291	37.6
760.47	38.45
760.649	37.42
760.828	36.21
761.007	36.16
761.186	34.78
761.364	33.66
761.543	33.69
761.722	33.58
761.901	34.12
762.079	34.82
762.258	35.53
762.437	34.86
762.615	35.54
762.794	37
762.972	38.16
763.151	38.7
763.33	39.74
763.508	40.23
763.687	40.62
763.865	39.79
764.044	40.37
764.222	40.83
764.401	40.94
764.579	41.63
764.758	41.36
764.936	40.8
765.114	41.29
765.293	40.98
765.471	40.49
765.65	40.06
765.828	40.26
766.006	39.96
766.184	38.32
766.363	38.3
766.541	37.96
766.719	37.74
766.898	36.96
767.076	35.37
767.254	34.73
767.432	34.17
767.61	34.83
767.788	34.99
767.967	33.41
768.145	34.96
768.323	35.7
768.501	35.26
768.679	35.38
768.857	36.44
769.035	37.12
769.213	36.96
769.391	37.59
769.569	35.93
769.747	35.6
769.925	37.24
770.103	35.47
770.281	34.9
770.459	34.51
770.636	33.87
770.814	33.51
770.992	34.98
771.17	36.3
771.348	35.39
771.525	37.13
771.703	37.55
771.881	37.89
772.059	39.38
772.236	39.75
772.414	39.62
772.592	40.86
772.769	40.57
772.947	40.55
773.125	40.16
773.302	40.02
773.48	39.59
773.657	38.65
773.835	37.22
774.013	34.6
774.19	35.65
774.368	36.26
774.545	35.52
774.723	36.34
774.9	33.21
775.077	33.24
775.255	33.72
775.432	32.13
775.61	31.81
775.787	32.95
775.964	34.41
776.142	32.24
776.319	31.68
776.496	32.54
776.674	31.72
776.851	33.59
777.028	31.6
777.205	31.04
777.382	31.45
777.56	32.23
777.737	28.82
777.914	30.95
778.091	29.98
778.268	30.84
778.445	30.28
778.622	30.28
778.8	30.34
778.977	30.34
779.154	-0.45
779.331	-1.09
779.508	-1.69
779.685	2.34
779.862	1.63
780.038	5.35
780.215	6.43
780.392	6.66
780.569	6.98
780.746	4.81
780.923	6.33
781.1	37.69
781.277	37.02
781.453	37.82
781.63	35.69
781.807	35.45
781.984	33.6
782.16	33.15
782.337	32.7
782.514	31.06
782.691	33.42
782.867	31.75
783.044	29.62
783.221	31.16
783.397	31.26
783.574	31.13
783.75	30.83
783.927	29.12
784.103	28.89
784.28	28.23
784.456	29.13
784.633	28.47
784.809	28.58
784.986	31.69
785.162	32.57
785.339	30.59
785.515	32.12
785.692	32.6
785.868	34.16
786.044	34.17
786.221	33.88
786.397	36.02
786.573	34.16
786.749	35.97
786.926	36.97
787.102	34.95
787.278	36.38
787.454	35.74
787.631	34.95
787.807	35.46
787.983	35.6
788.159	35.24
788.335	32.86
788.511	35.9
788.687	33.99
788.863	31.52
789.039	31.97
789.216	32.46
789.392	33.04
789.568	31.42
789.744	29.26
789.919	30.33
790.095	33.68
790.271	33.25
790.447	31.47
790.623	33.22
790.799	33.83
790.975	34.23
791.151	33.29
791.327	35.19
791.502	35.72
791.678	39.12
791.854	37.45
792.03	35.1
792.205	33.85
792.381	36.23
792.557	35.45
792.733	35.09
792.908	35.48
793.084	35.76
793.259	33.86
793.435	36.78
793.611	34.97
793.786	34.22
793.962	35.72
794.137	36.32
794.313	34.22
794.488	34.07
794.664	34.45
794.839	32.26
795.015	31.84
795.19	30.48
795.366	29.1
795.541	30.17
795.716	31.45
795.892	28.97
796.067	30.51
796.242	31.97
796.418	32.83
796.593	31.75
796.768	33.37
796.944	33.43
797.119	33.33
797.294	32.8
797.469	30.59
797.644	31.43
797.82	33.08
797.995	32.24
798.17	32.64
798.345	30.05
798.52	31.12
798.695	30.27
798.87	30.98
799.045	31.34
799.22	31.03
799.395	33.19
799.57	30.22
799.745	29.48
799.92	29.71
800.095	28.82
800.27	32.44
800.445	33.7
800.62	34.53
800.795	35.1
800.97	35.46
801.145	36.11
801.319	33.28
801.494	33.12
801.669	31.32
801.844	30.43
802.018	29.72
802.193	29.1
802.368	27.8
802.543	26.46
802.717	25.38
802.892	24.05
803.067	25.8
803.241	26.75
803.416	27.94
803.59	31.08
803.765	31.86
803.94	31.1
804.114	29.19
804.289	32.89
804.463	35.32
804.638	36.69
804.812	36.39
804.986	35.06
805.161	34.14
805.335	32.59
805.51	30.93
805.684	30.78
805.858	32.91
806.033	33.84
806.207	31.3
806.381	31.34
806.556	30.81
806.73	30.35
806.904	28.96
807.078	27.59
807.253	27.46
807.427	29.45
807.601	27.81
807.775	27.7
807.949	27.98
808.123	25.82
808.298	24.05
808.472	23.07
808.646	23.22
808.82	22.61
808.994	22.31
809.168	24.84
809.342	20.08
809.516	21.25
809.69	17.98
809.864	19.03
810.038	18.16
810.212	15.88
810.385	15.14
810.559	18.74
810.733	19.89
810.907	22.79
811.081	23.81
811.255	26.96
811.428	29.62
811.602	30.8
811.776	27.95
811.95	30.85
812.123	34.44
812.297	34.18
812.471	28.61
812.644	30.7
812.818	31.1
812.992	29.69
813.165	31.23
813.339	31.51
813.512	30.61
813.686	31.62
813.86	30.42
814.033	32.14
814.207	33.56
814.38	37.07
814.554	32.54
814.727	33.03
814.9	28.77
815.074	28.01
815.247	24.08
815.421	26.43
815.594	23.56
815.767	25.04
815.941	22.94
816.114	17.73
816.287	19.25
816.46	22.08
816.634	19.72
816.807	25.39
816.98	22.45
817.153	26.79
817.327	25.48
817.5	27.83
817.673	28.07
817.846	26.66
818.019	31.07
818.192	27.47
818.365	24.53
818.538	28.35
818.711	28.49
818.884	31.62
819.057	30.68
819.23	31.09
819.403	30.27
819.576	28.48
819.749	27.27
819.922	31.5
820.095	34.82
820.268	38.55
820.441	34.71
820.614	34.81
820.786	35.29
820.959	35.2
821.132	36.13
821.305	38.41
821.477	39.73
821.65	40.48
821.823	40.11
821.996	39.75
822.168	38.54
822.341	39.79
822.514	40.57
822.686	40.27
822.859	40.64
823.031	41.34
823.204	40.74
823.376	40.48
823.549	40.09
823.722	39.74
823.894	39.99
824.067	40.64
824.239	40.77
824.411	40.75
824.584	41.38
824.756	41.46
824.929	40.27
825.101	41.33
825.273	41.47
825.446	42.3
825.618	41.92
825.79	42.25
825.963	42.54
826.135	41.89
826.307	41.13
826.479	39.34
826.652	39.12
826.824	39.46
826.996	37.7
827.168	37.51
827.34	36.96
827.512	36.7
827.684	35.13
827.856	33.87
828.029	33.99
828.201	33.9
828.373	34.5
828.545	34.24
828.717	35.05
828.889	35.87
829.061	35.14
829.232	34.84
829.404	35.7
829.576	36.92
829.748	37.14
829.92	37.18
830.092	37.31
830.264	37.48
830.436	37.06
830.607	36.62
830.779	37.84
830.951	39.14
831.123	38.65
831.294	39.42
831.466	36.51
831.638	37.02
831.809	36.07
831.981	35.27
832.153	35.7
832.324	34.12
832.496	32.33
832.667	29.28
832.839	25.4
833.011	25.59
833.182	22.95
833.354	24.72
833.525	26.73
833.697	27.63
833.868	25.03
834.039	27.74
834.211	29.2
834.382	30.09
834.554	32.27
834.725	35.21
834.896	35.28
835.068	36.61
835.239	36.32
835.41	36.29
835.581	35.06
835.753	37.33
835.924	33.33
836.095	31.64
836.266	29.55
836.438	27.15
836.609	26.16
836.78	26.52
836.951	22.99
837.122	24.56
837.293	24.19
837.464	24.69
837.635	24.91
837.806	26.19
837.977	25.06
838.148	25.3
838.319	24.19
838.49	23.96
838.661	25.62
838.832	28.18
839.003	27.06
839.174	23.54
839.345	26.28
839.516	27.61
839.687	27.4
839.857	27.26
840.028	25.09
840.199	22.65
840.37	21.4
840.54	16.4
840.711	16.41
840.882	16.96
841.053	21.5
841.223	18.16
841.394	17.15
841.564	20.04
841.735	26.43
841.906	32.9
842.076	33.12
842.247	36.07
842.417	42.17
842.588	36.47
842.758	36.14
842.929	29.91
843.099	31.18
843.27	26.52
843.44	24.04
843.611	16.9
843.781	7.4
843.951	16.05
844.122	11.73
844.292	7.36
844.462	9.83
844.633	14.92
844.803	19.36
844.973	12.23
845.144	16.64
845.314	8.03
845.484	12.25
845.654	16.3
845.824	5.81
845.995	7.94
846.165	0.85
846.335	9.07
846.505	4.18
846.675	8.57
846.845	19
847.015	20.48
847.185	22.87
847.355	21.72
847.525	20.67
847.695	19.92
847.865	17.29
848.035	23.21
848.205	22.01
848.375	22.09
848.545	7.34
848.715	2.97
848.884	-8.94
849.054	-2.76
849.224	-0.11
849.394	-0.44
849.564	6.16
849.733	12.82
849.903	10.2
850.073	10.51
850.243	9.2
850.412	15.51
850.582	11.28
850.752	16.75
850.921	12.13
851.091	4.07
851.26	11.33
851.43	1.87
851.599	-7.12
851.769	-7.49
851.939	3.39
852.108	4.32
852.278	-2.19
852.447	0.5
852.616	3.24
852.786	5.71
852.955	10.83
853.125	2.25
853.294	-1.5
853.463	-3.92
853.633	-2.27
853.802	-28.09
853.971	-45.67
854.141	-61.72
854.31	-75.35
854.479	-74.16
854.648	-76.25
854.818	-71.44
854.987	-46.04
855.156	-37.41
855.325	-32.11
855.494	-37.88
855.663	-32.45
855.832	-15.08
856.001	-9.25
856.171	-6.4
856.34	-10.42
856.509	-1.76
856.678	-16.56
856.847	-19.03
857.016	-23.04
857.185	-26.69
857.353	-20.17
857.522	-4.89
857.691	5.46
857.86	12.51
858.029	9.42
858.198	16.37
858.367	5.22
858.535	1.6
858.704	-4.19
858.873	1.27
859.042	-1.34
859.21	-5.32
859.379	-13.77
859.548	-18.37
859.717	-14.69
859.885	-19.15
860.054	-31.9
860.222	-23.32
860.391	-19.14
860.56	-36.22
860.728	-35.82
860.897	-42.41
861.065	-44.1
861.234	-32.98
861.402	-64.32
861.571	-60.91
861.739	-43.1
861.908	-39.22
862.076	-33.66
862.244	-16.88
862.413	-4.44
862.581	-6.55
862.749	11.87
862.918	19.45
863.086	7.4
863.254	14.35
863.423	1.93
863.591	-1.57
863.759	-4.31
863.927	-3.02
864.096	6.8
864.264	8.81
864.432	14.28
864.6	4.9
864.768	-16.86
864.936	-15.58
865.104	-18.84
865.272	-7.25
865.44	-5.08
865.608	4.34
865.776	-5.24
865.944	-3.4
866.112	12.06
866.28	-5.97
866.448	-14.77
866.616	-4.49
866.784	9.47
866.952	17.02
867.12	5.4
867.288	6.21
867.455	-15.58
867.623	-39.18
867.791	-130.59
867.959	-138.21
868.127	-59.86
868.294	-25.16
868.462	-45.88
868.63	-32.38
868.797	-32.97
868.965	-2.99
869.133	2.89
869.3	4.95
869.468	17.68
869.636	10.66
869.803	0.82
869.971	2.86
870.138	-1.59
870.306	14.49
870.473	1.58
870.641	3.63
870.808	-4.94
870.975	-6.22
871.143	-10.3
871.31	-8.07
871.478	-6.33
871.645	-2.65
871.812	-47.72
871.98	-24.08
872.147	-52.87
872.314	-33.97
872.482	-22.25
872.649	-24.77
872.816	-39.72
872.983	-25.75
873.15	-42.48
873.318	-47.61
873.485	-65.14
873.652	-40.99
873.819	-58.71
873.986	-33.08
874.153	-71.6
874.32	-82.87
874.487	-80.69
874.654	-73.73
874.821	-103.46
874.988	-59.2
875.155	-45.63
875.322	-25.57
875.489	-30.38
875.656	-38.14
875.823	-49.25
875.99	-27.06
876.157	-29.23
876.324	-29.14
876.49	-8.93
876.657	-8.03
876.824	-22.22
876.991	-23.09
877.157	-27.25
877.324	-23.71
877.491	-22.8
877.658	-8.61
877.824	-20.51
877.991	-11.34
878.157	-18.8
878.324	-18.77
878.491	2.46
878.657	22.39
878.824	35.5
878.99	44.56
879.157	50.96
879.323	55.95
879.49	46.52
879.656	58.65
879.823	51.18
879.989	49.53
880.156	45.31
880.322	26.88
880.488	20.5
880.655	11.74
880.821	9.75
880.987	18.6
881.154	20.65
881.32	18.65
881.486	14.28
881.652	19.18
881.819	16.56
881.985	22.53
882.151	22.16
882.317	25.76
882.483	25.75
882.649	26.1
882.816	29.12
882.982	30.78
883.148	32.43
883.314	34.84
883.48	35.84
883.646	38.22
883.812	38.5
883.978	40.69
884.144	40.52
884.31	41.87
884.476	41.26
884.642	38.66
884.807	36.21
884.973	35.27
885.139	33.24
885.305	29.96
885.471	27.71
885.637	26.84
885.802	26.46
885.968	25.41
886.134	24.39
886.3	25.58
886.465	27.27
886.631	26.39
886.797	26.27
886.962	29.5
887.128	30.32
887.293	31.33
887.459	27.43
887.625	30.8
887.79	28.99
887.956	24.86
888.121	21.79
888.287	18.59
888.452	23.1
888.618	24.99
888.783	19.12
