Data from CB_044_Reflection_00001.txt Node
Date: Wed Nov 11 22:11:04 EST 2015
User: robert
Spectrometer: USB4E03001
Autoset integration time: false
Trigger mode: 4
Integration Time (sec): 1.000000E-1
Scans to average: 15
Electric dark correction enabled: true
Nonlinearity correction enabled: false
Boxcar width: 5
Stray light correction enabled: false
XAxis mode: Wavelengths
Stop averaging: false
Number of Pixels in Spectrum: 3648
>>>>>Begin Spectral Data<<<<<
177.566	89.05
177.785	-103.29
178.005	-21.88
178.225	-113.65
178.445	54.39
178.665	64.94
178.885	36.51
179.105	31.95
179.324	37.91
179.544	53.9
179.764	54.68
179.984	18.35
180.204	6.69
180.423	7.45
180.643	29.63
180.863	24.01
181.083	22.81
181.302	13.13
181.522	13.31
181.742	22.09
181.961	22.57
182.181	23.71
182.401	36.68
182.621	34.39
182.84	35
183.06	31.24
183.279	39.06
183.499	49.11
183.719	56.16
183.938	66.4
184.158	79.46
184.377	66.39
184.597	69.53
184.816	82.24
185.036	73.33
185.256	81.28
185.475	77.83
185.695	66.31
185.914	78.7
186.134	76.88
186.353	48.14
186.572	34.75
186.792	43.62
187.011	47.1
187.231	24.55
187.45	42.98
187.67	38.59
187.889	52.64
188.108	42.43
188.328	39.12
188.547	23.93
188.766	40.58
188.986	42.74
189.205	30.67
189.424	21.31
189.644	5.85
189.863	22.37
190.082	27.41
190.302	23.45
190.521	64.97
190.74	91.25
190.959	116.72
191.178	86.52
191.398	75.37
191.617	81.56
191.836	100.67
192.055	92.11
192.274	70.33
192.494	68.37
192.713	71.85
192.932	58.72
193.151	30.85
193.37	18.74
193.589	21.45
193.808	14.63
194.027	30.88
194.246	15.28
194.465	38.07
194.685	44.76
194.904	44.43
195.123	41.22
195.342	24.8
195.561	21.58
195.78	2.05
195.999	1.42
196.218	15.4
196.436	-0.94
196.655	-5.4
196.874	-29.64
197.093	-41.81
197.312	1.5
197.531	-6.1
197.75	19.34
197.969	16.49
198.188	20.43
198.407	15.19
198.625	12.43
198.844	19.74
199.063	8.95
199.282	1.67
199.501	10.79
199.719	4.19
199.938	45.48
200.157	59.89
200.376	69.18
200.594	118.52
200.813	93.04
201.032	108.56
201.251	128.98
201.469	136.67
201.688	127.39
201.907	85.32
202.125	53.89
202.344	49.37
202.563	71.05
202.781	72.05
203	58.58
203.218	40.92
203.437	45.35
203.656	45.35
203.874	42.09
204.093	48.05
204.311	61.38
204.53	65.39
204.748	52.49
204.967	31.22
205.185	24.09
205.404	27.62
205.622	39.49
205.841	53.42
206.059	49.98
206.278	63.48
206.496	55.63
206.715	57.04
206.933	71.18
207.151	63.24
207.37	55.02
207.588	56.93
207.806	62.58
208.025	60.43
208.243	48.5
208.461	55.37
208.68	41.16
208.898	48.48
209.116	24.57
209.335	21.83
209.553	5.38
209.771	18.01
209.989	13.1
210.208	2.39
210.426	2.7
210.644	-2.53
210.862	-27.7
211.081	-6.91
211.299	-1.89
211.517	58.86
211.735	43.22
211.953	66.69
212.171	56
212.39	70.81
212.608	67.38
212.826	71.48
213.044	74.56
213.262	71.31
213.48	91.43
213.698	64.75
213.916	51.47
214.134	57.66
214.352	49.21
214.57	37.65
214.788	49.02
215.006	11.1
215.224	-24.43
215.442	-89.35
215.66	-128.45
215.878	-55.5
216.096	-20.06
216.314	-29.01
216.532	-40.21
216.75	-18.86
216.968	-0.84
217.185	-5.99
217.403	11.56
217.621	20.23
217.839	34.33
218.057	37.38
218.275	43.46
218.492	54.65
218.71	48.52
218.928	52.03
219.146	49.46
219.363	46.47
219.581	58.02
219.799	54.99
220.017	60.69
220.234	45.31
220.452	35.24
220.67	15
220.887	-9.07
221.105	-5.94
221.323	-15.51
221.54	6.41
221.758	12.5
221.976	15.5
222.193	11.16
222.411	5.15
222.629	11.47
222.846	13.76
223.064	19.93
223.281	31.2
223.499	39.16
223.716	36.58
223.934	35.92
224.151	34.57
224.369	24.56
224.586	36.57
224.804	52
225.021	43.79
225.239	47.18
225.456	45.84
225.674	36.8
225.891	28.67
226.108	27.73
226.326	16.55
226.543	15.94
226.76	33.06
226.978	17.84
227.195	8.1
227.413	16.01
227.63	23.53
227.847	22.06
228.064	20.27
228.282	15.78
228.499	15.82
228.716	16.34
228.934	15.52
229.151	12.04
229.368	13.9
229.585	14.98
229.802	12.99
230.02	9.52
230.237	7.37
230.454	7.56
230.671	8.32
230.888	7.95
231.105	8.44
231.323	12.88
231.54	14.8
231.757	11.93
231.974	8.32
232.191	6.31
232.408	7.67
232.625	5.82
232.842	5.43
233.059	5.67
233.276	6.46
233.493	3.82
233.71	3.46
233.927	1.12
234.144	3.28
234.361	6
234.578	10.17
234.795	13.2
235.012	17.82
235.229	20.66
235.446	22.95
235.663	22.31
235.879	24.59
236.096	20.83
236.313	21.73
236.53	20.17
236.747	25.19
236.964	25.48
237.181	21.79
237.397	21.4
237.614	17.04
237.831	13.35
238.048	14.05
238.264	10.14
238.481	9.94
238.698	10.95
238.915	16.86
239.131	13.04
239.348	11.69
239.565	7.6
239.781	8.58
239.998	11.31
240.215	14.03
240.431	15.24
240.648	18.53
240.865	16.56
241.081	17.77
241.298	15.17
241.514	12.9
241.731	15.97
241.947	16.2
242.164	16.75
242.38	15.53
242.597	14.47
242.814	14.23
243.03	13.87
243.246	14.85
243.463	13.12
243.679	14.2
243.896	16.08
244.112	16
244.329	19.12
244.545	16.69
244.762	17.03
244.978	18.3
245.194	17.58
245.411	16.02
245.627	15.04
245.843	15.87
246.06	13.33
246.276	12.55
246.492	10.45
246.709	8.56
246.925	9.8
247.141	9.94
247.357	8.51
247.574	8.84
247.79	8.79
248.006	9.34
248.222	9.29
248.439	9.8
248.655	10.85
248.871	10.95
249.087	11.16
249.303	10.65
249.519	10.57
249.736	11.15
249.952	10.72
250.168	12.09
250.384	12.12
250.6	12.21
250.816	13.3
251.032	10.04
251.248	10.2
251.464	10.2
251.68	11.48
251.896	9.81
252.112	11.91
252.328	11.61
252.544	10.02
252.76	8.69
252.976	8.37
253.192	6.81
253.408	7.76
253.624	8.86
253.84	10.33
254.056	10.06
254.272	14.94
254.487	14.08
254.703	15.06
254.919	15.19
255.135	14.09
255.351	14.57
255.567	16.63
255.782	17.8
255.998	15.85
256.214	15.35
256.43	16.53
256.646	13.16
256.861	12.92
257.077	12.91
257.293	12.94
257.508	14.02
257.724	14.24
257.94	13.07
258.155	11.07
258.371	10.36
258.587	10.33
258.802	9.65
259.018	9.85
259.234	9.04
259.449	9.17
259.665	9.19
259.88	9.2
260.096	8.72
260.312	8.32
260.527	9.22
260.743	9.3
260.958	8.83
261.174	8.53
261.389	8.62
261.605	9.12
261.82	8.48
262.036	8.69
262.251	9.45
262.466	10.26
262.682	10.4
262.897	8.49
263.113	8.62
263.328	9.16
263.543	7.52
263.759	6.12
263.974	6.94
264.189	7.86
264.405	7
264.62	3.71
264.835	1.56
265.051	1.82
265.266	2.79
265.481	2.96
265.696	2.92
265.912	4.2
266.127	5.31
266.342	3.58
266.557	2.73
266.773	3.32
266.988	5
267.203	4.07
267.418	5.31
267.633	5.6
267.848	6.02
268.064	4.81
268.279	5.53
268.494	4.76
268.709	6.74
268.924	7.58
269.139	6.7
269.354	6.77
269.569	8
269.784	7.62
269.999	7.04
270.214	6.32
270.429	7.39
270.644	7.37
270.859	8.35
271.074	7.6
271.289	8.45
271.504	9.96
271.719	9.69
271.934	9.3
272.149	9.69
272.363	10.9
272.578	11.9
272.793	11.75
273.008	11.86
273.223	11.06
273.438	10.77
273.653	10.99
273.867	10.55
274.082	9.75
274.297	10.61
274.512	10.43
274.726	8.55
274.941	8.75
275.156	9.47
275.371	8.41
275.585	9.08
275.8	9.53
276.015	9.48
276.229	8.6
276.444	9.67
276.659	9.45
276.873	8.64
277.088	8.71
277.302	8.36
277.517	7.22
277.732	10.06
277.946	10.43
278.161	10.32
278.375	9.08
278.59	10.51
278.804	10.04
279.019	8.7
279.233	9.66
279.448	9.64
279.662	9.31
279.877	9.15
280.091	7.3
280.306	7.95
280.52	7.9
280.735	8.16
280.949	6.71
281.163	7.61
281.378	7.64
281.592	7.09
281.806	8.2
282.021	6.47
282.235	6.7
282.449	6.15
282.664	4.5
282.878	2.84
283.092	2.55
283.307	4.26
283.521	4.01
283.735	5.4
283.949	5.34
284.164	4.68
284.378	6.11
284.592	5.9
284.806	6.06
285.02	6.31
285.234	6.97
285.449	7.49
285.663	7.08
285.877	7.29
286.091	7.29
286.305	6.47
286.519	6.28
286.733	5.71
286.947	5.45
287.161	5.73
287.375	6.37
287.589	7.06
287.803	5.88
288.017	4.25
288.231	4.07
288.445	3.95
288.659	4.57
288.873	5.42
289.087	5.74
289.301	6.76
289.515	7.31
289.729	7
289.943	6.81
290.157	7.85
290.371	8.81
290.584	9.86
290.798	9.18
291.012	9.47
291.226	9.92
291.44	10.39
291.654	10.22
291.867	9.57
292.081	9.41
292.295	9.72
292.509	9.93
292.722	10.06
292.936	8.05
293.15	9.96
293.364	10.99
293.577	11
293.791	11.18
294.005	11.03
294.218	11.7
294.432	12.51
294.645	12.06
294.859	9.69
295.073	9.35
295.286	9.26
295.5	7.51
295.713	6.69
295.927	6.48
296.14	6.84
296.354	7.86
296.568	7.03
296.781	6.9
296.994	7.68
297.208	9.45
297.421	10.19
297.635	10.75
297.848	11.23
298.062	11.2
298.275	11.32
298.489	10.67
298.702	10.04
298.915	10.96
299.129	11.43
299.342	10.65
299.555	11.34
299.769	11.31
299.982	11.71
300.195	12.28
300.409	12.29
300.622	12.62
300.835	12.54
301.048	14.06
301.262	12.91
301.475	12.73
301.688	14.05
301.901	12.27
302.115	11.97
302.328	11.88
302.541	11.2
302.754	11.43
302.967	11.15
303.18	12.78
303.393	12.13
303.607	13.51
303.82	12.84
304.033	11.97
304.246	11.59
304.459	11.97
304.672	11.44
304.885	12.73
305.098	12.16
305.311	12.12
305.524	11.25
305.737	10.73
305.95	9.48
306.163	9.91
306.376	10.27
306.589	11.73
306.802	12.02
307.015	12.1
307.228	10.12
307.44	11.09
307.653	11.98
307.866	11.13
308.079	11.02
308.292	10.65
308.505	9.96
308.718	9.84
308.93	9.67
309.143	7.98
309.356	8.3
309.569	9.61
309.781	9.52
309.994	8.77
310.207	8.73
310.42	9.23
310.632	10.76
310.845	11.19
311.058	11.83
311.27	12.71
311.483	13.36
311.696	13.58
311.908	13.32
312.121	13.26
312.333	13.32
312.546	13.69
312.759	13.43
312.971	12.47
313.184	12.52
313.396	11.8
313.609	11.11
313.821	11.76
314.034	12.26
314.246	12.76
314.459	12.72
314.671	12.92
314.884	13.54
315.096	12.91
315.309	12.88
315.521	12.26
315.733	12.68
315.946	11.4
316.158	10.01
316.371	10.04
316.583	8.38
316.795	8.44
317.008	8.61
317.22	9.41
317.432	9.8
317.644	10.41
317.857	11.91
318.069	11.26
318.281	10.8
318.494	12
318.706	12.66
318.918	14.02
319.13	14.86
319.342	15.41
319.555	14.49
319.767	14.4
319.979	13.81
320.191	12.88
320.403	14.15
320.615	14.8
320.827	14.17
321.039	12.7
321.252	12.53
321.464	12
321.676	11.19
321.888	12.24
322.1	12.9
322.312	13.52
322.524	14.09
322.736	13.21
322.948	13.69
323.16	13.55
323.372	14.15
323.584	14.61
323.796	15.51
324.007	14.96
324.219	15.26
324.431	14.76
324.643	15.04
324.855	15.71
325.067	15.97
325.279	16.15
325.491	17.33
325.702	16.65
325.914	16.47
326.126	15.44
326.338	15.1
326.55	13.31
326.761	14.61
326.973	14.2
327.185	13.58
327.396	13.57
327.608	13.31
327.82	12.99
328.032	14.09
328.243	14.05
328.455	14.68
328.666	15.47
328.878	16.49
329.09	15.31
329.301	15.2
329.513	14.52
329.725	14.77
329.936	16.11
330.148	15.54
330.359	13.47
330.571	13.34
330.782	13.56
330.994	13.28
331.205	13.82
331.417	14.54
331.628	15.08
331.84	16.32
332.051	16.95
332.262	15.44
332.474	16.2
332.685	17.61
332.897	17.71
333.108	17.8
333.319	18.43
333.531	18.78
333.742	18.99
333.953	19.23
334.165	18.64
334.376	19.05
334.587	20
334.799	20.43
335.01	20.99
335.221	20.9
335.432	21.14
335.644	21.11
335.855	21.26
336.066	20.95
336.277	21.3
336.488	21.75
336.7	20.19
336.911	19.84
337.122	19.18
337.333	18.79
337.544	18.89
337.755	18.82
337.966	18.77
338.177	17.93
338.388	17.19
338.599	17.1
338.811	16.57
339.022	17.03
339.233	16.94
339.444	17.61
339.655	17.84
339.866	18.11
340.076	17.68
340.287	18.33
340.498	18.66
340.709	19.3
340.92	19.43
341.131	19.4
341.342	19.32
341.553	19.2
341.764	19.11
341.975	18.61
342.185	18.33
342.396	18.91
342.607	17.79
342.818	17.19
343.029	16.41
343.239	16.43
343.45	16.4
343.661	15.84
343.872	15.69
344.082	15.23
344.293	15.38
344.504	15.21
344.714	15.1
344.925	15.62
345.136	16.93
345.346	18.2
345.557	17.15
345.768	17
345.978	18.11
346.189	19.03
346.399	19
346.61	19.06
346.821	19.68
347.031	19.23
347.242	19.61
347.452	18.68
347.663	18.47
347.873	18.31
348.084	19.03
348.294	19.06
348.504	18.83
348.715	19.32
348.925	19.55
349.136	18.47
349.346	17.82
349.557	17.2
349.767	17.17
349.977	16.79
350.188	17.24
350.398	17.25
350.608	16.7
350.819	15.83
351.029	15.25
351.239	15.11
351.449	16.36
351.66	15.92
351.87	16.69
352.08	16.59
352.29	16.39
352.501	17.7
352.711	17.62
352.921	17.06
353.131	17.4
353.341	17.35
353.552	17.34
353.762	16.18
353.972	17.2
354.182	16.14
354.392	16.03
354.602	16.29
354.812	14.55
355.022	13.9
355.232	15.08
355.442	15.14
355.652	15.54
355.862	15.7
356.072	15.99
356.282	16.18
356.492	16.43
356.702	16.74
356.912	16.3
357.122	16.49
357.332	17.28
357.542	17.36
357.752	16.82
357.962	16.55
358.171	16.38
358.381	16.76
358.591	16.26
358.801	16.65
359.011	15.97
359.221	16.38
359.43	16.74
359.64	15.39
359.85	14.61
360.06	14.59
360.269	14.56
360.479	13.99
360.689	13.79
360.899	13.71
361.108	13.45
361.318	13.8
361.528	13.57
361.737	13.48
361.947	14.12
362.156	14.02
362.366	14.36
362.576	14.28
362.785	14.85
362.995	14.62
363.204	15.04
363.414	14.97
363.623	15.44
363.833	15.02
364.042	14.85
364.252	15
364.461	15.05
364.671	14.91
364.88	14.79
365.09	14.2
365.299	14.57
365.509	14.16
365.718	14.22
365.927	13.84
366.137	14.13
366.346	14.49
366.555	14.45
366.765	14.12
366.974	14.6
367.183	15.05
367.393	15.79
367.602	15.46
367.811	15.36
368.021	15.26
368.23	14.97
368.439	14.98
368.648	14.81
368.857	14.41
369.067	14.5
369.276	13.98
369.485	13.99
369.694	13.88
369.903	13.91
370.112	13.63
370.321	13.45
370.531	13.01
370.74	13.47
370.949	12.93
371.158	12.81
371.367	13.13
371.576	13.63
371.785	13.16
371.994	12.56
372.203	12.8
372.412	13.24
372.621	13.16
372.83	13.11
373.039	12.97
373.248	12.56
373.457	12.67
373.666	12.43
373.874	12.36
374.083	12.26
374.292	11.86
374.501	11.69
374.71	11.59
374.919	11.78
375.128	12.48
375.336	12.19
375.545	12.75
375.754	13.02
375.963	13.05
376.171	12.61
376.38	12.17
376.589	12.46
376.798	11.96
377.006	11.77
377.215	11.75
377.424	11.47
377.632	11.5
377.841	11.31
378.05	10.59
378.258	10.28
378.467	10.13
378.675	10.46
378.884	10.34
379.093	10.08
379.301	9.93
379.51	9.5
379.718	9.27
379.927	9.07
380.135	9
380.344	8.81
380.552	8.92
380.761	8.28
380.969	8.02
381.177	7.87
381.386	8.08
381.594	8.25
381.803	8.47
382.011	8.49
382.219	8.39
382.428	8.45
382.636	8.66
382.845	8.64
383.053	9.06
383.261	9.28
383.469	9.5
383.678	9.06
383.886	8.4
384.094	8.54
384.302	8.73
384.511	8.46
384.719	8.32
384.927	8.74
385.135	8.8
385.343	8.99
385.552	9.03
385.76	9.19
385.968	9.25
386.176	9.83
386.384	9.62
386.592	9.34
386.8	9.74
387.008	9.87
387.216	9.55
387.424	9.44
387.633	8.84
387.841	8.64
388.049	8.03
388.257	8.08
388.465	8.04
388.672	7.99
388.88	7.79
389.088	7.5
389.296	7.15
389.504	6.93
389.712	6.83
389.92	7.28
390.128	7.13
390.336	7.35
390.544	7.86
390.751	7.7
390.959	7.93
391.167	8.05
391.375	8.11
391.583	8.32
391.79	8.41
391.998	8.49
392.206	8.29
392.414	8.03
392.621	7.55
392.829	7.35
393.037	7.22
393.244	6.92
393.452	7.09
393.66	7
393.867	7.19
394.075	7.31
394.283	7.22
394.49	7.54
394.698	7.87
394.905	8.34
395.113	7.61
395.32	7.56
395.528	7.82
395.735	7.64
395.943	7.64
396.15	7.33
396.358	7.12
396.565	7.09
396.773	6.74
396.98	6.69
397.188	6.66
397.395	7.28
397.602	7.37
397.81	7.31
398.017	7.15
398.225	6.76
398.432	6.72
398.639	6.64
398.847	6.44
399.054	6.52
399.261	6.34
399.468	6.42
399.676	6.45
399.883	6.28
400.09	5.82
400.297	5.91
400.505	5.86
400.712	5.65
400.919	5.58
401.126	5.59
401.333	5.36
401.54	5.33
401.748	5.04
401.955	4.97
402.162	5.16
402.369	5.38
402.576	5.36
402.783	5.91
402.99	5.91
403.197	5.83
403.404	5.91
403.611	6.21
403.818	6.3
404.025	6.5
404.232	6.45
404.439	6.31
404.646	6.04
404.853	5.79
405.06	5.47
405.267	5.49
405.474	5.46
405.681	5.29
405.887	5.15
406.094	5.27
406.301	5.43
406.508	5.44
406.715	5.32
406.922	5.51
407.128	5.79
407.335	5.71
407.542	5.62
407.749	5.71
407.955	5.75
408.162	5.49
408.369	4.93
408.575	4.74
408.782	4.77
408.989	4.83
409.195	4.83
409.402	4.69
409.609	4.85
409.815	4.96
410.022	5.3
410.228	5.15
410.435	5.33
410.642	5.27
410.848	4.91
411.055	5.03
411.261	5.07
411.468	5.13
411.674	5.16
411.881	5.06
412.087	5.2
412.294	5.09
412.5	5.4
412.706	5.34
412.913	5.37
413.119	5.51
413.326	5.36
413.532	5.12
413.738	5.13
413.945	5.02
414.151	5.17
414.357	4.89
414.564	4.67
414.77	4.4
414.976	4.35
415.182	4.64
415.389	4.35
415.595	4.29
415.801	4.68
416.007	4.65
416.214	4.21
416.42	4.37
416.626	4.65
416.832	4.78
417.038	4.95
417.244	5.05
417.45	4.91
417.657	5.15
417.863	5.21
418.069	4.94
418.275	5.01
418.481	5.2
418.687	5.12
418.893	5.11
419.099	5.21
419.305	4.95
419.511	4.94
419.717	5.04
419.923	4.97
420.129	4.89
420.335	4.95
420.541	4.79
420.746	4.81
420.952	4.68
421.158	4.49
421.364	4.22
421.57	4.36
421.776	4.36
421.982	4.33
422.187	4.31
422.393	4.28
422.599	4.23
422.805	4.4
423.01	4.48
423.216	4.52
423.422	4.58
423.628	4.57
423.833	4.44
424.039	4.34
424.245	4.35
424.45	4.44
424.656	4.51
424.862	4.57
425.067	4.62
425.273	4.7
425.478	4.59
425.684	4.61
425.889	4.81
426.095	4.94
426.301	4.9
426.506	4.96
426.712	4.76
426.917	4.62
427.123	4.49
427.328	4.29
427.533	4.02
427.739	4.04
427.944	4.03
428.15	3.72
428.355	3.85
428.561	4.11
428.766	4.04
428.971	4.25
429.177	4.55
429.382	4.68
429.587	4.52
429.793	4.82
429.998	4.93
430.203	4.83
430.408	4.93
430.614	4.79
430.819	4.45
431.024	4.54
431.229	4.63
431.434	4.45
431.64	4.53
431.845	4.58
432.05	4.53
432.255	4.37
432.46	4.51
432.665	4.34
432.87	4.38
433.076	4.61
433.281	4.56
433.486	4.36
433.691	4.27
433.896	4.2
434.101	4.23
434.306	4.17
434.511	4.2
434.716	4.2
434.921	4.57
435.126	4.73
435.331	4.69
435.535	4.64
435.74	4.61
435.945	4.62
436.15	4.71
436.355	4.86
436.56	4.8
436.765	4.6
436.97	4.7
437.174	4.49
437.379	4.2
437.584	4.25
437.789	4.46
437.993	4.66
438.198	4.74
438.403	4.62
438.608	4.43
438.812	4.31
439.017	4.68
439.222	4.55
439.426	4.58
439.631	4.58
439.836	4.66
440.04	4.36
440.245	4.23
440.45	4.26
440.654	4.38
440.859	4.41
441.063	4.55
441.268	4.4
441.472	4.48
441.677	4.49
441.881	4.79
442.086	4.74
442.29	4.86
442.495	4.94
442.699	4.93
442.904	4.81
443.108	4.82
443.312	4.91
443.517	4.95
443.721	4.86
443.925	4.84
444.13	4.42
444.334	4.35
444.538	4.34
444.743	4.31
444.947	4.11
445.151	4.04
445.356	4.18
445.56	4.01
445.764	4.11
445.968	4.03
446.173	4
446.377	4.07
446.581	4.09
446.785	4.11
446.989	4.04
447.193	4.19
447.398	4.08
447.602	3.81
447.806	3.83
448.01	3.78
448.214	3.83
448.418	3.79
448.622	3.71
448.826	3.55
449.03	3.51
449.234	3.59
449.438	3.62
449.642	3.81
449.846	4.06
450.05	4.21
450.254	3.93
450.458	4
450.662	4.15
450.866	4.1
451.069	4.14
451.273	3.8
451.477	3.7
451.681	3.56
451.885	3.63
452.089	3.47
452.292	3.51
452.496	3.79
452.7	3.61
452.904	3.54
453.107	3.87
453.311	3.94
453.515	4.12
453.719	4.23
453.922	4.11
454.126	4.25
454.33	4.27
454.533	4.08
454.737	4.21
454.94	4.37
455.144	4.25
455.348	4.14
455.551	4.3
455.755	4.35
455.958	4.41
456.162	4.65
456.365	4.6
456.569	4.63
456.772	4.92
456.976	4.51
457.179	4.62
457.383	4.71
457.586	4.59
457.79	4.33
457.993	4.2
458.196	4.17
458.4	3.85
458.603	3.66
458.807	3.83
459.01	3.7
459.213	3.9
459.417	3.82
459.62	3.82
459.823	3.79
460.026	3.8
460.23	3.87
460.433	3.87
460.636	4.01
460.839	4.12
461.042	4.08
461.246	4.07
461.449	4
461.652	3.96
461.855	4.02
462.058	4.09
462.261	4.18
462.464	4.27
462.668	4.24
462.871	4.17
463.074	3.91
463.277	4
463.48	4.13
463.683	4.19
463.886	4
464.089	4.03
464.292	4.08
464.495	3.92
464.698	3.96
464.901	3.78
465.104	3.99
465.306	4.22
465.509	3.93
465.712	3.68
465.915	3.61
466.118	3.76
466.321	3.66
466.524	3.51
466.726	3.46
466.929	3.46
467.132	3.58
467.335	3.55
467.538	3.68
467.74	3.85
467.943	3.89
468.146	3.94
468.348	3.93
468.551	3.73
468.754	3.92
468.956	4.1
469.159	3.92
469.362	3.88
469.564	3.88
469.767	3.6
469.969	3.59
470.172	3.51
470.375	3.53
470.577	3.58
470.78	3.86
470.982	3.76
471.185	3.85
471.387	4.03
471.59	4.12
471.792	4.04
471.995	4.03
472.197	4.2
472.399	4.08
472.602	4.01
472.804	4.18
473.007	4.28
473.209	4.28
473.411	4.19
473.614	4.09
473.816	3.88
474.018	3.93
474.22	4.09
474.423	3.92
474.625	4.04
474.827	4.17
475.03	4.02
475.232	3.82
475.434	3.75
475.636	3.6
475.838	3.58
476.04	3.65
476.243	3.52
476.445	3.42
476.647	3.47
476.849	3.75
477.051	3.57
477.253	3.56
477.455	3.57
477.657	3.52
477.859	3.67
478.061	3.96
478.263	3.96
478.465	4.08
478.667	3.99
478.869	3.86
479.071	3.76
479.273	3.99
479.475	3.88
479.677	3.98
479.879	4.13
480.081	4.12
480.283	3.9
480.485	4.1
480.686	4.1
480.888	4.24
481.09	4.28
481.292	4.26
481.494	4.18
481.695	4.24
481.897	4.16
482.099	4.11
482.301	4.05
482.502	4.03
482.704	3.9
482.906	3.8
483.107	3.73
483.309	3.67
483.511	3.62
483.712	3.64
483.914	3.63
484.115	3.62
484.317	3.59
484.519	3.59
484.72	3.62
484.922	3.6
485.123	3.65
485.325	3.69
485.526	3.72
485.728	3.73
485.929	3.64
486.131	3.62
486.332	3.64
486.534	3.63
486.735	3.63
486.936	3.61
487.138	3.6
487.339	3.54
487.541	3.5
487.742	3.54
487.943	3.51
488.144	3.58
488.346	3.61
488.547	3.56
488.748	3.56
488.95	3.54
489.151	3.45
489.352	3.49
489.553	3.57
489.755	3.56
489.956	3.45
490.157	3.49
490.358	3.47
490.559	3.46
490.76	3.48
490.961	3.51
491.163	3.57
491.364	3.62
491.565	3.66
491.766	3.7
491.967	3.8
492.168	3.8
492.369	3.71
492.57	3.62
492.771	3.58
492.972	3.56
493.173	3.57
493.374	3.48
493.575	3.59
493.776	3.59
493.976	3.57
494.177	3.54
494.378	3.7
494.579	3.84
494.78	4.04
494.981	4.12
495.182	4.18
495.382	4.26
495.583	4.33
495.784	4.11
495.985	4.06
496.185	4.05
496.386	4.02
496.587	3.93
496.788	3.9
496.988	3.76
497.189	3.8
497.39	3.85
497.59	3.83
497.791	3.9
497.992	3.94
498.192	3.97
498.393	3.79
498.593	3.85
498.794	3.94
498.994	3.99
499.195	4.11
499.395	4.09
499.596	3.99
499.796	3.85
499.997	3.97
500.197	4.12
500.398	4.26
500.598	4.5
500.799	4.42
500.999	4.37
501.199	4.45
501.4	4.43
501.6	4.33
501.801	4.41
502.001	4.51
502.201	4.4
502.402	4.37
502.602	4.2
502.802	4.23
503.002	4.23
503.203	4.17
503.403	3.94
503.603	4.06
503.803	4.41
504.003	4.46
504.204	4.67
504.404	4.82
504.604	4.76
504.804	4.9
505.004	5.1
505.204	5.17
505.404	5.15
505.604	5.24
505.804	5.29
506.005	5.21
506.205	5.26
506.405	5.21
506.605	5.14
506.805	5.41
507.005	5.47
507.204	5.29
507.404	5.36
507.604	5.53
507.804	5.8
508.004	5.8
508.204	5.73
508.404	5.79
508.604	5.88
508.804	5.83
509.003	5.82
509.203	5.76
509.403	5.72
509.603	5.76
509.803	5.79
510.002	5.68
510.202	5.85
510.402	6.08
510.602	6.15
510.801	6.17
511.001	6.32
511.201	6.28
511.4	6.37
511.6	6.58
511.8	6.53
511.999	6.62
512.199	6.67
512.398	6.6
512.598	6.6
512.797	6.67
512.997	6.74
513.197	6.75
513.396	6.84
513.596	7.01
513.795	6.97
513.994	7.06
514.194	7.08
514.393	7.19
514.593	7.29
514.792	7.22
514.992	7.28
515.191	7.25
515.39	7.3
515.59	7.47
515.789	7.43
515.988	7.48
516.188	7.45
516.387	7.58
516.586	7.83
516.786	7.93
516.985	8.21
517.184	8.18
517.383	8.42
517.582	8.41
517.782	8.37
517.981	8.38
518.18	8.48
518.379	8.63
518.578	8.66
518.777	8.6
518.976	8.62
519.176	8.55
519.375	8.69
519.574	8.75
519.773	8.95
519.972	9.02
520.171	9.15
520.37	9.29
520.569	9.41
520.768	9.45
520.967	9.6
521.166	9.58
521.365	9.69
521.564	9.92
521.762	9.9
521.961	9.89
522.16	9.98
522.359	9.97
522.558	9.92
522.757	10
522.956	10.15
523.154	10.29
523.353	10.55
523.552	10.64
523.751	10.52
523.949	10.73
524.148	10.94
524.347	11.11
524.546	11.26
524.744	11.4
524.943	11.44
525.142	11.43
525.34	11.42
525.539	11.54
525.737	11.64
525.936	11.68
526.135	11.8
526.333	11.8
526.532	11.72
526.73	11.82
526.929	11.91
527.127	11.98
527.326	12.13
527.524	12.25
527.723	12.31
527.921	12.35
528.12	12.4
528.318	12.39
528.516	12.44
528.715	12.61
528.913	12.69
529.112	12.76
529.31	12.74
529.508	12.81
529.707	12.83
529.905	12.78
530.103	12.83
530.301	12.91
530.5	12.96
530.698	13.05
530.896	13.12
531.094	13.22
531.293	13.36
531.491	13.59
531.689	13.69
531.887	13.82
532.085	14.15
532.283	14.3
532.481	14.4
532.68	14.46
532.878	14.52
533.076	14.6
533.274	14.59
533.472	14.63
533.67	14.73
533.868	14.77
534.066	14.82
534.264	14.75
534.462	14.86
534.66	14.93
534.858	15.05
535.056	15.17
535.253	15.25
535.451	15.39
535.649	15.38
535.847	15.52
536.045	15.67
536.243	15.89
536.441	16.01
536.638	16.03
536.836	16.08
537.034	16.08
537.232	16.26
537.43	16.35
537.627	16.45
537.825	16.62
538.023	16.7
538.22	16.82
538.418	16.84
538.616	17.01
538.813	17.39
539.011	17.65
539.209	18.01
539.406	18.2
539.604	18.45
539.801	18.72
539.999	18.97
540.196	19.09
540.394	19.23
540.591	19.43
540.789	19.51
540.986	19.5
541.184	19.58
541.381	19.66
541.579	19.68
541.776	19.69
541.974	19.71
542.171	19.76
542.368	19.94
542.566	20.07
542.763	20.12
542.96	20.25
543.158	20.33
543.355	20.52
543.552	20.71
543.75	20.99
543.947	21.21
544.144	21.53
544.341	21.86
544.539	22.12
544.736	22.34
544.933	22.73
545.13	23.14
545.327	23.58
545.524	23.82
545.722	24
545.919	23.98
546.116	24.08
546.313	24.1
546.51	24
546.707	23.96
546.904	23.91
547.101	23.7
547.298	23.52
547.495	23.22
547.692	23.04
547.889	22.8
548.086	22.72
548.283	22.67
548.48	22.63
548.677	22.68
548.874	22.54
549.07	22.51
549.267	22.49
549.464	22.42
549.661	22.49
549.858	22.75
550.055	22.81
550.251	22.82
550.448	22.72
550.645	22.7
550.842	22.45
551.038	22.33
551.235	22.39
551.432	22.41
551.628	22.49
551.825	22.53
552.022	22.34
552.218	22.35
552.415	22.35
552.612	22.49
552.808	22.39
553.005	22.56
553.201	22.64
553.398	22.45
553.594	22.59
553.791	22.51
553.987	22.48
554.184	22.46
554.38	22.54
554.577	22.69
554.773	22.66
554.97	22.86
555.166	22.76
555.362	22.9
555.559	23.16
555.755	23.04
555.952	23.17
556.148	23.31
556.344	23.51
556.541	23.41
556.737	23.24
556.933	23.34
557.129	23.18
557.326	23.26
557.522	23.31
557.718	23.22
557.914	23.25
558.11	23.46
558.307	23.32
558.503	23.01
558.699	23.17
558.895	23.3
559.091	23.31
559.287	23.61
559.483	23.56
559.679	23.68
559.876	23.87
560.072	24.06
560.268	23.9
560.464	24
560.66	24.24
560.856	24.45
561.052	24.42
561.247	24.34
561.443	24.32
561.639	24.27
561.835	24.26
562.031	24.03
562.227	23.83
562.423	23.82
562.619	23.72
562.815	23.75
563.01	23.57
563.206	23.77
563.402	23.98
563.598	23.79
563.793	23.92
563.989	23.9
564.185	24.15
564.381	24.44
564.576	24.47
564.772	24.6
564.968	24.63
565.163	24.58
565.359	24.39
565.555	24.39
565.75	24.34
565.946	24.38
566.141	24.33
566.337	24.29
566.532	24.34
566.728	24.49
566.923	24.47
567.119	24.62
567.314	24.79
567.51	24.87
567.705	24.81
567.901	24.88
568.096	24.93
568.292	25.15
568.487	25.09
568.682	24.91
568.878	24.88
569.073	24.95
569.268	24.97
569.464	24.94
569.659	24.81
569.854	24.78
570.05	25.09
570.245	25.26
570.44	25.11
570.635	25.32
570.831	25.44
571.026	25.4
571.221	25.41
571.416	25.25
571.611	25.11
571.806	25.27
572.002	25.39
572.197	25.12
572.392	25.04
572.587	24.98
572.782	24.88
572.977	24.86
573.172	24.75
573.367	24.65
573.562	24.52
573.757	24.65
573.952	24.79
574.147	24.87
574.342	25.24
574.537	25.21
574.732	25.33
574.927	25.4
575.121	25.44
575.316	25.66
575.511	25.92
575.706	26.15
575.901	26.36
576.096	26.33
576.29	26.37
576.485	26.45
576.68	26.73
576.875	26.94
577.069	26.98
577.264	27.29
577.459	27.45
577.654	27.61
577.848	27.56
578.043	27.6
578.238	27.79
578.432	27.88
578.627	27.65
578.821	27.84
579.016	28.1
579.21	28.09
579.405	27.99
579.6	27.92
579.794	27.69
579.989	27.99
580.183	27.61
580.378	27.59
580.572	27.54
580.766	27.66
580.961	27.49
581.155	27.26
581.35	27.41
581.544	27.54
581.738	27.71
581.933	28.16
582.127	28.18
582.321	28.49
582.516	28.32
582.71	28.52
582.904	28.52
583.099	28.45
583.293	28.38
583.487	28.52
583.681	28.43
583.875	28.41
584.07	28.17
584.264	28.43
584.458	28.45
584.652	28.75
584.846	28.54
585.04	28.55
585.234	28.7
585.428	28.94
585.623	29.26
585.817	29.3
586.011	29.29
586.205	29.29
586.399	29.35
586.593	29.73
586.787	29.72
586.981	29.76
587.174	29.72
587.368	29.7
587.562	29.67
587.756	29.49
587.95	29.43
588.144	29.55
588.338	29.5
588.532	29.31
588.725	29.19
588.919	29.29
589.113	29.54
589.307	29.57
589.501	29.52
589.694	29.55
589.888	29.14
590.082	29.09
590.275	28.95
590.469	28.93
590.663	28.91
590.856	28.85
591.05	28.74
591.244	29
591.437	29
591.631	29.16
591.824	29.2
592.018	29.45
592.212	29.78
592.405	29.82
592.599	30.06
592.792	30.02
592.986	29.83
593.179	30.06
593.372	29.62
593.566	29.82
593.759	29.76
593.953	29.51
594.146	29.58
594.339	29.4
594.533	29.51
594.726	29.36
594.92	29.2
595.113	29.32
595.306	28.92
595.499	28.86
595.693	28.59
595.886	28.63
596.079	28.51
596.272	28.37
596.466	28.19
596.659	28.33
596.852	28.36
597.045	28.58
597.238	28.61
597.431	28.53
597.624	28.68
597.818	28.86
598.011	28.76
598.204	29.13
598.397	29.28
598.59	29.35
598.783	29.22
598.976	29.25
599.169	29.08
599.362	29.06
599.555	29.65
599.748	29.68
599.941	29.59
600.134	29.79
600.326	29.34
600.519	29.64
600.712	29.53
600.905	29.37
601.098	29.46
601.291	29.5
601.483	29.5
601.676	29.03
601.869	28.93
602.062	29.09
602.255	29.04
602.447	29.11
602.64	28.92
602.833	29.03
603.025	29.1
603.218	29.02
603.411	28.89
603.603	28.83
603.796	29.23
603.989	29.26
604.181	29.21
604.374	29.06
604.566	29.15
604.759	29.15
604.951	29.22
605.144	29.17
605.336	29.14
605.529	29.3
605.721	29.33
605.914	29.04
606.106	29.04
606.299	29.07
606.491	29.18
606.683	29.18
606.876	29.3
607.068	29.44
607.26	29.76
607.453	29.83
607.645	29.99
607.837	30.44
608.03	30.79
608.222	31.11
608.414	31.35
608.606	31.76
608.799	32.47
608.991	32.88
609.183	33.64
609.375	34.5
609.567	35.78
609.759	36.98
609.952	38.36
610.144	40
610.336	41.6
610.528	43.26
610.72	45.19
610.912	46.63
611.104	48.05
611.296	49.24
611.488	50.11
611.68	50.52
611.872	50.84
612.064	50.62
612.256	49.78
612.448	49.18
612.64	48.49
612.832	47.04
613.023	45.81
613.215	44.34
613.407	43.04
613.599	42.21
613.791	41.21
613.983	40.46
614.174	39.69
614.366	39.24
614.558	38.61
614.75	37.57
614.941	37.18
615.133	36.65
615.325	36.51
615.516	36.1
615.708	35.49
615.9	35.08
616.091	34.49
616.283	34.29
616.475	33.86
616.666	33.3
616.858	33.22
617.049	32.73
617.241	32.47
617.432	32.1
617.624	32.12
617.815	32.06
618.007	31.81
618.198	31.83
618.39	31.21
618.581	31.03
618.773	31.12
618.964	30.86
619.155	30.81
619.347	31.09
619.538	31.46
619.729	31.38
619.921	31.29
620.112	31.49
620.303	31.39
620.494	31.76
620.686	31.86
620.877	31.86
621.068	32.38
621.259	32.45
621.451	32.39
621.642	32.05
621.833	32.41
622.024	32.51
622.215	32.66
622.406	32.83
622.597	32.83
622.788	33.02
622.98	33.05
623.171	32.77
623.362	32.67
623.553	32.84
623.744	33.13
623.935	32.73
624.126	32.81
624.317	32.64
624.508	32.52
624.698	32.5
624.889	32.71
625.08	32.45
625.271	32.58
625.462	32.55
625.653	32.14
625.844	31.99
626.034	32.05
626.225	31.69
626.416	31.69
626.607	31.64
626.798	31.4
626.988	30.95
627.179	30.82
627.37	30.68
627.56	30.83
627.751	30.75
627.942	30.71
628.132	30.62
628.323	30.88
628.514	30.84
628.704	30.8
628.895	30.97
629.085	31.3
629.276	31.75
629.466	31.86
629.657	32.08
629.847	32.8
630.038	32.97
630.228	33.32
630.419	33.12
630.609	33.35
630.8	33.33
630.99	33.49
631.181	33.34
631.371	33.15
631.561	33.26
631.752	33.07
631.942	32.7
632.132	32.57
632.323	32.17
632.513	32.5
632.703	32.29
632.893	32.26
633.084	32.04
633.274	31.89
633.464	31.56
633.654	31.42
633.844	30.97
634.034	30.89
634.225	30.87
634.415	31.05
634.605	30.76
634.795	30.87
634.985	30.94
635.175	31.03
635.365	31.24
635.555	31.55
635.745	31.31
635.935	31.57
636.125	31.45
636.315	31.42
636.505	31.19
636.695	31.26
636.885	31.08
637.075	31.03
637.265	30.96
637.455	31.06
637.644	31.1
637.834	31.07
638.024	30.96
638.214	30.99
638.404	31.12
638.593	31.21
638.783	31.15
638.973	31.29
639.163	31.38
639.352	31.47
639.542	31.35
639.732	30.89
639.921	31
640.111	31.15
640.301	30.82
640.49	30.96
640.68	30.93
640.87	31.11
641.059	31.22
641.249	31.03
641.438	30.63
641.628	30.42
641.817	30.82
642.007	30.85
642.196	30.85
642.386	30.92
642.575	30.63
642.764	30.77
642.954	30.84
643.143	30.38
643.333	30.66
643.522	31.37
643.711	31.65
643.901	31.83
644.09	31.81
644.279	32
644.469	32.44
644.658	32.23
644.847	32.46
645.036	32.2
645.226	32.54
645.415	32
645.604	31.51
645.793	31.41
645.982	31.4
646.171	31.66
646.361	31.44
646.55	31.55
646.739	31.73
646.928	31.36
647.117	31.28
647.306	31.14
647.495	31.71
647.684	31.49
647.873	31.48
648.062	31.34
648.251	31.31
648.44	31.74
648.629	31.86
648.818	31.93
649.007	31.89
649.196	32.19
649.384	32.44
649.573	32.45
649.762	33.08
649.951	33.21
650.14	33
650.328	32.9
650.517	33.16
650.706	32.74
650.895	33.15
651.083	32.82
651.272	32.47
651.461	32.05
651.65	31.91
651.838	31.95
652.027	31.89
652.216	32.07
652.404	32.17
652.593	31.63
652.781	32.1
652.97	31.71
653.158	32.03
653.347	32.12
653.535	32.61
653.724	32.4
653.912	31.95
654.101	31.76
654.289	31.42
654.478	31.58
654.666	31.22
654.855	30.7
655.043	30.68
655.231	30.69
655.42	31.19
655.608	31.05
655.796	31.46
655.985	31.51
656.173	31.79
656.361	32.09
656.55	31.78
656.738	32.63
656.926	32.87
657.114	32.42
657.302	32.29
657.491	32.25
657.679	31.95
657.867	31.74
658.055	31.71
658.243	31.58
658.431	31.51
658.619	31.63
658.807	30.97
658.996	30.87
659.184	30.92
659.372	30.71
659.56	30.39
659.748	30.66
659.936	30.65
660.124	30.62
660.311	30.47
660.499	30.15
660.687	30.18
660.875	30.14
661.063	30.19
661.251	30.87
661.439	31.79
661.627	32.17
661.814	32.33
662.002	32.78
662.19	32.94
662.378	33.16
662.565	33.61
662.753	33.38
662.941	33.86
663.129	33.73
663.316	33.61
663.504	32.92
663.692	32.38
663.879	31.93
664.067	31.39
664.254	31.57
664.442	31.71
664.63	31.95
664.817	31.98
665.005	31.53
665.192	31.65
665.38	31.85
665.567	31.96
665.755	32.37
665.942	32.58
666.13	32.71
666.317	32.41
666.504	31.85
666.692	31.89
666.879	31.92
667.067	32.38
667.254	32.53
667.441	32.38
667.629	32.19
667.816	31.95
668.003	32.01
668.19	32.24
668.378	32.85
668.565	33.37
668.752	33.18
668.939	33.24
669.127	33.37
669.314	33.45
669.501	33.14
669.688	33.2
669.875	33.24
670.062	33.26
670.249	32.96
670.436	32.64
670.623	32.26
670.81	32.42
670.997	32.79
671.184	32.07
671.371	31.97
671.558	32
671.745	32.59
671.932	32.54
672.119	32.51
672.306	32.47
672.493	32.36
672.68	32.49
672.867	32.18
673.054	31.58
673.24	31.85
673.427	32.04
673.614	32.14
673.801	32.07
673.988	32.86
674.174	32.94
674.361	33.1
674.548	32.92
674.734	32.88
674.921	33.51
675.108	33.38
675.294	33.63
675.481	33.09
675.668	33.13
675.854	32.78
676.041	32.17
676.227	32.08
676.414	31.77
676.601	31.51
676.787	31.38
676.974	30.69
677.16	30.93
677.347	30.86
677.533	31.12
677.719	31.35
677.906	31.12
678.092	31.46
678.279	31.69
678.465	32.28
678.651	32.96
678.838	33.44
679.024	33.32
679.21	32.81
679.397	32.91
679.583	32.83
679.769	32.5
679.955	32.04
680.142	31.65
680.328	31.3
680.514	30.89
680.7	30.67
680.886	30.67
681.073	30.79
681.259	31.29
681.445	31.04
681.631	31.5
681.817	31.63
682.003	32.1
682.189	32.22
682.375	32.2
682.561	32
682.747	32.11
682.933	31.9
683.119	32.13
683.305	32.3
683.491	32.4
683.677	32.27
683.863	31.96
684.049	32.22
684.235	32.29
684.42	32.84
684.606	33.44
684.792	33.63
684.978	33.78
685.164	34.31
685.349	34.21
685.535	34.1
685.721	33.76
685.907	34.08
686.092	33.66
686.278	33.66
686.464	33.33
686.649	33.16
686.835	33.03
687.021	32.77
687.206	32.06
687.392	31.68
687.577	31.72
687.763	31.7
687.948	32
688.134	31.98
688.319	31.48
688.505	31.13
688.69	31.43
688.876	31.33
689.061	31.41
689.247	31.47
689.432	31.76
689.618	31.89
689.803	32.38
689.988	31.83
690.174	31.99
690.359	31.76
690.544	31.86
690.73	31.69
690.915	31.99
691.1	31.84
691.285	32.57
691.471	33.3
691.656	33.69
691.841	32.93
692.026	32.62
692.211	32.83
692.396	33.39
692.582	33.88
692.767	33.87
692.952	33.53
693.137	33.96
693.322	32.96
693.507	32.45
693.692	32.17
693.877	32.04
694.062	33.31
694.247	33.27
694.432	32.96
694.617	33
694.802	32.58
694.987	32.58
695.172	32.68
695.357	33.64
695.541	33.3
695.726	33.55
695.911	34.05
696.096	33.31
696.281	32.93
696.466	33.6
696.65	33.42
696.835	33.47
697.02	33.72
697.204	33.45
697.389	33.15
697.574	33.7
697.759	33.3
697.943	33.27
698.128	33.32
698.312	33.67
698.497	33.43
698.682	33.43
698.866	33.6
699.051	33.51
699.235	33.61
699.42	33.33
699.604	33.21
699.789	33.22
699.973	33.46
700.158	33.1
700.342	33.17
700.527	33.13
700.711	33.14
700.895	33.16
701.08	32.79
701.264	33.01
701.448	32.95
701.633	32.75
701.817	33.11
702.001	32.67
702.186	33.31
702.37	32.68
702.554	32.87
702.738	32.88
702.923	32.4
703.107	32.71
703.291	32.15
703.475	32.27
703.659	32.44
703.843	32.27
704.027	32.69
704.212	32.68
704.396	33.37
704.58	33.49
704.764	33.26
704.948	34.23
705.132	34.4
705.316	34.49
705.5	34.51
705.684	34.38
705.868	34.7
706.052	34.32
706.235	34.7
706.419	34.87
706.603	34.82
706.787	34.58
706.971	33.95
707.155	34.22
707.339	34.21
707.522	35.05
707.706	34.65
707.89	34.42
708.074	34.59
708.257	35.04
708.441	34.84
708.625	35.03
708.808	35.83
708.992	35.85
709.176	35.22
709.359	35.56
709.543	35.09
709.727	35.12
709.91	35.45
710.094	35.61
710.277	35.11
710.461	35.38
710.644	35.52
710.828	35.28
711.011	35.97
711.195	36.03
711.378	35.73
711.562	35.81
711.745	36.14
711.928	36.13
712.112	35.79
712.295	35.49
712.478	34.76
712.662	34.46
712.845	34.2
713.028	33.93
713.212	33.86
713.395	33.79
713.578	33.62
713.761	33.38
713.945	32.82
714.128	33.24
714.311	33.15
714.494	33.71
714.677	33.54
714.86	34.36
715.043	33.65
715.227	34.31
715.41	33.56
715.593	33.72
715.776	33.15
715.959	32.99
716.142	32.7
716.325	32.96
716.508	33.1
716.691	32.83
716.874	32.12
717.057	32.12
717.239	31.96
717.422	32.91
717.605	32.43
717.788	32.05
717.971	31.77
718.154	31.73
718.337	31.65
718.519	31.49
718.702	30.84
718.885	31.39
719.068	31.81
719.25	31.38
719.433	31.27
719.616	32.07
719.798	32.76
719.981	32.6
720.164	32.47
720.346	32.58
720.529	32.29
720.712	33.2
720.894	32.28
721.077	32.75
721.259	33.12
721.442	33.47
721.624	32.54
721.807	32.88
721.989	34.23
722.172	34.52
722.354	34.17
722.537	34.38
722.719	35.19
722.901	34.51
723.084	34.13
723.266	33.83
723.448	33.46
723.631	33.84
723.813	34.33
723.995	33.98
724.178	33.51
724.36	33.83
724.542	34.98
724.724	34.11
724.907	35.07
725.089	34.24
725.271	33.69
725.453	33.87
725.635	34.4
725.817	33.52
725.999	33.66
726.181	33.51
726.364	33.12
726.546	32.48
726.728	32.81
726.91	32.83
727.092	33.62
727.274	33.6
727.456	32.95
727.638	32.03
727.819	32.59
728.001	32.8
728.183	33.56
728.365	33.15
728.547	32.4
728.729	32.91
728.911	32.82
729.093	33.01
729.274	33.9
729.456	34.64
729.638	35.45
729.82	35.44
730.001	34.93
730.183	34.42
730.365	35.06
730.546	35.6
730.728	35.34
730.91	35.86
731.091	35.73
731.273	35.23
731.455	34.23
731.636	33.39
731.818	33.94
731.999	34.05
732.181	33.43
732.362	34.2
732.544	33.64
732.725	33.76
732.907	33.22
733.088	33.35
733.27	33.35
733.451	34.07
733.633	34.19
733.814	33.71
733.995	32.81
734.177	33.53
734.358	31.97
734.539	32.89
734.721	32.19
734.902	31.82
735.083	31.52
735.264	31.5
735.446	32.1
735.627	32.55
735.808	32.85
735.989	34.14
736.17	33.58
736.351	34.09
736.533	33.53
736.714	34.52
736.895	34.71
737.076	35.45
737.257	35.95
737.438	35.81
737.619	35.16
737.8	35.06
737.981	35.32
738.162	36.56
738.343	37.03
738.524	36.5
738.705	36.61
738.886	36.58
739.067	36.77
739.247	36.28
739.428	36.14
739.609	37.18
739.79	37.62
739.971	37.08
740.151	36.99
740.332	37.76
740.513	38.87
740.694	37.77
740.874	38.17
741.055	37.62
741.236	37.59
741.417	36.4
741.597	35.16
741.778	35.31
741.958	35.33
742.139	34.56
742.32	33.19
742.5	32.44
742.681	32.99
742.861	32.21
743.042	33.11
743.222	33.54
743.403	34.47
743.583	35.79
743.764	34.79
743.944	34.36
744.124	34.78
744.305	34.54
744.485	34.33
744.666	34.21
744.846	34.42
745.026	32.79
745.207	33.07
745.387	32.28
745.567	32.18
745.747	32.5
745.928	33.14
746.108	31.84
746.288	32.39
746.468	33.33
746.648	33.96
746.829	34.57
747.009	35.49
747.189	34.99
747.369	34.68
747.549	34.98
747.729	34.82
747.909	34.83
748.089	35.78
748.269	35.87
748.449	35.24
748.629	35.74
748.809	35.3
748.989	34.42
749.169	33.87
749.349	35.49
749.529	35.23
749.709	35.96
749.889	36.4
750.068	37.1
750.248	37.82
750.428	37.53
750.608	36.91
750.788	37.18
750.967	38.07
751.147	38.58
751.327	37.68
751.507	37.48
751.686	37.75
751.866	37.07
752.046	36.16
752.225	36.07
752.405	36.84
752.585	36.21
752.764	36.69
752.944	36.87
753.123	37.12
753.303	37.73
753.482	37.25
753.662	36.71
753.841	37.48
754.021	37.21
754.2	35.63
754.38	36.08
754.559	35.97
754.739	35.23
754.918	34.56
755.097	34.88
755.277	34.41
755.456	35.88
755.635	34.71
755.815	33.7
755.994	34.01
756.173	34.48
756.352	33.38
756.532	33.33
756.711	34.11
756.89	33.73
757.069	33.66
757.248	33.24
757.427	31.74
757.607	32.49
757.786	32.81
757.965	34.31
758.144	34.91
758.323	34.92
758.502	34.91
758.681	35.51
758.86	35.59
759.039	34.75
759.218	35.66
759.397	36.34
759.576	36.6
759.755	35.91
759.934	33.73
760.113	35.06
760.291	35.37
760.47	35.25
760.649	35.07
760.828	35.84
761.007	37.19
761.186	36.81
761.364	36.31
761.543	35.86
761.722	35.65
761.901	36.52
762.079	35.72
762.258	36.08
762.437	36.82
762.615	36.14
762.794	35.58
762.972	34.67
763.151	35.11
763.33	35.17
763.508	35.48
763.687	36.18
763.865	36.13
764.044	35.55
764.222	35.69
764.401	35.32
764.579	34.98
764.758	34.57
764.936	33.92
765.114	33.97
765.293	34.53
765.471	34.32
765.65	34.33
765.828	34.34
766.006	34.5
766.184	34.27
766.363	34.01
766.541	34.22
766.719	35.89
766.898	37.37
767.076	37.85
767.254	37.74
767.432	38.03
767.61	37.05
767.788	37.75
767.967	38.29
768.145	36.9
768.323	35.87
768.501	37.19
768.679	34.52
768.857	34.01
769.035	32.81
769.213	33.35
769.391	32.43
769.569	33.46
769.747	32.63
769.925	31.13
770.103	33.11
770.281	35.88
770.459	34.84
770.636	37.14
770.814	36.93
770.992	37.18
771.17	35.31
771.348	36.35
771.525	37.06
771.703	37.76
771.881	38.15
772.059	37.39
772.236	35.82
772.414	35.65
772.592	34.37
772.769	34.08
772.947	34.07
773.125	34.97
773.302	37
773.48	36.83
773.657	35.8
773.835	36.52
774.013	36.84
774.19	37.7
774.368	38.71
774.545	38.22
774.723	38.48
774.9	37.32
775.077	36.55
775.255	33.81
775.432	32.65
775.61	32.86
775.787	34.1
775.964	34.32
776.142	33.46
776.319	32.62
776.496	32.43
776.674	31.3
776.851	32.5
777.028	32.77
777.205	33.36
777.382	34.15
777.56	34.32
777.737	32.47
777.914	29.84
778.091	31.28
778.268	31.39
778.445	32.87
778.622	33.94
778.8	35.08
778.977	34.71
779.154	33.6
779.331	34.52
779.508	33.94
779.685	33.94
779.862	36.38
780.038	35.27
780.215	34.5
780.392	34.49
780.569	34.13
780.746	34.02
780.923	33.74
781.1	35.38
781.277	33.86
781.453	34.84
781.63	34.84
781.807	35.53
781.984	36.72
782.16	37.63
782.337	36.82
782.514	37.89
782.691	35.85
782.867	36.7
783.044	36.26
783.221	37.89
783.397	37.32
783.574	37.58
783.75	35.99
783.927	36.36
784.103	35.95
784.28	36.92
784.456	35.37
784.633	36.98
784.809	37.57
784.986	36.9
785.162	35.02
785.339	34.88
785.515	34.67
785.692	35.63
785.868	34.63
786.044	36.01
786.221	34.46
786.397	37.01
786.573	37.96
786.749	38.16
786.926	38.12
787.102	40.01
787.278	38.31
787.454	38.65
787.631	37.23
787.807	35.45
787.983	35.17
788.159	36.23
788.335	34.53
788.511	33.04
788.687	31.76
788.863	33.01
789.039	31.01
789.216	31.41
789.392	31.38
789.568	32.07
789.744	33.73
789.919	32.05
790.095	34.63
790.271	36.58
790.447	35.16
790.623	34.34
790.799	34.04
790.975	35.86
791.151	37.19
791.327	37.38
791.502	39.21
791.678	37.94
791.854	37.39
792.03	36.2
792.205	34.13
792.381	34.86
792.557	37.66
792.733	38.48
792.908	36.03
793.084	37.39
793.259	37.89
793.435	35.87
793.611	37.68
793.786	39.1
793.962	36.78
794.137	37.09
794.313	37.67
794.488	33.93
794.664	33.99
794.839	36.76
795.015	34.08
795.19	34.17
795.366	34.47
795.541	33.51
795.716	33.89
795.892	35.58
796.067	36.31
796.242	37.27
796.418	38.98
796.593	38.38
796.768	37.91
796.944	38.05
797.119	38.89
797.294	38.32
797.469	37.76
797.644	37.18
797.82	37.87
797.995	37.47
798.17	40.01
798.345	40.43
798.52	39.54
798.695	39.77
798.87	38.96
799.045	36.84
799.22	39.73
799.395	40.82
799.57	37.89
799.745	35.62
799.92	35.01
800.095	31.59
800.27	33.54
800.445	33.2
800.62	33.78
800.795	34.56
800.97	36.06
801.145	31.43
801.319	33.77
801.494	36.91
801.669	36
801.844	35.83
802.018	34.32
802.193	31.47
802.368	32.45
802.543	31.36
802.717	32.24
802.892	32.08
803.067	34.86
803.241	33.88
803.416	33.17
803.59	34.53
803.765	36.97
803.94	39.67
804.114	39.67
804.289	40
804.463	37.77
804.638	37.92
804.812	37.21
804.986	37.91
805.161	34.75
805.335	35.81
805.51	35.08
805.684	32.46
805.858	32.14
806.033	33.98
806.207	35.04
806.381	38.94
806.556	37.66
806.73	36.79
806.904	34.27
807.078	39.06
807.253	37.57
807.427	36.78
807.601	38.41
807.775	37.77
807.949	36.12
808.123	35.05
808.298	31.88
808.472	33.33
808.646	36.43
808.82	41.75
808.994	36.27
809.168	39.94
809.342	42.38
809.516	40.7
809.69	40.64
809.864	41.63
810.038	39.82
810.212	43.41
810.385	42.91
810.559	39.35
810.733	35.38
810.907	37.2
811.081	33.45
811.255	30.61
811.428	31.44
811.602	31.08
811.776	30.71
811.95	32.96
812.123	30.74
812.297	29.77
812.471	31.49
812.644	35.61
812.818	36.36
812.992	38.34
813.165	40.56
813.339	41.87
813.512	41.68
813.686	40.82
813.86	41.25
814.033	45.86
814.207	49.3
814.38	49.91
814.554	46.02
814.727	44.36
814.9	43.46
815.074	43.71
815.247	42.55
815.421	41.93
815.594	43.89
815.767	44.79
815.941	38.68
816.114	35.57
816.287	34.05
816.46	32.66
816.634	35.2
816.807	34.44
816.98	36.16
817.153	36.53
817.327	36.9
817.5	35.91
817.673	33.55
817.846	34.36
818.019	34.35
818.192	36.45
818.365	36.86
818.538	36.6
818.711	38.44
818.884	35.69
819.057	32.68
819.23	33.21
819.403	36.97
819.576	38.28
819.749	37.61
819.922	36.55
820.095	33.59
820.268	36.28
820.441	35.93
820.614	34.64
820.786	35.95
820.959	37.52
821.132	37.44
821.305	36.85
821.477	36.38
821.65	36.47
821.823	37.43
821.996	37.07
822.168	35.81
822.341	35.02
822.514	34.95
822.686	35.01
822.859	35.34
823.031	36.03
823.204	35.67
823.376	35.55
823.549	35.91
823.722	35.45
823.894	35.66
824.067	35.67
824.239	35.99
824.411	36.25
824.584	35.96
824.756	35.42
824.929	34.93
825.101	34.01
825.273	33.89
825.446	33.95
825.618	34.09
825.79	33.99
825.963	34.24
826.135	34.33
826.307	33.91
826.479	33.15
826.652	33.27
826.824	32.49
826.996	33.14
827.168	33.42
827.34	33.15
827.512	32.66
827.684	33.27
827.856	33.21
828.029	33.71
828.201	34.31
828.373	35.68
828.545	36.46
828.717	37.13
828.889	38.57
829.061	38.35
829.232	39.4
829.404	40.12
829.576	40.05
829.748	40.25
829.92	39.69
830.092	39.64
830.264	40.41
830.436	39.89
830.607	39.42
830.779	37.4
830.951	37.73
831.123	35.49
831.294	35.78
831.466	35.37
831.638	34.89
831.809	36.67
831.981	37.25
832.153	36.84
832.324	38.63
832.496	40.07
832.667	40.87
832.839	39.89
833.011	40.71
833.182	41.18
833.354	40.76
833.525	41.82
833.697	40.74
833.868	41.04
834.039	39.25
834.211	37.33
834.382	37.36
834.554	37.38
834.725	39.33
834.896	38.87
835.068	38.48
835.239	38.94
835.41	39.59
835.581	39.29
835.753	38.36
835.924	38.91
836.095	39.77
836.266	38.87
836.438	39.57
836.609	38.33
836.78	38
836.951	39.39
837.122	38.8
837.293	38.69
837.464	38.47
837.635	39.51
837.806	39.8
837.977	36.94
838.148	36.15
838.319	34.96
838.49	35.71
838.661	36.96
838.832	34.97
839.003	34.51
839.174	30.51
839.345	29.89
839.516	28.85
839.687	29.59
839.857	33.54
840.028	37.45
840.199	39.04
840.37	39.25
840.54	42.84
840.711	41.84
840.882	41.42
841.053	41.43
841.223	42.71
841.394	45.06
841.564	44.51
841.735	44.24
841.906	42.42
842.076	40.17
842.247	40.92
842.417	35.98
842.588	38.32
842.758	42.42
842.929	40.37
843.099	36.96
843.27	34.05
843.44	33.45
843.611	34.05
843.781	32.01
843.951	32
844.122	33.13
844.292	30.42
844.462	31.1
844.633	26.01
844.803	34.65
844.973	38.03
845.144	37.95
845.314	36.4
845.484	31.76
845.654	33.57
845.824	37.43
845.995	33.91
846.165	36.56
846.335	35.04
846.505	36.08
846.675	37.49
846.845	43.35
847.015	48.09
847.185	50.63
847.355	57.05
847.525	58
847.695	47
847.865	48.83
848.035	49.95
848.205	42.91
848.375	54.1
848.545	56.94
848.715	55.61
848.884	47.83
849.054	50.36
849.224	52.89
849.394	45.47
849.564	55.59
849.733	54.02
849.903	52.57
850.073	58.71
850.243	44.67
850.412	40.92
850.582	35.64
850.752	38.76
850.921	34.87
851.091	27.21
851.26	32.59
851.43	23.59
851.599	20.09
851.769	20.64
851.939	21.2
852.108	24.12
852.278	25.13
852.447	27.11
852.616	23.62
852.786	22.39
852.955	20.87
853.125	14.18
853.294	19.03
853.463	23.87
853.633	18.3
853.802	17.66
853.971	16.21
854.141	7.06
854.31	5.79
854.479	0.07
854.648	-0.78
854.818	17.14
854.987	22.57
855.156	22.9
855.325	27.42
855.494	30.77
855.663	29.24
855.832	26.6
856.001	31.87
856.171	28.58
856.34	33.9
856.509	33.78
856.678	27.29
856.847	26.42
857.016	24.55
857.185	17.96
857.353	16.22
857.522	16.66
857.691	19.08
857.86	20.17
858.029	28.78
858.198	40.32
858.367	47
858.535	40.16
858.704	40.63
858.873	44.27
859.042	49.85
859.21	55.77
859.379	52.95
859.548	50.19
859.717	48.92
859.885	52.05
860.054	42.04
860.222	46.93
860.391	51.59
860.56	58.61
860.728	58.53
860.897	55.54
861.065	56.74
861.234	55.97
861.402	58.53
861.571	56.59
861.739	51.92
861.908	58.57
862.076	57.34
862.244	63.68
862.413	59.1
862.581	53.76
862.749	48.61
862.918	44.15
863.086	59.55
863.254	62.36
863.423	65.41
863.591	62.21
863.759	56.08
863.927	43.9
864.096	43.01
864.264	44.03
864.432	43.91
864.6	51.26
864.768	42.52
864.936	25.18
865.104	26.18
865.272	23.12
865.44	16.45
865.608	17.11
865.776	28.91
865.944	20.82
866.112	22.8
866.28	30.98
866.448	30.51
866.616	35.95
866.784	41.97
866.952	38.32
867.12	35.7
867.288	29.56
867.455	33.86
867.623	38.09
867.791	36.63
867.959	34.59
868.127	24.14
868.294	23.43
868.462	25.13
868.63	21.53
868.797	34.94
868.965	42.58
869.133	48.59
869.3	38.67
869.468	30.04
869.636	28.83
869.803	30.62
869.971	36.74
870.138	38.82
870.306	37.66
870.473	39.74
870.641	33.5
870.808	27.66
870.975	28.18
871.143	29.47
871.31	32.19
871.478	36.42
871.645	23.87
871.812	22.82
871.98	16.44
872.147	10.24
872.314	7.03
872.482	0.95
872.649	4.25
872.816	18.78
872.983	19.98
873.15	23.63
873.318	17.11
873.485	27.91
873.652	30.08
873.819	36.09
873.986	34.36
874.153	34.68
874.32	39.63
874.487	42.81
874.654	38.88
874.821	42.2
874.988	40.66
875.155	44.69
875.322	43.21
875.489	43.41
875.656	38.04
875.823	44.31
875.99	46.79
876.157	43.95
876.324	46.91
876.49	41.07
876.657	44.18
876.824	30.62
876.991	29.89
877.157	28.98
877.324	19.08
877.491	20.67
877.658	19.19
877.824	12.19
877.991	14.84
878.157	11.44
878.324	15.83
878.491	2.18
878.657	28.15
878.824	32.5
878.99	35.78
879.157	35.26
879.323	37.11
879.49	41.78
879.656	40.04
879.823	41.5
879.989	43.47
880.156	41.67
880.322	47.4
880.488	42.09
880.655	43.21
880.821	45.43
880.987	48.48
881.154	53.44
881.32	49.37
881.486	54.82
881.652	50.01
881.819	47.58
881.985	43.4
882.151	42.24
882.317	42.67
882.483	39.31
882.649	36.22
882.816	36.45
882.982	31.86
883.148	32.58
883.314	30.93
883.48	31.67
883.646	30.98
883.812	31.43
883.978	30.58
884.144	30.65
884.31	32.95
884.476	32.61
884.642	30.89
884.807	32.31
884.973	33.31
885.139	32.66
885.305	33.03
885.471	32.64
885.637	32.71
885.802	33.16
885.968	31.82
886.134	30.54
886.3	30.3
886.465	30.31
886.631	28.89
886.797	28.42
886.962	32.66
887.128	30.46
887.293	32.99
887.459	38.36
887.625	38.81
887.79	38.95
887.956	37.8
888.121	41.02
888.287	46.04
888.452	52.1
888.618	48.64
888.783	41.07
