Data from CB_073_Reflection_2.txt Node
Date: Sat Nov 14 11:17:33 EST 2015
User: robert
Spectrometer: USB4E03001
Autoset integration time: false
Trigger mode: 4
Integration Time (sec): 1.000000E-1
Scans to average: 15
Electric dark correction enabled: true
Nonlinearity correction enabled: false
Boxcar width: 5
Stray light correction enabled: false
XAxis mode: Wavelengths
Stop averaging: false
Number of Pixels in Spectrum: 3648
>>>>>Begin Spectral Data<<<<<
177.566	-295.75
177.785	-533.5
178.005	-1609.82
178.225	-230.96
178.445	-277.93
178.665	-459.47
178.885	69.74
179.105	-145.88
179.324	-238.83
179.544	-497.24
179.764	-152.64
179.984	-196.06
180.204	-224.29
180.423	-742.07
180.643	-313.59
180.863	-594.69
181.083	-2672.02
181.302	-12590.48
181.522	1427.52
181.742	1617.69
181.961	1882.6
182.181	295.23
182.401	224.09
182.621	415.99
182.84	1708.3
183.06	-6241.36
183.279	-835.51
183.499	-518.86
183.719	-678.77
183.938	-427.1
184.158	-313.83
184.377	-290
184.597	-183.53
184.816	-125.41
185.036	-193.12
185.256	-270.99
185.475	-532.2
185.695	-338.34
185.914	-366.3
186.134	-326.14
186.353	-353.16
186.572	-312.88
186.792	-839.67
187.011	3524.79
187.231	-1968.18
187.45	-461.23
187.67	-1479.65
187.889	760.66
188.108	443.36
188.328	359.38
188.547	286.5
188.766	250.09
188.986	226.83
189.205	226.97
189.424	271.1
189.644	252.21
189.863	332.22
190.082	405.1
190.302	556.71
190.521	413.28
190.74	393.65
190.959	1316.41
191.178	993.92
191.398	656.57
191.617	1545.29
191.836	5950
192.055	986.07
192.274	231.87
192.494	276.43
192.713	12357.14
192.932	-1382.19
193.151	279600
193.37	447.46
193.589	-12324.78
193.808	-1196.9
194.027	-2024.28
194.246	3948.89
194.465	-2719.72
194.685	702.32
194.904	738.69
195.123	480.01
195.342	382.73
195.561	361.25
195.78	1134.66
195.999	2583.4
196.218	1101.18
196.436	774.92
196.655	366.31
196.874	199.92
197.093	343.69
197.312	317.39
197.531	435.78
197.75	707.39
197.969	1651.86
198.188	299.74
198.407	195.47
198.625	245.99
198.844	331.8
199.063	443.87
199.282	932.33
199.501	-4617.58
199.719	-2275.15
199.938	1102.94
200.157	608.08
200.376	-3554.79
200.594	-251.05
200.813	-715.66
201.032	-1873.21
201.251	-854.57
201.469	-936.89
201.688	-1859.64
201.907	3421.87
202.125	1029.66
202.344	3952.58
202.563	25421.74
202.781	1376.99
203	446.53
203.218	372.24
203.437	620.34
203.656	462.15
203.874	1144.89
204.093	1062.53
204.311	699.08
204.53	2045.92
204.748	508.36
204.967	608.67
205.185	450.43
205.404	493.23
205.622	696.14
205.841	376.21
206.059	336.77
206.278	248.58
206.496	412.07
206.715	592.45
206.933	407.62
207.151	494.91
207.37	350.84
207.588	462.79
207.806	515.34
208.025	669.76
208.243	1023.38
208.461	-71281.82
208.68	2269.53
208.898	873.6
209.116	503.52
209.335	438.47
209.553	400.33
209.771	328.91
209.989	278.94
210.208	248.1
210.426	239.39
210.644	200.86
210.862	173.52
211.081	173.77
211.299	151.65
211.517	183.02
211.735	147.74
211.953	149.82
212.171	174.43
212.39	193.52
212.608	207.86
212.826	212.67
213.044	200.23
213.262	219.92
213.48	211.65
213.698	316.54
213.916	182.04
214.134	354.24
214.352	686
214.57	420.43
214.788	339.61
215.006	247.61
215.224	405.91
215.442	1283.58
215.66	2389.07
215.878	748.04
216.096	250.86
216.314	890.85
216.532	2987.06
216.75	-682.63
216.968	-977.91
217.185	-8562.83
217.403	2550.96
217.621	-144488.89
217.839	-722.1
218.057	-23083.33
218.275	-752.14
218.492	-162.96
218.71	-2987.94
218.928	2075.32
219.146	1304.29
219.363	669.97
219.581	763.9
219.799	-3621.81
220.017	357.02
220.234	435.44
220.452	511.39
220.67	859.62
220.887	348.24
221.105	550.26
221.323	269.05
221.54	184.98
221.758	167.46
221.976	139.41
222.193	102.95
222.411	128.2
222.629	128.14
222.846	109.26
223.064	88.74
223.281	102.01
223.499	106.06
223.716	110.86
223.934	95.09
224.151	110.69
224.369	119.83
224.586	131.48
224.804	131.15
225.021	124.97
225.239	125.28
225.456	128.01
225.674	110.09
225.891	113.45
226.108	110.37
226.326	104.42
226.543	103.24
226.76	91.42
226.978	77.59
227.195	71.93
227.413	62.82
227.63	62.41
227.847	54.73
228.064	48.89
228.282	41.68
228.499	40.39
228.716	41.77
228.934	36.48
229.151	36.8
229.368	33.36
229.585	35.4
229.802	35.93
230.02	35.52
230.237	37.41
230.454	35.7
230.671	40.67
230.888	44.24
231.105	42.76
231.323	45.17
231.54	48.46
231.757	49.35
231.974	54.69
232.191	57.16
232.408	54.1
232.625	58.4
232.842	56.49
233.059	46.65
233.276	39.83
233.493	46.47
233.71	46.5
233.927	43.71
234.144	48.54
234.361	40.6
234.578	38.4
234.795	35.11
235.012	36.08
235.229	41.09
235.446	46.01
235.663	49.29
235.879	47.52
236.096	50.67
236.313	60.7
236.53	55.42
236.747	60.92
236.964	65.14
237.181	72.58
237.397	70.98
237.614	78.99
237.831	82.4
238.048	80.04
238.264	74.6
238.481	74.45
238.698	61.71
238.915	63.13
239.131	54.14
239.348	50.95
239.565	53.1
239.781	51.62
239.998	42.15
240.215	32.69
240.431	27.52
240.648	31.16
240.865	28.74
241.081	28.14
241.298	26.92
241.514	29.77
241.731	27.96
241.947	22.94
242.164	21.73
242.38	20.25
242.597	20.09
242.814	22.11
243.03	22.32
243.246	22.36
243.463	23.79
243.679	23.89
243.896	23.16
244.112	22.87
244.329	25.38
244.545	25.66
244.762	26.81
244.978	30.89
245.194	28.11
245.411	24.73
245.627	23.21
245.843	22.95
246.06	22.67
246.276	20.29
246.492	21.39
246.709	19.24
246.925	18.03
247.141	18.16
247.357	17.27
247.574	17.94
247.79	17.93
248.006	17.52
248.222	17.12
248.439	16.37
248.655	16.26
248.871	15.78
249.087	16.47
249.303	17.5
249.519	16.46
249.736	17.6
249.952	17.27
250.168	20.05
250.384	20.07
250.6	20.28
250.816	23.11
251.032	24.48
251.248	24.26
251.464	25.37
251.68	24.86
251.896	25.08
252.112	22.89
252.328	22.19
252.544	21.05
252.76	20.55
252.976	18.8
253.192	16.31
253.408	17.84
253.624	17.58
253.84	18.85
254.056	19.54
254.272	19.54
254.487	23.06
254.703	23.04
254.919	23.53
255.135	26.87
255.351	29.5
255.567	31.96
255.782	32.64
255.998	34.11
256.214	30.63
256.43	29.37
256.646	31.58
256.861	29.26
257.077	29.48
257.293	27.53
257.508	25.37
257.724	24.69
257.94	20.01
258.155	17.32
258.371	16
258.587	16.14
258.802	15.17
259.018	13.44
259.234	13.47
259.449	12.98
259.665	12.3
259.88	12.65
260.096	12.63
260.312	13.53
260.527	13.67
260.743	13.57
260.958	13.11
261.174	14.2
261.389	15.25
261.605	14.08
261.82	13.85
262.036	14.64
262.251	14.19
262.466	12.6
262.682	11.54
262.897	12.57
263.113	12.8
263.328	12.48
263.543	11.06
263.759	11.53
263.974	14.89
264.189	15
264.405	13.78
264.62	14.98
264.835	15.68
265.051	17.91
265.266	14.68
265.481	14.96
265.696	18.96
265.912	17.68
266.127	16.95
266.342	15.86
266.557	16.94
266.773	17.54
266.988	17.02
267.203	18.05
267.418	17.24
267.633	19
267.848	18.3
268.064	14.8
268.279	15.28
268.494	14.34
268.709	14.42
268.924	16.05
269.139	15.24
269.354	15.98
269.569	14.5
269.784	15.84
269.999	15.56
270.214	15.1
270.429	15.87
270.644	16.53
270.859	16.77
271.074	16.5
271.289	16.43
271.504	16.62
271.719	15.7
271.934	17.15
272.149	15.32
272.363	15.88
272.578	16.23
272.793	15.9
273.008	15.54
273.223	14.66
273.438	14.06
273.653	12.95
273.867	12.27
274.082	12.75
274.297	11.69
274.512	13.35
274.726	12.46
274.941	10.8
275.156	13.29
275.371	12.16
275.585	13.46
275.8	16.37
276.015	14.67
276.229	15.91
276.444	16.28
276.659	16.4
276.873	15.57
277.088	17.09
277.302	19.49
277.517	16.89
277.732	18.28
277.946	18.09
278.161	16.22
278.375	17.53
278.59	16.41
278.804	14.91
279.019	16.05
279.233	15.74
279.448	12.05
279.662	10.84
279.877	12.39
280.091	10.83
280.306	10.42
280.52	7.76
280.735	7.4
280.949	9.79
281.163	10.93
281.378	10.46
281.592	10.55
281.806	11.76
282.021	11.29
282.235	9.97
282.449	11.31
282.664	11.95
282.878	13.66
283.092	13.49
283.307	12.4
283.521	11.69
283.735	12.38
283.949	13.23
284.164	13.45
284.378	13.46
284.592	13.54
284.806	13.9
285.02	13.74
285.234	13.23
285.449	12.71
285.663	12.81
285.877	12.33
286.091	11.69
286.305	11.53
286.519	11.89
286.733	12.05
286.947	12.87
287.161	12.97
287.375	12.23
287.589	12.76
287.803	14.51
288.017	14.16
288.231	15.54
288.445	15.72
288.659	15.58
288.873	15.83
289.087	16.07
289.301	16.72
289.515	14.95
289.729	15.73
289.943	16.5
290.157	16.42
290.371	17.38
290.584	16.28
290.798	16.5
291.012	15.94
291.226	15.25
291.44	15.14
291.654	14.82
291.867	15.81
292.081	16.63
292.295	15.88
292.509	15.32
292.722	14.12
292.936	13.83
293.15	14.6
293.364	15.12
293.577	15.39
293.791	17.24
294.005	16.3
294.218	17.06
294.432	16.75
294.645	17.26
294.859	16.12
295.073	16.67
295.286	16.94
295.5	14.96
295.713	14.86
295.927	14.81
296.14	13.41
296.354	13.22
296.568	12.54
296.781	11.47
296.994	11.74
297.208	12.22
297.421	11.62
297.635	12.33
297.848	12.38
298.062	11.92
298.275	11.48
298.489	10.93
298.702	11.31
298.915	10.37
299.129	11.29
299.342	11.09
299.555	11.87
299.769	11.94
299.982	10.76
300.195	10.92
300.409	11.22
300.622	11.97
300.835	12.36
301.048	12.21
301.262	14.33
301.475	15.01
301.688	14.98
301.901	15.38
302.115	15.73
302.328	16.08
302.541	17.29
302.754	18.41
302.967	18.51
303.18	19.2
303.393	20.21
303.607	19.7
303.82	18.65
304.033	19.17
304.246	18.63
304.459	18.95
304.672	20.88
304.885	21.48
305.098	21.28
305.311	21.97
305.524	22.01
305.737	21.2
305.95	21.25
306.163	21.36
306.376	19.02
306.589	18.78
306.802	18.95
307.015	17.96
307.228	17.7
307.44	17.08
307.653	16.82
307.866	17.84
308.079	18.35
308.292	17.31
308.505	17.29
308.718	19.23
308.93	19.54
309.143	19.55
309.356	19.28
309.569	18.16
309.781	17.99
309.994	18.4
310.207	17.09
310.42	15.53
310.632	16.22
310.845	16.14
311.058	15.81
311.27	15.5
311.483	15.66
311.696	15.29
311.908	15.65
312.121	15.92
312.333	15.53
312.546	15.6
312.759	15.91
312.971	15.46
313.184	16.12
313.396	16.29
313.609	16.27
313.821	15.89
314.034	16.83
314.246	15.89
314.459	16.45
314.671	15.98
314.884	17.22
315.096	18.27
315.309	19.04
315.521	19.44
315.733	18.67
315.946	19.29
316.158	19.72
316.371	20.65
316.583	21.45
316.795	21.12
317.008	21.97
317.22	22.12
317.432	22.57
317.644	21.97
317.857	21.01
318.069	21.86
318.281	22.19
318.494	22.58
318.706	23.01
318.918	23.94
319.13	23.28
319.342	22.68
319.555	21.69
319.767	22.25
319.979	23.33
320.191	23.25
320.403	23.5
320.615	23.58
320.827	22.59
321.039	20.67
321.252	20.93
321.464	21.66
321.676	20.99
321.888	20.92
322.1	19.88
322.312	19.73
322.524	20.52
322.736	18.63
322.948	19.06
323.16	18.69
323.372	19.48
323.584	19.1
323.796	18.92
324.007	19.31
324.219	19.92
324.431	20.28
324.643	21.9
324.855	22.62
325.067	23.19
325.279	23.64
325.491	25.04
325.702	25.87
325.914	25.67
326.126	26.05
326.338	25.45
326.55	26.01
326.761	26.78
326.973	26.18
327.185	26.86
327.396	28.56
327.608	27.66
327.82	27.63
328.032	28.15
328.243	29.82
328.455	31.35
328.666	33.71
328.878	33.82
329.09	34.59
329.301	34.89
329.513	33.3
329.725	34.01
329.936	34.46
330.148	34.94
330.359	35.11
330.571	34.84
330.782	34.3
330.994	34.78
331.205	35.55
331.417	35.52
331.628	35.31
331.84	38.51
332.051	38.14
332.262	38.6
332.474	38.35
332.685	38.06
332.897	38.46
333.108	38.8
333.319	38.06
333.531	38.57
333.742	38.26
333.953	38.36
334.165	36.96
334.376	37.84
334.587	37.91
334.799	37.8
335.01	37.72
335.221	37.08
335.432	36.71
335.644	36.3
335.855	35.63
336.066	36.25
336.277	36.71
336.488	37.37
336.7	36.37
336.911	35.74
337.122	35.82
337.333	36.17
337.544	36.65
337.755	38.02
337.966	39.06
338.177	39.51
338.388	38.9
338.599	39.87
338.811	38.41
339.022	38.73
339.233	40.45
339.444	39.84
339.655	39.03
339.866	38.47
340.076	37.74
340.287	36.87
340.498	36.09
340.709	36.5
340.92	35.81
341.131	37
341.342	36.95
341.553	35.21
341.764	37.24
341.975	37.38
342.185	37.91
342.396	38.01
342.607	37.87
342.818	38.3
343.029	37.72
343.239	37.22
343.45	36.84
343.661	37.25
343.872	37.5
344.082	36.2
344.293	36.25
344.504	36.2
344.714	35.15
344.925	36
345.136	35.25
345.346	33.96
345.557	34.01
345.768	33.79
345.978	33.5
346.189	33.65
346.399	32.74
346.61	31.95
346.821	32.25
347.031	32.78
347.242	31.91
347.452	32.06
347.663	34.15
347.873	34
348.084	34.33
348.294	32.91
348.504	33.3
348.715	35.03
348.925	35.64
349.136	34.42
349.346	33.74
349.557	34.06
349.767	35.39
349.977	34.92
350.188	34.87
350.398	34.46
350.608	34.84
350.819	34.97
351.029	34.04
351.239	35.16
351.449	35.41
351.66	35.45
351.87	35.37
352.08	33.96
352.29	34.08
352.501	34.44
352.711	34.36
352.921	35.38
353.131	34.3
353.341	34.83
353.552	33.28
353.762	33.09
353.972	33.38
354.182	33.72
354.392	33.45
354.602	33.84
354.812	33.82
355.022	33.5
355.232	33.15
355.442	33.81
355.652	33.53
355.862	33.68
356.072	34.08
356.282	33.62
356.492	33.04
356.702	33.43
356.912	32.45
357.122	32.79
357.332	33.28
357.542	32.69
357.752	32.23
357.962	32.11
358.171	31.91
358.381	31.8
358.591	32.18
358.801	31.99
359.011	32.11
359.221	32.24
359.43	31.31
359.64	30.32
359.85	30.62
360.06	30.52
360.269	30.3
360.479	30.63
360.689	30.69
360.899	30.24
361.108	30.34
361.318	29.86
361.528	29.61
361.737	29.28
361.947	29.67
362.156	29.96
362.366	29.96
362.576	30.39
362.785	30.11
362.995	29.81
363.204	30.15
363.414	30.09
363.623	30.36
363.833	31.13
364.042	31.8
364.252	32.16
364.461	31.42
364.671	31.85
364.88	31.47
365.09	31.75
365.299	31.85
365.509	31.7
365.718	31.38
365.927	31.45
366.137	30.42
366.346	30.21
366.555	29.71
366.765	30.14
366.974	29.63
367.183	28.22
367.393	27.1
367.602	26.97
367.811	27.26
368.021	27.68
368.23	28.08
368.439	28.39
368.648	27.78
368.857	27.79
369.067	27.69
369.276	27.59
369.485	29.05
369.694	30.49
369.903	30.37
370.112	30.1
370.321	29.07
370.531	27.86
370.74	27.55
370.949	27.88
371.158	27.59
371.367	27.55
371.576	27.4
371.785	27.1
371.994	26.84
372.203	26.92
372.412	26.62
372.621	27.4
372.83	27.35
373.039	27.57
373.248	26.9
373.457	27.07
373.666	25.95
373.874	25.41
374.083	25.43
374.292	25.07
374.501	24.68
374.71	24.75
374.919	24.74
375.128	24.77
375.336	25.03
375.545	25.55
375.754	25.4
375.963	26.09
376.171	25.93
376.38	25.48
376.589	24.9
376.798	24.19
377.006	24.21
377.215	24.15
377.424	23.99
377.632	23.13
377.841	22.96
378.05	22.68
378.258	22.39
378.467	22.55
378.675	22.36
378.884	23.18
379.093	23.64
379.301	23.34
379.51	23.13
379.718	23.39
379.927	23.59
380.135	23.72
380.344	23.63
380.552	24.66
380.761	24.52
380.969	24.6
381.177	23.86
381.386	24.35
381.594	24.08
381.803	24.11
382.011	24.14
382.219	23.65
382.428	23.39
382.636	23.6
382.845	21.89
383.053	22.08
383.261	22.19
383.469	22.45
383.678	22.2
383.886	22.13
384.094	22.01
384.302	21.99
384.511	22.55
384.719	22.46
384.927	22.4
385.135	23.42
385.343	23.38
385.552	23.55
385.76	22.93
385.968	22.61
386.176	22.54
386.384	21.72
386.592	21.5
386.8	21.47
387.008	21.62
387.216	21.68
387.424	21.2
387.633	20.91
387.841	20.65
388.049	20.9
388.257	20.95
388.465	20.74
388.672	21.31
388.88	21.41
389.088	20.46
389.296	19.97
389.504	19.66
389.712	19.54
389.92	19.49
390.128	19.38
390.336	19.13
390.544	18.88
390.751	19.32
390.959	19.04
391.167	18.48
391.375	19.29
391.583	18.99
391.79	18.55
391.998	18.81
392.206	18.76
392.414	18.42
392.621	18.48
392.829	18.35
393.037	17.98
393.244	17.79
393.452	18.08
393.66	17.74
393.867	18.06
394.075	18.28
394.283	17.95
394.49	17.76
394.698	17.71
394.905	17.76
395.113	17.98
395.32	17.81
395.528	17.8
395.735	17.54
395.943	17.58
396.15	17.46
396.358	17.19
396.565	17.18
396.773	17.37
396.98	17.5
397.188	17.14
397.395	17.1
397.602	16.98
397.81	16.83
398.017	17.03
398.225	17.02
398.432	17.09
398.639	17
398.847	16.96
399.054	16.99
399.261	16.69
399.468	16.79
399.676	16.81
399.883	16.63
400.09	17.27
400.297	17.04
400.505	16.78
400.712	16.83
400.919	17.41
401.126	17.2
401.333	16.7
401.54	16.82
401.748	16.79
401.955	16.1
402.162	16.05
402.369	15.58
402.576	15.4
402.783	15.27
402.99	14.97
403.197	14.47
403.404	14.34
403.611	14.54
403.818	14.32
404.025	14.22
404.232	14.61
404.439	14.73
404.646	14.62
404.853	14.72
405.06	14.44
405.267	14.55
405.474	14.66
405.681	14.8
405.887	14.65
406.094	15.03
406.301	15.26
406.508	15.4
406.715	15.68
406.922	15.63
407.128	15.79
407.335	15.95
407.542	15.7
407.749	15.52
407.955	15.31
408.162	15.3
408.369	14.93
408.575	14.79
408.782	14.87
408.989	14.37
409.195	14.36
409.402	14.13
409.609	13.99
409.815	13.86
410.022	14.1
410.228	14.22
410.435	14.6
410.642	14.85
410.848	14.64
411.055	14.34
411.261	14.8
411.468	15.02
411.674	15.14
411.881	15.47
412.087	15.81
412.294	15.66
412.5	15.62
412.706	15.34
412.913	14.98
413.119	14.96
413.326	14.94
413.532	14.58
413.738	14.55
413.945	14.05
414.151	14.06
414.357	13.9
414.564	13.73
414.77	13.69
414.976	13.71
415.182	14.1
415.389	13.98
415.595	13.67
415.801	13.75
416.007	13.61
416.214	13.77
416.42	13.72
416.626	13.5
416.832	13.66
417.038	13.69
417.244	13.68
417.45	13.37
417.657	13.28
417.863	13.34
418.069	13.32
418.275	13.32
418.481	13.35
418.687	13.31
418.893	13.28
419.099	13.22
419.305	13
419.511	12.81
419.717	12.9
419.923	13.02
420.129	12.99
420.335	13.02
420.541	12.92
420.746	12.85
420.952	12.81
421.158	12.94
421.364	12.76
421.57	12.93
421.776	13
421.982	13.03
422.187	12.88
422.393	12.94
422.599	12.8
422.805	12.77
423.01	12.73
423.216	12.7
423.422	12.74
423.628	12.85
423.833	12.7
424.039	12.69
424.245	12.66
424.45	12.69
424.656	12.74
424.862	12.78
425.067	12.69
425.273	12.84
425.478	12.77
425.684	12.74
425.889	12.88
426.095	12.9
426.301	12.85
426.506	12.81
426.712	12.94
426.917	12.89
427.123	12.85
427.328	12.95
427.533	12.76
427.739	13.07
427.944	12.98
428.15	12.72
428.355	12.86
428.561	13.1
428.766	13.02
428.971	12.82
429.177	12.8
429.382	12.88
429.587	12.93
429.793	13.01
429.998	12.82
430.203	12.88
430.408	12.97
430.614	12.8
430.819	12.64
431.024	12.61
431.229	12.7
431.434	12.63
431.64	12.63
431.845	12.75
432.05	12.62
432.255	12.5
432.46	12.43
432.665	12.35
432.87	12.36
433.076	12.38
433.281	12.36
433.486	12.4
433.691	12.29
433.896	12.12
434.101	11.93
434.306	12.01
434.511	12.06
434.716	11.93
434.921	12.03
435.126	12.1
435.331	12.04
435.535	12.14
435.74	11.94
435.945	12.01
436.15	12.03
436.355	12.18
436.56	12.22
436.765	12.32
436.97	12.28
437.174	12.27
437.379	12.23
437.584	12.4
437.789	12.29
437.993	12.37
438.198	12.39
438.403	12.49
438.608	12.53
438.812	12.43
439.017	12.28
439.222	12.4
439.426	12.25
439.631	12.22
439.836	12.11
440.04	12.13
440.245	12.14
440.45	12.31
440.654	12.26
440.859	12.04
441.063	12.03
441.268	12.1
441.472	12.1
441.677	12.05
441.881	11.98
442.086	11.89
442.29	11.71
442.495	11.76
442.699	11.6
442.904	11.55
443.108	11.7
443.312	11.74
443.517	11.67
443.721	11.59
443.925	11.68
444.13	11.69
444.334	11.63
444.538	11.79
444.743	11.67
444.947	11.6
445.151	11.6
445.356	11.66
445.56	11.72
445.764	11.71
445.968	11.83
446.173	11.86
446.377	11.89
446.581	11.96
446.785	11.93
446.989	11.92
447.193	11.94
447.398	11.98
447.602	11.84
447.806	11.79
448.01	11.86
448.214	11.86
448.418	11.73
448.622	11.76
448.826	11.69
449.03	11.76
449.234	12
449.438	12.03
449.642	12.03
449.846	12.3
450.05	12.33
450.254	12.14
450.458	11.94
450.662	12.19
450.866	12.16
451.069	12.34
451.273	12.35
451.477	12.19
451.681	12.14
451.885	12.04
452.089	11.84
452.292	11.55
452.496	11.37
452.7	11.57
452.904	11.57
453.107	11.76
453.311	11.58
453.515	11.55
453.719	11.55
453.922	11.7
454.126	11.79
454.33	11.78
454.533	11.81
454.737	12.07
454.94	12.07
455.144	12.08
455.348	11.79
455.551	11.82
455.755	11.9
455.958	12.07
456.162	12.01
456.365	11.94
456.569	11.86
456.772	11.98
456.976	11.95
457.179	11.95
457.383	11.88
457.586	12.01
457.79	12.04
457.993	11.89
458.196	11.71
458.4	11.65
458.603	11.66
458.807	11.56
459.01	11.66
459.213	11.59
459.417	11.63
459.62	11.47
459.823	11.53
460.026	11.47
460.23	11.41
460.433	11.28
460.636	11.24
460.839	11.26
461.042	11.26
461.246	11.23
461.449	11.32
461.652	11.28
461.855	11.37
462.058	11.32
462.261	11.52
462.464	11.5
462.668	11.69
462.871	11.82
463.074	11.65
463.277	11.72
463.48	11.58
463.683	11.56
463.886	11.35
464.089	11.47
464.292	11.2
464.495	11
464.698	11.14
464.901	11.11
465.104	10.96
465.306	11.02
465.509	11.19
465.712	11.56
465.915	11.68
466.118	11.64
466.321	11.5
466.524	11.54
466.726	11.62
466.929	11.67
467.132	11.59
467.335	11.92
467.538	11.87
467.74	11.74
467.943	11.53
468.146	11.3
468.348	11.33
468.551	11.36
468.754	11.7
468.956	11.74
469.159	11.6
469.362	11.79
469.564	11.55
469.767	11.91
469.969	12.07
470.172	12.08
470.375	12.15
470.577	12.35
470.78	12.3
470.982	12.05
471.185	12.03
471.387	12.13
471.59	11.99
471.792	12.11
471.995	12.08
472.197	11.94
472.399	12.1
472.602	12.23
472.804	12.15
473.007	12.27
473.209	12.27
473.411	12.37
473.614	12.54
473.816	12.47
474.018	12.32
474.22	12.36
474.423	12.34
474.625	12.2
474.827	12.07
475.03	12
475.232	11.86
475.434	11.99
475.636	11.77
475.838	11.58
476.04	11.75
476.243	11.69
476.445	11.47
476.647	11.68
476.849	11.75
477.051	11.71
477.253	12.05
477.455	12.16
477.657	12.03
477.859	12.01
478.061	11.95
478.263	11.87
478.465	11.84
478.667	11.79
478.869	11.48
479.071	11.45
479.273	11.45
479.475	11.29
479.677	11.18
479.879	11.14
480.081	11.11
480.283	11.04
480.485	10.97
480.686	11.14
480.888	11.27
481.09	11.32
481.292	11.25
481.494	11.34
481.695	11.2
481.897	11.23
482.099	11.27
482.301	11.28
482.502	11.32
482.704	11.42
482.906	11.29
483.107	11.16
483.309	11.24
483.511	11.23
483.712	11.2
483.914	11.26
484.115	11.25
484.317	11.25
484.519	11.23
484.72	11.2
484.922	11.14
485.123	11.11
485.325	11.2
485.526	11.13
485.728	11.12
485.929	11.12
486.131	10.99
486.332	10.96
486.534	10.96
486.735	10.98
486.936	11.06
487.138	11.11
487.339	11.21
487.541	11.17
487.742	11.18
487.943	11.2
488.144	11.21
488.346	11.25
488.547	11.24
488.748	11.19
488.95	11.24
489.151	11.2
489.352	11.21
489.553	11.14
489.755	11.16
489.956	11.19
490.157	11.18
490.358	11.19
490.559	11.21
490.76	11.27
490.961	11.3
491.163	11.31
491.364	11.3
491.565	11.26
491.766	11.4
491.967	11.44
492.168	11.47
492.369	11.46
492.57	11.42
492.771	11.52
492.972	11.52
493.173	11.63
493.374	11.63
493.575	11.67
493.776	11.68
493.976	11.7
494.177	11.72
494.378	11.72
494.579	11.91
494.78	11.98
494.981	12.11
495.182	12.27
495.382	12.22
495.583	12.33
495.784	12.35
495.985	12.4
496.185	12.28
496.386	12.21
496.587	12.32
496.788	12.17
496.988	12.13
497.189	12.04
497.39	11.94
497.59	11.97
497.791	11.71
497.992	11.72
498.192	11.84
498.393	11.86
498.593	11.89
498.794	11.8
498.994	11.97
499.195	12.03
499.395	12.04
499.596	12.09
499.796	12.02
499.997	12.28
500.197	12.49
500.398	12.45
500.598	12.31
500.799	12.46
500.999	12.48
501.199	12.44
501.4	12.5
501.6	12.51
501.801	12.55
502.001	12.78
502.201	12.72
502.402	12.56
502.602	12.53
502.802	12.77
503.002	12.73
503.203	12.79
503.403	12.95
503.603	13.09
503.803	13.13
504.003	13.23
504.204	13.23
504.404	13.43
504.604	13.64
504.804	13.91
505.004	13.89
505.204	13.96
505.404	14.05
505.604	14.01
505.804	14.02
506.005	14.06
506.205	14.01
506.405	14.11
506.605	14.18
506.805	14.1
507.005	13.99
507.204	14.1
507.404	14
507.604	14.08
507.804	14.18
508.004	14.32
508.204	14.44
508.404	14.44
508.604	14.46
508.804	14.41
509.003	14.51
509.203	14.5
509.403	14.48
509.603	14.63
509.803	14.72
510.002	14.78
510.202	14.79
510.402	14.95
510.602	15.05
510.801	15.13
511.001	15.33
511.201	15.26
511.4	15.37
511.6	15.49
511.8	15.7
511.999	15.76
512.199	15.69
512.398	15.74
512.598	15.67
512.797	16.01
512.997	16.04
513.197	15.97
513.396	16.28
513.596	16.35
513.795	16.56
513.994	16.5
514.194	16.54
514.393	16.65
514.593	16.64
514.792	16.8
514.992	16.85
515.191	16.97
515.39	17.13
515.59	17.1
515.789	17.29
515.988	17.32
516.188	17.42
516.387	17.57
516.586	17.77
516.786	17.96
516.985	18.03
517.184	18.08
517.383	18.18
517.582	18.3
517.782	18.27
517.981	18.36
518.18	18.35
518.379	18.51
518.578	18.5
518.777	18.62
518.976	18.68
519.176	18.81
519.375	18.81
519.574	18.94
519.773	19.03
519.972	19.21
520.171	19.32
520.37	19.55
520.569	19.61
520.768	19.86
520.967	19.94
521.166	20.08
521.365	20.09
521.564	20.28
521.762	20.17
521.961	20.35
522.16	20.39
522.359	20.45
522.558	20.45
522.757	20.5
522.956	20.36
523.154	20.41
523.353	20.47
523.552	20.62
523.751	20.61
523.949	20.86
524.148	20.69
524.347	20.88
524.546	21.02
524.744	21.36
524.943	21.47
525.142	21.7
525.34	21.75
525.539	21.83
525.737	21.91
525.936	22.02
526.135	22.07
526.333	22.26
526.532	22.3
526.73	22.36
526.929	22.43
527.127	22.51
527.326	22.55
527.524	22.66
527.723	22.81
527.921	22.87
528.12	22.98
528.318	23
528.516	23.07
528.715	23.18
528.913	23.13
529.112	23.15
529.31	23.23
529.508	23.31
529.707	23.35
529.905	23.47
530.103	23.53
530.301	23.51
530.5	23.65
530.698	23.74
530.896	23.82
531.094	24
531.293	24
531.491	24.1
531.689	24.11
531.887	24.22
532.085	24.17
532.283	24.26
532.481	24.42
532.68	24.52
532.878	24.62
533.076	24.69
533.274	24.79
533.472	24.83
533.67	24.86
533.868	25.08
534.066	25.2
534.264	25.22
534.462	25.21
534.66	25.36
534.858	25.43
535.056	25.57
535.253	25.58
535.451	25.59
535.649	25.7
535.847	25.9
536.045	25.89
536.243	26.02
536.441	26.12
536.638	26.22
536.836	26.21
537.034	26.33
537.232	26.3
537.43	26.36
537.627	26.61
537.825	26.76
538.023	26.73
538.22	26.87
538.418	26.9
538.616	27.04
538.813	27.22
539.011	27.28
539.209	27.24
539.406	27.27
539.604	27.61
539.801	27.57
539.999	27.68
540.196	27.76
540.394	27.78
540.591	27.81
540.789	27.85
540.986	27.79
541.184	27.95
541.381	28.05
541.579	28.15
541.776	28.12
541.974	28.22
542.171	28.23
542.368	28.39
542.566	28.39
542.763	28.38
542.96	28.45
543.158	28.67
543.355	28.6
543.552	28.61
543.75	28.72
543.947	28.73
544.144	28.94
544.341	28.96
544.539	28.9
544.736	29.04
544.933	29.11
545.13	29.08
545.327	29.08
545.524	29.19
545.722	29.3
545.919	29.28
546.116	29.42
546.313	29.25
546.51	29.47
546.707	29.41
546.904	29.46
547.101	29.58
547.298	29.83
547.495	29.88
547.692	29.95
547.889	29.91
548.086	29.9
548.283	29.97
548.48	30.06
548.677	29.95
548.874	30.23
549.07	30.22
549.267	30.36
549.464	30.24
549.661	30.39
549.858	30.63
550.055	30.84
550.251	30.9
550.448	30.87
550.645	30.97
550.842	31.14
551.038	31.16
551.235	31.27
551.432	31.43
551.628	31.5
551.825	31.57
552.022	31.6
552.218	31.66
552.415	31.86
552.612	31.84
552.808	31.86
553.005	31.76
553.201	31.66
553.398	31.88
553.594	31.87
553.791	32.14
553.987	32.06
554.184	32.02
554.38	32.06
554.577	32.14
554.773	32.28
554.97	32.25
555.166	32.48
555.362	32.49
555.559	32.32
555.755	32.32
555.952	32.21
556.148	32.66
556.344	32.7
556.541	32.8
556.737	32.8
556.933	32.84
557.129	33.11
557.326	33.02
557.522	33.21
557.718	33.44
557.914	33.54
558.11	33.45
558.307	33.13
558.503	33.26
558.699	33.25
558.895	33.34
559.091	33.48
559.287	33.43
559.483	33.44
559.679	33.42
559.876	33.03
560.072	32.85
560.268	32.92
560.464	32.88
560.66	32.86
560.856	33.07
561.052	32.94
561.247	32.89
561.443	32.84
561.639	33.09
561.835	33.46
562.031	33.79
562.227	33.9
562.423	34.26
562.619	34.44
562.815	34.64
563.01	34.76
563.206	34.99
563.402	35.05
563.598	35.26
563.793	35.44
563.989	35.34
564.185	35.48
564.381	35.47
564.576	35.39
564.772	35.34
564.968	35.26
565.163	35.23
565.359	35.18
565.555	35.22
565.75	35.21
565.946	35.04
566.141	35.09
566.337	35.01
566.532	35.27
566.728	35.34
566.923	35.4
567.119	35.42
567.314	35.37
567.51	35.41
567.705	35.44
567.901	35.67
568.096	35.68
568.292	35.87
568.487	35.85
568.682	35.92
568.878	35.93
569.073	36.06
569.268	36.1
569.464	36.43
569.659	36.52
569.854	36.61
570.05	36.37
570.245	36.64
570.44	36.61
570.635	36.75
570.831	36.67
571.026	36.62
571.221	36.71
571.416	36.83
571.611	36.56
571.806	36.57
572.002	36.65
572.197	36.71
572.392	36.53
572.587	36.39
572.782	36.42
572.977	36.5
573.172	36.53
573.367	36.34
573.562	36.34
573.757	36.41
573.952	36.28
574.147	36.24
574.342	36.28
574.537	36.27
574.732	36.16
574.927	36.26
575.121	36.23
575.316	36.34
575.511	36.5
575.706	36.49
575.901	36.32
576.096	36.49
576.29	36.54
576.485	36.6
576.68	36.77
576.875	36.89
577.069	36.87
577.264	36.86
577.459	36.61
577.654	36.72
577.848	36.61
578.043	36.94
578.238	37.06
578.432	36.93
578.627	36.79
578.821	36.97
579.016	37.04
579.21	37.12
579.405	37.23
579.6	37.44
579.794	37.38
579.989	37.59
580.183	37.95
580.378	37.8
580.572	38.37
580.766	38.74
580.961	38.44
581.155	38.25
581.35	38.59
581.544	38.54
581.738	38.89
581.933	38.89
582.127	39.16
582.321	38.82
582.516	38.82
582.71	38.4
582.904	38.39
583.099	38.68
583.293	38.98
583.487	38.89
583.681	39.28
583.875	39.15
584.07	39.12
584.264	38.9
584.458	38.73
584.652	38.57
584.846	38.89
585.04	38.81
585.234	38.81
585.428	38.77
585.623	38.62
585.817	38.32
586.011	38.17
586.205	38.34
586.399	38.3
586.593	38.78
586.787	39.22
586.981	39.02
587.174	39.01
587.368	38.94
587.562	39.17
587.756	39.03
587.95	38.88
588.144	38.93
588.338	39
588.532	39.2
588.725	39.19
588.919	39.04
589.113	39.19
589.307	39.31
589.501	39.19
589.694	39.04
589.888	39.02
590.082	39.11
590.275	39.11
590.469	38.93
590.663	39.02
590.856	38.88
591.05	39.17
591.244	39.03
591.437	39.17
591.631	39.25
591.824	39.44
592.018	39.58
592.212	39.61
592.405	39.94
592.599	40.24
592.792	39.96
592.986	39.77
593.179	39.3
593.372	39.33
593.566	39.04
593.759	39.16
593.953	39.02
594.146	39.03
594.339	39.27
594.533	39.21
594.726	38.82
594.92	39
595.113	39.17
595.306	39.38
595.499	39.31
595.693	39.72
595.886	39.89
596.079	39.94
596.272	40.06
596.466	39.78
596.659	39.8
596.852	40.24
597.045	40.29
597.238	40.31
597.431	40.46
597.624	40.66
597.818	40.51
598.011	40.49
598.204	40.44
598.397	40.11
598.59	40.2
598.783	40.16
598.976	39.98
599.169	39.8
599.362	39.69
599.555	39.43
599.748	39.37
599.941	39.24
600.134	39.27
600.326	39.54
600.519	40.08
600.712	40.29
600.905	40.2
601.098	40.27
601.291	40.37
601.483	40.45
601.676	40.57
601.869	40.67
602.062	40.59
602.255	40.61
602.447	40.18
602.64	39.92
602.833	39.8
603.025	39.83
603.218	39.82
603.411	39.94
603.603	39.98
603.796	40.08
603.989	39.83
604.181	39.73
604.374	39.8
604.566	40.14
604.759	40.2
604.951	40.36
605.144	40.48
605.336	40.64
605.529	40.62
605.721	40.51
605.914	40.57
606.106	40.68
606.299	40.96
606.491	40.68
606.683	40.64
606.876	40.62
607.068	40.6
607.26	40.43
607.453	40.1
607.645	40.09
607.837	40.24
608.03	40.14
608.222	40.13
608.414	40.26
608.606	40.47
608.799	40.53
608.991	40.6
609.183	40.71
609.375	40.93
609.567	41.11
609.759	41.19
609.952	41.21
610.144	41.43
610.336	41.65
610.528	41.63
610.72	41.76
610.912	42.05
611.104	42.47
611.296	42.52
611.488	42.58
611.68	42.65
611.872	42.62
612.064	43.07
612.256	42.83
612.448	42.91
612.64	42.94
612.832	43.14
613.023	42.62
613.215	42.29
613.407	42.18
613.599	41.83
613.791	41.68
613.983	41.46
614.174	41.18
614.366	41.33
614.558	41.24
614.75	41.37
614.941	41.19
615.133	41.31
615.325	41.38
615.516	41.43
615.708	41.82
615.9	42.15
616.091	42.11
616.283	42.17
616.475	41.92
616.666	41.86
616.858	41.95
617.049	41.5
617.241	41.6
617.432	41.34
617.624	41.32
617.815	41.13
618.007	41.08
618.198	41.45
618.39	41.6
618.581	41.68
618.773	41.54
618.964	41.23
619.155	41.14
619.347	40.95
619.538	41.21
619.729	41.26
619.921	41.5
620.112	41.73
620.303	41.57
620.494	41.17
620.686	41.24
620.877	41.47
621.068	41.55
621.259	42.16
621.451	42.58
621.642	42.33
621.833	42.46
622.024	42.12
622.215	41.46
622.406	41.8
622.597	41.72
622.788	41.68
622.98	41.48
623.171	41.51
623.362	41.42
623.553	41.58
623.744	41.4
623.935	41.1
624.126	41.23
624.317	41.47
624.508	40.94
624.698	40.81
624.889	40.99
625.08	41.32
625.271	41.57
625.462	41.32
625.653	40.76
625.844	40.93
626.034	40.79
626.225	41.02
626.416	40.71
626.607	41.03
626.798	41.42
626.988	41.25
627.179	41.27
627.37	40.98
627.56	41.48
627.751	42.26
627.942	42.48
628.132	42.6
628.323	42.31
628.514	42.84
628.704	42.86
628.895	42.84
629.085	42.68
629.276	42.45
629.466	42.67
629.657	42.29
629.847	41.65
630.038	41.81
630.228	41.86
630.419	42.24
630.609	42.35
630.8	42.31
630.99	42.21
631.181	42.62
631.371	43.05
631.561	42.84
631.752	42.66
631.942	43.02
632.132	42.63
632.323	42.86
632.513	42.78
632.703	42.64
632.893	42.7
633.084	42.64
633.274	42.55
633.464	42.07
633.654	42.33
633.844	42.48
634.034	41.96
634.225	41.97
634.415	41.86
634.605	41.48
634.795	41.27
634.985	41.25
635.175	41.63
635.365	41.87
635.555	42.2
635.745	41.9
635.935	42.06
636.125	42.18
636.315	42.53
636.505	42.49
636.695	42.66
636.885	42.63
637.075	42.55
637.265	42.23
637.455	42.15
637.644	42.04
637.834	42.35
638.024	42.27
638.214	42.51
638.404	42.38
638.593	42.37
638.783	42.47
638.973	42.7
639.163	42.89
639.352	42.88
639.542	42.62
639.732	42.87
639.921	42.71
640.111	43.06
640.301	43.11
640.49	43.33
640.68	43.47
640.87	43.63
641.059	43.53
641.249	43.65
641.438	43.81
641.628	44.06
641.817	44.23
642.007	44.37
642.196	44.22
642.386	43.93
642.575	44.12
642.764	43.89
642.954	43.46
643.143	43.89
643.333	43.65
643.522	43.53
643.711	43.48
643.901	43.34
644.09	43.24
644.279	43.26
644.469	43.35
644.658	43.37
644.847	43.49
645.036	43.97
645.226	43.47
645.415	43.61
645.604	43.63
645.793	43.83
645.982	43.37
646.171	43.37
646.361	42.95
646.55	43.1
646.739	42.88
646.928	43.12
647.117	43.2
647.306	43.18
647.495	42.35
647.684	42.25
647.873	42.45
648.062	42.84
648.251	42.59
648.44	42.53
648.629	42.04
648.818	41.67
649.007	41.45
649.196	41.5
649.384	41.33
649.573	42.11
649.762	41.86
649.951	41.47
650.14	41.41
650.328	41.77
650.517	41.91
650.706	42.27
650.895	42.39
651.083	43.22
651.272	43.37
651.461	43.58
651.65	43.38
651.838	43.65
652.027	43.9
652.216	43.85
652.404	43.9
652.593	44.26
652.781	44.44
652.97	44.89
653.158	43.9
653.347	43.39
653.535	43.27
653.724	43.56
653.912	43.92
654.101	43.49
654.289	43.37
654.478	43.24
654.666	42.7
654.855	42.55
655.043	42.29
655.231	42.4
655.42	42.74
655.608	43.39
655.796	43.37
655.985	43.29
656.173	43.13
656.361	42.79
656.55	42.54
656.738	43.06
656.926	43.31
657.114	43.06
657.302	43.26
657.491	43
657.679	42.63
657.867	42.6
658.055	42.47
658.243	42.97
658.431	43.32
658.619	43.45
658.807	43.43
658.996	43.1
659.184	43.33
659.372	43.44
659.56	43.28
659.748	43.2
659.936	43.16
660.124	42.88
660.311	42.8
660.499	42.9
660.687	42.89
660.875	42.66
661.063	42.86
661.251	42.5
661.439	42.77
661.627	43.15
661.814	43.11
662.002	43.1
662.19	43.76
662.378	43.5
662.565	43.55
662.753	43.65
662.941	43.99
663.129	43.55
663.316	44.23
663.504	43.83
663.692	43.69
663.879	43.55
664.067	43.67
664.254	43.49
664.442	43.58
664.63	43.55
664.817	43.74
665.005	43.13
665.192	43.95
665.38	43.69
665.567	43.33
665.755	43.71
665.942	44.14
666.13	44.45
666.317	44.29
666.504	44.44
666.692	44.5
666.879	44.26
667.067	44.67
667.254	44.04
667.441	43.9
667.629	44.41
667.816	44.34
668.003	44.39
668.19	44.26
668.378	44.72
668.565	45.4
668.752	45.15
668.939	45.18
669.127	45.21
669.314	45.14
669.501	45.34
669.688	45.19
669.875	44.85
670.062	44.99
670.249	44.84
670.436	44.9
670.623	44.16
670.81	44.12
670.997	44.14
671.184	44.04
671.371	44.26
671.558	43.98
671.745	44
671.932	43.64
672.119	43.17
672.306	43.11
672.493	42.6
672.68	42.61
672.867	43.18
673.054	42.96
673.24	42.97
673.427	42.96
673.614	43.16
673.801	43.23
673.988	44.05
674.174	44.24
674.361	43.92
674.548	43.71
674.734	43.71
674.921	42.99
675.108	43.32
675.294	43.25
675.481	43.34
675.668	43.35
675.854	43.42
676.041	43.09
676.227	43.23
676.414	43.8
676.601	44.09
676.787	44.34
676.974	44.43
677.16	44.02
677.347	44.62
677.533	44.95
677.719	45.27
677.906	45.06
678.092	45.63
678.279	45.53
678.465	45.2
678.651	45.3
678.838	45.1
679.024	45.18
679.21	44.91
679.397	44.59
679.583	44.56
679.769	43.83
679.955	43.51
680.142	42.81
680.328	43.1
680.514	43.21
680.7	42.96
680.886	43.1
681.073	43.23
681.259	43.7
681.445	43.81
681.631	43.6
681.817	43.62
682.003	43.99
682.189	43.99
682.375	43.97
682.561	44.19
682.747	43.94
682.933	44.03
683.119	43.78
683.305	43.93
683.491	43.59
683.677	43.8
683.863	43.63
684.049	43.66
684.235	43.79
684.42	43.56
684.606	43.28
684.792	44.19
684.978	44.06
685.164	44.24
685.349	44.43
685.535	44.56
685.721	44.22
685.907	44.56
686.092	44.13
686.278	44.17
686.464	43.96
686.649	44.15
686.835	43.71
687.021	44.22
687.206	44.05
687.392	43.78
687.577	44.02
687.763	44.1
687.948	44.36
688.134	44.54
688.319	44.96
688.505	45.17
688.69	44.82
688.876	44.73
689.061	43.94
689.247	44.39
689.432	44.14
689.618	43.63
689.803	43.6
689.988	43.97
690.174	44.37
690.359	43.53
690.544	43.5
690.73	43.87
690.915	43.97
691.1	44.08
691.285	44.07
691.471	44.32
691.656	44.49
691.841	44.73
692.026	44.13
692.211	43.57
692.396	44.26
692.582	44.7
692.767	44.78
692.952	44.99
693.137	45.05
693.322	44.41
693.507	44.8
693.692	45.14
693.877	45.24
694.062	45.58
694.247	46.27
694.432	46.07
694.617	45.47
694.802	45.15
694.987	45.55
695.172	45.75
695.357	45.65
695.541	45.02
695.726	44.88
695.911	45.04
696.096	44.94
696.281	44.5
696.466	44.55
696.65	45
696.835	44.93
697.02	43.78
697.204	44.04
697.389	44.36
697.574	44.7
697.759	44.76
697.943	44.04
698.128	43.97
698.312	44.26
698.497	44.26
698.682	44.47
698.866	44.57
699.051	45.33
699.235	44.99
699.42	45.11
699.604	44.92
699.789	45.01
699.973	45.29
700.158	45.64
700.342	45.32
700.527	45.32
700.711	45.12
700.895	45.5
701.08	45.1
701.264	45.42
701.448	45.12
701.633	45.6
701.817	45.42
702.001	46
702.186	45.63
702.37	46.29
702.554	46.53
702.738	45.89
702.923	45.19
703.107	45.27
703.291	45.61
703.475	46.64
703.659	46.15
703.843	45.95
704.027	45.79
704.212	45.58
704.396	45.85
704.58	45.31
704.764	44.83
704.948	45.49
705.132	45.3
705.316	44.74
705.5	44.47
705.684	44.41
705.868	45
706.052	45.36
706.235	46.54
706.419	45.76
706.603	46.37
706.787	46.59
706.971	46.8
707.155	47.17
707.339	47.49
707.522	46.92
707.706	46.98
707.89	46.99
708.074	47.12
708.257	45.79
708.441	46.15
708.625	46.56
708.808	47.07
708.992	46.52
709.176	46.47
709.359	45.94
709.543	45.97
709.727	45.82
709.91	45.31
710.094	44.67
710.277	45.7
710.461	45.64
710.644	45.24
710.828	45.6
711.011	45.23
711.195	45.74
711.378	46.3
711.562	46.34
711.745	46.4
711.928	46.08
712.112	45.83
712.295	45.09
712.478	44.84
712.662	45.3
712.845	45.47
713.028	45.75
713.212	45.01
713.395	44.32
713.578	44.11
713.761	44.72
713.945	45.52
714.128	45.96
714.311	46.08
714.494	46.44
714.677	46.16
714.86	45.46
715.043	46.34
715.227	46.43
715.41	47.17
715.593	47.67
715.776	46.86
715.959	46.97
716.142	47.4
716.325	47.79
716.508	47.72
716.691	47.18
716.874	47.55
717.057	46.99
717.239	46.95
717.422	46.54
717.605	46.3
717.788	46.68
717.971	47.44
718.154	46.92
718.337	46.34
718.519	45.76
718.702	46.65
718.885	45.81
719.068	45.91
719.25	46.35
719.433	47.19
719.616	48.28
719.798	49.03
719.981	48.02
720.164	47.57
720.346	48.17
720.529	49.32
720.712	48.78
720.894	50.51
721.077	50.26
721.259	50.32
721.442	49.96
721.624	49.36
721.807	49.08
721.989	48.94
722.172	49.37
722.354	49.92
722.537	50.18
722.719	49.72
722.901	49.19
723.084	49.23
723.266	48.99
723.448	48.96
723.631	48.03
723.813	48.13
723.995	47.6
724.178	48.28
724.36	47.23
724.542	46.06
724.724	47.01
724.907	46.77
725.089	46.91
725.271	47.17
725.453	46.4
725.635	46.86
725.817	46.87
725.999	47.69
726.181	48.15
726.364	48.13
726.546	48.93
726.728	48.38
726.91	47.88
727.092	47.44
727.274	47.07
727.456	47.79
727.638	47.36
727.819	47.42
728.001	47.43
728.183	46.12
728.365	46.44
728.547	45.59
728.729	46.38
728.911	47.7
729.093	48.56
729.274	48.48
729.456	47.88
729.638	48.37
729.82	47.97
730.001	46.84
730.183	47.5
730.365	47.73
730.546	48.28
730.728	47.5
730.91	46.37
731.091	46.11
731.273	46.38
731.455	46.48
731.636	47.32
731.818	47.33
731.999	47.57
732.181	46.68
732.362	46.3
732.544	46.74
732.725	46.2
732.907	47.02
733.088	46.78
733.27	47.79
733.451	47.7
733.633	47.13
733.814	47.81
733.995	48.21
734.177	48.77
734.358	49.56
734.539	48.82
734.721	49.78
734.902	49.95
735.083	50.15
735.264	48.22
735.446	49.36
735.627	49.42
735.808	48.89
735.989	49.14
736.17	49.77
736.351	49.81
736.533	49.74
736.714	49.35
736.895	48.44
737.076	48.18
737.257	48.94
737.438	48.26
737.619	48.65
737.8	48.18
737.981	48.74
738.162	47.88
738.343	47.4
738.524	47.63
738.705	48.08
738.886	47.91
739.067	48.23
739.247	48.36
739.428	47.26
739.609	46.45
739.79	47.17
739.971	46.7
740.151	47.07
740.332	46.76
740.513	47.37
740.694	46.88
740.874	47.08
741.055	46.49
741.236	46.78
741.417	48.09
741.597	47.74
741.778	47.84
741.958	46.87
742.139	46.84
742.32	45.66
742.5	45.4
742.681	46.01
742.861	46.97
743.042	47.49
743.222	47.11
743.403	47.31
743.583	48.98
743.764	48.46
743.944	49.6
744.124	50.09
744.305	51.32
744.485	49.52
744.666	49.72
744.846	49.52
745.026	49.62
745.207	50.37
745.387	50.55
745.567	49.82
745.747	49.97
745.928	48.59
746.108	47.91
746.288	48.19
746.468	50.42
746.648	50.31
746.829	50.37
747.009	50.63
747.189	50.92
747.369	50.27
747.549	49.47
747.729	49.38
747.909	50.37
748.089	50.5
748.269	50.07
748.449	49.48
748.629	49.72
748.809	48.55
748.989	47.88
749.169	47.02
749.349	47.47
749.529	47.66
749.709	48.07
749.889	48.84
750.068	48.53
750.248	49.17
750.428	48.81
750.608	48.31
750.788	49.7
750.967	49.62
751.147	49.57
751.327	49.54
751.507	50.02
751.686	50.04
751.866	50.42
752.046	51.26
752.225	50.39
752.405	49.87
752.585	49.86
752.764	49.53
752.944	49.45
753.123	50.44
753.303	50.16
753.482	49.66
753.662	49.05
753.841	48.89
754.021	48.02
754.2	49.71
754.38	50.7
754.559	51.03
754.739	50.56
754.918	51.96
755.097	50.29
755.277	49.09
755.456	48.47
755.635	48.71
755.815	47.81
755.994	48.28
756.173	46.35
756.352	46.8
756.532	46.57
756.711	46.18
756.89	45.63
757.069	46.59
757.248	46.66
757.427	47.03
757.607	47.91
757.786	48.48
757.965	47.94
758.144	47.72
758.323	47.71
758.502	46.98
758.681	47.36
758.86	46.83
759.039	46.28
759.218	47.1
759.397	47.66
759.576	46.08
759.755	45.81
759.934	45.53
760.113	46.56
760.291	45.6
760.47	47.34
760.649	47.59
760.828	47.72
761.007	47.51
761.186	47.85
761.364	47.85
761.543	48.55
761.722	49.12
761.901	49.24
762.079	50.03
762.258	50.95
762.437	49.45
762.615	48.65
762.794	48.34
762.972	48.84
763.151	48.33
763.33	47.76
763.508	47.79
763.687	48.1
763.865	48.05
764.044	47.22
764.222	46.48
764.401	46.21
764.579	46.89
764.758	46.57
764.936	47.13
765.114	47.28
765.293	48.38
765.471	47.8
765.65	47.25
765.828	47.53
766.006	47.18
766.184	47.2
766.363	47.52
766.541	47.73
766.719	47.26
766.898	46.92
767.076	47.92
767.254	48.22
767.432	48.61
767.61	49.3
767.788	48.9
767.967	49.86
768.145	49.83
768.323	49.89
768.501	48.99
768.679	50.94
768.857	50.67
769.035	50.03
769.213	49.95
769.391	50.29
769.569	50.53
769.747	52.12
769.925	51.74
770.103	52.16
770.281	51.73
770.459	52.1
770.636	51.75
770.814	51.76
770.992	51.97
771.17	51.04
771.348	51.45
771.525	50.06
771.703	49.25
771.881	50.33
772.059	51.07
772.236	50.63
772.414	51.29
772.592	51
772.769	48.68
772.947	49.15
773.125	49.72
773.302	51.11
773.48	52.08
773.657	52
773.835	50.68
774.013	51.17
774.19	52.55
774.368	50.06
774.545	51.4
774.723	54
774.9	53.44
775.077	53.23
775.255	52.17
775.432	50.83
775.61	51.14
775.787	52.06
775.964	51.1
776.142	52.47
776.319	53.9
776.496	52.85
776.674	53.67
776.851	53.32
777.028	53.47
777.205	52.81
777.382	55
777.56	57.09
777.737	59.45
777.914	60.7
778.091	62.54
778.268	61.43
778.445	62.47
778.622	61.74
778.8	62.2
778.977	62.66
779.154	67.6
779.331	67.23
779.508	65.7
779.685	61.46
779.862	60.81
780.038	55.78
780.215	59.5
780.392	58.68
780.569	58.21
780.746	57.41
780.923	55.56
781.1	48.93
781.277	46.55
781.453	45.54
781.63	45.87
781.807	45.32
781.984	44.97
782.16	43.93
782.337	43.61
782.514	44.42
782.691	45.51
782.867	46.51
783.044	48.76
783.221	49.84
783.397	51.18
783.574	52.41
783.75	53.23
783.927	56.7
784.103	58.04
784.28	57.96
784.456	57.5
784.633	58.21
784.809	58.3
784.986	54.69
785.162	57.12
785.339	55.02
785.515	52.49
785.692	51.93
785.868	51.54
786.044	50.39
786.221	52.59
786.397	55.17
786.573	53.4
786.749	53.15
786.926	56.11
787.102	53.22
787.278	54.3
787.454	56.88
787.631	56.29
787.807	55.72
787.983	55.63
788.159	53.63
788.335	52.05
788.511	53.02
788.687	52.54
788.863	54.47
789.039	54.52
789.216	53.66
789.392	53.92
789.568	52.83
789.744	54.4
789.919	53.95
790.095	53.77
790.271	52.52
790.447	51.93
790.623	53.41
790.799	50.62
790.975	49.11
791.151	50.56
791.327	49.41
791.502	49.87
791.678	48.17
791.854	49.68
792.03	48.95
792.205	49.76
792.381	50.03
792.557	46.54
792.733	45.8
792.908	48.42
793.084	47.99
793.259	48.23
793.435	48.58
793.611	50.01
793.786	47.56
793.962	48.13
794.137	47.12
794.313	45.79
794.488	50.04
794.664	52.72
794.839	52.73
795.015	53.02
795.19	51.51
795.366	53.07
795.541	52.94
795.716	50.59
795.892	49.75
796.067	52.07
796.242	54.21
796.418	53.9
796.593	52.48
796.768	51.57
796.944	51.56
797.119	53.38
797.294	53.23
797.469	53.97
797.644	55.34
797.82	57.68
797.995	56.73
798.17	56.7
798.345	54.09
798.52	53.23
798.695	54.42
798.87	51.09
799.045	51.29
799.22	48.62
799.395	48.3
799.57	49.72
799.745	49.8
799.92	47.91
800.095	46.98
800.27	48.7
800.445	49.7
800.62	49.85
800.795	51.21
800.97	51.77
801.145	54.52
801.319	51.83
801.494	52.09
801.669	54.68
801.844	56.45
802.018	59.79
802.193	59.7
802.368	59.99
802.543	58.45
802.717	61.76
802.892	60.74
803.067	60.92
803.241	62.45
803.416	60.16
803.59	60.01
803.765	58.69
803.94	57.42
804.114	56.73
804.289	57.23
804.463	57.81
804.638	55.32
804.812	55
804.986	54.51
805.161	56.66
805.335	58.7
805.51	54.02
805.684	53.38
805.858	50
806.033	49.04
806.207	46.29
806.381	47.19
806.556	48.63
806.73	49.24
806.904	50.2
807.078	47.61
807.253	47.57
807.427	50.27
807.601	51.61
807.775	53.99
807.949	55.79
808.123	56.06
808.298	56.99
808.472	55.32
808.646	57.06
808.82	56.71
808.994	56.1
809.168	56.58
809.342	59.56
809.516	60.74
809.69	62.24
809.864	61.41
810.038	65.08
810.212	64.91
810.385	65.94
810.559	64.82
810.733	60.94
810.907	64.5
811.081	62.77
811.255	59.05
811.428	58.64
811.602	59.19
811.776	59.33
811.95	56.92
812.123	53.89
812.297	55.74
812.471	58.24
812.644	61.16
812.818	59.5
812.992	64.23
813.165	62.82
813.339	61.1
813.512	57.85
813.686	58.24
813.86	58.98
814.033	59.45
814.207	56.14
814.38	53.75
814.554	54.26
814.727	55.6
814.9	52.98
815.074	52.54
815.247	53.59
815.421	51.24
815.594	51.84
815.767	52.75
815.941	51.89
816.114	56.17
816.287	57.42
816.46	56.83
816.634	53.26
816.807	58.55
816.98	61.56
817.153	62.38
817.327	63.28
817.5	62.06
817.673	63.24
817.846	64.72
818.019	65.52
818.192	64.98
818.365	62.16
818.538	65.14
818.711	60.28
818.884	56.87
819.057	58.75
819.23	60.02
819.403	60.95
819.576	60.35
819.749	61.91
819.922	58.74
820.095	59.61
820.268	62.32
820.441	63.16
820.614	62.86
820.786	61.04
820.959	59.86
821.132	57.5
821.305	54.75
821.477	52.14
821.65	50.24
821.823	50.34
821.996	48.57
822.168	48.18
822.341	46.17
822.514	45.75
822.686	45.85
822.859	45.59
823.031	45.34
823.204	45.27
823.376	45.05
823.549	44.81
823.722	44.14
823.894	44.24
824.067	43.48
824.239	43.9
824.411	43.18
824.584	43.64
824.756	43.39
824.929	43.8
825.101	43.91
825.273	43.86
825.446	44.65
825.618	45.53
825.79	45.33
825.963	45.05
826.135	45.02
826.307	46.29
826.479	45.71
826.652	45.15
826.824	45.66
826.996	45.37
827.168	46.39
827.34	45.74
827.512	45.27
827.684	45.91
827.856	47.11
828.029	47.37
828.201	46.08
828.373	46.73
828.545	47.59
828.717	46.71
828.889	47.54
829.061	48.14
829.232	48.34
829.404	48.88
829.576	48.84
829.748	49.81
829.92	51.53
830.092	54.11
830.264	54.38
830.436	54.74
830.607	55.18
830.779	56.49
830.951	56.09
831.123	56.52
831.294	56.18
831.466	55.03
831.638	54.47
831.809	51.83
831.981	50.78
832.153	50.77
832.324	51.29
832.496	52.2
832.667	54.92
832.839	56.76
833.011	56.29
833.182	55.63
833.354	57.17
833.525	55.91
833.697	54.89
833.868	52.28
834.039	51.85
834.211	51.68
834.382	52.05
834.554	49.45
834.725	49.47
834.896	49.14
835.068	50.16
835.239	50.15
835.41	52.16
835.581	53.92
835.753	54.97
835.924	54.1
836.095	53.87
836.266	54.38
836.438	55.26
836.609	55.61
836.78	57.07
836.951	57.45
837.122	57.14
837.293	55.42
837.464	55.63
837.635	59.77
837.806	60.4
837.977	59.38
838.148	60.73
838.319	61.78
838.49	60.87
838.661	57.89
838.832	61.16
839.003	62.36
839.174	63.8
839.345	67.33
839.516	65.35
839.687	70.09
839.857	67.43
840.028	68.5
840.199	65.13
840.37	66.85
840.54	70.89
840.711	69
840.882	68.19
841.053	69.54
841.223	69.25
841.394	73.25
841.564	76.79
841.735	84.41
841.906	83.78
842.076	88.92
842.247	82.32
842.417	80.42
842.588	79.02
842.758	84.6
842.929	86.59
843.099	84.3
843.27	75.85
843.44	73.78
843.611	73.5
843.781	76.5
843.951	69.87
844.122	75.49
844.292	69.39
844.462	71.36
844.633	69.33
844.803	63.03
844.973	62.44
845.144	67.49
845.314	63.39
845.484	62.41
845.654	56.51
845.824	66.64
845.995	64.14
846.165	72.73
846.335	69.58
846.505	74.75
846.675	79.34
846.845	75.25
847.015	86.97
847.185	90.51
847.355	92.95
847.525	93.66
847.695	84.47
847.865	88.03
848.035	84.81
848.205	85.48
848.375	81.29
848.545	80.12
848.715	76.99
848.884	62.9
849.054	64.76
849.224	65.67
849.394	69.74
849.564	72.67
849.733	79.63
849.903	80.81
850.073	82.76
850.243	80.11
850.412	88.74
850.582	93.11
850.752	93.47
850.921	89.73
851.091	100
851.26	105.45
851.43	92.69
851.599	81.52
851.769	80.49
851.939	91.61
852.108	87.48
852.278	78.08
852.447	84.65
852.616	89.11
852.786	79.82
852.955	80.57
853.125	68.36
853.294	68.87
853.463	65.75
853.633	69.86
853.802	71.36
853.971	81.56
854.141	91.94
854.31	81.02
854.479	79.33
854.648	114.96
854.818	104.8
854.987	117.08
855.156	119.75
855.325	126.63
855.494	127.71
855.663	107.37
855.832	119.27
856.001	101.06
856.171	103.66
856.34	110.01
856.509	105.19
856.678	100.34
856.847	90.98
857.016	98.35
857.185	95.05
857.353	89.14
857.522	96.38
857.691	89.95
857.86	101.86
858.029	110.77
858.198	103
858.367	98.08
858.535	83.48
858.704	101.28
858.873	96.63
859.042	98.38
859.21	98.09
859.379	84.07
859.548	73.24
859.717	72.4
859.885	74.54
860.054	64.15
860.222	58.73
860.391	75.11
860.56	75.93
860.728	73.36
860.897	73.86
861.065	73.88
861.234	75.48
861.402	77.99
861.571	72.79
861.739	71.16
861.908	81.07
862.076	95.36
862.244	95.47
862.413	102.43
862.581	115.33
862.749	106.78
862.918	94.04
863.086	99.67
863.254	100.55
863.423	113.24
863.591	98.11
863.759	91.95
863.927	71.58
864.096	63.72
864.264	48.91
864.432	38.03
864.6	51.72
864.768	65.24
864.936	71.23
865.104	73.59
865.272	70.22
865.44	77.34
865.608	83.9
865.776	97.36
865.944	107.38
866.112	113.42
866.28	132.17
866.448	113.97
866.616	129.9
866.784	112.63
866.952	109.5
867.12	119.9
867.288	132.96
867.455	149.99
867.623	155.22
867.791	150.53
867.959	156.93
868.127	156.15
868.294	144.11
868.462	113.8
868.63	139.4
868.797	141.62
868.965	134.07
869.133	100.6
869.3	82.99
869.468	97.95
869.636	82.17
869.803	79.37
869.971	72.95
870.138	72.36
870.306	76.64
870.473	76.09
870.641	67.56
870.808	59.55
870.975	68.84
871.143	64.98
871.31	56.32
871.478	58.63
871.645	55.9
871.812	64.24
871.98	76.15
872.147	69.32
872.314	60.54
872.482	69.22
872.649	78.94
872.816	77.87
872.983	87.68
873.15	92.33
873.318	96.65
873.485	108.28
873.652	98.28
873.819	81.61
873.986	101.36
874.153	110.09
874.32	110.84
874.487	107.34
874.654	113.43
874.821	119.72
874.988	121.64
875.155	128.44
875.322	114.49
875.489	135.93
875.656	164.01
875.823	146.36
875.99	122
876.157	110.39
876.324	108.49
876.49	100.46
876.657	103.41
876.824	95.28
876.991	91.32
877.157	80.68
877.324	80.07
877.491	83.49
877.658	81.88
877.824	86.71
877.991	87.2
878.157	83.24
878.324	88.22
878.491	86.18
878.657	89.05
878.824	86.08
878.99	90.77
879.157	92.28
879.323	83.79
879.49	85.41
879.656	83.62
879.823	84.91
879.989	92
880.156	87.56
880.322	83.51
880.488	80.63
880.655	76.6
880.821	80.36
880.987	75.8
881.154	74.28
881.32	77.84
881.486	77.84
881.652	78.17
881.819	71.06
881.985	69.92
882.151	64.93
882.317	60.93
882.483	62.41
882.649	60.13
882.816	55.62
882.982	55.12
883.148	49.91
883.314	47.78
883.48	47.48
883.646	47.22
883.812	46.27
883.978	47.72
884.144	49.15
884.31	48.89
884.476	47.84
884.642	49.78
884.807	50.24
884.973	50.5
885.139	52.15
885.305	50.99
885.471	52.33
885.637	54.05
885.802	54.22
885.968	54.41
886.134	55.97
886.3	58.65
886.465	59.34
886.631	60.15
886.797	62.61
886.962	61.06
887.128	63.69
887.293	66.43
887.459	63.63
887.625	64.5
887.79	63.93
887.956	61.82
888.121	58.54
888.287	58.72
888.452	58.69
888.618	59.86
888.783	63.87
