Data from CB_029_Reflection_3.txt Node
Date: Wed Nov 11 20:46:34 EST 2015
User: robert
Spectrometer: USB4E03001
Autoset integration time: false
Trigger mode: 4
Integration Time (sec): 1.000000E-1
Scans to average: 15
Electric dark correction enabled: true
Nonlinearity correction enabled: false
Boxcar width: 5
Stray light correction enabled: false
XAxis mode: Wavelengths
Stop averaging: false
Number of Pixels in Spectrum: 3648
>>>>>Begin Spectral Data<<<<<
177.566	-144.48
177.785	-395.25
178.005	916.49
178.225	-243.63
178.445	-148.52
178.665	330.88
178.885	407.85
179.105	4504.35
179.324	419.86
179.544	289.05
179.764	-386.67
179.984	-561.24
180.204	27747.5
180.423	533.35
180.643	-2280.29
180.863	4070.21
181.083	529.98
181.302	1201.26
181.522	1578.91
181.742	-4082.45
181.961	-964.61
182.181	-8012.08
182.401	5303.63
182.621	-710.08
182.84	-471.42
183.06	-298.51
183.279	-555.79
183.499	-315.16
183.719	-306.4
183.938	-223.79
184.158	-176.89
184.377	-107.91
184.597	-84.55
184.816	-102.41
185.036	-152.76
185.256	-169.3
185.475	-121.48
185.695	-80.58
185.914	-43.89
186.134	-730.86
186.353	1632.24
186.572	275.96
186.792	324.2
187.011	855.36
187.231	1075.52
187.45	286.75
187.67	166.83
187.889	219.26
188.108	228.58
188.328	395.4
188.547	706.96
188.766	1034.84
188.986	3994.33
189.205	4958.56
189.424	1620.87
189.644	556.1
189.863	543.31
190.082	2716.7
190.302	388.55
190.521	469.35
190.74	199.55
190.959	162.63
191.178	117.46
191.398	81.16
191.617	145.29
191.836	360.07
192.055	205.92
192.274	354.94
192.494	352.02
192.713	838.75
192.932	1727.23
193.151	-232.89
193.37	-211.45
193.589	-288.28
193.808	-480.07
194.027	-416.62
194.246	-1016.47
194.465	-256.09
194.685	-603.67
194.904	1006.97
195.123	-712.9
195.342	-114.44
195.561	-461.81
195.78	-4086.41
195.999	-138.03
196.218	-89.9
196.436	-548.7
196.655	951.1
196.874	615.83
197.093	1428.8
197.312	-366.71
197.531	1416.34
197.75	754.05
197.969	900.8
198.188	1438.69
198.407	717.39
198.625	745.71
198.844	1090.62
199.063	-3963.64
199.282	-1603.51
199.501	-901.98
199.719	-910.43
199.938	-450.72
200.157	2013.88
200.376	-58.51
200.594	90.98
200.813	-98.96
201.032	190.36
201.251	86.43
201.469	38.87
201.688	56.14
201.907	218.67
202.125	298.88
202.344	1454.34
202.563	526.45
202.781	636.62
203	479.3
203.218	175.99
203.437	426.65
203.656	693.3
203.874	612.81
204.093	1562.85
204.311	975.03
204.53	314.32
204.748	315.13
204.967	547.19
205.185	8663.81
205.404	-259.89
205.622	-117.81
205.841	-91.01
206.059	-100.33
206.278	-74.72
206.496	-122.94
206.715	-320.7
206.933	-148.71
207.151	-367.39
207.37	-350.83
207.588	-496.1
207.806	-260.23
208.025	-350.33
208.243	424.27
208.461	240.99
208.68	242.86
208.898	-2315.69
209.116	-158.32
209.335	-688.82
209.553	-46.67
209.771	-257.26
209.989	486.74
210.208	135.93
210.426	176.55
210.644	263.21
210.862	436.34
211.081	179.3
211.299	157.05
211.517	125.75
211.735	512.97
211.953	272.13
212.171	490.87
212.39	-3282.35
212.608	-419.8
212.826	-221.21
213.044	-222.7
213.262	-282.01
213.48	-238.89
213.698	-239.47
213.916	-412.79
214.134	-600.87
214.352	-442.23
214.57	-210.38
214.788	-456.06
215.006	-846.93
215.224	504.34
215.442	1218.41
215.66	573.65
215.878	468.12
216.096	288.42
216.314	381.39
216.532	639.43
216.75	1086.41
216.968	430.76
217.185	243.26
217.403	223.39
217.621	554.8
217.839	212.35
218.057	361.79
218.275	795.11
218.492	-1338.07
218.71	644.89
218.928	403.74
219.146	422.11
219.363	1805.07
219.581	-831.29
219.799	-189.64
220.017	-357.4
220.234	-254.45
220.452	-311.24
220.67	-612.33
220.887	4269.94
221.105	-614.58
221.323	-76.36
221.54	-85.84
221.758	-486.15
221.976	-227.03
222.193	-195.24
222.411	-116.67
222.629	-130.74
222.846	-190.91
223.064	-135
223.281	-82.16
223.499	-59.55
223.716	-114.31
223.934	-129.87
224.151	-73.62
224.369	-74.52
224.586	-66.29
224.804	-92.12
225.021	-100.82
225.239	-154.7
225.456	-130.53
225.674	-121.82
225.891	-134.98
226.108	-158.72
226.326	-162.39
226.543	-115.07
226.76	-83.36
226.978	-71.35
227.195	-53.46
227.413	-25.67
227.63	-5.86
227.847	-12.57
228.064	-6.82
228.282	-4.02
228.499	-2.8
228.716	0.67
228.934	3.32
229.151	3.83
229.368	3.63
229.585	3.34
229.802	-1.74
230.02	-7.6
230.237	-7.52
230.454	-8.44
230.671	-13.47
230.888	-10.19
231.105	-3.73
231.323	-6.6
231.54	-9.12
231.757	-8.88
231.974	-10.36
232.191	-6.17
232.408	-3.73
232.625	3.54
232.842	5.72
233.059	12.92
233.276	7.89
233.493	-1.02
233.71	0.3
233.927	5.08
234.144	-3.57
234.361	-5.58
234.578	-6.29
234.795	-16.19
235.012	-14.5
235.229	-16.45
235.446	-22.04
235.663	-24.68
235.879	-19.5
236.096	-13.87
236.313	-23.14
236.53	-21.33
236.747	-10.11
236.964	-8.06
237.181	-0.8
237.397	-4.7
237.614	-10.62
237.831	-12.04
238.048	-17.14
238.264	-24.49
238.481	-30.68
238.698	-30.52
238.915	-23.14
239.131	-29.21
239.348	-33.03
239.565	-22.63
239.781	-26.83
239.998	-21.8
240.215	-13.49
240.431	-11.34
240.648	-10.37
240.865	-7.49
241.081	-9.54
241.298	-9.04
241.514	-7.63
241.731	-4.24
241.947	-6.65
242.164	-4.73
242.38	-3.39
242.597	-6.11
242.814	-4.92
243.03	-1.11
243.246	-3.27
243.463	-0.93
243.679	-0.55
243.896	1.65
244.112	2.53
244.329	3.01
244.545	2.47
244.762	-0.11
244.978	1.91
245.194	3.59
245.411	1.25
245.627	1.38
245.843	1.51
246.06	1.33
246.276	-0.31
246.492	-1.41
246.709	0.72
246.925	1.65
247.141	2.15
247.357	2.15
247.574	1.38
247.79	1.28
248.006	1.65
248.222	2.64
248.439	3.05
248.655	2.62
248.871	3.69
249.087	1.46
249.303	3.02
249.519	4.6
249.736	3.54
249.952	6.5
250.168	6.62
250.384	6.07
250.6	3.11
250.816	-0.02
251.032	3.57
251.248	5.17
251.464	8.23
251.68	7.96
251.896	6.21
252.112	6.98
252.328	5.06
252.544	2.71
252.76	3.61
252.976	5.89
253.192	7.15
253.408	3.93
253.624	0.4
253.84	-0.65
254.056	-3.77
254.272	-4.57
254.487	-5.77
254.703	-6.71
254.919	-4.77
255.135	-9.82
255.351	-18.06
255.567	-14.7
255.782	-10.32
255.998	-8.77
256.214	-10.52
256.43	-10.89
256.646	-10.75
256.861	-8.32
257.077	-7.49
257.293	-8.93
257.508	-7.08
257.724	-4.1
257.94	-3.5
258.155	-4.32
258.371	-5.1
258.587	-3.73
258.802	-4.23
259.018	-3.47
259.234	-2.9
259.449	-2.49
259.665	-1.95
259.88	-0.03
260.096	0.39
260.312	0.05
260.527	0.07
260.743	0.7
260.958	-0.02
261.174	1.23
261.389	0.92
261.605	1.84
261.82	1.29
262.036	2.2
262.251	0.12
262.466	0.56
262.682	-0.02
262.897	1.76
263.113	3.26
263.328	4.5
263.543	2.6
263.759	2.63
263.974	-0.8
264.189	-1.27
264.405	-0.8
264.62	-0.52
264.835	-1.15
265.051	-2.43
265.266	-3.87
265.481	-4.71
265.696	-6.8
265.912	-6.98
266.127	-6.61
266.342	-5.88
266.557	-4.09
266.773	-4.54
266.988	-2.96
267.203	-4.7
267.418	-4.22
267.633	-3.85
267.848	-3.89
268.064	-1.15
268.279	0.48
268.494	0
268.709	0.86
268.924	-0.77
269.139	-1.07
269.354	-2.8
269.569	-2.13
269.784	-1.21
269.999	-0.67
270.214	1.26
270.429	-0.99
270.644	-1.76
270.859	-1.73
271.074	-1.25
271.289	0.14
271.504	0.52
271.719	0.81
271.934	0.22
272.149	0.74
272.363	0.36
272.578	-1.19
272.793	-1.41
273.008	-1.19
273.223	-1.58
273.438	-3.68
273.653	-4.03
273.867	-4.18
274.082	-4.93
274.297	-4.98
274.512	-4.89
274.726	-4.64
274.941	-4.4
275.156	-4.16
275.371	-4.61
275.585	-2.53
275.8	-2.65
276.015	-2.71
276.229	-1.7
276.444	-0.3
276.659	0.04
276.873	-0.78
277.088	-0.18
277.302	-1.9
277.517	0.24
277.732	-0.98
277.946	-0.13
278.161	1.78
278.375	1.76
278.59	0.85
278.804	-0.74
279.019	-0.46
279.233	-0.26
279.448	-0.74
279.662	1.3
279.877	0.59
280.091	2.33
280.306	1.3
280.52	0.99
280.735	2.41
280.949	2.96
281.163	4.73
281.378	6.56
281.592	6.27
281.806	4.97
282.021	5.68
282.235	4.74
282.449	3.17
282.664	3.54
282.878	4.35
283.092	1.89
283.307	-0.01
283.521	-1.69
283.735	-3.62
283.949	-5.23
284.164	-5.19
284.378	-5.38
284.592	-5.36
284.806	-5.8
285.02	-5.66
285.234	-6.49
285.449	-6.12
285.663	-4.78
285.877	-3.95
286.091	-3.14
286.305	-2.06
286.519	-1.12
286.733	-0.88
286.947	-0.07
287.161	0.92
287.375	0.68
287.589	0.93
287.803	1.03
288.017	1.19
288.231	1.42
288.445	2.51
288.659	2.77
288.873	1.45
289.087	0.24
289.301	-0.91
289.515	0.34
289.729	-0.04
289.943	-1.01
290.157	0.54
290.371	1.29
290.584	1.32
290.798	-0.32
291.012	-1.61
291.226	-1.08
291.44	-1.85
291.654	-1.58
291.867	-1.92
292.081	-2.49
292.295	-2.01
292.509	-2.13
292.722	-4.16
292.936	-4.13
293.15	-4.18
293.364	-2.99
293.577	-1.25
293.791	0.48
294.005	1
294.218	1.12
294.432	2.57
294.645	3.48
294.859	3.53
295.073	4.43
295.286	4.04
295.5	4.75
295.713	6.02
295.927	5.44
296.14	5.18
296.354	5.19
296.568	5.04
296.781	5.19
296.994	4.84
297.208	5.03
297.421	5.04
297.635	5.49
297.848	5.63
298.062	4.97
298.275	5.57
298.489	6.5
298.702	6.31
298.915	6.17
299.129	4.92
299.342	5.36
299.555	5.32
299.769	5.16
299.982	6.05
300.195	5.78
300.409	7.14
300.622	6.3
300.835	5.3
301.048	6.88
301.262	6.49
301.475	7.14
301.688	7.54
301.901	7.32
302.115	7.26
302.328	6.01
302.541	7.19
302.754	5.52
302.967	5.78
303.18	6.2
303.393	4.82
303.607	4.99
303.82	6.01
304.033	5.77
304.246	5.99
304.459	6.27
304.672	7.58
304.885	6.53
305.098	7.51
305.311	6.41
305.524	5.93
305.737	6.5
305.95	7.84
306.163	6.63
306.376	5.49
306.589	3.41
306.802	3.64
307.015	1.94
307.228	3
307.44	2.37
307.653	2.64
307.866	1.94
308.079	1.95
308.292	-0.13
308.505	0.34
308.718	0.91
308.93	1.68
309.143	1.17
309.356	1.84
309.569	2.19
309.781	1.83
309.994	2.76
310.207	3.15
310.42	3.48
310.632	4.59
310.845	5
311.058	5.71
311.27	6.99
311.483	7.39
311.696	8.13
311.908	6.75
312.121	6.86
312.333	6.77
312.546	7.02
312.759	6.58
312.971	6.52
313.184	6.8
313.396	6.46
313.609	7.75
313.821	8.06
314.034	6.63
314.246	7.8
314.459	8.32
314.671	8.27
314.884	8.79
315.096	9.25
315.309	9.27
315.521	8.69
315.733	7.87
315.946	5.88
316.158	4.44
316.371	6.06
316.583	5.41
316.795	5.18
317.008	7.23
317.22	6.57
317.432	6.49
317.644	5.6
317.857	6.02
318.069	6.69
318.281	6.9
318.494	7.05
318.706	5.8
318.918	4.95
319.13	4.44
319.342	3.34
319.555	4.26
319.767	3.78
319.979	3.4
320.191	1.71
320.403	2.37
320.615	2.03
320.827	2.01
321.039	2.94
321.252	3.82
321.464	4.39
321.676	3.91
321.888	3.71
322.1	5.65
322.312	7.08
322.524	7.78
322.736	7.65
322.948	8.13
323.16	8.73
323.372	9.74
323.584	9.79
323.796	11.7
324.007	11.88
324.219	12.19
324.431	11.69
324.643	11.6
324.855	12.36
325.067	13.68
325.279	13.89
325.491	15.69
325.702	15.97
325.914	16.4
326.126	15
326.338	16.27
326.55	16.92
326.761	17.1
326.973	17.94
327.185	17.77
327.396	16.96
327.608	17.67
327.82	16.13
328.032	14.95
328.243	14.23
328.455	15.74
328.666	15.6
328.878	15.76
329.09	16.5
329.301	16.93
329.513	17.57
329.725	19.04
329.936	20.19
330.148	21.79
330.359	24.11
330.571	26.03
330.782	25.88
330.994	25.24
331.205	24.74
331.417	24.6
331.628	24.53
331.84	25.41
332.051	25.2
332.262	25.11
332.474	25.23
332.685	24.15
332.897	23.7
333.108	24.07
333.319	24.36
333.531	25.71
333.742	25.9
333.953	26.56
334.165	27.29
334.376	27.56
334.587	26.57
334.799	26.73
335.01	26.98
335.221	28.26
335.432	28.77
335.644	29.79
335.855	29.05
336.066	29.07
336.277	29.55
336.488	29.62
336.7	30.51
336.911	31.77
337.122	31.44
337.333	31.25
337.544	30.32
337.755	30.13
337.966	30.08
338.177	30.61
338.388	32.36
338.599	32.04
338.811	32.29
339.022	32.18
339.233	31.86
339.444	32.38
339.655	32.17
339.866	32.54
340.076	32.56
340.287	32.01
340.498	32.6
340.709	31.27
340.92	31.78
341.131	31.54
341.342	30.99
341.553	30.33
341.764	30.71
341.975	31.15
342.185	31.27
342.396	31.43
342.607	32.19
342.818	32.4
343.029	33.57
343.239	32.62
343.45	32.48
343.661	33.4
343.872	33.95
344.082	33.35
344.293	33.75
344.504	33.9
344.714	33.69
344.925	34.23
345.136	33.57
345.346	32.6
345.557	33.8
345.768	33.39
345.978	32.8
346.189	32.82
346.399	33.09
346.61	33.37
346.821	33.06
347.031	33.35
347.242	32.59
347.452	33.34
347.663	33.64
347.873	33.61
348.084	33.45
348.294	33.33
348.504	33.62
348.715	33.33
348.925	33.12
349.136	34.14
349.346	34.08
349.557	33.99
349.767	33.28
349.977	33.5
350.188	32.72
350.398	32.89
350.608	33.4
350.819	32.48
351.029	33.08
351.239	32.96
351.449	32.02
351.66	31.63
351.87	31.71
352.08	31.82
352.29	31.7
352.501	31.75
352.711	31.74
352.921	31.27
353.131	32.36
353.341	31.51
353.552	32.15
353.762	32.49
353.972	32.77
354.182	31.99
354.392	31.15
354.602	31.57
354.812	32.34
355.022	32.72
355.232	32.47
355.442	32.82
355.652	33.47
355.862	33.07
356.072	34.06
356.282	34.14
356.492	34.28
356.702	34.5
356.912	34.04
357.122	33.04
357.332	32.98
357.542	32.91
357.752	33.02
357.962	33.38
358.171	33.24
358.381	32
358.591	31.86
358.801	32.05
359.011	32.15
359.221	31.5
359.43	31.69
359.64	31.96
359.85	32.08
360.06	31.4
360.269	31
360.479	31.5
360.689	31.84
360.899	31.72
361.108	31.53
361.318	31.99
361.528	32.07
361.737	32.51
361.947	32.74
362.156	32.61
362.366	32.15
362.576	31.98
362.785	31.62
362.995	31.69
363.204	31.21
363.414	31.24
363.623	30.78
363.833	30.92
364.042	30.59
364.252	30.17
364.461	30.34
364.671	30.63
364.88	30.47
365.09	30.65
365.299	31.07
365.509	31.61
365.718	31.76
365.927	31.58
366.137	31.97
366.346	31.91
366.555	31.85
366.765	30.96
366.974	31.27
367.183	31.05
367.393	31.33
367.602	30.9
367.811	30.89
368.021	30.75
368.23	31.07
368.439	30.17
368.648	30.15
368.857	29.56
369.067	30.17
369.276	30.1
369.485	30.58
369.694	29.53
369.903	28.84
370.112	28.64
370.321	28.63
370.531	28.44
370.74	28.96
370.949	28.55
371.158	28.95
371.367	29.04
371.576	28.71
371.785	28.32
371.994	28.5
372.203	28.66
372.412	29.16
372.621	29.19
372.83	28.83
373.039	28.3
373.248	28.81
373.457	28.59
373.666	28.31
373.874	28.64
374.083	29.04
374.292	28.93
374.501	29.09
374.71	28.71
374.919	28.81
375.128	28.85
375.336	29.36
375.545	29.13
375.754	29.05
375.963	28.86
376.171	28.86
376.38	28.35
376.589	27.88
376.798	27.2
377.006	27.16
377.215	26.64
377.424	26.6
377.632	26
377.841	25.72
378.05	25.28
378.258	25.18
378.467	24.57
378.675	24.19
378.884	24.51
379.093	24.8
379.301	24.34
379.51	24.65
379.718	24.58
379.927	24.9
380.135	24.37
380.344	24.35
380.552	24.7
380.761	24.66
380.969	24.77
381.177	24.49
381.386	24.36
381.594	24.63
381.803	24.46
382.011	25.21
382.219	24.65
382.428	25.03
382.636	25.29
382.845	24.6
383.053	24.59
383.261	24.72
383.469	24.54
383.678	24.52
383.886	24.09
384.094	23.66
384.302	22.98
384.511	23.45
384.719	23.24
384.927	23.13
385.135	23.09
385.343	22.76
385.552	22.43
385.76	22.31
385.968	22.69
386.176	22.89
386.384	23.27
386.592	22.92
386.8	22.49
387.008	22.46
387.216	22.11
387.424	22.29
387.633	22.35
387.841	22.52
388.049	22.45
388.257	22.17
388.465	22.29
388.672	22.02
388.88	22.19
389.088	22.39
389.296	22.49
389.504	22.55
389.712	22.36
389.92	22.66
390.128	22.83
390.336	22.84
390.544	22.4
390.751	21.8
390.959	21.57
391.167	21.74
391.375	21.18
391.583	21
391.79	21.25
391.998	21.49
392.206	21.26
392.414	21.27
392.621	21.12
392.829	21.62
393.037	21.76
393.244	22.04
393.452	21.78
393.66	22.23
393.867	22.04
394.075	21.91
394.283	21.14
394.49	20.98
394.698	20.81
394.905	20.91
395.113	20.59
395.32	20.62
395.528	20.34
395.735	20.47
395.943	20.29
396.15	20.2
396.358	20.14
396.565	20.69
396.773	20.61
396.98	20.35
397.188	20.48
397.395	20.66
397.602	20.45
397.81	20.36
398.017	20.02
398.225	20.03
398.432	20.34
398.639	20.12
398.847	19.62
399.054	19.81
399.261	19.75
399.468	19.4
399.676	19.17
399.883	19.57
400.09	19.27
400.297	19.58
400.505	19.29
400.712	19.17
400.919	19.18
401.126	19.69
401.333	19.7
401.54	19.43
401.748	19.37
401.955	19.18
402.162	18.91
402.369	19.04
402.576	18.86
402.783	18.93
402.99	18.69
403.197	18.61
403.404	18.38
403.611	18.16
403.818	18.42
404.025	18.54
404.232	18.51
404.439	18.37
404.646	18.32
404.853	18.3
405.06	18.2
405.267	18.38
405.474	18.57
405.681	18.47
405.887	18.43
406.094	18.49
406.301	18.6
406.508	18.59
406.715	18.98
406.922	19.31
407.128	18.99
407.335	19.02
407.542	18.52
407.749	18.48
407.955	18.48
408.162	18.41
408.369	18.24
408.575	18.13
408.782	17.82
408.989	17.45
409.195	17.19
409.402	17.31
409.609	17.38
409.815	17.5
410.022	17.27
410.228	17.39
410.435	17.2
410.642	17.12
410.848	17.06
411.055	17.25
411.261	16.99
411.468	17.16
411.674	17.27
411.881	17.25
412.087	17.3
412.294	17.68
412.5	17.71
412.706	17.92
412.913	17.95
413.119	17.74
413.326	17.72
413.532	17.87
413.738	17.73
413.945	17.65
414.151	17.61
414.357	17.47
414.564	16.93
414.77	16.73
414.976	16.8
415.182	16.83
415.389	17.25
415.595	17.39
415.801	17.25
416.007	17.16
416.214	17.2
416.42	17.14
416.626	17.3
416.832	17.32
417.038	17.34
417.244	17.33
417.45	17.42
417.657	17.26
417.863	17.18
418.069	17.22
418.275	17.16
418.481	16.91
418.687	16.79
418.893	16.79
419.099	16.93
419.305	16.88
419.511	16.8
419.717	16.62
419.923	16.5
420.129	16.45
420.335	16.56
420.541	16.51
420.746	16.67
420.952	16.76
421.158	16.63
421.364	16.48
421.57	16.5
421.776	16.44
421.982	16.54
422.187	16.56
422.393	16.47
422.599	16.35
422.805	16.47
423.01	16.46
423.216	16.49
423.422	16.39
423.628	16.49
423.833	16.63
424.039	16.52
424.245	16.42
424.45	16.47
424.656	16.58
424.862	16.5
425.067	16.32
425.273	16.21
425.478	16.24
425.684	16.42
425.889	16.21
426.095	16.07
426.301	16.03
426.506	16.03
426.712	15.93
426.917	15.81
427.123	16.12
427.328	16.38
427.533	16.38
427.739	16.12
427.944	16.07
428.15	16.28
428.355	16.03
428.561	16.08
428.766	15.79
428.971	15.72
429.177	15.68
429.382	15.22
429.587	14.98
429.793	14.98
429.998	14.92
430.203	14.79
430.408	14.73
430.614	14.81
430.819	14.75
431.024	14.93
431.229	14.92
431.434	15.11
431.64	15.3
431.845	15.24
432.05	15.33
432.255	15.43
432.46	15.65
432.665	15.62
432.87	15.72
433.076	15.79
433.281	15.92
433.486	15.75
433.691	15.66
433.896	15.53
434.101	15.66
434.306	15.47
434.511	15.44
434.716	15.38
434.921	15.3
435.126	15.16
435.331	15.12
435.535	15.05
435.74	15.08
435.945	15
436.15	14.81
436.355	14.74
436.56	14.83
436.765	14.88
436.97	14.95
437.174	15.09
437.379	15.11
437.584	14.94
437.789	14.85
437.993	14.99
438.198	14.92
438.403	15.32
438.608	15.44
438.812	15.45
439.017	15.41
439.222	15.38
439.426	15.43
439.631	15.54
439.836	15.93
440.04	16.13
440.245	16.09
440.45	16.19
440.654	15.94
440.859	15.87
441.063	15.89
441.268	15.94
441.472	15.94
441.677	15.77
441.881	15.73
442.086	15.69
442.29	15.45
442.495	15.65
442.699	15.59
442.904	15.44
443.108	15.42
443.312	15.48
443.517	15.25
443.721	15.2
443.925	15.18
444.13	15.17
444.334	14.86
444.538	14.78
444.743	14.52
444.947	14.58
445.151	14.85
445.356	14.75
445.56	14.61
445.764	14.8
445.968	14.7
446.173	14.82
446.377	14.86
446.581	15
446.785	15.11
446.989	15.08
447.193	14.9
447.398	14.74
447.602	14.81
447.806	14.7
448.01	14.63
448.214	14.78
448.418	14.72
448.622	14.7
448.826	14.81
449.03	14.72
449.234	14.69
449.438	14.88
449.642	15.09
449.846	15.04
450.05	15.28
450.254	15.34
450.458	15.24
450.662	15.27
450.866	15.21
451.069	14.89
451.273	15
451.477	15.06
451.681	15.16
451.885	15.03
452.089	14.99
452.292	15.11
452.496	15.05
452.7	15.11
452.904	14.95
453.107	14.88
453.311	14.95
453.515	15
453.719	15.13
453.922	14.91
454.126	14.82
454.33	14.71
454.533	14.48
454.737	14.48
454.94	14.18
455.144	14.22
455.348	14.18
455.551	14.16
455.755	14.06
455.958	13.83
456.162	13.67
456.365	13.85
456.569	13.94
456.772	14.1
456.976	14.1
457.179	14.25
457.383	14.4
457.586	14.41
457.79	14.41
457.993	14.15
458.196	14.36
458.4	14.64
458.603	14.62
458.807	14.79
459.01	14.71
459.213	14.54
459.417	14.61
459.62	14.5
459.823	14.41
460.026	14.42
460.23	14.63
460.433	14.54
460.636	14.52
460.839	14.53
461.042	14.52
461.246	14.54
461.449	14.61
461.652	14.6
461.855	14.71
462.058	14.87
462.261	14.97
462.464	15.04
462.668	15.04
462.871	14.93
463.074	14.93
463.277	14.95
463.48	14.94
463.683	15.04
463.886	14.96
464.089	14.85
464.292	14.86
464.495	14.97
464.698	14.78
464.901	14.84
465.104	14.95
465.306	14.74
465.509	14.65
465.712	14.73
465.915	14.62
466.118	14.66
466.321	14.73
466.524	15.04
466.726	15.01
466.929	15.01
467.132	14.82
467.335	14.82
467.538	15.06
467.74	15.02
467.943	15.01
468.146	15.17
468.348	15.44
468.551	15.6
468.754	15.39
468.956	15.28
469.159	15.37
469.362	15.53
469.564	15.56
469.767	15.42
469.969	15.41
470.172	15.3
470.375	15.25
470.577	14.87
470.78	14.85
470.982	14.83
471.185	14.83
471.387	15.07
471.59	15.25
471.792	15.32
471.995	15.31
472.197	15.41
472.399	15.56
472.602	15.58
472.804	15.8
473.007	15.66
473.209	15.58
473.411	15.69
473.614	15.36
473.816	15.36
474.018	15.29
474.22	15.51
474.423	15.46
474.625	15.4
474.827	15.46
475.03	15.36
475.232	15.31
475.434	15.35
475.636	15.2
475.838	15.41
476.04	15.4
476.243	15.58
476.445	15.63
476.647	15.67
476.849	15.77
477.051	15.48
477.253	15.52
477.455	15.75
477.657	15.75
477.859	15.91
478.061	15.73
478.263	15.6
478.465	15.33
478.667	15.32
478.869	15.27
479.071	15.03
479.273	15.2
479.475	14.98
479.677	14.8
479.879	14.65
480.081	14.63
480.283	14.77
480.485	14.9
480.686	15.02
480.888	14.79
481.09	14.9
481.292	14.99
481.494	15
481.695	15.18
481.897	15.23
482.099	15.2
482.301	15.14
482.502	15.17
482.704	15.13
482.906	15.12
483.107	15.19
483.309	15.09
483.511	15.13
483.712	15.14
483.914	15.12
484.115	15.11
484.317	15.18
484.519	15.17
484.72	15.16
484.922	15.21
485.123	15.15
485.325	15.1
485.526	15.18
485.728	15.16
485.929	15.15
486.131	15.13
486.332	15.12
486.534	15.13
486.735	15.14
486.936	15.11
487.138	15.14
487.339	15.2
487.541	15.24
487.742	15.22
487.943	15.22
488.144	15.21
488.346	15.24
488.547	15.11
488.748	15.08
488.95	15.11
489.151	15.1
489.352	14.98
489.553	14.98
489.755	14.98
489.956	14.9
490.157	14.81
490.358	14.8
490.559	14.77
490.76	14.98
490.961	15.09
491.163	14.95
491.364	14.99
491.565	15.02
491.766	15.04
491.967	15.11
492.168	15.12
492.369	15.26
492.57	15.26
492.771	15.23
492.972	15.18
493.173	15.11
493.374	15.31
493.575	15.27
493.776	15.27
493.976	15.27
494.177	15.1
494.378	15.1
494.579	14.87
494.78	15.01
494.981	15.27
495.182	15.4
495.382	15.41
495.583	15.27
495.784	15.21
495.985	15.23
496.185	15.22
496.386	15.29
496.587	15.4
496.788	15.52
496.988	15.37
497.189	15.32
497.39	15.31
497.59	15.42
497.791	15.44
497.992	15.6
498.192	15.59
498.393	15.76
498.593	15.98
498.794	16.05
498.994	16.14
499.195	16.4
499.395	16.34
499.596	16.33
499.796	16.24
499.997	16.12
500.197	16.09
500.398	16.27
500.598	16.18
500.799	16.06
500.999	15.93
501.199	15.86
501.4	15.81
501.6	15.97
501.801	16.06
502.001	16.26
502.201	16.57
502.402	16.84
502.602	16.77
502.802	16.97
503.002	17.07
503.203	17.17
503.403	17.33
503.603	17.35
503.803	17.43
504.003	17.52
504.204	17.39
504.404	17.49
504.604	17.24
504.804	17.41
505.004	17.34
505.204	17.49
505.404	17.64
505.604	17.58
505.804	17.55
506.005	17.51
506.205	17.64
506.405	17.79
506.605	17.73
506.805	17.9
507.005	18.02
507.204	18.2
507.404	18.13
507.604	18.25
507.804	18.43
508.004	18.51
508.204	18.7
508.404	18.67
508.604	18.53
508.804	18.69
509.003	18.9
509.203	18.87
509.403	18.97
509.603	19.1
509.803	19.07
510.002	19.05
510.202	19.33
510.402	19.32
510.602	19.59
510.801	19.87
511.001	20.01
511.201	19.89
511.4	20.03
511.6	20.11
511.8	20.21
511.999	20.29
512.199	20.45
512.398	20.42
512.598	20.72
512.797	20.62
512.997	20.75
513.197	20.78
513.396	21.08
513.596	21.07
513.795	20.96
513.994	21.16
514.194	21.3
514.393	21.64
514.593	21.9
514.792	21.62
514.992	21.67
515.191	21.84
515.39	21.9
515.59	22
515.789	22.22
515.988	22.39
516.188	22.39
516.387	22.66
516.586	22.61
516.786	22.53
516.985	22.88
517.184	23.06
517.383	23.1
517.582	23.22
517.782	23.31
517.981	23.47
518.18	23.77
518.379	23.73
518.578	23.78
518.777	23.85
518.976	23.91
519.176	23.94
519.375	24.06
519.574	24.11
519.773	24.21
519.972	24.37
520.171	24.38
520.37	24.31
520.569	24.54
520.768	24.52
520.967	24.65
521.166	24.82
521.365	24.91
521.564	24.99
521.762	25.17
521.961	25.3
522.16	25.26
522.359	25.37
522.558	25.58
522.757	25.55
522.956	25.78
523.154	25.82
523.353	25.93
523.552	26.03
523.751	26.09
523.949	26.21
524.148	26.35
524.347	26.39
524.546	26.51
524.744	26.54
524.943	26.83
525.142	26.93
525.34	27.04
525.539	27.25
525.737	27.35
525.936	27.5
526.135	27.59
526.333	27.6
526.532	27.76
526.73	27.87
526.929	28.01
527.127	28.1
527.326	28.25
527.524	28.35
527.723	28.39
527.921	28.56
528.12	28.56
528.318	28.63
528.516	28.71
528.715	28.79
528.913	28.85
529.112	28.86
529.31	28.89
529.508	28.86
529.707	28.86
529.905	28.9
530.103	28.83
530.301	28.9
530.5	28.91
530.698	29.01
530.896	28.96
531.094	29.04
531.293	29.11
531.491	29.14
531.689	29.3
531.887	29.49
532.085	29.53
532.283	29.8
532.481	29.91
532.68	29.96
532.878	30
533.076	30.17
533.274	30.16
533.472	30.26
533.67	30.28
533.868	30.24
534.066	30.24
534.264	30.37
534.462	30.3
534.66	30.34
534.858	30.3
535.056	30.43
535.253	30.51
535.451	30.62
535.649	30.65
535.847	30.79
536.045	30.96
536.243	30.96
536.441	30.91
536.638	31.02
536.836	31.02
537.034	31.36
537.232	31.33
537.43	31.37
537.627	31.27
537.825	31.28
538.023	31.29
538.22	31.37
538.418	31.52
538.616	31.52
538.813	31.51
539.011	31.67
539.209	31.63
539.406	31.67
539.604	31.76
539.801	31.96
539.999	32.01
540.196	32.09
540.394	32.19
540.591	32.21
540.789	32.25
540.986	32.36
541.184	32.35
541.381	32.4
541.579	32.53
541.776	32.56
541.974	32.57
542.171	32.57
542.368	32.6
542.566	32.59
542.763	32.63
542.96	32.68
543.158	32.75
543.355	32.9
543.552	32.98
543.75	33.05
543.947	33.03
544.144	33.11
544.341	33.24
544.539	33.36
544.736	33.43
544.933	33.58
545.13	33.84
545.327	33.74
545.524	33.76
545.722	33.74
545.919	33.69
546.116	33.86
546.313	33.99
546.51	34.06
546.707	34.09
546.904	34.01
547.101	34.03
547.298	33.92
547.495	34.05
547.692	33.92
547.889	33.8
548.086	33.77
548.283	33.66
548.48	33.54
548.677	33.5
548.874	33.38
549.07	33.44
549.267	33.42
549.464	33.45
549.661	33.47
549.858	33.56
550.055	33.52
550.251	33.45
550.448	33.5
550.645	33.56
550.842	33.73
551.038	33.81
551.235	33.92
551.432	33.99
551.628	33.95
551.825	33.92
552.022	34.18
552.218	34.33
552.415	34.5
552.612	34.61
552.808	34.54
553.005	34.67
553.201	34.71
553.398	34.59
553.594	34.51
553.791	34.52
553.987	34.55
554.184	34.55
554.38	34.42
554.577	34.52
554.773	34.31
554.97	34.59
555.166	34.41
555.362	34.61
555.559	34.77
555.755	34.9
555.952	35.08
556.148	35.05
556.344	34.96
556.541	35.29
556.737	35.34
556.933	35.62
557.129	35.56
557.326	35.64
557.522	35.39
557.718	35.45
557.914	35.44
558.11	35.37
558.307	35.54
558.503	35.51
558.699	35.51
558.895	35.39
559.091	35.28
559.287	35.24
559.483	35.38
559.679	35.59
559.876	35.8
560.072	35.87
560.268	35.93
560.464	36.22
560.66	36.19
560.856	36.38
561.052	36.24
561.247	36.41
561.443	36.67
561.639	36.65
561.835	36.62
562.031	36.43
562.227	36.46
562.423	36.62
562.619	36.4
562.815	36.64
563.01	36.5
563.206	36.82
563.402	37.02
563.598	36.9
563.793	36.83
563.989	37.11
564.185	37.32
564.381	37.57
564.576	37.58
564.772	37.7
564.968	37.71
565.163	37.87
565.359	37.95
565.555	37.86
565.75	38.06
565.946	38.22
566.141	38.29
566.337	38.37
566.532	38.33
566.728	38.26
566.923	38.37
567.119	38.43
567.314	38.24
567.51	38.18
567.705	38.18
567.901	38.19
568.096	38.15
568.292	38.04
568.487	37.88
568.682	37.82
568.878	38
569.073	37.89
569.268	37.84
569.464	38.18
569.659	38.27
569.854	38.65
570.05	38.63
570.245	38.87
570.44	39.06
570.635	39.28
570.831	39.37
571.026	39.57
571.221	39.73
571.416	39.83
571.611	39.85
571.806	39.8
572.002	39.48
572.197	39.58
572.392	39.52
572.587	39.42
572.782	39.29
572.977	39.17
573.172	39.07
573.367	38.95
573.562	38.93
573.757	38.84
573.952	38.88
574.147	38.97
574.342	39.01
574.537	39.03
574.732	39.27
574.927	39.38
575.121	39.55
575.316	39.63
575.511	39.88
575.706	39.88
575.901	39.84
576.096	39.62
576.29	39.61
576.485	39.53
576.68	39.35
576.875	39.07
577.069	39.23
577.264	39.33
577.459	39.22
577.654	39.12
577.848	39.11
578.043	39.36
578.238	39.58
578.432	39.45
578.627	39.25
578.821	39.44
579.016	39.68
579.21	39.45
579.405	39.41
579.6	39.21
579.794	39.19
579.989	39.32
580.183	39.19
580.378	39.43
580.572	39.52
580.766	39.89
580.961	39.75
581.155	39.41
581.35	39.49
581.544	39.41
581.738	39.79
581.933	40.02
582.127	39.74
582.321	39.87
582.516	39.94
582.71	40.3
582.904	40.1
583.099	40.45
583.293	40.9
583.487	40.87
583.681	40.75
583.875	40.82
584.07	40.57
584.264	40.59
584.458	40.61
584.652	40.26
584.846	40.26
585.04	40.5
585.234	40.3
585.428	40.15
585.623	40.28
585.817	40.84
586.011	40.64
586.205	40.85
586.399	41.24
586.593	41.22
586.787	41.63
586.981	41.35
587.174	41.27
587.368	41.38
587.562	41.46
587.756	41.33
587.95	41.22
588.144	41.3
588.338	40.9
588.532	40.85
588.725	40.75
588.919	40.75
589.113	40.91
589.307	41.08
589.501	41.02
589.694	40.8
589.888	40.93
590.082	40.54
590.275	40.8
590.469	41.35
590.663	41.65
590.856	42.13
591.05	42.19
591.244	42.18
591.437	41.91
591.631	42.28
591.824	42.55
592.018	42.67
592.212	42.97
592.405	42.81
592.599	42.79
592.792	42.62
592.986	42.27
593.179	42.21
593.372	42.26
593.566	42.39
593.759	42.31
593.953	42.3
594.146	42.13
594.339	42.01
594.533	41.89
594.726	41.89
594.92	41.8
595.113	41.78
595.306	41.66
595.499	41.6
595.693	41.58
595.886	41.37
596.079	41.4
596.272	41.63
596.466	41.65
596.659	41.78
596.852	41.63
597.045	41.66
597.238	41.87
597.431	42.04
597.624	42.19
597.818	42.43
598.011	42.61
598.204	42.52
598.397	42.31
598.59	42.27
598.783	42.39
598.976	42.51
599.169	42.76
599.362	42.81
599.555	42.93
599.748	43.08
599.941	42.96
600.134	42.88
600.326	42.99
600.519	43.13
600.712	43.23
600.905	43.06
601.098	42.95
601.291	42.76
601.483	42.64
601.676	42.51
601.869	42.44
602.062	42.49
602.255	42.44
602.447	42.49
602.64	42.56
602.833	42.66
603.025	42.57
603.218	42.63
603.411	42.6
603.603	42.73
603.796	42.75
603.989	42.81
604.181	42.78
604.374	42.99
604.566	43.03
604.759	43.06
604.951	43.05
605.144	43.06
605.336	42.96
605.529	43.1
605.721	43.13
605.914	43.16
606.106	43.09
606.299	43.14
606.491	43.02
606.683	43.11
606.876	43.32
607.068	43.48
607.26	43.76
607.453	44.02
607.645	44.09
607.837	44.04
608.03	43.82
608.222	43.93
608.414	43.74
608.606	43.75
608.799	44
608.991	43.91
609.183	44.06
609.375	44.13
609.567	44.21
609.759	44.31
609.952	44.59
610.144	45.38
610.336	45.66
610.528	46.25
610.72	46.8
610.912	46.93
611.104	47.47
611.296	47.65
611.488	47.81
611.68	48.3
611.872	48.54
612.064	48.52
612.256	48.26
612.448	48.29
612.64	48.01
612.832	47.53
613.023	47.5
613.215	46.87
613.407	46.56
613.599	46.54
613.791	46.01
613.983	45.53
614.174	45.35
614.366	45.11
614.558	44.94
614.75	45.04
614.941	45.2
615.133	44.84
615.325	44.88
615.516	45.07
615.708	44.95
615.9	44.86
616.091	44.79
616.283	44.83
616.475	44.82
616.666	44.71
616.858	44.33
617.049	44.23
617.241	44.47
617.432	44.22
617.624	43.87
617.815	43.76
618.007	43.77
618.198	43.87
618.39	43.68
618.581	43.67
618.773	43.68
618.964	44.1
619.155	44.02
619.347	43.84
619.538	43.76
619.729	43.87
619.921	43.99
620.112	43.99
620.303	43.72
620.494	43.79
620.686	43.73
620.877	43.76
621.068	43.72
621.259	44.01
621.451	43.81
621.642	44.16
621.833	43.7
622.024	43.46
622.215	43.55
622.406	43.78
622.597	43.62
622.788	43.53
622.98	43.46
623.171	43.26
623.362	42.92
623.553	43.12
623.744	43.1
623.935	43.85
624.126	43.94
624.317	43.62
624.508	43.5
624.698	43.8
624.889	43.69
625.08	43.63
625.271	43.73
625.462	43.97
625.653	43.88
625.844	43.77
626.034	43.61
626.225	43.85
626.416	44.02
626.607	44.19
626.798	44.18
626.988	44.28
627.179	44.29
627.37	44.32
627.56	44.06
627.751	44.24
627.942	44.16
628.132	44.29
628.323	44.13
628.514	44.33
628.704	44.49
628.895	44.3
629.085	44.2
629.276	44.11
629.466	44.02
629.657	43.96
629.847	44.04
630.038	44.18
630.228	44.31
630.419	44.6
630.609	44.56
630.8	44.57
630.99	44.65
631.181	44.88
631.371	44.92
631.561	44.83
631.752	45.4
631.942	44.96
632.132	45.13
632.323	44.57
632.513	44.21
632.703	44.02
632.893	43.73
633.084	43.61
633.274	43.27
633.464	43.35
633.654	43.45
633.844	42.96
634.034	43.05
634.225	43.16
634.415	43.4
634.605	43.24
634.795	43.28
634.985	43.29
635.175	43.34
635.365	43.49
635.555	43.28
635.745	43.02
635.935	42.88
636.125	42.84
636.315	42.24
636.505	42.16
636.695	42.18
636.885	42.14
637.075	42.11
637.265	42.48
637.455	42.49
637.644	42.4
637.834	42.68
638.024	43.2
638.214	43.26
638.404	43.62
638.593	43.53
638.783	43.68
638.973	43.71
639.163	43.85
639.352	43.72
639.542	43.85
639.732	44.21
639.921	44.16
640.111	43.72
640.301	43.96
640.49	43.89
640.68	43.65
640.87	43.72
641.059	43.6
641.249	43.7
641.438	43.36
641.628	43.57
641.817	43.68
642.007	43.87
642.196	43.57
642.386	43.64
642.575	43.86
642.764	44.45
642.954	44.3
643.143	44.29
643.333	44
643.522	44.14
643.711	44.01
643.901	43.45
644.09	42.85
644.279	42.97
644.469	43.08
644.658	43.1
644.847	43.01
645.036	43.19
645.226	43.41
645.415	43.65
645.604	43.47
645.793	43.31
645.982	43.19
646.171	43.39
646.361	44
646.55	43.72
646.739	43.45
646.928	43.3
647.117	43.37
647.306	43.49
647.495	43.62
647.684	43.64
647.873	43.73
648.062	43.9
648.251	44.21
648.44	44.07
648.629	43.8
648.818	44.01
649.007	44.07
649.196	43.71
649.384	43.6
649.573	43.37
649.762	43.39
649.951	43.14
650.14	43.41
650.328	43.67
650.517	43.31
650.706	43.36
650.895	43.49
651.083	43.82
651.272	44.37
651.461	43.88
651.65	43.73
651.838	43.89
652.027	44.44
652.216	44.71
652.404	44.42
652.593	44.77
652.781	45.07
652.97	44.71
653.158	44.29
653.347	43.92
653.535	43.86
653.724	44.2
653.912	44.12
654.101	44.07
654.289	43.92
654.478	43.93
654.666	43.46
654.855	43.34
655.043	43.15
655.231	43.09
655.42	42.95
655.608	43.26
655.796	42.85
655.985	42.72
656.173	42.62
656.361	42.29
656.55	42.13
656.738	42.26
656.926	42.45
657.114	42.76
657.302	42.86
657.491	43.09
657.679	43.42
657.867	43.63
658.055	43.65
658.243	43.24
658.431	43.23
658.619	42.94
658.807	43.06
658.996	43.23
659.184	43.04
659.372	43.02
659.56	43.12
659.748	43.29
659.936	43.3
660.124	43.45
660.311	43.88
660.499	43.61
660.687	43.63
660.875	43.55
661.063	43.36
661.251	43.59
661.439	43.38
661.627	43.32
661.814	43.03
662.002	43.25
662.19	43.37
662.378	43.07
662.565	44
662.753	44.31
662.941	44.56
663.129	44.16
663.316	44.07
663.504	44.06
663.692	44.12
663.879	43.85
664.067	43.51
664.254	42.96
664.442	42.72
664.63	42.35
664.817	42.44
665.005	42.36
665.192	42.67
665.38	42.33
665.567	42.95
665.755	42.79
665.942	42.67
666.13	42.78
666.317	42.85
666.504	42.96
666.692	42.86
666.879	42.84
667.067	43.17
667.254	43.11
667.441	43.77
667.629	42.9
667.816	42.96
668.003	43.29
668.19	43.27
668.378	43.31
668.565	43.66
668.752	43.7
668.939	43.79
669.127	43.61
669.314	43.34
669.501	43.32
669.688	43.85
669.875	44.18
670.062	44.16
670.249	43.88
670.436	44.11
670.623	44.13
670.81	44.12
670.997	44.07
671.184	43.84
671.371	44.16
671.558	43.72
671.745	44.04
671.932	43.93
672.119	43.71
672.306	44.18
672.493	43.98
672.68	43.35
672.867	43.88
673.054	43.62
673.24	44.11
673.427	44.03
673.614	44.32
673.801	44.65
673.988	44.98
674.174	45.03
674.361	44.7
674.548	45
674.734	45.68
674.921	45.75
675.108	45.84
675.294	45.41
675.481	45.6
675.668	45.26
675.854	44.92
676.041	44.75
676.227	44.75
676.414	45.01
676.601	44.85
676.787	44.3
676.974	43.63
677.16	43.78
677.347	43.47
677.533	43
677.719	43.51
677.906	43.14
678.092	42.81
678.279	42.75
678.465	42.61
678.651	42.97
678.838	42.88
679.024	42.76
679.21	42.57
679.397	42.74
679.583	42.7
679.769	42.31
679.955	42.39
680.142	42.65
680.328	42.93
680.514	42.97
680.7	42.78
680.886	42.89
681.073	43.21
681.259	43.55
681.445	43.76
681.631	44.31
681.817	44.63
682.003	44.77
682.189	44.29
682.375	44.08
682.561	44.39
682.747	44.31
682.933	44.29
683.119	44.21
683.305	44.33
683.491	44.13
683.677	43.64
683.863	43.23
684.049	43.05
684.235	43.33
684.42	43.91
684.606	43.84
684.792	44.07
684.978	44.79
685.164	45.42
685.349	44.9
685.535	45.18
685.721	45.11
685.907	45.6
686.092	46.07
686.278	46.06
686.464	45.65
686.649	45.29
686.835	45.08
687.021	44.59
687.206	43.88
687.392	44.29
687.577	43.96
687.763	44.27
687.948	44.05
688.134	43.83
688.319	43.78
688.505	43.75
688.69	43.48
688.876	43.25
689.061	43.12
689.247	43.36
689.432	43.69
689.618	43.94
689.803	43.95
689.988	44.17
690.174	43.96
690.359	43.73
690.544	43.3
690.73	43.9
690.915	43.97
691.1	44.05
691.285	43.41
691.471	42.62
691.656	42.29
691.841	42.44
692.026	42.01
692.211	41.66
692.396	42.11
692.582	42.85
692.767	42.61
692.952	42.87
693.137	42.94
693.322	43.21
693.507	43.75
693.692	44.21
693.877	44.14
694.062	44.11
694.247	44.31
694.432	44
694.617	43.19
694.802	43.75
694.987	42.95
695.172	43.19
695.357	43.03
695.541	42.3
695.726	41.8
695.911	41.68
696.096	42.3
696.281	42.33
696.466	42.5
696.65	42.92
696.835	42.53
697.02	43.49
697.204	43.48
697.389	44.02
697.574	44.46
697.759	44.45
697.943	44.32
698.128	44.22
698.312	44.51
698.497	44.27
698.682	44.44
698.866	44.26
699.051	43.95
699.235	43.94
699.42	43.58
699.604	43.53
699.789	43.66
699.973	43.75
700.158	43.57
700.342	43.15
700.527	43.68
700.711	43.8
700.895	43.92
701.08	44.4
701.264	44.46
701.448	44.41
701.633	44.85
701.817	45.38
702.001	45.46
702.186	45.24
702.37	45.7
702.554	45.64
702.738	44.93
702.923	45.34
703.107	44.55
703.291	44.42
703.475	44.86
703.659	44.4
703.843	44.03
704.027	44.01
704.212	44.39
704.396	44.22
704.58	43.93
704.764	44.52
704.948	43.93
705.132	43.63
705.316	43.59
705.5	43.71
705.684	43.74
705.868	44.21
706.052	44.56
706.235	44.26
706.419	44.36
706.603	44.18
706.787	43.39
706.971	43.51
707.155	43.96
707.339	43.85
707.522	43.93
707.706	43.86
707.89	43.38
708.074	43.33
708.257	42.78
708.441	42.33
708.625	41.15
708.808	42.57
708.992	41.97
709.176	42.4
709.359	41.56
709.543	41.18
709.727	41.14
709.91	41.18
710.094	41.03
710.277	42.07
710.461	42.38
710.644	43.84
710.828	42.92
711.011	43.62
711.195	43.73
711.378	44.28
711.562	44.6
711.745	44.65
711.928	44.84
712.112	44.22
712.295	43.43
712.478	43.32
712.662	42.36
712.845	42.56
713.028	42.41
713.212	41.62
713.395	41.58
713.578	41.52
713.761	41.33
713.945	40.53
714.128	40.45
714.311	41.16
714.494	41.48
714.677	42.31
714.86	42.36
715.043	42.5
715.227	42.61
715.41	42.81
715.593	42.86
715.776	43.01
715.959	43.16
716.142	43.49
716.325	43.4
716.508	43.34
716.691	43.03
716.874	42.68
717.057	42.62
717.239	43.57
717.422	42.98
717.605	42.38
717.788	42.16
717.971	42.7
718.154	42.78
718.337	42.81
718.519	42.36
718.702	41.96
718.885	41.37
719.068	41.69
719.25	40.93
719.433	40.95
719.616	41.46
719.798	41.67
719.981	41.4
720.164	41.3
720.346	40.78
720.529	40.75
720.712	40.36
720.894	41.51
721.077	41.39
721.259	41.07
721.442	42.07
721.624	41.94
721.807	42.35
721.989	43.1
722.172	43.73
722.354	42.63
722.537	43.2
722.719	44.44
722.901	44.78
723.084	45.23
723.266	45.35
723.448	44.99
723.631	45.4
723.813	45.67
723.995	44.76
724.178	44.81
724.36	46.87
724.542	47.15
724.724	47.37
724.907	47.12
725.089	46.05
725.271	46.71
725.453	46.4
725.635	45.95
725.817	44.91
725.999	45.99
726.181	46
726.364	45.87
726.546	45.28
726.728	44.66
726.91	43.74
727.092	44.48
727.274	43.4
727.456	43.82
727.638	43.94
727.819	44.46
728.001	43.71
728.183	42.65
728.365	42.87
728.547	42.8
728.729	42.54
728.911	43.13
729.093	42.86
729.274	42.93
729.456	43.24
729.638	42.57
729.82	42.81
730.001	43
730.183	43.56
730.365	42.38
730.546	42.68
730.728	42.88
730.91	43.14
731.091	43.18
731.273	44.37
731.455	43.87
731.636	44.37
731.818	44.11
731.999	43.85
732.181	43.68
732.362	44.19
732.544	44.2
732.725	44.38
732.907	44.07
733.088	43.44
733.27	43.06
733.451	43.49
733.633	42.75
733.814	42.72
733.995	43.42
734.177	42.94
734.358	42.76
734.539	43.09
734.721	43.27
734.902	43.57
735.083	44.12
735.264	43.61
735.446	44.08
735.627	44.52
735.808	45.14
735.989	44.09
736.17	44.22
736.351	43.83
736.533	43.38
736.714	44.26
736.895	44.85
737.076	44.02
737.257	44.17
737.438	42.9
737.619	42.66
737.8	41.68
737.981	40.78
738.162	41.39
738.343	41.5
738.524	41.48
738.705	40.41
738.886	39.56
739.067	39.89
739.247	40.06
739.428	39.98
739.609	40.9
739.79	41.26
739.971	42.91
740.151	42.85
740.332	42.87
740.513	43.97
740.694	43.43
740.874	43.19
741.055	43.28
741.236	43.72
741.417	44.3
741.597	44.11
741.778	43.62
741.958	43.71
742.139	43.04
742.32	43.22
742.5	42.97
742.681	43.13
742.861	43.39
743.042	42.93
743.222	40.38
743.403	40.08
743.583	40.05
743.764	39.24
743.944	38.33
744.124	38.9
744.305	39.6
744.485	37.96
744.666	38.55
744.846	38.01
745.026	38.87
745.207	40.2
745.387	41.67
745.567	41.57
745.747	43.61
745.928	44.18
746.108	44.66
746.288	44.35
746.468	44.9
746.648	45.39
746.829	45.61
747.009	45.79
747.189	45.59
747.369	44.32
747.549	43.89
747.729	42.88
747.909	42.66
748.089	42.19
748.269	41.58
748.449	41.47
748.629	40.54
748.809	40.92
748.989	40.53
749.169	40.63
749.349	41.1
749.529	40.83
749.709	40.37
749.889	40.57
750.068	40.57
750.248	40.71
750.428	40.61
750.608	40.06
750.788	39.48
750.967	38.24
751.147	39.13
751.327	37
751.507	37.55
751.686	37.97
751.866	36.93
752.046	36.48
752.225	37.04
752.405	37.87
752.585	37.82
752.764	37.38
752.944	38.84
753.123	37.72
753.303	40.04
753.482	39.71
753.662	39.98
753.841	40.4
754.021	40.05
754.2	40.38
754.38	39.21
754.559	39.25
754.739	39.09
754.918	37.62
755.097	38.77
755.277	37.84
755.456	37.44
755.635	37.48
755.815	38.32
755.994	38.03
756.173	37.26
756.352	37.56
756.532	38.14
756.711	38.35
756.89	39.88
757.069	41.12
757.248	41.66
757.427	42.15
757.607	41.83
757.786	41.11
757.965	43.66
758.144	43.34
758.323	43.55
758.502	43.11
758.681	43.93
758.86	43.83
759.039	42.14
759.218	41.83
759.397	41.89
759.576	42.44
759.755	43.2
759.934	41.78
760.113	42.06
760.291	42.88
760.47	44.33
760.649	43.38
760.828	43.11
761.007	43.41
761.186	43.73
761.364	43.04
761.543	42.61
761.722	41.47
761.901	40.97
762.079	41.58
762.258	41.4
762.437	40.67
762.615	41.41
762.794	42.08
762.972	41.98
763.151	41.71
763.33	42.23
763.508	42.36
763.687	43.16
763.865	43.56
764.044	43.63
764.222	43.38
764.401	43.23
764.579	43.61
764.758	42.81
764.936	42.46
765.114	42.27
765.293	42.85
765.471	42.73
765.65	42.27
765.828	42.25
766.006	41.93
766.184	41.94
766.363	42.37
766.541	41.98
766.719	41.99
766.898	41.99
767.076	41.95
767.254	41.33
767.432	42
767.61	43.07
767.788	41.78
767.967	40.86
768.145	42.1
768.323	40.9
768.501	40.39
768.679	39.84
768.857	39.97
769.035	39.08
769.213	39.28
769.391	38.6
769.569	37.85
769.747	39.75
769.925	39.42
770.103	37.74
770.281	37.94
770.459	37.97
770.636	39.03
770.814	40.36
770.992	41.62
771.17	41.71
771.348	41.6
771.525	41.26
771.703	40.96
771.881	43.62
772.059	44.28
772.236	46.8
772.414	47.62
772.592	47.82
772.769	47.63
772.947	48.21
773.125	48.45
773.302	47.22
773.48	47.25
773.657	46.79
773.835	44.87
774.013	43.14
774.19	41.83
774.368	41.96
774.545	41.53
774.723	40.71
774.9	40.18
775.077	39.87
775.255	41.65
775.432	40.43
775.61	40.02
775.787	40.58
775.964	41.6
776.142	40.99
776.319	40.77
776.496	39.5
776.674	40.78
776.851	39.17
777.028	39.72
777.205	39.36
777.382	42.06
777.56	43.84
777.737	42.37
777.914	43.94
778.091	44.95
778.268	43.87
778.445	44.78
778.622	43.79
778.8	44.57
778.977	43.22
779.154	12.34
779.331	8.87
779.508	6.97
779.685	8.84
779.862	6.8
780.038	8.31
780.215	9.77
780.392	10.87
780.569	11.04
780.746	11.19
780.923	12.31
781.1	42.99
781.277	44.79
781.453	45.9
781.63	44.95
781.807	46.26
781.984	42.8
782.16	42.76
782.337	42.23
782.514	41.09
782.691	40.85
782.867	40.02
783.044	38.76
783.221	37.2
783.397	35.52
783.574	35.38
783.75	33.06
783.927	34.38
784.103	31.02
784.28	29.39
784.456	31.86
784.633	30.72
784.809	29.76
784.986	31.51
785.162	34.66
785.339	35.91
785.515	38.91
785.692	40.21
785.868	40.41
786.044	42.48
786.221	44.77
786.397	43.71
786.573	43.08
786.749	45.22
786.926	44.16
787.102	42.01
787.278	43.18
787.454	42.11
787.631	41.83
787.807	41.74
787.983	42.6
788.159	40.8
788.335	40.08
788.511	43.31
788.687	40.84
788.863	40.83
789.039	40.71
789.216	40.94
789.392	41.57
789.568	41.53
789.744	41.4
789.919	43.34
790.095	47.12
790.271	46.94
790.447	45.76
790.623	48.49
790.799	46.97
790.975	46.46
791.151	45.88
791.327	45.31
791.502	44.9
791.678	45.94
791.854	42.73
792.03	38.77
792.205	36.45
792.381	36.84
792.557	34.52
792.733	37.05
792.908	37.51
793.084	37.84
793.259	36.45
793.435	37.92
793.611	39.13
793.786	39.85
793.962	40.56
794.137	41.13
794.313	40.77
794.488	39.93
794.664	39.13
794.839	35.92
795.015	33.35
795.19	33.83
795.366	34.66
795.541	35.22
795.716	33.64
795.892	33.71
796.067	34.23
796.242	34.32
796.418	36.49
796.593	34.87
796.768	37.56
796.944	37.61
797.119	38
797.294	36.51
797.469	32.36
797.644	34.82
797.82	37.47
797.995	37.75
798.17	38.05
798.345	37.15
798.52	37.49
798.695	36.2
798.87	37.16
799.045	35.85
799.22	36.95
799.395	39.35
799.57	37.7
799.745	33.97
799.92	33.82
800.095	33.81
800.27	34.66
800.445	33.7
800.62	33.72
800.795	33.11
800.97	33.79
801.145	30.63
801.319	29.03
801.494	31.11
801.669	30.17
801.844	32.04
802.018	30.55
802.193	31.9
802.368	35.79
802.543	36.5
802.717	35.89
802.892	37.25
803.067	39.68
803.241	40.93
803.416	38.28
803.59	40.09
803.765	39.72
803.94	39.46
804.114	39.17
804.289	37.74
804.463	38.9
804.638	42.1
804.812	40.19
804.986	40.77
805.161	39.31
805.335	40.07
805.51	40.75
805.684	40.79
805.858	41.63
806.033	42.3
806.207	42.3
806.381	42.89
806.556	41.49
806.73	41.34
806.904	40.84
807.078	41.06
807.253	37.69
807.427	40.12
807.601	37.07
807.775	40.06
807.949	35.48
808.123	34.65
808.298	36.44
808.472	37.39
808.646	37.24
808.82	35.65
808.994	36.31
809.168	37.67
809.342	32.65
809.516	33.26
809.69	31.16
809.864	33.73
810.038	35.07
810.212	32.73
810.385	29.46
810.559	30.72
810.733	33.5
810.907	33.28
811.081	36.14
811.255	38.42
811.428	42.38
811.602	39.65
811.776	39.61
811.95	40.22
812.123	41.83
812.297	40.23
812.471	37.27
812.644	35.47
812.818	36.13
812.992	33.52
813.165	32.84
813.339	30.78
813.512	35.53
813.686	36.49
813.86	34.63
814.033	31.45
814.207	37.4
814.38	39.28
814.554	40.25
814.727	39.89
814.9	38.51
815.074	37.71
815.247	37
815.421	34.37
815.594	35.05
815.767	36.17
815.941	34.42
816.114	29.85
816.287	32.89
816.46	32.37
816.634	33.4
816.807	34.73
816.98	34.03
817.153	35.63
817.327	36.41
817.5	38.09
817.673	35.18
817.846	37.22
818.019	39.89
818.192	37.61
818.365	33.92
818.538	37.13
818.711	41.45
818.884	45.71
819.057	44.09
819.23	43
819.403	36.8
819.576	39
819.749	38.08
819.922	39.77
820.095	38.87
820.268	42.95
820.441	40.48
820.614	37.39
820.786	35.89
820.959	37.4
821.132	38.6
821.305	41.15
821.477	41.33
821.65	42.03
821.823	40.8
821.996	41.73
822.168	40.71
822.341	40.2
822.514	41.13
822.686	41.76
822.859	41.2
823.031	41.67
823.204	41.54
823.376	41.58
823.549	41.27
823.722	40.9
823.894	40.62
824.067	40.63
824.239	41.23
824.411	40.55
824.584	40.75
824.756	40.95
824.929	40.73
825.101	41.36
825.273	40.92
825.446	41.86
825.618	43.03
825.79	43.94
825.963	44.4
826.135	44.39
826.307	44.87
826.479	43.28
826.652	44.29
826.824	43.74
826.996	42.59
827.168	43.52
827.34	41.96
827.512	40.81
827.684	38.69
827.856	38.23
828.029	37.62
828.201	37.03
828.373	37.48
828.545	36.45
828.717	36.97
828.889	36.97
829.061	36.34
829.232	36.78
829.404	38.5
829.576	39.09
829.748	38.86
829.92	38.11
830.092	39.36
830.264	39.51
830.436	38.94
830.607	38.4
830.779	39.92
830.951	39.56
831.123	39.19
831.294	37.48
831.466	37.56
831.638	41.76
831.809	43.81
831.981	42.69
832.153	43.44
832.324	44.36
832.496	43.46
832.667	39.8
832.839	37.03
833.011	38.04
833.182	37.35
833.354	36.71
833.525	33.26
833.697	31.41
833.868	31.2
834.039	31.9
834.211	34.09
834.382	35.37
834.554	36.8
834.725	37.5
834.896	38.46
835.068	36.73
835.239	37.32
835.41	38.45
835.581	39.08
835.753	40.1
835.924	37.23
836.095	35.28
836.266	33.94
836.438	34.56
836.609	35.48
836.78	34.5
836.951	35.59
837.122	37.4
837.293	34.76
837.464	34.2
837.635	31.37
837.806	33.4
837.977	30
838.148	30.02
838.319	26.51
838.49	23.36
838.661	24.72
838.832	26.77
839.003	25.43
839.174	28.47
839.345	31.2
839.516	36.8
839.687	36.11
839.857	36.89
840.028	38.57
840.199	38.38
840.37	40.57
840.54	37.32
840.711	42.78
840.882	41.13
841.053	38.8
841.223	39
841.394	36.95
841.564	38.58
841.735	40.57
841.906	39.68
842.076	35.87
842.247	41.35
842.417	42.71
842.588	39.26
842.758	42.33
842.929	40.24
843.099	36.88
843.27	34.99
843.44	34.49
843.611	33.27
843.781	25.88
843.951	31.33
844.122	20.64
844.292	24.77
844.462	24.33
844.633	22.72
844.803	21.49
844.973	19.19
845.144	19.66
845.314	10.76
845.484	20.59
845.654	29.05
845.824	34.75
845.995	39
846.165	27.08
846.335	19.46
846.505	20.75
846.675	23.77
846.845	32.88
847.015	32.43
847.185	38.53
847.355	35.76
847.525	29.68
847.695	19.2
847.865	15.47
848.035	17.07
848.205	20.27
848.375	20.26
848.545	21.62
848.715	11.79
848.884	13.41
849.054	12.77
849.224	11.07
849.394	11.8
849.564	13.7
849.733	21.81
849.903	29.05
850.073	27.82
850.243	25.88
850.412	17.7
850.582	14.76
850.752	16.18
850.921	20.62
851.091	20.1
851.26	23.67
851.43	28.78
851.599	16.43
851.769	13.73
851.939	18.74
852.108	11.72
852.278	14.87
852.447	34.38
852.616	33.2
852.786	24.91
852.955	28.87
853.125	23.48
853.294	26.09
853.463	20.96
853.633	16.3
853.802	7.93
853.971	19.92
854.141	18.89
854.31	6.21
854.479	-2.2
854.648	-3.18
854.818	-22.2
854.987	11.05
855.156	15.98
855.325	24.55
855.494	20.12
855.663	21.58
855.832	18.56
856.001	15.08
856.171	6.67
856.34	1.63
856.509	16.46
856.678	20.49
856.847	4.76
857.016	0.48
857.185	3.89
857.353	12.73
857.522	13.25
857.691	17.3
857.86	17.64
858.029	29.43
858.198	41.66
858.367	30.42
858.535	36.36
858.704	34.49
858.873	39.25
859.042	43.02
859.21	41.8
859.379	47.45
859.548	43.16
859.717	49.34
859.885	36.8
860.054	28.27
860.222	35.96
860.391	36.96
860.56	41.2
860.728	28.64
860.897	24.79
861.065	28.82
861.234	26.66
861.402	18.66
861.571	24.78
861.739	14.88
861.908	19.83
862.076	17.46
862.244	15.65
862.413	13.61
862.581	27.39
862.749	33.22
862.918	32.98
863.086	35.77
863.254	39.66
863.423	29.13
863.591	30.25
863.759	30.66
863.927	35
864.096	31.11
864.264	32.06
864.432	37.96
864.6	40.52
864.768	32.34
864.936	34.5
865.104	35.97
865.272	51.02
865.44	46.81
865.608	53.29
865.776	52.9
865.944	63.74
866.112	69.04
866.28	37.75
866.448	33.95
866.616	41.21
866.784	33.3
866.952	28.41
867.12	29.43
867.288	45.55
867.455	36.19
867.623	17.71
867.791	-1.94
867.959	-6.16
868.127	29.55
868.294	4.87
868.462	-4.34
868.63	6.98
868.797	-7.08
868.965	-14.11
869.133	-17.39
869.3	-13.29
869.468	1.37
869.636	-8.24
869.803	-7.76
869.971	-6.94
870.138	1.37
870.306	-2.31
870.473	-5.2
870.641	6.69
870.808	-9.02
870.975	-0.06
871.143	-0.68
871.31	-3.92
871.478	-4.46
871.645	-7.24
871.812	-29.32
871.98	-9.58
872.147	-18.51
872.314	-4.43
872.482	-6.22
872.649	0.75
872.816	-11.67
872.983	-10.63
873.15	-24.25
873.318	-18.78
873.485	-25.94
873.652	-6.72
873.819	-33.78
873.986	-7.12
874.153	-25.69
874.32	-23.62
874.487	-9.49
874.654	0.31
874.821	-9.94
874.988	18.07
875.155	8.2
875.322	26.83
875.489	15.43
875.656	26.56
875.823	15.18
875.99	6.99
876.157	10.06
876.324	-0.05
876.49	5.03
876.657	15.1
876.824	12.08
876.991	15.54
877.157	-0.24
877.324	3.27
877.491	-1.26
877.658	4.77
877.824	19.13
877.991	18.07
878.157	15.34
878.324	9.01
878.491	8.39
878.657	11.36
878.824	18.63
878.99	21.31
879.157	14.71
879.323	7.32
879.49	3.89
879.656	4.2
879.823	-0.11
879.989	18.96
880.156	22.39
880.322	19.25
880.488	17.31
880.655	18.07
880.821	17.57
880.987	27.09
881.154	29.17
881.32	29.99
881.486	26.14
881.652	24.58
881.819	20.55
881.985	25.06
882.151	28.39
882.317	28.23
882.483	28
882.649	29.59
882.816	28.85
882.982	30.7
883.148	31.72
883.314	33.81
883.48	37.42
883.646	38.18
883.812	37.66
883.978	36.33
884.144	36.95
884.31	35.84
884.476	35.74
884.642	35.16
884.807	32.3
884.973	33.03
885.139	33.78
885.305	29.25
885.471	28.16
885.637	27.89
885.802	28.57
885.968	28.92
886.134	30.27
886.3	31.08
886.465	34.15
886.631	38.42
886.797	36.88
886.962	35.58
887.128	39.63
887.293	39.53
887.459	40.58
887.625	43.78
887.79	42.2
887.956	39.07
888.121	39.61
888.287	35.32
888.452	34.6
888.618	35.88
888.783	37.81
