Data from CB_078_Reflection_1.txt Node
Date: Sat Nov 14 11:40:12 EST 2015
User: robert
Spectrometer: USB4E03001
Autoset integration time: false
Trigger mode: 4
Integration Time (sec): 1.000000E-1
Scans to average: 15
Electric dark correction enabled: true
Nonlinearity correction enabled: false
Boxcar width: 5
Stray light correction enabled: false
XAxis mode: Wavelengths
Stop averaging: false
Number of Pixels in Spectrum: 3648
>>>>>Begin Spectral Data<<<<<
177.566	-277.02
177.785	-545.45
178.005	-1598.71
178.225	-356.35
178.445	-316.69
178.665	-462.86
178.885	25.82
179.105	-91.77
179.324	-187.96
179.544	-476.62
179.764	-153.62
179.984	-216.64
180.204	-241.52
180.423	-681.86
180.643	-369.41
180.863	-525.57
181.083	-2344.99
181.302	-9123.02
181.522	1052.62
181.742	1096.12
181.961	1301.86
182.181	208.74
182.401	164.37
182.621	347.15
182.84	1505.41
183.06	-5271.53
183.279	-716.83
183.499	-490.05
183.719	-651.14
183.938	-415.03
184.158	-334.99
184.377	-278.53
184.597	-177.79
184.816	-117.94
185.036	-157.17
185.256	-250.59
185.475	-606.68
185.695	-420.19
185.914	-446.53
186.134	-436.41
186.353	-458.82
186.572	-380.23
186.792	-1119
187.011	4928.15
187.231	-3639.29
187.45	-731.77
187.67	-2358.72
187.889	827.93
188.108	416.53
188.328	339.88
188.547	262.3
188.766	242.22
188.986	199.17
189.205	173.66
189.424	201.78
189.644	160.07
189.863	226.58
190.082	264.11
190.302	331.26
190.521	298.11
190.74	286.57
190.959	1146.99
191.178	843.81
191.398	700.72
191.617	2328.97
191.836	8151.08
192.055	1584.88
192.274	430.43
192.494	648.27
192.713	28883.93
192.932	-2469.49
193.151	438500
193.37	636.2
193.589	-16868.14
193.808	-1715.99
194.027	-2546.98
194.246	5430.71
194.465	-3866.2
194.685	934.83
194.904	988.13
195.123	642.38
195.342	584.96
195.561	454.28
195.78	1304.66
195.999	3334.92
196.218	1314.34
196.436	808.07
196.655	350.94
196.874	209.03
197.093	400.46
197.312	304.42
197.531	623.65
197.75	847.84
197.969	2595.5
198.188	478.29
198.407	291.71
198.625	327.41
198.844	413.7
199.063	553.26
199.282	1115.41
199.501	-5348.44
199.719	-2732.41
199.938	885.36
200.157	461.57
200.376	-3363.77
200.594	-199.27
200.813	-580.93
201.032	-1755.06
201.251	-896.9
201.469	-1614.36
201.688	-3290.12
201.907	6200.49
202.125	1847.19
202.344	7389.97
202.563	39343.48
202.781	2028.83
203	614.82
203.218	495.08
203.437	731.75
203.656	527.9
203.874	1037.11
204.093	767.27
204.311	495.38
204.53	1494.48
204.748	374.29
204.967	514.41
205.185	300.14
205.404	350.85
205.622	501.78
205.841	339.07
206.059	275.46
206.278	266.61
206.496	459.95
206.715	643.21
206.933	434.31
207.151	568.72
207.37	379.34
207.588	521.22
207.806	667.51
208.025	895.5
208.243	1339.62
208.461	-97395.45
208.68	2619.26
208.898	1166.15
209.116	634.65
209.335	497.87
209.553	484.84
209.771	381.57
209.989	335.7
210.208	273.64
210.426	248.48
210.644	206.7
210.862	195.37
211.081	178.79
211.299	132.58
211.517	168.99
211.735	132.03
211.953	133.56
212.171	159.43
212.39	140.18
212.608	116.72
212.826	117.08
213.044	138.02
213.262	150.25
213.48	165.01
213.698	258.09
213.916	139.94
214.134	260.64
214.352	355.37
214.57	240.31
214.788	234.74
215.006	255.65
215.224	492.63
215.442	1155.42
215.66	1809.9
215.878	646.65
216.096	233.95
216.314	780.55
216.532	3435.53
216.75	-1147.33
216.968	-1506.86
217.185	-14153.1
217.403	3242.2
217.621	-213811.11
217.839	-1416.75
218.057	-46291.67
218.275	-1480.59
218.492	-291.44
218.71	-5326.27
218.928	3009.38
219.146	1656.13
219.363	885.45
219.581	931.24
219.799	-4504.36
220.017	450.79
220.234	488.06
220.452	523.73
220.67	800.54
220.887	336.13
221.105	549.8
221.323	342.52
221.54	242.51
221.758	225.9
221.976	207.65
222.193	148.25
222.411	141.23
222.629	149.05
222.846	133.06
223.064	110.24
223.281	127.93
223.499	125.18
223.716	101.03
223.934	84.79
224.151	88.98
224.369	82.98
224.586	101.6
224.804	113.96
225.021	127.26
225.239	143.27
225.456	153.79
225.674	147.83
225.891	121.26
226.108	113.5
226.326	109.76
226.543	110.69
226.76	97.99
226.978	85.8
227.195	86.18
227.413	65.56
227.63	67.43
227.847	60.13
228.064	51.54
228.282	52.74
228.499	53.11
228.716	52.97
228.934	51.46
229.151	50.06
229.368	44.2
229.585	42.5
229.802	44.03
230.02	40.88
230.237	41.21
230.454	41.41
230.671	44.9
230.888	47.45
231.105	46.72
231.323	45.6
231.54	50.32
231.757	56.06
231.974	60.24
232.191	58.83
232.408	56.8
232.625	63.54
232.842	59.17
233.059	54.69
233.276	53.54
233.493	55.87
233.71	55.65
233.927	52.09
234.144	51.44
234.361	46.31
234.578	52.12
234.795	51.14
235.012	45.68
235.229	45.54
235.446	44.83
235.663	42.37
235.879	35.09
236.096	37.03
236.313	45.17
236.53	37.82
236.747	42.1
236.964	35.84
237.181	39.7
237.397	36.73
237.614	50.76
237.831	60.81
238.048	64.53
238.264	62.55
238.481	60.43
238.698	49.13
238.915	52.87
239.131	44.08
239.348	39.11
239.565	37.31
239.781	38.96
239.998	34.17
240.215	23.43
240.431	21.03
240.648	25.41
240.865	21.04
241.081	20.83
241.298	19.75
241.514	20.67
241.731	22.73
241.947	20.82
242.164	19.43
242.38	15.43
242.597	14.64
242.814	14.67
243.03	16.71
243.246	19.84
243.463	19.65
243.679	21.14
243.896	22.14
244.112	21.84
244.329	24.12
244.545	26.53
244.762	27.9
244.978	29.16
245.194	26.78
245.411	25.9
245.627	23.42
245.843	26.34
246.06	22.65
246.276	20.92
246.492	20.59
246.709	18.96
246.925	18.76
247.141	18.94
247.357	19.23
247.574	20.38
247.79	19.31
248.006	18.41
248.222	17.64
248.439	18.36
248.655	18.49
248.871	17.81
249.087	18.47
249.303	19.13
249.519	20.47
249.736	21.41
249.952	21.7
250.168	25.52
250.384	27.27
250.6	26.31
250.816	27.32
251.032	27
251.248	28.95
251.464	30.72
251.68	28.08
251.896	24.19
252.112	22.43
252.328	21.02
252.544	18.14
252.76	16.85
252.976	18.07
253.192	15.9
253.408	16.89
253.624	17.85
253.84	16.48
254.056	17.3
254.272	18.79
254.487	20.27
254.703	21.6
254.919	23.03
255.135	28.89
255.351	28.96
255.567	31.01
255.782	33.79
255.998	31.77
256.214	30.3
256.43	26.23
256.646	28.41
256.861	30.62
257.077	28.64
257.293	27.38
257.508	23.04
257.724	22.76
257.94	21.72
258.155	18.32
258.371	17.79
258.587	17.09
258.802	17.95
259.018	16.54
259.234	14.02
259.449	14.15
259.665	13.66
259.88	13.22
260.096	12.99
260.312	11.84
260.527	11.99
260.743	12.48
260.958	12.32
261.174	13.04
261.389	13.44
261.605	13.75
261.82	12.92
262.036	12.18
262.251	13.1
262.466	12.72
262.682	13.92
262.897	14.3
263.113	13.26
263.328	12.68
263.543	11.72
263.759	10.94
263.974	11.96
264.189	12.68
264.405	14.27
264.62	14.86
264.835	14.85
265.051	17.85
265.266	17.05
265.481	16.69
265.696	20.74
265.912	18.91
266.127	18.05
266.342	16.72
266.557	17.18
266.773	16.97
266.988	16.09
267.203	15.36
267.418	14.1
267.633	14.97
267.848	14.55
268.064	11.35
268.279	12.53
268.494	11.9
268.709	11.8
268.924	13.34
269.139	11.41
269.354	12.68
269.569	11.77
269.784	11.57
269.999	12.12
270.214	12.28
270.429	13.33
270.644	14.5
270.859	15.34
271.074	16.27
271.289	16.15
271.504	17.84
271.719	16.19
271.934	17.69
272.149	17.18
272.363	17.48
272.578	16.66
272.793	16.44
273.008	15.76
273.223	15.41
273.438	14.63
273.653	13.67
273.867	13.53
274.082	15.22
274.297	15.53
274.512	17.09
274.726	16.54
274.941	17.04
275.156	19
275.371	18.84
275.585	19.15
275.8	19.76
276.015	19.04
276.229	19.16
276.444	17.51
276.659	16.36
276.873	15.25
277.088	16.8
277.302	18.3
277.517	15.64
277.732	15.92
277.946	16.87
278.161	17
278.375	16.9
278.59	15.56
278.804	14.41
279.019	16.17
279.233	14.86
279.448	12.24
279.662	11.48
279.877	11.78
280.091	9.32
280.306	8
280.52	6.85
280.735	7.73
280.949	9.3
281.163	12.42
281.378	10.97
281.592	12.52
281.806	13.12
282.021	12.65
282.235	12.85
282.449	15.03
282.664	15.66
282.878	16.89
283.092	15.97
283.307	15.97
283.521	13.84
283.735	14.55
283.949	14.23
284.164	13.73
284.378	13.08
284.592	12.07
284.806	12.06
285.02	11.48
285.234	10.34
285.449	10.83
285.663	10.95
285.877	11.52
286.091	10.09
286.305	10.38
286.519	10.85
286.733	10.96
286.947	12.63
287.161	11.94
287.375	12.48
287.589	13.89
287.803	14.98
288.017	14.76
288.231	15.26
288.445	17.02
288.659	17.63
288.873	17.55
289.087	18.53
289.301	18.7
289.515	18.49
289.729	17.99
289.943	17.83
290.157	18.44
290.371	18.83
290.584	18.27
290.798	18.16
291.012	17.72
291.226	18.01
291.44	18.09
291.654	17.47
291.867	17.53
292.081	18.23
292.295	18.68
292.509	17.8
292.722	16.38
292.936	15.83
293.15	15.48
293.364	14.55
293.577	15.12
293.791	14.43
294.005	13.24
294.218	13.76
294.432	13.09
294.645	12.27
294.859	11.91
295.073	12.62
295.286	12.79
295.5	13.78
295.713	14.05
295.927	12.62
296.14	11.83
296.354	11.8
296.568	10.67
296.781	11.06
296.994	12.52
297.208	11.48
297.421	11.26
297.635	12.01
297.848	10.6
298.062	9.62
298.275	10.01
298.489	10.93
298.702	12.23
298.915	12.71
299.129	13.48
299.342	11.44
299.555	12.77
299.769	13.78
299.982	13.57
300.195	14.61
300.409	15.56
300.622	15.47
300.835	15.77
301.048	14.4
301.262	14.75
301.475	13.82
301.688	14.56
301.901	14.59
302.115	13.71
302.328	13.81
302.541	13.14
302.754	14.27
302.967	14.62
303.18	14.89
303.393	15.7
303.607	16.02
303.82	16.62
304.033	16.57
304.246	17.13
304.459	16.14
304.672	15.55
304.885	16.61
305.098	16.8
305.311	16.49
305.524	15.25
305.737	15.92
305.95	16.44
306.163	15.86
306.376	15.18
306.589	13.7
306.802	15.37
307.015	16.08
307.228	16.51
307.44	15.49
307.653	16.41
307.866	17.79
308.079	17.17
308.292	16.4
308.505	16.89
308.718	18.47
308.93	20.23
309.143	19.77
309.356	19.02
309.569	18.36
309.781	18.28
309.994	18.23
310.207	17.1
310.42	16.41
310.632	16.04
310.845	15.11
311.058	14.31
311.27	12.76
311.483	13.21
311.696	12.92
311.908	12.22
312.121	12.64
312.333	14.12
312.546	14.5
312.759	14.08
312.971	14.11
313.184	15.3
313.396	14.93
313.609	14.89
313.821	14.67
314.034	15.35
314.246	16.05
314.459	15.62
314.671	13.51
314.884	14.89
315.096	16.18
315.309	17.81
315.521	17.56
315.733	17.45
315.946	17.65
316.158	18.21
316.371	18.88
316.583	18.41
316.795	17.49
317.008	17.91
317.22	16.55
317.432	18.2
317.644	17.13
317.857	17.78
318.069	18.15
318.281	18.54
318.494	18.54
318.706	18.99
318.918	19.13
319.13	19.26
319.342	17.36
319.555	17.88
319.767	16.28
319.979	16.01
320.191	15.37
320.403	17.4
320.615	19.01
320.827	19
321.039	18.16
321.252	20.44
321.464	22.97
321.676	22.68
321.888	21.75
322.1	21.82
322.312	21.84
322.524	22.73
322.736	19.8
322.948	18.87
323.16	17.4
323.372	17.94
323.584	16.02
323.796	14.67
324.007	15.55
324.219	16.81
324.431	17.28
324.643	17.62
324.855	17.15
325.067	18.65
325.279	18.23
325.491	19.08
325.702	18.86
325.914	18.92
326.126	19.16
326.338	18.4
326.55	18
326.761	17.71
326.973	17.94
327.185	17.95
327.396	17.77
327.608	18.19
327.82	17.37
328.032	18.24
328.243	17.6
328.455	17.72
328.666	19.24
328.878	18.75
329.09	19.66
329.301	19.17
329.513	18.35
329.725	17.62
329.936	18.11
330.148	17.94
330.359	18
330.571	19.96
330.782	18.82
330.994	19.01
331.205	19.1
331.417	17.94
331.628	18.6
331.84	20.01
332.051	19.96
332.262	19.41
332.474	19.72
332.685	20.23
332.897	19.94
333.108	21.91
333.319	20.67
333.531	20.9
333.742	21.37
333.953	21.05
334.165	20.77
334.376	21.98
334.587	22.3
334.799	22.19
335.01	19.8
335.221	19.79
335.432	17.76
335.644	18.03
335.855	17.41
336.066	17.55
336.277	18.5
336.488	17.94
336.7	17.47
336.911	17.73
337.122	18.52
337.333	19.37
337.544	19.78
337.755	21.61
337.966	22.85
338.177	23.3
338.388	22.52
338.599	21.71
338.811	21.44
339.022	20.42
339.233	19.87
339.444	19.05
339.655	18.42
339.866	17.97
340.076	16.28
340.287	15.19
340.498	15.5
340.709	15.23
340.92	15.64
341.131	15.73
341.342	16.29
341.553	15.7
341.764	16.93
341.975	16.92
342.185	16.17
342.396	17.3
342.607	17.66
342.818	17.25
343.029	17.46
343.239	17.51
343.45	17.4
343.661	17.77
343.872	17.63
344.082	16.32
344.293	16.91
344.504	17.56
344.714	17.22
344.925	17.25
345.136	17.09
345.346	15.91
345.557	15.65
345.768	16.13
345.978	16.71
346.189	17.26
346.399	16.82
346.61	16.41
346.821	16.06
347.031	16.75
347.242	16.67
347.452	16.8
347.663	17.76
347.873	18.74
348.084	17.94
348.294	16.37
348.504	16.25
348.715	18.3
348.925	18.73
349.136	17.15
349.346	16.5
349.557	16.31
349.767	16.86
349.977	17.82
350.188	16.43
350.398	17.2
350.608	17.54
350.819	17.88
351.029	15.97
351.239	16.77
351.449	18.16
351.66	17.59
351.87	16.97
352.08	16.5
352.29	16.27
352.501	16.58
352.711	16.92
352.921	17.54
353.131	17.02
353.341	18.04
353.552	17.12
353.762	15.96
353.972	16.04
354.182	17.22
354.392	17.17
354.602	17.29
354.812	17.53
355.022	16.81
355.232	17.2
355.442	17.59
355.652	17.48
355.862	17.5
356.072	18.68
356.282	18.43
356.492	17.77
356.702	17.45
356.912	17.01
357.122	17.29
357.332	16.88
357.542	16.2
357.752	15.7
357.962	16.18
358.171	16.02
358.381	16.03
358.591	16.3
358.801	15.85
359.011	15.93
359.221	15.77
359.43	15.45
359.64	15
359.85	14.8
360.06	14.85
360.269	14.39
360.479	14.23
360.689	14.54
360.899	14.95
361.108	15.25
361.318	15.03
361.528	14.71
361.737	14.46
361.947	14.53
362.156	14.68
362.366	14.5
362.576	14.54
362.785	14.25
362.995	13.65
363.204	13.69
363.414	14.12
363.623	14.32
363.833	14.77
364.042	14.73
364.252	15.63
364.461	15.41
364.671	15.89
364.88	15.68
365.09	16.97
365.299	17.27
365.509	17.57
365.718	16.6
365.927	17.05
366.137	17.24
366.346	17.41
366.555	16.66
366.765	17.14
366.974	16.97
367.183	16.06
367.393	14.15
367.602	14.05
367.811	13.14
368.021	13.52
368.23	12.86
368.439	12.05
368.648	11.31
368.857	11.71
369.067	11.19
369.276	10.84
369.485	12.04
369.694	13.15
369.903	13.14
370.112	12.88
370.321	12.46
370.531	12.25
370.74	12.66
370.949	12.62
371.158	12.56
371.367	12.77
371.576	12.61
371.785	12.11
371.994	11.95
372.203	12.02
372.412	11.92
372.621	12.41
372.83	12.6
373.039	12.69
373.248	12.11
373.457	12.35
373.666	11.54
373.874	11.52
374.083	11.68
374.292	11.54
374.501	11.34
374.71	11.7
374.919	11.34
375.128	11.01
375.336	11.32
375.545	12.1
375.754	11.7
375.963	12.02
376.171	11.75
376.38	11.62
376.589	10.72
376.798	9.6
377.006	9.32
377.215	9.42
377.424	9.37
377.632	8.59
377.841	8.62
378.05	8.98
378.258	8.85
378.467	9.07
378.675	9.13
378.884	10.08
379.093	10.63
379.301	10.81
379.51	10.72
379.718	11.32
379.927	11.52
380.135	11.68
380.344	11.17
380.552	11.83
380.761	11.62
380.969	11.17
381.177	10.84
381.386	11.63
381.594	11.26
381.803	11.21
382.011	10.95
382.219	10.4
382.428	10.24
382.636	10.3
382.845	9.25
383.053	9.62
383.261	9.55
383.469	9.78
383.678	9.17
383.886	9.09
384.094	9.12
384.302	9.04
384.511	9.43
384.719	9.14
384.927	9.17
385.135	9.44
385.343	9.13
385.552	9.91
385.76	9.43
385.968	9.37
386.176	9.31
386.384	8.74
386.592	8.07
386.8	8.1
387.008	8.29
387.216	7.71
387.424	7.96
387.633	8.21
387.841	7.85
388.049	8.41
388.257	8.45
388.465	8.08
388.672	8.38
388.88	9.08
389.088	8.77
389.296	8.4
389.504	8.36
389.712	8.29
389.92	8.19
390.128	8.28
390.336	7.98
390.544	7.65
390.751	7.98
390.959	8.05
391.167	7.5
391.375	7.82
391.583	7.89
391.79	8.02
391.998	8.11
392.206	8.17
392.414	7.44
392.621	7.47
392.829	7.66
393.037	7.66
393.244	7.55
393.452	7.88
393.66	7.99
393.867	7.99
394.075	8
394.283	7.82
394.49	7.39
394.698	7.88
394.905	7.76
395.113	8.07
395.32	8
395.528	8.26
395.735	8.05
395.943	7.72
396.15	7.91
396.358	7.85
396.565	7.87
396.773	8.22
396.98	8.13
397.188	8.06
397.395	8.04
397.602	8.35
397.81	7.96
398.017	8.29
398.225	8.64
398.432	8.23
398.639	8.42
398.847	8.24
399.054	8.19
399.261	7.97
399.468	7.82
399.676	7.91
399.883	7.63
400.09	8.03
400.297	7.96
400.505	7.6
400.712	8.19
400.919	8.36
401.126	8.17
401.333	7.97
401.54	8.29
401.748	8.41
401.955	7.71
402.162	7.5
402.369	7.22
402.576	7.06
402.783	6.81
402.99	6.24
403.197	5.8
403.404	5.81
403.611	6.11
403.818	5.98
404.025	5.92
404.232	6.05
404.439	6.28
404.646	5.99
404.853	5.96
405.06	5.94
405.267	6.27
405.474	6.33
405.681	6.71
405.887	6.23
406.094	6.33
406.301	6.42
406.508	6.55
406.715	6.54
406.922	6.73
407.128	6.9
407.335	6.99
407.542	6.78
407.749	6.83
407.955	6.87
408.162	6.88
408.369	6.58
408.575	6.7
408.782	6.51
408.989	6.27
409.195	6.11
409.402	6.18
409.609	5.88
409.815	5.91
410.022	5.91
410.228	5.76
410.435	6.05
410.642	6.15
410.848	6.04
411.055	6.28
411.261	6.28
411.468	6.6
411.674	6.33
411.881	6.73
412.087	6.69
412.294	6.69
412.5	6.7
412.706	6.43
412.913	6.38
413.119	6.2
413.326	5.85
413.532	6.03
413.738	6.04
413.945	5.8
414.151	5.9
414.357	5.85
414.564	6.02
414.77	5.94
414.976	6.23
415.182	6.62
415.389	6.56
415.595	6.35
415.801	6.27
416.007	6.16
416.214	6.32
416.42	6.06
416.626	5.8
416.832	5.71
417.038	5.54
417.244	5.43
417.45	5.1
417.657	5.33
417.863	5.3
418.069	5.34
418.275	5.27
418.481	5.28
418.687	5.44
418.893	5.6
419.099	5.45
419.305	5.41
419.511	5.4
419.717	5.33
419.923	5.22
420.129	5.31
420.335	5.33
420.541	5.3
420.746	5.17
420.952	5.1
421.158	5.11
421.364	5.06
421.57	5.08
421.776	5.15
421.982	5.28
422.187	5.17
422.393	5.32
422.599	5.28
422.805	5.23
423.01	5.34
423.216	5.34
423.422	5.37
423.628	5.45
423.833	5.41
424.039	5.43
424.245	5.38
424.45	5.48
424.656	5.25
424.862	5.24
425.067	5.23
425.273	5.22
425.478	5.09
425.684	4.93
425.889	5.08
426.095	5.29
426.301	5.09
426.506	5.02
426.712	5.04
426.917	5.39
427.123	5.42
427.328	5.55
427.533	5.45
427.739	5.67
427.944	5.81
428.15	5.63
428.355	5.47
428.561	5.58
428.766	5.66
428.971	5.4
429.177	5.27
429.382	5.16
429.587	5.14
429.793	5.21
429.998	5.24
430.203	5.13
430.408	5.23
430.614	5.24
430.819	5.32
431.024	5.14
431.229	5.23
431.434	5.17
431.64	5.21
431.845	5.21
432.05	5.35
432.255	5.06
432.46	5.08
432.665	4.85
432.87	4.65
433.076	4.68
433.281	4.79
433.486	4.89
433.691	4.78
433.896	4.73
434.101	4.57
434.306	4.48
434.511	4.75
434.716	4.84
434.921	5.09
435.126	5.3
435.331	5.12
435.535	5.1
435.74	5.01
435.945	4.94
436.15	4.93
436.355	5.51
436.56	5.59
436.765	5.52
436.97	5.33
437.174	5.22
437.379	5.14
437.584	5.37
437.789	5.41
437.993	5.48
438.198	5.65
438.403	5.66
438.608	5.25
438.812	5.17
439.017	5.02
439.222	5.2
439.426	5.11
439.631	4.96
439.836	4.93
440.04	4.94
440.245	4.88
440.45	4.88
440.654	4.82
440.859	4.71
441.063	4.56
441.268	4.71
441.472	4.55
441.677	4.49
441.881	4.43
442.086	4.24
442.29	4.03
442.495	4.16
442.699	4.01
442.904	4.01
443.108	4.25
443.312	4.39
443.517	4.37
443.721	4.45
443.925	4.5
444.13	4.68
444.334	4.56
444.538	4.78
444.743	4.74
444.947	4.67
445.151	4.68
445.356	4.74
445.56	4.81
445.764	4.65
445.968	4.73
446.173	4.74
446.377	4.69
446.581	4.81
446.785	4.68
446.989	4.59
447.193	4.7
447.398	4.69
447.602	4.44
447.806	4.4
448.01	4.57
448.214	4.52
448.418	4.48
448.622	4.46
448.826	4.41
449.03	4.56
449.234	4.49
449.438	4.45
449.642	4.4
449.846	4.68
450.05	4.65
450.254	4.49
450.458	4.41
450.662	4.54
450.866	4.54
451.069	4.6
451.273	4.4
451.477	4.72
451.681	4.97
451.885	4.96
452.089	5.01
452.292	4.75
452.496	4.75
452.7	4.85
452.904	4.82
453.107	5.08
453.311	4.96
453.515	5.1
453.719	4.95
453.922	4.85
454.126	4.89
454.33	4.7
454.533	4.84
454.737	4.79
454.94	4.63
455.144	4.95
455.348	4.59
455.551	4.7
455.755	4.71
455.958	4.74
456.162	4.7
456.365	4.76
456.569	4.62
456.772	4.63
456.976	4.76
457.179	4.84
457.383	4.48
457.586	4.64
457.79	4.67
457.993	4.69
458.196	4.62
458.4	4.59
458.603	4.51
458.807	4.48
459.01	4.65
459.213	4.58
459.417	4.6
459.62	4.54
459.823	4.53
460.026	4.33
460.23	4.18
460.433	4.15
460.636	4.09
460.839	4.15
461.042	4.14
461.246	4.1
461.449	4.11
461.652	4.04
461.855	4.19
462.058	4.25
462.261	4.46
462.464	4.48
462.668	4.61
462.871	4.92
463.074	4.98
463.277	5.01
463.48	4.98
463.683	5.2
463.886	5.25
464.089	5.41
464.292	5.26
464.495	5.23
464.698	5.38
464.901	5.4
465.104	5.06
465.306	4.9
465.509	4.86
465.712	4.92
465.915	4.56
466.118	4.45
466.321	4.22
466.524	4.21
466.726	4.31
466.929	4.36
467.132	4.1
467.335	4.27
467.538	4.15
467.74	4.17
467.943	3.86
468.146	4.04
468.348	4.22
468.551	4.11
468.754	4.08
468.956	4.17
469.159	3.92
469.362	4.11
469.564	4.01
469.767	4.22
469.969	4.42
470.172	4.69
470.375	4.54
470.577	4.37
470.78	4.42
470.982	4.58
471.185	4.38
471.387	4.57
471.59	4.53
471.792	4.59
471.995	4.71
472.197	4.8
472.399	4.9
472.602	5.06
472.804	5.02
473.007	4.95
473.209	4.81
473.411	4.82
473.614	4.98
473.816	4.95
474.018	5.01
474.22	5.04
474.423	4.79
474.625	4.66
474.827	4.67
475.03	4.84
475.232	5.04
475.434	5.11
475.636	5.01
475.838	4.79
476.04	4.79
476.243	4.56
476.445	4.4
476.647	4.55
476.849	4.54
477.051	4.52
477.253	4.76
477.455	4.59
477.657	4.54
477.859	4.48
478.061	4.47
478.263	4.45
478.465	4.47
478.667	4.36
478.869	4.19
479.071	4.09
479.273	4.02
479.475	3.62
479.677	3.79
479.879	3.84
480.081	3.89
480.283	3.84
480.485	3.83
480.686	4.05
480.888	4.23
481.09	4.34
481.292	4.25
481.494	4.24
481.695	4.13
481.897	4.03
482.099	4
482.301	4.05
482.502	4.06
482.704	3.99
482.906	3.81
483.107	3.69
483.309	3.61
483.511	3.64
483.712	3.63
483.914	3.67
484.115	3.58
484.317	3.57
484.519	3.57
484.72	3.56
484.922	3.58
485.123	3.58
485.325	3.63
485.526	3.68
485.728	3.68
485.929	3.68
486.131	3.69
486.332	3.77
486.534	3.8
486.735	3.75
486.936	3.79
487.138	3.78
487.339	3.83
487.541	3.83
487.742	3.83
487.943	3.82
488.144	3.85
488.346	3.85
488.547	3.91
488.748	3.84
488.95	3.89
489.151	3.84
489.352	3.97
489.553	3.95
489.755	3.95
489.956	3.92
490.157	3.95
490.358	3.88
490.559	3.85
490.76	3.82
490.961	3.85
491.163	3.9
491.364	3.93
491.565	3.82
491.766	3.89
491.967	3.92
492.168	3.92
492.369	3.91
492.57	3.95
492.771	4.08
492.972	4.08
493.173	4.15
493.374	4.17
493.575	4.23
493.776	4.26
493.976	4.32
494.177	4.32
494.378	4.33
494.579	4.55
494.78	4.53
494.981	4.42
495.182	4.5
495.382	4.49
495.583	4.46
495.784	4.55
495.985	4.72
496.185	4.62
496.386	4.55
496.587	4.64
496.788	4.48
496.988	4.46
497.189	4.59
497.39	4.56
497.59	4.64
497.791	4.49
497.992	4.46
498.192	4.43
498.393	4.43
498.593	4.63
498.794	4.64
498.994	4.81
499.195	4.99
499.395	4.91
499.596	4.96
499.796	4.92
499.997	5.31
500.197	5.28
500.398	5.28
500.598	5.24
500.799	5.14
500.999	4.94
501.199	4.84
501.4	4.75
501.6	4.76
501.801	4.74
502.001	4.89
502.201	4.65
502.402	4.7
502.602	4.6
502.802	4.72
503.002	4.73
503.203	5.03
503.403	5.01
503.603	5.07
503.803	5.11
504.003	5.32
504.204	5.21
504.404	5.26
504.604	5.3
504.804	5.62
505.004	5.55
505.204	5.48
505.404	5.41
505.604	5.53
505.804	5.52
506.005	5.61
506.205	5.39
506.405	5.43
506.605	5.44
506.805	5.51
507.005	5.23
507.204	5.25
507.404	5.35
507.604	5.4
507.804	5.35
508.004	5.39
508.204	5.2
508.404	5.29
508.604	5.18
508.804	5.34
509.003	5.4
509.203	5.46
509.403	5.53
509.603	5.6
509.803	5.64
510.002	5.58
510.202	5.53
510.402	5.79
510.602	5.79
510.801	5.8
511.001	5.67
511.201	5.52
511.4	5.49
511.6	5.43
511.8	5.47
511.999	5.75
512.199	5.73
512.398	5.77
512.598	5.71
512.797	5.99
512.997	6.18
513.197	6.18
513.396	6.44
513.596	6.53
513.795	6.67
513.994	6.65
514.194	6.38
514.393	6.49
514.593	6.69
514.792	6.69
514.992	6.61
515.191	6.67
515.39	6.77
515.59	6.66
515.789	6.68
515.988	6.8
516.188	6.84
516.387	6.97
516.586	7.14
516.786	7.12
516.985	7.25
517.184	7.24
517.383	7.37
517.582	7.43
517.782	7.45
517.981	7.56
518.18	7.59
518.379	7.71
518.578	7.77
518.777	7.85
518.976	7.98
519.176	8.03
519.375	8.01
519.574	8.07
519.773	8.1
519.972	8.21
520.171	8.4
520.37	8.41
520.569	8.41
520.768	8.6
520.967	8.61
521.166	8.66
521.365	8.78
521.564	9
521.762	9.06
521.961	9.09
522.16	9.07
522.359	9
522.558	9.1
522.757	9.14
522.956	8.91
523.154	8.96
523.353	9.05
523.552	9.07
523.751	9.01
523.949	8.96
524.148	9.14
524.347	9.32
524.546	9.48
524.744	9.52
524.943	9.58
525.142	9.58
525.34	9.73
525.539	9.73
525.737	9.85
525.936	9.97
526.135	9.98
526.333	9.99
526.532	9.95
526.73	9.8
526.929	9.89
527.127	10
527.326	10.13
527.524	10.07
527.723	10.15
527.921	10.15
528.12	10.09
528.318	10.13
528.516	10.24
528.715	10.27
528.913	10.33
529.112	10.31
529.31	10.31
529.508	10.34
529.707	10.37
529.905	10.38
530.103	10.36
530.301	10.45
530.5	10.55
530.698	10.58
530.896	10.76
531.094	10.91
531.293	11.02
531.491	11.18
531.689	11.23
531.887	11.38
532.085	11.43
532.283	11.53
532.481	11.62
532.68	11.65
532.878	11.68
533.076	11.59
533.274	11.56
533.472	11.59
533.67	11.56
533.868	11.7
534.066	11.73
534.264	11.72
534.462	11.72
534.66	11.81
534.858	11.93
535.056	12.08
535.253	12.27
535.451	12.43
535.649	12.45
535.847	12.56
536.045	12.55
536.243	12.7
536.441	12.97
536.638	13.06
536.836	13.08
537.034	13.1
537.232	13
537.43	13.01
537.627	13.07
537.825	13.25
538.023	13.37
538.22	13.61
538.418	13.61
538.616	13.59
538.813	13.76
539.011	13.88
539.209	13.82
539.406	13.93
539.604	14.19
539.801	14.21
539.999	14.34
540.196	14.36
540.394	14.26
540.591	14.31
540.789	14.28
540.986	14.17
541.184	14.15
541.381	14.22
541.579	14.2
541.776	14.12
541.974	14.18
542.171	14.17
542.368	14.1
542.566	14.1
542.763	14.03
542.96	14.09
543.158	14.31
543.355	14.49
543.552	14.65
543.75	14.88
543.947	14.93
544.144	14.97
544.341	15.08
544.539	15.23
544.736	15.41
544.933	15.66
545.13	15.7
545.327	15.64
545.524	15.63
545.722	15.62
545.919	15.61
546.116	15.64
546.313	15.64
546.51	15.71
546.707	15.74
546.904	15.74
547.101	15.7
547.298	15.87
547.495	16.06
547.692	16.08
547.889	16.04
548.086	16.02
548.283	16.25
548.48	16.39
548.677	16.47
548.874	16.61
549.07	16.79
549.267	17.05
549.464	17.03
549.661	17.08
549.858	17.3
550.055	17.53
550.251	17.62
550.448	17.71
550.645	17.81
550.842	17.91
551.038	17.98
551.235	18
551.432	17.98
551.628	18.18
551.825	18.22
552.022	18.16
552.218	18.04
552.415	18.1
552.612	18.14
552.808	18.28
553.005	18.29
553.201	18.44
553.398	18.72
553.594	18.74
553.791	18.92
553.987	18.94
554.184	19.04
554.38	19.28
554.577	19.57
554.773	19.73
554.97	19.79
555.166	20.02
555.362	20.09
555.559	20.22
555.755	20.49
555.952	20.38
556.148	20.63
556.344	20.8
556.541	20.86
556.737	20.8
556.933	20.89
557.129	20.93
557.326	20.78
557.522	20.8
557.718	20.76
557.914	20.75
558.11	20.77
558.307	20.65
558.503	20.67
558.699	21.07
558.895	21.18
559.091	21.22
559.287	21.4
559.483	21.49
559.679	21.56
559.876	21.52
560.072	21.5
560.268	21.64
560.464	21.73
560.66	21.71
560.856	21.51
561.052	21.46
561.247	21.25
561.443	21.04
561.639	21.23
561.835	21.42
562.031	21.53
562.227	21.69
562.423	21.7
562.619	21.88
562.815	22.14
563.01	22.4
563.206	22.68
563.402	22.73
563.598	22.88
563.793	22.92
563.989	22.83
564.185	22.81
564.381	22.71
564.576	22.98
564.772	22.82
564.968	22.83
565.163	22.49
565.359	22.24
565.555	22.38
565.75	22.53
565.946	22.55
566.141	22.7
566.337	22.71
566.532	22.96
566.728	22.76
566.923	22.83
567.119	22.77
567.314	23.02
567.51	23.08
567.705	23.18
567.901	23.24
568.096	23.14
568.292	23.23
568.487	23.36
568.682	23.27
568.878	23.48
569.073	23.55
569.268	23.59
569.464	23.75
569.659	24.08
569.854	24.06
570.05	24
570.245	24.38
570.44	24.46
570.635	24.4
570.831	24.61
571.026	24.46
571.221	24.69
571.416	24.78
571.611	24.64
571.806	24.49
572.002	24.63
572.197	24.67
572.392	24.51
572.587	24.46
572.782	24.7
572.977	24.5
573.172	24.63
573.367	24.58
573.562	24.69
573.757	24.84
573.952	24.92
574.147	24.93
574.342	25.15
574.537	25.16
574.732	24.94
574.927	24.94
575.121	24.98
575.316	25.14
575.511	25.09
575.706	25
575.901	24.92
576.096	24.98
576.29	25.12
576.485	25.05
576.68	25.18
576.875	25.37
577.069	25.28
577.264	25.48
577.459	25.56
577.654	25.78
577.848	25.94
578.043	26.19
578.238	26.43
578.432	26.19
578.627	26.32
578.821	26.62
579.016	26.99
579.21	27.03
579.405	26.75
579.6	26.73
579.794	26.79
579.989	26.88
580.183	26.82
580.378	26.81
580.572	27.17
580.766	27.09
580.961	26.78
581.155	26.55
581.35	27.04
581.544	27.16
581.738	27.39
581.933	27.28
582.127	27.41
582.321	27.52
582.516	27.67
582.71	27.42
582.904	27.64
583.099	27.68
583.293	27.88
583.487	27.81
583.681	28.62
583.875	28.46
584.07	28.78
584.264	28.91
584.458	29.02
584.652	28.95
584.846	29.28
585.04	29.21
585.234	29.49
585.428	29.47
585.623	29.18
585.817	28.84
586.011	28.71
586.205	28.72
586.399	28.53
586.593	28.61
586.787	28.63
586.981	28.48
587.174	28.51
587.368	28.58
587.562	28.68
587.756	28.69
587.95	28.51
588.144	28.97
588.338	28.95
588.532	29.01
588.725	28.96
588.919	29.06
589.113	29.16
589.307	29.25
589.501	29.14
589.694	29.41
589.888	29.47
590.082	29.62
590.275	29.24
590.469	29.28
590.663	29.25
590.856	29
591.05	28.97
591.244	28.99
591.437	29.27
591.631	29.43
591.824	29.13
592.018	29.33
592.212	29.58
592.405	29.97
592.599	30.03
592.792	29.98
592.986	30.22
593.179	30.19
593.372	30.34
593.566	30.04
593.759	30.16
593.953	30.34
594.146	30.42
594.339	30.3
594.533	30.28
594.726	30.15
594.92	30.36
595.113	30.52
595.306	30.57
595.499	30.65
595.693	30.83
595.886	30.8
596.079	30.77
596.272	30.8
596.466	30.68
596.659	30.48
596.852	30.55
597.045	30.38
597.238	30.34
597.431	30.32
597.624	30.35
597.818	30.12
598.011	30.02
598.204	29.84
598.397	29.85
598.59	29.88
598.783	30.06
598.976	30.19
599.169	30.42
599.362	30.47
599.555	30.58
599.748	30.53
599.941	30.64
600.134	30.74
600.326	30.94
600.519	30.91
600.712	31.12
600.905	31.43
601.098	31.55
601.291	31.57
601.483	31.74
601.676	31.64
601.869	31.52
602.062	31.58
602.255	31.63
602.447	31.54
602.64	31.43
602.833	31.27
603.025	31.05
603.218	30.77
603.411	30.73
603.603	30.46
603.796	30.73
603.989	30.46
604.181	30.59
604.374	30.44
604.566	30.59
604.759	30.63
604.951	30.55
605.144	30.47
605.336	30.78
605.529	30.89
605.721	30.84
605.914	30.62
606.106	31.07
606.299	31.07
606.491	31.2
606.683	31.23
606.876	30.92
607.068	31.17
607.26	31.28
607.453	31.03
607.645	30.88
607.837	31.29
608.03	31.41
608.222	31.44
608.414	31.32
608.606	31.46
608.799	31.62
608.991	32.24
609.183	32.33
609.375	32.76
609.567	32.87
609.759	33.2
609.952	33.07
610.144	33.26
610.336	33.32
610.528	33.48
610.72	33.55
610.912	33.55
611.104	33.5
611.296	33.4
611.488	33.21
611.68	33.52
611.872	33.4
612.064	33.75
612.256	33.64
612.448	33.62
612.64	33.45
612.832	33.76
613.023	33.94
613.215	34.01
613.407	33.84
613.599	33.7
613.791	33.57
613.983	33.52
614.174	33.35
614.366	33.64
614.558	33.71
614.75	33.96
614.941	33.7
615.133	33.55
615.325	33.64
615.516	34.08
615.708	34.17
615.9	33.93
616.091	33.86
616.283	33.66
616.475	33.39
616.666	33.4
616.858	33.62
617.049	33.6
617.241	33.56
617.432	33.33
617.624	33.41
617.815	33
618.007	33.19
618.198	33.31
618.39	33.62
618.581	33.76
618.773	33.6
618.964	33.7
619.155	33.41
619.347	33.38
619.538	33.65
619.729	33.69
619.921	34.27
620.112	34.42
620.303	34.3
620.494	34.04
620.686	33.93
620.877	34.16
621.068	33.85
621.259	34.18
621.451	34.4
621.642	33.98
621.833	33.86
622.024	33.86
622.215	33.73
622.406	33.72
622.597	33.89
622.788	33.79
622.98	33.61
623.171	33.59
623.362	33.77
623.553	33.7
623.744	33.56
623.935	33.61
624.126	33.4
624.317	33.23
624.508	33.24
624.698	32.96
624.889	33.32
625.08	33.8
625.271	34.06
625.462	33.82
625.653	33.72
625.844	34.05
626.034	33.99
626.225	34.39
626.416	34.59
626.607	34.68
626.798	34.96
626.988	34.73
627.179	34.72
627.37	34.4
627.56	34.46
627.751	34.75
627.942	34.83
628.132	34.68
628.323	34.47
628.514	34.58
628.704	34.54
628.895	34.45
629.085	34.16
629.276	33.82
629.466	34.18
629.657	34.3
629.847	34.08
630.038	34.31
630.228	34.77
630.419	35.17
630.609	35.19
630.8	35.33
630.99	35.54
631.181	36.42
631.371	36.69
631.561	36.57
631.752	36.45
631.942	36.83
632.132	36.63
632.323	36.32
632.513	35.78
632.703	35.52
632.893	35.6
633.084	35.48
633.274	35.11
633.464	34.8
633.654	35
633.844	35.07
634.034	34.65
634.225	34.37
634.415	34.26
634.605	34.36
634.795	34.59
634.985	34.55
635.175	34.84
635.365	34.61
635.555	34.83
635.745	34.7
635.935	34.78
636.125	34.98
636.315	35.47
636.505	35.64
636.695	35.82
636.885	35.57
637.075	35.54
637.265	35.35
637.455	35.86
637.644	35.87
637.834	35.96
638.024	35.79
638.214	35.65
638.404	35.36
638.593	35.26
638.783	35.49
638.973	35.81
639.163	35.8
639.352	35.68
639.542	35.26
639.732	35.37
639.921	35.5
640.111	36.04
640.301	36.05
640.49	36.05
640.68	36.42
640.87	36.03
641.059	35.96
641.249	36.56
641.438	36.55
641.628	36.76
641.817	37.06
642.007	37.13
642.196	36.71
642.386	37
642.575	37.62
642.764	37.38
642.954	37.44
643.143	37.61
643.333	37.44
643.522	37.35
643.711	37.28
643.901	36.82
644.09	36.64
644.279	36.77
644.469	36.68
644.658	36.49
644.847	36.56
645.036	36.66
645.226	36.53
645.415	36.13
645.604	36.26
645.793	36.22
645.982	36.3
646.171	36.02
646.361	35.89
646.55	36.08
646.739	36.01
646.928	35.65
647.117	35.69
647.306	35.46
647.495	35.77
647.684	36.13
647.873	36.26
648.062	36.23
648.251	36.2
648.44	36.03
648.629	35.47
648.818	35.34
649.007	35.7
649.196	35.57
649.384	35.38
649.573	35.3
649.762	35.19
649.951	35.41
650.14	35.58
650.328	36.03
650.517	36.29
650.706	36.67
650.895	36.61
651.083	37.05
651.272	37.25
651.461	37.45
651.65	37.6
651.838	37.8
652.027	37.41
652.216	37.03
652.404	36.74
652.593	36.7
652.781	36.66
652.97	37.06
653.158	36.42
653.347	36.41
653.535	36.73
653.724	36.19
653.912	36.67
654.101	36.56
654.289	36.96
654.478	37.15
654.666	37.3
654.855	37.4
655.043	36.64
655.231	37.07
655.42	37.14
655.608	37.26
655.796	37.87
655.985	36.95
656.173	37.34
656.361	37.32
656.55	36.92
656.738	37.08
656.926	37.27
657.114	37.69
657.302	37.79
657.491	37.6
657.679	37.31
657.867	37.18
658.055	37.47
658.243	37.84
658.431	37.66
658.619	38.06
658.807	38.01
658.996	37.94
659.184	37.68
659.372	37.56
659.56	37.51
659.748	37.38
659.936	37.68
660.124	37.29
660.311	36.91
660.499	37.23
660.687	37.04
660.875	37.14
661.063	37.08
661.251	37.1
661.439	37.24
661.627	37.71
661.814	37.97
662.002	37.31
662.19	37.64
662.378	37.74
662.565	37.73
662.753	37.83
662.941	38.21
663.129	38.06
663.316	38.54
663.504	38.2
663.692	37.76
663.879	37.88
664.067	38.3
664.254	38.58
664.442	38.89
664.63	38.81
664.817	39.45
665.005	38.88
665.192	39.32
665.38	39.51
665.567	39.84
665.755	39.61
665.942	39.44
666.13	39.7
666.317	39.32
666.504	38.88
666.692	39.39
666.879	38.59
667.067	38.97
667.254	38.94
667.441	38.55
667.629	38.65
667.816	38.43
668.003	38.8
668.19	38.45
668.378	39.09
668.565	39.69
668.752	38.77
668.939	39.07
669.127	38.58
669.314	38.36
669.501	38.74
669.688	39.17
669.875	39.87
670.062	39.53
670.249	39.53
670.436	39.25
670.623	38.81
670.81	39.42
670.997	39.52
671.184	39.73
671.371	39.93
671.558	39.71
671.745	38.97
671.932	38.99
672.119	39
672.306	39.27
672.493	38.83
672.68	39.35
672.867	39.8
673.054	39.86
673.24	39.73
673.427	39.63
673.614	39.69
673.801	39.83
673.988	39.85
674.174	40.37
674.361	40.4
674.548	40.61
674.734	39.85
674.921	39.18
675.108	39.06
675.294	39.2
675.481	39.29
675.668	39.19
675.854	39.59
676.041	39.53
676.227	38.85
676.414	38.81
676.601	39.15
676.787	39.35
676.974	39.44
677.16	39.02
677.347	39.4
677.533	39.39
677.719	39.35
677.906	39.24
678.092	39.39
678.279	39.73
678.465	39.61
678.651	39.45
678.838	39.82
679.024	39.44
679.21	39.23
679.397	39.17
679.583	39.2
679.769	38.86
679.955	38.55
680.142	38.03
680.328	38.07
680.514	37.89
680.7	37.56
680.886	37.04
681.073	37.3
681.259	38.02
681.445	37.76
681.631	37.68
681.817	38.15
682.003	38.24
682.189	38.36
682.375	38.68
682.561	39.26
682.747	39.43
682.933	39.62
683.119	39.76
683.305	39.5
683.491	39.52
683.677	39.68
683.863	39.52
684.049	39.73
684.235	40.25
684.42	40.16
684.606	39.13
684.792	39.77
684.978	39.86
685.164	39.78
685.349	39.97
685.535	40.04
685.721	39.62
685.907	39.71
686.092	39.32
686.278	39.47
686.464	39.35
686.649	40.47
686.835	39.96
687.021	40.49
687.206	40.56
687.392	40.74
687.577	41.09
687.763	41.8
687.948	41.9
688.134	42.19
688.319	41.89
688.505	41.53
688.69	40.88
688.876	40.93
689.061	40.34
689.247	40.76
689.432	40.69
689.618	39.94
689.803	39.41
689.988	39.32
690.174	39.39
690.359	39.12
690.544	39.83
690.73	40.15
690.915	40.2
691.1	39.92
691.285	39.63
691.471	39.12
691.656	39.4
691.841	39.51
692.026	39.6
692.211	39.21
692.396	39.61
692.582	39.82
692.767	40.01
692.952	39.89
693.137	40.4
693.322	40.09
693.507	40.88
693.692	40.83
693.877	41.21
694.062	41.3
694.247	42.68
694.432	42.6
694.617	41.64
694.802	41.39
694.987	41.48
695.172	41.85
695.357	42.34
695.541	41.57
695.726	42.02
695.911	42.22
696.096	41.79
696.281	40.94
696.466	41.42
696.65	41.8
696.835	42.11
697.02	41.65
697.204	42.34
697.389	41.85
697.574	41.93
697.759	41.84
697.943	41.37
698.128	41.89
698.312	41.93
698.497	41.21
698.682	41.08
698.866	40.75
699.051	41.03
699.235	39.94
699.42	40.14
699.604	40.1
699.789	39.93
699.973	39.86
700.158	39.52
700.342	39.15
700.527	39.5
700.711	39.43
700.895	39.4
701.08	39.53
701.264	40.36
701.448	39.86
701.633	40.21
701.817	40.62
702.001	41.19
702.186	40.88
702.37	41.1
702.554	41.83
702.738	41.81
702.923	42.19
703.107	42.37
703.291	41.99
703.475	43.07
703.659	42.89
703.843	42.44
704.027	41.81
704.212	41.89
704.396	42.55
704.58	41.9
704.764	42.12
704.948	41.65
705.132	41.63
705.316	42.28
705.5	42.46
705.684	42.95
705.868	43.37
706.052	44.14
706.235	45.45
706.419	44.87
706.603	44.82
706.787	44.39
706.971	44.19
707.155	43.69
707.339	43.03
707.522	42.53
707.706	42.32
707.89	41.96
708.074	41.67
708.257	40.63
708.441	41.12
708.625	41.04
708.808	41.47
708.992	41.89
709.176	42.47
709.359	42.59
709.543	42.47
709.727	42.57
709.91	43.49
710.094	43.52
710.277	43.79
710.461	43.8
710.644	44.48
710.828	45.09
711.011	44.82
711.195	44.58
711.378	44.43
711.562	44
711.745	43.44
711.928	42.52
712.112	41.91
712.295	41.66
712.478	41.25
712.662	41.17
712.845	40.6
713.028	40.65
713.212	40.97
713.395	40.65
713.578	41.13
713.761	41.72
713.945	42.28
714.128	42.9
714.311	43.02
714.494	43.02
714.677	42.14
714.86	42.35
715.043	42.59
715.227	42.15
715.41	42.9
715.593	43.1
715.776	43.18
715.959	43.11
716.142	43.11
716.325	43.1
716.508	43.06
716.691	43.2
716.874	42.86
717.057	42.56
717.239	42.78
717.422	42.44
717.605	42.09
717.788	41.78
717.971	42.46
718.154	42.74
718.337	43.07
718.519	42.81
718.702	42.97
718.885	42.86
719.068	43.27
719.25	44.42
719.433	45.01
719.616	45.63
719.798	45.89
719.981	44.82
720.164	44.38
720.346	44.69
720.529	45.54
720.712	45.94
720.894	46.48
721.077	45.83
721.259	44.64
721.442	44.7
721.624	44.94
721.807	45.04
721.989	45.4
722.172	45.07
722.354	44.76
722.537	44.81
722.719	44.22
722.901	44.39
723.084	44.89
723.266	44.81
723.448	44.08
723.631	43.78
723.813	44.08
723.995	43.75
724.178	44.34
724.36	43.96
724.542	43.24
724.724	43.68
724.907	43.67
725.089	44.6
725.271	45
725.453	44.45
725.635	43.93
725.817	43.43
725.999	43.44
726.181	44.35
726.364	44.15
726.546	45.19
726.728	45.24
726.91	44.96
727.092	44.33
727.274	44.55
727.456	45.4
727.638	45.44
727.819	45.41
728.001	44.82
728.183	43.24
728.365	43.6
728.547	43.61
728.729	43.67
728.911	44.26
729.093	44.04
729.274	43.13
729.456	43.08
729.638	43.35
729.82	43.22
730.001	43.37
730.183	44.46
730.365	43.86
730.546	42.66
730.728	42.24
730.91	41.13
731.091	41.46
731.273	42.24
731.455	42.38
731.636	43.08
731.818	43.47
731.999	43.54
732.181	42.91
732.362	43.08
732.544	44.6
732.725	44.16
732.907	44.42
733.088	44.49
733.27	45.18
733.451	44.66
733.633	44.37
733.814	44.49
733.995	45.14
734.177	45.69
734.358	46.06
734.539	45.53
734.721	47.02
734.902	46.98
735.083	46.82
735.264	46.69
735.446	47.24
735.627	47.12
735.808	47.26
735.989	47.9
736.17	48.27
736.351	48.82
736.533	48.76
736.714	47.43
736.895	47.59
737.076	46.6
737.257	46.44
737.438	46.05
737.619	45.56
737.8	44.44
737.981	43.63
738.162	43.08
738.343	42.3
738.524	42.98
738.705	44.11
738.886	44.03
739.067	45.36
739.247	45.41
739.428	45.52
739.609	45.09
739.79	46.26
739.971	45.68
740.151	45.07
740.332	45.6
740.513	45.67
740.694	45.46
740.874	46.24
741.055	45.9
741.236	45.18
741.417	45.28
741.597	46.33
741.778	46.17
741.958	45.86
742.139	46.72
742.32	45.7
742.5	44.81
742.681	45.71
742.861	44.5
743.042	44.1
743.222	43.39
743.403	43.47
743.583	43.92
743.764	43.57
743.944	44.5
744.124	45.38
744.305	46.02
744.485	46.38
744.666	45.38
744.846	46.57
745.026	47.98
745.207	49.74
745.387	50.07
745.567	49.35
745.747	48.82
745.928	47.74
746.108	47.47
746.288	47.32
746.468	47.62
746.648	46.71
746.829	46.53
747.009	46.18
747.189	45.86
747.369	44.92
747.549	44.49
747.729	45.84
747.909	46.57
748.089	45.55
748.269	45.73
748.449	45.47
748.629	46.88
748.809	45.71
748.989	45.6
749.169	44.71
749.349	44.43
749.529	44.62
749.709	43.9
749.889	44.23
750.068	44.13
750.248	44.25
750.428	44.4
750.608	43.2
750.788	44.81
750.967	44.05
751.147	43.91
751.327	45.79
751.507	45.66
751.686	46.21
751.866	47.6
752.046	46.87
752.225	46.92
752.405	46.37
752.585	46.59
752.764	47.15
752.944	47.27
753.123	48.25
753.303	47.32
753.482	47.38
753.662	46.96
753.841	45.36
754.021	46.3
754.2	47.01
754.38	47.03
754.559	47.08
754.739	46.46
754.918	47.12
755.097	45.93
755.277	45.79
755.456	45.97
755.635	46.75
755.815	46.6
755.994	46.23
756.173	44.61
756.352	44.35
756.532	44.44
756.711	42.97
756.89	42.84
757.069	43.85
757.248	43.33
757.427	41.88
757.607	41.24
757.786	41.42
757.965	40.59
758.144	40.85
758.323	41.37
758.502	41.91
758.681	41.91
758.86	41.55
759.039	41.02
759.218	41.13
759.397	42.69
759.576	41.96
759.755	41.55
759.934	41.9
760.113	43.26
760.291	42.76
760.47	43.45
760.649	44.36
760.828	44.03
761.007	42.56
761.186	43.08
761.364	41.83
761.543	41.92
761.722	42.86
761.901	43.28
762.079	43.65
762.258	43.5
762.437	42.52
762.615	42.3
762.794	42.61
762.972	43.99
763.151	43.15
763.33	43.42
763.508	43.86
763.687	43.75
763.865	44.59
764.044	43.92
764.222	43.71
764.401	43.51
764.579	43.09
764.758	43.43
764.936	44.19
765.114	45.16
765.293	46.24
765.471	46.02
765.65	45.74
765.828	45.46
766.006	46.04
766.184	46.32
766.363	46.58
766.541	46.89
766.719	45.79
766.898	44.19
767.076	43.42
767.254	42.58
767.432	43.88
767.61	44.28
767.788	44.18
767.967	42.68
768.145	43.24
768.323	43.43
768.501	43.18
768.679	44.41
768.857	45.73
769.035	48.04
769.213	49.53
769.391	48.26
769.569	48.36
769.747	49.15
769.925	49.91
770.103	50.29
770.281	50.16
770.459	51.29
770.636	50.34
770.814	49.77
770.992	48.43
771.17	48.72
771.348	49.56
771.525	49.7
771.703	49.26
771.881	49.18
772.059	49.74
772.236	49.02
772.414	48.97
772.592	49.5
772.769	49.38
772.947	49.44
773.125	47.89
773.302	47.55
773.48	48.6
773.657	49.11
773.835	48.69
774.013	48.53
774.19	49.94
774.368	47.94
774.545	48.82
774.723	48.51
774.9	49.14
775.077	48.57
775.255	48.43
775.432	47.8
775.61	47.03
775.787	47.48
775.964	47.15
776.142	46.35
776.319	48.55
776.496	48.42
776.674	48.71
776.851	47.26
777.028	48.24
777.205	47.57
777.382	47.8
777.56	49.58
777.737	54.43
777.914	54.3
778.091	56.19
778.268	55.54
778.445	55.42
778.622	55.37
778.8	55.42
778.977	56.24
779.154	61.4
779.331	61.53
779.508	59.02
779.685	54.77
779.862	54.11
780.038	52.26
780.215	54.76
780.392	54.8
780.569	56.02
780.746	57.02
780.923	54.87
781.1	48.52
781.277	46.34
781.453	45.7
781.63	44.83
781.807	46.05
781.984	46.16
782.16	43.29
782.337	44.4
782.514	43.71
782.691	42.68
782.867	43.52
783.044	46.32
783.221	49.44
783.397	51.65
783.574	53.44
783.75	50.87
783.927	52.89
784.103	55.93
784.28	54.32
784.456	54.8
784.633	56.44
784.809	56.66
784.986	52.69
785.162	53.02
785.339	49.43
785.515	47.74
785.692	49.74
785.868	49.34
786.044	49.03
786.221	49.84
786.397	51.15
786.573	49.07
786.749	49.99
786.926	53.42
787.102	53.35
787.278	54.61
787.454	56.39
787.631	57.1
787.807	54.89
787.983	55.56
788.159	56.69
788.335	54.45
788.511	54.69
788.687	53.84
788.863	53.8
789.039	51.37
789.216	51.84
789.392	50.37
789.568	48.8
789.744	51.2
789.919	48.32
790.095	46.23
790.271	47.31
790.447	49.05
790.623	50.02
790.799	49.92
790.975	51.2
791.151	51.94
791.327	52.05
791.502	52.35
791.678	52.03
791.854	54.19
792.03	53.97
792.205	54.67
792.381	53.15
792.557	51.26
792.733	50.64
792.908	50.13
793.084	49.83
793.259	51.12
793.435	51.64
793.611	52.36
793.786	50.18
793.962	50.12
794.137	48.46
794.313	48.41
794.488	50.09
794.664	50.32
794.839	50.79
795.015	50.24
795.19	46.56
795.366	49.19
795.541	48.87
795.716	47.65
795.892	49.96
796.067	50.53
796.242	50.95
796.418	48.8
796.593	51.13
796.768	51.02
796.944	51.95
797.119	52.61
797.294	51.3
797.469	53.28
797.644	54.36
797.82	53.46
797.995	53.57
798.17	55.4
798.345	56.82
798.52	53.44
798.695	53.99
798.87	52.43
799.045	55.34
799.22	54.1
799.395	52.83
799.57	53.92
799.745	54.4
799.92	53.82
800.095	51.88
800.27	51.43
800.445	51.1
800.62	47.45
800.795	47.86
800.97	48.55
801.145	49.14
801.319	46.5
801.494	44.86
801.669	46.04
801.844	46.95
802.018	46.35
802.193	49.41
802.368	49.92
802.543	52.1
802.717	53.32
802.892	51.59
803.067	52.1
803.241	52.55
803.416	53.11
803.59	53.35
803.765	52.42
803.94	54.48
804.114	49.24
804.289	52.21
804.463	51.03
804.638	49.06
804.812	51.57
804.986	51.64
805.161	52.84
805.335	53.05
805.51	50.28
805.684	50.61
805.858	49.93
806.033	51.37
806.207	46.66
806.381	49.41
806.556	52.19
806.73	49.82
806.904	51
807.078	51.22
807.253	53.05
807.427	53.67
807.601	54.29
807.775	55.11
807.949	56.54
808.123	57.45
808.298	57.18
808.472	56.72
808.646	57.36
808.82	57.31
808.994	55.62
809.168	52.97
809.342	56.05
809.516	56.63
809.69	57.5
809.864	57.43
810.038	58.64
810.212	60.63
810.385	59.02
810.559	60.14
810.733	56.81
810.907	58.42
811.081	59.79
811.255	58.16
811.428	56.66
811.602	53.24
811.776	55.66
811.95	58.6
812.123	54.62
812.297	55.62
812.471	53.4
812.644	53.9
812.818	52.89
812.992	54.74
813.165	54.62
813.339	54.38
813.512	56.31
813.686	53.29
813.86	55.13
814.033	55.98
814.207	53.9
814.38	53.79
814.554	53.89
814.727	54.45
814.9	56.89
815.074	53.29
815.247	52.27
815.421	50.44
815.594	51.78
815.767	48.58
815.941	46.44
816.114	50.61
816.287	51.86
816.46	53.87
816.634	51.81
816.807	49.75
816.98	52.54
817.153	55.98
817.327	59.14
817.5	55.76
817.673	58.06
817.846	61.34
818.019	60.88
818.192	59.79
818.365	55.17
818.538	59.56
818.711	57.26
818.884	54.12
819.057	51.98
819.23	48.76
819.403	52.13
819.576	50.64
819.749	50.55
819.922	48.97
820.095	50.22
820.268	51.49
820.441	49.91
820.614	49.32
820.786	49.37
820.959	50.4
821.132	49.53
821.305	46.16
821.477	44.5
821.65	43.43
821.823	43.14
821.996	42.83
822.168	43.69
822.341	42.38
822.514	42.76
822.686	42.32
822.859	41.15
823.031	40.71
823.204	40.62
823.376	40.78
823.549	40.41
823.722	40.26
823.894	40.55
824.067	40.08
824.239	40.01
824.411	39.5
824.584	40.01
824.756	40.39
824.929	41
825.101	42
825.273	42.19
825.446	42.89
825.618	42.9
825.79	43.02
825.963	42.37
826.135	42.65
826.307	43.15
826.479	43.61
826.652	43.72
826.824	43.73
826.996	43.19
827.168	43.98
827.34	43.97
827.512	45.1
827.684	44.25
827.856	45.56
828.029	46.39
828.201	45.74
828.373	45.37
828.545	46.61
828.717	48.02
828.889	48.12
829.061	48.35
829.232	48.25
829.404	47.99
829.576	49.4
829.748	50.2
829.92	51.86
830.092	53.96
830.264	53.52
830.436	53.02
830.607	51.5
830.779	51.69
830.951	52.14
831.123	52.45
831.294	53.69
831.466	52.9
831.638	51.27
831.809	49.47
831.981	47.7
832.153	50.12
832.324	48.7
832.496	48.25
832.667	51.34
832.839	51.4
833.011	52.22
833.182	51.41
833.354	48.39
833.525	46.25
833.697	44.23
833.868	45.78
834.039	44.87
834.211	44.78
834.382	46.25
834.554	46.13
834.725	44.52
834.896	43.67
835.068	43.14
835.239	44.8
835.41	47.74
835.581	48.44
835.753	49.43
835.924	50.14
836.095	49.68
836.266	48.07
836.438	46.06
836.609	47.48
836.78	47.53
836.951	48.22
837.122	46.12
837.293	45.8
837.464	47.36
837.635	46.45
837.806	43.61
837.977	46.02
838.148	51.5
838.319	54.41
838.49	55.55
838.661	54.33
838.832	56.89
839.003	59.62
839.174	56.55
839.345	59.1
839.516	57.24
839.687	63.1
839.857	59.41
840.028	58.07
840.199	53.69
840.37	53.08
840.54	58.47
840.711	54
840.882	56.71
841.053	60.46
841.223	60.44
841.394	67.55
841.564	72.97
841.735	79.79
841.906	77.18
842.076	79.76
842.247	79.85
842.417	79.84
842.588	83.54
842.758	85.77
842.929	84.61
843.099	82.05
843.27	74.85
843.44	72.01
843.611	71.89
843.781	73.2
843.951	77.69
844.122	75.13
844.292	63.63
844.462	63.22
844.633	63.66
844.803	60.92
844.973	61.1
845.144	68.41
845.314	61.82
845.484	63.59
845.654	62.44
845.824	67.54
845.995	63.7
846.165	76.11
846.335	75.07
846.505	72.04
846.675	77.85
846.845	72.89
847.015	77.71
847.185	78.56
847.355	73.91
847.525	80.73
847.695	74.47
847.865	101.55
848.035	100.41
848.205	92.64
848.375	101.02
848.545	98.86
848.715	99.67
848.884	83.27
849.054	82.64
849.224	82.22
849.394	78.31
849.564	76.55
849.733	75.79
849.903	73.35
850.073	78.15
850.243	78.64
850.412	83.36
850.582	86.88
850.752	86.99
850.921	82.64
851.091	96.26
851.26	109.47
851.43	96.49
851.599	86.02
851.769	82.53
851.939	85.8
852.108	75.01
852.278	73.55
852.447	76.13
852.616	83.78
852.786	91.68
852.955	88.48
853.125	82.9
853.294	100.42
853.463	102.76
853.633	105.75
853.802	112.04
853.971	136.04
854.141	138.17
854.31	133.78
854.479	128.24
854.648	143.97
854.818	125.1
854.987	124.93
855.156	107.49
855.325	100.25
855.494	107.91
855.663	114.67
855.832	103.69
856.001	103.18
856.171	97.49
856.34	114.23
856.509	124.4
856.678	128.74
856.847	120.18
857.016	124.67
857.185	118.08
857.353	127.35
857.522	114.39
857.691	107.45
857.86	97.88
858.029	109.52
858.198	94.44
858.367	83.34
858.535	82.22
858.704	89.31
858.873	90.44
859.042	93.83
859.21	83.47
859.379	80.37
859.548	66.58
859.717	75.89
859.885	82
860.054	80.01
860.222	74.38
860.391	70.82
860.56	76.76
860.728	76.74
860.897	84.29
861.065	87.56
861.234	88.44
861.402	92.92
861.571	90.2
861.739	89.13
861.908	85.52
862.076	94.24
862.244	90.94
862.413	88.92
862.581	95.25
862.749	88.71
862.918	81.18
863.086	91.66
863.254	96.09
863.423	99.31
863.591	75.23
863.759	82.84
863.927	65.79
864.096	64.33
864.264	52.63
864.432	50.52
864.6	52.53
864.768	57.11
864.936	43.97
865.104	45.04
865.272	51.11
865.44	63.42
865.608	70.07
865.776	81.67
865.944	93.19
866.112	105.19
866.28	103.01
866.448	99.81
866.616	113.14
866.784	110.8
866.952	112.02
867.12	134.37
867.288	130.32
867.455	137.76
867.623	137.31
867.791	129.78
867.959	125.25
868.127	133.02
868.294	113.43
868.462	92.59
868.63	101.24
868.797	121.03
868.965	88.07
869.133	74.76
869.3	66.58
869.468	82.49
869.636	79.81
869.803	68.64
869.971	56.09
870.138	54.17
870.306	50.83
870.473	50.33
870.641	28.08
870.808	35.95
870.975	44.34
871.143	50.67
871.31	43.04
871.478	30.18
871.645	45.67
871.812	81.96
871.98	93.77
872.147	98.96
872.314	101.28
872.482	106.97
872.649	109.86
872.816	116.61
872.983	118.69
873.15	126.07
873.318	134.93
873.485	148.57
873.652	121.06
873.819	125.87
873.986	132.37
874.153	128.99
874.32	146.99
874.487	146.19
874.654	154.31
874.821	175.65
874.988	180.66
875.155	182.38
875.322	142.51
875.489	167.79
875.656	155.78
875.823	150.95
875.99	128.66
876.157	102.23
876.324	91.68
876.49	85.01
876.657	76.96
876.824	73.93
876.991	65.26
877.157	71.64
877.324	66.7
877.491	68.99
877.658	65.05
877.824	70.03
877.991	63.52
878.157	67.91
878.324	72.36
878.491	68.83
878.657	66.03
878.824	71.49
878.99	68.56
879.157	75.05
879.323	65.42
879.49	70.07
879.656	62.97
879.823	80.92
879.989	81.19
880.156	81.58
880.322	76.34
880.488	78.03
880.655	71.59
880.821	68.23
880.987	64.68
881.154	69.2
881.32	69.09
881.486	70.22
881.652	63.34
881.819	61.2
881.985	58.23
882.151	60.13
882.317	55.62
882.483	58.43
882.649	57.91
882.816	57.78
882.982	59.26
883.148	56.32
883.314	53.9
883.48	51.65
883.646	50
883.812	50.86
883.978	51.05
884.144	51.77
884.31	52.16
884.476	52.24
884.642	49.94
884.807	46.98
884.973	46.54
885.139	46.81
885.305	47.97
885.471	49.13
885.637	47.02
885.802	46
885.968	45.92
886.134	46.26
886.3	47.04
886.465	46.09
886.631	48.56
886.797	52.68
886.962	55.56
887.128	57.78
887.293	58.52
887.459	55.72
887.625	56
887.79	58.83
887.956	54.78
888.121	54.19
888.287	59.32
888.452	59.62
888.618	53.1
888.783	53.88
