Data from CB_047_Reflection_1.txt Node
Date: Wed Nov 11 22:26:07 EST 2015
User: robert
Spectrometer: USB4E03001
Autoset integration time: false
Trigger mode: 4
Integration Time (sec): 1.000000E-1
Scans to average: 15
Electric dark correction enabled: true
Nonlinearity correction enabled: false
Boxcar width: 5
Stray light correction enabled: false
XAxis mode: Wavelengths
Stop averaging: false
Number of Pixels in Spectrum: 3648
>>>>>Begin Spectral Data<<<<<
177.566	-64.6
177.785	-885.53
178.005	118.58
178.225	437.88
178.445	12.77
178.665	28.55
178.885	567.3
179.105	-55.68
179.324	3.57
179.544	40.66
179.764	69.53
179.984	26.8
180.204	24.75
180.423	10.49
180.643	10.96
180.863	31.97
181.083	34.25
181.302	47.07
181.522	40.19
181.742	35.56
181.961	54.8
182.181	51.87
182.401	70.33
182.621	82.96
182.84	85.83
183.06	85.5
183.279	76.37
183.499	92.76
183.719	86.72
183.938	88.99
184.158	104.99
184.377	82.83
184.597	104.65
184.816	113.4
185.036	88.77
185.256	82.02
185.475	100.01
185.695	116.56
185.914	88.11
186.134	126.36
186.353	118.44
186.572	97.04
186.792	100.82
187.011	72.94
187.231	60.68
187.45	71.4
187.67	54.99
187.889	38.73
188.108	59.83
188.328	58.95
188.547	56.56
188.766	71.2
188.986	56.62
189.205	45.58
189.424	50.73
189.644	62.89
189.863	64.56
190.082	82.2
190.302	65.21
190.521	37.79
190.74	30.93
190.959	38.98
191.178	25.86
191.398	33.57
191.617	29.92
191.836	24.39
192.055	19.41
192.274	18.24
192.494	14.3
192.713	36.54
192.932	64.56
193.151	75.06
193.37	69.69
193.589	102.22
193.808	105.06
194.027	124.34
194.246	109.57
194.465	110.44
194.685	108.13
194.904	91.2
195.123	78.09
195.342	65.4
195.561	63.43
195.78	68.11
195.999	67.92
196.218	71.03
196.436	78.69
196.655	78.11
196.874	87.01
197.093	84.06
197.312	67.86
197.531	49.1
197.75	52.11
197.969	60.4
198.188	38.23
198.407	11.49
198.625	28.49
198.844	27.29
199.063	36
199.282	24.61
199.501	9.95
199.719	-0.03
199.938	55.59
200.157	15.46
200.376	21.29
200.594	44.83
200.813	60.81
201.032	53.87
201.251	48.3
201.469	47.94
201.688	46.18
201.907	49.14
202.125	39.53
202.344	36.63
202.563	64.52
202.781	66.96
203	64.92
203.218	57.85
203.437	71.8
203.656	62.03
203.874	48.65
204.093	53.98
204.311	71.35
204.53	80.7
204.748	72.93
204.967	59.98
205.185	53.34
205.404	59.27
205.622	77.28
205.841	61.89
206.059	58.24
206.278	91.01
206.496	86.28
206.715	76.73
206.933	82.79
207.151	82.44
207.37	77.15
207.588	71.16
207.806	62.93
208.025	64.44
208.243	49.33
208.461	48.43
208.68	33.71
208.898	36.16
209.116	17.39
209.335	24.07
209.553	2.59
209.771	12.28
209.989	32.39
210.208	32.07
210.426	18.77
210.644	39.63
210.862	56.91
211.081	57.96
211.299	54.01
211.517	83.24
211.735	57.25
211.953	72.15
212.171	79.38
212.39	76.55
212.608	81.42
212.826	82.47
213.044	91.34
213.262	77.47
213.48	89.53
213.698	82
213.916	93.55
214.134	102.07
214.352	114.98
214.57	69.04
214.788	92.68
215.006	89.09
215.224	58.81
215.442	-2.85
215.66	-31.38
215.878	22.95
216.096	30.84
216.314	15.18
216.532	19.67
216.75	16.64
216.968	39.08
217.185	37.15
217.403	49.44
217.621	46.66
217.839	53.27
218.057	57.97
218.275	58.86
218.492	60.84
218.71	63.34
218.928	58.73
219.146	60.14
219.363	59.88
219.581	52.94
219.799	33.5
220.017	37.76
220.234	32.18
220.452	31.29
220.67	36.87
220.887	40.91
221.105	44.32
221.323	33.61
221.54	32.81
221.758	41.18
221.976	48.02
222.193	57.72
222.411	61.92
222.629	72.47
222.846	75.4
223.064	66.31
223.281	73.36
223.499	64.75
223.716	66.67
223.934	70.78
224.151	64.32
224.369	67.69
224.586	62.32
224.804	60.45
225.021	48.45
225.239	41.41
225.456	56.16
225.674	43.4
225.891	44.71
226.108	46.77
226.326	29.87
226.543	31.92
226.76	22.94
226.978	16.6
227.195	13.09
227.413	17.16
227.63	23.18
227.847	16.67
228.064	17.18
228.282	13.16
228.499	11.73
228.716	15.2
228.934	13.47
229.151	13.31
229.368	14.18
229.585	15.1
229.802	15.42
230.02	10.28
230.237	8.44
230.454	9.89
230.671	9.77
230.888	9.89
231.105	9.9
231.323	12.7
231.54	20.11
231.757	15.39
231.974	14.66
232.191	8.52
232.408	12.15
232.625	17.87
232.842	18.22
233.059	19.33
233.276	17.49
233.493	17.78
233.71	14.87
233.927	7.33
234.144	15.59
234.361	20.05
234.578	26.81
234.795	26.63
235.012	23.52
235.229	18.57
235.446	24.09
235.663	23.93
235.879	24.5
236.096	22.33
236.313	19.82
236.53	22.33
236.747	23.71
236.964	24.06
237.181	27.45
237.397	24.71
237.614	27.88
237.831	24.37
238.048	26.31
238.264	25.13
238.481	23.17
238.698	21.3
238.915	19.77
239.131	13.96
239.348	13.09
239.565	10.48
239.781	15.1
239.998	14.09
240.215	12.31
240.431	13.45
240.648	15.92
240.865	16.53
241.081	19.91
241.298	17.72
241.514	18.49
241.731	17.87
241.947	17.08
242.164	17.6
242.38	16.94
242.597	17.02
242.814	16.77
243.03	17.3
243.246	19.46
243.463	18.98
243.679	19.33
243.896	21.46
244.112	23.53
244.329	27.01
244.545	25.3
244.762	26.65
244.978	26.5
245.194	26.23
245.411	22.81
245.627	19.92
245.843	17.87
246.06	17.66
246.276	15.5
246.492	14.12
246.709	12.35
246.925	12.83
247.141	12.49
247.357	11.6
247.574	11.82
247.79	12.45
248.006	12.63
248.222	14.02
248.439	13.8
248.655	13.82
248.871	13.26
249.087	13.52
249.303	13.15
249.519	12.83
249.736	13.69
249.952	12
250.168	12.52
250.384	10.32
250.6	7.44
250.816	10.05
251.032	10.16
251.248	10.76
251.464	8.52
251.68	11.73
251.896	13.23
252.112	13.29
252.328	14.02
252.544	12.01
252.76	12.9
252.976	13.74
253.192	11.16
253.408	10.22
253.624	11.82
253.84	12.77
254.056	10.72
254.272	12.12
254.487	12.17
254.703	14.18
254.919	16.3
255.135	16.35
255.351	18.86
255.567	19.85
255.782	20.83
255.998	19.15
256.214	20.88
256.43	20.7
256.646	18.95
256.861	19.16
257.077	16.48
257.293	14.85
257.508	15.96
257.724	13.97
257.94	14.34
258.155	12.85
258.371	12.47
258.587	12.34
258.802	11.61
259.018	11.47
259.234	10.36
259.449	11.39
259.665	11.06
259.88	10.98
260.096	10.35
260.312	9.78
260.527	10.22
260.743	9.87
260.958	9.89
261.174	9.89
261.389	10.19
261.605	10.84
261.82	10.65
262.036	11.3
262.251	11.56
262.466	11.92
262.682	12.73
262.897	13.31
263.113	13.35
263.328	12.77
263.543	12.59
263.759	10.01
263.974	10.58
264.189	9.91
264.405	8.86
264.62	6.35
264.835	6.76
265.051	5.05
265.266	5.8
265.481	6.96
265.696	7.22
265.912	9.25
266.127	11.5
266.342	10.95
266.557	10.84
266.773	10.66
266.988	11.73
267.203	10.44
267.418	11.53
267.633	11.47
267.848	11.96
268.064	9.82
268.279	9.54
268.494	8.21
268.709	8.11
268.924	10.07
269.139	10.14
269.354	10.63
269.569	11.03
269.784	12.35
269.999	11.38
270.214	9.91
270.429	11.76
270.644	10.31
270.859	10.83
271.074	10.03
271.289	8.38
271.504	8.81
271.719	8.07
271.934	8.2
272.149	7.15
272.363	7.84
272.578	9.36
272.793	8.86
273.008	8.74
273.223	8.23
273.438	8.59
273.653	10.6
273.867	11.23
274.082	11.9
274.297	12
274.512	12.42
274.726	10.57
274.941	10.23
275.156	11.64
275.371	12.22
275.585	13
275.8	12.36
276.015	9.33
276.229	8.69
276.444	9.01
276.659	9.48
276.873	9.31
277.088	10.68
277.302	10.5
277.517	9.42
277.732	11
277.946	11.25
278.161	13.65
278.375	14.02
278.59	14.77
278.804	13.9
279.019	13.69
279.233	14.33
279.448	15.23
279.662	14.79
279.877	15.07
280.091	13.69
280.306	13.46
280.52	11.45
280.735	12.03
280.949	11.32
281.163	11.96
281.378	11.01
281.592	8.77
281.806	8.16
282.021	7.72
282.235	7.31
282.449	7.32
282.664	6.63
282.878	6.43
283.092	6.72
283.307	7.93
283.521	7.54
283.735	9.27
283.949	11.04
284.164	11.46
284.378	11.33
284.592	12.06
284.806	12.61
285.02	12.87
285.234	14.15
285.449	13.16
285.663	12.6
285.877	13.16
286.091	12.63
286.305	11.79
286.519	11.16
286.733	11.71
286.947	11.01
287.161	10.72
287.375	10.73
287.589	11.25
287.803	11.33
288.017	10.34
288.231	10.17
288.445	11.26
288.659	10.69
288.873	11.1
289.087	11.29
289.301	11.93
289.515	12.15
289.729	11.67
289.943	9.91
290.157	10.11
290.371	10.45
290.584	10.35
290.798	9.59
291.012	11.2
291.226	11.8
291.44	11
291.654	11.28
291.867	10.86
292.081	11.09
292.295	12.85
292.509	13.07
292.722	13.07
292.936	12.37
293.15	13.25
293.364	13.2
293.577	12.95
293.791	12.52
294.005	11.11
294.218	11.45
294.432	12.82
294.645	11.21
294.859	10.47
295.073	10.72
295.286	10.88
295.5	8.61
295.713	8.55
295.927	7.81
296.14	8.36
296.354	9.43
296.568	9.07
296.781	8.17
296.994	9.24
297.208	10.46
297.421	10.65
297.635	10.85
297.848	11.74
298.062	11.48
298.275	11.73
298.489	11.99
298.702	11.77
298.915	12.78
299.129	13.67
299.342	12.9
299.555	13.16
299.769	13.82
299.982	13.86
300.195	14.18
300.409	13.91
300.622	13.93
300.835	12.74
301.048	11.46
301.262	11.3
301.475	10.49
301.688	10.33
301.901	9.37
302.115	7.74
302.328	8.15
302.541	8.38
302.754	8.69
302.967	8.5
303.18	10.53
303.393	11.08
303.607	11
303.82	11.51
304.033	11.41
304.246	11.24
304.459	12.14
304.672	12.51
304.885	13.02
305.098	12.96
305.311	14.24
305.524	12.34
305.737	13.3
305.95	12.84
306.163	12.56
306.376	13.36
306.589	13.56
306.802	13.67
307.015	14.03
307.228	12.89
307.44	13.19
307.653	13.34
307.866	14.55
308.079	14.88
308.292	13.73
308.505	13.79
308.718	12.84
308.93	14.01
309.143	13.84
309.356	12.96
309.569	13.67
309.781	13.82
309.994	13.2
310.207	13.05
310.42	12.47
310.632	13.72
310.845	13.34
311.058	13.89
311.27	12.98
311.483	13.44
311.696	13.91
311.908	13.82
312.121	13.37
312.333	12.91
312.546	12.84
312.759	13.07
312.971	12.6
313.184	12.61
313.396	12.84
313.609	13.61
313.821	13.54
314.034	13.5
314.246	13.61
314.459	14.41
314.671	15.46
314.884	16.55
315.096	16.87
315.309	16.36
315.521	16.4
315.733	16.49
315.946	16.22
316.158	15.18
316.371	15.09
316.583	14.66
316.795	14.62
317.008	14.45
317.22	14.22
317.432	14.14
317.644	15.18
317.857	16.55
318.069	15.68
318.281	14.12
318.494	14.97
318.706	14.89
318.918	14.92
319.13	15.23
319.342	14.64
319.555	13.84
319.767	14.61
319.979	13.36
320.191	12.16
320.403	14.11
320.615	14.87
320.827	15.57
321.039	15.23
321.252	14.85
321.464	14.57
321.676	14.32
321.888	14.5
322.1	13.3
322.312	14.24
322.524	15.38
322.736	14.2
322.948	14.72
323.16	14
323.372	13.89
323.584	14.64
323.796	15.14
324.007	15.56
324.219	16.61
324.431	16.29
324.643	16.18
324.855	15.67
325.067	15.89
325.279	15.89
325.491	16.15
325.702	16.14
325.914	16.65
326.126	16.51
326.338	14.81
326.55	13.11
326.761	13.68
326.973	14.55
327.185	14.75
327.396	14.9
327.608	14.13
327.82	15.34
328.032	15.61
328.243	15.43
328.455	15.97
328.666	18.32
328.878	19.79
329.09	20.44
329.301	19.35
329.513	19.68
329.725	18.93
329.936	20.74
330.148	19.14
330.359	19.77
330.571	19.73
330.782	19.09
330.994	19.29
331.205	19.04
331.417	18.57
331.628	19.45
331.84	19.46
332.051	19.77
332.262	19.47
332.474	19.83
332.685	20.73
332.897	20.66
333.108	22.08
333.319	21.62
333.531	22.1
333.742	22.07
333.953	21.3
334.165	20.4
334.376	21.98
334.587	21.27
334.799	21.29
335.01	20.44
335.221	20.45
335.432	18.74
335.644	19
335.855	19.65
336.066	19.9
336.277	20.35
336.488	21.14
336.7	20.07
336.911	20.86
337.122	21.28
337.333	21.31
337.544	21.27
337.755	21.76
337.966	21.4
338.177	20.04
338.388	19.93
338.599	20.9
338.811	20.74
339.022	20.04
339.233	19.94
339.444	19.74
339.655	19.25
339.866	19.62
340.076	19.4
340.287	20.5
340.498	21.3
340.709	21.28
340.92	20.55
341.131	20.21
341.342	21.41
341.553	20.85
341.764	20.32
341.975	20.43
342.185	20.14
342.396	20.89
342.607	19.92
342.818	19.62
343.029	18.53
343.239	18.29
343.45	17.88
343.661	17.29
343.872	16.98
344.082	16.68
344.293	16.88
344.504	16.66
344.714	16.74
344.925	16.76
345.136	16.39
345.346	17.74
345.557	17.77
345.768	18.23
345.978	18.62
346.189	20.3
346.399	20.55
346.61	20.08
346.821	20.56
347.031	20.07
347.242	20.77
347.452	22.07
347.663	22.29
347.873	23.23
348.084	23.32
348.294	23.42
348.504	21.71
348.715	22.3
348.925	23.38
349.136	22.76
349.346	22.22
349.557	21.85
349.767	20.9
349.977	20.45
350.188	19.28
350.398	19.11
350.608	18.73
350.819	19.02
351.029	18.96
351.239	17.54
351.449	17.97
351.66	17.17
351.87	18.05
352.08	18.18
352.29	18.42
352.501	19.56
352.711	19.34
352.921	19.26
353.131	19.83
353.341	19.3
353.552	20.1
353.762	19.31
353.972	20.62
354.182	19.02
354.392	19.25
354.602	18.63
354.812	16.93
355.022	17.14
355.232	17.57
355.442	17.65
355.652	17.7
355.862	17.57
356.072	17.73
356.282	17.54
356.492	18.4
356.702	17.83
356.912	17.89
357.122	18.86
357.332	19.23
357.542	19.24
357.752	18.76
357.962	18.61
358.171	19.02
358.381	19.32
358.591	19.37
358.801	18.85
359.011	18.72
359.221	18.9
359.43	19.24
359.64	18.02
359.85	17.73
360.06	17.72
360.269	18.07
360.479	17.73
360.689	17.67
360.899	17.23
361.108	17.55
361.318	17.74
361.528	17.67
361.737	16.47
361.947	17.21
362.156	16.72
362.366	16.81
362.576	16.41
362.785	16.85
362.995	16.68
363.204	16.99
363.414	16.91
363.623	17.18
363.833	17.5
364.042	17.71
364.252	18.13
364.461	18.42
364.671	18.61
364.88	19.3
365.09	18.5
365.299	18.49
365.509	18.08
365.718	18.04
365.927	17.59
366.137	16.98
366.346	17.04
366.555	16.4
366.765	16.25
366.974	16
367.183	15.19
367.393	15.79
367.602	16.14
367.811	16.33
368.021	15.98
368.23	16.06
368.439	16.33
368.648	16.61
368.857	16.52
369.067	16.3
369.276	15.82
369.485	16.37
369.694	16.06
369.903	15.72
370.112	15.75
370.321	15.96
370.531	15.86
370.74	16.03
370.949	15.68
371.158	15.11
371.367	15.34
371.576	15.64
371.785	15.38
371.994	15.21
372.203	15.21
372.412	15.59
372.621	15.54
372.83	14.81
373.039	14.48
373.248	14.36
373.457	14.6
373.666	14.61
373.874	14.44
374.083	13.48
374.292	12.96
374.501	12.9
374.71	12.34
374.919	12.12
375.128	13.33
375.336	13.09
375.545	13.26
375.754	13.75
375.963	13.59
376.171	13.2
376.38	13.16
376.589	13.43
376.798	13.14
377.006	12.68
377.215	12.61
377.424	12.64
377.632	12.8
377.841	12.77
378.05	12.23
378.258	11.84
378.467	11.58
378.675	12.26
378.884	12.23
379.093	12.07
379.301	12.51
379.51	12.47
379.718	11.66
379.927	11.23
380.135	11.14
380.344	11.17
380.552	11.12
380.761	11.33
380.969	10.86
381.177	10.71
381.386	10.61
381.594	10.42
381.803	9.91
382.011	10.06
382.219	10.16
382.428	10.28
382.636	9.97
382.845	10.41
383.053	10.47
383.261	10.37
383.469	10.22
383.678	10.14
383.886	9.81
384.094	9.95
384.302	10.41
384.511	10.24
384.719	9.84
384.927	10.09
385.135	10.07
385.343	9.81
385.552	9.99
385.76	9.88
385.968	9.68
386.176	9.93
386.384	9.69
386.592	9.24
386.8	9.47
387.008	9.98
387.216	9.93
387.424	9.6
387.633	9.65
387.841	9.45
388.049	9.29
388.257	9.77
388.465	9.58
388.672	10.11
388.88	9.77
389.088	9.68
389.296	9.11
389.504	8.9
389.712	8.94
389.92	8.63
390.128	8.73
390.336	9.03
390.544	8.91
390.751	8.9
390.959	8.88
391.167	8.67
391.375	8.62
391.583	8.68
391.79	8.7
391.998	8.62
392.206	8.84
392.414	8.61
392.621	7.98
392.829	7.82
393.037	7.73
393.244	7.75
393.452	7.84
393.66	7.58
393.867	7.41
394.075	7.48
394.283	7.74
394.49	7.67
394.698	7.95
394.905	8.45
395.113	8.12
395.32	7.76
395.528	7.64
395.735	7.76
395.943	7.76
396.15	8.1
396.358	7.88
396.565	7.71
396.773	7.58
396.98	7.15
397.188	6.73
397.395	6.94
397.602	7.27
397.81	7.18
398.017	6.96
398.225	6.84
398.432	6.63
398.639	6.63
398.847	6.07
399.054	6.09
399.261	6.11
399.468	6.25
399.676	6.23
399.883	6.22
400.09	5.77
400.297	5.71
400.505	5.51
400.712	5.42
400.919	5.35
401.126	5.71
401.333	5.77
401.54	5.53
401.748	5.62
401.955	5.79
402.162	5.49
402.369	5.7
402.576	5.8
402.783	5.84
402.99	5.36
403.197	5.09
403.404	5.11
403.611	5.22
403.818	5.48
404.025	5.43
404.232	5.44
404.439	5.57
404.646	5.43
404.853	5.26
405.06	5.41
405.267	5.6
405.474	5.64
405.681	5.55
405.887	5.47
406.094	5.51
406.301	5.67
406.508	5.32
406.715	5.21
406.922	5.42
407.128	5.92
407.335	6.08
407.542	6.08
407.749	6
407.955	6.13
408.162	5.97
408.369	5.64
408.575	5.64
408.782	6.01
408.989	6.02
409.195	5.64
409.402	5.13
409.609	4.78
409.815	5.02
410.022	5.08
410.228	5.02
410.435	5.01
410.642	5.12
410.848	4.65
411.055	4.56
411.261	4.62
411.468	4.88
411.674	5.21
411.881	5.32
412.087	5.25
412.294	5.29
412.5	5.37
412.706	5.28
412.913	5.08
413.119	5.13
413.326	4.93
413.532	4.77
413.738	4.79
413.945	4.35
414.151	4.32
414.357	4.17
414.564	4.2
414.77	4.01
414.976	3.99
415.182	4.31
415.389	4.32
415.595	4.29
415.801	4.37
416.007	4.19
416.214	4.01
416.42	4.09
416.626	3.93
416.832	3.96
417.038	3.94
417.244	3.87
417.45	3.86
417.657	3.98
417.863	4.03
418.069	3.84
418.275	3.92
418.481	4.14
418.687	4.16
418.893	4.14
419.099	4.28
419.305	4.2
419.511	4.28
419.717	4.31
419.923	4.21
420.129	4.07
420.335	4.18
420.541	4.17
420.746	4.01
420.952	3.87
421.158	3.88
421.364	3.71
421.57	3.71
421.776	3.73
421.982	3.65
422.187	3.67
422.393	3.69
422.599	3.73
422.805	3.68
423.01	3.72
423.216	3.66
423.422	3.7
423.628	3.79
423.833	3.68
424.039	3.6
424.245	3.46
424.45	3.48
424.656	3.51
424.862	3.45
425.067	3.69
425.273	3.78
425.478	3.87
425.684	3.89
425.889	3.77
426.095	4.01
426.301	3.94
426.506	4.17
426.712	4.02
426.917	3.95
427.123	3.93
427.328	3.55
427.533	3.37
427.739	3.32
427.944	3.25
428.15	3.25
428.355	3.2
428.561	3.49
428.766	3.47
428.971	3.67
429.177	3.89
429.382	3.81
429.587	3.88
429.793	4.02
429.998	4.01
430.203	4.01
430.408	4.06
430.614	3.94
430.819	3.88
431.024	3.84
431.229	3.95
431.434	3.68
431.64	4.04
431.845	4.01
432.05	3.97
432.255	4.11
432.46	4.05
432.665	4.02
432.87	4.08
433.076	4.05
433.281	3.96
433.486	3.82
433.691	3.86
433.896	3.53
434.101	3.55
434.306	3.37
434.511	3.09
434.716	3.18
434.921	3.31
435.126	3.28
435.331	3.01
435.535	2.95
435.74	2.89
435.945	2.78
436.15	3.15
436.355	3.21
436.56	3.35
436.765	3.26
436.97	3.27
437.174	3.12
437.379	3.14
437.584	3.42
437.789	3.45
437.993	3.59
438.198	3.75
438.403	3.53
438.608	3.34
438.812	3.37
439.017	3.64
439.222	3.61
439.426	3.6
439.631	3.4
439.836	3.35
440.04	3.19
440.245	3
440.45	3.02
440.654	3.1
440.859	3.12
441.063	3.05
441.268	2.96
441.472	2.95
441.677	2.96
441.881	3.2
442.086	3.14
442.29	3.29
442.495	3.49
442.699	3.51
442.904	3.43
443.108	3.48
443.312	3.7
443.517	3.68
443.721	3.82
443.925	3.74
444.13	3.49
444.334	3.46
444.538	3.42
444.743	3.28
444.947	3.15
445.151	3.19
445.356	3.28
445.56	3.14
445.764	3.26
445.968	3.13
446.173	3.19
446.377	3.21
446.581	3.33
446.785	3.42
446.989	3.28
447.193	3.37
447.398	3.27
447.602	3.1
447.806	3.18
448.01	3.18
448.214	3.16
448.418	3.08
448.622	3.06
448.826	2.89
449.03	2.81
449.234	2.89
449.438	2.93
449.642	2.96
449.846	3.13
450.05	3.17
450.254	2.91
450.458	3.15
450.662	3.15
450.866	3.05
451.069	3.16
451.273	2.97
451.477	3.06
451.681	2.97
451.885	2.81
452.089	2.5
452.292	2.4
452.496	2.53
452.7	2.31
452.904	2.31
453.107	2.54
453.311	2.5
453.515	2.72
453.719	2.69
453.922	2.67
454.126	2.92
454.33	3.21
454.533	3.23
454.737	3.41
454.94	3.53
455.144	3.57
455.348	3.54
455.551	3.73
455.755	3.69
455.958	3.82
456.162	3.85
456.365	3.83
456.569	3.71
456.772	3.7
456.976	3.48
457.179	3.49
457.383	3.43
457.586	3.32
457.79	3.07
457.993	2.89
458.196	2.85
458.4	2.64
458.603	2.58
458.807	2.54
459.01	2.5
459.213	2.49
459.417	2.47
459.62	2.49
459.823	2.56
460.026	2.54
460.23	2.6
460.433	2.53
460.636	2.65
460.839	2.74
461.042	2.81
461.246	2.81
461.449	2.89
461.652	2.78
461.855	2.86
462.058	2.84
462.261	2.91
462.464	2.98
462.668	3.08
462.871	3.23
463.074	2.84
463.277	2.67
463.48	2.87
463.683	3.07
463.886	3.03
464.089	3.16
464.292	3.15
464.495	3.08
464.698	3
464.901	2.88
465.104	2.65
465.306	2.81
465.509	3.02
465.712	2.71
465.915	2.45
466.118	2.61
466.321	2.53
466.524	2.57
466.726	2.53
466.929	2.63
467.132	2.53
467.335	2.63
467.538	2.78
467.74	2.81
467.943	2.96
468.146	2.86
468.348	2.68
468.551	2.62
468.754	2.73
468.956	2.83
469.159	2.84
469.362	2.96
469.564	3.04
469.767	2.96
469.969	2.91
470.172	2.87
470.375	2.93
470.577	3.01
470.78	3
470.982	2.97
471.185	2.91
471.387	2.87
471.59	2.9
471.792	2.7
471.995	2.69
472.197	2.73
472.399	2.46
472.602	2.56
472.804	2.72
473.007	2.79
473.209	2.66
473.411	2.72
473.614	2.68
473.816	2.56
474.018	2.67
474.22	2.73
474.423	2.8
474.625	3.03
474.827	3.23
475.03	3.1
475.232	2.93
475.434	2.93
475.636	2.84
475.838	2.86
476.04	2.84
476.243	2.76
476.445	2.58
476.647	2.53
476.849	2.65
477.051	2.45
477.253	2.45
477.455	2.43
477.657	2.35
477.859	2.39
478.061	2.53
478.263	2.6
478.465	2.73
478.667	2.69
478.869	2.67
479.071	2.68
479.273	2.74
479.475	2.7
479.677	2.74
479.879	2.92
480.081	2.97
480.283	2.9
480.485	3.13
480.686	3.04
480.888	3.23
481.09	3.25
481.292	3.1
481.494	3.12
481.695	3.04
481.897	3.05
482.099	2.89
482.301	2.84
482.502	2.76
482.704	2.64
482.906	2.66
483.107	2.71
483.309	2.6
483.511	2.58
483.712	2.58
483.914	2.64
484.115	2.63
484.317	2.66
484.519	2.66
484.72	2.71
484.922	2.7
485.123	2.73
485.325	2.67
485.526	2.71
485.728	2.78
485.929	2.76
486.131	2.76
486.332	2.75
486.534	2.73
486.735	2.7
486.936	2.7
487.138	2.7
487.339	2.64
487.541	2.62
487.742	2.64
487.943	2.61
488.144	2.56
488.346	2.53
488.547	2.6
488.748	2.59
488.95	2.65
489.151	2.56
489.352	2.58
489.553	2.6
489.755	2.59
489.956	2.57
490.157	2.49
490.358	2.63
490.559	2.58
490.76	2.51
490.961	2.51
491.163	2.47
491.364	2.51
491.565	2.58
491.766	2.61
491.967	2.71
492.168	2.69
492.369	2.79
492.57	2.63
492.771	2.7
492.972	2.77
493.173	2.77
493.374	2.79
493.575	2.85
493.776	2.67
493.976	2.65
494.177	2.6
494.378	2.79
494.579	2.84
494.78	3.07
494.981	3.09
495.182	2.96
495.382	3.16
495.583	3.09
495.784	3
495.985	3.03
496.185	2.98
496.386	2.83
496.587	2.73
496.788	2.53
496.988	2.35
497.189	2.32
497.39	2.46
497.59	2.43
497.791	2.52
497.992	2.62
498.192	2.73
498.393	2.62
498.593	2.78
498.794	2.72
498.994	2.79
499.195	3.02
499.395	3.16
499.596	3.21
499.796	3.18
499.997	3.44
500.197	3.59
500.398	3.6
500.598	3.73
500.799	3.7
500.999	3.79
501.199	3.88
501.4	3.77
501.6	3.63
501.801	3.5
502.001	3.48
502.201	3.26
502.402	3.13
502.602	3.16
502.802	3.22
503.002	3.27
503.203	3.29
503.403	3.4
503.603	3.56
503.803	3.88
504.003	4.02
504.204	3.98
504.404	4.22
504.604	4.18
504.804	4.46
505.004	4.64
505.204	4.8
505.404	4.77
505.604	4.77
505.804	4.81
506.005	4.86
506.205	4.84
506.405	5.07
506.605	4.84
506.805	5.02
507.005	4.85
507.204	4.83
507.404	4.7
507.604	4.88
507.804	5.05
508.004	4.99
508.204	4.77
508.404	4.92
508.604	4.92
508.804	5.11
509.003	5.21
509.203	5.14
509.403	5.27
509.603	5.35
509.803	5.36
510.002	5.31
510.202	5.42
510.402	5.58
510.602	5.47
510.801	5.53
511.001	5.64
511.201	5.58
511.4	5.77
511.6	5.83
511.8	5.96
511.999	6.02
512.199	6.04
512.398	6.15
512.598	6.29
512.797	6.49
512.997	6.64
513.197	6.63
513.396	6.72
513.596	6.73
513.795	6.75
513.994	6.82
514.194	6.83
514.393	6.84
514.593	6.88
514.792	6.85
514.992	6.86
515.191	6.81
515.39	6.84
515.59	7.01
515.789	7.2
515.988	7.32
516.188	7.17
516.387	7.28
516.586	7.66
516.786	7.9
516.985	8.15
517.184	8.3
517.383	8.46
517.582	8.6
517.782	8.53
517.981	8.57
518.18	8.55
518.379	8.8
518.578	8.95
518.777	8.93
518.976	8.99
519.176	8.85
519.375	8.88
519.574	8.99
519.773	9.11
519.972	9.3
520.171	9.45
520.37	9.78
520.569	9.8
520.768	9.83
520.967	10.05
521.166	10.06
521.365	10.34
521.564	10.54
521.762	10.71
521.961	10.87
522.16	10.99
522.359	10.98
522.558	10.9
522.757	11.02
522.956	11.15
523.154	11.07
523.353	11.24
523.552	11.31
523.751	11.4
523.949	11.35
524.148	11.26
524.347	11.43
524.546	11.69
524.744	11.79
524.943	11.88
525.142	12.03
525.34	12.16
525.539	12.27
525.737	12.45
525.936	12.44
526.135	12.61
526.333	12.83
526.532	12.74
526.73	12.73
526.929	12.85
527.127	12.93
527.326	13.04
527.524	13.23
527.723	13.31
527.921	13.39
528.12	13.52
528.318	13.54
528.516	13.56
528.715	13.63
528.913	13.72
529.112	13.75
529.31	13.77
529.508	13.75
529.707	13.7
529.905	13.75
530.103	13.71
530.301	13.66
530.5	13.72
530.698	13.79
530.896	14.03
531.094	14.17
531.293	14.26
531.491	14.48
531.689	14.73
531.887	14.85
532.085	15.04
532.283	15.07
532.481	15.23
532.68	15.34
532.878	15.34
533.076	15.32
533.274	15.33
533.472	15.42
533.67	15.53
533.868	15.54
534.066	15.66
534.264	15.63
534.462	15.82
534.66	15.87
534.858	15.89
535.056	16.09
535.253	16.16
535.451	16.23
535.649	16.29
535.847	16.28
536.045	16.38
536.243	16.44
536.441	16.49
536.638	16.55
536.836	16.69
537.034	16.79
537.232	16.8
537.43	16.83
537.627	16.92
537.825	17.02
538.023	16.97
538.22	17.05
538.418	17.08
538.616	17.03
538.813	17.13
539.011	17.3
539.209	17.53
539.406	17.63
539.604	17.68
539.801	17.79
539.999	17.82
540.196	17.98
540.394	18.06
540.591	18.22
540.789	18.36
540.986	18.37
541.184	18.25
541.381	18.23
541.579	18.31
541.776	18.36
541.974	18.31
542.171	18.35
542.368	18.43
542.566	18.51
542.763	18.49
542.96	18.49
543.158	18.52
543.355	18.66
543.552	18.76
543.75	18.87
543.947	18.87
544.144	19.06
544.341	19.1
544.539	19.17
544.736	19.06
544.933	19.26
545.13	19.51
545.327	19.65
545.524	19.72
545.722	19.67
545.919	19.62
546.116	19.69
546.313	19.71
546.51	19.77
546.707	19.78
546.904	19.86
547.101	19.85
547.298	19.78
547.495	19.67
547.692	19.65
547.889	19.62
548.086	19.72
548.283	19.9
548.48	19.99
548.677	20.11
548.874	20.18
549.07	20.28
549.267	20.24
549.464	20.39
549.661	20.68
549.858	20.9
550.055	21.07
550.251	21.03
550.448	21.07
550.645	21.18
550.842	21.22
551.038	21.32
551.235	21.53
551.432	21.55
551.628	21.59
551.825	21.64
552.022	21.56
552.218	21.43
552.415	21.54
552.612	21.7
552.808	21.61
553.005	21.7
553.201	21.73
553.398	21.58
553.594	21.79
553.791	21.81
553.987	21.79
554.184	21.79
554.38	22.06
554.577	22.22
554.773	22.36
554.97	22.51
555.166	22.53
555.362	22.57
555.559	22.87
555.755	22.66
555.952	22.84
556.148	23.05
556.344	23.21
556.541	22.93
556.737	22.74
556.933	22.54
557.129	22.53
557.326	22.55
557.522	22.41
557.718	22.16
557.914	22.36
558.11	22.54
558.307	22.3
558.503	22.38
558.699	22.8
558.895	22.84
559.091	22.95
559.287	23.02
559.483	22.84
559.679	23.07
559.876	23.37
560.072	23.44
560.268	23.32
560.464	23.61
560.66	23.66
560.856	23.7
561.052	23.68
561.247	23.57
561.443	23.52
561.639	23.58
561.835	23.57
562.031	23.53
562.227	23.25
562.423	23.03
562.619	22.9
562.815	22.84
563.01	22.7
563.206	22.92
563.402	23.05
563.598	23.11
563.793	23.07
563.989	23.02
564.185	23
564.381	23.34
564.576	23.45
564.772	23.3
564.968	23.36
565.163	23.45
565.359	23.24
565.555	23.55
565.75	23.45
565.946	23.65
566.141	23.65
566.337	23.6
566.532	23.56
566.728	23.45
566.923	23.55
567.119	23.63
567.314	23.79
567.51	23.8
567.705	23.56
567.901	23.59
568.096	23.8
568.292	23.97
568.487	23.94
568.682	24.05
568.878	24.25
569.073	24.53
569.268	24.52
569.464	24.25
569.659	24.42
569.854	24.3
570.05	24.53
570.245	24.57
570.44	24.49
570.635	24.59
570.831	24.7
571.026	24.87
571.221	24.87
571.416	24.9
571.611	24.97
571.806	25.09
572.002	25.24
572.197	25.14
572.392	24.92
572.587	25
572.782	25
572.977	24.88
573.172	24.63
573.367	24.42
573.562	24.19
573.757	24.3
573.952	24.27
574.147	24.27
574.342	24.37
574.537	24.37
574.732	24.31
574.927	24.57
575.121	24.69
575.316	24.93
575.511	25.02
575.706	25.21
575.901	25.24
576.096	25.12
576.29	25.2
576.485	25.26
576.68	25.24
576.875	25.36
577.069	25.12
577.264	24.92
577.459	25.01
577.654	25.09
577.848	25.31
578.043	25.21
578.238	25.36
578.432	25.29
578.627	25.2
578.821	25.66
579.016	25.92
579.21	25.99
579.405	26.19
579.6	26.09
579.794	26.12
579.989	25.95
580.183	26.13
580.378	26.2
580.572	25.9
580.766	25.97
580.961	26.01
581.155	25.57
581.35	25.62
581.544	25.56
581.738	25.47
581.933	25.53
582.127	25.77
582.321	25.69
582.516	25.54
582.71	26.09
582.904	25.87
583.099	25.46
583.293	25.85
583.487	25.88
583.681	25.76
583.875	25.89
584.07	25.67
584.264	25.55
584.458	25.63
584.652	25.62
584.846	25.42
585.04	25.76
585.234	25.92
585.428	25.53
585.623	25.7
585.817	26.01
586.011	26.06
586.205	25.99
586.399	26
586.593	26.28
586.787	26.46
586.981	26.43
587.174	26.56
587.368	26.44
587.562	26.85
587.756	26.72
587.95	26.44
588.144	26.32
588.338	26.43
588.532	26.64
588.725	26.55
588.919	26.62
589.113	26.75
589.307	26.63
589.501	26.82
589.694	26.76
589.888	26.74
590.082	27.08
590.275	27.09
590.469	27.18
590.663	26.88
590.856	26.82
591.05	26.79
591.244	26.98
591.437	27.04
591.631	27.18
591.824	27.14
592.018	27.1
592.212	26.8
592.405	26.84
592.599	26.78
592.792	26.93
592.986	26.95
593.179	26.93
593.372	26.92
593.566	26.89
593.759	26.62
593.953	26.66
594.146	26.67
594.339	26.74
594.533	26.75
594.726	26.68
594.92	26.46
595.113	26.44
595.306	26.28
595.499	26.09
595.693	26.02
595.886	26.17
596.079	26.12
596.272	26.26
596.466	26.29
596.659	26.33
596.852	26.48
597.045	26.71
597.238	26.66
597.431	26.63
597.624	26.72
597.818	26.89
598.011	26.84
598.204	26.93
598.397	26.73
598.59	26.79
598.783	26.83
598.976	26.82
599.169	26.73
599.362	26.77
599.555	27.06
599.748	26.87
599.941	26.85
600.134	27.03
600.326	26.86
600.519	27.47
600.712	27.62
600.905	27.58
601.098	27.73
601.291	28.04
601.483	28.1
601.676	27.98
601.869	28.13
602.062	28.06
602.255	28
602.447	27.95
602.64	27.73
602.833	27.62
603.025	27.53
603.218	27.4
603.411	27.34
603.603	27.39
603.796	27.56
603.989	27.62
604.181	27.51
604.374	27.43
604.566	27.45
604.759	27.43
604.951	27.41
605.144	27.49
605.336	27.45
605.529	27.28
605.721	27.24
605.914	27.18
606.106	27.06
606.299	27.33
606.491	27.36
606.683	27.49
606.876	27.37
607.068	27.16
607.26	27.42
607.453	27.47
607.645	27.66
607.837	27.62
608.03	27.57
608.222	27.71
608.414	27.7
608.606	27.73
608.799	27.85
608.991	27.69
609.183	27.94
609.375	27.64
609.567	27.7
609.759	27.6
609.952	27.61
610.144	27.51
610.336	27.33
610.528	27.07
610.72	27.16
610.912	27.14
611.104	27.31
611.296	27.33
611.488	27.37
611.68	27.36
611.872	27.32
612.064	27.23
612.256	27.47
612.448	27.56
612.64	27.63
612.832	27.36
613.023	27.2
613.215	27.14
613.407	27.25
613.599	27.37
613.791	27.2
613.983	27.53
614.174	27.6
614.366	27.51
614.558	27.7
614.75	27.96
614.941	28.23
615.133	28.35
615.325	28.52
615.516	28.36
615.708	28.19
615.9	28.46
616.091	28.22
616.283	28.68
616.475	28.49
616.666	28.3
616.858	28.16
617.049	28.17
617.241	27.99
617.432	28.08
617.624	28.46
617.815	28.7
618.007	28.69
618.198	28.98
618.39	28.42
618.581	28.32
618.773	28.32
618.964	28.16
619.155	27.99
619.347	28.24
619.538	28.36
619.729	28.14
619.921	27.91
620.112	28.12
620.303	27.77
620.494	27.98
620.686	28
620.877	28.17
621.068	28.33
621.259	28.39
621.451	28.24
621.642	28.04
621.833	28.58
622.024	28.9
622.215	28.52
622.406	28.75
622.597	28.98
622.788	29.12
622.98	29.25
623.171	29.18
623.362	29.32
623.553	29.31
623.744	29.23
623.935	28.73
624.126	28.45
624.317	28.77
624.508	28.85
624.698	28.29
624.889	28.5
625.08	28.51
625.271	28.72
625.462	28.18
625.653	27.99
625.844	28.1
626.034	27.92
626.225	27.99
626.416	27.96
626.607	27.62
626.798	27.89
626.988	27.85
627.179	27.76
627.37	27.59
627.56	28.14
627.751	28.27
627.942	28.17
628.132	28.29
628.323	28.18
628.514	28.12
628.704	28.18
628.895	28.11
629.085	28.13
629.276	28.08
629.466	27.97
629.657	27.99
629.847	28.22
630.038	28.28
630.228	28.48
630.419	28.52
630.609	28.56
630.8	28.57
630.99	28.7
631.181	28.64
631.371	28.57
631.561	28.96
631.752	28.79
631.942	28.78
632.132	28.79
632.323	28.48
632.513	28.94
632.703	28.61
632.893	28.8
633.084	28.57
633.274	28.36
633.464	28.52
633.654	28.4
633.844	28.2
634.034	27.96
634.225	28.17
634.415	28.14
634.605	27.98
634.795	28.38
634.985	28.41
635.175	28.62
635.365	29.03
635.555	29.05
635.745	29.36
635.935	29.67
636.125	29.65
636.315	29.28
636.505	29.3
636.695	29.18
636.885	28.99
637.075	28.8
637.265	29
637.455	28.48
637.644	28.52
637.834	28.15
638.024	27.89
638.214	27.87
638.404	28.1
638.593	28.54
638.783	28.37
638.973	28.47
639.163	28.61
639.352	28.48
639.542	28.93
639.732	28.96
639.921	28.83
640.111	29.2
640.301	29.15
640.49	29.17
640.68	28.95
640.87	28.87
641.059	28.86
641.249	28.49
641.438	28.19
641.628	28
641.817	27.82
642.007	28.16
642.196	28
642.386	28.08
642.575	28.21
642.764	27.91
642.954	28.23
643.143	28.36
643.333	29.07
643.522	29.6
643.711	29.53
643.901	29.73
644.09	29.34
644.279	29.2
644.469	29.18
644.658	28.63
644.847	28.87
645.036	29.13
645.226	29.11
645.415	28.76
645.604	28.34
645.793	28.2
645.982	28.3
646.171	28.67
646.361	28.74
646.55	29.51
646.739	29.72
646.928	29.95
647.117	29.45
647.306	29.42
647.495	29.45
647.684	29.26
647.873	29.63
648.062	29.48
648.251	29.25
648.44	29.39
648.629	28.88
648.818	28.74
649.007	28.25
649.196	28.42
649.384	28.43
649.573	28.53
649.762	28.7
649.951	28.52
650.14	28.06
650.328	28.28
650.517	28.29
650.706	28.29
650.895	28.48
651.083	28.4
651.272	28.37
651.461	28.31
651.65	28.44
651.838	28.68
652.027	28.91
652.216	29.32
652.404	29.33
652.593	29.38
652.781	29.27
652.97	29.4
653.158	29.9
653.347	30.16
653.535	29.91
653.724	29.75
653.912	29.86
654.101	29.94
654.289	30.23
654.478	30.27
654.666	30.16
654.855	30.39
655.043	30.78
655.231	30.39
655.42	30.4
655.608	30.88
655.796	31.14
655.985	30.79
656.173	30.88
656.361	30.44
656.55	30.21
656.738	30.35
656.926	30.25
657.114	29.44
657.302	29.19
657.491	29.4
657.679	29.11
657.867	28.95
658.055	29.19
658.243	29.36
658.431	29.3
658.619	29.42
658.807	29.24
658.996	29.16
659.184	29.38
659.372	29.85
659.56	29.55
659.748	29.64
659.936	29.39
660.124	29.4
660.311	28.78
660.499	28.6
660.687	28.47
660.875	28.64
661.063	28.67
661.251	28.78
661.439	28.64
661.627	28.59
661.814	28.51
662.002	28.82
662.19	28.81
662.378	28.79
662.565	29.27
662.753	29.56
662.941	28.94
663.129	29.16
663.316	29.21
663.504	29.14
663.692	29.06
663.879	28.94
664.067	28.76
664.254	28.77
664.442	29.42
664.63	29.28
664.817	29.39
665.005	29.76
665.192	29.76
665.38	29.73
665.567	29.98
665.755	30.36
665.942	31.08
666.13	31.03
666.317	30.78
666.504	30.36
666.692	30.68
666.879	30.03
667.067	30.53
667.254	30.42
667.441	30.64
667.629	30.58
667.816	30.03
668.003	29.72
668.19	29.91
668.378	30.14
668.565	30.59
668.752	30.46
668.939	31.05
669.127	30.5
669.314	30.99
669.501	30.43
669.688	30.34
669.875	30.67
670.062	30.53
670.249	30.52
670.436	30.58
670.623	29.98
670.81	29.76
670.997	29.52
671.184	29.31
671.371	28.86
671.558	29.12
671.745	29.07
671.932	29.05
672.119	29.47
672.306	29.16
672.493	29.28
672.68	29.89
672.867	30.23
673.054	30.06
673.24	30.25
673.427	30.05
673.614	30.13
673.801	30.1
673.988	30.44
674.174	29.39
674.361	29.8
674.548	29.44
674.734	29.14
674.921	29.47
675.108	29.36
675.294	29.45
675.481	29.88
675.668	30.07
675.854	30.07
676.041	29.71
676.227	30.15
676.414	30.02
676.601	30.09
676.787	30.04
676.974	29.24
677.16	29.33
677.347	29.26
677.533	29.42
677.719	29.53
677.906	29.68
678.092	29.74
678.279	30.01
678.465	29.83
678.651	30.28
678.838	30.43
679.024	30.4
679.21	30.3
679.397	30.47
679.583	30.21
679.769	29.99
679.955	29.55
680.142	29.49
680.328	29.38
680.514	29.64
680.7	29.43
680.886	29.09
681.073	29.31
681.259	29.8
681.445	30.01
681.631	29.82
681.817	29.84
682.003	30.41
682.189	30.18
682.375	29.84
682.561	29.87
682.747	29.74
682.933	30.2
683.119	30.17
683.305	30.37
683.491	29.97
683.677	29.57
683.863	29.44
684.049	29.4
684.235	30.16
684.42	31.04
684.606	30.92
684.792	30.81
684.978	31.07
685.164	31.12
685.349	30.65
685.535	30.68
685.721	31.28
685.907	31.24
686.092	31
686.278	30.57
686.464	30.32
686.649	30.23
686.835	30.37
687.021	30.15
687.206	30.22
687.392	30.19
687.577	30.26
687.763	30.13
687.948	30.19
688.134	30.11
688.319	29.8
688.505	29.5
688.69	29.95
688.876	29.49
689.061	29.19
689.247	28.83
689.432	28.61
689.618	28.29
689.803	28.47
689.988	28.71
690.174	28.64
690.359	28.86
690.544	28.7
690.73	28.35
690.915	29
691.1	28.72
691.285	29.54
691.471	30.1
691.656	30.25
691.841	30.16
692.026	29.49
692.211	29.62
692.396	29.44
692.582	30.09
692.767	29.96
692.952	30.24
693.137	30.56
693.322	30.1
693.507	29.87
693.692	29.66
693.877	29.3
694.062	30.27
694.247	29.98
694.432	30.42
694.617	29.99
694.802	29.81
694.987	29.32
695.172	29.65
695.357	29.92
695.541	29.84
695.726	30.66
695.911	30.91
696.096	30.77
696.281	30.86
696.466	31.04
696.65	30.8
696.835	31.09
697.02	31.26
697.204	30.84
697.389	30.34
697.574	30.17
697.759	29.86
697.943	29.9
698.128	29.96
698.312	30.53
698.497	30.48
698.682	30.36
698.866	30.27
699.051	29.99
699.235	29.96
699.42	29.67
699.604	29.85
699.789	29.83
699.973	29.93
700.158	29.38
700.342	29.41
700.527	29.08
700.711	29.49
700.895	29.67
701.08	29.99
701.264	30.63
701.448	30.93
701.633	31.08
701.817	31.38
702.001	31.24
702.186	32.19
702.37	31.9
702.554	31.23
702.738	31.16
702.923	30.9
703.107	30.67
703.291	30.16
703.475	30.33
703.659	30.06
703.843	30.1
704.027	30.42
704.212	29.61
704.396	29.36
704.58	30.63
704.764	29.99
704.948	29.56
705.132	29.09
705.316	29.08
705.5	28.64
705.684	28.11
705.868	27.81
706.052	27.83
706.235	28.01
706.419	28.53
706.603	27.66
706.787	28.18
706.971	29.09
707.155	29.55
707.339	30.17
707.522	30.47
707.706	31.78
707.89	31.45
708.074	31.5
708.257	31.85
708.441	31.5
708.625	32.22
708.808	32.55
708.992	32.11
709.176	32.11
709.359	31.5
709.543	31.85
709.727	30.44
709.91	30.57
710.094	30.09
710.277	30.44
710.461	30.64
710.644	30.66
710.828	30.65
711.011	30.91
711.195	31.03
711.378	31.16
711.562	31.16
711.745	31.88
711.928	31.6
712.112	31.66
712.295	31.14
712.478	30.36
712.662	30.07
712.845	29.93
713.028	30.03
713.212	29.56
713.395	29.04
713.578	29.09
713.761	28.54
713.945	28.97
714.128	29.2
714.311	29.32
714.494	29.7
714.677	29.74
714.86	30.12
715.043	29.21
715.227	30.24
715.41	29.98
715.593	29.9
715.776	30.21
715.959	30.19
716.142	30.03
716.325	30
716.508	30.23
716.691	30.44
716.874	30.35
717.057	31.23
717.239	31.21
717.422	31.77
717.605	31.6
717.788	30.32
717.971	30.66
718.154	31.37
718.337	30.87
718.519	30.52
718.702	30.33
718.885	30.26
719.068	29.85
719.25	29.52
719.433	30.21
719.616	29.92
719.798	31.89
719.981	31.51
720.164	30.09
720.346	30.65
720.529	31.14
720.712	30.84
720.894	30.33
721.077	31.27
721.259	30.91
721.442	31.21
721.624	31.16
721.807	30.72
721.989	31.23
722.172	32.39
722.354	32.07
722.537	32.25
722.719	32.28
722.901	32.4
723.084	31.37
723.266	30.62
723.448	30.63
723.631	30.56
723.813	30.53
723.995	30.05
724.178	29.35
724.36	29.92
724.542	30.17
724.724	30.34
724.907	30.99
725.089	31.27
725.271	32.14
725.453	31.38
725.635	32.47
725.817	32.68
725.999	32.78
726.181	32.97
726.364	33.1
726.546	32.07
726.728	32.59
726.91	31.46
727.092	31.15
727.274	31.41
727.456	30.83
727.638	30.7
727.819	30.61
728.001	30.84
728.183	30.9
728.365	30.87
728.547	31.71
728.729	32.06
728.911	32.4
729.093	33
729.274	33.27
729.456	34.12
729.638	34.42
729.82	34.45
730.001	34.14
730.183	34.8
730.365	35.01
730.546	34
730.728	33.75
730.91	34.79
731.091	34.83
731.273	34.85
731.455	34.19
731.636	33.7
731.818	33.61
731.999	33.72
732.181	32.5
732.362	32.17
732.544	32.8
732.725	32.02
732.907	31.36
733.088	30.49
733.27	29.74
733.451	30.32
733.633	29.89
733.814	30.06
733.995	29.82
734.177	30.27
734.358	29.84
734.539	30.17
734.721	30.39
734.902	30.23
735.083	30.61
735.264	30.29
735.446	30.44
735.627	30.5
735.808	30.33
735.989	29.84
736.17	29.99
736.351	30.43
736.533	30.09
736.714	29.77
736.895	29.75
737.076	30.52
737.257	31.36
737.438	31.22
737.619	31.28
737.8	30.64
737.981	30.97
738.162	30.67
738.343	30.58
738.524	30.75
738.705	31.88
738.886	31.87
739.067	31.99
739.247	31.45
739.428	30.82
739.609	31.73
739.79	32.81
739.971	33.07
740.151	34.18
740.332	33.9
740.513	33.57
740.694	32.56
740.874	32.85
741.055	31.87
741.236	32.2
741.417	32.51
741.597	31.32
741.778	31.25
741.958	31.71
742.139	30.49
742.32	31.1
742.5	31.27
742.681	32.67
742.861	32.34
743.042	33.06
743.222	32.79
743.403	32.62
743.583	33.66
743.764	32.55
743.944	32.46
744.124	33.66
744.305	33.39
744.485	33.57
744.666	32.73
744.846	31.68
745.026	30.88
745.207	31.99
745.387	31.21
745.567	31.44
745.747	32.17
745.928	32.6
746.108	31.12
746.288	30.12
746.468	30.94
746.648	31.66
746.829	31.57
747.009	32.09
747.189	31.14
747.369	32.26
747.549	31.66
747.729	31.9
747.909	31.02
748.089	31.1
748.269	32.44
748.449	30.84
748.629	30.08
748.809	31.02
748.989	30.62
749.169	30.47
749.349	30.3
749.529	29.47
749.709	29.55
749.889	29.67
750.068	30.46
750.248	30.8
750.428	31.08
750.608	30.98
750.788	30.74
750.967	31.27
751.147	31.25
751.327	31.9
751.507	32.46
751.686	33.16
751.866	33.2
752.046	33.74
752.225	33.24
752.405	33.74
752.585	34.35
752.764	34.98
752.944	35.77
753.123	36.13
753.303	36.06
753.482	36.18
753.662	35.37
753.841	35.49
754.021	33.73
754.2	32.7
754.38	32.01
754.559	30.85
754.739	30.44
754.918	29.28
755.097	29.02
755.277	27.33
755.456	28.47
755.635	27.8
755.815	27.63
755.994	28.6
756.173	29.55
756.352	30.68
756.532	30.69
756.711	30.97
756.89	30.22
757.069	30.67
757.248	32.37
757.427	31.01
757.607	32.09
757.786	33.18
757.965	34.8
758.144	34.33
758.323	33.36
758.502	34.16
758.681	34.62
758.86	35.41
759.039	35.79
759.218	35.16
759.397	35.63
759.576	34.92
759.755	34.14
759.934	31.77
760.113	32.21
760.291	31.69
760.47	32.46
760.649	31.49
760.828	31.46
761.007	30.23
761.186	29.82
761.364	29.4
761.543	29.4
761.722	29.47
761.901	30.06
762.079	29.99
762.258	31.03
762.437	30.24
762.615	30.54
762.794	30.53
762.972	30.84
763.151	30.9
763.33	30.58
763.508	30.99
763.687	30.89
763.865	31.19
764.044	31.02
764.222	30.36
764.401	30.71
764.579	31.24
764.758	30.9
764.936	30.79
765.114	31.22
765.293	31.08
765.471	31.23
765.65	31.21
765.828	31.18
766.006	30.83
766.184	31.59
766.363	30.21
766.541	29.05
766.719	29.55
766.898	30.48
767.076	30.39
767.254	31.51
767.432	30.68
767.61	30.62
767.788	31.53
767.967	31.27
768.145	30.83
768.323	30.54
768.501	31.54
768.679	30.51
768.857	29.6
769.035	29.94
769.213	29.97
769.391	31.21
769.569	30.41
769.747	29.04
769.925	29.34
770.103	29.19
770.281	31.34
770.459	30.82
770.636	32.88
770.814	33.06
770.992	33.98
771.17	32.49
771.348	31.15
771.525	32.61
771.703	32.55
771.881	33
772.059	34.19
772.236	34.69
772.414	35.1
772.592	33.57
772.769	34.05
772.947	33.37
773.125	34.94
773.302	34.41
773.48	32.43
773.657	32.46
773.835	32.94
774.013	33.03
774.19	32.6
774.368	32.25
774.545	33.93
774.723	34.55
774.9	35.31
775.077	35.38
775.255	36.03
775.432	37.91
775.61	38.46
775.787	39.2
775.964	37.37
776.142	35.9
776.319	35.31
776.496	34.12
776.674	33.44
776.851	31.68
777.028	30.35
777.205	32.07
777.382	31.38
777.56	32.23
777.737	32.65
777.914	33.39
778.091	34.86
778.268	36.53
778.445	36.8
778.622	34.48
778.8	35.43
778.977	36.05
779.154	33.56
779.331	34.49
779.508	33.87
779.685	33.11
779.862	33.4
780.038	34
780.215	32.49
780.392	32.59
780.569	35.46
780.746	35.93
780.923	36.68
781.1	37.75
781.277	35.3
781.453	32.15
781.63	30.97
781.807	31.96
781.984	30.38
782.16	32.12
782.337	32.08
782.514	31.12
782.691	29.96
782.867	29.55
783.044	28.21
783.221	30.8
783.397	33.53
783.574	32.99
783.75	32.12
783.927	33.56
784.103	33.13
784.28	31.14
784.456	31.98
784.633	32.73
784.809	33.54
784.986	33.53
785.162	31.68
785.339	31.13
785.515	31.77
785.692	31.23
785.868	30.9
786.044	29.36
786.221	31.27
786.397	31.57
786.573	32.53
786.749	30.63
786.926	32.38
787.102	34.46
787.278	33.37
787.454	33.82
787.631	34.71
787.807	33.59
787.983	35.68
788.159	37.01
788.335	36.48
788.511	33.85
788.687	34.77
788.863	32.91
789.039	30.89
789.216	31.33
789.392	31.87
789.568	32.18
789.744	33.08
789.919	31.25
790.095	29.55
790.271	29.75
790.447	29.55
790.623	29.31
790.799	29.66
790.975	31.6
791.151	31.36
791.327	33.62
791.502	34.36
791.678	34.44
791.854	36.13
792.03	37.1
792.205	36.01
792.381	36.08
792.557	36.61
792.733	37.45
792.908	36.56
793.084	38.01
793.259	36.3
793.435	33.02
793.611	33.86
793.786	34.28
793.962	34.09
794.137	33.88
794.313	33.22
794.488	30.64
794.664	30.94
794.839	30.46
795.015	30.36
795.19	30.8
795.366	32.6
795.541	31.39
795.716	29.88
795.892	28.15
796.067	30.29
796.242	31.46
796.418	31.52
796.593	31.23
796.768	31.06
796.944	32.06
797.119	30.77
797.294	29.46
797.469	29.09
797.644	30.4
797.82	32.17
797.995	30.91
798.17	31.84
798.345	33.95
798.52	31.73
798.695	33.42
798.87	29.52
799.045	30.63
799.22	34.38
799.395	35.51
799.57	32.99
799.745	32.59
799.92	33.39
800.095	33.42
800.27	33.96
800.445	36.3
800.62	37.68
800.795	40.12
800.97	41.17
801.145	36.38
801.319	36.26
801.494	35.63
801.669	36.34
801.844	35.8
802.018	34.87
802.193	33.71
802.368	35.4
802.543	35.89
802.717	36.6
802.892	32.9
803.067	34.79
803.241	33.95
803.416	36.98
803.59	35.92
803.765	36.22
803.94	35.53
804.114	35.45
804.289	34.11
804.463	30.75
804.638	28.85
804.812	28.55
804.986	31.63
805.161	32.37
805.335	32.03
805.51	34.19
805.684	34.5
805.858	38.18
806.033	40.54
806.207	43.84
806.381	45.49
806.556	45.64
806.73	46.64
806.904	42.83
807.078	41.9
807.253	39.21
807.427	36.41
807.601	35.78
807.775	33.05
807.949	31.74
808.123	30.71
808.298	27.95
808.472	28.55
808.646	28.81
808.82	32.61
808.994	32.45
809.168	34.12
809.342	37.42
809.516	36.99
809.69	38.29
809.864	40.27
810.038	38.14
810.212	39.77
810.385	38.77
810.559	36.76
810.733	37.35
810.907	38.54
811.081	40.28
811.255	36.32
811.428	36.16
811.602	33.53
811.776	30.71
811.95	31.9
812.123	31.91
812.297	31.19
812.471	34.52
812.644	32.35
812.818	34.44
812.992	31.36
813.165	33.21
813.339	34.27
813.512	35.88
813.686	36.92
813.86	38.79
814.033	41.07
814.207	42.82
814.38	46.56
814.554	48.77
814.727	47.13
814.9	47.62
815.074	48.9
815.247	46.87
815.421	45.83
815.594	44.14
815.767	44.03
815.941	41.59
816.114	43.32
816.287	36.31
816.46	32.58
816.634	33.59
816.807	33.35
816.98	32.31
817.153	34.05
817.327	35.34
817.5	36.68
817.673	36.52
817.846	35.61
818.019	33.03
818.192	36.33
818.365	35.36
818.538	37.31
818.711	40.02
818.884	40.08
819.057	39.06
819.23	39.54
819.403	38.85
819.576	34.8
819.749	36.65
819.922	36.64
820.095	35.28
820.268	37.06
820.441	35.47
820.614	33.59
820.786	34.37
820.959	34.94
821.132	35.36
821.305	35.23
821.477	35.04
821.65	35.21
821.823	35.24
821.996	35.61
822.168	35.38
822.341	34.09
822.514	33.79
822.686	32.96
822.859	32.85
823.031	32.64
823.204	33.2
823.376	33.2
823.549	32.64
823.722	32.33
823.894	31.65
824.067	31.29
824.239	31.69
824.411	31.94
824.584	32.47
824.756	32.53
824.929	32.23
825.101	30.91
825.273	30.93
825.446	30.78
825.618	31.29
825.79	31.43
825.963	31.7
826.135	31.07
826.307	30.94
826.479	30.55
826.652	29.85
826.824	30.13
826.996	30.4
827.168	30.53
827.34	30.75
827.512	30.47
827.684	30.74
827.856	30.63
828.029	32.03
828.201	31.84
828.373	32.5
828.545	32.97
828.717	33.71
828.889	35.47
829.061	36.26
829.232	36.71
829.404	36.17
829.576	37.15
829.748	37.2
829.92	36.7
830.092	37.27
830.264	36.33
830.436	37.75
830.607	37.25
830.779	37
830.951	39.07
831.123	38.44
831.294	41.8
831.466	42.47
831.638	43.8
831.809	46.24
831.981	48.46
832.153	49.79
832.324	49.2
832.496	49.31
832.667	48.45
832.839	44.92
833.011	45.51
833.182	44.26
833.354	40.44
833.525	38.43
833.697	36.44
833.868	35.57
834.039	36.11
834.211	33.81
834.382	33.43
834.554	34.17
834.725	33.3
834.896	33.04
835.068	32.39
835.239	35.37
835.41	36.94
835.581	35.28
835.753	34.68
835.924	34.61
836.095	35.17
836.266	34.32
836.438	31.87
836.609	33.57
836.78	33.96
836.951	34.24
837.122	32.87
837.293	31.18
837.464	33.49
837.635	31.93
837.806	32.34
837.977	34
838.148	34.17
838.319	37.55
838.49	37.64
838.661	39.49
838.832	41.68
839.003	41.72
839.174	41.7
839.345	44.02
839.516	47.96
839.687	42.78
839.857	38.99
840.028	41.01
840.199	42.18
840.37	42.1
840.54	43.6
840.711	37.71
840.882	36.02
841.053	37.44
841.223	36.32
841.394	35
841.564	38.29
841.735	41.83
841.906	40.16
842.076	37.24
842.247	36.01
842.417	29.5
842.588	38.92
842.758	40.32
842.929	39.27
843.099	32.86
843.27	34.21
843.44	35.28
843.611	37.63
843.781	35.75
843.951	30.65
844.122	34.98
844.292	39.91
844.462	32.44
844.633	36.39
844.803	37.1
844.973	39.1
845.144	34.75
845.314	34.08
845.484	27.62
845.654	30.4
845.824	40.38
845.995	37.36
846.165	33.77
846.335	27.19
846.505	26.31
846.675	23.88
846.845	33.2
847.015	38.75
847.185	39.34
847.355	51.55
847.525	52.56
847.695	41.87
847.865	41.66
848.035	38.93
848.205	47.85
848.375	50.85
848.545	54.6
848.715	45.69
848.884	41.58
849.054	42.98
849.224	35.58
849.394	36.74
849.564	32.11
849.733	25.64
849.903	29.72
850.073	28.71
850.243	23.96
850.412	26.61
850.582	24.85
850.752	24.52
850.921	23.88
851.091	19.13
851.26	18.3
851.43	21.29
851.599	23.68
851.769	25.6
851.939	26.35
852.108	23.36
852.278	22.21
852.447	27.29
852.616	33.61
852.786	36.23
852.955	40.8
853.125	42.16
853.294	54.82
853.463	51.74
853.633	48.62
853.802	42.47
853.971	47.67
854.141	39.34
854.31	39.35
854.479	34.27
854.648	26.85
854.818	34.6
854.987	38.62
855.156	33
855.325	36.94
855.494	38.08
855.663	44.66
855.832	44.92
856.001	51.68
856.171	49.45
856.34	41.32
856.509	41.18
856.678	33.72
856.847	25.51
857.016	22.47
857.185	29.79
857.353	30.65
857.522	25.41
857.691	18.09
857.86	12.32
858.029	13.77
858.198	28.84
858.367	42.05
858.535	42.25
858.704	49.97
858.873	56.72
859.042	47.71
859.21	49.88
859.379	52.41
859.548	62.92
859.717	66.65
859.885	65.57
860.054	60.36
860.222	51.4
860.391	49.76
860.56	50.85
860.728	44.88
860.897	41.27
861.065	36.65
861.234	39.92
861.402	37.56
861.571	34.66
861.739	34.96
861.908	38.39
862.076	44.05
862.244	47.66
862.413	42.69
862.581	47.45
862.749	54.3
862.918	58
863.086	48.86
863.254	43.02
863.423	47.37
863.591	45.46
863.759	36.68
863.927	30.85
864.096	31.18
864.264	33.13
864.432	26.47
864.6	26.99
864.768	16.61
864.936	21.14
865.104	30.05
865.272	31.07
865.44	31.14
865.608	38.25
865.776	40.68
865.944	37.3
866.112	34.65
866.28	39.79
866.448	39.52
866.616	44.76
866.784	51.94
866.952	51.95
867.12	43.34
867.288	43.25
867.455	44.57
867.623	40.49
867.791	43.59
867.959	46.52
868.127	42.95
868.294	53.37
868.462	58.93
868.63	47.31
868.797	53.72
868.965	53.95
869.133	53.52
869.3	45.05
869.468	49.01
869.636	47.89
869.803	48.01
869.971	55.65
870.138	42.43
870.306	39.65
870.473	35.65
870.641	32.31
870.808	37.47
870.975	33.51
871.143	36.64
871.31	36.36
871.478	38.03
871.645	42.31
871.812	32.26
871.98	39.04
872.147	40
872.314	54.46
872.482	44.94
872.649	33.98
872.816	41.94
872.983	32.79
873.15	42.9
873.318	33.59
873.485	26.28
873.652	34.07
873.819	36.89
873.986	36.16
874.153	36.47
874.32	41.88
874.487	44.24
874.654	41.74
874.821	51.32
874.988	46.29
875.155	49.91
875.322	50.04
875.489	46.96
875.656	50.79
875.823	51.22
875.99	43.41
876.157	37.59
876.324	38.3
876.49	35.89
876.657	41.53
876.824	35.57
876.991	41.42
877.157	39.75
877.324	46.43
877.491	30.67
877.658	27.07
877.824	29.34
877.991	32.7
878.157	33.85
878.324	36.91
878.491	19.62
878.657	28.26
878.824	35.07
878.99	45.96
879.157	38.39
879.323	34.15
879.49	42.86
879.656	43.14
879.823	39.63
879.989	35.39
880.156	35.12
880.322	39.66
880.488	36.16
880.655	26.56
880.821	23.41
880.987	23.52
881.154	31.62
881.32	27.69
881.486	30.18
881.652	31.12
881.819	31.23
881.985	28.69
882.151	29.64
882.317	33.38
882.483	33.13
882.649	34.65
882.816	34.3
882.982	32.98
883.148	32.46
883.314	32.26
883.48	33.14
883.646	34.59
883.812	35.44
883.978	33.99
884.144	33.6
884.31	35.87
884.476	35.62
884.642	35.3
884.807	35.72
884.973	36.86
885.139	36.55
885.305	35.85
885.471	34.32
885.637	33.64
885.802	35.64
885.968	35.21
886.134	34.78
886.3	33.8
886.465	35.67
886.631	32.93
886.797	32.55
886.962	33.36
887.128	36.56
887.293	37.65
887.459	40.52
887.625	40.62
887.79	38.36
887.956	38.47
888.121	39.44
888.287	37.91
888.452	44.3
888.618	45.58
888.783	43.69
