Data from CB_096_Reflection_4.txt Node
Date: Sat Nov 14 17:35:56 EST 2015
User: robert
Spectrometer: USB4E03001
Autoset integration time: false
Trigger mode: 4
Integration Time (sec): 1.000000E-1
Scans to average: 15
Electric dark correction enabled: true
Nonlinearity correction enabled: false
Boxcar width: 5
Stray light correction enabled: false
XAxis mode: Wavelengths
Stop averaging: false
Number of Pixels in Spectrum: 3648
>>>>>Begin Spectral Data<<<<<
177.566	-40.13
177.785	798.52
178.005	-117.67
178.225	-121.4
178.445	2228.42
178.665	-76.73
178.885	425.77
179.105	-49.32
179.324	-147.87
179.544	3.9
179.764	34.19
179.984	19.5
180.204	20.77
180.423	56.6
180.643	76.96
180.863	67.36
181.083	61.21
181.302	74.07
181.522	88.42
181.742	76.15
181.961	83.26
182.181	80.8
182.401	13.41
182.621	-15.35
182.84	-213.11
183.06	-113.05
183.279	-81.81
183.499	-164.64
183.719	-288.06
183.938	-158.03
184.158	-159.55
184.377	-108.94
184.597	-173.28
184.816	-30.87
185.036	-10.99
185.256	-12.6
185.475	-16.63
185.695	0.32
185.914	8.78
186.134	34.59
186.353	44.68
186.572	50.7
186.792	48.7
187.011	57.9
187.231	25.47
187.45	23.96
187.67	26.31
187.889	34.83
188.108	34.14
188.328	19.86
188.547	8.58
188.766	-12.21
188.986	3.87
189.205	12.28
189.424	15.93
189.644	21.06
189.863	13.31
190.082	6.79
190.302	5.47
190.521	-5.26
190.74	-1.21
190.959	-32.25
191.178	-26.43
191.398	-34.87
191.617	-40.24
191.836	-64.99
192.055	-24.3
192.274	-43.51
192.494	-13.76
192.713	-134.68
192.932	-96.97
193.151	-185.01
193.37	-84.53
193.589	-125.85
193.808	-113.9
194.027	-439.02
194.246	877
194.465	-2212.42
194.685	-93.98
194.904	-138.31
195.123	-63.2
195.342	-103.5
195.561	-28.58
195.78	-22.26
195.999	-4
196.218	-3.64
196.436	17.38
196.655	17.7
196.874	38.44
197.093	41.37
197.312	41.32
197.531	60.1
197.75	63.44
197.969	68.68
198.188	65.23
198.407	71.33
198.625	61.19
198.844	61.2
199.063	52.43
199.282	50.42
199.501	32.05
199.719	58.5
199.938	39.4
200.157	32.93
200.376	32.43
200.594	47.51
200.813	38.96
201.032	34.42
201.251	14.33
201.469	22.38
201.688	13.71
201.907	13.7
202.125	-15.21
202.344	-17.56
202.563	-31.61
202.781	-65.62
203	-70.4
203.218	-38.66
203.437	-21.54
203.656	30.97
203.874	-3.42
204.093	10.67
204.311	35.54
204.53	22.1
204.748	14.25
204.967	22.41
205.185	45.59
205.404	29.09
205.622	24.39
205.841	29.32
206.059	-3.21
206.278	13.34
206.496	5.67
206.715	-18.87
206.933	-4.95
207.151	6.15
207.37	6.23
207.588	10.82
207.806	20.91
208.025	9.38
208.243	6.63
208.461	18.73
208.68	24.75
208.898	29.17
209.116	40.09
209.335	51.68
209.553	48.93
209.771	59.63
209.989	45.2
210.208	33.87
210.426	33.37
210.644	36.72
210.862	28.12
211.081	16.01
211.299	6.76
211.517	3.03
211.735	-13.27
211.953	10.95
212.171	7.61
212.39	12.02
212.608	19.15
212.826	19.91
213.044	23.56
213.262	24.02
213.48	26.34
213.698	45.64
213.916	48.28
214.134	35.59
214.352	22.02
214.57	16.66
214.788	26.92
215.006	17.74
215.224	18.17
215.442	2.29
215.66	11.95
215.878	-12.09
216.096	-56.87
216.314	-18.41
216.532	1.99
216.75	19.99
216.968	20.31
217.185	-10.73
217.403	-30.08
217.621	-54.83
217.839	-29.66
218.057	-72.79
218.275	-24.12
218.492	-32.29
218.71	-34.82
218.928	-10.34
219.146	-37.52
219.363	21.27
219.581	36.02
219.799	66.16
220.017	92.82
220.234	107.31
220.452	116.89
220.67	137.45
220.887	243.69
221.105	296.22
221.323	4085.28
221.54	309.76
221.758	1101.43
221.976	380.75
222.193	80.2
222.411	44.49
222.629	-17.62
222.846	-62.8
223.064	68.35
223.281	-21.87
223.499	-45.24
223.716	-138.19
223.934	210.77
224.151	82.8
224.369	54.49
224.586	59.73
224.804	75.16
225.021	67.56
225.239	61.97
225.456	83.78
225.674	67.33
225.891	45.87
226.108	22.73
226.326	26.44
226.543	31.47
226.76	22.23
226.978	28.01
227.195	1.63
227.413	5.76
227.63	9.16
227.847	7.72
228.064	11.29
228.282	10.51
228.499	16.57
228.716	14.48
228.934	14.63
229.151	12.73
229.368	7.7
229.585	8.11
229.802	8.58
230.02	7.21
230.237	5.97
230.454	9.61
230.671	10.58
230.888	7.98
231.105	5.61
231.323	1.47
231.54	0.83
231.757	1.09
231.974	1.48
232.191	1.51
232.408	6.96
232.625	14.04
232.842	12.08
233.059	14.76
233.276	12.49
233.493	17.74
233.71	26.28
233.927	29.27
234.144	26.86
234.361	19.85
234.578	18.63
234.795	19.62
235.012	12.96
235.229	12.41
235.446	16.16
235.663	19.37
235.879	13.51
236.096	11.55
236.313	8.93
236.53	8.86
236.747	17.46
236.964	11.65
237.181	2.63
237.397	4.38
237.614	2.69
237.831	1.19
238.048	4.85
238.264	2.35
238.481	-6.21
238.698	4.29
238.915	11.35
239.131	8.8
239.348	14.2
239.565	16.96
239.781	16.34
239.998	10.58
240.215	9.78
240.431	7.62
240.648	16.24
240.865	20.5
241.081	16.67
241.298	13.84
241.514	13.21
241.731	15.05
241.947	14.52
242.164	14.71
242.38	16.51
242.597	16.3
242.814	16.74
243.03	12.65
243.246	12.17
243.463	12.35
243.679	12.79
243.896	11.94
244.112	9.34
244.329	9.57
244.545	9.56
244.762	10.33
244.978	12.28
245.194	10.45
245.411	11.01
245.627	10.99
245.843	9.57
246.06	8.43
246.276	9.6
246.492	10.29
246.709	9.72
246.925	9.88
247.141	9.62
247.357	8.15
247.574	8.35
247.79	8.49
248.006	8.38
248.222	8.69
248.439	8.9
248.655	8.48
248.871	8.18
249.087	8.76
249.303	8.87
249.519	8.62
249.736	8.48
249.952	9.07
250.168	10.7
250.384	9.99
250.6	9.06
250.816	8.07
251.032	9.7
251.248	8.85
251.464	6.13
251.68	4.22
251.896	4.2
252.112	3.76
252.328	1.02
252.544	0.62
252.76	-0.91
252.976	-0.88
253.192	1.37
253.408	0.12
253.624	0.68
253.84	2.62
254.056	3.24
254.272	2.06
254.487	2.75
254.703	5.48
254.919	3.46
255.135	6.86
255.351	5.78
255.567	6.99
255.782	9.54
255.998	9.88
256.214	10.55
256.43	14.57
256.646	17.13
256.861	19.29
257.077	19.47
257.293	21.8
257.508	22.57
257.724	22.19
257.94	20.13
258.155	18.34
258.371	16.96
258.587	12.95
258.802	11.35
259.018	10.52
259.234	10.26
259.449	10.34
259.665	9.19
259.88	8.82
260.096	9.12
260.312	8.76
260.527	8.45
260.743	8.19
260.958	9.18
261.174	8.71
261.389	8.44
261.605	8.07
261.82	7.52
262.036	7.85
262.251	6.61
262.466	5.75
262.682	5.83
262.897	5.91
263.113	5.58
263.328	6.07
263.543	4.58
263.759	1.59
263.974	-0.12
264.189	-1.35
264.405	-0.4
264.62	0.19
264.835	2.38
265.051	3.86
265.266	3.26
265.481	5.45
265.696	6.95
265.912	9.01
266.127	10.74
266.342	12.41
266.557	13.26
266.773	10.7
266.988	10.29
267.203	8.56
267.418	6.77
267.633	8.44
267.848	6.84
268.064	6.08
268.279	6.83
268.494	7.04
268.709	6.37
268.924	7.38
269.139	6.98
269.354	8.36
269.569	9.61
269.784	10.04
269.999	8.26
270.214	8.11
270.429	7.03
270.644	5.8
270.859	6.26
271.074	5.47
271.289	3.32
271.504	5.55
271.719	4.37
271.934	2.82
272.149	3.15
272.363	2.75
272.578	4.07
272.793	4.21
273.008	3.84
273.223	4.2
273.438	4.19
273.653	5.84
273.867	4.51
274.082	4.68
274.297	5.86
274.512	4.82
274.726	4.71
274.941	4.23
275.156	5.53
275.371	7.35
275.585	7.13
275.8	7.21
276.015	5.76
276.229	6.8
276.444	7.41
276.659	6.83
276.873	9.42
277.088	11.56
277.302	12.22
277.517	10.73
277.732	8.6
277.946	7.99
278.161	8.12
278.375	8.42
278.59	9.71
278.804	8.27
279.019	8.63
279.233	6.93
279.448	4.49
279.662	4.64
279.877	6.05
280.091	7.08
280.306	7.76
280.52	8.62
280.735	9.44
280.949	8.05
281.163	8.61
281.378	8.49
281.592	9.47
281.806	9.88
282.021	8.76
282.235	8.23
282.449	8.16
282.664	8.51
282.878	7.57
283.092	7.25
283.307	7.42
283.521	8.15
283.735	8.64
283.949	7.43
284.164	7.88
284.378	8.74
284.592	9.11
284.806	9.6
285.02	9.73
285.234	10.08
285.449	10.7
285.663	10.62
285.877	10.11
286.091	10.04
286.305	10.61
286.519	11.18
286.733	10.52
286.947	10.77
287.161	10.57
287.375	10.23
287.589	10.48
287.803	9.84
288.017	10.25
288.231	11.07
288.445	10.87
288.659	11.31
288.873	10.16
289.087	10.34
289.301	9.98
289.515	10.38
289.729	10.43
289.943	9.02
290.157	8.21
290.371	8.34
290.584	7.82
290.798	7.09
291.012	6.5
291.226	7.09
291.44	6.58
291.654	5.86
291.867	5.83
292.081	7.04
292.295	8.45
292.509	9.61
292.722	8.42
292.936	7.34
293.15	9.02
293.364	9.85
293.577	9.36
293.791	10.41
294.005	11.3
294.218	10.74
294.432	9.02
294.645	9.21
294.859	9.3
295.073	9.67
295.286	10.56
295.5	10.04
295.713	9.41
295.927	9.93
296.14	8.41
296.354	8.45
296.568	7.85
296.781	9.01
296.994	8.82
297.208	7.99
297.421	8.49
297.635	8.76
297.848	8.61
298.062	8.59
298.275	8.46
298.489	9.31
298.702	9.28
298.915	9.51
299.129	8.45
299.342	8.44
299.555	8.96
299.769	9.6
299.982	9.85
300.195	9.6
300.409	9.33
300.622	8.89
300.835	8.76
301.048	7.95
301.262	8.65
301.475	8.26
301.688	8.45
301.901	8.31
302.115	6.75
302.328	6.71
302.541	7.33
302.754	8.55
302.967	9.49
303.18	10.29
303.393	11.27
303.607	11.35
303.82	12.03
304.033	13.19
304.246	13.64
304.459	14.17
304.672	13.83
304.885	14.38
305.098	13.92
305.311	13.87
305.524	13.69
305.737	13.33
305.95	13.09
306.163	12.84
306.376	10.56
306.589	11.25
306.802	9.95
307.015	9.3
307.228	9.71
307.44	10.01
307.653	11.11
307.866	11.85
308.079	12.16
308.292	12.55
308.505	13.08
308.718	14.66
308.93	14.96
309.143	16.18
309.356	16.46
309.569	16.19
309.781	16.66
309.994	15.57
310.207	14.86
310.42	14.58
310.632	15.14
310.845	14.92
311.058	15.86
311.27	15.51
311.483	15.44
311.696	15.79
311.908	15.8
312.121	15.11
312.333	15.15
312.546	15.33
312.759	15.37
312.971	15.12
313.184	15.18
313.396	13.01
313.609	12.77
313.821	12.49
314.034	12.03
314.246	11.36
314.459	11.15
314.671	11.36
314.884	11.08
315.096	12.19
315.309	10.35
315.521	10.29
315.733	10.24
315.946	9.65
316.158	10.11
316.371	11.22
316.583	10.5
316.795	10.89
317.008	11.45
317.22	11.82
317.432	10.75
317.644	11.71
317.857	12.97
318.069	14.14
318.281	13.45
318.494	13.14
318.706	11.96
318.918	13.08
319.13	12.32
319.342	12.86
319.555	13
319.767	13.04
319.979	12.88
320.191	12.21
320.403	11.61
320.615	13.41
320.827	13.73
321.039	14.56
321.252	15.34
321.464	17.14
321.676	16.98
321.888	17.1
322.1	17.68
322.312	18.6
322.524	19.03
322.736	20.7
322.948	19.27
323.16	19.01
323.372	18.23
323.584	16.65
323.796	16.91
324.007	16.58
324.219	17.19
324.431	16.69
324.643	16.28
324.855	17.18
325.067	17.5
325.279	18.03
325.491	19.63
325.702	19.91
325.914	21.07
326.126	21.29
326.338	22.44
326.55	23.26
326.761	24.81
326.973	26.14
327.185	26.53
327.396	26.72
327.608	27.57
327.82	25.81
328.032	27.29
328.243	28.25
328.455	29.13
328.666	29.06
328.878	30.07
329.09	30.23
329.301	30.82
329.513	29.9
329.725	30.07
329.936	30.73
330.148	32.55
330.359	31.95
330.571	31.69
330.782	31.71
330.994	31.82
331.205	30.61
331.417	30.32
331.628	29.88
331.84	30.19
332.051	29.07
332.262	30.99
332.474	31.14
332.685	32.86
332.897	33.89
333.108	33.99
333.319	34.47
333.531	34.56
333.742	36.09
333.953	36.82
334.165	36.98
334.376	38.19
334.587	37.57
334.799	38.85
335.01	37.8
335.221	37.37
335.432	38.14
335.644	38.68
335.855	39.41
336.066	39.18
336.277	38.77
336.488	39.03
336.7	38.91
336.911	38.71
337.122	38.62
337.333	39.73
337.544	40.49
337.755	38.2
337.966	37.77
338.177	37.39
338.388	36.84
338.599	36.92
338.811	36.46
339.022	37.12
339.233	36.28
339.444	35.46
339.655	33.96
339.866	33
340.076	34.75
340.287	34.47
340.498	34.58
340.709	34.93
340.92	34.92
341.131	35.18
341.342	35.19
341.553	35.24
341.764	35.96
341.975	37.17
342.185	37.85
342.396	37.96
342.607	37.52
342.818	38.06
343.029	38.35
343.239	38.6
343.45	38.82
343.661	38.69
343.872	38.46
344.082	38.35
344.293	38.78
344.504	38.57
344.714	38.19
344.925	39.04
345.136	39.03
345.346	37.99
345.557	38.28
345.768	38.7
345.978	37.72
346.189	39.24
346.399	39.02
346.61	37.65
346.821	37.28
347.031	36.82
347.242	36.3
347.452	35.3
347.663	35.16
347.873	34.77
348.084	35.02
348.294	35.88
348.504	35.75
348.715	34.92
348.925	35.17
349.136	35.35
349.346	35.61
349.557	36.38
349.767	36.81
349.977	37.59
350.188	36.79
350.398	36.63
350.608	36.62
350.819	35.38
351.029	35.73
351.239	35.35
351.449	35.02
351.66	34.74
351.87	34.58
352.08	34.79
352.29	34.65
352.501	36.03
352.711	36
352.921	35.16
353.131	35.16
353.341	35.1
353.552	35.8
353.762	35.78
353.972	35.74
354.182	35.72
354.392	35.16
354.602	34.34
354.812	33.72
355.022	33.22
355.232	34.12
355.442	34.13
355.652	34
355.862	33.9
356.072	33.77
356.282	34.1
356.492	34.01
356.702	34.23
356.912	35.06
357.122	35.55
357.332	35.64
357.542	34.96
357.752	34.8
357.962	35.4
358.171	35.15
358.381	35.63
358.591	35.41
358.801	34.69
359.011	34.91
359.221	34.63
359.43	33.99
359.64	33.22
359.85	33.43
360.06	33.7
360.269	32.99
360.479	32.73
360.689	32.2
360.899	32.13
361.108	32.71
361.318	32.36
361.528	32.06
361.737	31.86
361.947	32.26
362.156	32.53
362.366	32.15
362.576	32.41
362.785	32.5
362.995	33.07
363.204	33.01
363.414	32.7
363.623	32.38
363.833	32.35
364.042	32.51
364.252	33.06
364.461	32.68
364.671	33.21
364.88	32.44
365.09	32.32
365.299	32.29
365.509	32.08
365.718	31.93
365.927	31.42
366.137	31.57
366.346	32.34
366.555	31.82
366.765	31.64
366.974	31.12
367.183	31.49
367.393	31.6
367.602	31.3
367.811	31.82
368.021	32.16
368.23	32.78
368.439	32.65
368.648	32.75
368.857	31.92
369.067	31.29
369.276	30.76
369.485	30.64
369.694	30.53
369.903	30.16
370.112	29.33
370.321	29.27
370.531	29.2
370.74	29.34
370.949	28.51
371.158	28.99
371.367	29.3
371.576	29.65
371.785	29.74
371.994	29.67
372.203	29.74
372.412	30.26
372.621	30.12
372.83	30.06
373.039	30.04
373.248	29.97
373.457	29.79
373.666	29.68
373.874	29.08
374.083	28.69
374.292	28.42
374.501	27.82
374.71	27.22
374.919	26.96
375.128	27.01
375.336	26.69
375.545	26.59
375.754	26.36
375.963	26.36
376.171	26.43
376.38	26.53
376.589	26.6
376.798	26.49
377.006	26.27
377.215	25.74
377.424	25.44
377.632	25.43
377.841	25.24
378.05	25.28
378.258	24.98
378.467	24.85
378.675	24.89
378.884	24.61
379.093	24.8
379.301	25.08
379.51	24.96
379.718	24.61
379.927	24.87
380.135	24.73
380.344	24.96
380.552	24.96
380.761	25.14
380.969	24.87
381.177	24.91
381.386	24.43
381.594	24.45
381.803	24.59
382.011	24.35
382.219	24.18
382.428	23.84
382.636	23.39
382.845	23.12
383.053	22.71
383.261	22.6
383.469	22.44
383.678	23.08
383.886	23.09
384.094	23.37
384.302	23.65
384.511	23.16
384.719	23
384.927	22.81
385.135	22.97
385.343	22.9
385.552	22.8
385.76	22.58
385.968	21.73
386.176	21.41
386.384	20.91
386.592	20.65
386.8	20.16
387.008	20.27
387.216	20.56
387.424	19.8
387.633	19.75
387.841	19.66
388.049	19.87
388.257	19.77
388.465	19.32
388.672	19.21
388.88	19.31
389.088	19.46
389.296	19.03
389.504	18.52
389.712	19.19
389.92	19.03
390.128	18.77
390.336	18.38
390.544	18.54
390.751	18.45
390.959	18.11
391.167	18.08
391.375	18.15
391.583	17.88
391.79	17.72
391.998	17.26
392.206	17.22
392.414	16.77
392.621	16.45
392.829	16.32
393.037	16.6
393.244	16.75
393.452	16.09
393.66	16.02
393.867	15.89
394.075	16.05
394.283	16.12
394.49	16.18
394.698	16.14
394.905	16.2
395.113	15.85
395.32	15.58
395.528	15.4
395.735	15.94
395.943	15.73
396.15	16
396.358	15.58
396.565	15.36
396.773	15.26
396.98	15.36
397.188	15.43
397.395	15.94
397.602	15.84
397.81	15.76
398.017	15.44
398.225	15.46
398.432	15.57
398.639	15.74
398.847	15.96
399.054	15.64
399.261	15.68
399.468	15.31
399.676	15.28
399.883	15.18
400.09	14.85
400.297	14.75
400.505	14.43
400.712	14.2
400.919	13.86
401.126	13.69
401.333	14
401.54	14.29
401.748	14.46
401.955	13.82
402.162	13.77
402.369	13.88
402.576	13.7
402.783	13.99
402.99	13.97
403.197	14
403.404	13.86
403.611	13.28
403.818	13.01
404.025	12.83
404.232	12.8
404.439	12.87
404.646	13.02
404.853	13.1
405.06	12.81
405.267	12.6
405.474	12.61
405.681	12.63
405.887	12.79
406.094	12.44
406.301	12.55
406.508	12.84
406.715	12.44
406.922	12.2
407.128	12.31
407.335	12.24
407.542	12.4
407.749	12.69
407.955	12.36
408.162	12.69
408.369	13.09
408.575	13.15
408.782	12.83
408.989	12.96
409.195	13.35
409.402	13.31
409.609	13.62
409.815	13.57
410.022	13.15
410.228	13.22
410.435	13.09
410.642	13.02
410.848	12.73
411.055	12.86
411.261	13.04
411.468	12.71
411.674	12.76
411.881	12.4
412.087	12.19
412.294	12.33
412.5	12.64
412.706	12.48
412.913	12.12
413.119	11.98
413.326	11.92
413.532	12.1
413.738	11.89
413.945	11.62
414.151	11.66
414.357	12.08
414.564	12
414.77	11.44
414.976	11.54
415.182	11.57
415.389	11.86
415.595	11.81
415.801	11.25
416.007	11.58
416.214	11.43
416.42	11.53
416.626	11.33
416.832	11.34
417.038	11.64
417.244	11.55
417.45	11.52
417.657	11.4
417.863	11.38
418.069	11.46
418.275	10.95
418.481	11.04
418.687	10.95
418.893	10.92
419.099	10.99
419.305	10.77
419.511	10.64
419.717	10.56
419.923	10.47
420.129	10.39
420.335	10.36
420.541	10.7
420.746	10.56
420.952	10.54
421.158	10.46
421.364	10.18
421.57	10.17
421.776	10.12
421.982	10.07
422.187	9.97
422.393	9.95
422.599	9.99
422.805	9.79
423.01	9.98
423.216	9.88
423.422	9.9
423.628	10.11
423.833	10.18
424.039	10.36
424.245	10.38
424.45	10.52
424.656	10.58
424.862	10.39
425.067	10.41
425.273	10.25
425.478	10.21
425.684	10.13
425.889	9.91
426.095	9.94
426.301	9.76
426.506	9.75
426.712	9.69
426.917	9.71
427.123	9.81
427.328	9.93
427.533	9.98
427.739	10.05
427.944	10.11
428.15	10.01
428.355	9.67
428.561	9.73
428.766	9.91
428.971	9.82
429.177	9.61
429.382	9.56
429.587	9.49
429.793	9.38
429.998	9.56
430.203	9.27
430.408	9.6
430.614	9.75
430.819	9.71
431.024	9.71
431.229	9.7
431.434	9.76
431.64	9.81
431.845	9.68
432.05	9.81
432.255	9.63
432.46	9.8
432.665	9.52
432.87	9.59
433.076	9.6
433.281	9.33
433.486	9.22
433.691	9.12
433.896	9
434.101	8.93
434.306	8.74
434.511	8.75
434.716	8.8
434.921	8.87
435.126	8.8
435.331	8.8
435.535	9.01
435.74	9.09
435.945	9.23
436.15	9.4
436.355	9.51
436.56	9.57
436.765	9.67
436.97	9.75
437.174	9.85
437.379	9.82
437.584	9.77
437.789	9.65
437.993	9.66
438.198	9.55
438.403	9.54
438.608	9.55
438.812	9.48
439.017	9.29
439.222	9.29
439.426	9.12
439.631	9.16
439.836	8.99
440.04	9.06
440.245	9.16
440.45	9.2
440.654	9.14
440.859	9.19
441.063	9.21
441.268	9.26
441.472	9.09
441.677	9.33
441.881	9.4
442.086	9.7
442.29	9.65
442.495	9.51
442.699	9.4
442.904	9.44
443.108	9.24
443.312	9.24
443.517	9.15
443.721	9.19
443.925	9.24
444.13	9.19
444.334	8.82
444.538	8.88
444.743	8.85
444.947	8.86
445.151	8.91
445.356	9.01
445.56	9.16
445.764	9.32
445.968	9.35
446.173	9.12
446.377	8.85
446.581	8.96
446.785	8.95
446.989	9
447.193	9.05
447.398	9.06
447.602	9.03
447.806	8.92
448.01	8.74
448.214	8.73
448.418	8.52
448.622	8.7
448.826	8.58
449.03	8.67
449.234	8.65
449.438	8.61
449.642	8.47
449.846	8.19
450.05	8.15
450.254	8.05
450.458	7.86
450.662	8.13
450.866	8.19
451.069	8.38
451.273	8.17
451.477	8.18
451.681	8.11
451.885	8.28
452.089	8.41
452.292	8.47
452.496	8.47
452.7	8.69
452.904	8.63
453.107	8.5
453.311	8.52
453.515	8.48
453.719	8.52
453.922	8.37
454.126	8.2
454.33	8.32
454.533	8.19
454.737	8.33
454.94	8.07
455.144	8.12
455.348	8.29
455.551	8.16
455.755	8.16
455.958	8.15
456.162	8.26
456.365	8.23
456.569	8.24
456.772	8.34
456.976	8.44
457.179	8.56
457.383	8.5
457.586	8.61
457.79	8.6
457.993	8.63
458.196	8.4
458.4	8.56
458.603	8.48
458.807	8.38
459.01	8.26
459.213	8.25
459.417	8.32
459.62	8.34
459.823	8.17
460.026	8.15
460.23	8.15
460.433	8.37
460.636	8.36
460.839	8.44
461.042	8.57
461.246	8.67
461.449	8.68
461.652	8.58
461.855	8.58
462.058	8.63
462.261	8.64
462.464	8.6
462.668	8.46
462.871	8.35
463.074	8.3
463.277	8.23
463.48	8.19
463.683	8.15
463.886	8.32
464.089	8.31
464.292	8.3
464.495	8.45
464.698	8.59
464.901	8.62
465.104	8.74
465.306	8.81
465.509	8.76
465.712	8.59
465.915	8.55
466.118	8.46
466.321	8.37
466.524	8.42
466.726	8.27
466.929	8.16
467.132	8.24
467.335	8.13
467.538	8.21
467.74	8.15
467.943	8.38
468.146	8.54
468.348	8.61
468.551	8.85
468.754	8.98
468.956	9.15
469.159	9.12
469.362	9.17
469.564	9.26
469.767	9.27
469.969	9.53
470.172	9.52
470.375	9.39
470.577	9.44
470.78	9.22
470.982	9.28
471.185	9.28
471.387	9.35
471.59	9.21
471.792	9.13
471.995	8.97
472.197	8.69
472.399	8.46
472.602	8.51
472.804	8.36
473.007	8.48
473.209	8.35
473.411	8.14
473.614	8.19
473.816	8.29
474.018	8.4
474.22	8.55
474.423	8.88
474.625	9.22
474.827	9.18
475.03	9.18
475.232	9.26
475.434	9.48
475.636	9.67
475.838	9.73
476.04	9.48
476.243	9.3
476.445	9.15
476.647	8.97
476.849	8.83
477.051	8.79
477.253	8.73
477.455	8.48
477.657	8.22
477.859	8.06
478.061	7.89
478.263	8.04
478.465	8.13
478.667	8.12
478.869	8.13
479.071	8.05
479.273	8.08
479.475	8.24
479.677	8.37
479.879	8.56
480.081	8.52
480.283	8.51
480.485	8.44
480.686	8.56
480.888	8.55
481.09	8.47
481.292	8.61
481.494	8.66
481.695	8.65
481.897	8.71
482.099	8.54
482.301	8.71
482.502	8.79
482.704	8.87
482.906	8.75
483.107	8.72
483.309	8.7
483.511	8.67
483.712	8.63
483.914	8.59
484.115	8.54
484.317	8.55
484.519	8.46
484.72	8.38
484.922	8.3
485.123	8.29
485.325	8.29
485.526	8.29
485.728	8.21
485.929	8.2
486.131	8.11
486.332	8.09
486.534	8.09
486.735	8.12
486.936	8.2
487.138	8.28
487.339	8.29
487.541	8.35
487.742	8.34
487.943	8.38
488.144	8.44
488.346	8.5
488.547	8.51
488.748	8.49
488.95	8.5
489.151	8.42
489.352	8.43
489.553	8.39
489.755	8.34
489.956	8.34
490.157	8.33
490.358	8.28
490.559	8.32
490.76	8.23
490.961	8.24
491.163	8.29
491.364	8.36
491.565	8.26
491.766	8.28
491.967	8.23
492.168	8.28
492.369	8.28
492.57	8.23
492.771	8.2
492.972	8.26
493.173	8.27
493.374	8.3
493.575	8.31
493.776	8.34
493.976	8.4
494.177	8.41
494.378	8.44
494.579	8.51
494.78	8.71
494.981	8.84
495.182	9.05
495.382	9.09
495.583	8.93
495.784	8.96
495.985	9.08
496.185	9.03
496.386	9.11
496.587	9.07
496.788	9.08
496.988	8.95
497.189	8.91
497.39	8.96
497.59	9.04
497.791	9.11
497.992	9.19
498.192	9.17
498.393	9.29
498.593	9.31
498.794	9.28
498.994	9.38
499.195	9.37
499.395	9.45
499.596	9.38
499.796	9.37
499.997	9.48
500.197	9.45
500.398	9.5
500.598	9.58
500.799	9.78
500.999	9.9
501.199	9.87
501.4	10.01
501.6	10
501.801	10.05
502.001	10.1
502.201	10.16
502.402	10.1
502.602	10.1
502.802	10.07
503.002	10.19
503.203	10.22
503.403	10.25
503.603	10.26
503.803	10.21
504.003	10.26
504.204	10.35
504.404	10.39
504.604	10.48
504.804	10.62
505.004	10.67
505.204	10.6
505.404	10.66
505.604	10.7
505.804	10.87
506.005	10.94
506.205	10.98
506.405	10.93
506.605	11
506.805	11.02
507.005	11.1
507.204	11.18
507.404	11.11
507.604	11.1
507.804	11.16
508.004	11.12
508.204	11.24
508.404	11.21
508.604	11.37
508.804	11.57
509.003	11.75
509.203	11.82
509.403	12.01
509.603	12.18
509.803	12.3
510.002	12.4
510.202	12.6
510.402	12.66
510.602	12.81
510.801	12.89
511.001	12.82
511.201	12.8
511.4	12.82
511.6	12.82
511.8	12.88
511.999	12.96
512.199	13.02
512.398	12.9
512.598	13.03
512.797	13.24
512.997	13.38
513.197	13.51
513.396	13.63
513.596	13.78
513.795	14.02
513.994	13.89
514.194	14.2
514.393	14.37
514.593	14.68
514.792	14.79
514.992	14.99
515.191	15.15
515.39	15.28
515.59	15.53
515.789	15.73
515.988	15.72
516.188	16.23
516.387	16.34
516.586	16.51
516.786	16.54
516.985	16.64
517.184	16.64
517.383	16.74
517.582	16.79
517.782	17.01
517.981	17.05
518.18	17.17
518.379	17.2
518.578	17.16
518.777	17.25
518.976	17.41
519.176	17.64
519.375	17.84
519.574	17.93
519.773	18.11
519.972	18.23
520.171	18.36
520.37	18.45
520.569	18.68
520.768	18.97
520.967	19.12
521.166	19.33
521.365	19.34
521.564	19.21
521.762	19.4
521.961	19.58
522.16	19.66
522.359	19.87
522.558	20.03
522.757	20.05
522.956	20.09
523.154	20.35
523.353	20.42
523.552	20.7
523.751	20.96
523.949	21.05
524.148	21.19
524.347	21.27
524.546	21.38
524.744	21.59
524.943	21.65
525.142	21.68
525.34	21.82
525.539	21.93
525.737	22.03
525.936	22.22
526.135	22.41
526.333	22.53
526.532	22.69
526.73	22.87
526.929	22.83
527.127	23.02
527.326	23.21
527.524	23.21
527.723	23.36
527.921	23.43
528.12	23.52
528.318	23.49
528.516	23.56
528.715	23.61
528.913	23.7
529.112	23.82
529.31	23.94
529.508	24.05
529.707	24.17
529.905	24.23
530.103	24.32
530.301	24.42
530.5	24.63
530.698	24.72
530.896	24.83
531.094	24.84
531.293	24.98
531.491	24.99
531.689	25.04
531.887	25.22
532.085	25.33
532.283	25.39
532.481	25.49
532.68	25.51
532.878	25.72
533.076	25.86
533.274	25.98
533.472	26.14
533.67	26.21
533.868	26.32
534.066	26.27
534.264	26.34
534.462	26.5
534.66	26.53
534.858	26.71
535.056	26.69
535.253	26.7
535.451	26.83
535.649	26.97
535.847	27.12
536.045	27.21
536.243	27.39
536.441	27.48
536.638	27.48
536.836	27.59
537.034	27.59
537.232	27.64
537.43	27.79
537.627	27.82
537.825	27.73
538.023	27.66
538.22	27.74
538.418	27.69
538.616	27.75
538.813	27.87
539.011	27.99
539.209	28.15
539.406	28.29
539.604	28.46
539.801	28.58
539.999	28.88
540.196	29
540.394	29.2
540.591	29.28
540.789	29.38
540.986	29.5
541.184	29.63
541.381	29.58
541.579	29.6
541.776	29.57
541.974	29.61
542.171	29.56
542.368	29.72
542.566	29.6
542.763	29.7
542.96	29.73
543.158	29.75
543.355	29.83
543.552	30.02
543.75	30.17
543.947	30.32
544.144	30.46
544.341	30.58
544.539	30.56
544.736	30.85
544.933	31
545.13	31.09
545.327	31.18
545.524	31.09
545.722	31.12
545.919	31.14
546.116	31.13
546.313	31.15
546.51	31.18
546.707	31.2
546.904	31.21
547.101	31.21
547.298	31.38
547.495	31.43
547.692	31.51
547.889	31.6
548.086	31.73
548.283	31.8
548.48	31.74
548.677	31.84
548.874	31.99
549.07	31.93
549.267	32.09
549.464	31.97
549.661	31.94
549.858	32.09
550.055	32.22
550.251	32.16
550.448	32.05
550.645	32.24
550.842	32.23
551.038	32.29
551.235	32.66
551.432	32.56
551.628	32.78
551.825	32.87
552.022	32.75
552.218	32.56
552.415	32.59
552.612	32.74
552.808	32.9
553.005	32.95
553.201	33.07
553.398	32.97
553.594	33.01
553.791	32.92
553.987	32.86
554.184	33.08
554.38	33.35
554.577	33.43
554.773	33.59
554.97	33.46
555.166	33.51
555.362	33.52
555.559	33.66
555.755	33.9
555.952	33.93
556.148	33.98
556.344	33.69
556.541	33.57
556.737	33.43
556.933	33.43
557.129	33.66
557.326	33.74
557.522	33.66
557.718	33.66
557.914	33.66
558.11	33.92
558.307	34
558.503	34.15
558.699	34.47
558.895	34.75
559.091	34.85
559.287	34.8
559.483	35.02
559.679	35.18
559.876	35.07
560.072	35
560.268	34.79
560.464	35.02
560.66	35.33
560.856	35.08
561.052	35.29
561.247	35.27
561.443	35.29
561.639	35.13
561.835	35.07
562.031	35.19
562.227	35.02
562.423	35.26
562.619	35.34
562.815	35.4
563.01	35.58
563.206	35.59
563.402	35.45
563.598	35.38
563.793	35.43
563.989	35.65
564.185	35.67
564.381	35.89
564.576	35.76
564.772	35.59
564.968	35.31
565.163	35.15
565.359	35.24
565.555	35.34
565.75	35.52
565.946	35.7
566.141	35.64
566.337	35.66
566.532	35.68
566.728	35.88
566.923	35.88
567.119	36.01
567.314	36
567.51	35.8
567.705	35.92
567.901	35.83
568.096	35.89
568.292	36.05
568.487	36.15
568.682	36.14
568.878	36.19
569.073	36.19
569.268	36.27
569.464	36.29
569.659	36.48
569.854	36.67
570.05	36.85
570.245	36.86
570.44	36.68
570.635	36.57
570.831	36.54
571.026	36.39
571.221	36.48
571.416	36.56
571.611	36.68
571.806	36.66
572.002	36.54
572.197	36.52
572.392	36.3
572.587	36.5
572.782	36.59
572.977	36.83
573.172	36.86
573.367	36.87
573.562	36.83
573.757	36.93
573.952	36.75
574.147	36.79
574.342	36.92
574.537	37.05
574.732	36.99
574.927	37.02
575.121	36.96
575.316	36.96
575.511	36.97
575.706	37.12
575.901	37.15
576.096	37.35
576.29	37.33
576.485	37.17
576.68	37.15
576.875	37.28
577.069	37.28
577.264	37.33
577.459	37.29
577.654	37.47
577.848	37.3
578.043	37.48
578.238	37.68
578.432	37.55
578.627	37.7
578.821	37.66
579.016	37.52
579.21	37.58
579.405	37.51
579.6	37.64
579.794	37.55
579.989	37.67
580.183	37.3
580.378	37.21
580.572	37.55
580.766	37.59
580.961	37.71
581.155	37.6
581.35	37.73
581.544	37.82
581.738	38.07
581.933	38.19
582.127	38.44
582.321	38.7
582.516	38.23
582.71	38.06
582.904	38.05
583.099	38.27
583.293	38.67
583.487	38.55
583.681	38.57
583.875	38.35
584.07	38.06
584.264	37.99
584.458	38.07
584.652	38.41
584.846	38.44
585.04	38.15
585.234	37.97
585.428	37.61
585.623	37.73
585.817	37.91
586.011	38.23
586.205	38.46
586.399	38.28
586.593	38.12
586.787	38.42
586.981	38.59
587.174	38.78
587.368	38.88
587.562	38.92
587.756	38.82
587.95	38.66
588.144	38.58
588.338	38.75
588.532	38.61
588.725	38.93
588.919	38.99
589.113	38.97
589.307	39.16
589.501	39.03
589.694	39.31
589.888	39.33
590.082	39.24
590.275	39.26
590.469	38.95
590.663	39.01
590.856	38.79
591.05	38.79
591.244	38.76
591.437	38.75
591.631	38.88
591.824	38.65
592.018	38.75
592.212	38.81
592.405	38.77
592.599	38.94
592.792	38.82
592.986	38.9
593.179	39.11
593.372	39.15
593.566	39.24
593.759	39.16
593.953	39.42
594.146	39.22
594.339	39.29
594.533	39.33
594.726	39.24
594.92	39.38
595.113	39.42
595.306	39.03
595.499	39.14
595.693	39.09
595.886	39.05
596.079	38.9
596.272	39.07
596.466	39.09
596.659	38.92
596.852	39.08
597.045	39.23
597.238	39.11
597.431	39.2
597.624	39.19
597.818	39.16
598.011	39.29
598.204	39.37
598.397	39.47
598.59	39.54
598.783	39.8
598.976	39.95
599.169	40.09
599.362	40.36
599.555	40.41
599.748	40.33
599.941	40.19
600.134	40.22
600.326	40.4
600.519	40.23
600.712	40.13
600.905	40.02
601.098	39.5
601.291	39.36
601.483	39.37
601.676	38.95
601.869	39.12
602.062	39.28
602.255	39.1
602.447	38.89
602.64	38.99
602.833	39.22
603.025	39.22
603.218	39.38
603.411	39.33
603.603	39.3
603.796	39.56
603.989	39.47
604.181	39.3
604.374	39.62
604.566	39.72
604.759	39.65
604.951	39.45
605.144	39.42
605.336	39.5
605.529	39.7
605.721	39.55
605.914	39.69
606.106	39.71
606.299	39.7
606.491	39.6
606.683	39.64
606.876	39.68
607.068	39.79
607.26	39.86
607.453	39.91
607.645	39.92
607.837	40.03
608.03	40.26
608.222	40.31
608.414	40.8
608.606	40.75
608.799	40.56
608.991	40.82
609.183	40.91
609.375	41.07
609.567	41.38
609.759	41.33
609.952	41.61
610.144	41.76
610.336	42.13
610.528	42.08
610.72	42.24
610.912	42.69
611.104	42.86
611.296	43.06
611.488	43.26
611.68	43.21
611.872	43.15
612.064	43.09
612.256	42.7
612.448	42.51
612.64	42.55
612.832	42.42
613.023	42.29
613.215	42
613.407	41.91
613.599	41.65
613.791	41.64
613.983	41.76
614.174	41.67
614.366	41.79
614.558	41.83
614.75	41.71
614.941	41.56
615.133	41.03
615.325	41.04
615.516	40.92
615.708	40.65
615.9	40.63
616.091	40.51
616.283	40.41
616.475	40.52
616.666	40.4
616.858	40.08
617.049	40.02
617.241	40.15
617.432	40.05
617.624	39.9
617.815	40.13
618.007	40
618.198	40.17
618.39	40.15
618.581	39.9
618.773	39.74
618.964	39.95
619.155	40.38
619.347	40.45
619.538	40.68
619.729	41.18
619.921	41.28
620.112	41.4
620.303	41.09
620.494	41.2
620.686	41.1
620.877	41.22
621.068	41.34
621.259	41.11
621.451	41.31
621.642	41.15
621.833	40.72
622.024	40.44
622.215	40.5
622.406	40.74
622.597	40.71
622.788	41.05
622.98	41.14
623.171	41.37
623.362	41.21
623.553	41.37
623.744	41.5
623.935	41.72
624.126	41.93
624.317	41.49
624.508	41.67
624.698	41.82
624.889	41.36
625.08	41.29
625.271	41.23
625.462	41.33
625.653	41.31
625.844	41.03
626.034	41.01
626.225	41.13
626.416	41.43
626.607	41.29
626.798	40.96
626.988	41.49
627.179	41.53
627.37	41.63
627.56	41.79
627.751	41.64
627.942	41.93
628.132	41.85
628.323	41.86
628.514	41.81
628.704	41.68
628.895	41.7
629.085	41.49
629.276	41.59
629.466	41.75
629.657	41.71
629.847	41.83
630.038	41.61
630.228	41.57
630.419	41.87
630.609	41.87
630.8	41.86
630.99	42.11
631.181	42.22
631.371	42.07
631.561	41.58
631.752	41.42
631.942	41.32
632.132	41.72
632.323	41.67
632.513	41.66
632.703	41.76
632.893	41.82
633.084	41.68
633.274	41.37
633.464	41.51
633.654	41.57
633.844	41.67
634.034	41.97
634.225	41.45
634.415	41.64
634.605	41.1
634.795	40.9
634.985	40.77
635.175	41.13
635.365	41.14
635.555	40.93
635.745	41.18
635.935	41.1
636.125	40.87
636.315	41.05
636.505	40.87
636.695	40.84
636.885	41.05
637.075	41.19
637.265	41.2
637.455	41.66
637.644	41.77
637.834	41.35
638.024	41.12
638.214	41.31
638.404	41.27
638.593	41.29
638.783	41.57
638.973	41.65
639.163	41.76
639.352	41.4
639.542	41.19
639.732	41.31
639.921	41.4
640.111	41.78
640.301	41.29
640.49	41.34
640.68	41.73
640.87	41.81
641.059	41.67
641.249	41.86
641.438	41.59
641.628	41.49
641.817	41.49
642.007	41.33
642.196	41.47
642.386	42.03
642.575	41.83
642.764	41.81
642.954	41.64
643.143	41.51
643.333	41.73
643.522	41.81
643.711	41.85
643.901	41.62
644.09	41.93
644.279	41.91
644.469	41.55
644.658	41.86
644.847	41.51
645.036	41.25
645.226	41.36
645.415	40.94
645.604	41.25
645.793	41.03
645.982	40.78
646.171	40.47
646.361	40.25
646.55	40.34
646.739	40.15
646.928	40.67
647.117	41.15
647.306	40.99
647.495	40.86
647.684	40.99
647.873	41.04
648.062	41.25
648.251	41.64
648.44	41.68
648.629	42.06
648.818	42.44
649.007	42.06
649.196	41.85
649.384	41.41
649.573	41.83
649.762	41.6
649.951	41.74
650.14	41.91
650.328	42.09
650.517	42.09
650.706	41.95
650.895	41.54
651.083	41.74
651.272	41.62
651.461	42.33
651.65	41.84
651.838	41.89
652.027	42.04
652.216	42.06
652.404	42.07
652.593	42.37
652.781	42.15
652.97	42.24
653.158	42.11
653.347	42.48
653.535	42.46
653.724	43.14
653.912	43.19
654.101	42.98
654.289	42.82
654.478	42.78
654.666	42.58
654.855	42.98
655.043	43.02
655.231	42.75
655.42	42.52
655.608	42.46
655.796	41.98
655.985	42.13
656.173	42.08
656.361	42.25
656.55	42.05
656.738	42.12
656.926	41.55
657.114	41.12
657.302	41.19
657.491	41.03
657.679	40.85
657.867	41.15
658.055	41.16
658.243	41.33
658.431	41.1
658.619	41.36
658.807	41.64
658.996	41.56
659.184	41.8
659.372	41.62
659.56	41.61
659.748	41.82
659.936	41.73
660.124	41.65
660.311	41.6
660.499	41.9
660.687	41.63
660.875	41.15
661.063	41.34
661.251	41.87
661.439	41.88
661.627	42.17
661.814	42.28
662.002	42.51
662.19	42.07
662.378	42.41
662.565	42.41
662.753	42.19
662.941	42.45
663.129	42.61
663.316	41.92
663.504	42.43
663.692	42.53
663.879	42.44
664.067	42.35
664.254	42.82
664.442	42.45
664.63	42.34
664.817	43.02
665.005	42.67
665.192	42.39
665.38	42.53
665.567	42.31
665.755	42.3
665.942	42.36
666.13	41.75
666.317	42.2
666.504	41.97
666.692	41.9
666.879	41.58
667.067	41.72
667.254	41.68
667.441	41.72
667.629	41.94
667.816	41.8
668.003	41.32
668.19	41.41
668.378	41.26
668.565	41.94
668.752	42.33
668.939	42.65
669.127	42.91
669.314	43.2
669.501	43.43
669.688	43.66
669.875	43.47
670.062	43.69
670.249	44.12
670.436	43.7
670.623	43.6
670.81	43.36
670.997	43.29
671.184	43
671.371	42.87
671.558	42.96
671.745	42.74
671.932	43.01
672.119	42.88
672.306	42.99
672.493	43.38
672.68	42.99
672.867	42.91
673.054	42.46
673.24	42.68
673.427	43.02
673.614	43.19
673.801	43.19
673.988	43.09
674.174	43.55
674.361	43.22
674.548	42.88
674.734	43.11
674.921	43.07
675.108	43.8
675.294	43.78
675.481	43.2
675.668	42.87
675.854	42.92
676.041	42.81
676.227	42.46
676.414	42.34
676.601	42.38
676.787	42.65
676.974	42.32
677.16	41.87
677.347	42.31
677.533	42.83
677.719	42.84
677.906	42.68
678.092	42.71
678.279	43.42
678.465	43.21
678.651	43.39
678.838	42.87
679.024	42.95
679.21	43.07
679.397	43.12
679.583	42.39
679.769	42.35
679.955	42.44
680.142	42.58
680.328	42.31
680.514	42.51
680.7	42.29
680.886	42.66
681.073	42.8
681.259	42.69
681.445	42.24
681.631	42.73
681.817	42.59
682.003	42.23
682.189	41.72
682.375	41.52
682.561	41.58
682.747	41.95
682.933	41.45
683.119	41.6
683.305	41.47
683.491	41.45
683.677	42.03
683.863	42.69
684.049	42.87
684.235	43.29
684.42	42.99
684.606	43.28
684.792	43.22
684.978	43.12
685.164	43.3
685.349	43.32
685.535	43.33
685.721	42.79
685.907	42.01
686.092	42.69
686.278	42.98
686.464	43.15
686.649	42.36
686.835	42.44
687.021	42.87
687.206	42.81
687.392	42.71
687.577	42.53
687.763	42.69
687.948	42.75
688.134	42.12
688.319	41.8
688.505	41.84
688.69	42.76
688.876	42.59
689.061	43.38
689.247	42.97
689.432	43.19
689.618	43.28
689.803	43.23
689.988	43.57
690.174	43.71
690.359	43.39
690.544	43.45
690.73	43.03
690.915	43.27
691.1	42.36
691.285	43.01
691.471	43.05
691.656	43.38
691.841	43.66
692.026	43.15
692.211	43.09
692.396	43.62
692.582	43.95
692.767	43.34
692.952	42.97
693.137	43.09
693.322	43.01
693.507	43.06
693.692	42.8
693.877	42.15
694.062	43.15
694.247	43.87
694.432	43.97
694.617	43.74
694.802	44.19
694.987	44.74
695.172	44.77
695.357	44.66
695.541	44.61
695.726	45.07
695.911	45.09
696.096	44.62
696.281	44.09
696.466	44.13
696.65	43.92
696.835	43.84
697.02	43.76
697.204	43.28
697.389	42.81
697.574	42.45
697.759	42.54
697.943	42.56
698.128	42.57
698.312	42.73
698.497	42.68
698.682	42.63
698.866	42.52
699.051	42.22
699.235	42.54
699.42	42.68
699.604	42.64
699.789	42.1
699.973	42.17
700.158	42.4
700.342	42.06
700.527	42.09
700.711	42.16
700.895	42.49
701.08	42.62
701.264	42.22
701.448	42.43
701.633	42.44
701.817	42.64
702.001	43.04
702.186	42.65
702.37	43.03
702.554	42.88
702.738	43.25
702.923	43.68
703.107	43.72
703.291	44.36
703.475	44.46
703.659	45.36
703.843	45.66
704.027	44.93
704.212	44.57
704.396	44.48
704.58	44.24
704.764	44.07
704.948	43.22
705.132	43.34
705.316	43.7
705.5	43.95
705.684	43.98
705.868	44.17
706.052	44.48
706.235	45.37
706.419	45.49
706.603	46.1
706.787	46.54
706.971	46.98
707.155	47.18
707.339	47.52
707.522	47.55
707.706	46.89
707.89	46.16
708.074	47.1
708.257	46.87
708.441	46.64
708.625	46.34
708.808	46.47
708.992	46.62
709.176	46.27
709.359	45.42
709.543	45.44
709.727	45.56
709.91	45.46
710.094	44.38
710.277	44.82
710.461	44.37
710.644	44.21
710.828	43.89
711.011	43.67
711.195	43.56
711.378	43.58
711.562	43.15
711.745	43.71
711.928	44.42
712.112	44.75
712.295	44.4
712.478	44.89
712.662	45.15
712.845	44.48
713.028	43.93
713.212	44.5
713.395	43.63
713.578	43.76
713.761	43.19
713.945	43.24
714.128	42.93
714.311	42.54
714.494	42.95
714.677	42.43
714.86	43.52
715.043	43.9
715.227	42.99
715.41	43.65
715.593	43.41
715.776	43.41
715.959	43.85
716.142	43.94
716.325	44.06
716.508	43.8
716.691	44.19
716.874	43.04
717.057	42.83
717.239	42.95
717.422	43.31
717.605	43.34
717.788	42.94
717.971	42.29
718.154	42.6
718.337	42.29
718.519	42.08
718.702	42.38
718.885	43.03
719.068	43.4
719.25	43.65
719.433	43.08
719.616	42.71
719.798	43.58
719.981	43.6
720.164	43.16
720.346	43.55
720.529	43.55
720.712	42.81
720.894	43.41
721.077	43.12
721.259	42.71
721.442	42.46
721.624	43.24
721.807	42.6
721.989	43.02
722.172	43.6
722.354	44.3
722.537	44.14
722.719	44.94
722.901	43.66
723.084	44.38
723.266	44.9
723.448	45.7
723.631	45.65
723.813	46.57
723.995	45.33
724.178	44.96
724.36	44.38
724.542	44.36
724.724	44.13
724.907	44.22
725.089	44.89
725.271	45.4
725.453	45.39
725.635	45.04
725.817	44.41
725.999	45.36
726.181	45.39
726.364	44.93
726.546	45.52
726.728	45.08
726.91	45.52
727.092	45.01
727.274	44.57
727.456	44.34
727.638	44.23
727.819	44.43
728.001	44.01
728.183	44.5
728.365	44.98
728.547	44.57
728.729	45.08
728.911	45.53
729.093	45.17
729.274	45.6
729.456	45.53
729.638	46.02
729.82	45.68
730.001	46.25
730.183	46.21
730.365	46.8
730.546	46.27
730.728	45.98
730.91	45.1
731.091	44.16
731.273	44.11
731.455	43.72
731.636	42.91
731.818	43.18
731.999	42.53
732.181	42.52
732.362	41.49
732.544	41.65
732.725	41.21
732.907	42.06
733.088	42.57
733.27	42.51
733.451	42.35
733.633	41.89
733.814	41.05
733.995	41.18
734.177	39.76
734.358	40.7
734.539	39.99
734.721	39.91
734.902	39.75
735.083	40.61
735.264	40.29
735.446	41.82
735.627	43.11
735.808	44.43
735.989	43.65
736.17	43.99
736.351	42.71
736.533	44.39
736.714	44.73
736.895	43.93
737.076	43.07
737.257	43.32
737.438	42.96
737.619	42.44
737.8	42.84
737.981	44.16
738.162	44.64
738.343	44.93
738.524	44.64
738.705	45.09
738.886	44.99
739.067	44.42
739.247	43.77
739.428	42.95
739.609	43.4
739.79	42.95
739.971	43.97
740.151	43.43
740.332	44.11
740.513	44.46
740.694	43.57
740.874	43.77
741.055	44.14
741.236	44.74
741.417	44.43
741.597	44.31
741.778	43.04
741.958	41.25
742.139	42.73
742.32	42.65
742.5	42.15
742.681	42.98
742.861	43.88
743.042	43.75
743.222	44.48
743.403	44.5
743.583	44.87
743.764	46.15
743.944	45.71
744.124	45.49
744.305	44.33
744.485	44.19
744.666	45.11
744.846	44.47
745.026	44.63
745.207	44.64
745.387	45.88
745.567	44.45
745.747	43.48
745.928	44.42
746.108	43.29
746.288	45.05
746.468	45.38
746.648	44.35
746.829	43.5
747.009	44.66
747.189	44.66
747.369	44.09
747.549	44.93
747.729	45.93
747.909	46.41
748.089	46.1
748.269	44.87
748.449	44.63
748.629	44.04
748.809	44.98
748.989	45.66
749.169	44.7
749.349	45.06
749.529	46.07
749.709	45.53
749.889	45.2
750.068	45.12
750.248	45.35
750.428	45.23
750.608	46.35
750.788	46.75
750.967	45.69
751.147	45.5
751.327	45.82
751.507	45.07
751.686	45.24
751.866	45.53
752.046	46.46
752.225	45.84
752.405	46.25
752.585	46.65
752.764	46.68
752.944	46.74
753.123	47
753.303	46.04
753.482	46.03
753.662	47.24
753.841	46.66
754.021	45.99
754.2	46.88
754.38	46.34
754.559	45.65
754.739	46.18
754.918	46.13
755.097	44.93
755.277	46.18
755.456	45.52
755.635	43.96
755.815	43.74
755.994	44.72
756.173	44.1
756.352	45.19
756.532	44.74
756.711	43.3
756.89	42.49
757.069	43.57
757.248	42.73
757.427	43.44
757.607	43.87
757.786	44.86
757.965	45.36
758.144	46.21
758.323	46.29
758.502	47.22
758.681	48.25
758.86	48.82
759.039	48.56
759.218	49.03
759.397	48.61
759.576	47.57
759.755	47.02
759.934	46.2
760.113	45.02
760.291	43.86
760.47	42.55
760.649	42.19
760.828	42.23
761.007	42.34
761.186	41.95
761.364	42.11
761.543	43.44
761.722	43.17
761.901	43.39
762.079	43.73
762.258	42.87
762.437	43.91
762.615	43.29
762.794	43.21
762.972	42.59
763.151	42.66
763.33	43.06
763.508	42.42
763.687	43.29
763.865	43.04
764.044	42.71
764.222	43.39
764.401	42.92
764.579	43.16
764.758	43.17
764.936	43.95
765.114	43.9
765.293	44.25
765.471	45.19
765.65	43.45
765.828	43.71
766.006	44.49
766.184	44.48
766.363	44.9
766.541	45.1
766.719	44.53
766.898	44.23
767.076	43.62
767.254	42.69
767.432	42.08
767.61	42.88
767.788	42.62
767.967	42.24
768.145	41.95
768.323	40.58
768.501	42.36
768.679	44.08
768.857	43.73
769.035	44.41
769.213	45.73
769.391	45.31
769.569	45.62
769.747	45.69
769.925	45.64
770.103	46.21
770.281	47.18
770.459	45.87
770.636	47.49
770.814	48.58
770.992	49.65
771.17	48.54
771.348	48.48
771.525	50.04
771.703	49.45
771.881	50.76
772.059	51.06
772.236	51.82
772.414	50.33
772.592	47.14
772.769	46.26
772.947	45.11
773.125	46.97
773.302	47.54
773.48	47.25
773.657	48.12
773.835	47.54
774.013	46.26
774.19	43.44
774.368	44.92
774.545	44.53
774.723	43.51
774.9	42.47
775.077	39.71
775.255	39.83
775.432	37.92
775.61	39.95
775.787	39.66
775.964	42.47
776.142	44.87
776.319	45.07
776.496	44.76
776.674	46.08
776.851	47.73
777.028	47.8
777.205	47.38
777.382	47.06
777.56	43.58
777.737	42.56
777.914	39.66
778.091	39.67
778.268	37.82
778.445	38.11
778.622	36.66
778.8	37.45
778.977	38.8
779.154	40.58
779.331	41.46
779.508	42.24
779.685	41.38
779.862	41.47
780.038	40.77
780.215	42.54
780.392	42.63
780.569	43.13
780.746	44.02
780.923	43.72
781.1	40.58
781.277	40.57
781.453	42.39
781.63	45.03
781.807	46.33
781.984	47.26
782.16	46.42
782.337	47.96
782.514	49.38
782.691	47.33
782.867	45.74
783.044	46.4
783.221	46.91
783.397	46.25
783.574	43.05
783.75	43.14
783.927	43.66
784.103	43.97
784.28	44.47
784.456	44.13
784.633	44.11
784.809	45.03
784.986	45.6
785.162	42.41
785.339	41.69
785.515	43.01
785.692	42.84
785.868	40.35
786.044	39.46
786.221	38.14
786.397	38.06
786.573	37.33
786.749	37.59
786.926	37.7
787.102	41.45
787.278	43.16
787.454	45.05
787.631	43.82
787.807	44.15
787.983	43.61
788.159	42.47
788.335	41.4
788.511	41.72
788.687	40.67
788.863	42.7
789.039	42.08
789.216	40.11
789.392	38.81
789.568	40.65
789.744	41.75
789.919	42.45
790.095	45.29
790.271	46.5
790.447	46.88
790.623	50.61
790.799	50.62
790.975	49.63
791.151	50.29
791.327	53.49
791.502	50.71
791.678	49.74
791.854	49.36
792.03	46.89
792.205	47.5
792.381	47.08
792.557	46.07
792.733	44.67
792.908	47.32
793.084	46.56
793.259	43.38
793.435	47.48
793.611	49.79
793.786	50.07
793.962	51.42
794.137	50.97
794.313	53.02
794.488	51.47
794.664	50.15
794.839	46.38
795.015	49.04
795.19	48.24
795.366	45.62
795.541	44.67
795.716	45.94
795.892	45.43
796.067	44.68
796.242	43.85
796.418	42.4
796.593	43.39
796.768	44.56
796.944	41.13
797.119	43.19
797.294	41.3
797.469	42.46
797.644	42.58
797.82	40.32
797.995	42.53
798.17	42.53
798.345	43.35
798.52	41.6
798.695	41.81
798.87	43.46
799.045	42.5
799.22	44.94
799.395	44.06
799.57	43
799.745	46.21
799.92	44.98
800.095	45.81
800.27	43.38
800.445	44.28
800.62	45.26
800.795	45.81
800.97	46.54
801.145	48.15
801.319	45.32
801.494	44.59
801.669	43.93
801.844	43.09
802.018	44.47
802.193	49.14
802.368	47.44
802.543	47.74
802.717	48.95
802.892	48.41
803.067	48.47
803.241	52.02
803.416	55.96
803.59	55.05
803.765	58.53
803.94	57.76
804.114	55.86
804.289	55.26
804.463	52.18
804.638	49.62
804.812	45.88
804.986	46.63
805.161	46.36
805.335	43.22
805.51	45.22
805.684	42.31
805.858	43.74
806.033	43.87
806.207	45.44
806.381	46.64
806.556	50.41
806.73	55.47
806.904	53.68
807.078	50.77
807.253	51.22
807.427	47.71
807.601	48.77
807.775	45.49
807.949	46.38
808.123	44.36
808.298	47.07
808.472	44.84
808.646	40.65
808.82	40.31
808.994	39.59
809.168	38.15
809.342	41.72
809.516	42.3
809.69	40.09
809.864	40.65
810.038	44.65
810.212	41.48
810.385	41.31
810.559	44.48
810.733	41.61
810.907	43.73
811.081	43.7
811.255	39.41
811.428	36.59
811.602	39.98
811.776	41.81
811.95	39.35
812.123	40.53
812.297	41.74
812.471	40.93
812.644	46.51
812.818	46.35
812.992	43.19
813.165	44.41
813.339	47.68
813.512	49.22
813.686	50.12
813.86	50.31
814.033	48.22
814.207	48.94
814.38	49.58
814.554	50.37
814.727	55.73
814.9	60.74
815.074	61.79
815.247	59.57
815.421	58.91
815.594	56.38
815.767	58.22
815.941	57.74
816.114	52.68
816.287	54.93
816.46	51.23
816.634	48.3
816.807	47.01
816.98	47.87
817.153	51.99
817.327	50.73
817.5	45.6
817.673	47.82
817.846	49.93
818.019	54.05
818.192	50.53
818.365	51.88
818.538	52.6
818.711	53.55
818.884	50.81
819.057	45.2
819.23	43.16
819.403	43.73
819.576	39.28
819.749	39.09
819.922	37.08
820.095	37.97
820.268	36.83
820.441	37.26
820.614	39.3
820.786	39.51
820.959	40.56
821.132	41.14
821.305	42.46
821.477	43.39
821.65	42.96
821.823	43.52
821.996	43.94
822.168	44
822.341	43.14
822.514	42.16
822.686	42.78
822.859	43.3
823.031	43.45
823.204	42.66
823.376	42.68
823.549	43.05
823.722	43.14
823.894	43.09
824.067	42.88
824.239	43.11
824.411	43.53
824.584	43.02
824.756	42.85
824.929	42.85
825.101	43.02
825.273	42.97
825.446	42.71
825.618	42.42
825.79	42.42
825.963	41.55
826.135	41.1
826.307	40.46
826.479	40.03
826.652	39.7
826.824	38.86
826.996	38.24
827.168	38.65
827.34	37.72
827.512	38.44
827.684	37.83
827.856	39.28
828.029	40.87
828.201	41.83
828.373	42.69
828.545	42.09
828.717	41.95
828.889	43.25
829.061	42.99
829.232	43.96
829.404	44.24
829.576	44.36
829.748	44.77
829.92	43.42
830.092	43.19
830.264	41.83
830.436	42
830.607	42.88
830.779	42.5
830.951	41.44
831.123	41.94
831.294	40.14
831.466	40.88
831.638	38.49
831.809	39.24
831.981	38.21
832.153	41.46
832.324	40.47
832.496	43.11
832.667	43.32
832.839	42.65
833.011	42.88
833.182	42.4
833.354	41.7
833.525	43.04
833.697	41.95
833.868	40.52
834.039	40
834.211	43.95
834.382	43.56
834.554	43.8
834.725	45.87
834.896	43.93
835.068	45.31
835.239	44.54
835.41	44.58
835.581	45.74
835.753	47.6
835.924	46.73
836.095	44.06
836.266	44.84
836.438	45.68
836.609	43.89
836.78	46.77
836.951	45.75
837.122	47.69
837.293	46.73
837.464	45.95
837.635	44
837.806	44.68
837.977	44.8
838.148	44.69
838.319	43.76
838.49	49.4
838.661	48.14
838.832	44.25
839.003	39.62
839.174	43.18
839.345	40.73
839.516	40.48
839.687	38.72
839.857	42.02
840.028	41.12
840.199	40.13
840.37	34.11
840.54	45.03
840.711	46.08
840.882	50.16
841.053	45.45
841.223	47.03
841.394	51.85
841.564	54.89
841.735	53.43
841.906	50.7
842.076	47.76
842.247	46.56
842.417	33.67
842.588	35.52
842.758	32.18
842.929	35
843.099	30.1
843.27	24.93
843.44	21.9
843.611	26.72
843.781	29.9
843.951	39.18
844.122	44.35
844.292	44.44
844.462	46.67
844.633	54.56
844.803	56.75
844.973	62.29
845.144	63.15
845.314	68.68
845.484	72.88
845.654	76.01
845.824	74.73
845.995	66.44
846.165	76.56
846.335	78
846.505	82.68
846.675	80.96
846.845	71.58
847.015	69.45
847.185	61.53
847.355	39.47
847.525	33.01
847.695	34.67
847.865	41.91
848.035	31.82
848.205	27.16
848.375	16.02
848.545	17.58
848.715	28.58
848.884	32.58
849.054	20.45
849.224	41.38
849.394	65.1
849.564	68.35
849.733	70.32
849.903	42.46
850.073	49.27
850.243	54.64
850.412	51.18
850.582	41.42
850.752	29.93
850.921	57.22
851.091	38.78
851.26	43.21
851.43	41.36
851.599	34.82
851.769	53.12
851.939	50.78
852.108	39.86
852.278	52.6
852.447	86.85
852.616	97.24
852.786	99.1
852.955	123.87
853.125	101.11
853.294	112.24
853.463	71.81
853.633	112.33
853.802	111.7
853.971	110.1
854.141	69.89
854.31	50.01
854.479	35.12
854.648	68.94
854.818	51.76
854.987	69.42
855.156	36.28
855.325	86.06
855.494	61.25
855.663	60.8
855.832	72.35
856.001	122.73
856.171	106.87
856.34	114.4
856.509	91.2
856.678	111.83
856.847	123.93
857.016	112.35
857.185	102.21
857.353	86.52
857.522	86.35
857.691	75.11
857.86	77.21
858.029	90.16
858.198	84.51
858.367	84.22
858.535	87.62
858.704	77.86
858.873	87.48
859.042	101.27
859.21	115.78
859.379	98.21
859.548	102.79
859.717	81.86
859.885	82.21
860.054	73.32
860.222	63.24
860.391	54.33
860.56	58.54
860.728	51.48
860.897	41.6
861.065	40.51
861.234	37.99
861.402	39.91
861.571	44.1
861.739	34.37
861.908	46.01
862.076	53.6
862.244	58.68
862.413	53.13
862.581	58.3
862.749	50.01
862.918	67.4
863.086	104.12
863.254	126.77
863.423	283.01
863.591	247.17
863.759	284.2
863.927	424.18
864.096	1098.99
864.264	-242.02
864.432	-453.98
864.6	1531.62
864.768	587.43
864.936	314.36
865.104	234.19
865.272	131.47
865.44	135.52
865.608	120.42
865.776	95.95
865.944	110.09
866.112	71.35
866.28	58.32
866.448	38.09
866.616	34.08
866.784	27.75
866.952	8.77
867.12	31.79
867.288	42
867.455	34.98
867.623	42.91
867.791	39.97
867.959	28.91
868.127	52.93
868.294	61.77
868.462	51.2
868.63	59.19
868.797	71.02
868.965	27.7
869.133	-11.57
869.3	-17.26
869.468	-3.42
869.636	36.17
869.803	56.97
869.971	19.37
870.138	12.77
870.306	30.21
870.473	14.66
870.641	8.36
870.808	21.51
870.975	32.41
871.143	51.46
871.31	96.07
871.478	94.78
871.645	51.06
871.812	45.32
871.98	78.68
872.147	103.86
872.314	129.15
872.482	149.25
872.649	171
872.816	124.59
872.983	99.68
873.15	43.35
873.318	40.8
873.485	71.73
873.652	132.82
873.819	50.01
873.986	5.48
874.153	19.98
874.32	31.99
874.487	37.87
874.654	47.43
874.821	86.53
874.988	78.6
875.155	85.17
875.322	81.84
875.489	75.32
875.656	84.55
875.823	116.32
875.99	105.91
876.157	108.95
876.324	119.74
876.49	110.72
876.657	95.68
876.824	95.32
876.991	98.58
877.157	109.74
877.324	93.35
877.491	82.46
877.658	78.85
877.824	72.56
877.991	83.3
878.157	75.91
878.324	73.49
878.491	67.53
878.657	62.34
878.824	50.69
878.99	42.99
879.157	43.24
879.323	43.62
879.49	66.9
879.656	49.39
879.823	30.5
879.989	33.84
880.156	28.56
880.322	16.24
880.488	38.4
880.655	57.29
880.821	51.31
880.987	60.71
881.154	67.48
881.32	54.48
881.486	62.6
881.652	62.54
881.819	60.74
881.985	54.1
882.151	53.04
882.317	42.99
882.483	38.34
882.649	38.76
882.816	35.09
882.982	35
883.148	33.41
883.314	33.32
883.48	34.76
883.646	33.68
883.812	35.68
883.978	36.44
884.144	38.05
884.31	38.9
884.476	39.53
884.642	41.82
884.807	44.97
884.973	46.99
885.139	47.14
885.305	47.2
885.471	48.4
885.637	47.41
885.802	49.49
885.968	52.27
886.134	52.93
886.3	52.45
886.465	54.04
886.631	51.51
886.797	52.02
886.962	52.54
887.128	52.13
887.293	55.41
887.459	57.44
887.625	56.79
887.79	53.69
887.956	55.38
888.121	61.37
888.287	56.95
888.452	55.47
888.618	54.56
888.783	59.61
