Data from CB_074_Reflection_1.txt Node
Date: Sat Nov 14 11:21:24 EST 2015
User: robert
Spectrometer: USB4E03001
Autoset integration time: false
Trigger mode: 4
Integration Time (sec): 1.000000E-1
Scans to average: 15
Electric dark correction enabled: true
Nonlinearity correction enabled: false
Boxcar width: 5
Stray light correction enabled: false
XAxis mode: Wavelengths
Stop averaging: false
Number of Pixels in Spectrum: 3648
>>>>>Begin Spectral Data<<<<<
177.566	-182.52
177.785	-247.99
178.005	-546.77
178.225	50.08
178.445	-60.83
178.665	-201.13
178.885	-43.6
179.105	-129.6
179.324	-173.74
179.544	-348.85
179.764	-110.34
179.984	-123.79
180.204	-109.33
180.423	-415.98
180.643	-144.78
180.863	-322.08
181.083	-1675.24
181.302	-7703.97
181.522	775.4
181.742	819.96
181.961	889.33
182.181	114.2
182.401	105.7
182.621	196.72
182.84	700.63
183.06	-1911.19
183.279	-221.7
183.499	-165.43
183.719	-278.34
183.938	-199.78
184.158	-156.13
184.377	-163.36
184.597	-104.99
184.816	-55.72
185.036	-99.46
185.256	-143.83
185.475	-406.61
185.695	-307.01
185.914	-295.29
186.134	-241.23
186.353	-263.03
186.572	-226.09
186.792	-725.73
187.011	3084.45
187.231	-1573.05
187.45	-309.75
187.67	-1006.98
187.889	364.59
188.108	200.03
188.328	194.94
188.547	124.48
188.766	110.55
188.986	111.95
189.205	102.12
189.424	110.44
189.644	149.52
189.863	185.67
190.082	225.8
190.302	331.66
190.521	277.11
190.74	262.22
190.959	1247.16
191.178	1020.32
191.398	719.78
191.617	2022.06
191.836	7881.72
192.055	1152.14
192.274	338.54
192.494	496.38
192.713	16242.86
192.932	-1599.27
193.151	264125
193.37	342.76
193.589	-9384.07
193.808	-1026.65
194.027	-1618.24
194.246	3320.88
194.465	-2466.55
194.685	614.41
194.904	476.82
195.123	398.56
195.342	347.22
195.561	318.12
195.78	834.04
195.999	2080.73
196.218	853.93
196.436	542.73
196.655	239.02
196.874	122.8
197.093	223.4
197.312	241.51
197.531	369.48
197.75	466.6
197.969	1161.84
198.188	250.39
198.407	189.56
198.625	173.5
198.844	232.85
199.063	357.1
199.282	801.01
199.501	-4568.75
199.719	-2102.98
199.938	836.48
200.157	472.23
200.376	-3023.05
200.594	-235.86
200.813	-457.33
201.032	-1309.08
201.251	-631.58
201.469	-869.53
201.688	-1731.96
201.907	3020.64
202.125	919.87
202.344	3590.58
202.563	19607.25
202.781	983.33
203	281.03
203.218	248.96
203.437	369.77
203.656	299.1
203.874	666.65
204.093	473.08
204.311	293.92
204.53	950.44
204.748	237.85
204.967	300.99
205.185	203.33
205.404	328.04
205.622	447.89
205.841	275.8
206.059	152.72
206.278	144.33
206.496	244.69
206.715	339.93
206.933	266.53
207.151	359.06
207.37	246.05
207.588	300.8
207.806	322.38
208.025	416.84
208.243	720.52
208.461	-60845.45
208.68	1661.35
208.898	749.54
209.116	454.34
209.335	300.52
209.553	279.64
209.771	239
209.989	250.35
210.208	194.22
210.426	167.37
210.644	136.36
210.862	128.63
211.081	120.34
211.299	93.91
211.517	105.37
211.735	96.55
211.953	88.05
212.171	87.98
212.39	55.22
212.608	76.17
212.826	72.98
213.044	73.03
213.262	74.71
213.48	61.86
213.698	105.25
213.916	67.92
214.134	51.16
214.352	93.77
214.57	109.28
214.788	105.63
215.006	97.47
215.224	281.37
215.442	875.32
215.66	1623.51
215.878	578.67
216.096	217.47
216.314	575.37
216.532	2486.8
216.75	-620.96
216.968	-791.73
217.185	-7520.35
217.403	1547.77
217.621	-67988.89
217.839	-237.32
218.057	-7845.83
218.275	-78.72
218.492	21.33
218.71	-1152.55
218.928	1158.73
219.146	765.34
219.363	434.05
219.581	422.4
219.799	-1821.18
220.017	238.97
220.234	279.92
220.452	375.9
220.67	652.59
220.887	257.84
221.105	345.53
221.323	212.63
221.54	155.82
221.758	152.29
221.976	151.99
222.193	122.49
222.411	130.8
222.629	133.64
222.846	115.01
223.064	86.74
223.281	106.26
223.499	109.17
223.716	98.05
223.934	94.17
224.151	90.32
224.369	95.4
224.586	115.93
224.804	119.05
225.021	119.46
225.239	108.08
225.456	122.39
225.674	101.49
225.891	90.52
226.108	83.96
226.326	78.97
226.543	72.22
226.76	62.34
226.978	50.85
227.195	57.91
227.413	45.04
227.63	51.39
227.847	48.9
228.064	44.12
228.282	42.97
228.499	42.96
228.716	43.35
228.934	42.3
229.151	41.05
229.368	38.88
229.585	34.54
229.802	36.66
230.02	37.66
230.237	37.29
230.454	37.42
230.671	41.55
230.888	43.14
231.105	36.46
231.323	41.91
231.54	43.64
231.757	48.72
231.974	53.83
232.191	55.91
232.408	50.1
232.625	51.43
232.842	47.41
233.059	45.84
233.276	42.68
233.493	45.49
233.71	35.6
233.927	35.09
234.144	33.96
234.361	28.46
234.578	27.56
234.795	23.88
235.012	22.72
235.229	25.39
235.446	26.31
235.663	26
235.879	30.22
236.096	34.54
236.313	37.96
236.53	29.49
236.747	34.72
236.964	30.09
237.181	37.95
237.397	38.82
237.614	50.06
237.831	50.44
238.048	53.68
238.264	47.25
238.481	45.93
238.698	39.92
238.915	43.75
239.131	38.21
239.348	40.63
239.565	39.77
239.781	37.88
239.998	31.45
240.215	27.38
240.431	24.36
240.648	25.86
240.865	24.12
241.081	23.32
241.298	21.39
241.514	24
241.731	21.92
241.947	19.99
242.164	19.02
242.38	14.01
242.597	13.64
242.814	11.98
243.03	14.2
243.246	16.15
243.463	17.1
243.679	17.78
243.896	15.72
244.112	13.35
244.329	14.63
244.545	16.44
244.762	16.8
244.978	15.93
245.194	16.32
245.411	13.75
245.627	10.05
245.843	12.18
246.06	11.25
246.276	12.38
246.492	15.09
246.709	14.97
246.925	14.73
247.141	18.2
247.357	18.41
247.574	18.76
247.79	18.17
248.006	18.21
248.222	18.34
248.439	18.81
248.655	19.31
248.871	18.17
249.087	18.78
249.303	19.84
249.519	18.03
249.736	18.64
249.952	17.45
250.168	21.81
250.384	25.07
250.6	22.9
250.816	25.33
251.032	23.93
251.248	25.6
251.464	26.38
251.68	21.95
251.896	19.32
252.112	19.49
252.328	20.68
252.544	18.47
252.76	16.82
252.976	16.53
253.192	14.93
253.408	16.95
253.624	16.26
253.84	15.23
254.056	16.03
254.272	19.45
254.487	17.96
254.703	15.55
254.919	12.19
255.135	10.98
255.351	12.27
255.567	10.98
255.782	8.58
255.998	10.12
256.214	7.61
256.43	10.46
256.646	9.07
256.861	11.79
257.077	11.52
257.293	12.99
257.508	14.44
257.724	16.57
257.94	16.59
258.155	16.76
258.371	17.37
258.587	16.61
258.802	16.24
259.018	16.27
259.234	15.03
259.449	15.83
259.665	16.03
259.88	16.58
260.096	16.12
260.312	15.92
260.527	16.2
260.743	15.87
260.958	16.16
261.174	16.91
261.389	18.22
261.605	18.07
261.82	17.69
262.036	17.67
262.251	16.95
262.466	16.68
262.682	17
262.897	16.01
263.113	15.37
263.328	17
263.543	14.9
263.759	12.32
263.974	13.6
264.189	14.24
264.405	13.69
264.62	13.92
264.835	11.76
265.051	13.05
265.266	12.4
265.481	14.48
265.696	15.27
265.912	14.58
266.127	13.37
266.342	12.18
266.557	14.3
266.773	14.19
266.988	13.43
267.203	15.08
267.418	13.52
267.633	14.49
267.848	13.9
268.064	10.61
268.279	12.14
268.494	11.59
268.709	13.14
268.924	11.81
269.139	11.44
269.354	11.88
269.569	10.69
269.784	11.91
269.999	12.06
270.214	12.26
270.429	13.86
270.644	13.73
270.859	14.74
271.074	13.79
271.289	15.25
271.504	15.72
271.719	15.44
271.934	15.95
272.149	15.16
272.363	15.15
272.578	14.24
272.793	13.9
273.008	12.8
273.223	12.22
273.438	11.55
273.653	10.95
273.867	10.52
274.082	10.71
274.297	11.81
274.512	13.68
274.726	13.87
274.941	13.66
275.156	16.05
275.371	16.44
275.585	18.67
275.8	20.78
276.015	20.48
276.229	21.45
276.444	22
276.659	20.87
276.873	17.95
277.088	19.78
277.302	20.55
277.517	17.2
277.732	18.23
277.946	16.03
278.161	16.84
278.375	16.4
278.59	14.99
278.804	14.48
279.019	15.97
279.233	17.03
279.448	13.7
279.662	13.16
279.877	13.51
280.091	11.77
280.306	11.55
280.52	9.21
280.735	9.36
280.949	10.82
281.163	10.66
281.378	8.67
281.592	9.13
281.806	9.34
282.021	9.44
282.235	9.65
282.449	11.28
282.664	11.74
282.878	12.5
283.092	11.08
283.307	11.38
283.521	11.52
283.735	12.29
283.949	11.78
284.164	12.62
284.378	12.79
284.592	12.79
284.806	13.07
285.02	12.59
285.234	11.8
285.449	12.29
285.663	12.32
285.877	12.87
286.091	12.33
286.305	12.51
286.519	12.64
286.733	12.87
286.947	14.5
287.161	14.01
287.375	14.3
287.589	15.39
287.803	17.41
288.017	16.34
288.231	15.79
288.445	16.64
288.659	17.43
288.873	17.99
289.087	18.5
289.301	17.47
289.515	16.87
289.729	17.79
289.943	18.46
290.157	17.83
290.371	19.44
290.584	18.98
290.798	19.52
291.012	19.4
291.226	19.23
291.44	18.94
291.654	19.76
291.867	19.51
292.081	18.46
292.295	18.79
292.509	18.78
292.722	17.6
292.936	17.43
293.15	17.12
293.364	15.48
293.577	14.25
293.791	14.52
294.005	13.01
294.218	14.68
294.432	14.6
294.645	13.48
294.859	12.89
295.073	13.09
295.286	13.64
295.5	13.22
295.713	14.24
295.927	14.43
296.14	14.37
296.354	14.4
296.568	13.05
296.781	12.89
296.994	13.89
297.208	13.88
297.421	13.31
297.635	13.5
297.848	13.3
298.062	12.91
298.275	13.69
298.489	13.52
298.702	14.15
298.915	13.83
299.129	14.43
299.342	13.37
299.555	14.22
299.769	15
299.982	15.86
300.195	16.86
300.409	17.65
300.622	17.68
300.835	18.1
301.048	17.44
301.262	18.08
301.475	19.19
301.688	19.21
301.901	18.62
302.115	18.51
302.328	17.55
302.541	18.32
302.754	19.06
302.967	18.44
303.18	19.02
303.393	19.52
303.607	20.44
303.82	20.42
304.033	20.78
304.246	20.96
304.459	21.39
304.672	22.02
304.885	21.65
305.098	21.11
305.311	21.71
305.524	21.06
305.737	20.78
305.95	20.88
306.163	20.34
306.376	19.07
306.589	19.72
306.802	19.45
307.015	19.32
307.228	19.59
307.44	18.87
307.653	18.92
307.866	18.66
308.079	20.44
308.292	20.7
308.505	20.75
308.718	21.81
308.93	21.75
309.143	21.84
309.356	22.04
309.569	21.34
309.781	22.16
309.994	21.79
310.207	21.88
310.42	20.98
310.632	20.86
310.845	21.44
311.058	21.32
311.27	20.67
311.483	20.98
311.696	20.44
311.908	20.67
312.121	19.82
312.333	21.1
312.546	21.01
312.759	20.45
312.971	20.21
313.184	19.89
313.396	20.04
313.609	19.77
313.821	19.66
314.034	18.94
314.246	17.85
314.459	19.31
314.671	17.51
314.884	17.21
315.096	17.26
315.309	18.33
315.521	19.41
315.733	19.24
315.946	20.42
316.158	20.08
316.371	20.39
316.583	20.16
316.795	19.65
317.008	19.55
317.22	18.78
317.432	19.73
317.644	18.57
317.857	17.57
318.069	16.42
318.281	15.14
318.494	15.75
318.706	16.96
318.918	17.69
319.13	16.86
319.342	16.71
319.555	18.45
319.767	17.98
319.979	17.43
320.191	17.53
320.403	19.09
320.615	21.47
320.827	21.53
321.039	21.52
321.252	22.59
321.464	24.02
321.676	24.89
321.888	24.77
322.1	25.53
322.312	25.01
322.524	24.91
322.736	24.07
322.948	22.29
323.16	22.04
323.372	22.57
323.584	22.22
323.796	21.36
324.007	21.37
324.219	21.34
324.431	21.24
324.643	23.24
324.855	23.66
325.067	23.66
325.279	24.14
325.491	24.63
325.702	24.4
325.914	24.83
326.126	25.48
326.338	23.82
326.55	23.11
326.761	22.77
326.973	20.78
327.185	20.72
327.396	20.5
327.608	19.56
327.82	19.5
328.032	20.19
328.243	19.99
328.455	20.24
328.666	22.47
328.878	23.06
329.09	24.18
329.301	25.54
329.513	25.76
329.725	26.99
329.936	28.55
330.148	28.11
330.359	28.19
330.571	28.08
330.782	26.66
330.994	26.14
331.205	26.67
331.417	27.22
331.628	26.45
331.84	26.53
332.051	25.87
332.262	25.47
332.474	26
332.685	25.84
332.897	26.12
333.108	26.48
333.319	26.28
333.531	26.4
333.742	25.02
333.953	25.63
334.165	25.47
334.376	26.8
334.587	26.49
334.799	26.37
335.01	24.63
335.221	22.91
335.432	22.7
335.644	22.7
335.855	22.78
336.066	23.47
336.277	23.67
336.488	24.34
336.7	23.6
336.911	24.12
337.122	25.04
337.333	25.66
337.544	26.52
337.755	27.83
337.966	28.47
338.177	27.99
338.388	27.26
338.599	26.62
338.811	25.65
339.022	25.6
339.233	25.53
339.444	23.32
339.655	23.13
339.866	23.7
340.076	23.01
340.287	22.37
340.498	22.73
340.709	22.46
340.92	22.98
341.131	23.13
341.342	23.05
341.553	21.81
341.764	24.05
341.975	24.59
342.185	23.46
342.396	22.33
342.607	22.58
342.818	22.09
343.029	22.28
343.239	22.01
343.45	21.62
343.661	20.89
343.872	21.55
344.082	20.29
344.293	20.62
344.504	21.38
344.714	22.12
344.925	22.35
345.136	22.21
345.346	21.04
345.557	21.38
345.768	21.21
345.978	22.67
346.189	22.8
346.399	21.81
346.61	21.18
346.821	20.98
347.031	21.54
347.242	21.17
347.452	20.93
347.663	22.9
347.873	23.37
348.084	23.69
348.294	21.95
348.504	22.22
348.715	23.83
348.925	23.5
349.136	22.64
349.346	22.45
349.557	21.64
349.767	22.89
349.977	23.14
350.188	22.18
350.398	22.32
350.608	22.01
350.819	22.22
351.029	21.42
351.239	22.81
351.449	22.6
351.66	22.39
351.87	22.72
352.08	22.47
352.29	21.21
352.501	21.6
352.711	20.68
352.921	21.63
353.131	20.81
353.341	21.66
353.552	19.95
353.762	20.06
353.972	19.8
354.182	20.17
354.392	20.24
354.602	20.53
354.812	20.58
355.022	20.78
355.232	21.49
355.442	21.62
355.652	20.83
355.862	20.96
356.072	22.38
356.282	22.11
356.492	21.9
356.702	21.28
356.912	20.94
357.122	21.47
357.332	21.97
357.542	21.01
357.752	20.91
357.962	21.07
358.171	21.2
358.381	20.73
358.591	21.29
358.801	21.3
359.011	21.56
359.221	21.65
359.43	21.13
359.64	20.45
359.85	20.4
360.06	20.32
360.269	20.03
360.479	20.69
360.689	20.84
360.899	20.75
361.108	20.77
361.318	20.28
361.528	20.29
361.737	19.46
361.947	19.52
362.156	19.61
362.366	19.36
362.576	19.57
362.785	18.9
362.995	18.46
363.204	18.22
363.414	18.43
363.623	18.33
363.833	18.81
364.042	19.55
364.252	19.75
364.461	19.78
364.671	20.75
364.88	20.38
365.09	21.31
365.299	21.89
365.509	21.85
365.718	21.08
365.927	21.63
366.137	20.73
366.346	20.71
366.555	20.27
366.765	20.19
366.974	19.62
367.183	19.16
367.393	18.09
367.602	17.77
367.811	17.9
368.021	18.72
368.23	18.74
368.439	19.1
368.648	17.89
368.857	18.06
369.067	17.64
369.276	18.11
369.485	19.1
369.694	19.61
369.903	19.54
370.112	19.55
370.321	19.07
370.531	19
370.74	18.67
370.949	19.07
371.158	19.19
371.367	19.33
371.576	18.61
371.785	18.58
371.994	18.42
372.203	18.12
372.412	18.05
372.621	18.13
372.83	17.99
373.039	18.21
373.248	17.48
373.457	17.77
373.666	17.21
373.874	17.15
374.083	16.76
374.292	16.51
374.501	16.91
374.71	16.77
374.919	16.59
375.128	16.46
375.336	16.86
375.545	18.59
375.754	18.3
375.963	18.62
376.171	17.77
376.38	18.14
376.589	17.98
376.798	17.22
377.006	17.26
377.215	17.32
377.424	16.97
377.632	16.02
377.841	15.82
378.05	15.67
378.258	16.05
378.467	16.58
378.675	16.34
378.884	16.87
379.093	16.89
379.301	17.16
379.51	16.76
379.718	17.05
379.927	17.65
380.135	17.14
380.344	16.71
380.552	16.74
380.761	17
380.969	16.99
381.177	16.03
381.386	16.76
381.594	16.07
381.803	16.26
382.011	16.31
382.219	15.9
382.428	16.17
382.636	16.65
382.845	15.88
383.053	15.99
383.261	15.55
383.469	16.15
383.678	15.57
383.886	15.6
384.094	15.8
384.302	15.68
384.511	15.83
384.719	15.67
384.927	15.88
385.135	16.47
385.343	15.94
385.552	15.97
385.76	15.61
385.968	15.86
386.176	15.63
386.384	15.06
386.592	14.82
386.8	14.99
387.008	14.74
387.216	14.59
387.424	14.23
387.633	14.32
387.841	14.76
388.049	15.16
388.257	15.25
388.465	14.98
388.672	15.41
388.88	15.54
389.088	15.1
389.296	15.11
389.504	14.65
389.712	15.18
389.92	15.24
390.128	15.07
390.336	15.04
390.544	14.5
390.751	15.02
390.959	14.67
391.167	14.51
391.375	14.97
391.583	14.88
391.79	14.69
391.998	14.29
392.206	14.12
392.414	13.44
392.621	13.2
392.829	13.52
393.037	13.52
393.244	13.53
393.452	13.82
393.66	13.54
393.867	13.55
394.075	13.61
394.283	13.65
394.49	13.64
394.698	13.98
394.905	14.09
395.113	13.97
395.32	13.74
395.528	14.03
395.735	13.78
395.943	13.78
396.15	13.93
396.358	13.84
396.565	14
396.773	13.92
396.98	14.16
397.188	13.72
397.395	13.69
397.602	13.72
397.81	13.49
398.017	13.42
398.225	13.63
398.432	13.24
398.639	13.58
398.847	13.28
399.054	13.42
399.261	13.36
399.468	13.73
399.676	13.8
399.883	13.42
400.09	13.67
400.297	13.77
400.505	13.36
400.712	13.81
400.919	13.73
401.126	13.92
401.333	13.77
401.54	13.72
401.748	13.64
401.955	13.4
402.162	13.79
402.369	13.63
402.576	13.34
402.783	13.02
402.99	12.71
403.197	12.56
403.404	12.33
403.611	12.35
403.818	12.45
404.025	12.35
404.232	12.57
404.439	12.42
404.646	12.14
404.853	12
405.06	12.13
405.267	12.4
405.474	12.39
405.681	12.52
405.887	12.2
406.094	12.1
406.301	12.12
406.508	12.15
406.715	12.44
406.922	12.45
407.128	12.91
407.335	12.99
407.542	12.76
407.749	12.82
407.955	12.61
408.162	12.72
408.369	12.52
408.575	12.78
408.782	12.84
408.989	12.43
409.195	12.45
409.402	12.31
409.609	12.19
409.815	12.02
410.022	11.91
410.228	12.03
410.435	12.42
410.642	12.56
410.848	12.21
411.055	11.95
411.261	11.99
411.468	12.21
411.674	12.17
411.881	12.4
412.087	12.71
412.294	12.86
412.5	13.08
412.706	12.87
412.913	12.73
413.119	12.78
413.326	12.57
413.532	12.5
413.738	12.57
413.945	12.17
414.151	12.29
414.357	12.01
414.564	11.94
414.77	11.78
414.976	11.91
415.182	12.15
415.389	12.15
415.595	12.13
415.801	12.13
416.007	11.98
416.214	12
416.42	11.95
416.626	11.86
416.832	11.92
417.038	11.91
417.244	11.79
417.45	11.54
417.657	11.57
417.863	11.49
418.069	11.71
418.275	11.75
418.481	11.92
418.687	11.84
418.893	11.98
419.099	11.82
419.305	11.73
419.511	11.69
419.717	11.65
419.923	11.63
420.129	11.71
420.335	11.74
420.541	11.67
420.746	11.6
420.952	11.65
421.158	11.66
421.364	11.56
421.57	11.58
421.776	11.58
421.982	11.71
422.187	11.67
422.393	11.75
422.599	11.75
422.805	11.71
423.01	11.77
423.216	11.67
423.422	11.7
423.628	11.98
423.833	11.91
424.039	12.01
424.245	11.99
424.45	12.02
424.656	11.95
424.862	11.76
425.067	11.83
425.273	11.83
425.478	11.88
425.684	11.83
425.889	11.89
426.095	12
426.301	11.89
426.506	11.83
426.712	11.93
426.917	12.05
427.123	12.05
427.328	11.96
427.533	11.93
427.739	11.97
427.944	11.91
428.15	11.65
428.355	11.64
428.561	11.82
428.766	11.87
428.971	11.6
429.177	11.5
429.382	11.54
429.587	11.54
429.793	11.52
429.998	11.37
430.203	11.42
430.408	11.42
430.614	11.51
430.819	11.49
431.024	11.4
431.229	11.72
431.434	11.78
431.64	11.81
431.845	11.91
432.05	12.06
432.255	12.04
432.46	12.01
432.665	12
432.87	11.85
433.076	11.79
433.281	11.79
433.486	11.52
433.691	11.45
433.896	11.55
434.101	11.43
434.306	11.29
434.511	11.31
434.716	11.28
434.921	11.45
435.126	11.53
435.331	11.49
435.535	11.43
435.74	11.38
435.945	11.36
436.15	11.33
436.355	11.54
436.56	11.59
436.765	11.76
436.97	11.66
437.174	11.57
437.379	11.56
437.584	11.62
437.789	11.79
437.993	11.97
438.198	12.02
438.403	11.97
438.608	11.87
438.812	11.79
439.017	11.66
439.222	11.64
439.426	11.57
439.631	11.43
439.836	11.58
440.04	11.57
440.245	11.45
440.45	11.43
440.654	11.41
440.859	11.25
441.063	11.22
441.268	11.35
441.472	11.29
441.677	11.31
441.881	11.23
442.086	10.98
442.29	10.79
442.495	10.87
442.699	10.91
442.904	10.7
443.108	10.98
443.312	11.01
443.517	10.77
443.721	11.01
443.925	10.91
444.13	11.14
444.334	11.08
444.538	11.27
444.743	11.19
444.947	11.11
445.151	11.33
445.356	11.24
445.56	11.39
445.764	11.46
445.968	11.42
446.173	11.44
446.377	11.37
446.581	11.42
446.785	11.39
446.989	11.44
447.193	11.4
447.398	11.33
447.602	11.24
447.806	11.16
448.01	11.14
448.214	11.14
448.418	11.12
448.622	11.14
448.826	11.19
449.03	11.19
449.234	11.3
449.438	11.36
449.642	11.37
449.846	11.52
450.05	11.53
450.254	11.45
450.458	11.27
450.662	11.52
450.866	11.27
451.069	11.2
451.273	11.29
451.477	11.24
451.681	11.23
451.885	11.28
452.089	11.28
452.292	11.03
452.496	11.1
452.7	11.29
452.904	11.24
453.107	11.54
453.311	11.45
453.515	11.37
453.719	11.23
453.922	11.42
454.126	11.34
454.33	11.14
454.533	11.37
454.737	11.37
454.94	11.34
455.144	11.37
455.348	11.32
455.551	11.58
455.755	11.55
455.958	11.69
456.162	11.72
456.365	11.74
456.569	11.8
456.772	11.67
456.976	11.77
457.179	11.76
457.383	11.58
457.586	11.63
457.79	11.56
457.993	11.58
458.196	11.42
458.4	11.38
458.603	11.28
458.807	11.22
459.01	11.35
459.213	11.28
459.417	11.22
459.62	11.18
459.823	11.16
460.026	11.1
460.23	11.02
460.433	11
460.636	10.8
460.839	10.86
461.042	10.81
461.246	10.77
461.449	10.75
461.652	10.71
461.855	10.82
462.058	10.76
462.261	10.88
462.464	10.76
462.668	10.68
462.871	10.99
463.074	10.91
463.277	10.9
463.48	10.82
463.683	11
463.886	10.95
464.089	10.95
464.292	10.72
464.495	10.56
464.698	10.88
464.901	11.09
465.104	10.83
465.306	10.73
465.509	10.8
465.712	10.92
465.915	10.69
466.118	10.8
466.321	10.69
466.524	10.76
466.726	10.9
466.929	10.66
467.132	10.58
467.335	10.67
467.538	10.74
467.74	10.57
467.943	10.43
468.146	10.47
468.348	10.46
468.551	10.42
468.754	10.49
468.956	10.37
469.159	10.32
469.362	10.3
469.564	10.19
469.767	10.43
469.969	10.7
470.172	10.84
470.375	10.86
470.577	10.88
470.78	10.98
470.982	10.94
471.185	10.92
471.387	11.12
471.59	11.03
471.792	11.16
471.995	11.1
472.197	11.15
472.399	11.1
472.602	11.14
472.804	11.09
473.007	11.1
473.209	11.18
473.411	11.37
473.614	11.31
473.816	11.47
474.018	11.55
474.22	11.6
474.423	11.43
474.625	11.53
474.827	11.4
475.03	11.49
475.232	11.29
475.434	11.32
475.636	11.17
475.838	11.13
476.04	11.1
476.243	10.86
476.445	10.76
476.647	10.83
476.849	10.75
477.051	10.75
477.253	10.87
477.455	10.91
477.657	10.9
477.859	10.85
478.061	10.62
478.263	10.62
478.465	10.65
478.667	10.58
478.869	10.64
479.071	10.64
479.273	10.68
479.475	10.56
479.677	10.71
479.879	10.64
480.081	10.59
480.283	10.76
480.485	10.66
480.686	10.79
480.888	10.92
481.09	10.84
481.292	10.77
481.494	10.87
481.695	10.83
481.897	10.75
482.099	10.87
482.301	10.94
482.502	10.97
482.704	10.97
482.906	10.83
483.107	10.73
483.309	10.71
483.511	10.72
483.712	10.67
483.914	10.67
484.115	10.65
484.317	10.6
484.519	10.57
484.72	10.55
484.922	10.54
485.123	10.55
485.325	10.61
485.526	10.68
485.728	10.68
485.929	10.69
486.131	10.67
486.332	10.66
486.534	10.69
486.735	10.7
486.936	10.73
487.138	10.72
487.339	10.74
487.541	10.7
487.742	10.65
487.943	10.6
488.144	10.6
488.346	10.58
488.547	10.63
488.748	10.65
488.95	10.66
489.151	10.69
489.352	10.76
489.553	10.79
489.755	10.76
489.956	10.7
490.157	10.75
490.358	10.71
490.559	10.76
490.76	10.76
490.961	10.65
491.163	10.73
491.364	10.65
491.565	10.59
491.766	10.57
491.967	10.63
492.168	10.72
492.369	10.69
492.57	10.71
492.771	10.75
492.972	10.69
493.173	10.79
493.374	10.78
493.575	10.75
493.776	10.78
493.976	10.9
494.177	10.92
494.378	10.85
494.579	10.95
494.78	11.04
494.981	10.91
495.182	11.1
495.382	11.11
495.583	11.11
495.784	11.3
495.985	11.33
496.185	11.29
496.386	11.31
496.587	11.4
496.788	11.33
496.988	11.24
497.189	11.34
497.39	11.23
497.59	11.19
497.791	10.96
497.992	10.84
498.192	10.86
498.393	10.89
498.593	10.82
498.794	10.78
498.994	10.92
499.195	11
499.395	10.87
499.596	10.96
499.796	10.89
499.997	11.19
500.197	11.3
500.398	11.16
500.598	10.9
500.799	11.12
500.999	11.19
501.199	10.97
501.4	10.95
501.6	11.1
501.801	11.11
502.001	11.3
502.201	11.09
502.402	11.23
502.602	11.33
502.802	11.62
503.002	11.43
503.203	11.41
503.403	11.61
503.603	11.62
503.803	11.62
504.003	11.71
504.204	11.62
504.404	11.77
504.604	11.75
504.804	12.03
505.004	11.89
505.204	11.86
505.404	11.89
505.604	11.78
505.804	11.78
506.005	11.82
506.205	11.54
506.405	11.6
506.605	11.59
506.805	11.65
507.005	11.31
507.204	11.33
507.404	11.34
507.604	11.33
507.804	11.41
508.004	11.4
508.204	11.27
508.404	11.33
508.604	11.35
508.804	11.32
509.003	11.26
509.203	11.36
509.403	11.36
509.603	11.46
509.803	11.48
510.002	11.52
510.202	11.55
510.402	11.65
510.602	11.67
510.801	11.68
511.001	11.79
511.201	11.7
511.4	11.7
511.6	11.81
511.8	11.72
511.999	11.81
512.199	11.77
512.398	11.75
512.598	11.84
512.797	12.14
512.997	12.11
513.197	11.99
513.396	12.15
513.596	12.11
513.795	12.11
513.994	12.2
514.194	12.06
514.393	12.01
514.593	12.15
514.792	12.12
514.992	12.06
515.191	12.1
515.39	12.13
515.59	12.14
515.789	12.29
515.988	12.37
516.188	12.22
516.387	12.37
516.586	12.52
516.786	12.41
516.985	12.38
517.184	12.39
517.383	12.42
517.582	12.46
517.782	12.32
517.981	12.3
518.18	12.19
518.379	12.46
518.578	12.42
518.777	12.45
518.976	12.49
519.176	12.52
519.375	12.37
519.574	12.39
519.773	12.42
519.972	12.66
520.171	12.86
520.37	12.98
520.569	12.95
520.768	13.14
520.967	13.07
521.166	13.08
521.365	13.13
521.564	13.2
521.762	13.27
521.961	13.31
522.16	13.07
522.359	12.85
522.558	12.88
522.757	12.8
522.956	12.53
523.154	12.64
523.353	12.91
523.552	12.93
523.751	12.9
523.949	12.93
524.148	12.8
524.347	12.99
524.546	13.09
524.744	13.1
524.943	13.07
525.142	13.21
525.34	13.23
525.539	13.14
525.737	13.21
525.936	13.28
526.135	13.21
526.333	13.26
526.532	13.14
526.73	13.05
526.929	13.13
527.127	13.17
527.326	13.13
527.524	13.07
527.723	13.12
527.921	13.09
528.12	13.12
528.318	13.18
528.516	13.33
528.715	13.38
528.913	13.39
529.112	13.4
529.31	13.41
529.508	13.45
529.707	13.45
529.905	13.5
530.103	13.5
530.301	13.51
530.5	13.48
530.698	13.41
530.896	13.52
531.094	13.64
531.293	13.61
531.491	13.74
531.689	13.75
531.887	13.88
532.085	13.83
532.283	13.83
532.481	13.8
532.68	13.93
532.878	13.97
533.076	13.97
533.274	13.89
533.472	13.89
533.67	13.77
533.868	13.86
534.066	13.88
534.264	13.83
534.462	13.85
534.66	13.99
534.858	13.95
535.056	14.03
535.253	13.94
535.451	14
535.649	14.08
535.847	14.28
536.045	14.28
536.243	14.37
536.441	14.58
536.638	14.73
536.836	14.78
537.034	14.84
537.232	14.72
537.43	14.77
537.627	14.89
537.825	15.01
538.023	15.06
538.22	15.23
538.418	15.24
538.616	15.08
538.813	15.02
539.011	14.94
539.209	14.93
539.406	15.06
539.604	15.35
539.801	15.31
539.999	15.35
540.196	15.24
540.394	15.22
540.591	15.27
540.789	15.4
540.986	15.49
541.184	15.62
541.381	15.7
541.579	15.66
541.776	15.59
541.974	15.62
542.171	15.59
542.368	15.66
542.566	15.63
542.763	15.63
542.96	15.62
543.158	15.7
543.355	15.68
543.552	15.73
543.75	15.89
543.947	15.98
544.144	16.04
544.341	16.11
544.539	16.16
544.736	16.24
544.933	16.22
545.13	16.19
545.327	16.11
545.524	16.2
545.722	16.11
545.919	16.18
546.116	16.11
546.313	16.2
546.51	16.32
546.707	16.32
546.904	16.39
547.101	16.52
547.298	16.77
547.495	16.85
547.692	16.87
547.889	16.82
548.086	16.7
548.283	16.96
548.48	16.95
548.677	16.85
548.874	16.9
549.07	16.87
549.267	16.83
549.464	16.73
549.661	16.89
549.858	16.91
550.055	17.29
550.251	17.39
550.448	17.49
550.645	17.55
550.842	17.75
551.038	17.77
551.235	17.96
551.432	18.22
551.628	18.26
551.825	18.23
552.022	18.29
552.218	18.32
552.415	18.52
552.612	18.25
552.808	18.34
553.005	18.32
553.201	18.21
553.398	18.26
553.594	18.4
553.791	18.67
553.987	18.76
554.184	18.89
554.38	18.81
554.577	18.81
554.773	19.15
554.97	19.12
555.166	19.32
555.362	19.68
555.559	19.68
555.755	19.72
555.952	19.65
556.148	20
556.344	19.94
556.541	19.95
556.737	19.99
556.933	20.09
557.129	20.22
557.326	20.25
557.522	20.4
557.718	20.62
557.914	20.64
558.11	20.47
558.307	20.1
558.503	20.29
558.699	20.55
558.895	20.57
559.091	20.43
559.287	20.68
559.483	20.69
559.679	20.68
559.876	20.45
560.072	20.34
560.268	20.41
560.464	20.56
560.66	20.51
560.856	20.54
561.052	20.68
561.247	20.67
561.443	20.45
561.639	20.51
561.835	20.56
562.031	20.81
562.227	20.95
562.423	20.93
562.619	21.16
562.815	21.42
563.01	21.61
563.206	21.75
563.402	22.01
563.598	22.24
563.793	22.32
563.989	22.42
564.185	22.63
564.381	22.6
564.576	22.85
564.772	22.6
564.968	22.54
565.163	22.39
565.359	22.32
565.555	22.33
565.75	22.42
565.946	22.54
566.141	22.64
566.337	22.56
566.532	22.82
566.728	22.86
566.923	22.99
567.119	23.17
567.314	23.31
567.51	23.38
567.705	23.37
567.901	23.45
568.096	23.44
568.292	23.52
568.487	23.48
568.682	23.37
568.878	23.57
569.073	23.81
569.268	23.67
569.464	23.75
569.659	23.88
569.854	23.98
570.05	23.87
570.245	24.16
570.44	24.23
570.635	24.33
570.831	24.52
571.026	24.51
571.221	24.53
571.416	24.5
571.611	24.5
571.806	24.43
572.002	24.49
572.197	24.6
572.392	24.43
572.587	24.38
572.782	24.52
572.977	24.39
573.172	24.46
573.367	24.39
573.562	24.68
573.757	24.85
573.952	25.01
574.147	24.97
574.342	25.08
574.537	25.14
574.732	25.02
574.927	25.2
575.121	25.47
575.316	25.53
575.511	25.79
575.706	25.59
575.901	25.53
576.096	25.53
576.29	25.62
576.485	25.5
576.68	25.58
576.875	25.43
577.069	25.27
577.264	25.16
577.459	25.2
577.654	25.32
577.848	25.32
578.043	25.45
578.238	25.48
578.432	25.64
578.627	25.9
578.821	26
579.016	26.47
579.21	26.64
579.405	26.57
579.6	26.56
579.794	26.41
579.989	26.73
580.183	26.96
580.378	26.92
580.572	27.15
580.766	27.02
580.961	27.08
581.155	27
581.35	27
581.544	27.29
581.738	27.44
581.933	27.3
582.127	27.43
582.321	27.35
582.516	27.56
582.71	27.29
582.904	27.65
583.099	27.66
583.293	27.85
583.487	27.89
583.681	28.18
583.875	28.06
584.07	28.36
584.264	28.46
584.458	28.53
584.652	28.25
584.846	28.45
585.04	28.24
585.234	28.42
585.428	28.66
585.623	28.77
585.817	28.44
586.011	28.5
586.205	28.46
586.399	28.45
586.593	28.32
586.787	28.39
586.981	28.23
587.174	28.34
587.368	28.34
587.562	28.34
587.756	28.4
587.95	28.45
588.144	28.35
588.338	28.64
588.532	28.43
588.725	28.47
588.919	28.88
589.113	29.05
589.307	29.26
589.501	28.92
589.694	29.04
589.888	29.03
590.082	28.93
590.275	29.07
590.469	28.92
590.663	29.16
590.856	29.08
591.05	28.92
591.244	28.85
591.437	28.98
591.631	29.34
591.824	29.11
592.018	29.3
592.212	29.49
592.405	29.64
592.599	29.61
592.792	29.53
592.986	29.61
593.179	29.75
593.372	29.93
593.566	29.47
593.759	29.55
593.953	29.67
594.146	29.61
594.339	29.66
594.533	29.55
594.726	29.74
594.92	29.72
595.113	29.67
595.306	29.75
595.499	29.73
595.693	30.05
595.886	30.05
596.079	30.24
596.272	30.27
596.466	30.38
596.659	30.52
596.852	30.57
597.045	30.6
597.238	30.85
597.431	30.79
597.624	30.77
597.818	30.75
598.011	30.74
598.204	30.46
598.397	30.47
598.59	30.39
598.783	30.35
598.976	30.44
599.169	30.39
599.362	30.27
599.555	30.04
599.748	30.33
599.941	30.34
600.134	30.37
600.326	30.52
600.519	31.01
600.712	31.31
600.905	31.6
601.098	31.38
601.291	31.63
601.483	31.64
601.676	31.69
601.869	31.41
602.062	31.26
602.255	31.21
602.447	31.05
602.64	30.62
602.833	30.46
603.025	30.21
603.218	30.12
603.411	29.99
603.603	29.86
603.796	30.07
603.989	30.06
604.181	30.2
604.374	30.27
604.566	30.6
604.759	30.6
604.951	30.59
605.144	30.48
605.336	30.82
605.529	30.88
605.721	30.81
605.914	30.85
606.106	30.83
606.299	31.03
606.491	31.29
606.683	31.18
606.876	31.13
607.068	31.36
607.26	31.5
607.453	31.19
607.645	31.14
607.837	31.77
608.03	31.74
608.222	31.9
608.414	31.68
608.606	31.56
608.799	31.65
608.991	31.86
609.183	31.86
609.375	32.14
609.567	32.42
609.759	32.57
609.952	32.43
610.144	32.5
610.336	32.75
610.528	32.88
610.72	33.05
610.912	33
611.104	33.14
611.296	33.27
611.488	33.6
611.68	33.54
611.872	33.68
612.064	34.06
612.256	34.19
612.448	34.05
612.64	34.07
612.832	34.19
613.023	34.35
613.215	34.29
613.407	33.99
613.599	33.35
613.791	33.37
613.983	33.24
614.174	32.96
614.366	32.78
614.558	32.72
614.75	32.91
614.941	32.69
615.133	32.63
615.325	32.59
615.516	32.88
615.708	33.1
615.9	33.01
616.091	33.02
616.283	32.82
616.475	32.79
616.666	32.96
616.858	32.82
617.049	32.55
617.241	32.7
617.432	32.38
617.624	32.23
617.815	31.95
618.007	31.85
618.198	31.95
618.39	32.09
618.581	32.38
618.773	32.22
618.964	32.06
619.155	32.23
619.347	31.76
619.538	31.91
619.729	31.96
619.921	32.47
620.112	32.8
620.303	32.71
620.494	32.84
620.686	32.85
620.877	32.99
621.068	33.24
621.259	33.16
621.451	33.68
621.642	33.77
621.833	33.69
622.024	33.39
622.215	32.96
622.406	32.94
622.597	32.68
622.788	32.51
622.98	32.55
623.171	32.38
623.362	32.3
623.553	32.61
623.744	32.55
623.935	32.65
624.126	32.74
624.317	33.16
624.508	33.21
624.698	33.25
624.889	33.12
625.08	33.53
625.271	33.68
625.462	33.73
625.653	33.09
625.844	33.15
626.034	33
626.225	33.19
626.416	32.9
626.607	32.91
626.798	33.01
626.988	33.09
627.179	32.85
627.37	32.63
627.56	32.96
627.751	33.32
627.942	33.41
628.132	33.45
628.323	33.3
628.514	33.73
628.704	33.63
628.895	33.56
629.085	33.55
629.276	33.27
629.466	33.7
629.657	33.55
629.847	33.57
630.038	34.05
630.228	34.09
630.419	34.39
630.609	34.33
630.8	34.63
630.99	34.73
631.181	35.15
631.371	35.36
631.561	35.08
631.752	35.24
631.942	35.22
632.132	34.54
632.323	34.5
632.513	34.53
632.703	34.13
632.893	34.16
633.084	34.16
633.274	33.95
633.464	33.82
633.654	33.99
633.844	33.73
634.034	33.52
634.225	33.67
634.415	33.68
634.605	33.2
634.795	33.15
634.985	33.01
635.175	33.23
635.365	33.23
635.555	33.41
635.745	33.2
635.935	33.59
636.125	33.67
636.315	33.95
636.505	33.81
636.695	34
636.885	34.08
637.075	34.34
637.265	33.83
637.455	34.18
637.644	34.2
637.834	34.35
638.024	33.89
638.214	33.58
638.404	33.27
638.593	33.55
638.783	33.75
638.973	34.02
639.163	33.79
639.352	34.26
639.542	33.84
639.732	33.96
639.921	34.16
640.111	34.52
640.301	34.82
640.49	34.79
640.68	34.9
640.87	34.82
641.059	34.81
641.249	35.09
641.438	34.85
641.628	35.05
641.817	35.3
642.007	35.39
642.196	35.36
642.386	35.18
642.575	35.71
642.764	35.37
642.954	35.33
643.143	35.42
643.333	35.28
643.522	35.35
643.711	35.07
643.901	34.55
644.09	34.18
644.279	34.44
644.469	34.82
644.658	34.67
644.847	34.87
645.036	34.97
645.226	35.09
645.415	34.95
645.604	34.92
645.793	35.16
645.982	35.13
646.171	35.19
646.361	34.84
646.55	35.21
646.739	34.82
646.928	34.79
647.117	34.76
647.306	34.4
647.495	34.34
647.684	34.54
647.873	34.46
648.062	34.68
648.251	34.56
648.44	34.47
648.629	33.88
648.818	34.38
649.007	34.65
649.196	34.68
649.384	34.64
649.573	34.85
649.762	34.97
649.951	35.46
650.14	35.36
650.328	35.4
650.517	35.3
650.706	35.96
650.895	35.86
651.083	36.49
651.272	36.61
651.461	36.96
651.65	36.68
651.838	36.63
652.027	36.21
652.216	35.83
652.404	35.72
652.593	35.65
652.781	35.26
652.97	34.99
653.158	33.75
653.347	33.78
653.535	33.55
653.724	33.85
653.912	34.24
654.101	34.08
654.289	34.63
654.478	35.13
654.666	35.38
654.855	35.4
655.043	35.82
655.231	36.18
655.42	36.03
655.608	36.46
655.796	36.39
655.985	36.08
656.173	35.6
656.361	35.51
656.55	34.93
656.738	35.18
656.926	35.21
657.114	34.65
657.302	34.91
657.491	35
657.679	34.69
657.867	34.76
658.055	34.83
658.243	35.54
658.431	35.67
658.619	36.02
658.807	36.02
658.996	36.05
659.184	36.36
659.372	36.4
659.56	36.26
659.748	36.23
659.936	36.37
660.124	36.14
660.311	36.04
660.499	35.83
660.687	35.4
660.875	35.15
661.063	34.98
661.251	34.73
661.439	34.67
661.627	34.66
661.814	34.61
662.002	34.18
662.19	34.58
662.378	34.3
662.565	34.72
662.753	35.39
662.941	35.77
663.129	35.68
663.316	35.76
663.504	35.18
663.692	35.44
663.879	35.46
664.067	35.39
664.254	34.89
664.442	35.22
664.63	35.21
664.817	35.21
665.005	34.88
665.192	35.38
665.38	35.72
665.567	36.06
665.755	36.04
665.942	35.86
666.13	36.33
666.317	36.52
666.504	36.57
666.692	36.87
666.879	36.47
667.067	36.71
667.254	36.72
667.441	36.35
667.629	36.62
667.816	36.35
668.003	36.89
668.19	37.2
668.378	37.33
668.565	37.35
668.752	36.88
668.939	37.32
669.127	37.65
669.314	37.08
669.501	37.39
669.688	37.29
669.875	37.69
670.062	37.57
670.249	37.22
670.436	37.21
670.623	37.21
670.81	37.37
670.997	37.39
671.184	36.91
671.371	37.05
671.558	36.88
671.745	36.88
671.932	36.36
672.119	36.29
672.306	36.52
672.493	35.99
672.68	36
672.867	36.66
673.054	36.69
673.24	36.89
673.427	37.28
673.614	37.08
673.801	37.19
673.988	37.63
674.174	38.05
674.361	37.99
674.548	38.59
674.734	38.31
674.921	37.39
675.108	37.44
675.294	37.51
675.481	37.3
675.668	37.6
675.854	37.79
676.041	37.74
676.227	37.25
676.414	37.28
676.601	37.01
676.787	37.2
676.974	37.26
677.16	37.01
677.347	37.39
677.533	37.48
677.719	37.29
677.906	37.15
678.092	37.02
678.279	37
678.465	36.84
678.651	36.89
678.838	37.13
679.024	36.66
679.21	36.19
679.397	35.84
679.583	36.16
679.769	36.23
679.955	36.12
680.142	36.02
680.328	36.26
680.514	36.38
680.7	36.35
680.886	36.25
681.073	36.65
681.259	36.85
681.445	37.26
681.631	36.83
681.817	36.86
682.003	37.11
682.189	37.34
682.375	37.58
682.561	37.75
682.747	37.63
682.933	37.86
683.119	37.94
683.305	38.48
683.491	38.11
683.677	38.66
683.863	38.32
684.049	38.17
684.235	38.23
684.42	38.1
684.606	38.13
684.792	38.74
684.978	38.98
685.164	39.29
685.349	39.06
685.535	39.24
685.721	38.99
685.907	38.93
686.092	38.54
686.278	38.61
686.464	38.44
686.649	38.65
686.835	38.68
687.021	38.22
687.206	38.11
687.392	38.11
687.577	37.39
687.763	37.24
687.948	37.98
688.134	38.21
688.319	38.5
688.505	38.44
688.69	38.08
688.876	37.69
689.061	37.47
689.247	37.08
689.432	37.22
689.618	37.42
689.803	37.47
689.988	37.55
690.174	37.9
690.359	37.32
690.544	37.46
690.73	37.46
690.915	37.8
691.1	37.57
691.285	38.43
691.471	38.16
691.656	38.3
691.841	37.95
692.026	37.95
692.211	37.72
692.396	38.18
692.582	38.87
692.767	38.73
692.952	38.55
693.137	39.11
693.322	37.81
693.507	37.96
693.692	38.08
693.877	38.56
694.062	38.51
694.247	38.92
694.432	39.11
694.617	38.41
694.802	38.49
694.987	38.6
695.172	38.82
695.357	39.45
695.541	38.58
695.726	38.85
695.911	39.18
696.096	38.91
696.281	38.45
696.466	37.71
696.65	37.72
696.835	37.94
697.02	37.07
697.204	37.13
697.389	37.5
697.574	38.45
697.759	37.92
697.943	37.17
698.128	37.43
698.312	37.98
698.497	38.01
698.682	37.78
698.866	37.79
699.051	38.8
699.235	38.82
699.42	38.69
699.604	38.41
699.789	38.77
699.973	38.82
700.158	38.67
700.342	38.26
700.527	38.83
700.711	39.39
700.895	39.64
701.08	39.51
701.264	39.14
701.448	38.89
701.633	38.95
701.817	39.02
702.001	39.7
702.186	39.57
702.37	39.41
702.554	38.85
702.738	38.72
702.923	38.45
703.107	37.98
703.291	38.77
703.475	38.9
703.659	38.93
703.843	38.79
704.027	38.52
704.212	38.63
704.396	39.85
704.58	39.78
704.764	39.18
704.948	38.46
705.132	38.39
705.316	37.4
705.5	38.38
705.684	38.23
705.868	38
706.052	38.47
706.235	38.86
706.419	38.03
706.603	38.1
706.787	38.78
706.971	38.96
707.155	39.25
707.339	39.21
707.522	38.76
707.706	39
707.89	39.14
708.074	39.23
708.257	38.49
708.441	38.54
708.625	38.61
708.808	38.24
708.992	39.33
709.176	38.63
709.359	39.15
709.543	38.5
709.727	38.57
709.91	39.14
710.094	39.02
710.277	39.92
710.461	40.12
710.644	40.16
710.828	40.29
711.011	39.76
711.195	40.01
711.378	40.32
711.562	40.41
711.745	40.52
711.928	39.81
712.112	39.67
712.295	39.26
712.478	39.12
712.662	39.41
712.845	39.12
713.028	38.52
713.212	38.67
713.395	38.17
713.578	38.39
713.761	38.31
713.945	38.99
714.128	39.19
714.311	39.18
714.494	38.66
714.677	38.5
714.86	38.56
715.043	39.42
715.227	38.98
715.41	39.19
715.593	39.05
715.776	39.32
715.959	38.36
716.142	38.31
716.325	37.77
716.508	38.08
716.691	37.77
716.874	38.01
717.057	37.22
717.239	38.17
717.422	37.79
717.605	37.55
717.788	37.24
717.971	39.05
718.154	38.62
718.337	39.23
718.519	38.97
718.702	40.39
718.885	40.26
719.068	41.48
719.25	41.3
719.433	41.96
719.616	42.72
719.798	42.76
719.981	41.44
720.164	41.57
720.346	41.98
720.529	42.82
720.712	41.09
720.894	41.48
721.077	40.09
721.259	39.88
721.442	39.66
721.624	39.3
721.807	39.03
721.989	38.78
722.172	38.95
722.354	38.34
722.537	37.98
722.719	38.66
722.901	38.1
723.084	38.39
723.266	38.6
723.448	39.16
723.631	38.89
723.813	39.51
723.995	40.46
724.178	41.32
724.36	41.92
724.542	41.69
724.724	41.92
724.907	42.54
725.089	43.3
725.271	43.16
725.453	42.01
725.635	42.52
725.817	42.03
725.999	42.07
726.181	41.58
726.364	41.2
726.546	41.23
726.728	41.14
726.91	41.15
727.092	41.33
727.274	41.71
727.456	42.25
727.638	40.73
727.819	41.52
728.001	40.41
728.183	39.77
728.365	40.51
728.547	40.38
728.729	41.01
728.911	41.21
729.093	40.91
729.274	40.32
729.456	40.75
729.638	42.72
729.82	41.12
730.001	41.39
730.183	42.31
730.365	41.45
730.546	41.91
730.728	41.02
730.91	40.4
731.091	40.38
731.273	40.28
731.455	40.16
731.636	40.13
731.818	41.99
731.999	42.09
732.181	41.56
732.362	42.31
732.544	43.1
732.725	42.79
732.907	43.31
733.088	43.07
733.27	44.3
733.451	43.86
733.633	44.03
733.814	43.1
733.995	42.71
734.177	42.36
734.358	40.86
734.539	39.8
734.721	39.93
734.902	39.13
735.083	40.48
735.264	39.34
735.446	39.72
735.627	37.51
735.808	37.34
735.989	38.47
736.17	39.74
736.351	40.95
736.533	41.46
736.714	40.83
736.895	40.58
737.076	39.29
737.257	39.22
737.438	38.85
737.619	41.38
737.8	40.65
737.981	40.16
738.162	40.05
738.343	40.06
738.524	40.07
738.705	41.64
738.886	42.13
739.067	41.04
739.247	41.17
739.428	40.48
739.609	39.3
739.79	41.35
739.971	41.83
740.151	40.83
740.332	40.61
740.513	40.41
740.694	40.66
740.874	40.03
741.055	40.54
741.236	41.06
741.417	41.91
741.597	42.93
741.778	42.22
741.958	40.97
742.139	41.68
742.32	41.07
742.5	40.7
742.681	39.7
742.861	40.13
743.042	40.39
743.222	40.63
743.403	40.87
743.583	40.92
743.764	40.1
743.944	41.28
744.124	41.19
744.305	41.82
744.485	41.71
744.666	41.23
744.846	41.86
745.026	42.92
745.207	42.05
745.387	42.11
745.567	42.21
745.747	41.79
745.928	40.18
746.108	39.99
746.288	40.73
746.468	41.45
746.648	43.35
746.829	43.21
747.009	43.79
747.189	43.84
747.369	42.9
747.549	41.93
747.729	42.23
747.909	43.41
748.089	43.59
748.269	42.34
748.449	41.73
748.629	41.61
748.809	41.45
748.989	39.97
749.169	40.45
749.349	41.21
749.529	40.69
749.709	41.2
749.889	41.3
750.068	40.71
750.248	41.73
750.428	41.61
750.608	39.54
750.788	40.01
750.967	39.55
751.147	38.6
751.327	39.03
751.507	38.71
751.686	38.36
751.866	38.62
752.046	39.27
752.225	39.37
752.405	39.43
752.585	40.68
752.764	41.14
752.944	41.24
753.123	43.23
753.303	42.85
753.482	43
753.662	44.31
753.841	43.83
754.021	43.16
754.2	43.69
754.38	44.58
754.559	44.43
754.739	44.12
754.918	45.25
755.097	42.58
755.277	41.84
755.456	41.69
755.635	40.98
755.815	41.31
755.994	41.55
756.173	40.13
756.352	39.8
756.532	39.44
756.711	38.94
756.89	39.01
757.069	40.97
757.248	40.39
757.427	41.03
757.607	40.27
757.786	40.05
757.965	40.34
758.144	39.94
758.323	40.32
758.502	41.12
758.681	41.52
758.86	40.61
759.039	38.91
759.218	39.96
759.397	39.54
759.576	39.28
759.755	39.39
759.934	38.83
760.113	39.11
760.291	39.34
760.47	38.97
760.649	38.51
760.828	39.34
761.007	39.21
761.186	39.12
761.364	39.27
761.543	39.55
761.722	40.17
761.901	39.09
762.079	39.97
762.258	39.76
762.437	39.54
762.615	39.36
762.794	38.78
762.972	39.45
763.151	39.16
763.33	39.13
763.508	39.96
763.687	39.98
763.865	40.83
764.044	40.34
764.222	39.16
764.401	39.31
764.579	39.44
764.758	39.44
764.936	40.04
765.114	40.22
765.293	40.68
765.471	40.1
765.65	39.48
765.828	39.98
766.006	40.35
766.184	40.77
766.363	40.42
766.541	40.09
766.719	40.01
766.898	40.49
767.076	41.04
767.254	41.5
767.432	41.63
767.61	41.37
767.788	40.33
767.967	40.13
768.145	41.03
768.323	42.04
768.501	42.53
768.679	42.61
768.857	41.71
769.035	41.86
769.213	43.15
769.391	42.51
769.569	42.71
769.747	44.26
769.925	43.36
770.103	43.61
770.281	41.42
770.459	40.95
770.636	39.29
770.814	39.97
770.992	39.55
771.17	38.21
771.348	39.12
771.525	39.09
771.703	39.21
771.881	41.28
772.059	42.64
772.236	43.39
772.414	44.21
772.592	46.58
772.769	45.75
772.947	45.74
773.125	44.65
773.302	45.95
773.48	48.33
773.657	47.49
773.835	46.44
774.013	44.93
774.19	46.72
774.368	46.06
774.545	46.16
774.723	47.28
774.9	48.41
775.077	48.75
775.255	46.71
775.432	45.04
775.61	43.2
775.787	41.64
775.964	41.78
776.142	41.82
776.319	41.33
776.496	41.24
776.674	40.23
776.851	40.9
777.028	39.91
777.205	40.89
777.382	42.38
777.56	44.35
777.737	49.23
777.914	48.8
778.091	48.09
778.268	48.31
778.445	48.36
778.622	49.1
778.8	45.86
778.977	47.73
779.154	45.35
779.331	45.22
779.508	46.7
779.685	43.58
779.862	43.8
780.038	43.42
780.215	45.29
780.392	45.37
780.569	45.54
780.746	46.47
780.923	44.47
781.1	46.34
781.277	42.39
781.453	39.95
781.63	38.81
781.807	40.07
781.984	40.55
782.16	41.11
782.337	41.83
782.514	41.06
782.691	41.75
782.867	41.93
783.044	43.79
783.221	46.5
783.397	47.01
783.574	48.37
783.75	47.57
783.927	49.02
784.103	47.43
784.28	45.85
784.456	44.24
784.633	44.37
784.809	45.5
784.986	42.62
785.162	44.15
785.339	41.71
785.515	40.49
785.692	41.43
785.868	39.27
786.044	40.96
786.221	43.72
786.397	46.98
786.573	45.09
786.749	45.97
786.926	47.02
787.102	44.84
787.278	46.48
787.454	48.75
787.631	48
787.807	48.77
787.983	48.6
788.159	47.56
788.335	46.25
788.511	47.64
788.687	46.76
788.863	48.85
789.039	50.56
789.216	48.64
789.392	48.21
789.568	46.96
789.744	46.61
789.919	43.02
790.095	42.65
790.271	41.98
790.447	43.68
790.623	43.22
790.799	42.03
790.975	39.18
791.151	41.87
791.327	38.29
791.502	36.74
791.678	35.74
791.854	38.81
792.03	36.88
792.205	37.99
792.381	34.15
792.557	33.23
792.733	32.11
792.908	34.51
793.084	36.25
793.259	37.95
793.435	38.57
793.611	39.72
793.786	39.51
793.962	39
794.137	39.19
794.313	41.68
794.488	43.37
794.664	43.59
794.839	43.62
795.015	41.1
795.19	41.36
795.366	43.1
795.541	41.34
795.716	39.45
795.892	42.54
796.067	40.71
796.242	40.45
796.418	39.92
796.593	37.49
796.768	36.98
796.944	39.46
797.119	38.86
797.294	40.44
797.469	42.18
797.644	43.45
797.82	41.48
797.995	42.89
798.17	43.18
798.345	43
798.52	45.81
798.695	46.38
798.87	42.71
799.045	44.5
799.22	42.94
799.395	43.05
799.57	44.69
799.745	44.77
799.92	44.44
800.095	43.54
800.27	42.88
800.445	42.22
800.62	40.32
800.795	41.4
800.97	42.37
801.145	40.63
801.319	39.7
801.494	36.53
801.669	41.6
801.844	43.74
802.018	43.83
802.193	46.58
802.368	44.8
802.543	47.51
802.717	50.37
802.892	50.74
803.067	55.3
803.241	56.52
803.416	54.13
803.59	49.47
803.765	48.5
803.94	49.84
804.114	46.63
804.289	49.12
804.463	47.37
804.638	45.37
804.812	44.28
804.986	39.93
805.161	41.38
805.335	44.51
805.51	44.73
805.684	44.26
805.858	42.34
806.033	42.06
806.207	39.19
806.381	41.22
806.556	41.96
806.73	41.89
806.904	44.49
807.078	45.13
807.253	47.15
807.427	49.37
807.601	50.17
807.775	51.32
807.949	51.74
808.123	51.55
808.298	51.05
808.472	52.4
808.646	52.48
808.82	49.79
808.994	45.37
809.168	41.85
809.342	41.71
809.516	41.91
809.69	42.3
809.864	45.02
810.038	48.81
810.212	46.74
810.385	42.77
810.559	45.37
810.733	44.91
810.907	48.67
811.081	51.06
811.255	50.88
811.428	46.4
811.602	43.07
811.776	39.11
811.95	38.8
812.123	36.4
812.297	39.41
812.471	35.28
812.644	39.6
812.818	37.25
812.992	41.39
813.165	40.56
813.339	45.13
813.512	47.77
813.686	51.32
813.86	47.88
814.033	49.59
814.207	47.75
814.38	49.93
814.554	48.64
814.727	52.72
814.9	50.62
815.074	48.26
815.247	42.04
815.421	42.26
815.594	44.92
815.767	47.4
815.941	49.44
816.114	55.43
816.287	52.88
816.46	52.43
816.634	49.14
816.807	49.14
816.98	50.12
817.153	52.71
817.327	53.75
817.5	46.36
817.673	47.56
817.846	48.06
818.019	42.96
818.192	47.33
818.365	47.36
818.538	49.68
818.711	48.17
818.884	47.83
819.057	48.9
819.23	47.46
819.403	51.4
819.576	50.96
819.749	50.49
819.922	50.32
820.095	48.13
820.268	48.61
820.441	47.56
820.614	48.86
820.786	47.78
820.959	47.89
821.132	46.86
821.305	45.3
821.477	44.13
821.65	42.59
821.823	43.08
821.996	42.48
822.168	42.42
822.341	41.16
822.514	41.26
822.686	41
822.859	40.6
823.031	40.45
823.204	39.97
823.376	40.39
823.549	40.69
823.722	40.69
823.894	41.22
824.067	40.72
824.239	41.2
824.411	40.34
824.584	40.77
824.756	40.51
824.929	40.58
825.101	41.56
825.273	40.93
825.446	41.3
825.618	41.42
825.79	41.33
825.963	40.99
826.135	41.28
826.307	41.65
826.479	41.98
826.652	42.92
826.824	43.72
826.996	42.66
827.168	43.53
827.34	44.1
827.512	44.26
827.684	43.35
827.856	43.35
828.029	43.3
828.201	42.23
828.373	42.18
828.545	41.19
828.717	41.33
828.889	41.43
829.061	41.8
829.232	40.51
829.404	40.65
829.576	40.76
829.748	42.38
829.92	43.81
830.092	47.55
830.264	48.05
830.436	49.43
830.607	47.94
830.779	48.86
830.951	47.18
831.123	47.75
831.294	46.77
831.466	46.43
831.638	45.72
831.809	41.15
831.981	37.11
832.153	37.53
832.324	35.29
832.496	38.18
832.667	42.66
832.839	45.87
833.011	44.6
833.182	46.62
833.354	46.52
833.525	45.82
833.697	47.1
833.868	47.21
834.039	46.19
834.211	45.89
834.382	44.15
834.554	41.16
834.725	40.02
834.896	39.75
835.068	39.71
835.239	41.3
835.41	42.34
835.581	43.78
835.753	43.2
835.924	42.6
836.095	43.32
836.266	44.81
836.438	43.1
836.609	43.24
836.78	44.33
836.951	44.23
837.122	42.55
837.293	42.21
837.464	40.06
837.635	42.68
837.806	41.58
837.977	41.26
838.148	40.21
838.319	42.87
838.49	42.27
838.661	39.83
838.832	41.65
839.003	39.66
839.174	38.2
839.345	41.53
839.516	37.54
839.687	42.02
839.857	41.47
840.028	46.61
840.199	46.88
840.37	51.52
840.54	54.32
840.711	49.79
840.882	54.8
841.053	54.71
841.223	56.54
841.394	64.66
841.564	64.51
841.735	70.47
841.906	68.95
842.076	72.62
842.247	67.27
842.417	65.99
842.588	70.08
842.758	70.05
842.929	73.61
843.099	72.33
843.27	65.66
843.44	65.01
843.611	63.01
843.781	60.89
843.951	56.07
844.122	53.2
844.292	50.88
844.462	49.24
844.633	48.13
844.803	46.37
844.973	41.29
845.144	44.25
845.314	43.8
845.484	41.88
845.654	42.62
845.824	49.17
845.995	48.27
846.165	51.74
846.335	53.58
846.505	54.63
846.675	57.72
846.845	59.38
847.015	61.2
847.185	65.47
847.355	60.98
847.525	69.05
847.695	69.2
847.865	79.48
848.035	83.86
848.205	78.52
848.375	86.34
848.545	85.71
848.715	73.44
848.884	66.17
849.054	69.29
849.224	71.39
849.394	68.23
849.564	62.29
849.733	60.27
849.903	57.94
850.073	50.74
850.243	46.92
850.412	52.03
850.582	62.13
850.752	68.47
850.921	62.79
851.091	69.43
851.26	70.37
851.43	72.46
851.599	75.87
851.769	61.88
851.939	73.62
852.108	63.27
852.278	57.44
852.447	65.98
852.616	65.19
852.786	58.21
852.955	55.71
853.125	57.25
853.294	56.58
853.463	53.87
853.633	60.9
853.802	69.79
853.971	81.73
854.141	77.55
854.31	67.34
854.479	67.83
854.648	79.47
854.818	62.89
854.987	56.22
855.156	51.66
855.325	48.79
855.494	73.51
855.663	59.05
855.832	68.66
856.001	72.38
856.171	61.71
856.34	62.23
856.509	82.02
856.678	111.72
856.847	108.09
857.016	105.35
857.185	109.85
857.353	108.74
857.522	107.81
857.691	86.71
857.86	76.68
858.029	76.16
858.198	73.62
858.367	65.7
858.535	56.83
858.704	63.37
858.873	68.33
859.042	61.98
859.21	57.79
859.379	58.92
859.548	65.08
859.717	77.57
859.885	85.83
860.054	80.04
860.222	58.31
860.391	51.02
860.56	48.12
860.728	48.13
860.897	50.45
861.065	44.83
861.234	40.02
861.402	44.98
861.571	36.75
861.739	43.74
861.908	45.15
862.076	59.04
862.244	66.74
862.413	64.72
862.581	65.52
862.749	69.12
862.918	65.91
863.086	70.36
863.254	69.94
863.423	67.09
863.591	55.13
863.759	54.17
863.927	48.16
864.096	43.82
864.264	42.4
864.432	42.37
864.6	36.61
864.768	40.9
864.936	34.63
865.104	50.15
865.272	62.82
865.44	65.55
865.608	67.22
865.776	62.13
865.944	61.78
866.112	59.4
866.28	63.07
866.448	62.74
866.616	63.11
866.784	52.01
866.952	47.54
867.12	42.66
867.288	33
867.455	41.99
867.623	52.6
867.791	45.39
867.959	51.75
868.127	33.44
868.294	31.24
868.462	25.97
868.63	30.97
868.797	33.45
868.965	32.67
869.133	39.92
869.3	29.29
869.468	37.82
869.636	38.61
869.803	43.21
869.971	46.44
870.138	59.72
870.306	64.37
870.473	68.55
870.641	56.63
870.808	53.24
870.975	52.95
871.143	58.28
871.31	48.06
871.478	47.96
871.645	48.88
871.812	53.71
871.98	50.11
872.147	36.17
872.314	40.02
872.482	49.5
872.649	58.01
872.816	73.94
872.983	79.24
873.15	75.5
873.318	81.15
873.485	93.25
873.652	81.77
873.819	80.5
873.986	93.44
874.153	105.13
874.32	107.7
874.487	111.04
874.654	99.55
874.821	85.54
874.988	93.03
875.155	97.85
875.322	65.89
875.489	61.37
875.656	48.05
875.823	45.92
875.99	23.59
876.157	27.13
876.324	18.1
876.49	19.14
876.657	18.97
876.824	32.2
876.991	22.49
877.157	18.73
877.324	34.64
877.491	46.84
877.658	45.73
877.824	49.42
877.991	45.45
878.157	53.22
878.324	55.39
878.491	54.6
878.657	47.53
878.824	58.87
878.99	60.56
879.157	60.75
879.323	49.62
879.49	54.15
879.656	52.3
879.823	61.51
879.989	57.24
880.156	61.89
880.322	59.21
880.488	60.38
880.655	49.31
880.821	57.98
880.987	60.33
881.154	66.77
881.32	68.35
881.486	66.67
881.652	61.85
881.819	60.95
881.985	56.07
882.151	58.44
882.317	53.31
882.483	56.76
882.649	53.95
882.816	48.02
882.982	46.23
883.148	43.46
883.314	41.75
883.48	42.14
883.646	40.55
883.812	41.19
883.978	41.23
884.144	42.57
884.31	41.48
884.476	41.28
884.642	42.82
884.807	41.65
884.973	41.41
885.139	42.73
885.305	42.54
885.471	43.06
885.637	42.65
885.802	41.48
885.968	43.37
886.134	46.72
886.3	47.22
886.465	44.47
886.631	44.11
886.797	46.68
886.962	46.82
887.128	49.48
887.293	52.72
887.459	50.24
887.625	55.37
887.79	51.87
887.956	44.41
888.121	43.77
888.287	50.81
888.452	61.07
888.618	56.05
888.783	60.17
