Data from CB_044_Reflection_00004.txt Node
Date: Wed Nov 11 22:17:03 EST 2015
User: robert
Spectrometer: USB4E03001
Autoset integration time: false
Trigger mode: 4
Integration Time (sec): 1.000000E-1
Scans to average: 15
Electric dark correction enabled: true
Nonlinearity correction enabled: false
Boxcar width: 5
Stray light correction enabled: false
XAxis mode: Wavelengths
Stop averaging: false
Number of Pixels in Spectrum: 3648
>>>>>Begin Spectral Data<<<<<
177.566	-209.58
177.785	-1892.76
178.005	120.66
178.225	170.99
178.445	47.13
178.665	54.59
178.885	500.27
179.105	-88.64
179.324	-42.36
179.544	31.88
179.764	75.13
179.984	66.57
180.204	76.68
180.423	153.92
180.643	135.86
180.863	114.38
181.083	112.75
181.302	119.79
181.522	103.63
181.742	96.28
181.961	119.03
182.181	113.61
182.401	103.78
182.621	100.97
182.84	80.68
183.06	68.37
183.279	58.21
183.499	65.18
183.719	54.42
183.938	69.43
184.158	68.77
184.377	67.06
184.597	59.01
184.816	63.9
185.036	58.36
185.256	65.7
185.475	84.43
185.695	83.65
185.914	74.42
186.134	126.8
186.353	140.93
186.572	84.78
186.792	89.73
187.011	98.57
187.231	69.08
187.45	96.02
187.67	51.34
187.889	38.71
188.108	50.77
188.328	55.99
188.547	32.8
188.766	23.04
188.986	37.93
189.205	-4.25
189.424	-6.01
189.644	-7.34
189.863	12
190.082	40.86
190.302	40.62
190.521	62.89
190.74	54.43
190.959	65.69
191.178	56.73
191.398	46.43
191.617	75.65
191.836	63.64
192.055	65.47
192.274	58.27
192.494	55.46
192.713	84.64
192.932	66.76
193.151	69.99
193.37	78.03
193.589	85.67
193.808	110.26
194.027	99.84
194.246	121.08
194.465	112.93
194.685	115.15
194.904	112.96
195.123	77.76
195.342	66.31
195.561	53.61
195.78	47.83
195.999	61.22
196.218	47.63
196.436	31.05
196.655	48.77
196.874	22.39
197.093	19.65
197.312	33.01
197.531	34.09
197.75	50.57
197.969	42.98
198.188	36.79
198.407	15.54
198.625	18.26
198.844	20.27
199.063	-8.72
199.282	-5.83
199.501	-21.31
199.719	-62.98
199.938	-26.5
200.157	-60.05
200.376	21.28
200.594	39.76
200.813	61.59
201.032	62.26
201.251	92.02
201.469	97.67
201.688	97.08
201.907	99.14
202.125	73.67
202.344	59.07
202.563	62.69
202.781	60.42
203	49.07
203.218	41.37
203.437	52.33
203.656	51.86
203.874	48.97
204.093	25.16
204.311	24
204.53	3.59
204.748	20.05
204.967	20.04
205.185	7.68
205.404	25.81
205.622	35.06
205.841	51.29
206.059	35.96
206.278	42.35
206.496	60.28
206.715	41.56
206.933	62.27
207.151	60.78
207.37	52.73
207.588	50.23
207.806	43.34
208.025	43.54
208.243	26.44
208.461	43.75
208.68	45
208.898	51.5
209.116	55.21
209.335	57.4
209.553	50.94
209.771	56.09
209.989	54.11
210.208	61.4
210.426	70.89
210.644	94.2
210.862	83.08
211.081	87.5
211.299	115.39
211.517	140.41
211.735	108.11
211.953	124.1
212.171	133.18
212.39	133.5
212.608	126.69
212.826	99.9
213.044	102.17
213.262	99.25
213.48	107.41
213.698	91.19
213.916	92.6
214.134	113
214.352	143.96
214.57	86.82
214.788	156.98
215.006	183.42
215.224	160.62
215.442	161.39
215.66	206.15
215.878	123.12
216.096	105.8
216.314	92.47
216.532	89.37
216.75	68.04
216.968	100.81
217.185	67.97
217.403	67.66
217.621	66.05
217.839	57.3
218.057	58.49
218.275	68.26
218.492	70.48
218.71	75.44
218.928	67.57
219.146	66.76
219.363	58.47
219.581	62.33
219.799	53.73
220.017	53.35
220.234	42.03
220.452	33.12
220.67	40.18
220.887	35.17
221.105	20.81
221.323	15.43
221.54	32.94
221.758	45.42
221.976	36.35
222.193	43.15
222.411	54.96
222.629	73.87
222.846	69.49
223.064	58.55
223.281	61.29
223.499	72.93
223.716	68.97
223.934	72.98
224.151	64.37
224.369	63.67
224.586	48.67
224.804	46.04
225.021	28.82
225.239	35.36
225.456	43.06
225.674	39.47
225.891	29.44
226.108	33.26
226.326	16.55
226.543	9.6
226.76	6.69
226.978	10.29
227.195	2.34
227.413	9.55
227.63	13.56
227.847	7.7
228.064	7.22
228.282	2.76
228.499	1.8
228.716	1.67
228.934	4.68
229.151	4.62
229.368	5.44
229.585	7.07
229.802	7.3
230.02	4.11
230.237	4.34
230.454	3.68
230.671	3.07
230.888	3.81
231.105	5.24
231.323	5.24
231.54	11.54
231.757	11.7
231.974	11.31
232.191	12.65
232.408	18.54
232.625	19.97
232.842	22.61
233.059	28.38
233.276	28.37
233.493	27.9
233.71	27.14
233.927	26.87
234.144	25.77
234.361	21.52
234.578	16.42
234.795	11.87
235.012	11.95
235.229	10.04
235.446	13.13
235.663	12.01
235.879	12.24
236.096	13.29
236.313	10.32
236.53	14.2
236.747	23.15
236.964	22.02
237.181	26.5
237.397	22.07
237.614	28.05
237.831	18.7
238.048	18.5
238.264	20.34
238.481	14.78
238.698	17.29
238.915	18.39
239.131	11.61
239.348	13.68
239.565	10.73
239.781	13.62
239.998	14.52
240.215	15.58
240.431	16.3
240.648	16.47
240.865	16.08
241.081	16.66
241.298	15.23
241.514	15.26
241.731	14.9
241.947	13.49
242.164	15.16
242.38	13.42
242.597	12.75
242.814	12.98
243.03	13.25
243.246	14.09
243.463	12.24
243.679	11.57
243.896	13.38
244.112	15.82
244.329	19.81
244.545	17
244.762	16.56
244.978	17.14
245.194	16.37
245.411	14.22
245.627	14.62
245.843	14.75
246.06	13.58
246.276	11.35
246.492	9.94
246.709	7.81
246.925	9.83
247.141	10.88
247.357	11.02
247.574	9.93
247.79	10.2
248.006	9.73
248.222	9.93
248.439	10.79
248.655	11.92
248.871	11.68
249.087	11.16
249.303	10.03
249.519	9.37
249.736	8.7
249.952	10.32
250.168	11.2
250.384	11.01
250.6	11.88
250.816	12.92
251.032	10.78
251.248	12.04
251.464	12.78
251.68	14.05
251.896	13.45
252.112	15.14
252.328	13.8
252.544	14.02
252.76	14.46
252.976	13.71
253.192	11.18
253.408	12.38
253.624	13.39
253.84	14.67
254.056	13.68
254.272	15.65
254.487	14.48
254.703	17.56
254.919	17.94
255.135	18.16
255.351	16.32
255.567	18.05
255.782	17.41
255.998	14.24
256.214	12.76
256.43	15.53
256.646	13.99
256.861	13.62
257.077	11.79
257.293	9.56
257.508	9.7
257.724	10.92
257.94	10.4
258.155	10.42
258.371	10.57
258.587	11.61
258.802	11.69
259.018	10.9
259.234	10.27
259.449	10.69
259.665	10.76
259.88	10.39
260.096	10.18
260.312	10.37
260.527	10.82
260.743	12.03
260.958	11.32
261.174	10.08
261.389	10.18
261.605	11.07
261.82	11.2
262.036	11.8
262.251	13.27
262.466	14.8
262.682	14.86
262.897	14.21
263.113	11.43
263.328	12.46
263.543	13.21
263.759	14.54
263.974	14.72
264.189	13.91
264.405	12.85
264.62	10.98
264.835	10.04
265.051	8.47
265.266	8.47
265.481	9.59
265.696	9.43
265.912	8.33
266.127	7.94
266.342	7.66
266.557	7.72
266.773	8.16
266.988	8.3
267.203	7.09
267.418	9.12
267.633	9.87
267.848	9.94
268.064	8.64
268.279	10.5
268.494	9.35
268.709	9.23
268.924	11.03
269.139	11.79
269.354	12.19
269.569	12.56
269.784	12.17
269.999	10.94
270.214	9.37
270.429	10.33
270.644	9.81
270.859	10.98
271.074	11.56
271.289	11.14
271.504	10.86
271.719	10.99
271.934	10.56
272.149	10.29
272.363	11.36
272.578	12.78
272.793	13.08
273.008	12.72
273.223	11.73
273.438	10.74
273.653	11.72
273.867	12.16
274.082	11.09
274.297	11.65
274.512	11.47
274.726	8.32
274.941	8.09
275.156	8.65
275.371	8.27
275.585	8.7
275.8	8.87
276.015	6.84
276.229	6.76
276.444	8.25
276.659	9.08
276.873	9.62
277.088	12.38
277.302	12.59
277.517	11.62
277.732	13.2
277.946	13.18
278.161	14.49
278.375	15.55
278.59	15.28
278.804	14.85
279.019	14.06
279.233	13.71
279.448	13.65
279.662	12.47
279.877	11.66
280.091	11.29
280.306	11.5
280.52	9.3
280.735	9.07
280.949	7.88
281.163	7.48
281.378	6.65
281.592	6.35
281.806	6.62
282.021	7.26
282.235	7.47
282.449	7.99
282.664	8.33
282.878	9.08
283.092	8.73
283.307	10.43
283.521	11.02
283.735	11.09
283.949	12.37
284.164	12.24
284.378	12.25
284.592	12.92
284.806	11.61
285.02	11.01
285.234	11.24
285.449	11.27
285.663	10.59
285.877	10.27
286.091	11.32
286.305	10.61
286.519	10.17
286.733	9.61
286.947	9.48
287.161	9.42
287.375	10.52
287.589	10.79
287.803	10.27
288.017	10.51
288.231	10.76
288.445	11.18
288.659	10.33
288.873	12.31
289.087	12.71
289.301	13.36
289.515	13.96
289.729	12.78
289.943	12.05
290.157	12.24
290.371	11.93
290.584	12.39
290.798	12.39
291.012	13.62
291.226	12.84
291.44	12.81
291.654	12.49
291.867	11.75
292.081	11.91
292.295	12.06
292.509	12.54
292.722	12.36
292.936	11.3
293.15	10.45
293.364	11.11
293.577	10.9
293.791	11.26
294.005	10.32
294.218	11.19
294.432	12.04
294.645	12.07
294.859	9.78
295.073	9.76
295.286	9.59
295.5	8.72
295.713	7.51
295.927	6.69
296.14	6.35
296.354	7.07
296.568	7.58
296.781	7.27
296.994	7.74
297.208	9.61
297.421	9.56
297.635	9.63
297.848	10.18
298.062	10.24
298.275	10.82
298.489	11.08
298.702	11.28
298.915	11.11
299.129	11.87
299.342	12.02
299.555	12.79
299.769	13.53
299.982	14.54
300.195	14.64
300.409	14.81
300.622	15.07
300.835	15.07
301.048	14.03
301.262	13.62
301.475	13.22
301.688	12.59
301.901	11.67
302.115	11
302.328	10.91
302.541	10.17
302.754	9.78
302.967	9.93
303.18	10.48
303.393	11.01
303.607	10.7
303.82	10.55
304.033	11.1
304.246	9.97
304.459	10.72
304.672	10.42
304.885	11.7
305.098	11.99
305.311	11.94
305.524	11.33
305.737	12.33
305.95	12.23
306.163	13.09
306.376	12.39
306.589	13.63
306.802	12.89
307.015	13.88
307.228	13.91
307.44	14.38
307.653	13.98
307.866	13.97
308.079	14.09
308.292	15.05
308.505	14.83
308.718	16.07
308.93	16.39
309.143	16.02
309.356	15.52
309.569	15.22
309.781	15.5
309.994	15.96
310.207	16.13
310.42	15.16
310.632	15.28
310.845	15.05
311.058	15.19
311.27	14.95
311.483	14.88
311.696	14.14
311.908	15.04
312.121	14.24
312.333	13.81
312.546	14.27
312.759	14.52
312.971	13.85
313.184	13.86
313.396	13.26
313.609	13.22
313.821	14.08
314.034	14.6
314.246	14.08
314.459	15.51
314.671	15.5
314.884	15.07
315.096	15.87
315.309	14.62
315.521	13.6
315.733	12.78
315.946	12.29
316.158	11.31
316.371	12.02
316.583	10.52
316.795	9.89
317.008	9.97
317.22	9.63
317.432	9.6
317.644	11.52
317.857	12.56
318.069	12.49
318.281	12.47
318.494	13.55
318.706	14.23
318.918	14.94
319.13	15.06
319.342	14.88
319.555	14.91
319.767	14.94
319.979	15.47
320.191	15.09
320.403	16.42
320.615	16.24
320.827	15.98
321.039	14.29
321.252	13.29
321.464	13.76
321.676	14.37
321.888	15.1
322.1	14.51
322.312	13.51
322.524	13.84
322.736	13.72
322.948	14.48
323.16	13.9
323.372	13.97
323.584	14.9
323.796	14.68
324.007	14.12
324.219	14.85
324.431	14.58
324.643	15.45
324.855	16.45
325.067	16.2
325.279	15.67
325.491	16.63
325.702	17.2
325.914	17.27
326.126	16.84
326.338	16.2
326.55	15.01
326.761	15
326.973	14.54
327.185	13.95
327.396	13.38
327.608	13.11
327.82	13.17
328.032	13.06
328.243	13.03
328.455	14.16
328.666	15.65
328.878	14.98
329.09	15.26
329.301	15.03
329.513	14.83
329.725	15.25
329.936	15.69
330.148	14.75
330.359	14.51
330.571	15.14
330.782	14.68
330.994	14.95
331.205	16.37
331.417	16.56
331.628	16.69
331.84	17.05
332.051	17.4
332.262	16.61
332.474	18.05
332.685	19.52
332.897	19.09
333.108	19.91
333.319	19.57
333.531	20.42
333.742	20.46
333.953	20.76
334.165	20.32
334.376	20.89
334.587	21.69
334.799	21.25
335.01	20.12
335.221	20.21
335.432	19.39
335.644	19.75
335.855	19.42
336.066	19.43
336.277	20.29
336.488	19.94
336.7	19.55
336.911	19.77
337.122	19.42
337.333	18.69
337.544	18.54
337.755	19.08
337.966	18.21
338.177	17.33
338.388	16.81
338.599	16.29
338.811	16.39
339.022	16.54
339.233	17.32
339.444	17.57
339.655	18.68
339.866	18.79
340.076	18.16
340.287	19.59
340.498	19.86
340.709	20.29
340.92	20.41
341.131	20.15
341.342	19.6
341.553	19.01
341.764	19.21
341.975	19.22
342.185	19.36
342.396	19.33
342.607	18.44
342.818	18.55
343.029	18.54
343.239	17.41
343.45	17.36
343.661	17.67
343.872	17.28
344.082	16.19
344.293	15.96
344.504	16.04
344.714	16.17
344.925	15.75
345.136	15.72
345.346	16.18
345.557	16.88
345.768	16.98
345.978	17.35
346.189	17.96
346.399	18.66
346.61	18.39
346.821	18.29
347.031	18
347.242	18.71
347.452	18.66
347.663	18.89
347.873	19.2
348.084	20.13
348.294	19.41
348.504	19.06
348.715	19.62
348.925	20.25
349.136	20.2
349.346	19.86
349.557	20.31
349.767	20.63
349.977	19.81
350.188	19.68
350.398	19.15
350.608	19.21
350.819	18.86
351.029	18.25
351.239	17.55
351.449	18.12
351.66	18.02
351.87	17.78
352.08	17.05
352.29	17.16
352.501	17.17
352.711	17.05
352.921	17.43
353.131	17.39
353.341	17.17
353.552	17.4
353.762	16.86
353.972	17.29
354.182	16.54
354.392	16.85
354.602	17.14
354.812	16.08
355.022	15.56
355.232	15.66
355.442	16.01
355.652	16.45
355.862	16.06
356.072	15.86
356.282	16.01
356.492	16.86
356.702	16.46
356.912	16.23
357.122	16.69
357.332	17.75
357.542	17.76
357.752	17.82
357.962	17.57
358.171	17.82
358.381	18.21
358.591	17.8
358.801	17.46
359.011	17.55
359.221	17.98
359.43	18.15
359.64	16.91
359.85	16.43
360.06	16.33
360.269	16.68
360.479	17.03
360.689	16.64
360.899	16.84
361.108	16.6
361.318	16.82
361.528	16.47
361.737	15.98
361.947	16.65
362.156	16.59
362.366	16.4
362.576	15.81
362.785	15.61
362.995	15.79
363.204	15.39
363.414	15.09
363.623	15.19
363.833	15.14
364.042	15.07
364.252	15.32
364.461	15.27
364.671	15.22
364.88	15.59
365.09	14.95
365.299	14.78
365.509	15.16
365.718	15.34
365.927	15
366.137	14.55
366.346	14.99
366.555	14.56
366.765	14.64
366.974	14.82
367.183	14.52
367.393	15.3
367.602	15.42
367.811	15.26
368.021	15.54
368.23	15.58
368.439	15.73
368.648	15.64
368.857	15.26
369.067	14.81
369.276	14.49
369.485	14.67
369.694	14.71
369.903	13.93
370.112	13.62
370.321	13.44
370.531	13.34
370.74	13.76
370.949	13.38
371.158	13.6
371.367	13.51
371.576	14.2
371.785	13.8
371.994	13.6
372.203	13.81
372.412	14.5
372.621	13.88
372.83	13.41
373.039	13.33
373.248	13.95
373.457	13.66
373.666	14.02
373.874	13.66
374.083	13.51
374.292	12.96
374.501	13.33
374.71	12.62
374.919	12.88
375.128	13.69
375.336	13.34
375.545	12.65
375.754	13.02
375.963	12.7
376.171	12.61
376.38	12.31
376.589	12.54
376.798	11.88
377.006	11.64
377.215	11.48
377.424	10.8
377.632	10.43
377.841	10.32
378.05	9.81
378.258	10.14
378.467	9.76
378.675	10.38
378.884	10.18
379.093	10.34
379.301	10.69
379.51	10.61
379.718	10.81
379.927	10.75
380.135	11.03
380.344	10.76
380.552	10.54
380.761	10.24
380.969	9.84
381.177	9.8
381.386	9.89
381.594	9.68
381.803	9.87
382.011	9.47
382.219	9.64
382.428	9.86
382.636	10.28
382.845	10.4
383.053	10.33
383.261	10.21
383.469	10.16
383.678	9.77
383.886	9.47
384.094	9.26
384.302	9.69
384.511	9.71
384.719	9.19
384.927	9.01
385.135	9.01
385.343	9.32
385.552	9.79
385.76	10.05
385.968	9.89
386.176	10.08
386.384	9.74
386.592	9.79
386.8	9.73
387.008	9.87
387.216	9.74
387.424	9.92
387.633	9.47
387.841	9.02
388.049	8.63
388.257	8.98
388.465	8.96
388.672	9.18
388.88	9.06
389.088	8.94
389.296	8.84
389.504	8.37
389.712	7.84
389.92	7.93
390.128	7.55
390.336	7.63
390.544	7.59
390.751	7.43
390.959	7.71
391.167	7.53
391.375	7.36
391.583	7.3
391.79	7.38
391.998	7.23
392.206	7.27
392.414	7.58
392.621	7.31
392.829	7.21
393.037	7.17
393.244	6.91
393.452	6.83
393.66	6.89
393.867	7
394.075	7.42
394.283	7.82
394.49	7.77
394.698	7.84
394.905	8.06
395.113	7.92
395.32	7.88
395.528	7.98
395.735	7.88
395.943	7.89
396.15	7.64
396.358	7.47
396.565	7.54
396.773	7.49
396.98	7.39
397.188	7.12
397.395	7.26
397.602	7.31
397.81	7.33
398.017	7.44
398.225	7.17
398.432	7.2
398.639	7.04
398.847	6.53
399.054	6.43
399.261	6.3
399.468	6.51
399.676	6.55
399.883	6.37
400.09	5.59
400.297	5.72
400.505	5.87
400.712	5.8
400.919	5.54
401.126	5.43
401.333	5.57
401.54	5.25
401.748	5.13
401.955	5.3
402.162	5.37
402.369	5.94
402.576	5.58
402.783	5.48
402.99	5.17
403.197	5.33
403.404	5.57
403.611	5.76
403.818	5.93
404.025	6.01
404.232	5.85
404.439	5.88
404.646	5.65
404.853	5.66
405.06	5.75
405.267	5.84
405.474	5.87
405.681	5.78
405.887	5.5
406.094	5.72
406.301	5.51
406.508	5.17
406.715	4.99
406.922	5.44
407.128	5.6
407.335	5.3
407.542	5.51
407.749	5.39
407.955	5.13
408.162	5.06
408.369	4.67
408.575	5.06
408.782	5.32
408.989	5.85
409.195	5.69
409.402	5.64
409.609	6.03
409.815	5.81
410.022	6.08
410.228	6.44
410.435	6.6
410.642	6.58
410.848	5.97
411.055	5.91
411.261	5.4
411.468	5.43
411.674	5.35
411.881	5.26
412.087	5.54
412.294	5.49
412.5	5.43
412.706	5.21
412.913	5.17
413.119	5.65
413.326	5.64
413.532	5.51
413.738	5.33
413.945	5.03
414.151	5.05
414.357	4.93
414.564	4.66
414.77	4.47
414.976	4.57
415.182	4.66
415.389	4.19
415.595	4.25
415.801	4.59
416.007	4.61
416.214	4.47
416.42	4.6
416.626	4.45
416.832	4.49
417.038	4.68
417.244	4.56
417.45	4.55
417.657	4.75
417.863	4.81
418.069	4.55
418.275	4.63
418.481	4.82
418.687	4.65
418.893	4.65
419.099	4.83
419.305	4.63
419.511	4.67
419.717	4.71
419.923	4.73
420.129	4.58
420.335	4.68
420.541	4.74
420.746	4.64
420.952	4.59
421.158	4.61
421.364	4.54
421.57	4.5
421.776	4.52
421.982	4.48
422.187	4.37
422.393	4.4
422.599	4.27
422.805	4.07
423.01	4.22
423.216	4.16
423.422	4.17
423.628	4.12
423.833	4.14
424.039	4.13
424.245	4.19
424.45	4.34
424.656	4.35
424.862	4.44
425.067	4.67
425.273	4.62
425.478	4.66
425.684	4.66
425.889	4.58
426.095	4.81
426.301	4.78
426.506	4.81
426.712	4.67
426.917	4.62
427.123	4.57
427.328	4.2
427.533	4.08
427.739	4.23
427.944	4.24
428.15	4.25
428.355	3.92
428.561	3.96
428.766	3.95
428.971	4.11
429.177	4.14
429.382	4.03
429.587	4.24
429.793	4.42
429.998	4.25
430.203	4.14
430.408	4.05
430.614	4.07
430.819	4.1
431.024	4.21
431.229	4.37
431.434	4.28
431.64	4.46
431.845	4.36
432.05	4.31
432.255	4.39
432.46	4.44
432.665	4.35
432.87	4.56
433.076	4.61
433.281	4.39
433.486	4.08
433.691	4.28
433.896	4.24
434.101	4.24
434.306	4.23
434.511	4.17
434.716	4.18
434.921	4.49
435.126	4.34
435.331	4.06
435.535	3.99
435.74	3.99
435.945	3.76
436.15	3.75
436.355	3.74
436.56	3.8
436.765	3.56
436.97	3.47
437.174	3.43
437.379	3.5
437.584	3.68
437.789	3.82
437.993	4.05
438.198	4.09
438.403	4.09
438.608	4.03
438.812	4.04
439.017	4.24
439.222	4.26
439.426	4.13
439.631	3.97
439.836	4
440.04	3.84
440.245	3.77
440.45	3.85
440.654	3.86
440.859	3.86
441.063	3.71
441.268	3.6
441.472	3.72
441.677	3.85
441.881	4.03
442.086	3.98
442.29	3.98
442.495	4.01
442.699	4.05
442.904	4.06
443.108	4.22
443.312	4.33
443.517	4.44
443.721	4.43
443.925	4.23
444.13	3.95
444.334	4
444.538	4.04
444.743	3.99
444.947	3.79
445.151	3.79
445.356	3.66
445.56	3.64
445.764	3.73
445.968	3.66
446.173	3.72
446.377	3.77
446.581	3.84
446.785	3.93
446.989	3.7
447.193	3.88
447.398	3.73
447.602	3.69
447.806	3.66
448.01	3.68
448.214	3.64
448.418	3.57
448.622	3.46
448.826	3.22
449.03	3.18
449.234	3.41
449.438	3.15
449.642	3.3
449.846	3.35
450.05	3.44
450.254	3.31
450.458	3.44
450.662	3.55
450.866	3.64
451.069	3.83
451.273	3.73
451.477	3.56
451.681	3.62
451.885	3.59
452.089	3.54
452.292	3.55
452.496	3.49
452.7	3.48
452.904	3.5
453.107	3.78
453.311	3.73
453.515	3.75
453.719	3.92
453.922	3.9
454.126	3.96
454.33	3.99
454.533	3.95
454.737	4.1
454.94	4.04
455.144	3.98
455.348	3.81
455.551	3.77
455.755	3.71
455.958	3.75
456.162	3.88
456.365	3.89
456.569	4.08
456.772	4.12
456.976	3.94
457.179	3.85
457.383	3.88
457.586	3.76
457.79	3.73
457.993	3.66
458.196	3.45
458.4	3.36
458.603	3.16
458.807	3.09
459.01	3.19
459.213	3.24
459.417	3.44
459.62	3.49
459.823	3.51
460.026	3.55
460.23	3.59
460.433	3.56
460.636	3.5
460.839	3.63
461.042	3.67
461.246	3.6
461.449	3.61
461.652	3.36
461.855	3.28
462.058	3.4
462.261	3.36
462.464	3.34
462.668	3.49
462.871	3.64
463.074	3.52
463.277	3.44
463.48	3.47
463.683	3.53
463.886	3.63
464.089	3.78
464.292	3.7
464.495	3.58
464.698	3.66
464.901	3.54
465.104	3.41
465.306	3.36
465.509	3.29
465.712	3.22
465.915	3.19
466.118	3.27
466.321	3.22
466.524	3.1
466.726	3.03
466.929	3.11
467.132	3.13
467.335	3.16
467.538	3.4
467.74	3.5
467.943	3.46
468.146	3.49
468.348	3.5
468.551	3.34
468.754	3.48
468.956	3.58
469.159	3.48
469.362	3.58
469.564	3.73
469.767	3.52
469.969	3.59
470.172	3.6
470.375	3.49
470.577	3.39
470.78	3.47
470.982	3.45
471.185	3.48
471.387	3.5
471.59	3.44
471.792	3.27
471.995	3.37
472.197	3.51
472.399	3.27
472.602	3.36
472.804	3.6
473.007	3.67
473.209	3.69
473.411	3.82
473.614	3.74
473.816	3.58
474.018	3.55
474.22	3.56
474.423	3.38
474.625	3.45
474.827	3.4
475.03	3.25
475.232	3.18
475.434	3
475.636	2.84
475.838	2.85
476.04	2.92
476.243	3.04
476.445	2.89
476.647	2.9
476.849	3.15
477.051	3.24
477.253	3.16
477.455	3.19
477.657	3.24
477.859	3.19
478.061	3.42
478.263	3.46
478.465	3.62
478.667	3.73
478.869	3.69
479.071	3.54
479.273	3.52
479.475	3.58
479.677	3.61
479.879	3.6
480.081	3.68
480.283	3.51
480.485	3.6
480.686	3.32
480.888	3.37
481.09	3.38
481.292	3.55
481.494	3.42
481.695	3.38
481.897	3.31
482.099	3.36
482.301	3.3
482.502	3.3
482.704	3.27
482.906	3.35
483.107	3.32
483.309	3.25
483.511	3.18
483.712	3.17
483.914	3.15
484.115	3.16
484.317	3.15
484.519	3.16
484.72	3.21
484.922	3.17
485.123	3.18
485.325	3.17
485.526	3.22
485.728	3.24
485.929	3.28
486.131	3.35
486.332	3.35
486.534	3.31
486.735	3.32
486.936	3.26
487.138	3.3
487.339	3.26
487.541	3.29
487.742	3.31
487.943	3.25
488.144	3.2
488.346	3.12
488.547	3.12
488.748	3.12
488.95	3.12
489.151	3.1
489.352	3.09
489.553	3.08
489.755	3.03
489.956	3
490.157	2.99
490.358	3.03
490.559	3.13
490.76	3.11
490.961	3.14
491.163	3.1
491.364	3.15
491.565	3.15
491.766	3.23
491.967	3.29
492.168	3.26
492.369	3.29
492.57	3.18
492.771	3.15
492.972	3.18
493.173	3.15
493.374	3.23
493.575	3.2
493.776	3.07
493.976	2.96
494.177	2.9
494.378	2.99
494.579	3.02
494.78	3.13
494.981	2.96
495.182	2.84
495.382	2.98
495.583	2.93
495.784	2.96
495.985	3.23
496.185	3.32
496.386	3.39
496.587	3.46
496.788	3.33
496.988	3.37
497.189	3.6
497.39	3.77
497.59	3.7
497.791	3.76
497.992	3.78
498.192	3.64
498.393	3.48
498.593	3.54
498.794	3.38
498.994	3.46
499.195	3.48
499.395	3.49
499.596	3.43
499.796	3.48
499.997	3.59
500.197	3.73
500.398	3.97
500.598	4.14
500.799	3.91
500.999	3.95
501.199	4.15
501.4	4.18
501.6	4.14
501.801	4.24
502.001	4.24
502.201	4.08
502.402	4.01
502.602	4.02
502.802	4.03
503.002	4.26
503.203	4.22
503.403	4.05
503.603	4.11
503.803	4.37
504.003	4.33
504.204	4.5
504.404	4.74
504.604	4.6
504.804	4.69
505.004	4.82
505.204	4.88
505.404	4.91
505.604	4.92
505.804	5.09
506.005	4.99
506.205	4.93
506.405	5.02
506.605	4.84
506.805	4.96
507.005	4.77
507.204	4.72
507.404	4.82
507.604	4.99
507.804	5.19
508.004	5.14
508.204	4.95
508.404	5.16
508.604	5.13
508.804	5.19
509.003	5.3
509.203	5.43
509.403	5.44
509.603	5.39
509.803	5.42
510.002	5.46
510.202	5.4
510.402	5.74
510.602	5.82
510.801	5.85
511.001	5.93
511.201	5.87
511.4	5.86
511.6	6.07
511.8	5.99
511.999	5.99
512.199	6.01
512.398	6.18
512.598	6.27
512.797	6.29
512.997	6.41
513.197	6.55
513.396	6.66
513.596	6.74
513.795	6.75
513.994	6.95
514.194	7.04
514.393	6.98
514.593	7.07
514.792	7
514.992	7.13
515.191	7.1
515.39	7.21
515.59	7.51
515.789	7.52
515.988	7.59
516.188	7.58
516.387	7.63
516.586	8.05
516.786	7.96
516.985	8.07
517.184	8.07
517.383	8.27
517.582	8.16
517.782	8.12
517.981	8.13
518.18	8.17
518.379	8.47
518.578	8.67
518.777	8.52
518.976	8.85
519.176	8.88
519.375	8.93
519.574	8.96
519.773	9.13
519.972	9.1
520.171	9.4
520.37	9.56
520.569	9.5
520.768	9.52
520.967	9.84
521.166	9.79
521.365	10.03
521.564	10.18
521.762	10.16
521.961	10.26
522.16	10.46
522.359	10.35
522.558	10.37
522.757	10.36
522.956	10.52
523.154	10.4
523.353	10.38
523.552	10.38
523.751	10.48
523.949	10.69
524.148	10.82
524.347	10.91
524.546	11.14
524.744	11.21
524.943	11.36
525.142	11.29
525.34	11.37
525.539	11.58
525.737	11.72
525.936	11.81
526.135	11.85
526.333	11.92
526.532	11.93
526.73	12.05
526.929	12.19
527.127	12.38
527.326	12.51
527.524	12.74
527.723	12.81
527.921	12.89
528.12	13
528.318	13.08
528.516	13.05
528.715	13.14
528.913	13.12
529.112	13.14
529.31	13.08
529.508	13.12
529.707	13.08
529.905	13.06
530.103	13.03
530.301	13.01
530.5	13.05
530.698	13.18
530.896	13.29
531.094	13.41
531.293	13.5
531.491	13.71
531.689	13.88
531.887	13.92
532.085	14.17
532.283	14.26
532.481	14.38
532.68	14.42
532.878	14.54
533.076	14.55
533.274	14.61
533.472	14.66
533.67	14.74
533.868	14.77
534.066	14.93
534.264	14.94
534.462	15.03
534.66	15.03
534.858	15.15
535.056	15.26
535.253	15.36
535.451	15.44
535.649	15.53
535.847	15.67
536.045	15.86
536.243	15.79
536.441	15.89
536.638	15.93
536.836	16.03
537.034	16.12
537.232	16.22
537.43	16.3
537.627	16.35
537.825	16.51
538.023	16.44
538.22	16.4
538.418	16.62
538.616	16.49
538.813	16.75
539.011	16.94
539.209	16.97
539.406	16.99
539.604	17.17
539.801	17.33
539.999	17.39
540.196	17.51
540.394	17.52
540.591	17.62
540.789	17.79
540.986	17.76
541.184	17.7
541.381	17.84
541.579	17.93
541.776	17.9
541.974	17.85
542.171	17.86
542.368	17.91
542.566	18.01
542.763	18.01
542.96	18.03
543.158	18.09
543.355	18.2
543.552	18.2
543.75	18.2
543.947	18.21
544.144	18.39
544.341	18.43
544.539	18.48
544.736	18.4
544.933	18.56
545.13	18.8
545.327	18.83
545.524	18.83
545.722	18.97
545.919	19.1
546.116	19.2
546.313	19.28
546.51	19.38
546.707	19.47
546.904	19.77
547.101	19.87
547.298	19.9
547.495	19.99
547.692	20.03
547.889	19.88
548.086	19.92
548.283	20.03
548.48	20.12
548.677	20.38
548.874	20.42
549.07	20.41
549.267	20.44
549.464	20.38
549.661	20.52
549.858	20.84
550.055	21.18
550.251	21.22
550.448	21.33
550.645	21.46
550.842	21.15
551.038	21.16
551.235	21.34
551.432	21.41
551.628	21.6
551.825	21.59
552.022	21.73
552.218	21.62
552.415	21.74
552.612	22
552.808	22.09
553.005	22.26
553.201	22.39
553.398	22.35
553.594	22.53
553.791	22.47
553.987	22.52
554.184	22.48
554.38	22.73
554.577	22.74
554.773	22.75
554.97	22.84
555.166	22.82
555.362	22.93
555.559	23.11
555.755	22.92
555.952	23.07
556.148	23.42
556.344	23.53
556.541	23.49
556.737	23.39
556.933	23.39
557.129	23.38
557.326	23.53
557.522	23.55
557.718	23.5
557.914	23.69
558.11	23.8
558.307	23.55
558.503	23.38
558.699	23.46
558.895	23.65
559.091	23.62
559.287	23.73
559.483	23.82
559.679	24.08
559.876	24.18
560.072	24.25
560.268	24.07
560.464	24.29
560.66	24.39
560.856	24.48
561.052	24.41
561.247	24.44
561.443	24.35
561.639	24.38
561.835	24.42
562.031	24.46
562.227	24.42
562.423	24.34
562.619	24.03
562.815	24.18
563.01	24.22
563.206	24.44
563.402	24.62
563.598	24.84
563.793	24.78
563.989	24.67
564.185	24.64
564.381	24.89
564.576	25.18
564.772	25.39
564.968	25.39
565.163	25.46
565.359	25.39
565.555	25.27
565.75	25.08
565.946	25.29
566.141	25.43
566.337	25.41
566.532	25.27
566.728	25.3
566.923	25.38
567.119	25.59
567.314	25.69
567.51	25.87
567.705	26.01
567.901	26.16
568.096	26.27
568.292	26.23
568.487	26.39
568.682	26.42
568.878	26.75
569.073	26.78
569.268	26.69
569.464	26.62
569.659	26.58
569.854	26.62
570.05	26.87
570.245	26.87
570.44	26.93
570.635	27.01
570.831	27.16
571.026	27.02
571.221	27.17
571.416	27.13
571.611	27.15
571.806	27.2
572.002	27.15
572.197	26.96
572.392	26.94
572.587	26.99
572.782	26.82
572.977	26.73
573.172	26.59
573.367	26.53
573.562	26.4
573.757	26.53
573.952	26.45
574.147	26.76
574.342	26.81
574.537	26.91
574.732	26.82
574.927	27.1
575.121	27.36
575.316	27.52
575.511	27.57
575.706	27.73
575.901	27.49
576.096	27.63
576.29	27.66
576.485	27.85
576.68	27.84
576.875	28
577.069	28.01
577.264	27.9
577.459	27.95
577.654	27.97
577.848	28.01
578.043	28.32
578.238	28.46
578.432	28.23
578.627	27.98
578.821	28
579.016	28.06
579.21	27.85
579.405	27.87
579.6	27.78
579.794	27.71
579.989	27.76
580.183	27.45
580.378	27.37
580.572	27.43
580.766	27.67
580.961	27.63
581.155	27.54
581.35	27.71
581.544	27.72
581.738	28.15
581.933	28.4
582.127	28.57
582.321	28.77
582.516	28.53
582.71	28.48
582.904	28.34
583.099	28.45
583.293	28.7
583.487	28.95
583.681	29.03
583.875	28.71
584.07	28.63
584.264	28.66
584.458	28.7
584.652	28.94
584.846	28.64
585.04	28.99
585.234	28.9
585.428	28.79
585.623	28.75
585.817	28.87
586.011	29.03
586.205	29.04
586.399	29.26
586.593	29.43
586.787	29.38
586.981	29.88
587.174	29.58
587.368	29.71
587.562	29.73
587.756	29.74
587.95	29.67
588.144	29.6
588.338	29.53
588.532	29.19
588.725	29.21
588.919	29.51
589.113	29.51
589.307	29.49
589.501	29.63
589.694	29.51
589.888	29.44
590.082	29.4
590.275	29.32
590.469	29.42
590.663	29.4
590.856	29.47
591.05	29.39
591.244	29.49
591.437	29.69
591.631	29.58
591.824	29.61
592.018	29.46
592.212	29.38
592.405	29.55
592.599	29.55
592.792	29.57
592.986	29.58
593.179	29.6
593.372	29.55
593.566	29.46
593.759	29.49
593.953	29.48
594.146	29.55
594.339	29.75
594.533	29.75
594.726	29.77
594.92	29.58
595.113	29.6
595.306	29.44
595.499	29.48
595.693	29.41
595.886	29.36
596.079	29.54
596.272	29.68
596.466	29.52
596.659	29.46
596.852	29.53
597.045	29.85
597.238	29.71
597.431	29.67
597.624	29.58
597.818	29.94
598.011	30.09
598.204	30.03
598.397	29.95
598.59	29.98
598.783	30.03
598.976	29.92
599.169	29.94
599.362	30.28
599.555	30.73
599.748	30.78
599.941	30.91
600.134	30.79
600.326	30.74
600.519	31.03
600.712	31.12
600.905	31.17
601.098	31.33
601.291	31.5
601.483	31.39
601.676	31
601.869	31.15
602.062	30.48
602.255	30.73
602.447	30.95
602.64	30.82
602.833	30.7
603.025	30.85
603.218	30.95
603.411	30.89
603.603	30.94
603.796	31.24
603.989	31.22
604.181	31.53
604.374	31.27
604.566	31.18
604.759	31.21
604.951	31.48
605.144	31.32
605.336	31.43
605.529	31.29
605.721	31.18
605.914	31.1
606.106	31.05
606.299	31.16
606.491	31.21
606.683	31.3
606.876	31.18
607.068	31.06
607.26	31.24
607.453	30.78
607.645	31.01
607.837	31.05
608.03	31.01
608.222	31.29
608.414	31.04
608.606	30.97
608.799	30.84
608.991	30.77
609.183	30.8
609.375	30.62
609.567	30.7
609.759	30.52
609.952	30.54
610.144	30.58
610.336	30.24
610.528	30.05
610.72	30.08
610.912	30.09
611.104	30.32
611.296	30.28
611.488	30.11
611.68	30.32
611.872	30.34
612.064	30.12
612.256	29.94
612.448	30.07
612.64	30.43
612.832	30.4
613.023	30.45
613.215	30.11
613.407	30.14
613.599	30.47
613.791	30.34
613.983	30.79
614.174	30.95
614.366	31.25
614.558	31.44
614.75	31.31
614.941	31.36
615.133	31.28
615.325	31.5
615.516	31.53
615.708	31.21
615.9	31.1
616.091	30.92
616.283	31.06
616.475	30.96
616.666	30.9
616.858	30.95
617.049	31.33
617.241	31.51
617.432	31.61
617.624	31.86
617.815	32.45
618.007	32.65
618.198	32.75
618.39	32.68
618.581	32.53
618.773	32.29
618.964	32.34
619.155	32.1
619.347	32.21
619.538	32.26
619.729	31.99
619.921	31.94
620.112	32.14
620.303	32.04
620.494	32.07
620.686	32.2
620.877	32.54
621.068	32.69
621.259	32.97
621.451	32.93
621.642	32.73
621.833	33.15
622.024	33.1
622.215	33.02
622.406	33
622.597	32.98
622.788	32.86
622.98	32.86
623.171	32.86
623.362	32.88
623.553	32.98
623.744	33.21
623.935	32.88
624.126	32.74
624.317	32.86
624.508	32.78
624.698	32.93
624.889	33.27
625.08	33.2
625.271	33.14
625.462	32.91
625.653	32.8
625.844	32.79
626.034	32.71
626.225	33.01
626.416	32.94
626.607	32.9
626.798	32.58
626.988	32.43
627.179	32.25
627.37	31.98
627.56	32.05
627.751	31.85
627.942	31.9
628.132	31.95
628.323	31.69
628.514	31.45
628.704	31.4
628.895	31.55
629.085	31.55
629.276	31.81
629.466	31.86
629.657	31.91
629.847	32.28
630.038	32.14
630.228	32.28
630.419	32.29
630.609	32.51
630.8	32.63
630.99	32.68
631.181	32.65
631.371	32.53
631.561	32.78
631.752	32.76
631.942	32.43
632.132	32.4
632.323	32.16
632.513	32.36
632.703	32.47
632.893	32.52
633.084	32.48
633.274	32.56
633.464	32.63
633.654	32.49
633.844	32.34
634.034	32.33
634.225	32.4
634.415	32.49
634.605	32.62
634.795	32.82
634.985	33.03
635.175	33.15
635.365	33.15
635.555	32.9
635.745	32.82
635.935	33.23
636.125	33.54
636.315	33.33
636.505	33.24
636.695	33.32
636.885	33.06
637.075	32.68
637.265	32.74
637.455	32.7
637.644	33.09
637.834	33.19
638.024	32.89
638.214	32.71
638.404	32.9
638.593	33.43
638.783	33.21
638.973	33.17
639.163	33.2
639.352	33.13
639.542	33.42
639.732	33.12
639.921	33.35
640.111	33.5
640.301	33.42
640.49	33.71
640.68	33.4
640.87	33.1
641.059	33.11
641.249	33.1
641.438	32.67
641.628	32.55
641.817	32.82
642.007	32.61
642.196	32.56
642.386	32.47
642.575	32.35
642.764	31.94
642.954	32.34
643.143	32.69
643.333	32.74
643.522	33.68
643.711	33.54
643.901	33.66
644.09	33.57
644.279	33.83
644.469	34.04
644.658	33.89
644.847	34.44
645.036	34.36
645.226	33.99
645.415	33.86
645.604	32.9
645.793	32.74
645.982	32.86
646.171	33.57
646.361	33.54
646.55	33.59
646.739	33.42
646.928	33.55
647.117	33.11
647.306	33.08
647.495	33.7
647.684	33.88
647.873	34.11
648.062	34.01
648.251	33.45
648.44	33.6
648.629	33.76
648.818	33.7
649.007	33.24
649.196	33.37
649.384	33.7
649.573	33.26
649.762	33.5
649.951	33.55
650.14	33.09
650.328	33.54
650.517	33.4
650.706	32.91
650.895	33.19
651.083	33.13
651.272	33.38
651.461	32.96
651.65	32.9
651.838	32.86
652.027	32.9
652.216	32.89
652.404	32.63
652.593	32.71
652.781	33.11
652.97	33.15
653.158	33.35
653.347	33.53
653.535	33.47
653.724	33.52
653.912	33.6
654.101	33.36
654.289	33.84
654.478	33.75
654.666	33.3
654.855	33.32
655.043	33.5
655.231	33.42
655.42	33.33
655.608	33.64
655.796	33.95
655.985	33.71
656.173	34.14
656.361	34.07
656.55	34.11
656.738	34.08
656.926	34.12
657.114	33.84
657.302	33.85
657.491	33.66
657.679	33.5
657.867	33.36
658.055	33.88
658.243	33.66
658.431	33.84
658.619	33.58
658.807	33.71
658.996	33.37
659.184	33.43
659.372	33.62
659.56	33.64
659.748	33.56
659.936	33.48
660.124	33.26
660.311	33.09
660.499	32.36
660.687	32.54
660.875	32.52
661.063	32.83
661.251	32.9
661.439	32.84
661.627	33.1
661.814	33.42
662.002	33.73
662.19	33.79
662.378	33.86
662.565	34.76
662.753	34.88
662.941	34.85
663.129	34.86
663.316	35.31
663.504	34.98
663.692	34.68
663.879	33.91
664.067	33.64
664.254	33.46
664.442	33.87
664.63	33.62
664.817	33.8
665.005	33.86
665.192	33.93
665.38	33.63
665.567	33.91
665.755	34.27
665.942	35.02
666.13	35.03
666.317	35.33
666.504	34.94
666.692	35.05
666.879	34.69
667.067	34.53
667.254	34.73
667.441	34.72
667.629	34.99
667.816	34.72
668.003	34.63
668.19	34.8
668.378	34.85
668.565	35.25
668.752	34.97
668.939	35.23
669.127	35.37
669.314	35.2
669.501	35.06
669.688	34.96
669.875	35.3
670.062	35.24
670.249	34.83
670.436	34.77
670.623	34.55
670.81	34.67
670.997	34.81
671.184	34.56
671.371	34.47
671.558	34.34
671.745	34.02
671.932	33.58
672.119	33.32
672.306	33.5
672.493	32.88
672.68	32.94
672.867	32.85
673.054	32.2
673.24	32.57
673.427	32.85
673.614	32.95
673.801	33.66
673.988	34.23
674.174	34.53
674.361	34.7
674.548	35.04
674.734	34.7
674.921	34.87
675.108	35.16
675.294	35.4
675.481	35.53
675.668	35.91
675.854	35.39
676.041	34.9
676.227	35.05
676.414	34.87
676.601	35.03
676.787	35.03
676.974	35.05
677.16	35.58
677.347	35.32
677.533	35.32
677.719	35.24
677.906	34.97
678.092	35.25
678.279	35.33
678.465	35.45
678.651	35.6
678.838	35.59
679.024	35.25
679.21	34.67
679.397	34.8
679.583	34.47
679.769	34.23
679.955	34.34
680.142	34.05
680.328	34.18
680.514	34.52
680.7	34.39
680.886	34.56
681.073	34.64
681.259	34.53
681.445	34.4
681.631	34.14
681.817	33.96
682.003	34.03
682.189	34.01
682.375	33.62
682.561	33.18
682.747	33.01
682.933	33.15
683.119	33.39
683.305	34.16
683.491	34.42
683.677	34.84
683.863	35.13
684.049	35.33
684.235	35.82
684.42	36.3
684.606	36.35
684.792	36.7
684.978	36.47
685.164	36.36
685.349	36.38
685.535	36.13
685.721	36.32
685.907	36.05
686.092	35.96
686.278	36.03
686.464	35.75
686.649	35.48
686.835	35.42
687.021	35.34
687.206	35.17
687.392	34.66
687.577	34.85
687.763	34.46
687.948	35.03
688.134	35.33
688.319	34.9
688.505	34.81
688.69	35.5
688.876	35.36
689.061	35.43
689.247	35.7
689.432	35.92
689.618	35.64
689.803	36.14
689.988	35.69
690.174	35.56
690.359	35.41
690.544	35.7
690.73	35.25
690.915	35.37
691.1	35.69
691.285	35.45
691.471	35.5
691.656	35.82
691.841	35.44
692.026	35.52
692.211	34.92
692.396	35.24
692.582	35.08
692.767	34.87
692.952	34.83
693.137	34.49
693.322	34.5
693.507	34.33
693.692	33.86
693.877	33.79
694.062	34.43
694.247	34.44
694.432	34.42
694.617	34.33
694.802	34.26
694.987	33.87
695.172	34.03
695.357	34.53
695.541	34.13
695.726	34.99
695.911	35.26
696.096	35.29
696.281	35.59
696.466	35.68
696.65	35.66
696.835	36.4
697.02	37.03
697.204	37.11
697.389	37.57
697.574	38.39
697.759	37.61
697.943	37.51
698.128	37.01
698.312	36.99
698.497	36.91
698.682	36.98
698.866	36.75
699.051	36.39
699.235	36.13
699.42	35.4
699.604	35.14
699.789	35
699.973	34.99
700.158	34.69
700.342	34.59
700.527	34.7
700.711	34.46
700.895	34.63
701.08	34.68
701.264	35.06
701.448	34.66
701.633	34.56
701.817	35.23
702.001	35.04
702.186	35.57
702.37	35.76
702.554	35.45
702.738	35.71
702.923	35.19
703.107	35.65
703.291	35
703.475	35.3
703.659	35.52
703.843	35.25
704.027	35.89
704.212	36.03
704.396	36.11
704.58	35.8
704.764	35.37
704.948	35.22
705.132	34.69
705.316	35.07
705.5	35.5
705.684	34.6
705.868	33.74
706.052	32.95
706.235	33.03
706.419	33.45
706.603	33.68
706.787	33.69
706.971	33.89
707.155	34.01
707.339	33.63
707.522	33.78
707.706	34.46
707.89	35.7
708.074	36.23
708.257	36.25
708.441	35.71
708.625	35.95
708.808	36.33
708.992	36.55
709.176	36.95
709.359	37.77
709.543	37.74
709.727	37.19
709.91	36.94
710.094	37.01
710.277	37.21
710.461	37.81
710.644	38.01
710.828	38.08
711.011	38.78
711.195	38.78
711.378	38.65
711.562	38.32
711.745	38.9
711.928	38.7
712.112	38.42
712.295	37.74
712.478	36.66
712.662	36.36
712.845	35.93
713.028	35.31
713.212	34.67
713.395	34.25
713.578	34.63
713.761	34.46
713.945	34.77
714.128	34.81
714.311	35.3
714.494	36.38
714.677	36.4
714.86	37.55
715.043	37.84
715.227	38.21
715.41	38.08
715.593	37.83
715.776	38.08
715.959	37.69
716.142	37.34
716.325	37.19
716.508	37.1
716.691	37.5
716.874	36.6
717.057	35.88
717.239	36.25
717.422	36.45
717.605	36.61
717.788	35.16
717.971	35.09
718.154	35.58
718.337	35.47
718.519	35.08
718.702	35
718.885	35.68
719.068	35.47
719.25	34.57
719.433	34.71
719.616	34.58
719.798	35.69
719.981	35.26
720.164	34.77
720.346	34.86
720.529	35.1
720.712	34.68
720.894	33.9
721.077	34.78
721.259	34.82
721.442	35.35
721.624	35.48
721.807	35.83
721.989	37.45
722.172	38.09
722.354	37.64
722.537	37.8
722.719	37.93
722.901	37.48
723.084	37.09
723.266	37.22
723.448	36.97
723.631	36.62
723.813	35.71
723.995	34.84
724.178	33.96
724.36	34.38
724.542	35.04
724.724	35.18
724.907	35.83
725.089	35.69
725.271	36.65
725.453	36.51
725.635	36.87
725.817	37.41
725.999	37.77
726.181	37.74
726.364	38.24
726.546	37.06
726.728	37.57
726.91	37.06
727.092	36.99
727.274	36.24
727.456	35.99
727.638	36.15
727.819	36.22
728.001	35.17
728.183	35.42
728.365	34.88
728.547	34.83
728.729	34.7
728.911	35.27
729.093	35.37
729.274	35.91
729.456	36.72
729.638	36.74
729.82	36.51
730.001	37.03
730.183	37.83
730.365	37.94
730.546	38.36
730.728	38.17
730.91	38.05
731.091	38.54
731.273	38.6
731.455	38.06
731.636	38.09
731.818	38.34
731.999	38.55
732.181	37.17
732.362	38.02
732.544	37.9
732.725	37.91
732.907	38.29
733.088	37.98
733.27	38.2
733.451	37.74
733.633	37.73
733.814	37.92
733.995	37.17
734.177	37.04
734.358	35.45
734.539	35.59
734.721	35.31
734.902	34.9
735.083	35.13
735.264	34.52
735.446	35.65
735.627	35.54
735.808	35.13
735.989	35.75
736.17	37.55
736.351	38.89
736.533	38.85
736.714	39.15
736.895	39.8
737.076	39.16
737.257	39.54
737.438	39.04
737.619	39.35
737.8	38.99
737.981	39.04
738.162	38.78
738.343	38.4
738.524	38.28
738.705	38.22
738.886	38.13
739.067	39.3
739.247	39.06
739.428	39.31
739.609	39.77
739.79	40.95
739.971	41.46
740.151	41.01
740.332	41.32
740.513	41.9
740.694	41.43
740.874	41.84
741.055	41.16
741.236	41.28
741.417	40.82
741.597	40.48
741.778	40.4
741.958	39.7
742.139	39.74
742.32	38.98
742.5	38.28
742.681	38.73
742.861	37.46
743.042	37.52
743.222	37.79
743.403	38.48
743.583	37.85
743.764	36.49
743.944	36.67
744.124	36.69
744.305	37.65
744.485	37.25
744.666	37.1
744.846	37.07
745.026	37.6
745.207	37.96
745.387	36.88
745.567	37.52
745.747	39.19
745.928	39.49
746.108	38.49
746.288	36.93
746.468	37.34
746.648	37.9
746.829	36.79
747.009	37.13
747.189	36.1
747.369	36.64
747.549	36.2
747.729	35.46
747.909	35.11
748.089	36.21
748.269	37.52
748.449	36.88
748.629	37.23
748.809	37
748.989	36.17
749.169	35.59
749.349	36.09
749.529	36.2
749.709	36.68
749.889	36.64
750.068	37.48
750.248	36.99
750.428	38.55
750.608	37.52
750.788	38.42
750.967	38.08
751.147	36.73
751.327	35.53
751.507	35.7
751.686	36.05
751.866	36.4
752.046	35.74
752.225	35.7
752.405	35.11
752.585	36.01
752.764	36.55
752.944	38.03
753.123	39.73
753.303	40.53
753.482	39.92
753.662	39.2
753.841	38.97
754.021	37.53
754.2	36.9
754.38	37.03
754.559	35.69
754.739	35.24
754.918	33.37
755.097	33.48
755.277	33.04
755.456	33.93
755.635	33.81
755.815	33.9
755.994	34.8
756.173	35.1
756.352	36.06
756.532	36.54
756.711	37.4
756.89	38.7
757.069	37.87
757.248	37.45
757.427	35.71
757.607	36.13
757.786	35.67
757.965	35.91
758.144	36.7
758.323	35.93
758.502	35.15
758.681	35.26
758.86	34.63
759.039	35.31
759.218	36.16
759.397	38.06
759.576	38.26
759.755	38.53
759.934	37.6
760.113	37.89
760.291	36.37
760.47	37.37
760.649	36.89
760.828	37.83
761.007	38.3
761.186	37.47
761.364	36.39
761.543	35.15
761.722	35.79
761.901	36.68
762.079	36.31
762.258	38.12
762.437	38.06
762.615	37.63
762.794	37.5
762.972	37.71
763.151	37.72
763.33	37.84
763.508	37.99
763.687	37.59
763.865	37.71
764.044	37.7
764.222	37.54
764.401	37.67
764.579	38.72
764.758	37.5
764.936	36.48
765.114	37.27
765.293	37.59
765.471	37.71
765.65	37.39
765.828	37.54
766.006	36.98
766.184	35.79
766.363	34.8
766.541	33.01
766.719	35.07
766.898	35.87
767.076	35.27
767.254	35.25
767.432	36.13
767.61	36.91
767.788	36.65
767.967	38.21
768.145	37.82
768.323	37.47
768.501	39.49
768.679	36.66
768.857	36.77
769.035	36.83
769.213	37.22
769.391	37.21
769.569	35.88
769.747	35.91
769.925	34.13
770.103	35.89
770.281	37.66
770.459	36.08
770.636	37.06
770.814	35.55
770.992	35.46
771.17	34.13
771.348	33.89
771.525	36.56
771.703	36.61
771.881	37.44
772.059	37.6
772.236	36.88
772.414	37.96
772.592	37.59
772.769	39.33
772.947	40.22
773.125	41.9
773.302	40.15
773.48	38.63
773.657	38.36
773.835	37.87
774.013	38.25
774.19	38.64
774.368	38.01
774.545	39.14
774.723	38.7
774.9	38.37
775.077	38.67
775.255	39.96
775.432	39.15
775.61	39.39
775.787	39.4
775.964	36.93
776.142	35.4
776.319	35.32
776.496	35.33
776.674	36.26
776.851	35.75
777.028	35.19
777.205	35.06
777.382	37.84
777.56	38.6
777.737	38.82
777.914	41.25
778.091	43.27
778.268	43.86
778.445	44.32
778.622	42.07
778.8	42.76
778.977	41.99
779.154	41.99
779.331	39.24
779.508	39.36
779.685	38.24
779.862	37.44
780.038	36.97
780.215	35.55
780.392	33.93
780.569	34.31
780.746	34.33
780.923	32.39
781.1	35.15
781.277	36.12
781.453	32.5
781.63	32.48
781.807	33.24
781.984	33.96
782.16	35.47
782.337	38.54
782.514	39.8
782.691	40.04
782.867	40.84
783.044	37.41
783.221	35.97
783.397	36.96
783.574	36.91
783.75	38.78
783.927	38.17
784.103	37.37
784.28	33.53
784.456	32.79
784.633	32.36
784.809	34.44
784.986	35.99
785.162	37.05
785.339	38.69
785.515	39.61
785.692	38.56
785.868	40.27
786.044	40.53
786.221	41.64
786.397	42.27
786.573	41.68
786.749	39.87
786.926	39.12
787.102	40.83
787.278	38.47
787.454	37.97
787.631	35.29
787.807	33.18
787.983	35.22
788.159	36.12
788.335	36.17
788.511	36.44
788.687	36.93
788.863	37.41
789.039	34.13
789.216	35.06
789.392	35.26
789.568	35.74
789.744	36.97
789.919	34.66
790.095	34.73
790.271	37.19
790.447	36.11
790.623	35.91
790.799	34.51
790.975	36.09
791.151	38.26
791.327	38.96
791.502	40.37
791.678	37.51
791.854	37.54
792.03	36.34
792.205	32.74
792.381	33.07
792.557	34.4
792.733	34.33
792.908	33.29
793.084	32.19
793.259	34.81
793.435	34.39
793.611	36.44
793.786	37.33
793.962	38.74
794.137	39.26
794.313	40.08
794.488	39.9
794.664	42
794.839	44.43
795.015	44.21
795.19	40.76
795.366	38.99
795.541	37.59
795.716	37.97
795.892	36.82
796.067	37.49
796.242	37.35
796.418	35.71
796.593	37.31
796.768	35.54
796.944	37.82
797.119	36.9
797.294	38.9
797.469	39.73
797.644	38.67
797.82	41.84
797.995	42.03
798.17	44.3
798.345	45.52
798.52	42.13
798.695	42.64
798.87	39.76
799.045	39.51
799.22	41.47
799.395	42.26
799.57	43.15
799.745	41.4
799.92	40.85
800.095	37.36
800.27	37.08
800.445	37.26
800.62	36.46
800.795	36.95
800.97	38.94
801.145	34.89
801.319	36.82
801.494	36.03
801.669	35.99
801.844	36.51
802.018	37.81
802.193	38.6
802.368	41.3
802.543	43.52
802.717	43.44
802.892	43.24
803.067	44.61
803.241	43.95
803.416	44.39
803.59	41.62
803.765	41.16
803.94	40.04
804.114	38.62
804.289	36.42
804.463	35.36
804.638	36.8
804.812	34.96
804.986	36.79
805.161	35.66
805.335	36.15
805.51	37.74
805.684	38.22
805.858	38.42
806.033	39.18
806.207	38.76
806.381	39.67
806.556	37.53
806.73	39.48
806.904	37.89
807.078	38.68
807.253	37.08
807.427	36.44
807.601	35.08
807.775	36.2
807.949	38.88
808.123	42.82
808.298	40.85
808.472	41.53
808.646	44.24
808.82	46.18
808.994	46.03
809.168	48.97
809.342	51.02
809.516	50.81
809.69	53.03
809.864	52.07
810.038	47.5
810.212	49.37
810.385	50.09
810.559	46.12
810.733	44.92
810.907	45.26
811.081	44.92
811.255	44.12
811.428	44.67
811.602	42.42
811.776	39.49
811.95	41.42
812.123	41.27
812.297	39.12
812.471	41.38
812.644	39.19
812.818	40.14
812.992	41.41
813.165	43.47
813.339	44.28
813.512	44.9
813.686	46.68
813.86	47.14
814.033	49.21
814.207	52.72
814.38	53.23
814.554	53.93
814.727	51.12
814.9	48.79
815.074	48.97
815.247	47.13
815.421	43.73
815.594	43.93
815.767	44.62
815.941	40.4
816.114	37.55
816.287	37.66
816.46	38.18
816.634	40
816.807	35.58
816.98	35.03
817.153	37.19
817.327	38.71
817.5	37.31
817.673	37.88
817.846	39.18
818.019	40.12
818.192	40.21
818.365	40.13
818.538	41.99
818.711	47.73
818.884	45.68
819.057	45.88
819.23	48.22
819.403	47.81
819.576	46.32
819.749	46.07
819.922	43.8
820.095	41.2
820.268	41.46
820.441	40.53
820.614	39.5
820.786	40.2
820.959	40.89
821.132	39.23
821.305	39.91
821.477	39.69
821.65	38.19
821.823	37.32
821.996	38.37
822.168	37.64
822.341	36.66
822.514	36.55
822.686	36.41
822.859	36.81
823.031	37.32
823.204	37.13
823.376	36.89
823.549	37.07
823.722	37.94
823.894	37.18
824.067	37.76
824.239	38.01
824.411	38.04
824.584	38.45
824.756	38.13
824.929	37.85
825.101	37.12
825.273	36.95
825.446	38.11
825.618	37.85
825.79	37.76
825.963	37.16
826.135	37.31
826.307	36.36
826.479	35.41
826.652	34.98
826.824	34.86
826.996	36.12
827.168	36.38
827.34	36.31
827.512	35.59
827.684	36.43
827.856	36.54
828.029	37.64
828.201	38.87
828.373	39.33
828.545	39.71
828.717	39.49
828.889	39.62
829.061	40.16
829.232	39.86
829.404	41.74
829.576	42.86
829.748	43.53
829.92	42.97
830.092	43.74
830.264	43.64
830.436	43.52
830.607	44.99
830.779	45.1
830.951	45.84
831.123	45.84
831.294	45.99
831.466	44.5
831.638	44.1
831.809	44.53
831.981	44.14
832.153	47.4
832.324	48.16
832.496	44.66
832.667	43.8
832.839	42.31
833.011	44.85
833.182	44.64
833.354	43.33
833.525	43.38
833.697	43.75
833.868	42.73
834.039	41.56
834.211	39.22
834.382	41.25
834.554	40.39
834.725	41.01
834.896	38.82
835.068	37.96
835.239	39.56
835.41	40.16
835.581	40.53
835.753	41.03
835.924	39.78
836.095	39.71
836.266	39.39
836.438	39.83
836.609	39.95
836.78	40.35
836.951	40.71
837.122	40.21
837.293	41.21
837.464	38.31
837.635	37.75
837.806	37.78
837.977	41.6
838.148	40.91
838.319	43.76
838.49	44.12
838.661	44.09
838.832	44.52
839.003	42.76
839.174	37.36
839.345	40.36
839.516	40.6
839.687	43.71
839.857	41.21
840.028	43.95
840.199	41.44
840.37	41.57
840.54	44.24
840.711	42.25
840.882	44.28
841.053	44
841.223	44.73
841.394	44.63
841.564	39.65
841.735	38.33
841.906	36.53
842.076	33.65
842.247	29.29
842.417	21.3
842.588	32.6
842.758	28.57
842.929	31.63
843.099	28.13
843.27	28.59
843.44	31.26
843.611	36.7
843.781	35.26
843.951	35.57
844.122	44.15
844.292	51.26
844.462	39.97
844.633	43.05
844.803	42.83
844.973	45.57
845.144	47.86
845.314	41.56
845.484	32.24
845.654	39.05
845.824	41.72
845.995	40.09
846.165	36.02
846.335	36.66
846.505	32.08
846.675	39.42
846.845	40.52
847.015	40.63
847.185	48.74
847.355	57.79
847.525	51.41
847.695	45.38
847.865	40.83
848.035	40.92
848.205	41.32
848.375	47.73
848.545	47.57
848.715	48.31
848.884	45.69
849.054	39.05
849.224	38.97
849.394	43.04
849.564	44.66
849.733	40.26
849.903	44.34
850.073	44.12
850.243	40.76
850.412	32.17
850.582	21.18
850.752	17.12
850.921	26.32
851.091	22.55
851.26	15.22
851.43	20.81
851.599	25.29
851.769	25.93
851.939	27.99
852.108	29.53
852.278	30.81
852.447	35.27
852.616	38.16
852.786	36.62
852.955	35.78
853.125	42.76
853.294	42.52
853.463	46.52
853.633	39.99
853.802	38.57
853.971	41.88
854.141	36.15
854.31	33.34
854.479	30.52
854.648	29.69
854.818	35.4
854.987	35.19
855.156	31.08
855.325	30.89
855.494	34.23
855.663	31.28
855.832	29.78
856.001	36.58
856.171	42.42
856.34	37.2
856.509	35.35
856.678	34.26
856.847	34.5
857.016	37.49
857.185	33.03
857.353	33.54
857.522	30.58
857.691	29.7
857.86	33.11
858.029	31.54
858.198	46.52
858.367	59.34
858.535	54.5
858.704	51.22
858.873	48.2
859.042	55.49
859.21	60.25
859.379	64.87
859.548	65.36
859.717	61.21
859.885	59.48
860.054	53.75
860.222	49.57
860.391	52.43
860.56	58.69
860.728	57.93
860.897	55.85
861.065	54.14
861.234	60.22
861.402	56.26
861.571	55.77
861.739	59.67
861.908	62.78
862.076	57.84
862.244	57.98
862.413	46.52
862.581	51.48
862.749	53.19
862.918	52.35
863.086	48.19
863.254	57.13
863.423	68.57
863.591	58.81
863.759	56.63
863.927	57.72
864.096	63.91
864.264	64.52
864.432	62.5
864.6	57.55
864.768	57.93
864.936	48.53
865.104	48.32
865.272	38.03
865.44	35.48
865.608	37.24
865.776	39.26
865.944	24.06
866.112	33.1
866.28	34.19
866.448	38.75
866.616	38.48
866.784	43.53
866.952	43.97
867.12	37.91
867.288	39.31
867.455	43.84
867.623	42.8
867.791	52.06
867.959	45.51
868.127	42.2
868.294	45.27
868.462	43.84
868.63	40.53
868.797	40.52
868.965	41.22
869.133	44.64
869.3	37.72
869.468	37.38
869.636	38.72
869.803	35.19
869.971	38.64
870.138	31.85
870.306	36.32
870.473	33.79
870.641	30.07
870.808	35.24
870.975	37.4
871.143	41.02
871.31	46.37
871.478	48.54
871.645	52.16
871.812	54.07
871.98	65.42
872.147	75.13
872.314	73.95
872.482	75.18
872.649	58.37
872.816	52.81
872.983	55.93
873.15	51.78
873.318	41.82
873.485	46.53
873.652	47.66
873.819	43.15
873.986	39.42
874.153	45.25
874.32	43.73
874.487	48.46
874.654	47.1
874.821	52.41
874.988	46.69
875.155	45.28
875.322	42.65
875.489	40.02
875.656	36.41
875.823	37.37
875.99	36.36
876.157	46.78
876.324	46.52
876.49	55.95
876.657	51.61
876.824	59.95
876.991	60.48
877.157	61.45
877.324	76.53
877.491	63.96
877.658	56.15
877.824	53.04
877.991	54.48
878.157	57.32
878.324	45.38
878.491	36.01
878.657	36.84
878.824	38.42
878.99	33.68
879.157	30.42
879.323	39.89
879.49	42.02
879.656	38.95
879.823	33.47
879.989	31.85
880.156	29.89
880.322	31.53
880.488	29.36
880.655	27.73
880.821	38.81
880.987	37.75
881.154	38.91
881.32	45.63
881.486	49.32
881.652	48.89
881.819	46.21
881.985	45.58
882.151	45.74
882.317	46.28
882.483	44.99
882.649	38.85
882.816	39.59
882.982	40.56
883.148	37.41
883.314	39.04
883.48	37.6
883.646	37.71
883.812	39.07
883.978	37.92
884.144	37.29
884.31	39.62
884.476	40.78
884.642	41.56
884.807	40.05
884.973	40.52
885.139	37.17
885.305	37.03
885.471	34.56
885.637	32.92
885.802	35.76
885.968	36.35
886.134	35.25
886.3	37.09
886.465	36.37
886.631	33.74
886.797	32.45
886.962	35.75
887.128	37.57
887.293	43.8
887.459	49.58
887.625	47.44
887.79	48
887.956	48.43
888.121	48.11
888.287	48.59
888.452	54.73
888.618	59.53
888.783	59.21
