Data from CB_042_Reflection_00004.txt Node
Date: Wed Nov 11 22:08:19 EST 2015
User: robert
Spectrometer: USB4E03001
Autoset integration time: false
Trigger mode: 4
Integration Time (sec): 1.000000E-1
Scans to average: 15
Electric dark correction enabled: true
Nonlinearity correction enabled: false
Boxcar width: 5
Stray light correction enabled: false
XAxis mode: Wavelengths
Stop averaging: false
Number of Pixels in Spectrum: 3648
>>>>>Begin Spectral Data<<<<<
177.566	-25.91
177.785	-215.13
178.005	26.16
178.225	-351.54
178.445	31.43
178.665	3.56
178.885	264.31
179.105	-79.42
179.324	-50.38
179.544	-23.07
179.764	16.69
179.984	12.82
180.204	29.41
180.423	68.06
180.643	73.17
180.863	51.88
181.083	53.81
181.302	48.88
181.522	39.7
181.742	54.37
181.961	54.36
182.181	52.3
182.401	67.48
182.621	70.29
182.84	57.99
183.06	53.38
183.279	50.54
183.499	55.72
183.719	68.04
183.938	95.31
184.158	80.92
184.377	92.95
184.597	107.35
184.816	121.6
185.036	92.25
185.256	84.24
185.475	117.3
185.695	138.46
185.914	85.46
186.134	96.21
186.353	77.4
186.572	56.91
186.792	21.62
187.011	11.01
187.231	-15.48
187.45	-10.86
187.67	-28.79
187.889	-46.47
188.108	-9.12
188.328	14.42
188.547	0.35
188.766	-10.53
188.986	-29.92
189.205	-13.92
189.424	-3.61
189.644	1.61
189.863	1.44
190.082	40.14
190.302	51.64
190.521	51.12
190.74	53.65
190.959	60.71
191.178	61.87
191.398	57.36
191.617	75.03
191.836	77.97
192.055	79.33
192.274	69.98
192.494	48.26
192.713	56.9
192.932	53.67
193.151	36.54
193.37	42.88
193.589	59.7
193.808	77.53
194.027	69.01
194.246	69.44
194.465	50.74
194.685	61.53
194.904	70.94
195.123	58.92
195.342	75.12
195.561	91.54
195.78	94.72
195.999	93.26
196.218	71.85
196.436	69.52
196.655	60.95
196.874	74.96
197.093	83.58
197.312	92.65
197.531	90.32
197.75	76.24
197.969	80.78
198.188	50.91
198.407	40.75
198.625	61.75
198.844	56.85
199.063	60.51
199.282	32.98
199.501	26.5
199.719	-23.56
199.938	-18.84
200.157	-29.15
200.376	20.91
200.594	48.31
200.813	49.21
201.032	23.47
201.251	22.81
201.469	21.01
201.688	51.78
201.907	49.82
202.125	53.95
202.344	53.11
202.563	52.25
202.781	50.71
203	43.78
203.218	49.56
203.437	55.83
203.656	50.04
203.874	49.75
204.093	40.37
204.311	48.17
204.53	39.88
204.748	65.99
204.967	71.12
205.185	69.6
205.404	102.46
205.622	93.54
205.841	83.32
206.059	76.93
206.278	105.12
206.496	114.56
206.715	94.15
206.933	100.32
207.151	88.63
207.37	68.39
207.588	55.47
207.806	31.7
208.025	51.77
208.243	51.08
208.461	62.63
208.68	50.33
208.898	48.98
209.116	44.2
209.335	35.69
209.553	17.76
209.771	29.98
209.989	39.77
210.208	44.93
210.426	16.35
210.644	15.25
210.862	10.64
211.081	39.49
211.299	58.11
211.517	80.88
211.735	59.52
211.953	98.01
212.171	100.7
212.39	100.07
212.608	116.06
212.826	116.03
213.044	128.03
213.262	135.82
213.48	132.14
213.698	117.83
213.916	127.82
214.134	120.39
214.352	119.25
214.57	94.81
214.788	112.53
215.006	94.2
215.224	53.57
215.442	20.94
215.66	-6.57
215.878	29.83
216.096	43.82
216.314	34.74
216.532	41.53
216.75	49.9
216.968	56.5
217.185	57.14
217.403	60.02
217.621	64.07
217.839	64.04
218.057	58.8
218.275	61.34
218.492	65.63
218.71	64.72
218.928	75.88
219.146	64.22
219.363	65.62
219.581	90.37
219.799	88.37
220.017	117.95
220.234	112.04
220.452	95.69
220.67	90.69
220.887	81.11
221.105	88.26
221.323	74.97
221.54	89.56
221.758	66.62
221.976	46.1
222.193	39.06
222.411	33.01
222.629	32.87
222.846	44.65
223.064	28.74
223.281	33.78
223.499	35.82
223.716	41.12
223.934	41.65
224.151	42.62
224.369	41.79
224.586	51.06
224.804	47.05
225.021	46.6
225.239	38.44
225.456	48.37
225.674	44.04
225.891	46.01
226.108	44.17
226.326	34.15
226.543	41.17
226.76	42.04
226.978	35.38
227.195	35.62
227.413	30.93
227.63	36.89
227.847	33.08
228.064	28.07
228.282	18.66
228.499	18.33
228.716	18.9
228.934	16.77
229.151	12.12
229.368	10.67
229.585	10.5
229.802	9.54
230.02	5.67
230.237	6.43
230.454	8.69
230.671	11.9
230.888	10.31
231.105	12.65
231.323	15.57
231.54	21.78
231.757	21.65
231.974	20.71
232.191	21.43
232.408	24.02
232.625	19.88
232.842	20.92
233.059	24.83
233.276	28.64
233.493	27.75
233.71	25.24
233.927	26.1
234.144	24.46
234.361	27.52
234.578	27.93
234.795	26
235.012	29.75
235.229	26.86
235.446	25.68
235.663	23.52
235.879	22.01
236.096	21.23
236.313	17.71
236.53	25.05
236.747	24.56
236.964	26.2
237.181	26.11
237.397	22.62
237.614	24.67
237.831	17.88
238.048	18.91
238.264	17.16
238.481	16.98
238.698	16.58
238.915	15.89
239.131	15.5
239.348	15.81
239.565	20.25
239.781	21.17
239.998	23.28
240.215	28.26
240.431	27.61
240.648	30.47
240.865	28.15
241.081	29.75
241.298	29.15
241.514	25.34
241.731	25.77
241.947	21.29
242.164	21.12
242.38	18.36
242.597	17.09
242.814	17.08
243.03	17.29
243.246	17.85
243.463	16.62
243.679	16.48
243.896	19.02
244.112	17.77
244.329	20.5
244.545	19.75
244.762	20.13
244.978	21.13
245.194	20.55
245.411	17.22
245.627	16.77
245.843	16.4
246.06	15.37
246.276	13.67
246.492	13.46
246.709	12.88
246.925	13.45
247.141	13.46
247.357	12.18
247.574	11.78
247.79	12.08
248.006	12.16
248.222	12.72
248.439	12.58
248.655	13.08
248.871	12.89
249.087	12.44
249.303	12.89
249.519	13.38
249.736	14.5
249.952	15.71
250.168	16.24
250.384	15.42
250.6	13.97
250.816	15.22
251.032	14.21
251.248	16.29
251.464	15.33
251.68	15.02
251.896	15.17
252.112	16.26
252.328	14.19
252.544	15.02
252.76	17.12
252.976	18.97
253.192	18.32
253.408	20.07
253.624	19.79
253.84	19.94
254.056	19.12
254.272	22.18
254.487	21.65
254.703	22.88
254.919	21.32
255.135	17.6
255.351	15.8
255.567	17.34
255.782	14.47
255.998	12.84
256.214	14.06
256.43	14.12
256.646	10.25
256.861	9.12
257.077	10.12
257.293	9.95
257.508	9.82
257.724	10.19
257.94	10.66
258.155	10.88
258.371	10.37
258.587	11.12
258.802	11.45
259.018	12.16
259.234	11.32
259.449	11.25
259.665	11.57
259.88	12.81
260.096	12.76
260.312	11.86
260.527	11.98
260.743	11.74
260.958	10.84
261.174	10.63
261.389	10.45
261.605	11.48
261.82	12.98
262.036	14.03
262.251	14.49
262.466	15.65
262.682	15.94
262.897	15.37
263.113	17
263.328	18.68
263.543	18.31
263.759	17.34
263.974	18.03
264.189	16.07
264.405	14.33
264.62	13.02
264.835	10.64
265.051	12.15
265.266	14.48
265.481	14.23
265.696	15.6
265.912	15.96
266.127	15.98
266.342	16.35
266.557	15.83
266.773	15.86
266.988	15.72
267.203	15.4
267.418	14.61
267.633	14.61
267.848	14.22
268.064	12.44
268.279	12.85
268.494	12.58
268.709	12.73
268.924	13.14
269.139	13.01
269.354	12.53
269.569	11.96
269.784	13.14
269.999	11.95
270.214	11.88
270.429	12.6
270.644	11.5
270.859	12.5
271.074	11.7
271.289	11.82
271.504	11.29
271.719	11.64
271.934	11.54
272.149	10.62
272.363	11.57
272.578	12.41
272.793	11.95
273.008	11.6
273.223	11.11
273.438	10.19
273.653	10.82
273.867	11.09
274.082	10.92
274.297	12.39
274.512	11.76
274.726	9.42
274.941	9.95
275.156	9.87
275.371	11.73
275.585	10.7
275.8	11.57
276.015	10.04
276.229	10.79
276.444	10.82
276.659	10.43
276.873	12.26
277.088	14.89
277.302	13.67
277.517	14.1
277.732	15.05
277.946	16.3
278.161	17.58
278.375	17.41
278.59	18.5
278.804	18.05
279.019	17.95
279.233	16.9
279.448	16.15
279.662	15.25
279.877	15
280.091	12.36
280.306	13.11
280.52	10.88
280.735	11.53
280.949	9.83
281.163	10.63
281.378	9.41
281.592	9.53
281.806	10.43
282.021	10.76
282.235	10.39
282.449	11.46
282.664	10.81
282.878	9.96
283.092	10.86
283.307	11.18
283.521	10.92
283.735	11.71
283.949	12.25
284.164	12.69
284.378	13
284.592	13.14
284.806	13.18
285.02	12.72
285.234	14.26
285.449	13.33
285.663	13.3
285.877	13.25
286.091	13.33
286.305	13.26
286.519	11.85
286.733	11.93
286.947	11.83
287.161	11.84
287.375	12.25
287.589	12.49
287.803	11.64
288.017	11.15
288.231	11.1
288.445	11.02
288.659	10.56
288.873	11.52
289.087	10.96
289.301	11.43
289.515	12.2
289.729	11.73
289.943	11.21
290.157	12.11
290.371	11.93
290.584	12.36
290.798	12.98
291.012	13.6
291.226	13.2
291.44	13.62
291.654	13.64
291.867	12.72
292.081	12.54
292.295	13.02
292.509	12.58
292.722	12.92
292.936	12.06
293.15	12.38
293.364	11.55
293.577	12.63
293.791	13.3
294.005	12.59
294.218	13.37
294.432	14.53
294.645	14.36
294.859	13.32
295.073	12.66
295.286	13.01
295.5	11.36
295.713	10.44
295.927	8.89
296.14	8.36
296.354	8.6
296.568	8.07
296.781	7.66
296.994	7.26
297.208	8.82
297.421	9.26
297.635	9.37
297.848	9.82
298.062	10.82
298.275	11.66
298.489	11.45
298.702	11.56
298.915	11.91
299.129	13.36
299.342	14.19
299.555	14.71
299.769	15.38
299.982	15.77
300.195	16.4
300.409	15.87
300.622	15.6
300.835	16.27
301.048	16.32
301.262	16.38
301.475	14.9
301.688	14.29
301.901	12.99
302.115	12.79
302.328	12.35
302.541	12.4
302.754	12.06
302.967	11.69
303.18	12.06
303.393	11.93
303.607	10.97
303.82	11.07
304.033	11
304.246	10.77
304.459	10.92
304.672	10.59
304.885	10.15
305.098	10.33
305.311	11.41
305.524	10.25
305.737	11.12
305.95	11.94
306.163	12.94
306.376	13.44
306.589	14.13
306.802	13.7
307.015	14.98
307.228	14.88
307.44	15.73
307.653	14.59
307.866	14.7
308.079	13.97
308.292	14.32
308.505	13.18
308.718	12.82
308.93	13.19
309.143	13.07
309.356	12.42
309.569	12.89
309.781	12.47
309.994	13.21
310.207	12.99
310.42	12.78
310.632	12.96
310.845	12.97
311.058	12.29
311.27	12.26
311.483	12.1
311.696	11.98
311.908	12.45
312.121	12.46
312.333	12.25
312.546	12.7
312.759	13.27
312.971	12.46
313.184	11.89
313.396	12.16
313.609	12.48
313.821	13.19
314.034	13.47
314.246	12.27
314.459	12.55
314.671	11.66
314.884	11.68
315.096	11.57
315.309	10.99
315.521	11.33
315.733	11.91
315.946	10.89
316.158	10.28
316.371	9.57
316.583	10.01
316.795	9.01
317.008	9.73
317.22	9.75
317.432	9.71
317.644	9.44
317.857	9.12
318.069	9.46
318.281	8.89
318.494	10.05
318.706	11.37
318.918	11.18
319.13	13.07
319.342	12.7
319.555	12.01
319.767	12.18
319.979	12.5
320.191	13.26
320.403	14.49
320.615	14.88
320.827	14.43
321.039	12.83
321.252	13.34
321.464	11.91
321.676	11.7
321.888	11.98
322.1	11.56
322.312	11.76
322.524	12.27
322.736	10.53
322.948	10.48
323.16	9.64
323.372	10.16
323.584	10.11
323.796	11.01
324.007	11.36
324.219	12.16
324.431	12
324.643	13.2
324.855	13.11
325.067	13.44
325.279	14.12
325.491	15.01
325.702	14.55
325.914	14.69
326.126	13.79
326.338	12.56
326.55	12.61
326.761	13.1
326.973	12.54
327.185	11.79
327.396	12
327.608	11.6
327.82	11.3
328.032	12.38
328.243	12.97
328.455	14.11
328.666	15.69
328.878	14.25
329.09	13.93
329.301	13.61
329.513	13.88
329.725	12.9
329.936	13.64
330.148	13.54
330.359	11.5
330.571	10.23
330.782	9.12
330.994	8.67
331.205	9.82
331.417	10.27
331.628	10.53
331.84	10.15
332.051	11.47
332.262	11.24
332.474	11.64
332.685	13.16
332.897	13.28
333.108	14.42
333.319	15
333.531	15.69
333.742	16.19
333.953	15.47
334.165	15.28
334.376	15.66
334.587	15.49
334.799	16.33
335.01	16.52
335.221	16.87
335.432	16.7
335.644	16.41
335.855	15.36
336.066	14.85
336.277	15.94
336.488	16.58
336.7	15.48
336.911	15.36
337.122	14.29
337.333	13.94
337.544	13.94
337.755	13.3
337.966	13.37
338.177	13.28
338.388	12.79
338.599	12.42
338.811	11.19
339.022	10.66
339.233	11.06
339.444	11.25
339.655	11.3
339.866	10.83
340.076	10.88
340.287	11.17
340.498	10.95
340.709	11.67
340.92	11.82
341.131	12.53
341.342	13.67
341.553	12.74
341.764	12.1
341.975	12.11
342.185	12.15
342.396	11.91
342.607	11.58
342.818	11.62
343.029	11.5
343.239	11.04
343.45	10.98
343.661	10.19
343.872	9.99
344.082	9.76
344.293	9.92
344.504	9.85
344.714	10.34
344.925	10.19
345.136	11.38
345.346	11.34
345.557	11.23
345.768	10.83
345.978	11.16
346.189	12.41
346.399	12.9
346.61	12.71
346.821	12.68
347.031	12.75
347.242	12.67
347.452	11.56
347.663	11.45
347.873	11.79
348.084	12.74
348.294	13.18
348.504	12.42
348.715	12.01
348.925	11.96
349.136	12.05
349.346	11.48
349.557	11.4
349.767	11.91
349.977	11.53
350.188	11.18
350.398	10.65
350.608	10.4
350.819	10.23
351.029	10.34
351.239	9.94
351.449	10.76
351.66	10.25
351.87	11.04
352.08	11.27
352.29	11.39
352.501	12.07
352.711	12.9
352.921	12.8
353.131	13.32
353.341	13.61
353.552	13.74
353.762	12.67
353.972	13.38
354.182	12.39
354.392	12.12
354.602	12.23
354.812	11.76
355.022	10.98
355.232	10.93
355.442	10.89
355.652	10.35
355.862	10.64
356.072	10.44
356.282	10.34
356.492	10.99
356.702	10.95
356.912	11.11
357.122	11.11
357.332	11.31
357.542	11.5
357.752	10.87
357.962	11.21
358.171	10.87
358.381	11.06
358.591	10.49
358.801	10.17
359.011	9.31
359.221	9.53
359.43	9.79
359.64	9.35
359.85	9.1
360.06	9.53
360.269	9.91
360.479	10.04
360.689	10.28
360.899	10.71
361.108	10.95
361.318	11.21
361.528	10.63
361.737	9.88
361.947	10.21
362.156	9.9
362.366	9.88
362.576	9.48
362.785	9.97
362.995	10.01
363.204	9.96
363.414	9.41
363.623	9.77
363.833	9.94
364.042	10.17
364.252	10.32
364.461	10.76
364.671	10.93
364.88	11.03
365.09	10.37
365.299	10.28
365.509	10.18
365.718	10.86
365.927	10.39
366.137	10.37
366.346	10.87
366.555	10.66
366.765	10.35
366.974	10.2
367.183	10.41
367.393	11
367.602	11.35
367.811	11.4
368.021	11.02
368.23	11.09
368.439	11.25
368.648	11.17
368.857	10.89
369.067	10.66
369.276	10.61
369.485	10.46
369.694	10.44
369.903	9.71
370.112	10.13
370.321	10.28
370.531	10.73
370.74	10.49
370.949	10.19
371.158	9.99
371.367	9.96
371.576	9.67
371.785	10.08
371.994	9.78
372.203	9.62
372.412	9.67
372.621	9.76
372.83	8.78
373.039	8.76
373.248	8.94
373.457	9.13
373.666	9.71
373.874	9.49
374.083	8.59
374.292	7.91
374.501	8.74
374.71	8.26
374.919	8.36
375.128	9.11
375.336	9.1
375.545	8.78
375.754	8.98
375.963	8.67
376.171	9.15
376.38	9.1
376.589	9.64
376.798	8.96
377.006	8.88
377.215	8.55
377.424	8.77
377.632	8.53
377.841	8.4
378.05	8.07
378.258	7.95
378.467	8.09
378.675	8.66
378.884	8.43
379.093	8.3
379.301	7.95
379.51	8.23
379.718	8.08
379.927	8.23
380.135	8.28
380.344	8.35
380.552	8.4
380.761	7.77
380.969	7.1
381.177	7.13
381.386	7.04
381.594	7.06
381.803	6.5
382.011	6.09
382.219	6.03
382.428	6.15
382.636	6.34
382.845	6.57
383.053	6.66
383.261	6.77
383.469	6.8
383.678	6.76
383.886	6.81
384.094	6.81
384.302	7.06
384.511	7.2
384.719	7.08
384.927	7.17
385.135	6.64
385.343	7.09
385.552	7.53
385.76	7.57
385.968	7.64
386.176	8.13
386.384	8.15
386.592	8.16
386.8	8.42
387.008	8.5
387.216	8.34
387.424	8.72
387.633	8.27
387.841	8.18
388.049	7.75
388.257	8.04
388.465	7.71
388.672	7.81
388.88	7.83
389.088	7.45
389.296	6.78
389.504	6.38
389.712	6
389.92	6.25
390.128	5.66
390.336	5.86
390.544	5.88
390.751	6.09
390.959	6
391.167	5.95
391.375	5.81
391.583	6.58
391.79	6.6
391.998	7.07
392.206	6.79
392.414	6.98
392.621	6.71
392.829	6.63
393.037	6.48
393.244	6.32
393.452	6.12
393.66	5.86
393.867	5.77
394.075	6.03
394.283	5.67
394.49	5.89
394.698	5.91
394.905	6.21
395.113	5.87
395.32	5.7
395.528	5.89
395.735	5.96
395.943	6.28
396.15	6.09
396.358	5.85
396.565	6.34
396.773	6.11
396.98	6.18
397.188	6.09
397.395	6.24
397.602	6.34
397.81	6.5
398.017	6.13
398.225	5.77
398.432	5.89
398.639	6.22
398.847	5.56
399.054	5.56
399.261	5.54
399.468	5.79
399.676	5.89
399.883	5.9
400.09	5.27
400.297	5.25
400.505	5.19
400.712	5.12
400.919	4.72
401.126	4.99
401.333	4.91
401.54	4.49
401.748	4.25
401.955	4.14
402.162	4.09
402.369	4.53
402.576	5.01
402.783	5.25
402.99	5.16
403.197	5.1
403.404	5.02
403.611	5.33
403.818	5.34
404.025	5.2
404.232	5.09
404.439	4.89
404.646	4.72
404.853	4.48
405.06	4.62
405.267	4.38
405.474	4.12
405.681	3.78
405.887	3.73
406.094	4.07
406.301	4.23
406.508	4.36
406.715	4.45
406.922	4.51
407.128	4.72
407.335	4.51
407.542	4.82
407.749	5.17
407.955	5.55
408.162	5.25
408.369	5
408.575	4.85
408.782	5.13
408.989	5.36
409.195	5.26
409.402	5.03
409.609	5.02
409.815	5.13
410.022	4.94
410.228	4.9
410.435	5.15
410.642	5.02
410.848	4.87
411.055	4.88
411.261	4.84
411.468	4.89
411.674	4.99
411.881	5.02
412.087	4.56
412.294	4.8
412.5	5.07
412.706	5.02
412.913	4.96
413.119	4.84
413.326	4.48
413.532	4.31
413.738	4.26
413.945	3.88
414.151	3.78
414.357	4
414.564	3.69
414.77	3.39
414.976	3.31
415.182	3.67
415.389	3.76
415.595	3.86
415.801	3.84
416.007	3.82
416.214	3.77
416.42	3.86
416.626	3.88
416.832	3.96
417.038	3.96
417.244	4.02
417.45	4
417.657	4.22
417.863	4.31
418.069	4.27
418.275	4.36
418.481	4.58
418.687	4.68
418.893	4.69
419.099	4.83
419.305	4.68
419.511	4.57
419.717	4.61
419.923	4.52
420.129	4.35
420.335	4.44
420.541	4.5
420.746	4.37
420.952	4.15
421.158	3.96
421.364	3.87
421.57	3.93
421.776	3.97
421.982	3.87
422.187	3.76
422.393	3.71
422.599	3.57
422.805	3.42
423.01	3.51
423.216	3.63
423.422	3.78
423.628	3.79
423.833	3.79
424.039	3.76
424.245	3.76
424.45	4.04
424.656	4.2
424.862	4.28
425.067	4.42
425.273	4.43
425.478	4.42
425.684	4.46
425.889	4.57
426.095	4.71
426.301	4.7
426.506	4.84
426.712	4.48
426.917	4.27
427.123	4.12
427.328	3.86
427.533	3.64
427.739	3.64
427.944	3.68
428.15	3.54
428.355	3.4
428.561	3.44
428.766	3.34
428.971	3.74
429.177	3.84
429.382	3.97
429.587	4.07
429.793	4.42
429.998	4.29
430.203	3.85
430.408	3.78
430.614	3.89
430.819	3.95
431.024	4.01
431.229	3.91
431.434	3.88
431.64	4.16
431.845	4.1
432.05	4.08
432.255	4.13
432.46	4.43
432.665	4.34
432.87	4.33
433.076	4.36
433.281	4.37
433.486	4.18
433.691	4.26
433.896	4.04
434.101	4.13
434.306	4.16
434.511	4.17
434.716	4.21
434.921	4.55
435.126	4.44
435.331	4.18
435.535	3.89
435.74	4
435.945	3.95
436.15	4.27
436.355	4.43
436.56	4.42
436.765	4.23
436.97	4.22
437.174	3.99
437.379	3.99
437.584	4.15
437.789	4.37
437.993	4.4
438.198	4.41
438.403	4.14
438.608	3.98
438.812	3.9
439.017	4.16
439.222	4.06
439.426	4.11
439.631	4.1
439.836	4.16
440.04	3.94
440.245	3.79
440.45	3.53
440.654	3.62
440.859	3.64
441.063	3.65
441.268	3.58
441.472	3.61
441.677	3.57
441.881	3.76
442.086	3.78
442.29	3.95
442.495	4.06
442.699	4.45
442.904	4.26
443.108	4.23
443.312	4.13
443.517	4.09
443.721	3.99
443.925	3.87
444.13	3.77
444.334	3.6
444.538	3.52
444.743	3.42
444.947	3.21
445.151	3.3
445.356	3.24
445.56	3.35
445.764	3.52
445.968	3.62
446.173	3.6
446.377	3.54
446.581	3.65
446.785	3.67
446.989	3.68
447.193	3.82
447.398	3.8
447.602	3.74
447.806	3.7
448.01	3.66
448.214	3.61
448.418	3.68
448.622	3.64
448.826	3.53
449.03	3.62
449.234	3.64
449.438	3.7
449.642	3.72
449.846	4.01
450.05	4.14
450.254	3.9
450.458	4.1
450.662	4.23
450.866	4.24
451.069	4.26
451.273	4.15
451.477	3.97
451.681	3.84
451.885	3.84
452.089	3.68
452.292	3.6
452.496	3.73
452.7	3.65
452.904	3.46
453.107	3.51
453.311	3.47
453.515	3.39
453.719	3.9
453.922	3.74
454.126	3.88
454.33	3.93
454.533	3.98
454.737	4.04
454.94	3.93
455.144	4.02
455.348	4.09
455.551	4.21
455.755	4.18
455.958	3.97
456.162	4.1
456.365	4.12
456.569	4.23
456.772	4.29
456.976	4.08
457.179	4.05
457.383	3.99
457.586	3.84
457.79	3.87
457.993	3.91
458.196	3.84
458.4	3.73
458.603	3.61
458.807	3.45
459.01	3.38
459.213	3.55
459.417	3.62
459.62	3.69
459.823	3.68
460.026	3.58
460.23	3.6
460.433	3.67
460.636	3.75
460.839	3.75
461.042	3.86
461.246	3.88
461.449	3.72
461.652	3.57
461.855	3.57
462.058	3.64
462.261	3.63
462.464	3.62
462.668	3.47
462.871	3.51
463.074	3.28
463.277	3.18
463.48	3.33
463.683	3.5
463.886	3.62
464.089	3.75
464.292	3.87
464.495	3.85
464.698	3.84
464.901	3.89
465.104	3.96
465.306	4.14
465.509	4.07
465.712	3.87
465.915	3.8
466.118	3.92
466.321	3.8
466.524	3.66
466.726	3.68
466.929	3.79
467.132	3.6
467.335	3.56
467.538	3.62
467.74	3.7
467.943	3.82
468.146	3.94
468.348	3.93
468.551	3.9
468.754	4.02
468.956	4.17
469.159	4.18
469.362	4.33
469.564	4.29
469.767	4.27
469.969	4.27
470.172	4.06
470.375	4.02
470.577	3.93
470.78	3.99
470.982	3.88
471.185	3.89
471.387	3.82
471.59	3.85
471.792	3.74
471.995	3.66
472.197	3.83
472.399	3.87
472.602	3.82
472.804	3.85
473.007	3.88
473.209	3.9
473.411	3.84
473.614	3.8
473.816	3.69
474.018	3.71
474.22	3.83
474.423	3.7
474.625	3.64
474.827	3.82
475.03	3.88
475.232	3.8
475.434	3.59
475.636	3.49
475.838	3.56
476.04	3.4
476.243	3.54
476.445	3.44
476.647	3.47
476.849	3.76
477.051	3.51
477.253	3.23
477.455	3.13
477.657	3.26
477.859	3.27
478.061	3.29
478.263	3.43
478.465	3.46
478.667	3.42
478.869	3.37
479.071	3.13
479.273	3.24
479.475	3.44
479.677	3.67
479.879	3.7
480.081	3.82
480.283	3.76
480.485	3.87
480.686	3.64
480.888	3.77
481.09	3.91
481.292	4.05
481.494	3.96
481.695	3.86
481.897	3.74
482.099	3.68
482.301	3.62
482.502	3.6
482.704	3.55
482.906	3.54
483.107	3.45
483.309	3.33
483.511	3.3
483.712	3.32
483.914	3.35
484.115	3.34
484.317	3.31
484.519	3.33
484.72	3.37
484.922	3.32
485.123	3.4
485.325	3.43
485.526	3.45
485.728	3.47
485.929	3.46
486.131	3.49
486.332	3.51
486.534	3.54
486.735	3.48
486.936	3.42
487.138	3.49
487.339	3.47
487.541	3.53
487.742	3.59
487.943	3.5
488.144	3.54
488.346	3.5
488.547	3.54
488.748	3.51
488.95	3.55
489.151	3.49
489.352	3.5
489.553	3.47
489.755	3.42
489.956	3.39
490.157	3.45
490.358	3.45
490.559	3.38
490.76	3.25
490.961	3.34
491.163	3.37
491.364	3.45
491.565	3.44
491.766	3.48
491.967	3.55
492.168	3.51
492.369	3.52
492.57	3.48
492.771	3.5
492.972	3.63
493.173	3.56
493.374	3.51
493.575	3.49
493.776	3.38
493.976	3.4
494.177	3.26
494.378	3.45
494.579	3.4
494.78	3.47
494.981	3.44
495.182	3.34
495.382	3.67
495.583	3.73
495.784	3.87
495.985	4.02
496.185	4.02
496.386	4.03
496.587	3.83
496.788	3.94
496.988	3.9
497.189	3.96
497.39	4.12
497.59	3.99
497.791	4.06
497.992	3.95
498.192	3.98
498.393	3.74
498.593	3.87
498.794	3.82
498.994	3.75
499.195	3.82
499.395	4.05
499.596	4.01
499.796	3.9
499.997	3.94
500.197	3.97
500.398	3.92
500.598	4.08
500.799	4.06
500.999	4.16
501.199	4.26
501.4	4.3
501.6	4.17
501.801	4.02
502.001	3.96
502.201	3.84
502.402	3.81
502.602	3.77
502.802	3.87
503.002	3.8
503.203	3.89
503.403	3.77
503.603	3.84
503.803	3.98
504.003	4.07
504.204	4.29
504.404	4.55
504.604	4.54
504.804	4.88
505.004	5.04
505.204	5.1
505.404	4.95
505.604	4.97
505.804	5.02
506.005	4.97
506.205	5.08
506.405	5
506.605	4.82
506.805	5.03
507.005	4.83
507.204	4.64
507.404	4.67
507.604	4.85
507.804	5.07
508.004	5.06
508.204	5.04
508.404	5.08
508.604	5.13
508.804	5.17
509.003	5.19
509.203	5.2
509.403	5.28
509.603	5.44
509.803	5.47
510.002	5.34
510.202	5.34
510.402	5.45
510.602	5.57
510.801	5.61
511.001	5.77
511.201	5.72
511.4	5.85
511.6	6.05
511.8	6.02
511.999	6.14
512.199	6.26
512.398	6.36
512.598	6.42
512.797	6.41
512.997	6.66
513.197	6.58
513.396	6.79
513.596	6.76
513.795	6.74
513.994	6.85
514.194	6.9
514.393	6.94
514.593	6.97
514.792	7.05
514.992	7.14
515.191	7.14
515.39	7.32
515.59	7.42
515.789	7.67
515.988	7.75
516.188	7.78
516.387	7.87
516.586	8.08
516.786	8.1
516.985	8.24
517.184	8.27
517.383	8.31
517.582	8.44
517.782	8.37
517.981	8.32
518.18	8.17
518.379	8.36
518.578	8.39
518.777	8.26
518.976	8.45
519.176	8.42
519.375	8.52
519.574	8.61
519.773	8.73
519.972	8.81
520.171	8.92
520.37	9.26
520.569	9.21
520.768	9.25
520.967	9.56
521.166	9.57
521.365	9.75
521.564	9.92
521.762	9.91
521.961	9.81
522.16	9.92
522.359	9.78
522.558	9.74
522.757	9.68
522.956	9.8
523.154	9.76
523.353	9.74
523.552	9.79
523.751	9.75
523.949	9.9
524.148	9.97
524.347	10.07
524.546	10.45
524.744	10.46
524.943	10.69
525.142	10.71
525.34	10.75
525.539	10.87
525.737	10.99
525.936	10.99
526.135	11.18
526.333	11.32
526.532	11.38
526.73	11.34
526.929	11.49
527.127	11.55
527.326	11.69
527.524	11.86
527.723	11.92
527.921	11.98
528.12	12.06
528.318	12.09
528.516	12.11
528.715	12.15
528.913	12.26
529.112	12.29
529.31	12.28
529.508	12.26
529.707	12.22
529.905	12.23
530.103	12.21
530.301	12.2
530.5	12.18
530.698	12.29
530.896	12.44
531.094	12.45
531.293	12.54
531.491	12.74
531.689	12.88
531.887	12.97
532.085	13.2
532.283	13.2
532.481	13.45
532.68	13.43
532.878	13.44
533.076	13.46
533.274	13.43
533.472	13.47
533.67	13.45
533.868	13.54
534.066	13.63
534.264	13.58
534.462	13.74
534.66	13.69
534.858	13.83
535.056	13.9
535.253	13.93
535.451	14.09
535.649	14.21
535.847	14.36
536.045	14.48
536.243	14.5
536.441	14.61
536.638	14.58
536.836	14.73
537.034	14.73
537.232	14.73
537.43	14.76
537.627	14.78
537.825	14.82
538.023	14.82
538.22	14.79
538.418	14.9
538.616	14.85
538.813	15.1
539.011	15.07
539.209	15.24
539.406	15.43
539.604	15.63
539.801	15.73
539.999	15.81
540.196	15.87
540.394	15.95
540.591	15.95
540.789	16.1
540.986	16.01
541.184	16.01
541.381	15.99
541.579	16.05
541.776	15.96
541.974	15.96
542.171	16
542.368	16.1
542.566	16.1
542.763	16.22
542.96	16.23
543.158	16.29
543.355	16.35
543.552	16.5
543.75	16.57
543.947	16.58
544.144	16.65
544.341	16.74
544.539	16.78
544.736	16.75
544.933	16.81
545.13	16.89
545.327	17.05
545.524	17.14
545.722	17.17
545.919	17.08
546.116	17.16
546.313	17.26
546.51	17.31
546.707	17.27
546.904	17.5
547.101	17.59
547.298	17.73
547.495	17.64
547.692	17.71
547.889	17.73
548.086	17.98
548.283	18.1
548.48	18.3
548.677	18.37
548.874	18.41
549.07	18.32
549.267	18.41
549.464	18.39
549.661	18.76
549.858	18.79
550.055	18.91
550.251	18.82
550.448	19.03
550.645	18.96
550.842	18.68
551.038	18.84
551.235	19.05
551.432	19.01
551.628	19.18
551.825	19.08
552.022	19.26
552.218	19.33
552.415	19.36
552.612	19.31
552.808	19.39
553.005	19.81
553.201	19.89
553.398	19.93
553.594	19.97
553.791	19.98
553.987	19.89
554.184	19.74
554.38	19.77
554.577	19.92
554.773	20.19
554.97	20.24
555.166	20.22
555.362	20.25
555.559	20.41
555.755	20.35
555.952	20.55
556.148	20.8
556.344	21
556.541	20.93
556.737	20.9
556.933	20.83
557.129	20.87
557.326	20.93
557.522	21.02
557.718	21.06
557.914	21.27
558.11	21.26
558.307	21.42
558.503	21.46
558.699	21.76
558.895	21.91
559.091	21.94
559.287	22.04
559.483	22.03
559.679	22.35
559.876	22.34
560.072	22.27
560.268	22.08
560.464	21.87
560.66	21.94
560.856	21.89
561.052	21.81
561.247	21.89
561.443	21.85
561.639	21.99
561.835	21.83
562.031	21.8
562.227	21.82
562.423	22
562.619	22.12
562.815	22.25
563.01	22.44
563.206	22.67
563.402	22.7
563.598	22.8
563.793	22.5
563.989	22.47
564.185	22.63
564.381	22.81
564.576	22.85
564.772	22.95
564.968	23.06
565.163	22.97
565.359	22.84
565.555	22.99
565.75	22.8
565.946	23.09
566.141	23.14
566.337	23.07
566.532	23.21
566.728	23.26
566.923	23.37
567.119	23.16
567.314	23.31
567.51	23.38
567.705	23.32
567.901	23.47
568.096	23.48
568.292	23.44
568.487	23.4
568.682	23.48
568.878	23.5
569.073	23.45
569.268	23.6
569.464	23.58
569.659	23.7
569.854	23.64
570.05	23.79
570.245	24.06
570.44	24.23
570.635	24.4
570.831	24.52
571.026	24.58
571.221	24.74
571.416	24.9
571.611	24.93
571.806	25.02
572.002	25.2
572.197	25.16
572.392	24.99
572.587	24.95
572.782	24.9
572.977	24.93
573.172	24.89
573.367	24.88
573.562	24.69
573.757	24.65
573.952	24.49
574.147	24.53
574.342	24.73
574.537	24.78
574.732	24.97
574.927	25.16
575.121	25.15
575.316	25.25
575.511	25.09
575.706	25.23
575.901	25.19
576.096	25.25
576.29	25.16
576.485	25.1
576.68	25.01
576.875	25.06
577.069	24.81
577.264	24.68
577.459	24.73
577.654	24.92
577.848	25.02
578.043	25.27
578.238	25.51
578.432	25.6
578.627	25.58
578.821	25.93
579.016	25.98
579.21	26.01
579.405	25.84
579.6	25.97
579.794	25.87
579.989	25.84
580.183	25.65
580.378	25.56
580.572	25.44
580.766	25.73
580.961	25.83
581.155	25.74
581.35	25.99
581.544	26.16
581.738	26.07
581.933	26.44
582.127	26.37
582.321	26.52
582.516	26.51
582.71	26.89
582.904	26.5
583.099	26.07
583.293	26.26
583.487	26.44
583.681	26.56
583.875	26.48
584.07	26.29
584.264	26.69
584.458	26.63
584.652	26.7
584.846	26.39
585.04	26.57
585.234	26.81
585.428	26.88
585.623	26.88
585.817	27.03
586.011	27
586.205	26.76
586.399	26.55
586.593	26.8
586.787	26.69
586.981	26.95
587.174	26.86
587.368	27.04
587.562	27.01
587.756	27.13
587.95	26.76
588.144	27.39
588.338	27.48
588.532	27.71
588.725	27.71
588.919	27.9
589.113	28.01
589.307	28.13
589.501	28.13
589.694	28.03
589.888	28.16
590.082	28.59
590.275	28.39
590.469	28.61
590.663	28.38
590.856	28.4
591.05	28.37
591.244	28.57
591.437	28.68
591.631	28.88
591.824	28.75
592.018	28.64
592.212	28.48
592.405	28.35
592.599	28.41
592.792	28.27
592.986	28.34
593.179	28.49
593.372	28.41
593.566	28.42
593.759	28.26
593.953	28.45
594.146	28.3
594.339	28.03
594.533	28.04
594.726	27.83
594.92	27.86
595.113	27.77
595.306	27.59
595.499	27.43
595.693	27.42
595.886	27.35
596.079	27.38
596.272	27.38
596.466	27.6
596.659	27.5
596.852	27.69
597.045	28.07
597.238	27.99
597.431	28.14
597.624	28.25
597.818	28.49
598.011	28.64
598.204	28.68
598.397	28.68
598.59	28.63
598.783	28.82
598.976	28.88
599.169	28.62
599.362	28.86
599.555	28.96
599.748	28.9
599.941	28.73
600.134	28.63
600.326	28.7
600.519	29.12
600.712	29.15
600.905	29.11
601.098	29.23
601.291	29.34
601.483	29.25
601.676	29.11
601.869	29.1
602.062	28.96
602.255	28.99
602.447	28.92
602.64	29.1
602.833	29.14
603.025	29.12
603.218	29.13
603.411	29.2
603.603	29.02
603.796	29.18
603.989	29.33
604.181	29.26
604.374	29.29
604.566	29.23
604.759	29.12
604.951	29.25
605.144	29.35
605.336	29.26
605.529	29.22
605.721	29.46
605.914	29.28
606.106	29.11
606.299	29.45
606.491	29.49
606.683	29.42
606.876	29.25
607.068	29.12
607.26	29.12
607.453	29.15
607.645	29.19
607.837	29.21
608.03	29.39
608.222	29.66
608.414	29.57
608.606	29.62
608.799	29.67
608.991	29.74
609.183	29.76
609.375	29.48
609.567	29.35
609.759	29.24
609.952	29.23
610.144	29.18
610.336	29
610.528	28.72
610.72	28.66
610.912	28.66
611.104	28.53
611.296	28.53
611.488	28.59
611.68	28.75
611.872	28.72
612.064	28.58
612.256	28.46
612.448	28.43
612.64	28.59
612.832	28.43
613.023	28.43
613.215	28.41
613.407	28.61
613.599	28.94
613.791	28.73
613.983	28.98
614.174	29.19
614.366	29.33
614.558	29.36
614.75	29.38
614.941	29.77
615.133	29.82
615.325	29.97
615.516	29.86
615.708	29.86
615.9	29.99
616.091	29.83
616.283	29.54
616.475	29.49
616.666	29.45
616.858	29.54
617.049	29.48
617.241	29.61
617.432	29.41
617.624	29.92
617.815	29.79
618.007	29.81
618.198	30.23
618.39	30.32
618.581	30.29
618.773	30.71
618.964	30.88
619.155	30.76
619.347	30.79
619.538	31.14
619.729	30.76
619.921	30.92
620.112	31.11
620.303	31
620.494	31.03
620.686	31.33
620.877	31.14
621.068	31.64
621.259	31.78
621.451	31.84
621.642	31.86
621.833	32.37
622.024	32.22
622.215	32.06
622.406	32.11
622.597	32.01
622.788	32.04
622.98	32.07
623.171	31.52
623.362	31.6
623.553	31.45
623.744	31.48
623.935	30.85
624.126	30.6
624.317	30.87
624.508	31
624.698	31.15
624.889	31.26
625.08	31.08
625.271	31.45
625.462	31.26
625.653	31.17
625.844	31.31
626.034	31.52
626.225	31.69
626.416	31.48
626.607	31.31
626.798	31.41
626.988	31.16
627.179	31.29
627.37	30.96
627.56	31.16
627.751	31.15
627.942	31
628.132	31.07
628.323	31.18
628.514	31.34
628.704	31.24
628.895	30.9
629.085	30.96
629.276	30.85
629.466	30.59
629.657	30.56
629.847	30.8
630.038	30.68
630.228	30.62
630.419	30.5
630.609	30.51
630.8	30.64
630.99	30.77
631.181	30.79
631.371	30.95
631.561	31.29
631.752	31.26
631.942	31.27
632.132	31.18
632.323	30.93
632.513	31.42
632.703	31.5
632.893	31.32
633.084	31.21
633.274	31.33
633.464	31.18
633.654	31.16
633.844	31.02
634.034	30.95
634.225	31.2
634.415	31.36
634.605	31.25
634.795	31.49
634.985	31.57
635.175	31.9
635.365	31.97
635.555	32.18
635.745	32.36
635.935	32.45
636.125	32.6
636.315	32.68
636.505	32.74
636.695	32.71
636.885	32.38
637.075	32.43
637.265	32.73
637.455	32.54
637.644	32.69
637.834	32.24
638.024	32.39
638.214	32.2
638.404	32.25
638.593	32.47
638.783	32.32
638.973	32.22
639.163	32.35
639.352	31.98
639.542	32.37
639.732	32.3
639.921	33.12
640.111	32.96
640.301	33.14
640.49	32.92
640.68	32.86
640.87	32.82
641.059	33.34
641.249	33.28
641.438	33.27
641.628	32.93
641.817	32.83
642.007	32.17
642.196	32.34
642.386	32.41
642.575	32.53
642.764	32.32
642.954	32.86
643.143	32.91
643.333	33.17
643.522	33.33
643.711	33.53
643.901	33.5
644.09	33.74
644.279	34.05
644.469	33.96
644.658	33.91
644.847	34.14
645.036	34.29
645.226	33.68
645.415	33.56
645.604	33.47
645.793	32.79
645.982	33.12
646.171	33.6
646.361	33.07
646.55	33.25
646.739	33.42
646.928	33.34
647.117	32.85
647.306	33.01
647.495	33.08
647.684	33.32
647.873	33.61
648.062	33.13
648.251	32.44
648.44	32.89
648.629	32.76
648.818	32.29
649.007	31.98
649.196	32.18
649.384	32.46
649.573	32.33
649.762	32.51
649.951	32.9
650.14	33.13
650.328	33.64
650.517	33.56
650.706	33.26
650.895	33.7
651.083	33.81
651.272	33.82
651.461	33.7
651.65	33.94
651.838	33.68
652.027	33.7
652.216	34.05
652.404	33.84
652.593	33.76
652.781	34.2
652.97	34.03
653.158	34.3
653.347	34.33
653.535	34.43
653.724	34.37
653.912	34.37
654.101	34.39
654.289	34.18
654.478	34.4
654.666	34.77
654.855	34.99
655.043	34.84
655.231	34.72
655.42	34.63
655.608	34.77
655.796	34.73
655.985	34.57
656.173	34.68
656.361	34.53
656.55	34.17
656.738	33.82
656.926	33.58
657.114	33.54
657.302	33.6
657.491	33.58
657.679	33.74
657.867	33.85
658.055	33.8
658.243	33.82
658.431	33.92
658.619	34.08
658.807	33.95
658.996	33.94
659.184	34.19
659.372	34.07
659.56	33.92
659.748	33.69
659.936	33.57
660.124	33.68
660.311	33.62
660.499	33.39
660.687	33.37
660.875	33.34
661.063	33.42
661.251	33.43
661.439	33.59
661.627	33.74
661.814	33.48
662.002	33.86
662.19	33.99
662.378	34.05
662.565	34.27
662.753	34.57
662.941	34.71
663.129	34.64
663.316	34.68
663.504	34.11
663.692	34.24
663.879	34.44
664.067	34.07
664.254	34.22
664.442	34.06
664.63	33.7
664.817	33.4
665.005	33.49
665.192	33.85
665.38	33.91
665.567	34.56
665.755	34.18
665.942	34.09
666.13	33.95
666.317	33.94
666.504	34.04
666.692	34.63
666.879	34.76
667.067	34.72
667.254	34.03
667.441	34.07
667.629	34.01
667.816	34.34
668.003	34.5
668.19	34.4
668.378	34.56
668.565	34.6
668.752	34.21
668.939	34.29
669.127	34.79
669.314	35.37
669.501	35.32
669.688	35.66
669.875	35.75
670.062	35.51
670.249	35.89
670.436	35.41
670.623	35.43
670.81	35.74
670.997	36.03
671.184	35.45
671.371	35.32
671.558	34.91
671.745	34.74
671.932	34.78
672.119	34.95
672.306	34.87
672.493	35.01
672.68	34.63
672.867	34.97
673.054	34.32
673.24	33.95
673.427	33.69
673.614	34.38
673.801	34.33
673.988	34.56
674.174	34.08
674.361	34.05
674.548	34.24
674.734	34.84
674.921	34.36
675.108	34.56
675.294	34.99
675.481	34.91
675.668	34.39
675.854	34.36
676.041	34.39
676.227	35.3
676.414	35.33
676.601	35.33
676.787	34.67
676.974	34.43
677.16	34.38
677.347	34.67
677.533	35.15
677.719	35.43
677.906	35.29
678.092	35.03
678.279	35.01
678.465	35.21
678.651	35.3
678.838	35.61
679.024	35.48
679.21	35.28
679.397	34.93
679.583	34.7
679.769	34.69
679.955	34.62
680.142	34.42
680.328	34.42
680.514	34.38
680.7	34.61
680.886	34.91
681.073	34.87
681.259	35.29
681.445	35.21
681.631	35.5
681.817	35.68
682.003	35.78
682.189	35.69
682.375	35.21
682.561	34.99
682.747	34.74
682.933	34.04
683.119	34.58
683.305	34.43
683.491	35.11
683.677	34.54
683.863	34.54
684.049	34.86
684.235	35.46
684.42	36.03
684.606	36.25
684.792	36.27
684.978	37.31
685.164	37.13
685.349	37.22
685.535	36.62
685.721	37.13
685.907	36.49
686.092	36.37
686.278	35.78
686.464	35.83
686.649	35.43
686.835	35.35
687.021	34.7
687.206	34.75
687.392	34.66
687.577	35.29
687.763	35.26
687.948	35.53
688.134	35.73
688.319	35.56
688.505	35.45
688.69	36.17
688.876	36.37
689.061	36.28
689.247	36.27
689.432	36.71
689.618	36.47
689.803	37.11
689.988	37.22
690.174	36.9
690.359	37.59
690.544	36.92
690.73	36.55
690.915	36.36
691.1	36.68
691.285	37.08
691.471	36.89
691.656	36.83
691.841	36.22
692.026	36.38
692.211	36.61
692.396	36.1
692.582	36.78
692.767	36.59
692.952	36.6
693.137	36.31
693.322	35.55
693.507	35.81
693.692	35.75
693.877	35.24
694.062	34.96
694.247	34.61
694.432	34.81
694.617	35.04
694.802	35.32
694.987	35.57
695.172	36.04
695.357	37.04
695.541	36.7
695.726	36.92
695.911	37.6
696.096	37.93
696.281	38.09
696.466	38.29
696.65	37.97
696.835	38.36
697.02	38.43
697.204	38.44
697.389	37.97
697.574	37.92
697.759	38
697.943	37.73
698.128	37.57
698.312	37.65
698.497	37.58
698.682	37.77
698.866	37.43
699.051	37.47
699.235	37.29
699.42	37.13
699.604	37.33
699.789	36.95
699.973	37.13
700.158	37.3
700.342	37.29
700.527	37.58
700.711	37.04
700.895	37.42
701.08	36.51
701.264	36.7
701.448	36.71
701.633	36.36
701.817	36.43
702.001	36.27
702.186	36.11
702.37	36.16
702.554	35.88
702.738	36.6
702.923	36.19
703.107	37.24
703.291	36.92
703.475	36.94
703.659	37.21
703.843	37.69
704.027	38.21
704.212	38.36
704.396	37.51
704.58	37.32
704.764	36.41
704.948	36.16
705.132	35.51
705.316	35.28
705.5	35.17
705.684	34.8
705.868	34.82
706.052	34.13
706.235	34.12
706.419	34.93
706.603	34.78
706.787	35.04
706.971	34.98
707.155	35.94
707.339	36.82
707.522	37.14
707.706	37.69
707.89	37.43
708.074	37.94
708.257	38.63
708.441	38.96
708.625	39.15
708.808	39.7
708.992	40.05
709.176	39.71
709.359	39.2
709.543	39.59
709.727	39.19
709.91	39.35
710.094	39.12
710.277	38.81
710.461	38.35
710.644	38.85
710.828	39.1
711.011	39.79
711.195	39.13
711.378	38.94
711.562	38.45
711.745	38.6
711.928	38.3
712.112	38.16
712.295	36.75
712.478	36.56
712.662	36.81
712.845	36.28
713.028	35.72
713.212	35.89
713.395	35.46
713.578	36.19
713.761	35.8
713.945	36.52
714.128	36.62
714.311	37.71
714.494	38.21
714.677	36.98
714.86	37.73
715.043	37.59
715.227	38.06
715.41	38.97
715.593	38.26
715.776	38.24
715.959	37.79
716.142	38.01
716.325	38.11
716.508	37.96
716.691	38.42
716.874	37.59
717.057	37.19
717.239	37.13
717.422	36.46
717.605	36.7
717.788	35.98
717.971	35.72
718.154	35.2
718.337	35.19
718.519	35.9
718.702	35.31
718.885	35.66
719.068	36.56
719.25	36
719.433	36.67
719.616	37.27
719.798	38.59
719.981	38.35
720.164	38.58
720.346	38.24
720.529	37.08
720.712	37.13
720.894	36.62
721.077	36.39
721.259	36.98
721.442	36.62
721.624	36.2
721.807	35.9
721.989	36.29
722.172	36.49
722.354	35.67
722.537	37.06
722.719	38.47
722.901	38.72
723.084	37.91
723.266	38.01
723.448	38.4
723.631	38.58
723.813	38.73
723.995	38.37
724.178	37.98
724.36	39.43
724.542	39.53
724.724	38.3
724.907	38.5
725.089	38.24
725.271	38.27
725.453	37.74
725.635	37.18
725.817	37.16
725.999	37.68
726.181	37.74
726.364	37.34
726.546	36.34
726.728	37.29
726.91	37.65
727.092	38.48
727.274	38.21
727.456	38.31
727.638	38.65
727.819	38.71
728.001	38.35
728.183	38.21
728.365	38.48
728.547	38.16
728.729	38.35
728.911	38.71
729.093	38.47
729.274	38.65
729.456	39.3
729.638	39.77
729.82	40.02
730.001	39.89
730.183	39.97
730.365	40.19
730.546	40.51
730.728	40.86
730.91	40.54
731.091	40.76
731.273	40.63
731.455	39.94
731.636	39.36
731.818	39.39
731.999	40.12
732.181	39.78
732.362	39.3
732.544	39.04
732.725	38.46
732.907	38.11
733.088	38.74
733.27	38.94
733.451	38.27
733.633	38.14
733.814	38.35
733.995	37.8
734.177	38.89
734.358	38.41
734.539	39.1
734.721	39.2
734.902	38.55
735.083	37.46
735.264	37.37
735.446	38.77
735.627	39.48
735.808	38.91
735.989	39.06
736.17	38.65
736.351	39.64
736.533	39.05
736.714	39.52
736.895	40.64
737.076	42.08
737.257	42.2
737.438	42.17
737.619	42.08
737.8	41.46
737.981	41.25
738.162	41.38
738.343	41.43
738.524	40.88
738.705	40.95
738.886	41
739.067	40.94
739.247	40.42
739.428	40.21
739.609	40
739.79	40.9
739.971	40.63
740.151	40.63
740.332	41.12
740.513	42.42
740.694	40.22
740.874	39.46
741.055	37.76
741.236	39.03
741.417	38.73
741.597	37.83
741.778	37.78
741.958	37.97
742.139	37.28
742.32	36.39
742.5	35.65
742.681	37.05
742.861	37.4
743.042	39.32
743.222	38.6
743.403	38.72
743.583	39.51
743.764	39.92
743.944	39.13
744.124	39.83
744.305	39.92
744.485	40.27
744.666	40.25
744.846	39.6
745.026	37.93
745.207	38.87
745.387	38.18
745.567	38.27
745.747	37.48
745.928	38.64
746.108	37.58
746.288	37.38
746.468	37.35
746.648	37.71
746.829	37.3
747.009	38.77
747.189	38.07
747.369	39.78
747.549	39.15
747.729	39.35
747.909	38.99
748.089	39.33
748.269	39.62
748.449	39.08
748.629	38.61
748.809	38.62
748.989	37.76
749.169	36.85
749.349	36.1
749.529	37.21
749.709	37.56
749.889	38.27
750.068	39.02
750.248	38.99
750.428	39.36
750.608	39.71
750.788	39.98
750.967	39.44
751.147	40.46
751.327	40.18
751.507	39.4
751.686	39.83
751.866	40.14
752.046	38.88
752.225	38.59
752.405	39.2
752.585	39.7
752.764	41.6
752.944	42.06
753.123	42.57
753.303	44.08
753.482	44.27
753.662	44.34
753.841	44.24
754.021	43.86
754.2	43.91
754.38	43.69
754.559	42.89
754.739	41.15
754.918	40.49
755.097	40.28
755.277	37.84
755.456	38.89
755.635	38.04
755.815	37.16
755.994	38.68
756.173	39.21
756.352	39.09
756.532	38.81
756.711	40.12
756.89	41.03
757.069	39.69
757.248	40.88
757.427	39.32
757.607	39.28
757.786	39.62
757.965	39.99
758.144	39.38
758.323	39.52
758.502	39.34
758.681	39.04
758.86	39.41
759.039	41.2
759.218	41.88
759.397	42.22
759.576	42.35
759.755	42.21
759.934	41.48
760.113	41.6
760.291	40.87
760.47	41.74
760.649	41.43
760.828	41.05
761.007	40.67
761.186	39.8
761.364	39.99
761.543	39.48
761.722	39.85
761.901	39.95
762.079	39.97
762.258	40.08
762.437	38.96
762.615	39.31
762.794	38.29
762.972	37.69
763.151	37.65
763.33	37.39
763.508	37.61
763.687	37.38
763.865	37.92
764.044	37.47
764.222	37.78
764.401	38.25
764.579	38.03
764.758	38.76
764.936	38.26
765.114	38.17
765.293	38.4
765.471	38.64
765.65	38.52
765.828	37.78
766.006	37.94
766.184	37.67
766.363	36.95
766.541	36.44
766.719	36.87
766.898	37.53
767.076	38.1
767.254	38.2
767.432	38.32
767.61	38.33
767.788	38.22
767.967	38.49
768.145	38.09
768.323	38.76
768.501	39.19
768.679	38.2
768.857	37.78
769.035	37.99
769.213	38.16
769.391	38.34
769.569	37.71
769.747	37.92
769.925	38.1
770.103	38.88
770.281	39.32
770.459	39.1
770.636	39.6
770.814	39.24
770.992	39.38
771.17	37.64
771.348	36.7
771.525	38.18
771.703	38.18
771.881	37.59
772.059	38.19
772.236	38.33
772.414	40.4
772.592	40.29
772.769	42.67
772.947	42.32
773.125	43.82
773.302	44.5
773.48	44.32
773.657	43.17
773.835	43.46
774.013	43.83
774.19	43.56
774.368	42.25
774.545	42.3
774.723	40.86
774.9	40.49
775.077	41.79
775.255	40.52
775.432	39.05
775.61	41.69
775.787	42.3
775.964	40.33
776.142	40.8
776.319	40.8
776.496	40.42
776.674	40.99
776.851	39.43
777.028	37.79
777.205	40.15
777.382	42.78
777.56	42.24
777.737	42.09
777.914	43.41
778.091	43.42
778.268	43.89
778.445	44.39
778.622	41.63
778.8	43.57
778.977	43.4
779.154	42.66
779.331	40.86
779.508	40.78
779.685	41.49
779.862	41.53
780.038	42.38
780.215	41.75
780.392	41.37
780.569	42.72
780.746	43.2
780.923	44.43
781.1	44.97
781.277	44.36
781.453	43.35
781.63	41.29
781.807	40.76
781.984	39.08
782.16	41.07
782.337	41
782.514	41.46
782.691	39.04
782.867	38.36
783.044	37.27
783.221	39.82
783.397	40.81
783.574	40.61
783.75	41.52
783.927	42.82
784.103	41.03
784.28	41.96
784.456	41.96
784.633	44.1
784.809	43.85
784.986	44.56
785.162	42.04
785.339	39.2
785.515	40.95
785.692	39.29
785.868	38.93
786.044	36.73
786.221	34.31
786.397	36.94
786.573	36.84
786.749	35.54
786.926	34.23
787.102	37.2
787.278	38.68
787.454	38.66
787.631	39.29
787.807	38.16
787.983	41.96
788.159	44.8
788.335	42.73
788.511	41.54
788.687	41.66
788.863	41.32
789.039	39.73
789.216	38.95
789.392	38.95
789.568	38.13
789.744	40.46
789.919	39.23
790.095	39.79
790.271	39.48
790.447	38.66
790.623	38.86
790.799	40.12
790.975	40.56
791.151	43.71
791.327	43.66
791.502	45.3
791.678	43.68
791.854	42.35
792.03	41.24
792.205	41.83
792.381	43.29
792.557	46.29
792.733	45.97
792.908	44.46
793.084	44.83
793.259	44.91
793.435	43.47
793.611	42.28
793.786	42.74
793.962	43.33
794.137	42.13
794.313	39.74
794.488	36.12
794.664	36.86
794.839	38.31
795.015	34.62
795.19	33.97
795.366	35.14
795.541	36.8
795.716	36.04
795.892	33.96
796.067	35.71
796.242	38.48
796.418	38.81
796.593	37.81
796.768	38.11
796.944	39.22
797.119	39.76
797.294	40.42
797.469	39.02
797.644	40.71
797.82	41.53
797.995	39.04
798.17	39.24
798.345	40.85
798.52	41.53
798.695	41.89
798.87	41.19
799.045	42.06
799.22	40.89
799.395	42.91
799.57	41.17
799.745	41.97
799.92	44.78
800.095	44.12
800.27	43.45
800.445	41.32
800.62	40.29
800.795	40.79
800.97	39.37
801.145	38.41
801.319	37.43
801.494	38.99
801.669	37.63
801.844	36.22
802.018	35.67
802.193	35.58
802.368	37.23
802.543	38.3
802.717	39.31
802.892	37.91
803.067	41.09
803.241	43.13
803.416	42.35
803.59	43.51
803.765	42.77
803.94	42.03
804.114	41.77
804.289	41.91
804.463	39.76
804.638	39.93
804.812	39.76
804.986	37
805.161	33.93
805.335	34.43
805.51	34.71
805.684	37.02
805.858	37.61
806.033	38.89
806.207	39.97
806.381	43.43
806.556	41.34
806.73	42.86
806.904	43.47
807.078	45.36
807.253	45.45
807.427	44.25
807.601	44.63
807.775	44.49
807.949	44.43
808.123	44.32
808.298	43.11
808.472	44.24
808.646	43.93
808.82	44.63
808.994	45.44
809.168	45.5
809.342	47.25
809.516	44.58
809.69	44.59
809.864	42.63
810.038	41.99
810.212	42.04
810.385	43.09
810.559	41.27
810.733	39.89
810.907	37.55
811.081	36.89
811.255	36.35
811.428	36.86
811.602	38.5
811.776	37.91
811.95	36.15
812.123	35.96
812.297	33.97
812.471	36.08
812.644	38.37
812.818	39.68
812.992	42.24
813.165	40.5
813.339	43.13
813.512	44.73
813.686	44.8
813.86	46.13
814.033	46.8
814.207	49.76
814.38	50.6
814.554	52.18
814.727	49.64
814.9	45.53
815.074	46.51
815.247	43.6
815.421	40.24
815.594	43.25
815.767	43.79
815.941	40.75
816.114	39.92
816.287	37.64
816.46	34.22
816.634	35.63
816.807	38.31
816.98	40.52
817.153	41.08
817.327	42.5
817.5	42.16
817.673	42.4
817.846	43.36
818.019	44.09
818.192	48.29
818.365	49.94
818.538	50.82
818.711	54.12
818.884	51.81
819.057	51.74
819.23	49.17
819.403	49.9
819.576	47.35
819.749	47
819.922	43.22
820.095	41.21
820.268	40.84
820.441	42.06
820.614	41.01
820.786	41.63
820.959	41.7
821.132	41.39
821.305	41.65
821.477	40.88
821.65	40.99
821.823	41.32
821.996	41.37
822.168	41.27
822.341	40.46
822.514	40.28
822.686	40.37
822.859	40.56
823.031	41.24
823.204	40.51
823.376	41
823.549	40.96
823.722	41.2
823.894	41.19
824.067	41.53
824.239	41.51
824.411	41.37
824.584	41.91
824.756	41.98
824.929	41.61
825.101	41.59
825.273	41.89
825.446	42.22
825.618	42.98
825.79	42.94
825.963	42.02
826.135	42.84
826.307	42.51
826.479	41.13
826.652	41.13
826.824	41.45
826.996	40.62
827.168	41.14
827.34	40.91
827.512	40.29
827.684	40.32
827.856	41.02
828.029	41.53
828.201	42.09
828.373	43.23
828.545	42.6
828.717	42.91
828.889	44.14
829.061	43.41
829.232	42.96
829.404	43.2
829.576	44.46
829.748	42.66
829.92	42.23
830.092	42.61
830.264	43.03
830.436	44.96
830.607	45.39
830.779	46.96
830.951	48.34
831.123	49.51
831.294	49.29
831.466	48.73
831.638	52.14
831.809	51.28
831.981	51.38
832.153	50.91
832.324	50.89
832.496	49.51
832.667	49.83
832.839	47.34
833.011	48.34
833.182	48.26
833.354	47.42
833.525	46.59
833.697	48.2
833.868	48.18
834.039	47.82
834.211	45.43
834.382	46.63
834.554	47.55
834.725	48.23
834.896	46.88
835.068	46.13
835.239	45.82
835.41	45.62
835.581	43.77
835.753	42.95
835.924	42.26
836.095	43.33
836.266	42.41
836.438	40.7
836.609	40.3
836.78	41.85
836.951	42.05
837.122	40.94
837.293	42.19
837.464	43.63
837.635	43.8
837.806	44.6
837.977	43.84
838.148	44.83
838.319	44.51
838.49	44.75
838.661	42.07
838.832	43.26
839.003	47
839.174	45.48
839.345	44.99
839.516	49.03
839.687	49.86
839.857	50.1
840.028	50.45
840.199	51.1
840.37	55.27
840.54	57.51
840.711	56.65
840.882	53.17
841.053	52.63
841.223	52.67
841.394	50.34
841.564	49.76
841.735	48.96
841.906	46.81
842.076	45.97
842.247	44.51
842.417	43.77
842.588	50.09
842.758	50.79
842.929	52.32
843.099	51.9
843.27	46.32
843.44	44.36
843.611	49.3
843.781	52.75
843.951	49.43
844.122	51.28
844.292	52.17
844.462	47.07
844.633	48.41
844.803	47.86
844.973	44.36
845.144	50.65
845.314	45.41
845.484	42.95
845.654	44.55
845.824	51.44
845.995	46.59
846.165	47.68
846.335	43.2
846.505	43.42
846.675	46.02
846.845	54.21
847.015	57.34
847.185	67.21
847.355	65.06
847.525	62.04
847.695	50.46
847.865	51.44
848.035	50.34
848.205	52.41
848.375	52.55
848.545	50.56
848.715	45.27
848.884	41.14
849.054	43.86
849.224	40.14
849.394	40.09
849.564	46.94
849.733	40.97
849.903	40.71
850.073	38.89
850.243	36.84
850.412	39.51
850.582	43.22
850.752	41.34
850.921	38.19
851.091	34.26
851.26	32.01
851.43	32.6
851.599	32.14
851.769	32.23
851.939	36.99
852.108	37.59
852.278	35.36
852.447	37.06
852.616	32.36
852.786	33.07
852.955	40.15
853.125	40.33
853.294	37.81
853.463	39.93
853.633	46.39
853.802	37.9
853.971	43.16
854.141	36.66
854.31	32.42
854.479	34.65
854.648	32.59
854.818	38.18
854.987	38.67
855.156	34.69
855.325	43.82
855.494	41.03
855.663	44.61
855.832	42.08
856.001	44.25
856.171	49.75
856.34	50.94
856.509	45.74
856.678	45.66
856.847	45.52
857.016	54.31
857.185	47.05
857.353	47.65
857.522	45.04
857.691	37.68
857.86	45.84
858.029	38.88
858.198	44.04
858.367	52.67
858.535	45.58
858.704	49.9
858.873	54.7
859.042	55.02
859.21	52.66
859.379	51.16
859.548	58.29
859.717	55.12
859.885	63.15
860.054	61.87
860.222	64.33
860.391	62.3
860.56	62.29
860.728	54.41
860.897	60.03
861.065	57
861.234	60.4
861.402	63.76
861.571	62.72
861.739	56.73
861.908	56.85
862.076	57.37
862.244	65.63
862.413	64.89
862.581	69.91
862.749	68.27
862.918	75.36
863.086	75.24
863.254	68.3
863.423	70.53
863.591	63.27
863.759	59.28
863.927	55.14
864.096	50.55
864.264	46
864.432	47.29
864.6	48.55
864.768	31.85
864.936	29.81
865.104	34.36
865.272	30.53
865.44	33.45
865.608	32.2
865.776	38.55
865.944	38.03
866.112	46.59
866.28	43.39
866.448	38.52
866.616	43.42
866.784	45.8
866.952	46.81
867.12	46.24
867.288	44.1
867.455	54.95
867.623	52.86
867.791	53.56
867.959	52.4
868.127	46.58
868.294	51.12
868.462	54.19
868.63	63.4
868.797	69.25
868.965	74.39
869.133	74.88
869.3	69.86
869.468	69.64
869.636	74.15
869.803	76.36
869.971	87.04
870.138	82.25
870.306	80.21
870.473	71.61
870.641	67.99
870.808	62.04
870.975	61.32
871.143	56.47
871.31	55.96
871.478	46.37
871.645	42.73
871.812	28.44
871.98	40.4
872.147	36.66
872.314	36.72
872.482	37.79
872.649	30.87
872.816	33.41
872.983	34.56
873.15	32.84
873.318	41.02
873.485	40.34
873.652	39.89
873.819	38.37
873.986	44.67
874.153	49.42
874.32	47.08
874.487	50.49
874.654	56.25
874.821	60.73
874.988	65.5
875.155	66.42
875.322	71.15
875.489	70.33
875.656	75.94
875.823	71.21
875.99	70.38
876.157	64.84
876.324	59.55
876.49	57.14
876.657	65.19
876.824	59.41
876.991	60.52
877.157	48.56
877.324	44.57
877.491	29.01
877.658	25.39
877.824	17.34
877.991	26.69
878.157	45.06
878.324	40.36
878.491	19.77
878.657	36.51
878.824	33.99
878.99	37.32
879.157	43.61
879.323	40.77
879.49	42.37
879.656	44.32
879.823	38.6
879.989	26.08
880.156	29.99
880.322	33.6
880.488	26.45
880.655	24.33
880.821	26.9
880.987	27.75
881.154	41.13
881.32	42.72
881.486	48.62
881.652	48.83
881.819	49.09
881.985	44.38
882.151	42.01
882.317	45.93
882.483	45.73
882.649	46.81
882.816	46.94
882.982	44.89
883.148	45.42
883.314	42.96
883.48	42.21
883.646	43.04
883.812	43.84
883.978	44.22
884.144	42.37
884.31	43.23
884.476	43.01
884.642	42.23
884.807	41.74
884.973	42.28
885.139	44.42
885.305	46.16
885.471	44.59
885.637	45.4
885.802	47.3
885.968	48.18
886.134	50.57
886.3	51.53
886.465	52.07
886.631	50.66
886.797	49.58
886.962	49.18
887.128	51.39
887.293	53.05
887.459	56.63
887.625	55.28
887.79	53.65
887.956	49.55
888.121	48.83
888.287	49.26
888.452	52.43
888.618	53.44
888.783	50.03
