Data from CB_076_Reflection_3.txt Node
Date: Sat Nov 14 11:31:27 EST 2015
User: robert
Spectrometer: USB4E03001
Autoset integration time: false
Trigger mode: 4
Integration Time (sec): 1.000000E-1
Scans to average: 15
Electric dark correction enabled: true
Nonlinearity correction enabled: false
Boxcar width: 5
Stray light correction enabled: false
XAxis mode: Wavelengths
Stop averaging: false
Number of Pixels in Spectrum: 3648
>>>>>Begin Spectral Data<<<<<
177.566	-158.61
177.785	-182.15
178.005	-870.8
178.225	14.53
178.445	44.95
178.665	-258.85
178.885	-98.1
179.105	-132.22
179.324	-225.37
179.544	-470.7
179.764	-105.49
179.984	-138.66
180.204	-141.45
180.423	-511.91
180.643	-236.56
180.863	-404.43
181.083	-2175.61
181.302	-12126.19
181.522	1435.38
181.742	1463.95
181.961	1671.46
182.181	282.66
182.401	220.87
182.621	371.95
182.84	1684.85
183.06	-5399.66
183.279	-681.23
183.499	-464.86
183.719	-523.94
183.938	-369.76
184.158	-289.21
184.377	-285.09
184.597	-148.57
184.816	-82.39
185.036	-137.14
185.256	-147.02
185.475	-423.99
185.695	-299.37
185.914	-338.16
186.134	-309.05
186.353	-282.98
186.572	-244.01
186.792	-562.41
187.011	3918.07
187.231	-2934.74
187.45	-608.7
187.67	-2535.27
187.889	899.61
188.108	497.71
188.328	395.79
188.547	262.95
188.766	227.9
188.986	210.92
189.205	200.25
189.424	235.61
189.644	208.8
189.863	248.04
190.082	311.74
190.302	413.1
190.521	272.35
190.74	276.39
190.959	1212.45
191.178	1040.64
191.398	739.62
191.617	1906.62
191.836	6655.91
192.055	1319.8
192.274	413.3
192.494	490.37
192.713	20528.57
192.932	-2266.57
193.151	428125
193.37	627.57
193.589	-16627.43
193.808	-1590.93
194.027	-2565.94
194.246	4769.78
194.465	-3282.75
194.685	760.32
194.904	847.13
195.123	516.55
195.342	434.27
195.561	367.81
195.78	995.75
195.999	2352.67
196.218	919.84
196.436	792.57
196.655	396.09
196.874	223.66
197.093	463.71
197.312	363.19
197.531	632.94
197.75	893.24
197.969	2198.83
198.188	334.44
198.407	200.18
198.625	196.17
198.844	212.47
199.063	295.19
199.282	639.62
199.501	-2825
199.719	-1388.67
199.938	616.58
200.157	308.67
200.376	-1943.41
200.594	-178.18
200.813	-519.01
201.032	-1602.38
201.251	-708.75
201.469	-868.99
201.688	-1874.63
201.907	3485.75
202.125	1120.82
202.344	4221.28
202.563	22953.62
202.781	1135.4
203	374.82
203.218	306.73
203.437	527.33
203.656	410.94
203.874	915.56
204.093	682.78
204.311	465.11
204.53	1129.23
204.748	332.82
204.967	470.71
205.185	395.33
205.404	457.38
205.622	568.58
205.841	275.37
206.059	185.08
206.278	173.08
206.496	320.09
206.715	387.55
206.933	352.04
207.151	481.55
207.37	321.42
207.588	412.69
207.806	430.87
208.025	637.75
208.243	1081.38
208.461	-84400
208.68	2300.4
208.898	943.59
209.116	592.56
209.335	391.58
209.553	280.75
209.771	263.47
209.989	214.64
210.208	225.51
210.426	199.23
210.644	175.45
210.862	167.7
211.081	166.42
211.299	128.84
211.517	161.94
211.735	150.77
211.953	155.49
212.171	169.22
212.39	176
212.608	139.86
212.826	120.37
213.044	114.67
213.262	119.96
213.48	115.75
213.698	201.15
213.916	111.37
214.134	108.35
214.352	95.3
214.57	39.5
214.788	37.85
215.006	101.52
215.224	221.1
215.442	511.34
215.66	957.73
215.878	312.87
216.096	147
216.314	518.17
216.532	2568.02
216.75	-734.01
216.968	-1242.44
217.185	-12071.68
217.403	2689.65
217.621	-163411.11
217.839	-910.91
218.057	-32481.25
218.275	-1173.66
218.492	-216.46
218.71	-4148.53
218.928	2613.71
219.146	1528.6
219.363	778.79
219.581	881.39
219.799	-4573.52
220.017	517.87
220.234	674.65
220.452	633.34
220.67	946.05
220.887	389.86
221.105	551.56
221.323	321.44
221.54	237.47
221.758	260.58
221.976	224.36
222.193	164
222.411	155.95
222.629	169.15
222.846	163.99
223.064	159.08
223.281	161.32
223.499	170.94
223.716	158.62
223.934	148.88
224.151	130.52
224.369	138.75
224.586	172.21
224.804	187.6
225.021	170.51
225.239	173.64
225.456	149.43
225.674	126.57
225.891	112.68
226.108	102.19
226.326	97.82
226.543	105.17
226.76	97.68
226.978	78.94
227.195	76.37
227.413	66.91
227.63	60.95
227.847	63.2
228.064	61.02
228.282	60.95
228.499	61.62
228.716	56.58
228.934	51.36
229.151	49.5
229.368	42.69
229.585	41.13
229.802	41.87
230.02	42.66
230.237	39.28
230.454	38.67
230.671	38.85
230.888	38.46
231.105	45.57
231.323	48.47
231.54	50.85
231.757	60.51
231.974	63.01
232.191	58.71
232.408	55.77
232.625	63.21
232.842	61.52
233.059	57.43
233.276	55.48
233.493	45.82
233.71	42.67
233.927	37.83
234.144	34.18
234.361	37.26
234.578	40.52
234.795	37.33
235.012	35.33
235.229	36.5
235.446	39.97
235.663	41.03
235.879	41.55
236.096	47.75
236.313	52.81
236.53	49.13
236.747	50.39
236.964	42.42
237.181	50.7
237.397	52.56
237.614	63.93
237.831	67.47
238.048	76.87
238.264	72.94
238.481	59.76
238.698	57.64
238.915	59.77
239.131	55.45
239.348	56.65
239.565	57.95
239.781	56.56
239.998	43.5
240.215	36
240.431	24.98
240.648	28.37
240.865	29.18
241.081	28.69
241.298	27.54
241.514	27.57
241.731	27.41
241.947	23.31
242.164	24.78
242.38	22.91
242.597	19.78
242.814	19.79
243.03	21
243.246	23.68
243.463	23.18
243.679	21.89
243.896	22.74
244.112	20.37
244.329	20.42
244.545	17.45
244.762	21.79
244.978	26.24
245.194	24.26
245.411	22.73
245.627	18.59
245.843	18.86
246.06	20.07
246.276	17.58
246.492	18.07
246.709	18.56
246.925	17.63
247.141	17.2
247.357	17.49
247.574	18.09
247.79	16.45
248.006	15.48
248.222	15.51
248.439	14.01
248.655	14.37
248.871	15.36
249.087	16.3
249.303	17.41
249.519	18.29
249.736	19.57
249.952	20.83
250.168	25.43
250.384	30.17
250.6	28.88
250.816	32.21
251.032	31.44
251.248	29.69
251.464	28.45
251.68	25.75
251.896	21.95
252.112	20.07
252.328	18.94
252.544	18.32
252.76	14.27
252.976	14.07
253.192	12.32
253.408	13.59
253.624	11.4
253.84	11.2
254.056	11.93
254.272	11.57
254.487	9.85
254.703	6.57
254.919	4.67
255.135	9.5
255.351	9.84
255.567	10.8
255.782	12.71
255.998	20.33
256.214	17.62
256.43	16.27
256.646	19.37
256.861	22.69
257.077	23.35
257.293	23.73
257.508	22.75
257.724	22.22
257.94	21.38
258.155	19.48
258.371	16.48
258.587	16.03
258.802	14.86
259.018	12.84
259.234	11.67
259.449	12.08
259.665	11.39
259.88	12.15
260.096	11.94
260.312	11.32
260.527	10.95
260.743	10.56
260.958	10.49
261.174	12.22
261.389	14.5
261.605	13.8
261.82	12.76
262.036	12.59
262.251	10.74
262.466	12.04
262.682	13.25
262.897	13.44
263.113	14.05
263.328	14.27
263.543	12.57
263.759	10.47
263.974	11.85
264.189	12.58
264.405	12.9
264.62	15.17
264.835	12.61
265.051	13.87
265.266	13.32
265.481	15.23
265.696	18.57
265.912	17.1
266.127	15.45
266.342	14.89
266.557	15.74
266.773	15.56
266.988	14.54
267.203	16.01
267.418	15.18
267.633	16.84
267.848	14.95
268.064	11.57
268.279	12.48
268.494	11.85
268.709	12.65
268.924	13.6
269.139	11.79
269.354	12.85
269.569	10.34
269.784	9.08
269.999	8.17
270.214	10.01
270.429	10.71
270.644	11.11
270.859	11.37
271.074	11.37
271.289	12.04
271.504	13.8
271.719	13.18
271.934	15
272.149	14.67
272.363	15.46
272.578	14.38
272.793	14.3
273.008	13.26
273.223	13.69
273.438	12.26
273.653	11.89
273.867	12.76
274.082	13.92
274.297	12.9
274.512	14.32
274.726	13.26
274.941	12.33
275.156	14.59
275.371	14.89
275.585	14.93
275.8	17.68
276.015	17.5
276.229	16.84
276.444	16.07
276.659	16.26
276.873	15.45
277.088	17.75
277.302	20.84
277.517	18.14
277.732	18.84
277.946	18.09
278.161	18.03
278.375	16.99
278.59	16.53
278.804	15.89
279.019	16.69
279.233	16.43
279.448	13.07
279.662	10.27
279.877	12.15
280.091	9.94
280.306	9.54
280.52	6.83
280.735	6.72
280.949	9.53
281.163	11.35
281.378	10.31
281.592	11.27
281.806	12.14
282.021	13.15
282.235	12.08
282.449	14.66
282.664	14.83
282.878	15.94
283.092	16.69
283.307	14.56
283.521	12.91
283.735	14.68
283.949	15.05
284.164	15.14
284.378	14.07
284.592	12.68
284.806	12.39
285.02	12.21
285.234	12
285.449	10.86
285.663	11.13
285.877	10.12
286.091	9.11
286.305	8.65
286.519	8.94
286.733	9.41
286.947	11.45
287.161	10.48
287.375	10.17
287.589	10.73
287.803	12.5
288.017	10.98
288.231	12.68
288.445	13.66
288.659	13.91
288.873	14.51
289.087	14.51
289.301	15.14
289.515	14.82
289.729	16.09
289.943	16.27
290.157	16.12
290.371	17.61
290.584	17.13
290.798	17.24
291.012	17.64
291.226	17.35
291.44	18.25
291.654	17.23
291.867	17.67
292.081	18.72
292.295	19.14
292.509	19.37
292.722	19.07
292.936	19.64
293.15	19.14
293.364	18.08
293.577	17.19
293.791	15.78
294.005	14.62
294.218	16.45
294.432	15.19
294.645	14.16
294.859	13.73
295.073	14.44
295.286	13.85
295.5	14.03
295.713	13.78
295.927	13.51
296.14	12.98
296.354	12.93
296.568	11.49
296.781	10.63
296.994	11.51
297.208	11.02
297.421	10.35
297.635	10.87
297.848	10.19
298.062	10.23
298.275	10.49
298.489	11.76
298.702	12.81
298.915	12.13
299.129	13.82
299.342	13.54
299.555	14.78
299.769	15.39
299.982	15.65
300.195	16.59
300.409	16.72
300.622	17.08
300.835	16.13
301.048	15.41
301.262	15.28
301.475	14.86
301.688	14.5
301.901	14.12
302.115	14.12
302.328	14.31
302.541	13.11
302.754	14.6
302.967	14.51
303.18	15.31
303.393	15.41
303.607	16.76
303.82	17.13
304.033	18.24
304.246	19.02
304.459	19.09
304.672	19.14
304.885	19.15
305.098	18.41
305.311	19.35
305.524	18.13
305.737	19.75
305.95	20.18
306.163	19.72
306.376	18.31
306.589	18.28
306.802	17.81
307.015	18.5
307.228	19.33
307.44	18.72
307.653	18.39
307.866	21.1
308.079	20.35
308.292	19.1
308.505	20.19
308.718	19.58
308.93	19.19
309.143	19.23
309.356	19.34
309.569	18.48
309.781	18.98
309.994	19.13
310.207	17.5
310.42	17.31
310.632	18.33
310.845	17.36
311.058	18.19
311.27	17.03
311.483	17.92
311.696	16.24
311.908	16.38
312.121	15.97
312.333	16.92
312.546	16.96
312.759	15.65
312.971	15.13
313.184	15.57
313.396	15.81
313.609	15.93
313.821	14.64
314.034	15.84
314.246	16.61
314.459	17.33
314.671	15.03
314.884	15.65
315.096	16.83
315.309	17.56
315.521	18.42
315.733	17.72
315.946	17.87
316.158	19.07
316.371	19.37
316.583	18.92
316.795	18.37
317.008	19.46
317.22	18.96
317.432	19.81
317.644	19.48
317.857	18.4
318.069	18.51
318.281	19.81
318.494	19.39
318.706	19.96
318.918	20.58
319.13	21.13
319.342	21.19
319.555	22.33
319.767	21.93
319.979	20.92
320.191	19.8
320.403	21.83
320.615	21.58
320.827	21.75
321.039	20.53
321.252	22.11
321.464	22.6
321.676	21.75
321.888	21.17
322.1	21.63
322.312	22.7
322.524	24.29
322.736	22.37
322.948	22.54
323.16	22.63
323.372	23.53
323.584	21.97
323.796	20.53
324.007	20.71
324.219	21.64
324.431	21.59
324.643	22.76
324.855	23.08
325.067	23.9
325.279	23.57
325.491	24.43
325.702	24.55
325.914	24.87
326.126	26.48
326.338	25.41
326.55	25.41
326.761	25.27
326.973	25.07
327.185	24.85
327.396	25.83
327.608	26.31
327.82	26.18
328.032	26.79
328.243	27.14
328.455	28.4
328.666	30.12
328.878	30.33
329.09	31.03
329.301	30.15
329.513	30.2
329.725	29.1
329.936	30.37
330.148	30.25
330.359	30.47
330.571	31.65
330.782	29.81
330.994	31.39
331.205	31.43
331.417	31.75
331.628	32.28
331.84	32.96
332.051	34.25
332.262	33.98
332.474	33.42
332.685	33.05
332.897	32.8
333.108	34.34
333.319	33.1
333.531	33.07
333.742	32.25
333.953	31.76
334.165	31.58
334.376	31.68
334.587	31.82
334.799	31.58
335.01	31.41
335.221	30.88
335.432	29.55
335.644	29
335.855	28.88
336.066	30.11
336.277	31.31
336.488	31.37
336.7	30.88
336.911	30.7
337.122	31.12
337.333	31.2
337.544	31.98
337.755	32.77
337.966	33.87
338.177	33.7
338.388	33
338.599	33.01
338.811	32.81
339.022	32.93
339.233	33.12
339.444	32.39
339.655	32.21
339.866	31.26
340.076	30.86
340.287	29.82
340.498	29.61
340.709	30.17
340.92	29.48
341.131	30.04
341.342	30.75
341.553	29.59
341.764	31.37
341.975	31.17
342.185	31.5
342.396	31.87
342.607	32.09
342.818	33.01
343.029	32.08
343.239	32.14
343.45	31.08
343.661	30.04
343.872	30.76
344.082	29.64
344.293	30.17
344.504	30.26
344.714	29.61
344.925	30.23
345.136	28.85
345.346	28.05
345.557	28.62
345.768	28.85
345.978	30.19
346.189	29.58
346.399	29.71
346.61	29.18
346.821	29.02
347.031	29.51
347.242	28.73
347.452	28.78
347.663	30.38
347.873	30.43
348.084	30.87
348.294	28.92
348.504	29.78
348.715	30.7
348.925	31.09
349.136	30.29
349.346	29.88
349.557	30.35
349.767	31.36
349.977	31.16
350.188	30.47
350.398	31.33
350.608	31.43
350.819	31.71
351.029	30.65
351.239	30.87
351.449	31.18
351.66	30.29
351.87	29.88
352.08	29.45
352.29	29.37
352.501	29.61
352.711	27.85
352.921	28.81
353.131	27.6
353.341	27.96
353.552	27.33
353.762	27.32
353.972	28.22
354.182	29.05
354.392	28.7
354.602	28.23
354.812	28.13
355.022	27.99
355.232	27.43
355.442	27.3
355.652	27.25
355.862	27.76
356.072	28.35
356.282	27.61
356.492	27.4
356.702	27.31
356.912	27.22
357.122	28.06
357.332	28.58
357.542	27.96
357.752	28.29
357.962	28.19
358.171	27.91
358.381	27.96
358.591	28.26
358.801	28.05
359.011	28.32
359.221	28.86
359.43	28.91
359.64	28.2
359.85	28.14
360.06	28.23
360.269	28.06
360.479	27.91
360.689	27.76
360.899	28.16
361.108	27.85
361.318	27.46
361.528	26.82
361.737	25.66
361.947	26.26
362.156	26.69
362.366	26.52
362.576	26.14
362.785	26.02
362.995	25.59
363.204	25.36
363.414	25.65
363.623	26.06
363.833	26.55
364.042	26.96
364.252	26.51
364.461	26.03
364.671	26.47
364.88	26.52
365.09	26.99
365.299	26.93
365.509	27.24
365.718	27
365.927	27.14
366.137	27.37
366.346	27.16
366.555	27.31
366.765	27.76
366.974	27.26
367.183	26.53
367.393	25.49
367.602	25.3
367.811	24.89
368.021	25.31
368.23	24.86
368.439	24.11
368.648	23.68
368.857	23.2
369.067	22.8
369.276	22.98
369.485	23.72
369.694	24.65
369.903	24.82
370.112	24.79
370.321	24.08
370.531	23.93
370.74	23.39
370.949	23.35
371.158	23.39
371.367	23.14
371.576	22.27
371.785	22.19
371.994	21.74
372.203	21.32
372.412	20.59
372.621	20.19
372.83	20.02
373.039	20.77
373.248	19.97
373.457	19.73
373.666	19.33
373.874	18.85
374.083	18.75
374.292	18.23
374.501	18.36
374.71	18.63
374.919	18.75
375.128	18.6
375.336	18.44
375.545	19.11
375.754	19.35
375.963	19.21
376.171	19.49
376.38	19.27
376.589	19.11
376.798	18.63
377.006	18.79
377.215	18.89
377.424	18.72
377.632	18.07
377.841	18.05
378.05	17.72
378.258	18.06
378.467	18.05
378.675	18.17
378.884	18.49
379.093	18.75
379.301	18.73
379.51	18.33
379.718	18.39
379.927	18.6
380.135	18.4
380.344	17.95
380.552	17.88
380.761	18.07
380.969	17.54
381.177	17.07
381.386	17.36
381.594	16.76
381.803	16.63
382.011	16.46
382.219	16.17
382.428	15.97
382.636	15.92
382.845	15.11
383.053	15.32
383.261	15.32
383.469	15.44
383.678	15.02
383.886	15.16
384.094	15.33
384.302	15.62
384.511	15.49
384.719	15.58
384.927	15.97
385.135	16.51
385.343	15.65
385.552	15.84
385.76	15.46
385.968	15.4
386.176	15.33
386.384	14.61
386.592	13.85
386.8	14.2
387.008	14.29
387.216	14.13
387.424	14.13
387.633	14.18
387.841	14.09
388.049	14.88
388.257	15.09
388.465	14.5
388.672	14.97
388.88	15.18
389.088	14.37
389.296	14.08
389.504	13.77
389.712	13.64
389.92	13.64
390.128	13.45
390.336	12.61
390.544	12.11
390.751	12.29
390.959	11.88
391.167	11.68
391.375	12.17
391.583	12.04
391.79	12.01
391.998	12.15
392.206	12.07
392.414	11.57
392.621	11.77
392.829	11.89
393.037	11.85
393.244	11.94
393.452	11.85
393.66	11.53
393.867	11.31
394.075	11.13
394.283	10.75
394.49	10.56
394.698	10.95
394.905	10.8
395.113	10.76
395.32	10.63
395.528	10.71
395.735	10.89
395.943	10.8
396.15	10.97
396.358	10.98
396.565	11.12
396.773	11.21
396.98	11.15
397.188	10.95
397.395	10.88
397.602	11.38
397.81	11.15
398.017	10.88
398.225	11.25
398.432	10.89
398.639	10.63
398.847	10.17
399.054	10.17
399.261	10.26
399.468	10.08
399.676	10.11
399.883	9.43
400.09	9.67
400.297	9.69
400.505	9.41
400.712	9.86
400.919	10.21
401.126	10.24
401.333	10.02
401.54	9.66
401.748	9.74
401.955	9.2
402.162	9.15
402.369	9.01
402.576	8.81
402.783	8.53
402.99	8.15
403.197	8.03
403.404	8.18
403.611	8.26
403.818	8.41
404.025	8.1
404.232	8.47
404.439	8.62
404.646	8.41
404.853	8.51
405.06	8.33
405.267	8.56
405.474	8.55
405.681	8.67
405.887	8.55
406.094	8.63
406.301	8.71
406.508	8.61
406.715	8.88
406.922	8.77
407.128	8.96
407.335	9.22
407.542	8.99
407.749	8.83
407.955	8.67
408.162	8.41
408.369	8.24
408.575	8.54
408.782	8.97
408.989	8.33
409.195	8.37
409.402	8.51
409.609	8.11
409.815	7.85
410.022	7.97
410.228	7.82
410.435	8.12
410.642	8.25
410.848	7.91
411.055	7.34
411.261	7.61
411.468	7.84
411.674	7.63
411.881	7.84
412.087	8.2
412.294	8.13
412.5	8.12
412.706	8.12
412.913	7.87
413.119	8.03
413.326	7.98
413.532	7.81
413.738	7.76
413.945	7.16
414.151	7.58
414.357	7.44
414.564	7.38
414.77	7.51
414.976	7.48
415.182	7.62
415.389	7.77
415.595	7.56
415.801	7.75
416.007	7.69
416.214	7.79
416.42	7.59
416.626	7.25
416.832	7.34
417.038	7.07
417.244	7
417.45	6.81
417.657	6.64
417.863	6.67
418.069	6.6
418.275	6.45
418.481	6.49
418.687	6.5
418.893	6.6
419.099	6.4
419.305	6.43
419.511	6.39
419.717	6.38
419.923	6.28
420.129	6.25
420.335	6.26
420.541	6.29
420.746	6.16
420.952	6.04
421.158	6.09
421.364	6.08
421.57	6.05
421.776	6.07
421.982	6.02
422.187	6.03
422.393	6.01
422.599	5.93
422.805	5.89
423.01	6.01
423.216	6.02
423.422	6.06
423.628	6.09
423.833	6.01
424.039	6.03
424.245	6.05
424.45	6.04
424.656	5.96
424.862	5.89
425.067	5.89
425.273	5.88
425.478	5.73
425.684	5.7
425.889	5.78
426.095	5.8
426.301	5.77
426.506	5.62
426.712	5.58
426.917	5.73
427.123	5.64
427.328	5.59
427.533	5.58
427.739	5.87
427.944	5.91
428.15	5.76
428.355	5.85
428.561	5.86
428.766	6.05
428.971	5.9
429.177	5.85
429.382	5.8
429.587	5.86
429.793	5.86
429.998	5.63
430.203	5.53
430.408	5.7
430.614	5.55
430.819	5.37
431.024	5.31
431.229	5.67
431.434	5.75
431.64	5.87
431.845	6.05
432.05	6.1
432.255	5.98
432.46	5.97
432.665	5.78
432.87	5.82
433.076	5.89
433.281	5.83
433.486	5.59
433.691	5.44
433.896	5.57
434.101	5.28
434.306	5.18
434.511	5.34
434.716	5.31
434.921	5.39
435.126	5.48
435.331	5.4
435.535	5.49
435.74	5.52
435.945	5.57
436.15	5.55
436.355	5.63
436.56	5.45
436.765	5.41
436.97	5.26
437.174	5.37
437.379	5.28
437.584	5.55
437.789	5.47
437.993	5.57
438.198	5.52
438.403	5.54
438.608	5.56
438.812	5.57
439.017	5.45
439.222	5.56
439.426	5.33
439.631	5.28
439.836	5.15
440.04	5.23
440.245	5.25
440.45	5.27
440.654	5.07
440.859	4.98
441.063	5.07
441.268	5.19
441.472	5.27
441.677	5.26
441.881	5.04
442.086	4.94
442.29	4.83
442.495	4.76
442.699	4.66
442.904	4.66
443.108	4.77
443.312	4.8
443.517	4.7
443.721	4.6
443.925	4.76
444.13	4.93
444.334	4.82
444.538	4.71
444.743	4.65
444.947	4.79
445.151	4.79
445.356	4.76
445.56	4.6
445.764	4.45
445.968	4.47
446.173	4.33
446.377	4.44
446.581	4.49
446.785	4.55
446.989	4.57
447.193	4.59
447.398	4.76
447.602	4.63
447.806	4.76
448.01	4.86
448.214	4.82
448.418	4.78
448.622	4.74
448.826	4.77
449.03	4.7
449.234	4.77
449.438	4.71
449.642	4.63
449.846	4.88
450.05	4.86
450.254	4.83
450.458	4.72
450.662	5.05
450.866	5.15
451.069	5.31
451.273	5.54
451.477	5.37
451.681	5.36
451.885	5.19
452.089	5.05
452.292	4.9
452.496	5.02
452.7	5.07
452.904	4.96
453.107	4.83
453.311	4.57
453.515	4.58
453.719	4.58
453.922	4.53
454.126	4.73
454.33	4.56
454.533	4.55
454.737	4.4
454.94	4.44
455.144	4.5
455.348	4.38
455.551	4.57
455.755	4.39
455.958	4.49
456.162	4.55
456.365	4.4
456.569	4.43
456.772	4.32
456.976	4.65
457.179	4.64
457.383	4.46
457.586	4.52
457.79	4.59
457.993	4.65
458.196	4.63
458.4	4.78
458.603	4.7
458.807	4.71
459.01	4.83
459.213	4.69
459.417	4.78
459.62	4.82
459.823	4.99
460.026	4.87
460.23	4.77
460.433	4.74
460.636	4.6
460.839	4.59
461.042	4.52
461.246	4.57
461.449	4.65
461.652	4.66
461.855	4.61
462.058	4.51
462.261	4.63
462.464	4.57
462.668	4.55
462.871	4.71
463.074	4.63
463.277	4.75
463.48	4.75
463.683	4.76
463.886	4.63
464.089	4.72
464.292	4.46
464.495	4.37
464.698	4.52
464.901	4.75
465.104	4.67
465.306	4.65
465.509	4.71
465.712	4.91
465.915	4.96
466.118	4.78
466.321	4.78
466.524	4.99
466.726	5.19
466.929	5.27
467.132	4.99
467.335	5.18
467.538	5.36
467.74	5.31
467.943	5.07
468.146	4.93
468.348	4.97
468.551	4.85
468.754	4.73
468.956	4.61
469.159	4.48
469.362	4.75
469.564	4.46
469.767	4.45
469.969	4.46
470.172	4.5
470.375	4.52
470.577	4.84
470.78	4.99
470.982	4.97
471.185	4.95
471.387	5.13
471.59	4.86
471.792	4.87
471.995	5.05
472.197	5.16
472.399	5.4
472.602	5.44
472.804	5.24
473.007	5.07
473.209	5.09
473.411	4.92
473.614	4.92
473.816	5.08
474.018	5.07
474.22	4.87
474.423	4.9
474.625	4.71
474.827	4.7
475.03	4.76
475.232	4.89
475.434	4.97
475.636	4.98
475.838	4.87
476.04	4.94
476.243	4.94
476.445	5.03
476.647	4.96
476.849	4.94
477.051	4.7
477.253	4.88
477.455	4.83
477.657	4.89
477.859	4.95
478.061	4.83
478.263	4.66
478.465	4.71
478.667	4.58
478.869	4.39
479.071	4.39
479.273	4.33
479.475	4.07
479.677	4.12
479.879	4.04
480.081	4.13
480.283	4.19
480.485	4.3
480.686	4.46
480.888	4.6
481.09	4.66
481.292	4.57
481.494	4.71
481.695	4.75
481.897	4.63
482.099	4.65
482.301	4.56
482.502	4.48
482.704	4.48
482.906	4.31
483.107	4.21
483.309	4.17
483.511	4.11
483.712	4.09
483.914	4.07
484.115	4.08
484.317	3.99
484.519	3.98
484.72	3.98
484.922	3.93
485.123	3.91
485.325	3.94
485.526	3.94
485.728	3.99
485.929	3.99
486.131	3.94
486.332	3.88
486.534	3.95
486.735	3.95
486.936	4
487.138	4.02
487.339	4.06
487.541	4.02
487.742	4.05
487.943	4.03
488.144	3.99
488.346	3.99
488.547	4.1
488.748	4.11
488.95	4.11
489.151	4.18
489.352	4.2
489.553	4.2
489.755	4.28
489.956	4.21
490.157	4.24
490.358	4.29
490.559	4.31
490.76	4.21
490.961	4.1
491.163	4.15
491.364	4.07
491.565	4.02
491.766	4.05
491.967	4.01
492.168	4.09
492.369	4.11
492.57	4.12
492.771	4.24
492.972	4.26
493.173	4.42
493.374	4.5
493.575	4.51
493.776	4.49
493.976	4.49
494.177	4.64
494.378	4.67
494.579	4.76
494.78	4.75
494.981	4.59
495.182	4.7
495.382	4.7
495.583	4.6
495.784	4.76
495.985	4.97
496.185	4.92
496.386	4.81
496.587	4.79
496.788	4.8
496.988	4.71
497.189	4.79
497.39	4.74
497.59	4.75
497.791	4.57
497.992	4.46
498.192	4.4
498.393	4.55
498.593	4.6
498.794	4.65
498.994	4.71
499.195	4.77
499.395	4.83
499.596	5.04
499.796	5.05
499.997	5.44
500.197	5.64
500.398	5.74
500.598	5.49
500.799	5.5
500.999	5.63
501.199	5.58
501.4	5.79
501.6	5.82
501.801	5.73
502.001	5.85
502.201	5.69
502.402	5.62
502.602	5.55
502.802	5.96
503.002	5.92
503.203	6.03
503.403	6.14
503.603	6.21
503.803	6.32
504.003	6.36
504.204	6.36
504.404	6.67
504.604	6.73
504.804	7.06
505.004	6.86
505.204	6.94
505.404	6.95
505.604	6.96
505.804	6.92
506.005	6.94
506.205	6.88
506.405	6.93
506.605	6.81
506.805	6.91
507.005	6.73
507.204	6.82
507.404	6.9
507.604	6.93
507.804	6.98
508.004	7.21
508.204	7.21
508.404	7.43
508.604	7.45
508.804	7.54
509.003	7.71
509.203	7.77
509.403	7.93
509.603	8.03
509.803	8.1
510.002	8.22
510.202	8.19
510.402	8.49
510.602	8.48
510.801	8.56
511.001	8.54
511.201	8.46
511.4	8.53
511.6	8.63
511.8	8.73
511.999	9.01
512.199	8.9
512.398	9.03
512.598	8.97
512.797	9.24
512.997	9.38
513.197	9.61
513.396	9.89
513.596	10.04
513.795	10.2
513.994	10.36
514.194	10.33
514.393	10.52
514.593	10.7
514.792	10.76
514.992	10.94
515.191	11.06
515.39	11.22
515.59	11.27
515.789	11.5
515.988	11.62
516.188	11.69
516.387	11.9
516.586	12.29
516.786	12.38
516.985	12.57
517.184	12.65
517.383	12.88
517.582	12.96
517.782	12.91
517.981	13.01
518.18	12.98
518.379	13.31
518.578	13.37
518.777	13.39
518.976	13.52
519.176	13.71
519.375	13.72
519.574	13.8
519.773	13.91
519.972	14.26
520.171	14.53
520.37	14.86
520.569	14.86
520.768	15.15
520.967	15.26
521.166	15.36
521.365	15.56
521.564	15.8
521.762	15.99
521.961	16.23
522.16	16.31
522.359	16.22
522.558	16.23
522.757	16.3
522.956	16.26
523.154	16.48
523.353	16.68
523.552	16.74
523.751	16.77
523.949	16.96
524.148	16.96
524.347	17.14
524.546	17.36
524.744	17.65
524.943	17.77
525.142	17.98
525.34	18.1
525.539	18.2
525.737	18.42
525.936	18.62
526.135	18.69
526.333	18.87
526.532	18.91
526.73	18.97
526.929	19.13
527.127	19.32
527.326	19.44
527.524	19.59
527.723	19.75
527.921	19.76
528.12	19.86
528.318	19.97
528.516	20.09
528.715	20.19
528.913	20.25
529.112	20.24
529.31	20.29
529.508	20.3
529.707	20.36
529.905	20.45
530.103	20.58
530.301	20.68
530.5	20.71
530.698	20.76
530.896	20.91
531.094	21.14
531.293	21.35
531.491	21.54
531.689	21.83
531.887	21.98
532.085	22.04
532.283	22.16
532.481	22.18
532.68	22.38
532.878	22.54
533.076	22.67
533.274	22.69
533.472	22.75
533.67	22.83
533.868	22.9
534.066	22.94
534.264	23.03
534.462	23.05
534.66	23.25
534.858	23.35
535.056	23.44
535.253	23.44
535.451	23.58
535.649	23.74
535.847	23.92
536.045	23.93
536.243	24.12
536.441	24.21
536.638	24.37
536.836	24.32
537.034	24.44
537.232	24.51
537.43	24.62
537.627	24.65
537.825	24.79
538.023	24.81
538.22	25.01
538.418	25.02
538.616	25.07
538.813	25.14
539.011	25.46
539.209	25.4
539.406	25.53
539.604	25.67
539.801	25.79
539.999	25.87
540.196	26
540.394	26.02
540.591	26.04
540.789	26.23
540.986	26.24
541.184	26.31
541.381	26.42
541.579	26.42
541.776	26.4
541.974	26.5
542.171	26.5
542.368	26.5
542.566	26.52
542.763	26.57
542.96	26.52
543.158	26.67
543.355	26.66
543.552	26.75
543.75	26.92
543.947	27.08
544.144	27.14
544.341	27.24
544.539	27.45
544.736	27.66
544.933	27.85
545.13	27.97
545.327	28
545.524	28.13
545.722	28.21
545.919	28.2
546.116	28.25
546.313	28.39
546.51	28.47
546.707	28.23
546.904	28.35
547.101	28.3
547.298	28.46
547.495	28.54
547.692	28.5
547.889	28.32
548.086	28.31
548.283	28.3
548.48	28.22
548.677	28.16
548.874	28.24
549.07	28.1
549.267	28.34
549.464	28.19
549.661	28.22
549.858	28.47
550.055	28.89
550.251	28.89
550.448	28.97
550.645	28.86
550.842	28.96
551.038	29.03
551.235	29.23
551.432	29.27
551.628	29.38
551.825	29.5
552.022	29.43
552.218	29.2
552.415	29.45
552.612	29.58
552.808	29.82
553.005	29.78
553.201	29.76
553.398	29.69
553.594	29.81
553.791	29.95
553.987	29.99
554.184	30.02
554.38	30.21
554.577	30.11
554.773	30.14
554.97	30.12
555.166	30.36
555.362	30.43
555.559	30.61
555.755	30.49
555.952	30.43
556.148	30.48
556.344	30.48
556.541	30.55
556.737	30.68
556.933	30.63
557.129	30.51
557.326	30.42
557.522	30.57
557.718	30.65
557.914	30.55
558.11	30.47
558.307	30.32
558.503	30.24
558.699	30.48
558.895	30.47
559.091	30.71
559.287	30.98
559.483	30.93
559.679	30.87
559.876	30.79
560.072	30.86
560.268	30.95
560.464	31.01
560.66	31.01
560.856	30.99
561.052	30.8
561.247	30.46
561.443	30.34
561.639	30.41
561.835	30.49
562.031	30.43
562.227	30.48
562.423	30.63
562.619	30.63
562.815	30.86
563.01	30.85
563.206	31.17
563.402	31.2
563.598	31.27
563.793	31.16
563.989	31.31
564.185	31.31
564.381	31.26
564.576	31.36
564.772	31.36
564.968	31.22
565.163	30.96
565.359	30.78
565.555	30.8
565.75	30.76
565.946	30.75
566.141	30.75
566.337	30.78
566.532	31.08
566.728	30.85
566.923	30.79
567.119	30.85
567.314	30.94
567.51	30.88
567.705	30.97
567.901	31.09
568.096	31.14
568.292	31.03
568.487	31.05
568.682	30.9
568.878	30.97
569.073	31.06
569.268	31.05
569.464	31.25
569.659	31.38
569.854	31.39
570.05	31.25
570.245	31.44
570.44	31.7
570.635	31.64
570.831	31.6
571.026	31.79
571.221	31.94
571.416	31.94
571.611	31.77
571.806	31.66
572.002	31.85
572.197	31.74
572.392	31.51
572.587	31.36
572.782	31.5
572.977	31.36
573.172	31.33
573.367	31.22
573.562	31.25
573.757	31.35
573.952	31.28
574.147	30.97
574.342	31.32
574.537	31.5
574.732	31.54
574.927	31.68
575.121	31.77
575.316	31.9
575.511	31.8
575.706	31.95
575.901	32
576.096	32.26
576.29	32.54
576.485	32.54
576.68	32.73
576.875	32.65
577.069	32.58
577.264	32.65
577.459	32.6
577.654	33.09
577.848	33.13
578.043	33.15
578.238	33.37
578.432	33.43
578.627	33.34
578.821	33.52
579.016	33.68
579.21	33.86
579.405	33.75
579.6	33.8
579.794	33.61
579.989	33.58
580.183	33.89
580.378	33.78
580.572	33.93
580.766	34.04
580.961	33.7
581.155	33.62
581.35	33.44
581.544	33.74
581.738	33.82
581.933	33.67
582.127	34.02
582.321	33.62
582.516	33.53
582.71	33.27
582.904	33.38
583.099	33.44
583.293	33.43
583.487	33.49
583.681	33.81
583.875	33.62
584.07	33.91
584.264	33.89
584.458	33.89
584.652	33.89
584.846	34.09
585.04	33.92
585.234	34.11
585.428	34.22
585.623	34.25
585.817	33.99
586.011	33.9
586.205	33.78
586.399	33.58
586.593	33.83
586.787	34.12
586.981	33.89
587.174	34
587.368	34.18
587.562	34.42
587.756	34.39
587.95	34.25
588.144	34.41
588.338	34.64
588.532	34.67
588.725	34.65
588.919	34.41
589.113	34.65
589.307	34.74
589.501	34.42
589.694	34.51
589.888	34.57
590.082	34.56
590.275	34.23
590.469	34.05
590.663	34.01
590.856	33.78
591.05	33.94
591.244	33.92
591.437	34.11
591.631	34.29
591.824	33.9
592.018	33.89
592.212	34.12
592.405	34.7
592.599	34.76
592.792	34.78
592.986	35.21
593.179	35.01
593.372	35.05
593.566	34.66
593.759	34.67
593.953	34.98
594.146	34.91
594.339	35.03
594.533	34.88
594.726	34.72
594.92	34.82
595.113	34.6
595.306	34.66
595.499	34.54
595.693	34.86
595.886	34.94
596.079	35.05
596.272	35.22
596.466	34.95
596.659	34.89
596.852	35.19
597.045	34.82
597.238	34.82
597.431	34.95
597.624	34.95
597.818	34.81
598.011	34.74
598.204	34.55
598.397	34.37
598.59	34.42
598.783	34.66
598.976	34.6
599.169	34.98
599.362	35.05
599.555	34.77
599.748	35.01
599.941	35.17
600.134	35.31
600.326	35.3
600.519	35.7
600.712	36.01
600.905	36.02
601.098	35.96
601.291	35.98
601.483	36.02
601.676	36.25
601.869	36.16
602.062	36.03
602.255	36.02
602.447	35.93
602.64	35.59
602.833	35.26
603.025	35.23
603.218	35.24
603.411	35.14
603.603	35.11
603.796	35.25
603.989	35.17
604.181	35.25
604.374	35.18
604.566	35.3
604.759	35.31
604.951	35.54
605.144	35.44
605.336	35.59
605.529	35.65
605.721	35.59
605.914	35.58
606.106	35.8
606.299	35.74
606.491	35.62
606.683	35.87
606.876	35.84
607.068	35.75
607.26	35.65
607.453	35.27
607.645	35.21
607.837	35.66
608.03	35.54
608.222	35.49
608.414	35.77
608.606	35.97
608.799	36.04
608.991	36.37
609.183	36.6
609.375	37.16
609.567	37.58
609.759	38.13
609.952	38.01
610.144	38.45
610.336	38.94
610.528	39.21
610.72	39.72
610.912	40.27
611.104	40.51
611.296	40.76
611.488	40.9
611.68	41.23
611.872	41.04
612.064	41.56
612.256	41.64
612.448	41.32
612.64	41.26
612.832	41.1
613.023	40.71
613.215	40.59
613.407	40.17
613.599	39.91
613.791	39.68
613.983	39.36
614.174	38.79
614.366	38.71
614.558	38.54
614.75	38.66
614.941	38.39
615.133	38.08
615.325	37.91
615.516	38.28
615.708	38.29
615.9	38.09
616.091	38.25
616.283	38.41
616.475	38.03
616.666	38.1
616.858	37.89
617.049	37.71
617.241	37.73
617.432	37.71
617.624	37.44
617.815	37.09
618.007	36.98
618.198	37.04
618.39	37.08
618.581	37.35
618.773	37.24
618.964	37.05
619.155	37.26
619.347	36.73
619.538	37.03
619.729	36.94
619.921	37
620.112	37.29
620.303	36.99
620.494	36.98
620.686	36.75
620.877	36.83
621.068	36.8
621.259	36.59
621.451	36.99
621.642	36.54
621.833	36.52
622.024	36.6
622.215	36.35
622.406	36.31
622.597	36.11
622.788	36.2
622.98	35.82
623.171	35.97
623.362	36.11
623.553	36.28
623.744	36.54
623.935	36.55
624.126	36.58
624.317	36.86
624.508	36.92
624.698	36.92
624.889	36.84
625.08	37.76
625.271	37.71
625.462	37.74
625.653	37.55
625.844	37.34
626.034	37.3
626.225	37.46
626.416	36.77
626.607	37.04
626.798	37.03
626.988	36.97
627.179	36.79
627.37	36.7
627.56	36.79
627.751	36.97
627.942	37.15
628.132	37.25
628.323	36.97
628.514	37.49
628.704	37.25
628.895	37.34
629.085	37.21
629.276	36.74
629.466	37.07
629.657	36.62
629.847	36.44
630.038	36.8
630.228	36.99
630.419	37.36
630.609	37.43
630.8	37.22
630.99	37.35
631.181	38.1
631.371	38.39
631.561	38.02
631.752	38.31
631.942	38.47
632.132	37.99
632.323	37.87
632.513	37.83
632.703	37.56
632.893	38.24
633.084	38.11
633.274	37.65
633.464	37.42
633.654	37.46
633.844	37.2
634.034	36.87
634.225	36.88
634.415	36.82
634.605	36.65
634.795	36.74
634.985	36.66
635.175	36.83
635.365	37
635.555	36.96
635.745	36.91
635.935	37.27
636.125	37.36
636.315	37.58
636.505	37.55
636.695	37.59
636.885	37.66
637.075	37.58
637.265	37.24
637.455	37.16
637.644	37.26
637.834	37.42
638.024	37.41
638.214	37.63
638.404	37.32
638.593	37.31
638.783	37.33
638.973	37.22
639.163	37.01
639.352	36.84
639.542	36.81
639.732	37.14
639.921	37.08
640.111	37.05
640.301	36.74
640.49	36.79
640.68	36.92
640.87	36.84
641.059	36.9
641.249	37.11
641.438	37.28
641.628	37.43
641.817	37.87
642.007	37.93
642.196	38.25
642.386	38.54
642.575	39.04
642.764	38.89
642.954	38.78
643.143	38.83
643.333	38.72
643.522	38.94
643.711	38.71
643.901	38.19
644.09	37.98
644.279	38.13
644.469	38.11
644.658	38.03
644.847	37.62
645.036	37.83
645.226	37.95
645.415	37.93
645.604	37.62
645.793	37.86
645.982	37.47
646.171	37.52
646.361	37.16
646.55	37.52
646.739	36.96
646.928	37.41
647.117	37.46
647.306	37.35
647.495	37.24
647.684	37.64
647.873	37.75
648.062	37.91
648.251	38.07
648.44	37.39
648.629	36.48
648.818	36.83
649.007	36.92
649.196	36.79
649.384	36.57
649.573	36.5
649.762	36.24
649.951	35.98
650.14	36.17
650.328	36.04
650.517	36.81
650.706	37.35
650.895	37.44
651.083	37.95
651.272	38.49
651.461	38.57
651.65	38.49
651.838	38.39
652.027	38.21
652.216	37.94
652.404	37.86
652.593	38
652.781	38.26
652.97	38.04
653.158	37.13
653.347	36.81
653.535	36.9
653.724	37.07
653.912	37.62
654.101	37.58
654.289	37.87
654.478	38.33
654.666	37.72
654.855	37.64
655.043	37.69
655.231	37.96
655.42	38.21
655.608	38.62
655.796	39.14
655.985	38.77
656.173	38.83
656.361	38.95
656.55	38.39
656.738	38.45
656.926	38.42
657.114	38.14
657.302	38.4
657.491	37.92
657.679	37.69
657.867	37.33
658.055	37.49
658.243	37.74
658.431	37.74
658.619	38.15
658.807	38.55
658.996	38.38
659.184	38.69
659.372	38.47
659.56	38.63
659.748	38.29
659.936	38.75
660.124	38.63
660.311	38.32
660.499	38.05
660.687	37.63
660.875	37.47
661.063	37.67
661.251	37.33
661.439	37.79
661.627	38.04
661.814	38.31
662.002	37.88
662.19	38.11
662.378	38.56
662.565	38.81
662.753	39.41
662.941	39.48
663.129	38.88
663.316	39.3
663.504	38.94
663.692	38.51
663.879	38.42
664.067	37.94
664.254	37.6
664.442	37.61
664.63	37.9
664.817	37.74
665.005	37.25
665.192	38.05
665.38	37.9
665.567	38.03
665.755	38.29
665.942	38.75
666.13	39.3
666.317	39.81
666.504	39.18
666.692	39.4
666.879	39.28
667.067	40.01
667.254	39.82
667.441	39.85
667.629	40.12
667.816	39.49
668.003	39.52
668.19	39.52
668.378	39.22
668.565	39.89
668.752	39.35
668.939	39.66
669.127	39.44
669.314	39.38
669.501	39.39
669.688	39.24
669.875	39.61
670.062	39.15
670.249	39.19
670.436	39.27
670.623	39.05
670.81	39.06
670.997	38.68
671.184	38.7
671.371	39.01
671.558	38.76
671.745	38.53
671.932	38.57
672.119	38.52
672.306	38.78
672.493	38.68
672.68	38.89
672.867	39.48
673.054	39.61
673.24	39.39
673.427	38.67
673.614	38.79
673.801	38.82
673.988	39.24
674.174	39.89
674.361	39.31
674.548	38.97
674.734	38.58
674.921	37.59
675.108	37.91
675.294	37.89
675.481	38.05
675.668	38.19
675.854	38.38
676.041	38.28
676.227	37.87
676.414	38.19
676.601	38.64
676.787	38.47
676.974	39.2
677.16	39.02
677.347	39.44
677.533	39.7
677.719	39.7
677.906	39.55
678.092	39.58
678.279	39.54
678.465	39.32
678.651	39.32
678.838	39.64
679.024	39.24
679.21	38.62
679.397	38.11
679.583	38.12
679.769	38.06
679.955	37.97
680.142	37.53
680.328	37.89
680.514	37.86
680.7	37.69
680.886	37.66
681.073	37.61
681.259	38.21
681.445	38.79
681.631	38.89
681.817	38.8
682.003	38.67
682.189	38.73
682.375	38.84
682.561	39.19
682.747	38.91
682.933	38.83
683.119	39.09
683.305	39.01
683.491	38.74
683.677	38.98
683.863	38.9
684.049	39.16
684.235	39.42
684.42	38.92
684.606	38.64
684.792	39.32
684.978	39.58
685.164	39.2
685.349	39.58
685.535	39.31
685.721	38.79
685.907	39
686.092	39.03
686.278	39.18
686.464	39.24
686.649	39.59
686.835	39.39
687.021	39.64
687.206	40.21
687.392	40.02
687.577	40.55
687.763	40.98
687.948	40.79
688.134	41.22
688.319	41.31
688.505	41.19
688.69	41.16
688.876	40.88
689.061	40.78
689.247	40.53
689.432	40.39
689.618	39.62
689.803	39.68
689.988	39.91
690.174	39.51
690.359	38.88
690.544	39.3
690.73	39.09
690.915	39.56
691.1	38.83
691.285	38.99
691.471	38.99
691.656	39.23
691.841	38.62
692.026	38.63
692.211	38.23
692.396	38.35
692.582	38.74
692.767	38.78
692.952	38.47
693.137	39.35
693.322	39.04
693.507	38.83
693.692	38.63
693.877	39.23
694.062	39.22
694.247	39.96
694.432	40.27
694.617	39.18
694.802	39.57
694.987	40.15
695.172	39.85
695.357	39.88
695.541	39.99
695.726	40.91
695.911	41.42
696.096	41.32
696.281	40.67
696.466	40.62
696.65	40.9
696.835	40.35
697.02	39.03
697.204	39.27
697.389	39.48
697.574	39.18
697.759	39.06
697.943	38.38
698.128	38.43
698.312	38.54
698.497	38.25
698.682	38.43
698.866	38.47
699.051	39.18
699.235	39.05
699.42	38.97
699.604	38.98
699.789	38.65
699.973	38.72
700.158	38.81
700.342	38.93
700.527	39.63
700.711	39.74
700.895	39.91
701.08	40.26
701.264	40.4
701.448	40.03
701.633	40.35
701.817	40.8
702.001	41
702.186	40.81
702.37	40.7
702.554	40.15
702.738	40.4
702.923	39.88
703.107	39.55
703.291	39.71
703.475	40.32
703.659	40.52
703.843	40.15
704.027	39.84
704.212	39.85
704.396	40.77
704.58	41.21
704.764	40.37
704.948	40.9
705.132	40.76
705.316	40.63
705.5	40.44
705.684	40.46
705.868	41.12
706.052	41.53
706.235	42.47
706.419	41.73
706.603	41.4
706.787	41.38
706.971	41.25
707.155	41.19
707.339	40.56
707.522	41.05
707.706	41.01
707.89	40.09
708.074	40.46
708.257	39.07
708.441	39.71
708.625	40.18
708.808	40.53
708.992	41.21
709.176	41.58
709.359	41.89
709.543	41.82
709.727	41.99
709.91	42.27
710.094	41.93
710.277	42.97
710.461	42.88
710.644	42.64
710.828	43.32
711.011	42.95
711.195	42.92
711.378	42.93
711.562	42.83
711.745	41.91
711.928	41.47
712.112	41.01
712.295	40.44
712.478	40.4
712.662	40.17
712.845	39.84
713.028	39.17
713.212	38.92
713.395	38.91
713.578	38.83
713.761	39.78
713.945	40.38
714.128	40.95
714.311	41.63
714.494	41.02
714.677	40.62
714.86	39.96
715.043	40.58
715.227	40.74
715.41	40.79
715.593	40.94
715.776	41.05
715.959	40.43
716.142	39.82
716.325	39.08
716.508	39.46
716.691	39.8
716.874	39.86
717.057	39.84
717.239	39.41
717.422	39.51
717.605	39
717.788	38.57
717.971	40.14
718.154	40.65
718.337	41.21
718.519	40.26
718.702	40.77
718.885	40.42
719.068	40.4
719.25	41.39
719.433	41.4
719.616	42.39
719.798	42.56
719.981	42.08
720.164	41.35
720.346	41.39
720.529	42.69
720.712	42.13
720.894	43.12
721.077	42.92
721.259	43.46
721.442	43.76
721.624	43.19
721.807	42.97
721.989	42.88
722.172	43.12
722.354	43.34
722.537	43.39
722.719	43.94
722.901	43.99
723.084	43.9
723.266	42.43
723.448	43.16
723.631	43.01
723.813	43.62
723.995	43.13
724.178	43.69
724.36	43.52
724.542	42.84
724.724	42.95
724.907	42.38
725.089	43.16
725.271	44.09
725.453	42.51
725.635	42.68
725.817	42.71
725.999	43.33
726.181	44.37
726.364	44.42
726.546	44.97
726.728	44.07
726.91	44.56
727.092	44
727.274	44.04
727.456	44.28
727.638	43.27
727.819	43.24
728.001	41.87
728.183	41.16
728.365	41
728.547	40.3
728.729	40.79
728.911	41.53
729.093	41.47
729.274	39.69
729.456	39.7
729.638	40.71
729.82	40.47
730.001	40.3
730.183	40.98
730.365	40.98
730.546	41.64
730.728	41.29
730.91	40.19
731.091	40.37
731.273	41.31
731.455	41.84
731.636	41.54
731.818	41.94
731.999	42.8
732.181	41.95
732.362	41.44
732.544	41.55
732.725	41.43
732.907	42
733.088	41.97
733.27	42.25
733.451	41.59
733.633	42.05
733.814	41.77
733.995	40.96
734.177	40.67
734.358	41.53
734.539	40.87
734.721	41.67
734.902	41.35
735.083	41.7
735.264	41.71
735.446	43.44
735.627	42.69
735.808	42.6
735.989	44.39
736.17	45.3
736.351	45.84
736.533	46.16
736.714	45.84
736.895	45.33
737.076	44.29
737.257	44.05
737.438	42.44
737.619	43.23
737.8	42.41
737.981	42.55
738.162	42.14
738.343	41.11
738.524	41.69
738.705	40.74
738.886	40.7
739.067	41.4
739.247	41.47
739.428	40.95
739.609	39.7
739.79	40.17
739.971	40.55
740.151	40.9
740.332	40.85
740.513	40.59
740.694	41.39
740.874	41.56
741.055	42.13
741.236	41.94
741.417	42.63
741.597	43.18
741.778	44.72
741.958	43.66
742.139	43.19
742.32	43.45
742.5	43.35
742.681	43.95
742.861	44.44
743.042	43.7
743.222	43.78
743.403	44.03
743.583	44.65
743.764	43.36
743.944	43.08
744.124	43.84
744.305	44.29
744.485	44.44
744.666	44.45
744.846	44.84
745.026	45.67
745.207	46.14
745.387	46.56
745.567	47.53
745.747	47.47
745.928	47.08
746.108	45.91
746.288	45.2
746.468	45.67
746.648	45.73
746.829	45.37
747.009	44.67
747.189	44.1
747.369	43.34
747.549	42.2
747.729	42.11
747.909	41.95
748.089	41.89
748.269	42.64
748.449	41.65
748.629	41.29
748.809	41.05
748.989	40.9
749.169	41.86
749.349	42.71
749.529	42.92
749.709	42.93
749.889	43.56
750.068	43.56
750.248	44.2
750.428	44.69
750.608	44.13
750.788	44.43
750.967	44.59
751.147	43.91
751.327	44.18
751.507	43.37
751.686	43.58
751.866	44.6
752.046	45.58
752.225	45.03
752.405	44.8
752.585	45.73
752.764	46.35
752.944	45.67
753.123	46.33
753.303	45.84
753.482	46.33
753.662	46.02
753.841	45.17
754.021	44.98
754.2	44.75
754.38	44.98
754.559	44.5
754.739	43.83
754.918	44.84
755.097	43.93
755.277	43.14
755.456	43.72
755.635	44.69
755.815	44.92
755.994	44.41
756.173	43.59
756.352	44.28
756.532	45.29
756.711	44.71
756.89	44.61
757.069	45.9
757.248	45.87
757.427	45.5
757.607	44.26
757.786	43.67
757.965	43.15
758.144	43.93
758.323	43.36
758.502	42.94
758.681	43.04
758.86	42.28
759.039	40.24
759.218	40.06
759.397	40.52
759.576	40.42
759.755	39.76
759.934	39.08
760.113	38.45
760.291	38.66
760.47	38.09
760.649	38.77
760.828	39.43
761.007	39.48
761.186	40.53
761.364	38.73
761.543	39.66
761.722	40.61
761.901	40.64
762.079	41.56
762.258	40.89
762.437	40.67
762.615	39.64
762.794	39.6
762.972	40.82
763.151	39.81
763.33	40.31
763.508	39.8
763.687	39.87
763.865	40.44
764.044	39.45
764.222	38.85
764.401	39.19
764.579	39.86
764.758	39.55
764.936	39.9
765.114	39.92
765.293	40.77
765.471	41.09
765.65	40.41
765.828	40.47
766.006	40.97
766.184	42.09
766.363	41.35
766.541	40.47
766.719	40.13
766.898	40.18
767.076	40.72
767.254	40.71
767.432	41.85
767.61	42.25
767.788	43.44
767.967	42.84
768.145	42.46
768.323	42.63
768.501	43.71
768.679	43.99
768.857	42.77
769.035	43.15
769.213	43.91
769.391	42.32
769.569	42.72
769.747	41.77
769.925	42.41
770.103	43.81
770.281	43.74
770.459	44.04
770.636	44.66
770.814	44.31
770.992	44.09
771.17	43.18
771.348	44.05
771.525	44.52
771.703	45.45
771.881	45.47
772.059	45.54
772.236	44.64
772.414	45.41
772.592	44.49
772.769	45.57
772.947	45.99
773.125	46.27
773.302	47.65
773.48	47.02
773.657	47.26
773.835	46.54
774.013	47.14
774.19	48.75
774.368	46.69
774.545	47.88
774.723	48
774.9	48.9
775.077	47.92
775.255	46.56
775.432	48.51
775.61	46.93
775.787	47.47
775.964	46.38
776.142	46.32
776.319	47.84
776.496	47.68
776.674	47.78
776.851	47.74
777.028	48.64
777.205	48.77
777.382	46.03
777.56	47.7
777.737	52.27
777.914	50.91
778.091	52.26
778.268	51
778.445	52.45
778.622	53.33
778.8	51.61
778.977	52.7
779.154	56.63
779.331	58.19
779.508	58.22
779.685	54.44
779.862	53.39
780.038	53.05
780.215	55.01
780.392	54.19
780.569	53.26
780.746	55.27
780.923	54.54
781.1	48.71
781.277	46.74
781.453	43.93
781.63	43.25
781.807	45.14
781.984	44.34
782.16	43.55
782.337	44.3
782.514	45.18
782.691	45.57
782.867	43.89
783.044	46.28
783.221	48.73
783.397	51.61
783.574	52.97
783.75	52.2
783.927	53.45
784.103	53.2
784.28	49.75
784.456	49.49
784.633	47.25
784.809	47.56
784.986	45.23
785.162	44.44
785.339	41.9
785.515	41.45
785.692	43.19
785.868	43.74
786.044	45.33
786.221	48.12
786.397	50.2
786.573	49.95
786.749	49.64
786.926	51.65
787.102	52.76
787.278	54
787.454	54.51
787.631	53.03
787.807	50.05
787.983	49.79
788.159	49.19
788.335	47.96
788.511	49.26
788.687	48.58
788.863	49.04
789.039	48.06
789.216	47.55
789.392	47.87
789.568	47.54
789.744	48.85
789.919	47.08
790.095	47.01
790.271	43.71
790.447	43.34
790.623	43.69
790.799	42.87
790.975	41.74
791.151	45.01
791.327	44.24
791.502	44.31
791.678	45.16
791.854	46.65
792.03	45.81
792.205	47.8
792.381	46.86
792.557	48.5
792.733	49.09
792.908	50.39
793.084	47.44
793.259	46.57
793.435	45.34
793.611	47.84
793.786	47.33
793.962	46.63
794.137	47.89
794.313	47.85
794.488	47.26
794.664	47.53
794.839	48.9
795.015	47.49
795.19	46.82
795.366	48.28
795.541	44.02
795.716	42.62
795.892	44.77
796.067	45.82
796.242	48.19
796.418	47.84
796.593	47.5
796.768	45.24
796.944	48.67
797.119	48.54
797.294	52.58
797.469	53.87
797.644	55.92
797.82	56.75
797.995	54.39
798.17	54.23
798.345	55.28
798.52	54.12
798.695	53.16
798.87	48.88
799.045	49.42
799.22	44.88
799.395	45.05
799.57	46.46
799.745	44.95
799.92	46.15
800.095	46.34
800.27	45.91
800.445	47.49
800.62	47.08
800.795	48.36
800.97	50.07
801.145	49.31
801.319	47.1
801.494	43.96
801.669	46.56
801.844	46.76
802.018	46.01
802.193	45.41
802.368	44.9
802.543	46.03
802.717	48.6
802.892	47.89
803.067	50.75
803.241	51.25
803.416	50.45
803.59	49.54
803.765	48.07
803.94	47.08
804.114	45.07
804.289	47.09
804.463	48.19
804.638	47.05
804.812	47.75
804.986	45.13
805.161	46.36
805.335	49.73
805.51	49.21
805.684	49.06
805.858	51.13
806.033	53.02
806.207	48.81
806.381	51.4
806.556	52.81
806.73	55.63
806.904	57.39
807.078	60.24
807.253	59.95
807.427	58.34
807.601	56.82
807.775	56.26
807.949	57.13
808.123	56.3
808.298	55.51
808.472	54.74
808.646	51.58
808.82	50.8
808.994	47.73
809.168	45.05
809.342	48.61
809.516	50.78
809.69	51.11
809.864	50.22
810.038	53.49
810.212	51.12
810.385	49.66
810.559	52.91
810.733	52.18
810.907	53.94
811.081	56.07
811.255	55.98
811.428	55.53
811.602	53.68
811.776	53.55
811.95	54.99
812.123	57.6
812.297	58.41
812.471	59.28
812.644	61.08
812.818	58.99
812.992	62.03
813.165	59.06
813.339	60.93
813.512	62.27
813.686	60.76
813.86	58.89
814.033	55.79
814.207	52.64
814.38	48.31
814.554	48.27
814.727	51.49
814.9	48.72
815.074	47.6
815.247	44.76
815.421	43.51
815.594	46.89
815.767	48.02
815.941	50.1
816.114	55.4
816.287	56.1
816.46	55.69
816.634	51.14
816.807	53.35
816.98	55.88
817.153	57.37
817.327	58.57
817.5	54.79
817.673	54.6
817.846	54.12
818.019	55.07
818.192	55.3
818.365	53.65
818.538	55.11
818.711	50.63
818.884	46.45
819.057	47.61
819.23	45.77
819.403	50.1
819.576	50.4
819.749	50.99
819.922	48.53
820.095	49.26
820.268	50
820.441	51.63
820.614	51.92
820.786	51.73
820.959	51.17
821.132	49.55
821.305	45.47
821.477	43.96
821.65	42.53
821.823	42.75
821.996	41.89
822.168	41.29
822.341	40.31
822.514	40.15
822.686	39.96
822.859	39.59
823.031	39.58
823.204	39.46
823.376	39.19
823.549	38.95
823.722	38.45
823.894	38.53
824.067	38.67
824.239	38.48
824.411	38.31
824.584	38.91
824.756	38.39
824.929	38.66
825.101	39.28
825.273	39.9
825.446	40.02
825.618	40.33
825.79	40.19
825.963	39.74
826.135	40.61
826.307	40.6
826.479	40.88
826.652	41.29
826.824	42.56
826.996	42.1
827.168	42.94
827.34	43.66
827.512	43.68
827.684	43.13
827.856	43.4
828.029	41.85
828.201	42.18
828.373	41.57
828.545	41.75
828.717	41.71
828.889	42.52
829.061	42.08
829.232	41.49
829.404	41.35
829.576	42.89
829.748	44.21
829.92	46.02
830.092	46.87
830.264	46.6
830.436	47.39
830.607	46.68
830.779	47.35
830.951	47.3
831.123	48.83
831.294	48.78
831.466	48.16
831.638	47.67
831.809	47.87
831.981	48.28
832.153	50.21
832.324	49.7
832.496	47.6
832.667	49.79
832.839	52.46
833.011	51.21
833.182	53.78
833.354	52
833.525	51.37
833.697	48.46
833.868	47.93
834.039	47.15
834.211	47.66
834.382	48.51
834.554	48.14
834.725	45.16
834.896	44.82
835.068	42.64
835.239	43.94
835.41	44.81
835.581	45.62
835.753	44.85
835.924	46.12
836.095	43.84
836.266	42.85
836.438	42.01
836.609	42.98
836.78	43.95
836.951	47.54
837.122	47.31
837.293	48.24
837.464	50.74
837.635	53.22
837.806	51.24
837.977	54.87
838.148	58.99
838.319	58.87
838.49	59.76
838.661	58.14
838.832	58.48
839.003	57.93
839.174	56.08
839.345	57.74
839.516	56.44
839.687	63.64
839.857	59.69
840.028	56.15
840.199	57.63
840.37	58.47
840.54	65.5
840.711	61.92
840.882	61.91
841.053	63.28
841.223	60.02
841.394	61.66
841.564	63.68
841.735	69.22
841.906	71.02
842.076	69.23
842.247	65.55
842.417	60.79
842.588	62.59
842.758	65.01
842.929	61.51
843.099	67.23
843.27	64.26
843.44	59.13
843.611	57.52
843.781	52.48
843.951	51.72
844.122	51.68
844.292	48.44
844.462	49.72
844.633	52.25
844.803	53.09
844.973	49.94
845.144	55.8
845.314	52.28
845.484	58.33
845.654	63.01
845.824	69.61
845.995	68.23
846.165	73.53
846.335	74.13
846.505	80.44
846.675	82.27
846.845	76.58
847.015	81.59
847.185	91.16
847.355	82.18
847.525	84.7
847.695	79.23
847.865	90.65
848.035	97.63
848.205	90.9
848.375	78.38
848.545	86.11
848.715	82.44
848.884	73.91
849.054	72.88
849.224	75.29
849.394	78.63
849.564	81.16
849.733	81.96
849.903	76.35
850.073	75.46
850.243	76.82
850.412	82.91
850.582	93.39
850.752	96.81
850.921	87.98
851.091	94.29
851.26	96.11
851.43	84.08
851.599	83.98
851.769	76.13
851.939	79.7
852.108	77.44
852.278	68.77
852.447	64.89
852.616	70.32
852.786	67.1
852.955	67.25
853.125	62.39
853.294	77.8
853.463	75.34
853.633	84.37
853.802	90.78
853.971	110.91
854.141	110.22
854.31	106.51
854.479	98.27
854.648	130.11
854.818	110.78
854.987	107.68
855.156	90.32
855.325	87.57
855.494	91.61
855.663	80
855.832	73.27
856.001	66.34
856.171	56.41
856.34	56.07
856.509	52.68
856.678	54.36
856.847	58.75
857.016	62.42
857.185	62.49
857.353	70.76
857.522	79.73
857.691	63.59
857.86	71.6
858.029	84.28
858.198	92.86
858.367	88.74
858.535	75.48
858.704	87.01
858.873	91.95
859.042	95.53
859.21	98.16
859.379	80.31
859.548	80.56
859.717	83.42
859.885	84.37
860.054	82.45
860.222	74
860.391	75.37
860.56	76.04
860.728	74.51
860.897	76.82
861.065	72.72
861.234	79.71
861.402	80.9
861.571	76.55
861.739	81.98
861.908	75.36
862.076	92.41
862.244	94.63
862.413	94.03
862.581	98.11
862.749	92.91
862.918	80.55
863.086	75.58
863.254	78.44
863.423	82.64
863.591	65.41
863.759	72.08
863.927	44.33
864.096	45.44
864.264	39.33
864.432	37.77
864.6	39.37
864.768	49.55
864.936	58.36
865.104	59.4
865.272	65.6
865.44	76.6
865.608	71.7
865.776	83.61
865.944	92.45
866.112	106.56
866.28	109.36
866.448	102.89
866.616	104.94
866.784	101.82
866.952	98.71
867.12	106.77
867.288	99.58
867.455	106.81
867.623	109.67
867.791	97.17
867.959	93.49
868.127	93.11
868.294	85.38
868.462	83.59
868.63	83.29
868.797	89.15
868.965	68.42
869.133	69.98
869.3	78.96
869.468	88.24
869.636	78.63
869.803	81.44
869.971	73.09
870.138	76.97
870.306	72.78
870.473	72.45
870.641	62.94
870.808	65.25
870.975	68.59
871.143	58.42
871.31	59.97
871.478	52.77
871.645	45.51
871.812	66.38
871.98	82.23
872.147	79.7
872.314	80.49
872.482	85.72
872.649	90.56
872.816	94.64
872.983	105.57
873.15	102.94
873.318	117.31
873.485	145.38
873.652	132.03
873.819	125.57
873.986	138.9
874.153	146.44
874.32	159.31
874.487	163.2
874.654	186.93
874.821	185.46
874.988	177.11
875.155	189.95
875.322	142.78
875.489	148.92
875.656	135.24
875.823	130.23
875.99	95.76
876.157	89.02
876.324	88.64
876.49	73.43
876.657	68.54
876.824	69.72
876.991	59.79
877.157	55.22
877.324	62.71
877.491	68.92
877.658	62.5
877.824	64.91
877.991	63.24
878.157	70.51
878.324	74.67
878.491	78
878.657	79.46
878.824	88.07
878.99	84.75
879.157	81.53
879.323	74.4
879.49	80.91
879.656	85.5
879.823	93.19
879.989	82.51
880.156	79.66
880.322	72.27
880.488	62.25
880.655	59.63
880.821	65.72
880.987	64.81
881.154	66.76
881.32	62.15
881.486	67.28
881.652	64.75
881.819	63.27
881.985	61.43
882.151	61.19
882.317	60.02
882.483	57.77
882.649	55.05
882.816	50.14
882.982	48.87
883.148	46.56
883.314	43.13
883.48	40.51
883.646	40.82
883.812	40.94
883.978	42.38
884.144	44.13
884.31	43.54
884.476	42.52
884.642	43.12
884.807	43.51
884.973	42.99
885.139	44.25
885.305	45.57
885.471	45.76
885.637	46.16
885.802	45.32
885.968	46.28
886.134	47.85
886.3	49.41
886.465	52.51
886.631	52.33
886.797	58.66
886.962	58.95
887.128	61.3
887.293	60.68
887.459	60.87
887.625	64.61
887.79	61.78
887.956	58.7
888.121	59.7
888.287	58.44
888.452	63.55
888.618	58.91
888.783	59.11
