Data from CB_001_Reflection_1.txt Node
Date: Wed Nov 11 18:10:12 EST 2015
User: robert
Spectrometer: USB4E03001
Autoset integration time: false
Trigger mode: 4
Integration Time (sec): 1.000000E-1
Scans to average: 15
Electric dark correction enabled: true
Nonlinearity correction enabled: false
Boxcar width: 5
Stray light correction enabled: false
XAxis mode: Wavelengths
Stop averaging: false
Number of Pixels in Spectrum: 3648
>>>>>Begin Spectral Data<<<<<
177.566	-351.04
177.785	-774.55
178.005	-272.04
178.225	-2305.3
178.445	190.98
178.665	128.32
178.885	-244.77
179.105	737.24
179.324	365.61
179.544	-293.1
179.764	-233.48
179.984	-317.12
180.204	515.17
180.423	-233.76
180.643	-350.23
180.863	1048.1
181.083	2864.46
181.302	309.52
181.522	-1699.4
181.742	-645.9
181.961	462.26
182.181	212.92
182.401	295.03
182.621	1587.25
182.84	289
183.06	335.26
183.279	352.12
183.499	1021.4
183.719	1055.14
183.938	578.27
184.158	1157.82
184.377	-1863.8
184.597	-398.84
184.816	-253.33
185.036	-713.21
185.256	-253.2
185.475	818.47
185.695	-12052.87
185.914	408.7
186.134	221.34
186.353	268.25
186.572	419.68
186.792	276.45
187.011	202.64
187.231	182.78
187.45	230.52
187.67	178.82
187.889	1722.15
188.108	417.16
188.328	885.77
188.547	-650.81
188.766	-692.93
188.986	227.7
189.205	-13154.55
189.424	677.9
189.644	6506.61
189.863	350.62
190.082	362.59
190.302	276.52
190.521	210.68
190.74	114.64
190.959	94.91
191.178	112.8
191.398	113.62
191.617	72.95
191.836	73.31
192.055	64.21
192.274	50.79
192.494	42.03
192.713	50.38
192.932	59
193.151	75.98
193.37	100.77
193.589	94.22
193.808	116.33
194.027	129.64
194.246	145.16
194.465	138.79
194.685	110.82
194.904	121.7
195.123	242.45
195.342	1013.23
195.561	113.85
195.78	97.37
195.999	77.69
196.218	-32.47
196.436	82.34
196.655	244.96
196.874	198.65
197.093	208.4
197.312	336.84
197.531	-4.62
197.75	-186.37
197.969	-54.85
198.188	-53.58
198.407	-97.99
198.625	-274.49
198.844	-291.39
199.063	-273.11
199.282	-237.68
199.501	-161.15
199.719	-230.05
199.938	-4537.89
200.157	451.37
200.376	646.85
200.594	1112.58
200.813	-37648.57
201.032	2246.91
201.251	515.71
201.469	571.56
201.688	525.88
201.907	498.99
202.125	423.98
202.344	275.41
202.563	303.46
202.781	321.85
203	249.17
203.218	229.52
203.437	247.35
203.656	251.9
203.874	190.47
204.093	172.36
204.311	130.08
204.53	102.97
204.748	48.77
204.967	21.62
205.185	29.63
205.404	51.59
205.622	29.33
205.841	43.03
206.059	75.74
206.278	126.03
206.496	123.65
206.715	200.83
206.933	344.61
207.151	283.41
207.37	359.35
207.588	333.31
207.806	492.46
208.025	612.85
208.243	515.99
208.461	200.29
208.68	206.56
208.898	267.83
209.116	346.19
209.335	249.3
209.553	-817.89
209.771	347.65
209.989	-3095.22
210.208	-1379.53
210.426	-581.14
210.644	-270.68
210.862	-178.31
211.081	-148.65
211.299	-142.93
211.517	-273.83
211.735	-249.14
211.953	-423.96
212.171	-134.68
212.39	-1234.93
212.608	-4273.83
212.826	552.1
213.044	340.14
213.262	283.87
213.48	219.17
213.698	328.74
213.916	-1384.93
214.134	-463.04
214.352	-879.84
214.57	851.99
214.788	251.91
215.006	251.01
215.224	248.36
215.442	173.14
215.66	166.63
215.878	176.28
216.096	179.83
216.314	134.37
216.532	133.47
216.75	126.97
216.968	117.14
217.185	175.79
217.403	171.89
217.621	188.77
217.839	237.82
218.057	4413.57
218.275	-2248.71
218.492	-204.64
218.71	-164.3
218.928	-221.43
219.146	-140.75
219.363	-84.57
219.581	-174.82
219.799	-207.51
220.017	-107.93
220.234	-103.74
220.452	-125.23
220.67	-116.02
220.887	-270.33
221.105	-157.93
221.323	-195.58
221.54	-86.45
221.758	-74
221.976	-14.18
222.193	-29.58
222.411	-114.52
222.629	-113.48
222.846	-95.19
223.064	-36.35
223.281	-23.94
223.499	-36.44
223.716	-43.93
223.934	-369.1
224.151	-671.39
224.369	-498.18
224.586	235825
224.804	-743.17
225.021	-397.49
225.239	-299.15
225.456	-408.7
225.674	-440.83
225.891	-177.74
226.108	-182.24
226.326	-98.47
226.543	-92.76
226.76	-79.9
226.978	-56.76
227.195	-40.24
227.413	-27.7
227.63	-26.16
227.847	-24.5
228.064	-16.3
228.282	-14.64
228.499	-3.19
228.716	-4.06
228.934	-2.61
229.151	-1.31
229.368	2.23
229.585	-0.68
229.802	1.55
230.02	1.52
230.237	3.93
230.454	5.03
230.671	6.59
230.888	-0.01
231.105	1.42
231.323	0.11
231.54	3.12
231.757	-1.84
231.974	0.15
232.191	-1.09
232.408	-4.03
232.625	-9.11
232.842	-13.35
233.059	-11.21
233.276	-3.14
233.493	-4.61
233.71	-5.85
233.927	-7.85
234.144	-0.7
234.361	-3.16
234.578	-7.15
234.795	-2.76
235.012	-5.74
235.229	-1.97
235.446	-6.48
235.663	-17.65
235.879	-11.27
236.096	-10.57
236.313	-16.7
236.53	-29.06
236.747	-21.69
236.964	-20.46
237.181	-29.36
237.397	-14.03
237.614	-14.1
237.831	-15.75
238.048	-11.21
238.264	-16.39
238.481	-21.86
238.698	-20.99
238.915	-22.65
239.131	-23.59
239.348	-30.23
239.565	-21.09
239.781	-22.57
239.998	-21.57
240.215	-15.85
240.431	-12.6
240.648	-10.14
240.865	-3.83
241.081	-2.7
241.298	-0.01
241.514	0.19
241.731	4.53
241.947	4.14
242.164	5.15
242.38	6.18
242.597	5.8
242.814	7.04
243.03	5.36
243.246	4.75
243.463	6.52
243.679	8.53
243.896	11.19
244.112	10.28
244.329	9.29
244.545	8.87
244.762	8.73
244.978	10.26
245.194	8.6
245.411	10.77
245.627	10.71
245.843	10.92
246.06	10.37
246.276	7.33
246.492	7.44
246.709	7.56
246.925	6.18
247.141	5.51
247.357	4.88
247.574	5.45
247.79	5.22
248.006	4.72
248.222	4.64
248.439	3.16
248.655	3.88
248.871	3.44
249.087	4.72
249.303	5.18
249.519	4.73
249.736	4.75
249.952	3.02
250.168	2.48
250.384	3.43
250.6	1.18
250.816	2.05
251.032	0.38
251.248	1.34
251.464	-1.92
251.68	-3.4
251.896	-0.58
252.112	-1.08
252.328	-0.15
252.544	0.96
252.76	0.96
252.976	1.53
253.192	1.61
253.408	0.9
253.624	-0.22
253.84	-1.75
254.056	0.38
254.272	-3.76
254.487	-4.6
254.703	-3.25
254.919	-5.01
255.135	-9.16
255.351	-9.42
255.567	-8.16
255.782	-6.92
255.998	-4.64
256.214	-3.23
256.43	-5.18
256.646	-1.33
256.861	-1.48
257.077	-3.34
257.293	-6.62
257.508	-3.16
257.724	-2.87
257.94	-5.06
258.155	-2.99
258.371	-2.06
258.587	-0.46
258.802	0.46
259.018	0.94
259.234	1.88
259.449	2.55
259.665	3.46
259.88	3.74
260.096	3.63
260.312	4.56
260.527	3.95
260.743	3.07
260.958	2.55
261.174	2.63
261.389	1.14
261.605	0.8
261.82	0.73
262.036	-0.56
262.251	-0.73
262.466	-1.32
262.682	-3.4
262.897	-3.64
263.113	-3.49
263.328	-2.51
263.543	-2.15
263.759	-0.61
263.974	-1.49
264.189	-3.09
264.405	-2.04
264.62	-4.33
264.835	-5
265.051	-3.49
265.266	-6.79
265.481	-4.51
265.696	-5.2
265.912	-6.65
266.127	-6.01
266.342	-5.45
266.557	-6.75
266.773	-5.97
266.988	-7.06
267.203	-7.45
267.418	-6.68
267.633	-4.36
267.848	-5.93
268.064	-5.28
268.279	-4.3
268.494	-5.31
268.709	-4.75
268.924	-3.16
269.139	-2.89
269.354	-0.23
269.569	3.42
269.784	4.03
269.999	3.21
270.214	2.78
270.429	0.37
270.644	0.65
270.859	0.63
271.074	0.81
271.289	1.75
271.504	2.34
271.719	0.85
271.934	-1.65
272.149	-2.27
272.363	-2.35
272.578	-1.87
272.793	1.21
273.008	0.52
273.223	1.15
273.438	1.06
273.653	0.44
273.867	1.28
274.082	0.77
274.297	1.97
274.512	1.57
274.726	2.83
274.941	3.3
275.156	0.17
275.371	-0.15
275.585	-2.36
275.8	-2.84
276.015	-4.41
276.229	-7.39
276.444	-5.7
276.659	-7.87
276.873	-8.08
277.088	-8.48
277.302	-9.37
277.517	-9.81
277.732	-9.97
277.946	-8.34
278.161	-8.19
278.375	-6.26
278.59	-5.59
278.804	-5.53
279.019	-2.35
279.233	-0.21
279.448	1.34
279.662	1.67
279.877	3.51
280.091	4.38
280.306	7.21
280.52	7.35
280.735	6.28
280.949	8.18
281.163	8.38
281.378	6.84
281.592	6.88
281.806	5.4
282.021	4.84
282.235	4.31
282.449	3.83
282.664	1.49
282.878	1.34
283.092	2.04
283.307	1.57
283.521	2.19
283.735	2.56
283.949	1.5
284.164	1.36
284.378	2.48
284.592	2.4
284.806	3.97
285.02	3.62
285.234	4.01
285.449	4.9
285.663	4.05
285.877	3.4
286.091	3.14
286.305	3.43
286.519	4.05
286.733	4.04
286.947	3.59
287.161	2.92
287.375	3.39
287.589	2.97
287.803	1.85
288.017	2.09
288.231	1.63
288.445	1.58
288.659	1.57
288.873	0.92
289.087	0.58
289.301	1.91
289.515	2.12
289.729	2.28
289.943	2.78
290.157	2.28
290.371	2.35
290.584	3.6
290.798	4.01
291.012	3.47
291.226	3.48
291.44	3.03
291.654	2.91
291.867	3.81
292.081	3.74
292.295	2.92
292.509	3.83
292.722	3.89
292.936	2.81
293.15	3.02
293.364	3.81
293.577	4.89
293.791	6.75
294.005	6.52
294.218	5.96
294.432	6.21
294.645	7.88
294.859	7.05
295.073	5.92
295.286	5.89
295.5	5.86
295.713	5.58
295.927	5.61
296.14	5.36
296.354	5.44
296.568	4.48
296.781	4.68
296.994	3.64
297.208	3.75
297.421	5.15
297.635	5.28
297.848	5.34
298.062	6.4
298.275	5.65
298.489	4.81
298.702	6.05
298.915	6.98
299.129	6.85
299.342	7.76
299.555	8.68
299.769	9.04
299.982	9.47
300.195	10.32
300.409	8.45
300.622	8.94
300.835	8.97
301.048	7.6
301.262	7.06
301.475	7.34
301.688	7.07
301.901	6.48
302.115	5.88
302.328	5.61
302.541	4.89
302.754	5.94
302.967	6.27
303.18	7.51
303.393	8.05
303.607	7.31
303.82	5.83
304.033	5.34
304.246	5.49
304.459	4.43
304.672	4.16
304.885	4.53
305.098	3.13
305.311	4.51
305.524	3.76
305.737	3.2
305.95	3.81
306.163	4.61
306.376	5.3
306.589	6.06
306.802	5.86
307.015	6.43
307.228	4.95
307.44	6.89
307.653	6.1
307.866	6.41
308.079	5.98
308.292	6.98
308.505	8.15
308.718	7.43
308.93	6.35
309.143	6.92
309.356	6.6
309.569	7.21
309.781	7.14
309.994	5.87
310.207	6.24
310.42	7.09
310.632	6.26
310.845	6.58
311.058	7.18
311.27	7.21
311.483	8.31
311.696	8.08
311.908	8.19
312.121	7.73
312.333	8.03
312.546	8.25
312.759	7.08
312.971	6.97
313.184	6
313.396	7.34
313.609	7.99
313.821	7.2
314.034	8.95
314.246	9.21
314.459	9.3
314.671	9.89
314.884	8.72
315.096	10.26
315.309	10.3
315.521	9.95
315.733	7.63
315.946	8.48
316.158	8.58
316.371	6.93
316.583	6.2
316.795	6.95
317.008	6.4
317.22	7.14
317.432	6.52
317.644	6.89
317.857	7.28
318.069	6.85
318.281	5.88
318.494	5.72
318.706	5.01
318.918	5.24
319.13	3.96
319.342	4.19
319.555	4.06
319.767	3.82
319.979	3.08
320.191	1.85
320.403	2.18
320.615	1.51
320.827	1.22
321.039	2.1
321.252	3
321.464	4.01
321.676	3.35
321.888	2.49
322.1	2.62
322.312	3.38
322.524	7.56
322.736	9.05
322.948	9.44
323.16	11.1
323.372	11.4
323.584	10.2
323.796	10.36
324.007	10.7
324.219	11.25
324.431	12.03
324.643	11.76
324.855	9.99
325.067	9.97
325.279	10.2
325.491	8.81
325.702	8.2
325.914	9.68
326.126	9.77
326.338	10.46
326.55	11.22
326.761	11.4
326.973	12.46
327.185	12.13
327.396	11.54
327.608	11.43
327.82	12.44
328.032	13.32
328.243	12.28
328.455	12.48
328.666	12.83
328.878	11.98
329.09	10.72
329.301	8.94
329.513	9.44
329.725	9.86
329.936	9.56
330.148	9.46
330.359	8.66
330.571	9.22
330.782	8.6
330.994	7.93
331.205	8.87
331.417	9.47
331.628	9.92
331.84	9.41
332.051	9.84
332.262	9.89
332.474	9.94
332.685	11.37
332.897	11.81
333.108	12.51
333.319	12.16
333.531	11.72
333.742	12.15
333.953	13.73
334.165	14.98
334.376	13.84
334.587	14.73
334.799	13.84
335.01	13.39
335.221	13.82
335.432	14.38
335.644	15.05
335.855	16.01
336.066	16.9
336.277	15.88
336.488	15.29
336.7	15.99
336.911	16.86
337.122	17.64
337.333	18.26
337.544	17.66
337.755	17.42
337.966	16.08
338.177	15.04
338.388	14.23
338.599	15.14
338.811	14.66
339.022	14.64
339.233	13.24
339.444	12.73
339.655	11.79
339.866	12.62
340.076	11.76
340.287	13.32
340.498	14.34
340.709	14.67
340.92	13.72
341.131	14.13
341.342	13.97
341.553	14.74
341.764	14.81
341.975	15.36
342.185	14.65
342.396	15.8
342.607	15.34
342.818	13.77
343.029	13.15
343.239	13.62
343.45	13.43
343.661	13.38
343.872	13.02
344.082	13.24
344.293	12.25
344.504	12.9
344.714	12.51
344.925	13.61
345.136	14.23
345.346	15.33
345.557	15.36
345.768	15.53
345.978	15.56
346.189	15.45
346.399	15.36
346.61	15.97
346.821	15.71
347.031	14.8
347.242	14.63
347.452	15.16
347.663	14.64
347.873	15.01
348.084	15.01
348.294	15.08
348.504	14.63
348.715	14.51
348.925	14.29
349.136	13.87
349.346	15.71
349.557	15.35
349.767	14.97
349.977	14.74
350.188	14.7
350.398	15.13
350.608	15.21
350.819	15.58
351.029	15.81
351.239	16.41
351.449	16.22
351.66	15.38
351.87	15.18
352.08	15.3
352.29	15.55
352.501	15.43
352.711	15.19
352.921	14.96
353.131	15.56
353.341	15.89
353.552	14.68
353.762	15.13
353.972	15.23
354.182	15.88
354.392	15.48
354.602	14.64
354.812	14.22
355.022	14.21
355.232	14.48
355.442	14.03
355.652	13.87
355.862	14.95
356.072	14.43
356.282	14.14
356.492	14
356.702	14.96
356.912	15.41
357.122	15.41
357.332	15.29
357.542	14.93
357.752	14.94
357.962	14.54
358.171	14.44
358.381	14.79
358.591	15.38
358.801	15.63
359.011	15.64
359.221	15.39
359.43	15.4
359.64	15.25
359.85	15.62
360.06	15.77
360.269	16.32
360.479	16.21
360.689	16.16
360.899	15.89
361.108	15.69
361.318	15.42
361.528	15.51
361.737	15.55
361.947	15.69
362.156	14.95
362.366	15.23
362.576	14.46
362.785	14.57
362.995	14.54
363.204	14.14
363.414	13.56
363.623	13.17
363.833	13.11
364.042	13
364.252	12.67
364.461	13.62
364.671	13.24
364.88	13.45
365.09	12.84
365.299	12.78
365.509	12.54
365.718	12.84
365.927	12.76
366.137	12.74
366.346	12.49
366.555	12.35
366.765	11.63
366.974	11.06
367.183	11.24
367.393	11.08
367.602	10.78
367.811	11.38
368.021	11.02
368.23	11.57
368.439	11.19
368.648	11.71
368.857	12.1
369.067	11.69
369.276	12.24
369.485	12.31
369.694	13.02
369.903	13.07
370.112	12.79
370.321	13.02
370.531	11.7
370.74	11.47
370.949	10.89
371.158	10.83
371.367	11.05
371.576	10.84
371.785	10.86
371.994	10.68
372.203	10.63
372.412	10.72
372.621	10.91
372.83	12.13
373.039	12.35
373.248	12.7
373.457	12.3
373.666	12.87
373.874	12.81
374.083	12.84
374.292	12.18
374.501	11.82
374.71	11.57
374.919	11.13
375.128	10.54
375.336	10.26
375.545	9.69
375.754	9.56
375.963	9.12
376.171	9.17
376.38	8.93
376.589	9.08
376.798	9.38
377.006	9.11
377.215	8.92
377.424	9.13
377.632	9.28
377.841	9.46
378.05	9.16
378.258	9.06
378.467	9.04
378.675	8.6
378.884	8.52
379.093	8.44
379.301	9.1
379.51	9.12
379.718	8.83
379.927	8.77
380.135	8.74
380.344	8.96
380.552	8.93
380.761	9.11
380.969	9.36
381.177	9.77
381.386	9.59
381.594	8.77
381.803	8.61
382.011	8.6
382.219	8.32
382.428	8.25
382.636	8.48
382.845	8.65
383.053	8.42
383.261	8.01
383.469	8
383.678	7.76
383.886	8.02
384.094	8.07
384.302	7.86
384.511	8.23
384.719	8.49
384.927	8.68
385.135	8.57
385.343	8.02
385.552	8.37
385.76	7.87
385.968	8.11
386.176	7.85
386.384	7.91
386.592	7.53
386.8	6.94
387.008	6.35
387.216	6.3
387.424	6.37
387.633	6.9
387.841	6.84
388.049	6.69
388.257	7.03
388.465	7.08
388.672	6.64
388.88	6.7
389.088	7.07
389.296	7.29
389.504	7.4
389.712	7.31
389.92	6.93
390.128	6.82
390.336	6.64
390.544	6.18
390.751	6.18
390.959	6.4
391.167	6.68
391.375	6.78
391.583	6.4
391.79	5.69
391.998	5.61
392.206	5.66
392.414	5.96
392.621	6.35
392.829	6.55
393.037	6.1
393.244	5.92
393.452	5.81
393.66	5.6
393.867	6.17
394.075	6.53
394.283	6.23
394.49	6.15
394.698	5.95
394.905	5.71
395.113	5.4
395.32	5.89
395.528	5.96
395.735	6.07
395.943	5.71
396.15	5
396.358	4.78
396.565	5.02
396.773	5.01
396.98	4.7
397.188	4.85
397.395	5.03
397.602	4.81
397.81	4.84
398.017	4.94
398.225	5.37
398.432	5.83
398.639	6.29
398.847	6.24
399.054	6.06
399.261	6.17
399.468	6.39
399.676	6.43
399.883	6.3
400.09	6.47
400.297	6.02
400.505	5.93
400.712	6.07
400.919	6.12
401.126	5.86
401.333	6.08
401.54	6.38
401.748	6
401.955	5.68
402.162	5.82
402.369	5.53
402.576	5.71
402.783	5.83
402.99	5.66
403.197	5.38
403.404	5.12
403.611	4.87
403.818	4.44
404.025	4.68
404.232	4.85
404.439	4.9
404.646	4.85
404.853	5.01
405.06	4.76
405.267	4.77
405.474	4.62
405.681	5.25
405.887	5.38
406.094	5.72
406.301	5.38
406.508	5.4
406.715	5.42
406.922	5.55
407.128	5.47
407.335	5.81
407.542	5.9
407.749	5.9
407.955	5.83
408.162	6.11
408.369	5.97
408.575	6.14
408.782	6.24
408.989	6.27
409.195	6.37
409.402	6.39
409.609	6.27
409.815	6.28
410.022	6.37
410.228	6.06
410.435	5.81
410.642	6
410.848	6
411.055	5.97
411.261	5.93
411.468	6.14
411.674	5.96
411.881	5.66
412.087	5.62
412.294	5.48
412.5	5.61
412.706	5.74
412.913	5.22
413.119	5.26
413.326	5.27
413.532	4.98
413.738	4.74
413.945	4.61
414.151	4.93
414.357	4.97
414.564	5.34
414.77	5.35
414.976	5.11
415.182	5.54
415.389	5.62
415.595	5.67
415.801	5.71
416.007	6.01
416.214	5.92
416.42	5.74
416.626	5.58
416.832	5.47
417.038	5.46
417.244	5.41
417.45	5.23
417.657	4.95
417.863	4.81
418.069	4.86
418.275	4.68
418.481	4.83
418.687	4.9
418.893	4.95
419.099	5.1
419.305	5.26
419.511	5.28
419.717	5.39
419.923	5.61
420.129	5.65
420.335	5.78
420.541	5.75
420.746	5.98
420.952	6
421.158	6.15
421.364	5.96
421.57	5.83
421.776	5.86
421.982	5.8
422.187	5.64
422.393	5.68
422.599	5.74
422.805	5.69
423.01	5.56
423.216	5.44
423.422	5.24
423.628	5.37
423.833	5.42
424.039	5.69
424.245	5.74
424.45	5.97
424.656	5.85
424.862	5.8
425.067	5.88
425.273	5.95
425.478	6.12
425.684	6.32
425.889	6.19
426.095	6.19
426.301	5.99
426.506	6
426.712	5.85
426.917	6.06
427.123	5.93
427.328	5.71
427.533	5.54
427.739	5.4
427.944	5.21
428.15	5.22
428.355	5.28
428.561	5.24
428.766	4.96
428.971	4.9
429.177	4.78
429.382	4.85
429.587	5.16
429.793	5.09
429.998	5.3
430.203	5.42
430.408	5.16
430.614	5.11
430.819	5.24
431.024	5.21
431.229	5.33
431.434	5.35
431.64	5.24
431.845	5.22
432.05	5.47
432.255	5.33
432.46	5.24
432.665	5.47
432.87	5.47
433.076	5.5
433.281	5.62
433.486	5.52
433.691	5.51
433.896	5.54
434.101	5.54
434.306	5.5
434.511	5.36
434.716	5.28
434.921	5.32
435.126	5.3
435.331	5.1
435.535	5.2
435.74	5.23
435.945	5.37
436.15	5.42
436.355	5.38
436.56	5.1
436.765	5.09
436.97	5.14
437.174	5.05
437.379	5
437.584	5.17
437.789	5.08
437.993	5.2
438.198	5.18
438.403	5.09
438.608	5.06
438.812	5.19
439.017	5.3
439.222	5.44
439.426	5.51
439.631	5.46
439.836	5.45
440.04	5.54
440.245	5.5
440.45	5.44
440.654	5.49
440.859	5.52
441.063	5.61
441.268	5.73
441.472	5.8
441.677	5.83
441.881	5.82
442.086	5.87
442.29	5.92
442.495	5.97
442.699	5.95
442.904	6.03
443.108	6.04
443.312	5.92
443.517	5.85
443.721	5.78
443.925	5.76
444.13	5.93
444.334	5.91
444.538	5.9
444.743	5.92
444.947	5.84
445.151	5.89
445.356	6.02
445.56	5.98
445.764	5.9
445.968	5.85
446.173	5.74
446.377	5.73
446.581	5.65
446.785	5.59
446.989	5.53
447.193	5.55
447.398	5.5
447.602	5.36
447.806	5.51
448.01	5.44
448.214	5.51
448.418	5.59
448.622	5.59
448.826	5.64
449.03	5.74
449.234	5.66
449.438	5.67
449.642	5.73
449.846	5.64
450.05	5.37
450.254	5.54
450.458	5.46
450.662	5.33
450.866	5.22
451.069	5.04
451.273	4.9
451.477	5.07
451.681	5.19
451.885	5.06
452.089	5.06
452.292	5.2
452.496	5.26
452.7	5.32
452.904	5.44
453.107	5.25
453.311	5.38
453.515	5.41
453.719	5.37
453.922	5.18
454.126	5.24
454.33	5.37
454.533	5.35
454.737	5.31
454.94	5.13
455.144	5.16
455.348	5.33
455.551	5.34
455.755	5.26
455.958	5.11
456.162	5.08
456.365	4.95
456.569	4.86
456.772	4.91
456.976	4.62
457.179	4.6
457.383	4.56
457.586	4.5
457.79	4.43
457.993	4.38
458.196	4.52
458.4	4.66
458.603	4.75
458.807	4.96
459.01	4.98
459.213	5.24
459.417	5.21
459.62	5.28
459.823	5.37
460.026	5.38
460.23	5.48
460.433	5.49
460.636	5.5
460.839	5.59
461.042	5.59
461.246	5.55
461.449	5.59
461.652	5.72
461.855	5.79
462.058	5.78
462.261	5.79
462.464	5.97
462.668	6.09
462.871	6.11
463.074	5.92
463.277	5.84
463.48	5.82
463.683	5.67
463.886	5.67
464.089	5.45
464.292	5.49
464.495	5.6
464.698	5.46
464.901	5.41
465.104	5.3
465.306	5.46
465.509	5.29
465.712	5.18
465.915	5.14
466.118	5.36
466.321	5.53
466.524	5.5
466.726	5.54
466.929	5.49
467.132	5.19
467.335	5.56
467.538	5.45
467.74	5.57
467.943	5.82
468.146	5.8
468.348	5.57
468.551	5.7
468.754	5.81
468.956	5.75
469.159	5.86
469.362	6.17
469.564	5.93
469.767	5.99
469.969	6.09
470.172	6.19
470.375	6.19
470.577	6.11
470.78	6
470.982	5.96
471.185	5.95
471.387	5.88
471.59	5.74
471.792	5.58
471.995	5.65
472.197	5.64
472.399	5.42
472.602	5.48
472.804	5.61
473.007	5.45
473.209	5.34
473.411	5.28
473.614	5.12
473.816	5.19
474.018	5.35
474.22	5.23
474.423	5.19
474.625	5.18
474.827	5.21
475.03	5.07
475.232	5.01
475.434	5.02
475.636	5.17
475.838	5.19
476.04	5.18
476.243	5.23
476.445	5.4
476.647	5.41
476.849	5.54
477.051	5.47
477.253	5.47
477.455	5.59
477.657	5.64
477.859	5.62
478.061	5.66
478.263	5.87
478.465	5.82
478.667	5.77
478.869	5.69
479.071	5.68
479.273	5.73
479.475	5.83
479.677	5.76
479.879	5.76
480.081	5.8
480.283	5.76
480.485	5.72
480.686	5.64
480.888	5.53
481.09	5.45
481.292	5.52
481.494	5.5
481.695	5.47
481.897	5.61
482.099	5.64
482.301	5.68
482.502	5.74
482.704	5.62
482.906	5.69
483.107	5.71
483.309	5.76
483.511	5.75
483.712	5.77
483.914	5.76
484.115	5.74
484.317	5.73
484.519	5.73
484.72	5.67
484.922	5.71
485.123	5.7
485.325	5.74
485.526	5.79
485.728	5.75
485.929	5.79
486.131	5.83
486.332	5.8
486.534	5.76
486.735	5.69
486.936	5.82
487.138	5.79
487.339	5.86
487.541	5.76
487.742	5.7
487.943	5.73
488.144	5.74
488.346	5.75
488.547	5.76
488.748	5.8
488.95	5.75
489.151	5.69
489.352	5.68
489.553	5.52
489.755	5.63
489.956	5.59
490.157	5.57
490.358	5.57
490.559	5.54
490.76	5.59
490.961	5.63
491.163	5.71
491.364	5.77
491.565	5.69
491.766	5.85
491.967	5.79
492.168	5.86
492.369	5.82
492.57	5.7
492.771	5.72
492.972	5.64
493.173	5.61
493.374	5.55
493.575	5.41
493.776	5.44
493.976	5.28
494.177	5.28
494.378	5.22
494.579	5.14
494.78	5.16
494.981	5.12
495.182	5.22
495.382	5.16
495.583	5.22
495.784	5.35
495.985	5.42
496.185	5.44
496.386	5.36
496.587	5.34
496.788	5.34
496.988	5.39
497.189	5.47
497.39	5.43
497.59	5.45
497.791	5.47
497.992	5.45
498.192	5.42
498.393	5.47
498.593	5.46
498.794	5.49
498.994	5.6
499.195	5.57
499.395	5.51
499.596	5.53
499.796	5.58
499.997	5.61
500.197	5.49
500.398	5.41
500.598	5.49
500.799	5.63
500.999	5.55
501.199	5.7
501.4	5.68
501.6	5.84
501.801	5.83
502.001	5.81
502.201	5.61
502.402	5.72
502.602	5.71
502.802	5.63
503.002	5.65
503.203	5.78
503.403	5.81
503.603	5.83
503.803	5.65
504.003	5.47
504.204	5.56
504.404	5.77
504.604	5.72
504.804	5.82
505.004	5.92
505.204	5.86
505.404	5.81
505.604	5.69
505.804	5.85
506.005	5.96
506.205	6.23
506.405	6.25
506.605	6.5
506.805	6.64
507.005	6.72
507.204	6.66
507.404	6.81
507.604	6.94
507.804	7.03
508.004	7.24
508.204	7.17
508.404	7.09
508.604	7.06
508.804	6.91
509.003	7.02
509.203	7.12
509.403	7.14
509.603	7.1
509.803	7.14
510.002	7.2
510.202	7.08
510.402	7.2
510.602	7.36
510.801	7.46
511.001	7.63
511.201	7.54
511.4	7.61
511.6	7.84
511.8	7.89
511.999	7.87
512.199	7.89
512.398	7.92
512.598	7.97
512.797	8.05
512.997	7.93
513.197	7.83
513.396	8.04
513.596	8.12
513.795	8
513.994	8.05
514.194	8.23
514.393	8.3
514.593	8.47
514.792	8.53
514.992	8.63
515.191	8.84
515.39	8.86
515.59	9.01
515.789	8.98
515.988	9.11
516.188	9.28
516.387	9.24
516.586	9.4
516.786	9.36
516.985	9.52
517.184	9.49
517.383	9.54
517.582	9.65
517.782	9.68
517.981	9.84
518.18	9.8
518.379	9.8
518.578	9.91
518.777	9.99
518.976	10.06
519.176	10.06
519.375	10.19
519.574	10.28
519.773	10.48
519.972	10.36
520.171	10.4
520.37	10.5
520.569	10.6
520.768	10.66
520.967	10.52
521.166	10.6
521.365	10.6
521.564	10.51
521.762	10.58
521.961	10.52
522.16	10.78
522.359	10.95
522.558	11.18
522.757	11.27
522.956	11.29
523.154	11.55
523.353	11.62
523.552	11.79
523.751	12.12
523.949	12.26
524.148	12.42
524.347	12.61
524.546	12.66
524.744	12.72
524.943	12.86
525.142	12.88
525.34	13
525.539	13.12
525.737	13.29
525.936	13.27
526.135	13.35
526.333	13.29
526.532	13.28
526.73	13.32
526.929	13.4
527.127	13.39
527.326	13.57
527.524	13.62
527.723	13.69
527.921	13.69
528.12	13.71
528.318	13.75
528.516	13.89
528.715	13.97
528.913	14.06
529.112	14.11
529.31	14.22
529.508	14.25
529.707	14.28
529.905	14.32
530.103	14.41
530.301	14.48
530.5	14.55
530.698	14.61
530.896	14.6
531.094	14.58
531.293	14.64
531.491	14.59
531.689	14.68
531.887	14.78
532.085	14.81
532.283	14.78
532.481	14.94
532.68	14.98
532.878	15.09
533.076	15.23
533.274	15.29
533.472	15.34
533.67	15.44
533.868	15.47
534.066	15.54
534.264	15.68
534.462	15.83
534.66	15.86
534.858	15.84
535.056	15.84
535.253	15.86
535.451	15.82
535.649	15.98
535.847	16.09
536.045	16.08
536.243	16.24
536.441	16.24
536.638	16.23
536.836	16.3
537.034	16.5
537.232	16.43
537.43	16.53
537.627	16.68
537.825	16.6
538.023	16.69
538.22	16.89
538.418	16.82
538.616	16.83
538.813	16.89
539.011	16.89
539.209	16.77
539.406	16.96
539.604	17.08
539.801	17.11
539.999	17.22
540.196	17.27
540.394	17.27
540.591	17.35
540.789	17.42
540.986	17.5
541.184	17.59
541.381	17.75
541.579	17.77
541.776	17.77
541.974	17.92
542.171	17.95
542.368	17.97
542.566	18.02
542.763	18.07
542.96	18.1
543.158	18.08
543.355	18.07
543.552	18.06
543.75	18.09
543.947	18.16
544.144	18.1
544.341	18.09
544.539	18.24
544.736	18.27
544.933	18.21
545.13	18.4
545.327	18.52
545.524	18.61
545.722	18.66
545.919	18.77
546.116	18.85
546.313	18.97
546.51	19.14
546.707	19.15
546.904	19.23
547.101	19.4
547.298	19.3
547.495	19.39
547.692	19.42
547.889	19.55
548.086	19.58
548.283	19.61
548.48	19.71
548.677	19.7
548.874	19.68
549.07	19.74
549.267	19.73
549.464	19.7
549.661	19.56
549.858	19.68
550.055	19.53
550.251	19.59
550.448	19.61
550.645	19.6
550.842	19.45
551.038	19.46
551.235	19.42
551.432	19.48
551.628	19.72
551.825	20.03
552.022	20.23
552.218	20.49
552.415	20.57
552.612	20.4
552.808	20.38
553.005	20.72
553.201	20.76
553.398	20.84
553.594	20.74
553.791	20.8
553.987	20.74
554.184	20.6
554.38	20.61
554.577	20.52
554.773	20.67
554.97	20.72
555.166	20.54
555.362	20.66
555.559	20.83
555.755	20.99
555.952	21.19
556.148	21.29
556.344	21.24
556.541	21.28
556.737	21.43
556.933	21.4
557.129	21.22
557.326	21.21
557.522	21.11
557.718	20.94
557.914	21
558.11	20.76
558.307	20.81
558.503	21.12
558.699	21.11
558.895	21.2
559.091	21.34
559.287	21.41
559.483	21.46
559.679	21.56
559.876	21.66
560.072	21.51
560.268	21.61
560.464	21.49
560.66	21.52
560.856	21.62
561.052	21.71
561.247	21.98
561.443	22.17
561.639	22.37
561.835	22.45
562.031	22.47
562.227	22.64
562.423	22.76
562.619	23.18
562.815	23.26
563.01	23.23
563.206	23.21
563.402	23.01
563.598	23.06
563.793	22.85
563.989	22.73
564.185	23.03
564.381	23.03
564.576	23.02
564.772	22.77
564.968	22.55
565.163	22.57
565.359	22.46
565.555	22.4
565.75	22.48
565.946	22.55
566.141	22.7
566.337	22.58
566.532	22.78
566.728	22.71
566.923	22.86
567.119	22.95
567.314	23.14
567.51	23.31
567.705	23.41
567.901	23.4
568.096	23.54
568.292	23.35
568.487	23.49
568.682	23.51
568.878	23.54
569.073	23.34
569.268	23.48
569.464	23.43
569.659	23.25
569.854	23.14
570.05	23.17
570.245	23.1
570.44	23.34
570.635	23.17
570.831	23.17
571.026	23.22
571.221	23.19
571.416	23.13
571.611	23.18
571.806	23.27
572.002	23.3
572.197	23.11
572.392	23.29
572.587	23.42
572.782	23.45
572.977	23.52
573.172	23.64
573.367	23.84
573.562	23.77
573.757	23.65
573.952	23.54
574.147	23.69
574.342	23.97
574.537	23.9
574.732	23.9
574.927	23.93
575.121	23.91
575.316	23.87
575.511	23.82
575.706	23.84
575.901	23.89
576.096	23.92
576.29	23.89
576.485	23.98
576.68	23.96
576.875	23.82
577.069	23.81
577.264	23.77
577.459	23.69
577.654	23.91
577.848	23.93
578.043	23.94
578.238	24.25
578.432	24.42
578.627	24.5
578.821	24.77
579.016	24.68
579.21	24.84
579.405	24.95
579.6	24.98
579.794	24.86
579.989	24.89
580.183	25.11
580.378	25.24
580.572	25.02
580.766	24.71
580.961	24.58
581.155	24.82
581.35	24.65
581.544	24.42
581.738	24.3
581.933	24.18
582.127	24.32
582.321	24.49
582.516	24.14
582.71	24.34
582.904	24.34
583.099	24.47
583.293	24.38
583.487	24.62
583.681	24.73
583.875	25.01
584.07	24.84
584.264	24.75
584.458	24.65
584.652	24.79
584.846	24.78
585.04	24.9
585.234	24.61
585.428	24.78
585.623	24.64
585.817	24.55
586.011	24.65
586.205	24.8
586.399	24.99
586.593	24.8
586.787	24.89
586.981	25.03
587.174	25.25
587.368	25.5
587.562	25.45
587.756	25.48
587.95	25.52
588.144	25.49
588.338	25.55
588.532	25.71
588.725	25.85
588.919	25.88
589.113	25.77
589.307	25.58
589.501	25.87
589.694	26.03
589.888	26.27
590.082	26.18
590.275	26.14
590.469	26.25
590.663	26.06
590.856	25.88
591.05	25.98
591.244	26.13
591.437	26.14
591.631	25.81
591.824	25.71
592.018	25.48
592.212	25.63
592.405	25.5
592.599	25.51
592.792	25.47
592.986	25.58
593.179	25.36
593.372	25.44
593.566	25.55
593.759	25.77
593.953	25.72
594.146	26.07
594.339	26.13
594.533	26.35
594.726	26.35
594.92	26.5
595.113	26.4
595.306	26.53
595.499	26.56
595.693	26.62
595.886	26.5
596.079	26.44
596.272	26.24
596.466	26.43
596.659	26.47
596.852	26.4
597.045	26.41
597.238	26.56
597.431	26.54
597.624	26.35
597.818	26.3
598.011	26.46
598.204	26.48
598.397	26.44
598.59	26.27
598.783	26.25
598.976	26.47
599.169	26.36
599.362	26.39
599.555	26.29
599.748	26.46
599.941	26.43
600.134	26.03
600.326	26.14
600.519	26.3
600.712	26.37
600.905	26.23
601.098	26.03
601.291	25.79
601.483	25.91
601.676	26.19
601.869	26.12
602.062	26.24
602.255	26.37
602.447	26.32
602.64	26.06
602.833	26.04
603.025	26.2
603.218	26.6
603.411	26.88
603.603	26.82
603.796	26.83
603.989	26.79
604.181	26.72
604.374	27.05
604.566	27.2
604.759	27.39
604.951	27.24
605.144	27.14
605.336	26.79
605.529	26.78
605.721	26.84
605.914	26.76
606.106	26.8
606.299	26.92
606.491	26.66
606.683	26.51
606.876	26.46
607.068	26.72
607.26	26.9
607.453	27.01
607.645	27.02
607.837	26.82
608.03	26.93
608.222	27.07
608.414	26.86
608.606	27.11
608.799	27.51
608.991	27.61
609.183	27.62
609.375	27.67
609.567	27.87
609.759	27.82
609.952	28.05
610.144	28.14
610.336	28.13
610.528	28.4
610.72	28.29
610.912	28.15
611.104	28.27
611.296	28.59
611.488	28.46
611.68	28.23
611.872	28.28
612.064	28
612.256	27.85
612.448	27.86
612.64	27.78
612.832	27.6
613.023	27.52
613.215	26.97
613.407	26.58
613.599	26.41
613.791	26.73
613.983	26.91
614.174	27.12
614.366	27.25
614.558	27.73
614.75	27.63
614.941	27.91
615.133	27.98
615.325	28.26
615.516	28.53
615.708	28.84
615.9	28.65
616.091	28.6
616.283	28.6
616.475	28.2
616.666	27.69
616.858	27.75
617.049	27.59
617.241	27.38
617.432	27.43
617.624	27.34
617.815	26.83
618.007	26.82
618.198	26.78
618.39	26.57
618.581	26.93
618.773	27.13
618.964	27.2
619.155	27.11
619.347	27.44
619.538	27.67
619.729	27.6
619.921	28.15
620.112	28.04
620.303	28.29
620.494	28.7
620.686	28.62
620.877	28.33
621.068	28.38
621.259	28.46
621.451	28.35
621.642	28.08
621.833	28.2
622.024	28.17
622.215	28.28
622.406	28.12
622.597	27.89
622.788	27.8
622.98	27.88
623.171	27.85
623.362	27.57
623.553	27.58
623.744	27.56
623.935	27.35
624.126	27.33
624.317	27.24
624.508	27.33
624.698	27.43
624.889	27.49
625.08	27.68
625.271	27.74
625.462	27.99
625.653	27.98
625.844	28.06
626.034	28.12
626.225	28.07
626.416	28.11
626.607	27.95
626.798	27.69
626.988	27.68
627.179	27.62
627.37	27.45
627.56	27.41
627.751	27.48
627.942	27.42
628.132	27.81
628.323	27.83
628.514	28.1
628.704	28.12
628.895	28.62
629.085	28.56
629.276	28.45
629.466	28.5
629.657	28.51
629.847	28.39
630.038	28.72
630.228	28.1
630.419	27.9
630.609	27.5
630.8	27.77
630.99	27.67
631.181	27.8
631.371	28.27
631.561	28.14
631.752	28.27
631.942	28.01
632.132	27.81
632.323	28.2
632.513	28.54
632.703	28.64
632.893	28.51
633.084	28.12
633.274	28.07
633.464	27.76
633.654	27.85
633.844	27.87
634.034	28.11
634.225	28.09
634.415	27.78
634.605	27.76
634.795	28.03
634.985	27.95
635.175	27.99
635.365	27.94
635.555	27.9
635.745	28.08
635.935	28.23
636.125	28.08
636.315	28.08
636.505	28.5
636.695	28.28
636.885	27.91
637.075	27.67
637.265	27.84
637.455	28.08
637.644	28.18
637.834	27.78
638.024	27.73
638.214	27.58
638.404	27.68
638.593	27.09
638.783	27.18
638.973	27.53
639.163	27.42
639.352	27.58
639.542	27.87
639.732	27.67
639.921	28.39
640.111	28.78
640.301	28.98
640.49	28.94
640.68	29.49
640.87	29.72
641.059	30.03
641.249	30.63
641.438	30.7
641.628	30.57
641.817	30.49
642.007	29.98
642.196	29.7
642.386	29.78
642.575	29.75
642.764	29.49
642.954	29.77
643.143	29.41
643.333	29.07
643.522	28.77
643.711	28.57
643.901	28.92
644.09	29.23
644.279	29.29
644.469	29.76
644.658	29.61
644.847	29.6
645.036	29.16
645.226	29.12
645.415	29.28
645.604	29.02
645.793	29.02
645.982	28.88
646.171	28.63
646.361	28.44
646.55	28.15
646.739	28.17
646.928	28.51
647.117	28.42
647.306	28.49
647.495	28.49
647.684	28.38
647.873	28.6
648.062	28.58
648.251	28.91
648.44	28.75
648.629	28.9
648.818	28.78
649.007	28.39
649.196	28.4
649.384	28.34
649.573	28.32
649.762	29
649.951	28.64
650.14	28.32
650.328	28.16
650.517	28.32
650.706	27.99
650.895	28.15
651.083	28.22
651.272	28.57
651.461	28.56
651.65	28.4
651.838	27.88
652.027	28.14
652.216	28.42
652.404	28.06
652.593	28.15
652.781	28.33
652.97	28.5
653.158	28.38
653.347	28.04
653.535	27.8
653.724	27.68
653.912	28.14
654.101	27.7
654.289	27.8
654.478	28.34
654.666	27.67
654.855	27.62
655.043	27.31
655.231	27.44
655.42	27.34
655.608	26.99
655.796	27.21
655.985	26.99
656.173	27.34
656.361	27.21
656.55	26.89
656.738	27.35
656.926	27.69
657.114	28.07
657.302	28.01
657.491	28.33
657.679	28.67
657.867	29.04
658.055	29.03
658.243	29.36
658.431	29.33
658.619	29.76
658.807	29.43
658.996	28.81
659.184	29.01
659.372	29.09
659.56	29.28
659.748	29.45
659.936	29.12
660.124	29.18
660.311	28.9
660.499	29.24
660.687	29.13
660.875	29.43
661.063	29.85
661.251	29.38
661.439	29.51
661.627	29.14
661.814	29.49
662.002	29.47
662.19	29.54
662.378	29.49
662.565	29.32
662.753	29.15
662.941	29.31
663.129	29.49
663.316	29.46
663.504	29.58
663.692	29.47
663.879	29.17
664.067	29.1
664.254	29.16
664.442	29.16
664.63	28.76
664.817	28.8
665.005	29.17
665.192	29.23
665.38	29.79
665.567	29.23
665.755	29.58
665.942	29.91
666.13	30.37
666.317	30.34
666.504	30.58
666.692	31.16
666.879	31.21
667.067	30.92
667.254	30.59
667.441	29.99
667.629	30.41
667.816	30.51
668.003	30.11
668.19	29.96
668.378	30.27
668.565	30.22
668.752	30.24
668.939	30.5
669.127	31.07
669.314	30.91
669.501	31.13
669.688	30.4
669.875	30
670.062	30.05
670.249	29.91
670.436	29.69
670.623	29.52
670.81	29.18
670.997	29.05
671.184	28.17
671.371	28.42
671.558	28.2
671.745	28.97
671.932	29.53
672.119	29.74
672.306	29.98
672.493	29.48
672.68	29.63
672.867	29.25
673.054	29.1
673.24	29.05
673.427	29.11
673.614	28.8
673.801	28.87
673.988	28.48
674.174	28.13
674.361	28.38
674.548	28.92
674.734	29.13
674.921	29.48
675.108	29.49
675.294	29.78
675.481	29.83
675.668	30.47
675.854	30.34
676.041	30.42
676.227	30.8
676.414	29.98
676.601	29.97
676.787	29.46
676.974	29.26
677.16	29.3
677.347	29.43
677.533	29.19
677.719	29.71
677.906	29.97
678.092	29.96
678.279	29.57
678.465	30.08
678.651	30.41
678.838	30.53
679.024	30.72
679.21	30.62
679.397	30.2
679.583	30.22
679.769	29.94
679.955	29.87
680.142	29.65
680.328	29.91
680.514	29.58
680.7	29.39
680.886	29.61
681.073	29.85
681.259	29.94
681.445	30.17
681.631	30.1
681.817	29.86
682.003	29.96
682.189	30.42
682.375	30.69
682.561	31.29
682.747	30.59
682.933	30.31
683.119	29.74
683.305	29.52
683.491	29.38
683.677	29.5
683.863	29.81
684.049	29.79
684.235	29.4
684.42	29.58
684.606	29.47
684.792	29.98
684.978	30.08
685.164	30.35
685.349	31
685.535	31.37
685.721	31.46
685.907	31.03
686.092	30.89
686.278	31.3
686.464	30.69
686.649	30.1
686.835	29.78
687.021	30.08
687.206	30
687.392	29.54
687.577	29.56
687.763	29.54
687.948	29.96
688.134	29.61
688.319	29.31
688.505	29.32
688.69	29.79
688.876	30.69
689.061	30.91
689.247	31.34
689.432	31.54
689.618	31.45
689.803	31.3
689.988	31.3
690.174	31.96
690.359	32.28
690.544	32.26
690.73	32.01
690.915	31.43
691.1	31.13
691.285	31.19
691.471	31.35
691.656	31.58
691.841	31.85
692.026	31.62
692.211	30.68
692.396	29.79
692.582	30.37
692.767	30.31
692.952	30.56
693.137	30.46
693.322	30.64
693.507	30.48
693.692	30.09
693.877	30.27
694.062	29.34
694.247	29.92
694.432	30.49
694.617	30.29
694.802	30.72
694.987	30.2
695.172	30.45
695.357	29.73
695.541	29.21
695.726	29.13
695.911	28.7
696.096	30.22
696.281	30.8
696.466	31
696.65	31.02
696.835	31.29
697.02	31.21
697.204	31
697.389	31.39
697.574	31.82
697.759	31.69
697.943	31.49
698.128	31.09
698.312	31.41
698.497	31.34
698.682	30.81
698.866	30.23
699.051	30.54
699.235	30.61
699.42	30.37
699.604	30.21
699.789	30.17
699.973	30.36
700.158	30.39
700.342	29.94
700.527	29.78
700.711	30.22
700.895	30.95
701.08	30.8
701.264	30.41
701.448	30.63
701.633	30.57
701.817	31.09
702.001	31.35
702.186	31.27
702.37	30.57
702.554	31.15
702.738	31.32
702.923	30.53
703.107	30.66
703.291	30.86
703.475	31.35
703.659	31.1
703.843	30.66
704.027	30.88
704.212	31.07
704.396	31.82
704.58	31.4
704.764	30.95
704.948	31.89
705.132	31.55
705.316	31.94
705.5	31.67
705.684	32.15
705.868	32.43
706.052	32.32
706.235	32.11
706.419	31.99
706.603	32.23
706.787	32.12
706.971	30.95
707.155	31.6
707.339	31.88
707.522	32.05
707.706	32.05
707.89	31.81
708.074	31.41
708.257	31.15
708.441	30.01
708.625	29.72
708.808	30.21
708.992	30.97
709.176	31.2
709.359	30.88
709.543	30.48
709.727	29.94
709.91	29.82
710.094	30.23
710.277	30.5
710.461	31.81
710.644	31.61
710.828	31.12
711.011	31.02
711.195	30.73
711.378	30.65
711.562	30.67
711.745	30.8
711.928	31.33
712.112	31.33
712.295	31.67
712.478	31.5
712.662	31.6
712.845	32.12
713.028	32.32
713.212	32.15
713.395	32.17
713.578	32.53
713.761	32.43
713.945	32.32
714.128	32.34
714.311	31.85
714.494	31.65
714.677	31.53
714.86	30.98
715.043	31.36
715.227	31.58
715.41	31.45
715.593	31.06
715.776	32.14
715.959	32.38
716.142	32.05
716.325	32.25
716.508	32.54
716.691	32.43
716.874	32.38
717.057	31.13
717.239	30.92
717.422	30.76
717.605	30.95
717.788	30
717.971	29.26
718.154	29.09
718.337	29.13
718.519	28.53
718.702	28.74
718.885	29.45
719.068	29.53
719.25	29.22
719.433	29.81
719.616	29.82
719.798	29.29
719.981	29.6
720.164	29.64
720.346	29.3
720.529	29.17
720.712	29.49
720.894	29.12
721.077	29.69
721.259	30.33
721.442	30.74
721.624	30.86
721.807	32.32
721.989	31.96
722.172	32.23
722.354	32.45
722.537	32.68
722.719	32.13
722.901	32.77
723.084	32.58
723.266	32.07
723.448	32.62
723.631	31.57
723.813	30.36
723.995	31.54
724.178	31.66
724.36	30.86
724.542	30.64
724.724	31.01
724.907	30.32
725.089	30.09
725.271	29.97
725.453	29.08
725.635	30.32
725.817	31.2
725.999	30.97
726.181	30.51
726.364	31.19
726.546	30.97
726.728	29.67
726.91	29.22
727.092	29.68
727.274	30.01
727.456	29.62
727.638	29.19
727.819	29.31
728.001	28.54
728.183	28.68
728.365	28.43
728.547	28.68
728.729	30
728.911	31.34
729.093	31.29
729.274	31.37
729.456	31.41
729.638	30.92
729.82	30.6
730.001	30.66
730.183	31.18
730.365	31.39
730.546	32.58
730.728	32.28
730.91	32.18
731.091	31.93
731.273	32.77
731.455	32.11
731.636	32.28
731.818	31.93
731.999	31.03
732.181	31.72
732.362	32.42
732.544	31.31
732.725	31.68
732.907	30.75
733.088	30.62
733.27	29.74
733.451	29.95
733.633	29.88
733.814	30.64
733.995	32.39
734.177	32.18
734.358	31.34
734.539	31.57
734.721	31.91
734.902	32.18
735.083	32.87
735.264	32.49
735.446	33.21
735.627	33.8
735.808	33.48
735.989	32.06
736.17	31.8
736.351	31
736.533	30.91
736.714	30.5
736.895	29.96
737.076	29.1
737.257	29.57
737.438	28.72
737.619	27.5
737.8	27.31
737.981	28.57
738.162	28.04
738.343	29.26
738.524	29.72
738.705	28.73
738.886	28.07
739.067	27.61
739.247	27.39
739.428	27.6
739.609	28.72
739.79	28.52
739.971	28.13
740.151	27.55
740.332	27.33
740.513	27.29
740.694	27.77
740.874	28.28
741.055	28.39
741.236	28.67
741.417	29.19
741.597	28.36
741.778	29.8
741.958	30.3
742.139	30.7
742.32	29.99
742.5	30.73
742.681	31.41
742.861	31.65
743.042	32.68
743.222	33.12
743.403	33.05
743.583	34.53
743.764	32.9
743.944	33.04
744.124	32.55
744.305	34.57
744.485	33.13
744.666	32.4
744.846	32.16
745.026	32.02
745.207	31.38
745.387	31.01
745.567	29.17
745.747	28.81
745.928	28.27
746.108	29.13
746.288	28.01
746.468	27.54
746.648	27.06
746.829	28.28
747.009	29.05
747.189	29.86
747.369	29.32
747.549	30.13
747.729	31
747.909	30.38
748.089	30.09
748.269	30.58
748.449	31.48
748.629	32.02
748.809	32.16
748.989	31.25
749.169	30.88
749.349	29.97
749.529	29.73
749.709	29.78
749.889	29.39
750.068	30.19
750.248	30.72
750.428	30.99
750.608	31.46
750.788	30.98
750.967	30.44
751.147	29.41
751.327	30.78
751.507	31.65
751.686	31.25
751.866	32.22
752.046	30.77
752.225	30.68
752.405	29.85
752.585	29.95
752.764	29.58
752.944	31.1
753.123	30.83
753.303	31.09
753.482	29.68
753.662	30.37
753.841	30.22
754.021	30.03
754.2	30.25
754.38	29.67
754.559	29.2
754.739	30.15
754.918	28.1
755.097	28.76
755.277	27.58
755.456	29.93
755.635	29.26
755.815	28.79
755.994	29.39
756.173	28.53
756.352	30.3
756.532	30.13
756.711	29.45
756.89	30.42
757.069	31.51
757.248	32.34
757.427	30.33
757.607	30.28
757.786	29.99
757.965	30.27
758.144	29.37
758.323	28.84
758.502	28.49
758.681	28.85
758.86	29.27
759.039	28.81
759.218	29.6
759.397	29.57
759.576	29.31
759.755	29.51
759.934	30.81
760.113	31.93
760.291	32.47
760.47	34.24
760.649	34.6
760.828	34.61
761.007	35.17
761.186	34.71
761.364	35.08
761.543	34.89
761.722	34.37
761.901	33.26
762.079	33.33
762.258	33.31
762.437	32.03
762.615	31.44
762.794	32.54
762.972	32.43
763.151	32.1
763.33	33.13
763.508	33.17
763.687	34.38
763.865	33.85
764.044	33.81
764.222	33.53
764.401	34.07
764.579	34.29
764.758	33.86
764.936	33.17
765.114	33.58
765.293	32.3
765.471	32.5
765.65	32.06
765.828	33.12
766.006	33.18
766.184	32.19
766.363	31.95
766.541	31.68
766.719	31.02
766.898	31.28
767.076	31.6
767.254	31.97
767.432	32.07
767.61	32.36
767.788	31.6
767.967	29.2
768.145	29.71
768.323	29.97
768.501	30.66
768.679	32.18
768.857	31.53
769.035	31.29
769.213	31.02
769.391	30.55
769.569	30.93
769.747	31.01
769.925	35.14
770.103	34.65
770.281	34.54
770.459	33.3
770.636	31.5
770.814	33.48
770.992	31.79
771.17	33.13
771.348	33.6
771.525	32.98
771.703	33.78
771.881	31.23
772.059	32.33
772.236	33.36
772.414	34.81
772.592	33.86
772.769	31.91
772.947	33.48
773.125	32.68
773.302	32.13
773.48	31.63
773.657	31.2
773.835	31.84
774.013	32.1
774.19	29.44
774.368	28.51
774.545	30.11
774.723	31.11
774.9	31.3
775.077	30.15
775.255	30.47
775.432	29.7
775.61	30.54
775.787	30.18
775.964	29.71
776.142	30.92
776.319	32.52
776.496	31.76
776.674	31.63
776.851	32.11
777.028	32.24
777.205	29.25
777.382	30.58
777.56	30.52
777.737	30.6
777.914	30.09
778.091	29.6
778.268	26.56
778.445	25.47
778.622	24.58
778.8	23.75
778.977	23.86
779.154	21.78
779.331	20.02
779.508	18.35
779.685	17.9
779.862	19.73
780.038	20.08
780.215	18.76
780.392	20.25
780.569	20.45
780.746	19.09
780.923	19.78
781.1	24.7
781.277	27.51
781.453	29.42
781.63	25.44
781.807	25.01
781.984	24.63
782.16	26.93
782.337	25.9
782.514	23.76
782.691	26.23
782.867	25.69
783.044	27.26
783.221	26.74
783.397	25.67
783.574	29.96
783.75	28.51
783.927	27.23
784.103	26.78
784.28	25.9
784.456	28.83
784.633	29.08
784.809	29.54
784.986	29.12
785.162	28.73
785.339	28.7
785.515	28.19
785.692	30.09
785.868	30.76
786.044	32.19
786.221	31.55
786.397	30.25
786.573	24.82
786.749	25.85
786.926	25.79
787.102	25.31
787.278	25.28
787.454	25.95
787.631	24.99
787.807	27.23
787.983	27.57
788.159	29.8
788.335	28.73
788.511	31.7
788.687	30.94
788.863	30.6
789.039	28.67
789.216	28.96
789.392	27.96
789.568	24.31
789.744	22.44
789.919	19.72
790.095	19.15
790.271	22.02
790.447	23.97
790.623	24.6
790.799	27.48
790.975	29.2
791.151	26.1
791.327	27.64
791.502	32.58
791.678	36.37
791.854	37.59
792.03	38.64
792.205	37.2
792.381	35.05
792.557	34.85
792.733	32.77
792.908	33.17
793.084	36.7
793.259	35.43
793.435	33.22
793.611	28.93
793.786	29.64
793.962	29.76
794.137	31.85
794.313	30.76
794.488	28.05
794.664	26.38
794.839	24.56
795.015	21.43
795.19	23.44
795.366	25.73
795.541	25.18
795.716	23.98
795.892	23.62
796.067	21.32
796.242	23.28
796.418	24.04
796.593	24.02
796.768	24.38
796.944	26.04
797.119	27.89
797.294	27.54
797.469	30.24
797.644	31.75
797.82	31.79
797.995	33.74
798.17	32.2
798.345	31.81
798.52	31.77
798.695	34.24
798.87	34.8
799.045	33.2
799.22	32.75
799.395	30.16
799.57	31.41
799.745	30.94
799.92	31.09
800.095	32.06
800.27	32.91
800.445	35.28
800.62	33.8
800.795	33.56
800.97	32.27
801.145	31.17
801.319	33.32
801.494	29.33
801.669	28.89
801.844	26.55
802.018	23.52
802.193	22.19
802.368	21.22
802.543	21.18
802.717	20.6
802.892	20.73
803.067	23.23
803.241	23.98
803.416	26.19
803.59	25.5
803.765	25.8
803.94	28.93
804.114	29.99
804.289	29.45
804.463	28.88
804.638	26.2
804.812	27.68
804.986	22.92
805.161	24.64
805.335	22.4
805.51	23.44
805.684	22.3
805.858	22.27
806.033	21.04
806.207	22.19
806.381	20.3
806.556	22.9
806.73	21.47
806.904	25.69
807.078	23.03
807.253	26.02
807.427	23.11
807.601	24
807.775	22.34
807.949	25.7
808.123	26.12
808.298	26
808.472	26.86
808.646	27.93
808.82	24.19
808.994	23.52
809.168	23.37
809.342	23.51
809.516	22.18
809.69	19.89
809.864	21.47
810.038	19.36
810.212	23.77
810.385	22.69
810.559	22.13
810.733	23.08
810.907	23
811.081	23.1
811.255	24.97
811.428	28.09
811.602	31.78
811.776	30.71
811.95	29.04
812.123	27.9
812.297	29.48
812.471	30.46
812.644	30.48
812.818	29.69
812.992	28.61
813.165	32.74
813.339	35.37
813.512	37.83
813.686	34.59
813.86	34.78
814.033	33.21
814.207	33.92
814.38	33.89
814.554	35.77
814.727	35.26
814.9	34.17
815.074	30.5
815.247	26.08
815.421	23.08
815.594	22.59
815.767	25.26
815.941	23.24
816.114	22.43
816.287	20.31
816.46	19.67
816.634	21.41
816.807	23.12
816.98	25.06
817.153	26.88
817.327	25.82
817.5	26.72
817.673	29.53
817.846	33.07
818.019	31.25
818.192	31.62
818.365	33.34
818.538	33.52
818.711	34.89
818.884	35.19
819.057	35.35
819.23	35.97
819.403	36.92
819.576	34.11
819.749	32.41
819.922	32.87
820.095	31.59
820.268	30.21
820.441	30.79
820.614	31.13
820.786	28.97
820.959	29.83
821.132	30.64
821.305	30.44
821.477	32.05
821.65	32.84
821.823	33.9
821.996	33.95
822.168	34.42
822.341	35.03
822.514	35.16
822.686	35.56
822.859	35.16
823.031	35.71
823.204	35.7
823.376	35.66
823.549	35.95
823.722	35.68
823.894	36.16
824.067	35.77
824.239	35.07
824.411	34.58
824.584	35
824.756	35
824.929	34.68
825.101	34.55
825.273	34.03
825.446	33.63
825.618	34.07
825.79	33.61
825.963	33.29
826.135	33.54
826.307	33.67
826.479	34.02
826.652	34.19
826.824	33.66
826.996	33.57
827.168	33.78
827.34	33.35
827.512	33.33
827.684	33
827.856	34.52
828.029	35.8
828.201	35.89
828.373	34.82
828.545	34.64
828.717	34.93
828.889	35.2
829.061	35.45
829.232	36.25
829.404	34.22
829.576	34.36
829.748	33.09
829.92	28.98
830.092	28.32
830.264	27.13
830.436	28.07
830.607	28.4
830.779	27.07
830.951	26.02
831.123	23.29
831.294	24.68
831.466	26
831.638	24.09
831.809	26.88
831.981	24.66
832.153	26.76
832.324	24.59
832.496	23.69
832.667	24.55
832.839	25.98
833.011	29.7
833.182	30.09
833.354	32.47
833.525	34.38
833.697	34.36
833.868	34.89
834.039	33.38
834.211	35.61
834.382	36.19
834.554	36.57
834.725	35.67
834.896	34.4
835.068	35.17
835.239	33.69
835.41	33.96
835.581	33.71
835.753	33.92
835.924	33.9
836.095	33.84
836.266	32.39
836.438	33.35
836.609	33.36
836.78	32.52
836.951	29.72
837.122	28.89
837.293	28.82
837.464	29.11
837.635	32.08
837.806	34.16
837.977	27.98
838.148	31.08
838.319	29.53
838.49	28.23
838.661	30.65
838.832	33.02
839.003	32.9
839.174	27.23
839.345	26.2
839.516	27.17
839.687	24.4
839.857	26.92
840.028	20.3
840.199	21.03
840.37	22.03
840.54	21.14
840.711	21.03
840.882	25.48
841.053	32.11
841.223	32.42
841.394	27.6
841.564	29.05
841.735	33.8
841.906	31.49
842.076	30.91
842.247	30.76
842.417	29.74
842.588	28.81
842.758	22.78
842.929	15.86
843.099	18.97
843.27	21.45
843.44	17.42
843.611	15.8
843.781	20.8
843.951	23.56
844.122	19.83
844.292	20.45
844.462	21.15
844.633	19.56
844.803	23.75
844.973	15.24
845.144	14.1
845.314	16.47
845.484	11.82
845.654	9.44
845.824	-2.45
845.995	-1.5
846.165	-3.54
846.335	-3.32
846.505	-12.86
846.675	-16.76
846.845	-7.19
847.015	-11.16
847.185	-9.22
847.355	-2.46
847.525	2.68
847.695	1.68
847.865	0.12
848.035	4.97
848.205	2.12
848.375	17.63
848.545	18.99
848.715	24.77
848.884	14.92
849.054	6.51
849.224	9.92
849.394	7.54
849.564	22.22
849.733	24.1
849.903	19.7
850.073	3.03
850.243	-7.2
850.412	-13.9
850.582	-40.15
850.752	-40.1
850.921	-16.36
851.091	-27.36
851.26	-29.95
851.43	-71.46
851.599	-44.83
851.769	-48.98
851.939	-32.69
852.108	-37.56
852.278	-16.38
852.447	-8.48
852.616	7.82
852.786	7.21
852.955	22.22
853.125	13.13
853.294	29.5
853.463	25.66
853.633	24
853.802	30.33
853.971	28.9
854.141	18.91
854.31	21.71
854.479	11.15
854.648	7.62
854.818	1.43
854.987	2.78
855.156	-2.87
855.325	-3.94
855.494	0.66
855.663	-1.15
855.832	-0.23
856.001	4
856.171	5.41
856.34	3.5
856.509	-3.84
856.678	4.02
856.847	3.82
857.016	9.51
857.185	17.26
857.353	9.99
857.522	2.97
857.691	7.83
857.86	5.01
858.029	5.24
858.198	1.72
858.367	6.48
858.535	-17.3
858.704	-14.62
858.873	-28.55
859.042	-59.09
859.21	-69.94
859.379	-63.68
859.548	-49.79
859.717	-35.31
859.885	-40.66
860.054	-18.28
860.222	-3.98
860.391	9.72
860.56	-0.18
860.728	-7.76
860.897	16.47
861.065	12.12
861.234	16.93
861.402	6.52
861.571	-6.46
861.739	-7.15
861.908	-24.35
862.076	-44.94
862.244	-26.42
862.413	-18.06
862.581	-17
862.749	-40.08
862.918	-42.61
863.086	-73.18
863.254	-64.52
863.423	-81.39
863.591	-51.79
863.759	-63.34
863.927	-45.07
864.096	-63.12
864.264	-150.01
864.432	-105.22
864.6	-104.09
864.768	-59.42
864.936	-47.68
865.104	-59.08
865.272	-44.48
865.44	-58.03
865.608	-44.52
865.776	-76.2
865.944	-77.25
866.112	-41.33
866.28	-34.08
866.448	-32.36
866.616	-36.19
866.784	-34.8
866.952	-34.4
867.12	-53.64
867.288	-56.11
867.455	-63.69
867.623	-42.49
867.791	-8.2
867.959	-21.05
868.127	-58.05
868.294	-48.41
868.462	-45.18
868.63	-29.59
868.797	-29.61
868.965	-19.47
869.133	-12.79
869.3	1.78
869.468	13.01
869.636	-6.05
869.803	0.96
869.971	15.13
870.138	13.18
870.306	14.94
870.473	19.09
870.641	27.6
870.808	44.99
870.975	42.82
871.143	22.65
871.31	-15.44
871.478	-8.74
871.645	-7.39
871.812	5.78
871.98	14.6
872.147	16.31
872.314	16.33
872.482	6.61
872.649	-11.64
872.816	9.4
872.983	14.81
873.15	39.27
873.318	32.68
873.485	25.67
873.652	7.43
873.819	13.11
873.986	2.89
874.153	1.1
874.32	11.15
874.487	11.44
874.654	4.01
874.821	5.39
874.988	8.1
875.155	26.2
875.322	20.73
875.489	23.85
875.656	28.87
875.823	28.77
875.99	26.13
876.157	17.75
876.324	22.89
876.49	23.2
876.657	16.73
876.824	10.49
876.991	-7.66
877.157	10.44
877.324	13.69
877.491	8.84
877.658	19.09
877.824	18.42
877.991	32.58
878.157	12.62
878.324	5.64
878.491	5.04
878.657	11.32
878.824	17.31
878.99	-11.89
879.157	-29.79
879.323	-9.51
879.49	-19.31
879.656	-17.01
879.823	-15.74
879.989	-6.15
880.156	-12.37
880.322	-1.73
880.488	-2.9
880.655	5.92
880.821	12.52
880.987	20.5
881.154	14.75
881.32	20.65
881.486	22.8
881.652	24.33
881.819	23.7
881.985	33.08
882.151	37.01
882.317	39.18
882.483	38.84
882.649	36.56
882.816	36.26
882.982	36.8
883.148	35.4
883.314	35.83
883.48	35.14
883.646	36.72
883.812	34.98
883.978	33.47
884.144	32.22
884.31	31.18
884.476	32.82
884.642	32.64
884.807	33.99
884.973	33.26
885.139	33.52
885.305	33.04
885.471	32.59
885.637	33.09
885.802	31.08
885.968	31.74
886.134	33.46
886.3	33.04
886.465	30.6
886.631	29.93
886.797	35.21
886.962	34.89
887.128	37.76
887.293	34.56
887.459	31.6
887.625	29.59
887.79	21.49
887.956	15.82
888.121	9.83
888.287	12.75
888.452	7.26
888.618	-11.04
888.783	-22.84
