Data from CB_065_Reflection_1.txt Node
Date: Sat Nov 14 10:41:13 EST 2015
User: robert
Spectrometer: USB4E03001
Autoset integration time: false
Trigger mode: 4
Integration Time (sec): 1.000000E-1
Scans to average: 15
Electric dark correction enabled: true
Nonlinearity correction enabled: false
Boxcar width: 5
Stray light correction enabled: false
XAxis mode: Wavelengths
Stop averaging: false
Number of Pixels in Spectrum: 3648
>>>>>Begin Spectral Data<<<<<
177.566	-151.1
177.785	-256.59
178.005	-1165.63
178.225	-121.25
178.445	-147.15
178.665	-278.92
178.885	-44.02
179.105	-152.54
179.324	-277.54
179.544	-378.25
179.764	-103.24
179.984	-141.53
180.204	-164.83
180.423	-685.69
180.643	-348.59
180.863	-612.76
181.083	-2396.03
181.302	-11854.76
181.522	1300
181.742	1236.05
181.961	1401.04
182.181	209.57
182.401	169.96
182.621	258.46
182.84	899.1
183.06	-2533.9
183.279	-233.57
183.499	-129.68
183.719	-153.3
183.938	-105.8
184.158	-48.19
184.377	-52.14
184.597	-20.71
184.816	6.73
185.036	-2.35
185.256	-0.23
185.475	-91.13
185.695	-11.8
185.914	-59.58
186.134	1.63
186.353	-21.82
186.572	-24.46
186.792	5.39
187.011	-349.58
187.231	426.3
187.45	0.72
187.67	-251.94
187.889	191.8
188.108	208.95
188.328	176.96
188.547	149.8
188.766	122.66
188.986	108.6
189.205	153.99
189.424	185.67
189.644	160.04
189.863	210.94
190.082	259.17
190.302	351.51
190.521	291.43
190.74	276.06
190.959	954.91
191.178	831.03
191.398	651
191.617	1460.59
191.836	4570.97
192.055	992.14
192.274	253.21
192.494	313.25
192.713	10167.86
192.932	-935.62
193.151	181025
193.37	267.2
193.589	-6258.41
193.808	-584.33
194.027	-1061.35
194.246	2743.73
194.465	-1663.91
194.685	470.14
194.904	359.93
195.123	222.89
195.342	177.19
195.561	145.84
195.78	545.82
195.999	1280.15
196.218	523.58
196.436	259.58
196.655	125.71
196.874	74.35
197.093	91.61
197.312	185.86
197.531	277.87
197.75	553
197.969	1297.46
198.188	181.97
198.407	131.31
198.625	160.73
198.844	221.81
199.063	255.81
199.282	587.04
199.501	-3026.56
199.719	-1248.31
199.938	624.32
200.157	265.7
200.376	-1946.11
200.594	-153.9
200.813	-348.15
201.032	-541.67
201.251	-167.54
201.469	-309.79
201.688	-514
201.907	1175.43
202.125	392.18
202.344	1675.38
202.563	9250.72
202.781	640.41
203	211.22
203.218	195
203.437	375.9
203.656	249.36
203.874	446.11
204.093	381.82
204.311	347.73
204.53	926.47
204.748	240.54
204.967	342.11
205.185	208.66
205.404	197.64
205.622	256.43
205.841	141.04
206.059	165.4
206.278	160.9
206.496	206.87
206.715	185.96
206.933	165.2
207.151	191.78
207.37	122.61
207.588	155.48
207.806	189.74
208.025	250.53
208.243	395.18
208.461	-23695.45
208.68	464.78
208.898	332.82
209.116	255.51
209.335	182.93
209.553	189.36
209.771	184.97
209.989	155.98
210.208	153.61
210.426	137.8
210.644	115.37
210.862	116
211.081	130.62
211.299	95.46
211.517	108.22
211.735	95.2
211.953	81.59
212.171	83.99
212.39	78.06
212.608	76.68
212.826	94.63
213.044	104.3
213.262	89.9
213.48	86.54
213.698	176.03
213.916	103.8
214.134	169.88
214.352	263.05
214.57	169.89
214.788	163.23
215.006	114.3
215.224	202.88
215.442	675.22
215.66	1428.66
215.878	473.66
216.096	153.95
216.314	479.41
216.532	1811.42
216.75	-654.78
216.968	-833.19
217.185	-7684.96
217.403	1840.29
217.621	-97933.33
217.839	-462.54
218.057	-11835.42
218.275	-283.71
218.492	-63.29
218.71	-1934.32
218.928	1333.77
219.146	716.79
219.363	437.91
219.581	499.03
219.799	-2527.1
220.017	292.24
220.234	360.41
220.452	492.25
220.67	680.22
220.887	278.97
221.105	457.15
221.323	251.51
221.54	203.47
221.758	194.15
221.976	176.69
222.193	123.74
222.411	113.9
222.629	119.55
222.846	101.91
223.064	92.31
223.281	95.95
223.499	84.59
223.716	82.41
223.934	66.29
224.151	49.13
224.369	38.66
224.586	51.59
224.804	77.06
225.021	63.9
225.239	61.38
225.456	64.59
225.674	51.99
225.891	54.12
226.108	53.75
226.326	48.77
226.543	50.37
226.76	35.43
226.978	33.62
227.195	34.59
227.413	34.28
227.63	39.97
227.847	42.36
228.064	42.34
228.282	35.77
228.499	34.15
228.716	33.31
228.934	34.36
229.151	35.65
229.368	33.31
229.585	31.89
229.802	30.69
230.02	25.35
230.237	26.77
230.454	24.59
230.671	26.05
230.888	27.75
231.105	29.37
231.323	30.74
231.54	36.79
231.757	39.81
231.974	41.94
232.191	42.87
232.408	41.88
232.625	35.41
232.842	34.67
233.059	31.5
233.276	27.09
233.493	23.02
233.71	23.55
233.927	21.03
234.144	16.04
234.361	19.9
234.578	20.12
234.795	17.14
235.012	17.5
235.229	15.47
235.446	25.23
235.663	25.65
235.879	28.09
236.096	30.75
236.313	33.68
236.53	35.6
236.747	31.68
236.964	23.89
237.181	30.35
237.397	33.27
237.614	42.77
237.831	43.69
238.048	45.7
238.264	40.27
238.481	38.75
238.698	34.93
238.915	36.51
239.131	34.37
239.348	31.5
239.565	30.8
239.781	29.43
239.998	23.96
240.215	17.81
240.431	21.8
240.648	26.33
240.865	21.83
241.081	21.16
241.298	20.33
241.514	20.83
241.731	23.89
241.947	21.73
242.164	22.72
242.38	19.53
242.597	18.91
242.814	16.09
243.03	16.25
243.246	17.63
243.463	17.15
243.679	17.11
243.896	16.55
244.112	14.54
244.329	18.73
244.545	19.5
244.762	22.85
244.978	21.93
245.194	22.97
245.411	21.49
245.627	20.63
245.843	21.85
246.06	22.31
246.276	21.72
246.492	24.03
246.709	22.61
246.925	22.15
247.141	22.39
247.357	22.54
247.574	21.91
247.79	21.13
248.006	20.5
248.222	20.73
248.439	19.32
248.655	19.55
248.871	18.55
249.087	19.51
249.303	19.63
249.519	19.18
249.736	19.54
249.952	20.5
250.168	24.25
250.384	26.59
250.6	23.4
250.816	26.29
251.032	24.24
251.248	23.99
251.464	20.54
251.68	17.31
251.896	13.9
252.112	14.71
252.328	13.94
252.544	14.27
252.76	12.59
252.976	12.7
253.192	13.91
253.408	15.8
253.624	14.69
253.84	14.69
254.056	14.91
254.272	17.07
254.487	17.44
254.703	16.51
254.919	15.41
255.135	19.35
255.351	22.71
255.567	19.81
255.782	20.21
255.998	20.33
256.214	19.67
256.43	23.53
256.646	22.87
256.861	22.17
257.077	20.36
257.293	17.13
257.508	15.92
257.724	16.23
257.94	15.23
258.155	14.87
258.371	15.11
258.587	14.78
258.802	13.17
259.018	13.32
259.234	13.11
259.449	14.29
259.665	15.08
259.88	14.7
260.096	13.88
260.312	13.45
260.527	12.84
260.743	13.31
260.958	13.44
261.174	14.55
261.389	15.72
261.605	14.33
261.82	13.17
262.036	12.73
262.251	12.5
262.466	12.52
262.682	12.97
262.897	13.91
263.113	12.31
263.328	10.96
263.543	9.89
263.759	10.4
263.974	12.53
264.189	13.85
264.405	12.56
264.62	12.89
264.835	13.37
265.051	14.2
265.266	14.02
265.481	15.12
265.696	19.36
265.912	17.67
266.127	16.08
266.342	16.74
266.557	18.38
266.773	18.57
266.988	18.65
267.203	18.18
267.418	17.17
267.633	16.25
267.848	15.85
268.064	12.25
268.279	13.06
268.494	12.09
268.709	12.11
268.924	11.46
269.139	10.96
269.354	10.94
269.569	9.63
269.784	10.33
269.999	11.53
270.214	12.19
270.429	12.66
270.644	12.64
270.859	13.09
271.074	11.65
271.289	12.66
271.504	12.88
271.719	12.78
271.934	13.72
272.149	14.02
272.363	13.9
272.578	12.85
272.793	13.86
273.008	13.22
273.223	12.12
273.438	12.57
273.653	11.52
273.867	11.85
274.082	12.11
274.297	12.81
274.512	12.97
274.726	12.5
274.941	13.53
275.156	15.46
275.371	15.34
275.585	16.18
275.8	18.5
276.015	18.73
276.229	19.31
276.444	17.94
276.659	17.57
276.873	16.8
277.088	18.08
277.302	18.22
277.517	15.44
277.732	16.3
277.946	16.61
278.161	15.3
278.375	15.22
278.59	14.06
278.804	15.34
279.019	14.96
279.233	13.87
279.448	12.13
279.662	10.55
279.877	11.08
280.091	8.98
280.306	9.11
280.52	6.35
280.735	5.79
280.949	7.45
281.163	8.4
281.378	7.72
281.592	9.58
281.806	9.79
282.021	10.01
282.235	9.61
282.449	12.02
282.664	11.68
282.878	13.71
283.092	13.66
283.307	12.97
283.521	10.96
283.735	12.26
283.949	12.73
284.164	13.11
284.378	13.91
284.592	14.05
284.806	14.16
285.02	13.36
285.234	12
285.449	12.01
285.663	12.37
285.877	12.38
286.091	10.69
286.305	11.17
286.519	11.56
286.733	11.77
286.947	12.06
287.161	10.98
287.375	11.85
287.589	13.74
287.803	15.18
288.017	14.89
288.231	16.47
288.445	17.82
288.659	16.97
288.873	17.96
289.087	17.13
289.301	17.69
289.515	16.37
289.729	16
289.943	15.56
290.157	14.48
290.371	15.14
290.584	15.18
290.798	15.17
291.012	14.36
291.226	13.03
291.44	13.83
291.654	13.41
291.867	14.55
292.081	15.28
292.295	14.41
292.509	14.43
292.722	12.85
292.936	12.02
293.15	13.17
293.364	13.58
293.577	13.42
293.791	13.03
294.005	11.32
294.218	12.72
294.432	12.67
294.645	13.59
294.859	14.01
295.073	16.12
295.286	15.74
295.5	15.08
295.713	14.85
295.927	15.54
296.14	14.88
296.354	16.38
296.568	15.03
296.781	14.45
296.994	14.98
297.208	15.2
297.421	14.81
297.635	15.8
297.848	15.45
298.062	15.28
298.275	15.54
298.489	15.99
298.702	16.21
298.915	16.42
299.129	17.75
299.342	16.93
299.555	17.41
299.769	17.22
299.982	16.5
300.195	17.11
300.409	16.98
300.622	15.58
300.835	15.01
301.048	15.62
301.262	16.47
301.475	16.47
301.688	16
301.901	15.41
302.115	15.44
302.328	14.75
302.541	15.08
302.754	17.24
302.967	19.33
303.18	21.54
303.393	20.39
303.607	20.38
303.82	20.47
304.033	22.16
304.246	22.64
304.459	21.83
304.672	22.78
304.885	23.45
305.098	22.91
305.311	23.21
305.524	21.81
305.737	21.37
305.95	22.03
306.163	21.57
306.376	21.1
306.589	20.43
306.802	21.3
307.015	22.04
307.228	21.59
307.44	21.48
307.653	19.44
307.866	20.81
308.079	21.73
308.292	21.04
308.505	22.36
308.718	22.34
308.93	23.28
309.143	23.24
309.356	23.48
309.569	22.6
309.781	22.04
309.994	22.29
310.207	21.72
310.42	20.94
310.632	20.78
310.845	19.56
311.058	19.87
311.27	19.04
311.483	18.67
311.696	17.94
311.908	18.32
312.121	18.39
312.333	19.6
312.546	18.6
312.759	18.42
312.971	18.37
313.184	19.04
313.396	18.87
313.609	19.39
313.821	19.3
314.034	18.99
314.246	19.49
314.459	19.6
314.671	17.98
314.884	18.79
315.096	20.81
315.309	22.47
315.521	22.38
315.733	21.88
315.946	21.6
316.158	22.83
316.371	24.71
316.583	22.87
316.795	23.02
317.008	23.51
317.22	23.78
317.432	23.41
317.644	21.62
317.857	22.59
318.069	22.81
318.281	23.58
318.494	23.68
318.706	21.42
318.918	23.04
319.13	22.63
319.342	22.78
319.555	23.11
319.767	23.19
319.979	23.04
320.191	20.89
320.403	22.06
320.615	22.5
320.827	21.82
321.039	23.75
321.252	24.68
321.464	25.37
321.676	25.28
321.888	25.17
322.1	24.79
322.312	25.11
322.524	25.43
322.736	24
322.948	24.23
323.16	23.3
323.372	23.12
323.584	23.63
323.796	23.61
324.007	24.5
324.219	24.66
324.431	25.39
324.643	26.29
324.855	27.7
325.067	27.16
325.279	25.64
325.491	27.19
325.702	26.46
325.914	25.79
326.126	25.13
326.338	23.6
326.55	23.4
326.761	23.51
326.973	23.48
327.185	23.21
327.396	25.24
327.608	26.16
327.82	25.7
328.032	26.71
328.243	27.38
328.455	29.6
328.666	31.43
328.878	32.67
329.09	32.1
329.301	31.5
329.513	30.54
329.725	30.39
329.936	31.3
330.148	31.26
330.359	31.28
330.571	31.34
330.782	30.18
330.994	30.19
331.205	30.52
331.417	31.1
331.628	30.87
331.84	32.84
332.051	33.34
332.262	32.05
332.474	32.4
332.685	33.56
332.897	32.64
333.108	33.13
333.319	32.24
333.531	31.42
333.742	31.16
333.953	31.01
334.165	29.82
334.376	29.93
334.587	31.37
334.799	30.34
335.01	28.68
335.221	29.37
335.432	27.69
335.644	28.68
335.855	29.25
336.066	28.86
336.277	29.97
336.488	30.91
336.7	30.39
336.911	30.32
337.122	31.58
337.333	32.63
337.544	31.78
337.755	34.19
337.966	34.18
338.177	34.05
338.388	34.4
338.599	34.36
338.811	33.6
339.022	33.95
339.233	33.13
339.444	32.33
339.655	31.26
339.866	31.58
340.076	30.26
340.287	29.3
340.498	29.16
340.709	29.44
340.92	29.52
341.131	29.66
341.342	29.66
341.553	29.6
341.764	30.98
341.975	31.59
342.185	32.23
342.396	32.01
342.607	31.29
342.818	31.16
343.029	31.14
343.239	31.26
343.45	31.59
343.661	31.12
343.872	31.83
344.082	30.69
344.293	30.63
344.504	29.93
344.714	30.2
344.925	31.93
345.136	31.96
345.346	30.49
345.557	30.58
345.768	29.73
345.978	30.2
346.189	29.24
346.399	29.03
346.61	29.04
346.821	29.01
347.031	29.11
347.242	28.71
347.452	28.23
347.663	29.41
347.873	29.77
348.084	30.98
348.294	29.96
348.504	29.79
348.715	30.61
348.925	30.08
349.136	28.67
349.346	28.64
349.557	28.38
349.767	29.64
349.977	30.49
350.188	28.9
350.398	28.67
350.608	28.49
350.819	29.9
351.029	28.87
351.239	29.94
351.449	31.16
351.66	30.93
351.87	30.68
352.08	30.03
352.29	29.56
352.501	30.36
352.711	29.58
352.921	30.35
353.131	29.3
353.341	29.9
353.552	28.78
353.762	27.83
353.972	27.8
354.182	27.79
354.392	27.37
354.602	27.05
354.812	27.01
355.022	26.58
355.232	27.07
355.442	27.5
355.652	27.96
355.862	28.33
356.072	29.04
356.282	28.57
356.492	28.84
356.702	28.2
356.912	27.89
357.122	28.38
357.332	29.12
357.542	28.15
357.752	27.59
357.962	26.81
358.171	27.44
358.381	27.43
358.591	27.78
358.801	27.94
359.011	28.34
359.221	28.55
359.43	28.17
359.64	27.58
359.85	28.2
360.06	28.53
360.269	28.62
360.479	27.92
360.689	28.43
360.899	28.76
361.108	28.53
361.318	27.81
361.528	27.71
361.737	27.44
361.947	27.51
362.156	27.14
362.366	26.45
362.576	26.34
362.785	26.21
362.995	25.89
363.204	25.39
363.414	25.66
363.623	25.93
363.833	26.39
364.042	25.97
364.252	26.08
364.461	25.78
364.671	26.12
364.88	26.06
365.09	26.62
365.299	26.93
365.509	27.36
365.718	26.22
365.927	26.72
366.137	25.85
366.346	26.21
366.555	26.27
366.765	26.53
366.974	26.76
367.183	26.62
367.393	25.65
367.602	24.55
367.811	24.5
368.021	24.98
368.23	24.31
368.439	23.98
368.648	23.51
368.857	22.85
369.067	22.78
369.276	22.49
369.485	22.14
369.694	22.41
369.903	22.87
370.112	22.65
370.321	22.3
370.531	22.34
370.74	22.77
370.949	23.11
371.158	23.24
371.367	22.94
371.576	22.86
371.785	23.68
371.994	23.8
372.203	23.4
372.412	22.73
372.621	23.02
372.83	23.32
373.039	23.43
373.248	23.06
373.457	23.2
373.666	23.12
373.874	22.97
374.083	22.74
374.292	22.75
374.501	23.04
374.71	23.1
374.919	22.93
375.128	22.74
375.336	22.7
375.545	22.9
375.754	22.69
375.963	22.15
376.171	22.24
376.38	21.79
376.589	20.98
376.798	20.62
377.006	20.87
377.215	20.79
377.424	20.37
377.632	19.26
377.841	19.2
378.05	18.62
378.258	19.31
378.467	18.99
378.675	18.73
378.884	18.91
379.093	18.74
379.301	18.5
379.51	18.35
379.718	18.43
379.927	19.28
380.135	19.04
380.344	19.3
380.552	19.11
380.761	18.65
380.969	18.48
381.177	18.3
381.386	18.86
381.594	18.69
381.803	18.57
382.011	18.71
382.219	18.46
382.428	18.51
382.636	18.9
382.845	18.15
383.053	18.68
383.261	18.82
383.469	18.97
383.678	18.63
383.886	18.83
384.094	18.97
384.302	18.8
384.511	18.71
384.719	18.8
384.927	18.43
385.135	18.44
385.343	18.38
385.552	18.49
385.76	17.91
385.968	17.38
386.176	16.78
386.384	16.19
386.592	15.74
386.8	15.72
387.008	15.28
387.216	15.11
387.424	15.27
387.633	15.02
387.841	14.82
388.049	15.21
388.257	15.91
388.465	15.88
388.672	15.9
388.88	16.32
389.088	15.71
389.296	15.69
389.504	15.46
389.712	15.34
389.92	15.63
390.128	15.68
390.336	15.71
390.544	15.31
390.751	15.4
390.959	15.4
391.167	15.26
391.375	15.94
391.583	15.67
391.79	15.43
391.998	15.64
392.206	15.44
392.414	15.15
392.621	15.17
392.829	15.14
393.037	15.11
393.244	15.21
393.452	15.16
393.66	14.83
393.867	15.09
394.075	15.22
394.283	15.21
394.49	14.86
394.698	14.59
394.905	14.3
395.113	14.23
395.32	13.98
395.528	14.07
395.735	13.94
395.943	13.74
396.15	13.73
396.358	13.79
396.565	13.52
396.773	13.51
396.98	13.73
397.188	13.38
397.395	13.43
397.602	13.55
397.81	13.18
398.017	13.7
398.225	14.15
398.432	13.87
398.639	14.02
398.847	13.89
399.054	14.04
399.261	14.13
399.468	14.61
399.676	14.76
399.883	14.67
400.09	14.79
400.297	14.28
400.505	13.8
400.712	14.05
400.919	13.89
401.126	14.03
401.333	13.96
401.54	13.8
401.748	13.64
401.955	13.07
402.162	13.06
402.369	12.96
402.576	13.04
402.783	12.96
402.99	12.72
403.197	12.39
403.404	12.28
403.611	12.25
403.818	12.28
404.025	12.23
404.232	12.46
404.439	12.55
404.646	12.46
404.853	12.42
405.06	12.18
405.267	12.23
405.474	12.47
405.681	12.69
405.887	12.63
406.094	13.01
406.301	12.86
406.508	12.96
406.715	13.07
406.922	13.17
407.128	13.39
407.335	13.59
407.542	13.38
407.749	13.22
407.955	13.01
408.162	12.92
408.369	12.3
408.575	12.53
408.782	12.59
408.989	12.24
409.195	11.92
409.402	11.8
409.609	11.51
409.815	11.55
410.022	11.75
410.228	11.69
410.435	11.7
410.642	11.9
410.848	11.63
411.055	11.49
411.261	11.58
411.468	12
411.674	11.84
411.881	12.16
412.087	12.44
412.294	12.38
412.5	12.56
412.706	12.8
412.913	12.85
413.119	12.77
413.326	12.5
413.532	12.44
413.738	12.22
413.945	11.83
414.151	12.07
414.357	11.95
414.564	11.73
414.77	11.51
414.976	11.05
415.182	11.08
415.389	11.19
415.595	11.18
415.801	11.09
416.007	11.18
416.214	11.36
416.42	11.22
416.626	10.97
416.832	11.03
417.038	11.14
417.244	11.35
417.45	11.17
417.657	11.15
417.863	11.15
418.069	11.21
418.275	11.26
418.481	11.22
418.687	11.13
418.893	11.26
419.099	11.32
419.305	11.15
419.511	11.14
419.717	11.06
419.923	11.09
420.129	11.04
420.335	11
420.541	10.9
420.746	10.88
420.952	10.9
421.158	10.94
421.364	10.76
421.57	10.82
421.776	10.68
421.982	10.85
422.187	10.67
422.393	10.69
422.599	10.77
422.805	10.66
423.01	10.67
423.216	10.6
423.422	10.5
423.628	10.66
423.833	10.64
424.039	10.71
424.245	10.57
424.45	10.72
424.656	10.8
424.862	10.72
425.067	10.75
425.273	10.83
425.478	10.89
425.684	10.87
425.889	11.04
426.095	11.04
426.301	11.16
426.506	11.19
426.712	11.2
426.917	11.28
427.123	11.29
427.328	11.39
427.533	11.25
427.739	11.28
427.944	11.33
428.15	10.98
428.355	10.91
428.561	10.78
428.766	10.84
428.971	10.67
429.177	10.6
429.382	10.68
429.587	10.54
429.793	10.55
429.998	10.53
430.203	10.38
430.408	10.65
430.614	10.62
430.819	10.54
431.024	10.29
431.229	10.45
431.434	10.42
431.64	10.24
431.845	10.29
432.05	10.32
432.255	10.13
432.46	10.26
432.665	10.07
432.87	10.12
433.076	10.09
433.281	10.26
433.486	10.15
433.691	10
433.896	10.07
434.101	9.8
434.306	9.84
434.511	9.83
434.716	9.83
434.921	9.91
435.126	9.89
435.331	9.8
435.535	9.72
435.74	9.72
435.945	9.6
436.15	9.63
436.355	9.86
436.56	9.74
436.765	9.89
436.97	9.95
437.174	9.95
437.379	9.88
437.584	10.15
437.789	10.3
437.993	10.32
438.198	10.68
438.403	10.63
438.608	10.75
438.812	10.81
439.017	10.74
439.222	10.67
439.426	10.69
439.631	10.61
439.836	10.58
440.04	10.73
440.245	10.74
440.45	10.66
440.654	10.71
440.859	10.55
441.063	10.46
441.268	10.53
441.472	10.44
441.677	10.25
441.881	10.26
442.086	10.19
442.29	9.92
442.495	9.89
442.699	9.72
442.904	9.55
443.108	9.81
443.312	9.83
443.517	9.94
443.721	10.05
443.925	10.19
444.13	10.17
444.334	10.07
444.538	10.07
444.743	10.13
444.947	10.16
445.151	10.29
445.356	10.2
445.56	10.35
445.764	10.22
445.968	10.26
446.173	10.21
446.377	10.37
446.581	10.56
446.785	10.51
446.989	10.53
447.193	10.62
447.398	10.6
447.602	10.45
447.806	10.41
448.01	10.35
448.214	10.21
448.418	10.07
448.622	10.02
448.826	9.97
449.03	10.03
449.234	9.96
449.438	9.86
449.642	9.85
449.846	9.99
450.05	9.84
450.254	9.74
450.458	9.71
450.662	9.82
450.866	9.67
451.069	9.51
451.273	9.6
451.477	9.67
451.681	9.77
451.885	9.65
452.089	9.74
452.292	9.62
452.496	9.67
452.7	9.88
452.904	10.02
453.107	10.13
453.311	10.11
453.515	10
453.719	9.98
453.922	10.03
454.126	10.21
454.33	9.96
454.533	9.99
454.737	10.08
454.94	9.92
455.144	9.91
455.348	9.95
455.551	10.01
455.755	9.99
455.958	9.91
456.162	9.94
456.365	9.92
456.569	9.99
456.772	10.04
456.976	10.08
457.179	10.13
457.383	10.11
457.586	10.08
457.79	10.04
457.993	9.98
458.196	9.98
458.4	9.89
458.603	9.76
458.807	9.63
459.01	9.75
459.213	9.68
459.417	9.69
459.62	9.53
459.823	9.54
460.026	9.53
460.23	9.48
460.433	9.45
460.636	9.41
460.839	9.42
461.042	9.42
461.246	9.44
461.449	9.43
461.652	9.34
461.855	9.39
462.058	9.3
462.261	9.36
462.464	9.34
462.668	9.37
462.871	9.46
463.074	9.46
463.277	9.5
463.48	9.22
463.683	9.38
463.886	9.3
464.089	9.42
464.292	9.43
464.495	9.38
464.698	9.58
464.901	9.57
465.104	9.37
465.306	9.13
465.509	9.49
465.712	9.78
465.915	9.83
466.118	9.99
466.321	9.95
466.524	9.82
466.726	9.81
466.929	9.87
467.132	9.73
467.335	9.98
467.538	10.22
467.74	10.02
467.943	9.91
468.146	9.71
468.348	9.74
468.551	9.55
468.754	9.56
468.956	9.69
469.159	9.61
469.362	9.85
469.564	9.76
469.767	9.84
469.969	9.99
470.172	10.22
470.375	10.2
470.577	10.18
470.78	10.43
470.982	10.65
471.185	10.62
471.387	10.76
471.59	10.59
471.792	10.6
471.995	10.57
472.197	10.42
472.399	10.24
472.602	10.24
472.804	10.12
473.007	10.01
473.209	10.06
473.411	9.9
473.614	9.85
473.816	10
474.018	9.96
474.22	9.98
474.423	9.94
474.625	9.9
474.827	9.87
475.03	10.07
475.232	10.18
475.434	10.09
475.636	10.06
475.838	9.91
476.04	9.81
476.243	9.65
476.445	9.46
476.647	9.61
476.849	9.63
477.051	9.64
477.253	9.75
477.455	9.65
477.657	9.48
477.859	9.48
478.061	9.45
478.263	9.35
478.465	9.45
478.667	9.51
478.869	9.25
479.071	9.09
479.273	8.99
479.475	8.8
479.677	8.76
479.879	8.85
480.081	8.88
480.283	8.87
480.485	8.92
480.686	8.96
480.888	8.98
481.09	9.08
481.292	9.18
481.494	9.43
481.695	9.4
481.897	9.38
482.099	9.43
482.301	9.37
482.502	9.27
482.704	9.27
482.906	9.19
483.107	9.13
483.309	9.09
483.511	9.08
483.712	9.03
483.914	9.03
484.115	9.02
484.317	9.01
484.519	9.02
484.72	9.1
484.922	9.09
485.123	9.1
485.325	9.16
485.526	9.18
485.728	9.17
485.929	9.17
486.131	9.16
486.332	9.16
486.534	9.11
486.735	9.12
486.936	9.11
487.138	9.14
487.339	9.12
487.541	9.08
487.742	9.08
487.943	9.09
488.144	9.09
488.346	9.08
488.547	9.09
488.748	9.14
488.95	9.08
489.151	9.05
489.352	9.03
489.553	9.08
489.755	9.09
489.956	9.01
490.157	8.98
490.358	8.91
490.559	8.91
490.76	8.91
490.961	8.87
491.163	8.96
491.364	8.98
491.565	8.97
491.766	8.96
491.967	8.99
492.168	9.11
492.369	9.1
492.57	9.09
492.771	9.22
492.972	9.23
493.173	9.31
493.374	9.38
493.575	9.43
493.776	9.42
493.976	9.47
494.177	9.49
494.378	9.55
494.579	9.83
494.78	9.95
494.981	9.82
495.182	9.83
495.382	9.9
495.583	9.78
495.784	9.81
495.985	10.07
496.185	10.05
496.386	10.06
496.587	9.95
496.788	9.87
496.988	9.68
497.189	9.69
497.39	9.78
497.59	9.69
497.791	9.64
497.992	9.6
498.192	9.38
498.393	9.45
498.593	9.5
498.794	9.56
498.994	9.56
499.195	9.68
499.395	9.74
499.596	9.74
499.796	9.7
499.997	9.92
500.197	9.98
500.398	9.93
500.598	9.88
500.799	9.87
500.999	9.76
501.199	9.75
501.4	9.98
501.6	9.85
501.801	9.91
502.001	10.02
502.201	9.87
502.402	9.98
502.602	10.1
502.802	10.15
503.002	10.09
503.203	10.43
503.403	10.45
503.603	10.38
503.803	10.51
504.003	10.62
504.204	10.77
504.404	10.97
504.604	10.92
504.804	11.11
505.004	11.01
505.204	11.15
505.404	11.01
505.604	11.09
505.804	11.07
506.005	11.03
506.205	10.84
506.405	10.89
506.605	10.92
506.805	11.03
507.005	10.84
507.204	10.98
507.404	10.85
507.604	10.78
507.804	10.82
508.004	10.88
508.204	10.95
508.404	11.06
508.604	10.99
508.804	10.89
509.003	10.89
509.203	10.94
509.403	11.02
509.603	11.05
509.803	11.18
510.002	11.24
510.202	11.31
510.402	11.4
510.602	11.36
510.801	11.42
511.001	11.52
511.201	11.43
511.4	11.51
511.6	11.48
511.8	11.66
511.999	11.75
512.199	11.6
512.398	11.63
512.598	11.64
512.797	11.93
512.997	11.94
513.197	11.95
513.396	12.23
513.596	12.34
513.795	12.49
513.994	12.43
514.194	12.47
514.393	12.62
514.593	12.68
514.792	12.87
514.992	12.91
515.191	13.06
515.39	13.05
515.59	12.99
515.789	13.05
515.988	13.11
516.188	13.24
516.387	13.34
516.586	13.5
516.786	13.5
516.985	13.57
517.184	13.47
517.383	13.58
517.582	13.8
517.782	13.86
517.981	13.94
518.18	13.96
518.379	14.13
518.578	14.15
518.777	14.36
518.976	14.54
519.176	14.57
519.375	14.63
519.574	14.63
519.773	14.66
519.972	14.88
520.171	15.09
520.37	15.21
520.569	15.26
520.768	15.44
520.967	15.33
521.166	15.59
521.365	15.74
521.564	15.96
521.762	16.21
521.961	16.34
522.16	16.34
522.359	16.24
522.558	16.32
522.757	16.3
522.956	16.28
523.154	16.47
523.353	16.53
523.552	16.59
523.751	16.6
523.949	16.67
524.148	16.67
524.347	16.79
524.546	17.01
524.744	17.08
524.943	17.3
525.142	17.35
525.34	17.48
525.539	17.5
525.737	17.68
525.936	17.85
526.135	18.02
526.333	18.15
526.532	18.25
526.73	18.3
526.929	18.51
527.127	18.59
527.326	18.73
527.524	18.83
527.723	18.88
527.921	18.92
528.12	19
528.318	19.01
528.516	19.16
528.715	19.21
528.913	19.29
529.112	19.28
529.31	19.34
529.508	19.43
529.707	19.41
529.905	19.54
530.103	19.59
530.301	19.59
530.5	19.68
530.698	19.71
530.896	19.78
531.094	19.83
531.293	19.99
531.491	20.06
531.689	20.1
531.887	20.29
532.085	20.43
532.283	20.48
532.481	20.7
532.68	20.81
532.878	20.91
533.076	21.08
533.274	21.09
533.472	21.08
533.67	21.22
533.868	21.35
534.066	21.46
534.264	21.43
534.462	21.51
534.66	21.59
534.858	21.7
535.056	21.85
535.253	21.86
535.451	22.08
535.649	22.27
535.847	22.37
536.045	22.49
536.243	22.59
536.441	22.63
536.638	22.69
536.836	22.88
537.034	22.94
537.232	22.91
537.43	22.9
537.627	22.89
537.825	23.09
538.023	23.25
538.22	23.46
538.418	23.45
538.616	23.58
538.813	23.68
539.011	23.57
539.209	23.64
539.406	23.76
539.604	23.96
539.801	24.15
539.999	24.17
540.196	24.11
540.394	24.14
540.591	24.27
540.789	24.36
540.986	24.44
541.184	24.52
541.381	24.59
541.579	24.65
541.776	24.69
541.974	24.68
542.171	24.7
542.368	24.68
542.566	24.59
542.763	24.62
542.96	24.67
543.158	24.84
543.355	24.86
543.552	24.96
543.75	25
543.947	25.04
544.144	25.35
544.341	25.34
544.539	25.55
544.736	25.72
544.933	25.78
545.13	25.67
545.327	25.68
545.524	25.78
545.722	25.71
545.919	25.64
546.116	25.7
546.313	25.49
546.51	25.59
546.707	25.6
546.904	25.72
547.101	25.73
547.298	26.04
547.495	25.9
547.692	25.92
547.889	25.88
548.086	26.1
548.283	26.26
548.48	26.35
548.677	26.4
548.874	26.46
549.07	26.45
549.267	26.55
549.464	26.4
549.661	26.68
549.858	26.78
550.055	26.95
550.251	26.95
550.448	26.85
550.645	26.74
550.842	26.81
551.038	26.74
551.235	26.68
551.432	26.64
551.628	26.85
551.825	26.99
552.022	26.97
552.218	26.96
552.415	27.04
552.612	27.16
552.808	27.38
553.005	27.58
553.201	27.55
553.398	27.85
553.594	28.01
553.791	28.07
553.987	28
554.184	28.16
554.38	28.16
554.577	28.19
554.773	28.14
554.97	28.08
555.166	28.03
555.362	28.13
555.559	28.02
555.755	27.98
555.952	27.85
556.148	27.96
556.344	28.07
556.541	28.08
556.737	28.07
556.933	28.27
557.129	28.19
557.326	28.21
557.522	28.29
557.718	28.44
557.914	28.51
558.11	28.5
558.307	28.33
558.503	28.42
558.699	28.74
558.895	28.76
559.091	28.8
559.287	29.07
559.483	29.09
559.679	29.1
559.876	29.02
560.072	29.13
560.268	29.16
560.464	29.51
560.66	29.26
560.856	29.28
561.052	29.2
561.247	29.12
561.443	29.11
561.639	29.19
561.835	29.41
562.031	29.47
562.227	29.44
562.423	29.51
562.619	29.34
562.815	29.58
563.01	29.78
563.206	30
563.402	29.94
563.598	30.05
563.793	30.08
563.989	30.15
564.185	30.12
564.381	30.03
564.576	30.23
564.772	30.22
564.968	30.32
565.163	30.16
565.359	29.96
565.555	29.9
565.75	29.91
565.946	29.82
566.141	29.75
566.337	29.85
566.532	29.93
566.728	29.73
566.923	29.7
567.119	29.58
567.314	29.55
567.51	29.53
567.705	29.7
567.901	29.72
568.096	29.59
568.292	29.74
568.487	29.74
568.682	29.67
568.878	30
569.073	29.89
569.268	29.74
569.464	30.01
569.659	30.29
569.854	30.32
570.05	30.17
570.245	30.51
570.44	30.5
570.635	30.44
570.831	30.37
571.026	30.27
571.221	30.61
571.416	30.69
571.611	30.42
571.806	30.33
572.002	30.34
572.197	30.34
572.392	30.14
572.587	30.12
572.782	30.04
572.977	30.09
573.172	29.9
573.367	29.73
573.562	29.66
573.757	29.85
573.952	29.76
574.147	29.88
574.342	29.92
574.537	30.15
574.732	30.05
574.927	30.27
575.121	30.49
575.316	30.89
575.511	31.05
575.706	31.24
575.901	31.04
576.096	31.32
576.29	31.2
576.485	31.37
576.68	31.29
576.875	31.35
577.069	31.23
577.264	31.21
577.459	30.87
577.654	30.87
577.848	30.89
578.043	31.16
578.238	31.13
578.432	31.16
578.627	31.18
578.821	31.28
579.016	31.38
579.21	31.47
579.405	31.49
579.6	31.73
579.794	31.87
579.989	32.07
580.183	32.19
580.378	32.12
580.572	32.28
580.766	32.28
580.961	32.05
581.155	31.9
581.35	31.96
581.544	31.96
581.738	32.22
581.933	31.94
582.127	31.88
582.321	31.64
582.516	31.57
582.71	31.53
582.904	31.69
583.099	31.91
583.293	32.17
583.487	32.16
583.681	32.34
583.875	31.98
584.07	32.37
584.264	32.57
584.458	32.63
584.652	32.94
584.846	32.95
585.04	32.86
585.234	33.05
585.428	32.98
585.623	33.23
585.817	33.02
586.011	33.13
586.205	32.79
586.399	32.57
586.593	32.57
586.787	32.41
586.981	32.58
587.174	32.65
587.368	32.4
587.562	32.42
587.756	32.2
587.95	32.35
588.144	32.37
588.338	32.66
588.532	32.58
588.725	32.57
588.919	32.53
589.113	32.4
589.307	32.49
589.501	32.51
589.694	32.79
589.888	32.83
590.082	32.73
590.275	32.63
590.469	32.75
590.663	32.99
590.856	32.82
591.05	33.02
591.244	32.94
591.437	33.04
591.631	33.16
591.824	32.71
592.018	32.82
592.212	32.82
592.405	33.04
592.599	32.67
592.792	32.39
592.986	32.8
593.179	32.63
593.372	32.79
593.566	32.52
593.759	32.56
593.953	32.74
594.146	32.56
594.339	32.66
594.533	32.66
594.726	32.74
594.92	32.66
595.113	32.58
595.306	32.77
595.499	32.72
595.693	32.96
595.886	33.03
596.079	33.14
596.272	33.26
596.466	33.24
596.659	33.36
596.852	33.58
597.045	33.71
597.238	33.62
597.431	33.52
597.624	33.55
597.818	33.43
598.011	33.54
598.204	33.5
598.397	33.56
598.59	33.85
598.783	33.77
598.976	33.62
599.169	33.49
599.362	33.52
599.555	33.45
599.748	33.62
599.941	33.64
600.134	33.4
600.326	33.49
600.519	33.71
600.712	33.53
600.905	33.64
601.098	33.74
601.291	33.96
601.483	33.9
601.676	34.02
601.869	33.93
602.062	33.95
602.255	34.04
602.447	33.87
602.64	33.58
602.833	33.5
603.025	33.42
603.218	33.38
603.411	33.39
603.603	33.61
603.796	33.69
603.989	33.66
604.181	33.65
604.374	33.69
604.566	33.75
604.759	33.86
604.951	34.01
605.144	34.01
605.336	34.02
605.529	34.08
605.721	34.02
605.914	33.97
606.106	33.86
606.299	33.94
606.491	34.07
606.683	34.09
606.876	34.03
607.068	33.93
607.26	33.83
607.453	33.78
607.645	33.58
607.837	33.76
608.03	33.87
608.222	34
608.414	33.87
608.606	33.62
608.799	33.92
608.991	34
609.183	33.94
609.375	34.24
609.567	34.27
609.759	34.53
609.952	34.33
610.144	34.16
610.336	34.24
610.528	34.36
610.72	34.5
610.912	34.34
611.104	34.58
611.296	34.47
611.488	34.25
611.68	34.39
611.872	34.31
612.064	34.71
612.256	35.04
612.448	35.24
612.64	35.08
612.832	35.16
613.023	34.87
613.215	34.72
613.407	35.01
613.599	35.23
613.791	35.18
613.983	35.15
614.174	34.79
614.366	34.62
614.558	34.66
614.75	34.81
614.941	34.63
615.133	34.82
615.325	34.73
615.516	34.94
615.708	35.04
615.9	34.93
616.091	35.22
616.283	35.28
616.475	35.01
616.666	34.75
616.858	34.99
617.049	34.84
617.241	35.11
617.432	34.76
617.624	34.75
617.815	34.49
618.007	34.33
618.198	34.29
618.39	34.19
618.581	34.39
618.773	34.2
618.964	33.99
619.155	34.26
619.347	33.87
619.538	34.32
619.729	33.96
619.921	33.85
620.112	34.08
620.303	34.03
620.494	34.23
620.686	34.25
620.877	34.58
621.068	34.45
621.259	34.32
621.451	34.84
621.642	34.55
621.833	34.63
622.024	34.88
622.215	34.82
622.406	34.77
622.597	34.67
622.788	34.75
622.98	34.53
623.171	34.55
623.362	34.65
623.553	34.61
623.744	34.59
623.935	34.42
624.126	34.39
624.317	34.64
624.508	34.56
624.698	34.62
624.889	34.7
625.08	35.17
625.271	35.46
625.462	35.72
625.653	35.35
625.844	35.4
626.034	35.66
626.225	35.64
626.416	35.17
626.607	35.26
626.798	35.17
626.988	35.1
627.179	35
627.37	34.63
627.56	34.66
627.751	34.86
627.942	35.13
628.132	34.89
628.323	34.86
628.514	35.35
628.704	35.02
628.895	35.12
629.085	34.89
629.276	34.64
629.466	34.98
629.657	34.55
629.847	34.44
630.038	34.67
630.228	34.73
630.419	35.22
630.609	35.22
630.8	35.55
630.99	35.71
631.181	36.11
631.371	36.4
631.561	36.28
631.752	36.52
631.942	36.79
632.132	36.03
632.323	36.2
632.513	35.69
632.703	35.2
632.893	35.2
633.084	35.01
633.274	34.75
633.464	34.38
633.654	34.46
633.844	34.38
634.034	34.12
634.225	34.46
634.415	34.21
634.605	34.02
634.795	34.44
634.985	34.55
635.175	34.76
635.365	34.8
635.555	34.86
635.745	34.74
635.935	34.79
636.125	34.84
636.315	35.32
636.505	35.57
636.695	35.77
636.885	35.34
637.075	35.42
637.265	35.18
637.455	35.56
637.644	35.85
637.834	35.78
638.024	35.91
638.214	36.21
638.404	35.72
638.593	35.83
638.783	35.82
638.973	36.17
639.163	35.91
639.352	35.74
639.542	35.61
639.732	35.33
639.921	35.82
640.111	35.78
640.301	35.45
640.49	35.47
640.68	35.63
640.87	35.98
641.059	36.03
641.249	36.04
641.438	36.14
641.628	36.04
641.817	36.51
642.007	36.39
642.196	36.6
642.386	36.77
642.575	36.94
642.764	36.48
642.954	36.26
643.143	36.23
643.333	36.35
643.522	36.28
643.711	36.22
643.901	35.95
644.09	35.81
644.279	35.68
644.469	35.63
644.658	35.38
644.847	35.54
645.036	35.55
645.226	35.82
645.415	35.76
645.604	35.56
645.793	35.76
645.982	35.61
646.171	35.6
646.361	35.25
646.55	35.71
646.739	35.38
646.928	35.5
647.117	35.6
647.306	35.44
647.495	35.24
647.684	35.74
647.873	35.85
648.062	35.75
648.251	35.59
648.44	35.8
648.629	35.13
648.818	35.46
649.007	35.35
649.196	35.31
649.384	34.86
649.573	35.18
649.762	35.1
649.951	34.84
650.14	35.34
650.328	35.08
650.517	35.17
650.706	35.71
650.895	35.55
651.083	35.96
651.272	36.06
651.461	36.46
651.65	35.99
651.838	36.02
652.027	36.09
652.216	35.62
652.404	35.81
652.593	35.5
652.781	35.29
652.97	35.41
653.158	34.77
653.347	34.93
653.535	34.58
653.724	35.01
653.912	35.52
654.101	35.58
654.289	36
654.478	36.28
654.666	36.6
654.855	36.85
655.043	36.93
655.231	37.24
655.42	37.15
655.608	37.57
655.796	37.85
655.985	37.11
656.173	37.16
656.361	37.11
656.55	37.26
656.738	37.34
656.926	37.42
657.114	37.29
657.302	37.44
657.491	37
657.679	37.06
657.867	36.94
658.055	37.17
658.243	37
658.431	36.89
658.619	36.77
658.807	36.89
658.996	36.41
659.184	36.27
659.372	36.16
659.56	36.36
659.748	36.21
659.936	36.12
660.124	36.21
660.311	36.41
660.499	36.19
660.687	36.11
660.875	35.75
661.063	35.93
661.251	36.14
661.439	36.39
661.627	36.43
661.814	36.36
662.002	36.02
662.19	36.05
662.378	35.79
662.565	36.09
662.753	36.13
662.941	36.54
663.129	36.5
663.316	36.62
663.504	36.32
663.692	36
663.879	36.17
664.067	36.6
664.254	36.12
664.442	35.89
664.63	36.23
664.817	36.51
665.005	36.18
665.192	36.62
665.38	36.54
665.567	36.56
665.755	37
665.942	36.8
666.13	37.14
666.317	37.52
666.504	37.87
666.692	37.73
666.879	37.16
667.067	37.58
667.254	37.4
667.441	37.26
667.629	37.33
667.816	37.05
668.003	37.52
668.19	37.18
668.378	37.7
668.565	37.7
668.752	37.41
668.939	37.98
669.127	37.82
669.314	37.49
669.501	38.04
669.688	38.19
669.875	38.52
670.062	38.14
670.249	38.14
670.436	37.8
670.623	37.95
670.81	38.38
670.997	38.09
671.184	38.16
671.371	38.45
671.558	37.96
671.745	37.8
671.932	37.37
672.119	37.21
672.306	37.15
672.493	36.91
672.68	36.62
672.867	36.69
673.054	36.94
673.24	36.42
673.427	36.22
673.614	36.28
673.801	36.36
673.988	36.75
674.174	37.12
674.361	36.84
674.548	36.76
674.734	36.61
674.921	36.16
675.108	35.86
675.294	36.24
675.481	36.27
675.668	36.9
675.854	36.89
676.041	36.92
676.227	36.89
676.414	37.32
676.601	37.54
676.787	37.94
676.974	37.85
677.16	37.63
677.347	37.91
677.533	37.9
677.719	37.43
677.906	37.4
678.092	37.37
678.279	37.06
678.465	37.09
678.651	36.85
678.838	36.54
679.024	36.43
679.21	36.04
679.397	35.76
679.583	35.82
679.769	35.74
679.955	35.95
680.142	35.74
680.328	35.95
680.514	35.86
680.7	35.96
680.886	35.8
681.073	36.14
681.259	37.07
681.445	37.36
681.631	37.04
681.817	37.01
682.003	36.87
682.189	36.89
682.375	37.3
682.561	37.23
682.747	36.79
682.933	36.88
683.119	36.4
683.305	36.27
683.491	36.24
683.677	37.02
683.863	37.52
684.049	37.74
684.235	38.07
684.42	37.81
684.606	37.92
684.792	38.39
684.978	38.53
685.164	39.3
685.349	39.13
685.535	39.27
685.721	39.24
685.907	38.54
686.092	38.09
686.278	37.87
686.464	37.46
686.649	37.5
686.835	37.82
687.021	38.14
687.206	38.16
687.392	38.14
687.577	37.85
687.763	37.74
687.948	37.79
688.134	37.96
688.319	38.06
688.505	38.34
688.69	38.13
688.876	37.89
689.061	37.82
689.247	37.63
689.432	37.39
689.618	36.92
689.803	36.81
689.988	36.81
690.174	37.23
690.359	37.18
690.544	37.13
690.73	37.23
690.915	37.29
691.1	36.73
691.285	36.49
691.471	37.01
691.656	37.49
691.841	37.12
692.026	37.85
692.211	37.3
692.396	37.44
692.582	37.77
692.767	37.72
692.952	38.11
693.137	38.74
693.322	38.76
693.507	38.18
693.692	37.65
693.877	37.88
694.062	37.59
694.247	37.89
694.432	37.7
694.617	37.4
694.802	37.59
694.987	37.28
695.172	36.74
695.357	36.76
695.541	36.76
695.726	37.2
695.911	37.14
696.096	37.22
696.281	36.95
696.466	36.66
696.65	36.7
696.835	36.73
697.02	36.28
697.204	36.98
697.389	37.05
697.574	37.38
697.759	37.28
697.943	37.19
698.128	36.9
698.312	37.1
698.497	37.17
698.682	37.04
698.866	37.36
699.051	37.53
699.235	37.18
699.42	37.31
699.604	37.14
699.789	37.64
699.973	38
700.158	38.21
700.342	38.33
700.527	38.58
700.711	38.82
700.895	38.54
701.08	38.86
701.264	39.07
701.448	38.37
701.633	38.12
701.817	38
702.001	38.45
702.186	38.56
702.37	37.67
702.554	38.01
702.738	38.13
702.923	38.61
703.107	38.41
703.291	38.82
703.475	39.72
703.659	40.51
703.843	40.2
704.027	39.39
704.212	38.9
704.396	39.77
704.58	39.36
704.764	38.47
704.948	37.99
705.132	37.96
705.316	37.7
705.5	37.58
705.684	37.34
705.868	38.03
706.052	38.08
706.235	38.66
706.419	38.99
706.603	38.81
706.787	39.64
706.971	39.53
707.155	39.61
707.339	38.8
707.522	38.88
707.706	38.38
707.89	37.85
708.074	37.96
708.257	37.78
708.441	38.09
708.625	38.66
708.808	38.38
708.992	38.84
709.176	39.04
709.359	39.37
709.543	38.95
709.727	39.82
709.91	39.46
710.094	38.58
710.277	38.74
710.461	37.99
710.644	38.43
710.828	39.22
711.011	38.7
711.195	38.76
711.378	38.88
711.562	39.42
711.745	38.47
711.928	38.64
712.112	39.5
712.295	39.05
712.478	39.1
712.662	38.73
712.845	38.22
713.028	38.23
713.212	38.01
713.395	38.06
713.578	37.45
713.761	38.34
713.945	38.22
714.128	38.11
714.311	38.08
714.494	38.18
714.677	38.13
714.86	37.85
715.043	37.82
715.227	37.9
715.41	37.98
715.593	38.03
715.776	38.14
715.959	38.81
716.142	38.91
716.325	39.19
716.508	39.04
716.691	38.27
716.874	38.66
717.057	38.71
717.239	38.73
717.422	39.16
717.605	39.5
717.788	38.63
717.971	38.47
718.154	39.03
718.337	39.09
718.519	39.07
718.702	39.74
718.885	38.68
719.068	38.63
719.25	38.48
719.433	38.33
719.616	38.71
719.798	39.62
719.981	39.38
720.164	38.63
720.346	39.16
720.529	39.6
720.712	39.33
720.894	40.38
721.077	40.32
721.259	41.13
721.442	41.71
721.624	41.85
721.807	42.25
721.989	41.73
722.172	41.93
722.354	41.55
722.537	41.09
722.719	40.92
722.901	40.89
723.084	40.84
723.266	40.2
723.448	40.01
723.631	39.71
723.813	38.45
723.995	38.86
724.178	38.83
724.36	38.17
724.542	38.25
724.724	39.07
724.907	39.24
725.089	40.67
725.271	41.05
725.453	40.63
725.635	40.57
725.817	41.23
725.999	41.48
726.181	41.52
726.364	42.59
726.546	43.15
726.728	42.95
726.91	42.76
727.092	42.06
727.274	42.19
727.456	41.61
727.638	41.33
727.819	42.02
728.001	41.52
728.183	40.86
728.365	40.62
728.547	40.14
728.729	39.6
728.911	40.59
729.093	40.84
729.274	39.78
729.456	40.56
729.638	41.32
729.82	40.42
730.001	39.82
730.183	39.4
730.365	38.92
730.546	39.68
730.728	39.74
730.91	38.27
731.091	38.07
731.273	38.26
731.455	38.17
731.636	38.11
731.818	38.05
731.999	38.37
732.181	38.74
732.362	38.81
732.544	38.73
732.725	38.33
732.907	38.78
733.088	38.3
733.27	38.93
733.451	38.84
733.633	38.59
733.814	39.07
733.995	39.17
734.177	39.35
734.358	39.34
734.539	38.67
734.721	38.82
734.902	38.62
735.083	39.7
735.264	39.53
735.446	40.7
735.627	40.06
735.808	40.05
735.989	41.23
736.17	42.69
736.351	43.28
736.533	43.39
736.714	44.13
736.895	43.72
737.076	42.54
737.257	42.53
737.438	41.42
737.619	42.41
737.8	41.79
737.981	41.51
738.162	40.83
738.343	40.96
738.524	41.74
738.705	42.45
738.886	43.26
739.067	43.45
739.247	44.17
739.428	43.13
739.609	42.82
739.79	43.23
739.971	43.07
740.151	43.18
740.332	42.38
740.513	41.28
740.694	40.52
740.874	39.4
741.055	39.23
741.236	37.77
741.417	38.06
741.597	37.59
741.778	38.08
741.958	37.65
742.139	36.07
742.32	35.78
742.5	36.68
742.681	37.17
742.861	39.29
743.042	39.4
743.222	39.67
743.403	40.6
743.583	41.38
743.764	41.01
743.944	41.04
744.124	43.3
744.305	43.58
744.485	42.78
744.666	42.94
744.846	42.71
745.026	43.49
745.207	43.88
745.387	43.74
745.567	43.74
745.747	43.81
745.928	43.01
746.108	41.83
746.288	41.24
746.468	41.8
746.648	41.37
746.829	40.74
747.009	40.98
747.189	40.97
747.369	40.91
747.549	39.78
747.729	40.06
747.909	40.16
748.089	40.43
748.269	40.96
748.449	40.5
748.629	41.01
748.809	40.53
748.989	39.99
749.169	39.96
749.349	41
749.529	41.74
749.709	41.64
749.889	42.85
750.068	42.42
750.248	42.86
750.428	43.22
750.608	42.22
750.788	43.14
750.967	41.67
751.147	41.24
751.327	40.14
751.507	40.11
751.686	39.6
751.866	40.03
752.046	40.52
752.225	39.79
752.405	39.9
752.585	40.25
752.764	40.12
752.944	40.42
753.123	41.89
753.303	41.44
753.482	40.59
753.662	40.06
753.841	39.63
754.021	38.92
754.2	39.57
754.38	39.69
754.559	39.69
754.739	39.87
754.918	40.28
755.097	38.37
755.277	37.81
755.456	37
755.635	37.58
755.815	37.88
755.994	39.27
756.173	38.67
756.352	37.77
756.532	37.62
756.711	36.51
756.89	36.92
757.069	38.25
757.248	39.06
757.427	41
757.607	40.73
757.786	39.89
757.965	38.94
758.144	38.48
758.323	39.19
758.502	39.26
758.681	39.63
758.86	39.43
759.039	39.39
759.218	40.11
759.397	39.54
759.576	40.16
759.755	40.97
759.934	41.15
760.113	42.77
760.291	43.35
760.47	43.67
760.649	44.37
760.828	45.63
761.007	44.81
761.186	44.37
761.364	44.5
761.543	44.09
761.722	43.97
761.901	42.98
762.079	42.63
762.258	42.29
762.437	41.67
762.615	40.88
762.794	39.67
762.972	39.97
763.151	39.99
763.33	39.73
763.508	39.63
763.687	39.21
763.865	40.13
764.044	39.84
764.222	39.41
764.401	39.6
764.579	39.8
764.758	40.06
764.936	40.73
765.114	40.31
765.293	40.69
765.471	40.75
765.65	40.32
765.828	40.56
766.006	41.05
766.184	40.58
766.363	40.65
766.541	39.62
766.719	38.93
766.898	37.89
767.076	38.91
767.254	38.75
767.432	39.53
767.61	39.94
767.788	39.5
767.967	39.38
768.145	41.21
768.323	41.1
768.501	41.25
768.679	42.87
768.857	42.96
769.035	42.8
769.213	45.26
769.391	44.55
769.569	45.08
769.747	46.88
769.925	46.07
770.103	45.58
770.281	45.36
770.459	45.49
770.636	44.1
770.814	44.24
770.992	45.83
771.17	44
771.348	43.12
771.525	43.99
771.703	42.65
771.881	43.96
772.059	44.35
772.236	43.79
772.414	44.55
772.592	45.56
772.769	46.58
772.947	44.4
773.125	43.66
773.302	46.09
773.48	45.18
773.657	44.32
773.835	42.69
774.013	43.08
774.19	44.62
774.368	45.21
774.545	44.05
774.723	43.43
774.9	43.62
775.077	43.04
775.255	42.7
775.432	41.95
775.61	41.2
775.787	41.17
775.964	39.76
776.142	39.66
776.319	39.7
776.496	41.63
776.674	42.22
776.851	43.33
777.028	45
777.205	43.75
777.382	43.82
777.56	43.54
777.737	46.27
777.914	46.13
778.091	46.15
778.268	46.41
778.445	46.14
778.622	46.15
778.8	44.63
778.977	43.52
779.154	45.41
779.331	45.8
779.508	46.31
779.685	43.29
779.862	45.15
780.038	44.67
780.215	46.09
780.392	45.75
780.569	46.11
780.746	46.67
780.923	47.31
781.1	43.67
781.277	40.46
781.453	41.18
781.63	43.52
781.807	42.71
781.984	41.63
782.16	41.31
782.337	41.87
782.514	40.11
782.691	39.82
782.867	39.55
783.044	44.02
783.221	48.53
783.397	47.67
783.574	46.78
783.75	46.74
783.927	47.25
784.103	46.36
784.28	45.93
784.456	45.19
784.633	44.52
784.809	44.43
784.986	40.26
785.162	40.65
785.339	40.74
785.515	38.91
785.692	39
785.868	40.62
786.044	41.06
786.221	41.78
786.397	45.29
786.573	45.61
786.749	45.55
786.926	46.07
787.102	45.7
787.278	46.3
787.454	48.67
787.631	48.32
787.807	47.77
787.983	47.13
788.159	46.21
788.335	44.59
788.511	46.07
788.687	47.03
788.863	50.02
789.039	49.01
789.216	47.52
789.392	46.61
789.568	44.68
789.744	43.49
789.919	41.88
790.095	42.64
790.271	42.67
790.447	41.18
790.623	39.5
790.799	38.24
790.975	37.46
791.151	38.75
791.327	39.39
791.502	40.32
791.678	42.15
791.854	44.11
792.03	40.79
792.205	41.26
792.381	41.53
792.557	40.52
792.733	38.52
792.908	39.81
793.084	40.81
793.259	41.05
793.435	38.35
793.611	39.3
793.786	38.78
793.962	40.72
794.137	39.21
794.313	39.48
794.488	43.06
794.664	44.69
794.839	43.8
795.015	44.1
795.19	42.51
795.366	44.6
795.541	42.97
795.716	42.34
795.892	41.94
796.067	42.89
796.242	44.19
796.418	41.2
796.593	39.23
796.768	38.32
796.944	35.69
797.119	36.09
797.294	37.24
797.469	35.79
797.644	36.33
797.82	38.66
797.995	37.76
798.17	35.27
798.345	35.49
798.52	38.02
798.695	37.25
798.87	38.78
799.045	39.32
799.22	39.16
799.395	40.4
799.57	41.23
799.745	37.96
799.92	37.78
800.095	39.32
800.27	40.78
800.445	38.98
800.62	41.73
800.795	41.06
800.97	42.96
801.145	41.19
801.319	40.79
801.494	40.91
801.669	46.28
801.844	48.1
802.018	46.47
802.193	45.13
802.368	46.14
802.543	46
802.717	47.73
802.892	45.96
803.067	51.59
803.241	53.08
803.416	51.06
803.59	49.88
803.765	50.02
803.94	52.7
804.114	51.79
804.289	52.54
804.463	50.89
804.638	49.11
804.812	50.33
804.986	45.29
805.161	45.3
805.335	49.19
805.51	46.35
805.684	45.81
805.858	44.49
806.033	47.14
806.207	45.99
806.381	49.73
806.556	50.57
806.73	50.65
806.904	51.91
807.078	52.43
807.253	50.1
807.427	50.81
807.601	51.3
807.775	53.19
807.949	52.61
808.123	52.21
808.298	51.32
808.472	51.87
808.646	49.86
808.82	49.22
808.994	44.39
809.168	44.85
809.342	47.31
809.516	48.02
809.69	45.89
809.864	47.03
810.038	48.28
810.212	47.06
810.385	46.04
810.559	45.8
810.733	46.72
810.907	53.61
811.081	50.26
811.255	46.46
811.428	43.1
811.602	41.18
811.776	42.43
811.95	40.71
812.123	41.16
812.297	42.29
812.471	42.97
812.644	41.23
812.818	38.38
812.992	43.79
813.165	46.05
813.339	44.97
813.512	50.44
813.686	48.23
813.86	48.6
814.033	47.11
814.207	47.81
814.38	48.67
814.554	49.11
814.727	50.68
814.9	50.19
815.074	47.65
815.247	47.71
815.421	45.57
815.594	47.5
815.767	45.82
815.941	44.6
816.114	45.91
816.287	45.99
816.46	47.53
816.634	47.64
816.807	47.09
816.98	47.85
817.153	48.66
817.327	47.08
817.5	44.57
817.673	48.73
817.846	48.6
818.019	46.98
818.192	47.19
818.365	43.38
818.538	42.01
818.711	39.35
818.884	39.12
819.057	40.94
819.23	40.17
819.403	42.95
819.576	42.05
819.749	42.97
819.922	42.21
820.095	43.54
820.268	45
820.441	46.4
820.614	46.77
820.786	46.1
820.959	46.19
821.132	46.23
821.305	42.93
821.477	42.24
821.65	41.77
821.823	42.35
821.996	42.19
822.168	42.6
822.341	41.44
822.514	41.29
822.686	41.21
822.859	40.57
823.031	39.99
823.204	39.52
823.376	39.1
823.549	39.53
823.722	39.36
823.894	38.65
824.067	37.72
824.239	38.16
824.411	38.39
824.584	38.46
824.756	38.42
824.929	38.31
825.101	38.6
825.273	38.65
825.446	38.16
825.618	37.81
825.79	38.39
825.963	38.87
826.135	38.36
826.307	37.88
826.479	37.37
826.652	37.9
826.824	38.81
826.996	39.08
827.168	39.87
827.34	39.8
827.512	40.14
827.684	39.67
827.856	40.27
828.029	40.33
828.201	40.48
828.373	41.7
828.545	40.88
828.717	41.01
828.889	41.34
829.061	41.57
829.232	42.23
829.404	41.49
829.576	40.78
829.748	41.36
829.92	42.72
830.092	43.31
830.264	42.86
830.436	43.46
830.607	43.07
830.779	44.7
830.951	42.88
831.123	42.47
831.294	42.44
831.466	42.72
831.638	40.69
831.809	39.12
831.981	40.47
832.153	40.13
832.324	40.61
832.496	41.19
832.667	42.72
832.839	45.08
833.011	42.86
833.182	42.98
833.354	43.92
833.525	43.62
833.697	42.51
833.868	40
834.039	38.64
834.211	39.22
834.382	38.71
834.554	35.04
834.725	35.58
834.896	35.02
835.068	36.46
835.239	38.18
835.41	41.39
835.581	41.14
835.753	42.34
835.924	42.92
836.095	42.73
836.266	43.11
836.438	43.71
836.609	43.26
836.78	46.02
836.951	47.49
837.122	44.75
837.293	41.62
837.464	43.38
837.635	45.49
837.806	45.27
837.977	45.66
838.148	48.33
838.319	51.17
838.49	54.12
838.661	54.54
838.832	52.08
839.003	53.9
839.174	56.71
839.345	59.6
839.516	55.63
839.687	58.26
839.857	53.87
840.028	49.47
840.199	46.57
840.37	45.07
840.54	45.18
840.711	45.23
840.882	47.17
841.053	45.39
841.223	44
841.394	46.34
841.564	51.43
841.735	55.98
841.906	60.63
842.076	61.57
842.247	55.59
842.417	53.89
842.588	58.8
842.758	57.42
842.929	55.44
843.099	54.79
843.27	50.58
843.44	45.84
843.611	50.97
843.781	47.67
843.951	51.12
844.122	53.33
844.292	48.73
844.462	44.29
844.633	48.35
844.803	49.13
844.973	51.33
845.144	50.98
845.314	49.2
845.484	42.58
845.654	45.22
845.824	48.24
845.995	51.39
846.165	62.68
846.335	71.64
846.505	66.65
846.675	71.93
846.845	66.07
847.015	74.19
847.185	83.58
847.355	85.75
847.525	77.67
847.695	85.47
847.865	85.17
848.035	84.65
848.205	64.51
848.375	69.58
848.545	71.12
848.715	75.03
848.884	69.84
849.054	64.57
849.224	61.97
849.394	67.7
849.564	57.57
849.733	61.74
849.903	55.42
850.073	54.82
850.243	55.62
850.412	61.8
850.582	66.77
850.752	69.78
850.921	59.47
851.091	64.64
851.26	71.5
851.43	74.2
851.599	69.23
851.769	66.03
851.939	71.76
852.108	65.54
852.278	58.35
852.447	55.82
852.616	52.48
852.786	62.74
852.955	63.85
853.125	55.1
853.294	57.13
853.463	63.89
853.633	71.78
853.802	78.47
853.971	95.49
854.141	98.63
854.31	94.29
854.479	86.55
854.648	99.05
854.818	109.58
854.987	109.05
855.156	99.41
855.325	81.16
855.494	80.03
855.663	66.83
855.832	63.1
856.001	62.15
856.171	49.01
856.34	59.32
856.509	62.69
856.678	54.42
856.847	43.09
857.016	46.65
857.185	51.91
857.353	64.24
857.522	68.31
857.691	62.77
857.86	51.3
858.029	58.2
858.198	69.51
858.367	61.16
858.535	43.13
858.704	56.1
858.873	55.35
859.042	48.06
859.21	49.66
859.379	48.11
859.548	49.12
859.717	52.24
859.885	56.71
860.054	41.72
860.222	44.74
860.391	52.08
860.56	60.77
860.728	61.39
860.897	71.54
861.065	61.59
861.234	59.24
861.402	46.21
861.571	43.14
861.739	47.62
861.908	52.05
862.076	60.88
862.244	67.78
862.413	59.15
862.581	51.45
862.749	41.66
862.918	44.89
863.086	48.23
863.254	57.8
863.423	70.61
863.591	56.85
863.759	60.82
863.927	44.11
864.096	31.68
864.264	44.92
864.432	47.18
864.6	61.32
864.768	63.43
864.936	72.46
865.104	71.38
865.272	65.34
865.44	75.61
865.608	72.76
865.776	80.26
865.944	81.82
866.112	75.82
866.28	75.22
866.448	67.37
866.616	66.33
866.784	67.2
866.952	64.21
867.12	68.62
867.288	70.35
867.455	83.34
867.623	85.38
867.791	85.72
867.959	89.67
868.127	97.07
868.294	80.03
868.462	71.08
868.63	52.44
868.797	60.32
868.965	62.13
869.133	55.48
869.3	50.83
869.468	62.14
869.636	52.41
869.803	52.04
869.971	51.08
870.138	52.71
870.306	57.41
870.473	65.49
870.641	63.59
870.808	55.39
870.975	58.76
871.143	54.2
871.31	45.78
871.478	43.27
871.645	38.68
871.812	54.73
871.98	62.92
872.147	45.69
872.314	36.89
872.482	37.86
872.649	44.61
872.816	42.85
872.983	52.7
873.15	58.79
873.318	72.76
873.485	78.01
873.652	69.51
873.819	61.95
873.986	80.06
874.153	85.94
874.32	86.61
874.487	95.81
874.654	108.54
874.821	96.52
874.988	70.71
875.155	50.77
875.322	49.33
875.489	40.49
875.656	50.24
875.823	29
875.99	19.38
876.157	29.19
876.324	23.74
876.49	25.2
876.657	32.1
876.824	33.01
876.991	38.72
877.157	40.86
877.324	46.07
877.491	49.48
877.658	55.16
877.824	52.7
877.991	51.77
878.157	58.39
878.324	61.31
878.491	55.67
878.657	60.24
878.824	59.14
878.99	63.18
879.157	61.56
879.323	56.52
879.49	57.23
879.656	66.28
879.823	71.11
879.989	69.66
880.156	71.22
880.322	67.87
880.488	69.09
880.655	61.98
880.821	62.8
880.987	63.93
881.154	65.95
881.32	68.43
881.486	62.77
881.652	61.77
881.819	58.07
881.985	54.86
882.151	56.86
882.317	54.35
882.483	56.39
882.649	53.5
882.816	51.61
882.982	49.98
883.148	46.49
883.314	46.68
883.48	46.1
883.646	45.14
883.812	44.16
883.978	44.72
884.144	44.97
884.31	45.81
884.476	45.47
884.642	44.69
884.807	43.97
884.973	43.67
885.139	44.52
885.305	44.91
885.471	44.78
885.637	46.43
885.802	43.6
885.968	43.98
886.134	43.99
886.3	44.16
886.465	46.62
886.631	48.89
886.797	54.53
886.962	53.47
887.128	54.69
887.293	57.43
887.459	56.27
887.625	63.47
887.79	65.57
887.956	60.17
888.121	61.4
888.287	61.45
888.452	63.56
888.618	55.31
888.783	58.75
