Data from CB_098_Reflection_1.txt Node
Date: Sat Nov 14 17:38:56 EST 2015
User: robert
Spectrometer: USB4E03001
Autoset integration time: false
Trigger mode: 4
Integration Time (sec): 1.000000E-1
Scans to average: 15
Electric dark correction enabled: true
Nonlinearity correction enabled: false
Boxcar width: 5
Stray light correction enabled: false
XAxis mode: Wavelengths
Stop averaging: false
Number of Pixels in Spectrum: 3648
>>>>>Begin Spectral Data<<<<<
177.566	-5.33
177.785	560.1
178.005	-264.25
178.225	-24.68
178.445	1727.37
178.665	-148.41
178.885	292.78
179.105	20.44
179.324	-143.01
179.544	-8.79
179.764	-19.45
179.984	-27.28
180.204	-75.62
180.423	-43.9
180.643	-36.2
180.863	-84.88
181.083	-66.03
181.302	-28.93
181.522	-17.68
181.742	18.38
181.961	-9.94
182.181	-22.27
182.401	-199.82
182.621	-90.31
182.84	-284.03
183.06	-101.95
183.279	-65.64
183.499	-142.89
183.719	-249.59
183.938	-165.36
184.158	-112.31
184.377	-56.83
184.597	-30.52
184.816	3.96
185.036	10.31
185.256	15.78
185.475	24.83
185.695	22.91
185.914	41.14
186.134	61.5
186.353	57.13
186.572	47.88
186.792	46.49
187.011	27.17
187.231	25.09
187.45	31.03
187.67	39.71
187.889	36.69
188.108	32.55
188.328	38.31
188.547	34.76
188.766	37.52
188.986	44.41
189.205	49.33
189.424	51.53
189.644	58.13
189.863	63.75
190.082	57.47
190.302	60
190.521	52.74
190.74	36.05
190.959	-2.59
191.178	-2.65
191.398	-12.76
191.617	-23.02
191.836	-24.88
192.055	-15.46
192.274	-9.61
192.494	-9.12
192.713	-117.22
192.932	-45.94
193.151	-91.2
193.37	-9.71
193.589	20.28
193.808	-55.55
194.027	-346.52
194.246	1091.14
194.465	-1592.48
194.685	-136.01
194.904	-123.11
195.123	-54.23
195.342	-80.15
195.561	-5.78
195.78	7.8
195.999	19.3
196.218	32.28
196.436	54.5
196.655	63.82
196.874	73.94
197.093	85.69
197.312	75.87
197.531	77.76
197.75	75.3
197.969	73.28
198.188	71.74
198.407	52.48
198.625	43.51
198.844	46.25
199.063	38.41
199.282	38.92
199.501	9.03
199.719	24.04
199.938	33.64
200.157	22.74
200.376	10.98
200.594	29.82
200.813	27.29
201.032	32.52
201.251	22.41
201.469	23.26
201.688	22.32
201.907	21.2
202.125	9.54
202.344	15.23
202.563	49.98
202.781	40.82
203	49.84
203.218	62.71
203.437	63.42
203.656	65.35
203.874	54.38
204.093	66.62
204.311	62.34
204.53	58.74
204.748	32.57
204.967	20.56
205.185	39.26
205.404	5.9
205.622	-3.74
205.841	-9.49
206.059	-29.7
206.278	-35.01
206.496	-27.9
206.715	-26.65
206.933	-10.7
207.151	10.48
207.37	0.13
207.588	0.87
207.806	24.38
208.025	37.36
208.243	40.45
208.461	62.75
208.68	64.6
208.898	49.76
209.116	59.67
209.335	64.64
209.553	44.57
209.771	51.22
209.989	28.26
210.208	14.86
210.426	7.58
210.644	17.28
210.862	8.14
211.081	-1.1
211.299	11.54
211.517	3.66
211.735	-14.46
211.953	10.55
212.171	14.8
212.39	25.08
212.608	41.51
212.826	38.75
213.044	37.68
213.262	32.79
213.48	46.13
213.698	53.24
213.916	52.42
214.134	54.82
214.352	46.86
214.57	43.72
214.788	56.83
215.006	42.24
215.224	54.23
215.442	42.09
215.66	56.41
215.878	44.2
216.096	30.53
216.314	34.57
216.532	50.96
216.75	74.6
216.968	81.11
217.185	63.6
217.403	67.27
217.621	93.83
217.839	91.95
218.057	149.35
218.275	114.05
218.492	107.7
218.71	130.75
218.928	105.34
219.146	95.57
219.363	54.55
219.581	89.85
219.799	68.52
220.017	48.33
220.234	44.88
220.452	36.78
220.67	46.77
220.887	51.76
221.105	33.92
221.323	-517.18
221.54	111.91
221.758	873.57
221.976	202.09
222.193	132.59
222.411	229.48
222.629	396.76
222.846	466.97
223.064	-396.53
223.281	574.81
223.499	370.7
223.716	650.85
223.934	-272.41
224.151	-7.79
224.369	35.36
224.586	65.93
224.804	79.03
225.021	101.2
225.239	109.59
225.456	131.85
225.674	127.13
225.891	132.09
226.108	136.43
226.326	126.03
226.543	86.75
226.76	72.86
226.978	51.62
227.195	53.31
227.413	15.8
227.63	6.4
227.847	9.78
228.064	14.44
228.282	17.1
228.499	20.41
228.716	16.11
228.934	14.43
229.151	9.61
229.368	9.31
229.585	8.22
229.802	12.49
230.02	14.35
230.237	13.52
230.454	13.18
230.671	13.99
230.888	10.39
231.105	11.88
231.323	8.47
231.54	4.64
231.757	5.15
231.974	1.42
232.191	2.88
232.408	1.83
232.625	2.98
232.842	9.12
233.059	3.2
233.276	-0.92
233.493	-0.29
233.71	6.43
233.927	22.14
234.144	18.41
234.361	16.92
234.578	20.42
234.795	18.54
235.012	18.22
235.229	12.93
235.446	13.96
235.663	17.81
235.879	15.74
236.096	17.03
236.313	13.96
236.53	16.04
236.747	15.07
236.964	7.13
237.181	7.74
237.397	4.26
237.614	5.87
237.831	6.89
238.048	12.89
238.264	12.94
238.481	16.18
238.698	22.02
238.915	27.67
239.131	31.84
239.348	28.45
239.565	33.69
239.781	32.39
239.998	29.34
240.215	26.05
240.431	19.85
240.648	22.34
240.865	19.9
241.081	15.84
241.298	13.78
241.514	13.09
241.731	14.78
241.947	13.03
242.164	12.94
242.38	15.46
242.597	15.99
242.814	18.32
243.03	18.72
243.246	20.21
243.463	19.19
243.679	18.16
243.896	18.3
244.112	18.54
244.329	18.46
244.545	20.72
244.762	19.76
244.978	22.11
245.194	19.05
245.411	15.87
245.627	15.01
245.843	15.05
246.06	15.79
246.276	15.97
246.492	15.56
246.709	14.99
246.925	14.25
247.141	13.89
247.357	13.58
247.574	14.2
247.79	14.62
248.006	15.04
248.222	14.96
248.439	14.89
248.655	14
248.871	13.04
249.087	13.56
249.303	13.69
249.519	13.53
249.736	11.27
249.952	11.71
250.168	11.85
250.384	9.84
250.6	10.99
250.816	8.25
251.032	10.03
251.248	11.44
251.464	8.11
251.68	6.74
251.896	5.51
252.112	5.62
252.328	3.6
252.544	1.37
252.76	-0.07
252.976	0.31
253.192	3.28
253.408	4.86
253.624	5.66
253.84	10.58
254.056	13.39
254.272	14.97
254.487	18.08
254.703	19.79
254.919	22.21
255.135	24.75
255.351	21.57
255.567	22.38
255.782	19.24
255.998	19.33
256.214	15
256.43	13.73
256.646	14.31
256.861	14.4
257.077	9.82
257.293	11.96
257.508	13.36
257.724	14.06
257.94	13.23
258.155	12.09
258.371	10.78
258.587	10.37
258.802	10.11
259.018	10.28
259.234	10.08
259.449	10.58
259.665	10.46
259.88	9.88
260.096	10.52
260.312	10.38
260.527	10.46
260.743	10.61
260.958	11.05
261.174	10.82
261.389	11.47
261.605	11.16
261.82	11.49
262.036	11.07
262.251	11.21
262.466	11.45
262.682	12.12
262.897	13.28
263.113	12.57
263.328	12.17
263.543	11.59
263.759	7.13
263.974	6.35
264.189	5.77
264.405	6.18
264.62	7.73
264.835	7.07
265.051	7.61
265.266	5.37
265.481	7.64
265.696	9.95
265.912	9.99
266.127	11.58
266.342	11.71
266.557	13.16
266.773	11.7
266.988	10.04
267.203	9.02
267.418	8.86
267.633	10.9
267.848	10.13
268.064	9.48
268.279	10.4
268.494	10.67
268.709	11.76
268.924	12.1
269.139	10.81
269.354	12.41
269.569	12.52
269.784	11.94
269.999	12.05
270.214	12.22
270.429	10.06
270.644	9.08
270.859	9.73
271.074	8.81
271.289	8.11
271.504	11.02
271.719	10.95
271.934	9.74
272.149	10.11
272.363	9.86
272.578	10.58
272.793	11.17
273.008	10.7
273.223	11.51
273.438	10.99
273.653	11.69
273.867	9.89
274.082	8.99
274.297	10.18
274.512	9.81
274.726	7.96
274.941	7.11
275.156	8.73
275.371	10.35
275.585	9.4
275.8	9.94
276.015	9.44
276.229	11.31
276.444	11.68
276.659	12.83
276.873	13.32
277.088	14.14
277.302	14.61
277.517	13.89
277.732	11.94
277.946	12.21
278.161	13.44
278.375	12.72
278.59	13.27
278.804	12.74
279.019	11.76
279.233	11.41
279.448	11.09
279.662	11.24
279.877	10.27
280.091	12.73
280.306	12.48
280.52	11.96
280.735	12.17
280.949	11.2
281.163	12.28
281.378	12.31
281.592	12.34
281.806	13.73
282.021	12.53
282.235	13.02
282.449	12.72
282.664	12.52
282.878	12.6
283.092	12.02
283.307	11.64
283.521	10.88
283.735	11.05
283.949	10.76
284.164	10.11
284.378	11.43
284.592	12.3
284.806	11.58
285.02	12.24
285.234	12.29
285.449	13.28
285.663	13.89
285.877	14.24
286.091	13.2
286.305	13.54
286.519	13.53
286.733	12.87
286.947	13.07
287.161	13.94
287.375	12.7
287.589	12.51
287.803	12.72
288.017	11.9
288.231	11.47
288.445	11.99
288.659	10.77
288.873	10.72
289.087	11.04
289.301	9.89
289.515	9.86
289.729	10.51
289.943	9.59
290.157	9.15
290.371	9.41
290.584	9.32
290.798	8.94
291.012	10.54
291.226	10.84
291.44	10.17
291.654	10.19
291.867	10.53
292.081	10.92
292.295	11.37
292.509	11.93
292.722	13.16
292.936	14.07
293.15	16.05
293.364	15.32
293.577	14.89
293.791	15.74
294.005	16.13
294.218	14.91
294.432	14.42
294.645	15.88
294.859	16.24
295.073	14.81
295.286	13.93
295.5	13.92
295.713	14.46
295.927	14.6
296.14	13.77
296.354	13.37
296.568	13.02
296.781	13.13
296.994	13.27
297.208	12.1
297.421	12.61
297.635	12.41
297.848	12.21
298.062	11.93
298.275	12.58
298.489	13.06
298.702	13.21
298.915	13.95
299.129	14.43
299.342	13.89
299.555	14.39
299.769	14.96
299.982	16.02
300.195	15.23
300.409	14.88
300.622	13.83
300.835	13.49
301.048	13.47
301.262	13.36
301.475	12.86
301.688	12.17
301.901	11.83
302.115	10.9
302.328	11.08
302.541	12.82
302.754	14.14
302.967	14.27
303.18	13.57
303.393	13.76
303.607	14.19
303.82	14.9
304.033	16.16
304.246	16.29
304.459	16.91
304.672	16.66
304.885	15.82
305.098	14.18
305.311	14.72
305.524	15.49
305.737	14.91
305.95	14.8
306.163	14.18
306.376	12.7
306.589	12.8
306.802	12.28
307.015	11.42
307.228	11.41
307.44	13.12
307.653	14.05
307.866	13.61
308.079	13.53
308.292	14.06
308.505	14.41
308.718	15.01
308.93	16.04
309.143	15.68
309.356	15.45
309.569	15.12
309.781	15.05
309.994	13.85
310.207	13.95
310.42	13.28
310.632	12.65
310.845	12.65
311.058	13.31
311.27	13.25
311.483	13.85
311.696	15.06
311.908	15.7
312.121	14.2
312.333	14.4
312.546	15.06
312.759	16.85
312.971	16.39
313.184	16.38
313.396	15.49
313.609	14.55
313.821	14.64
314.034	13.08
314.246	12.16
314.459	13.75
314.671	13.1
314.884	12.74
315.096	12.42
315.309	13.34
315.521	14.21
315.733	14.11
315.946	13.6
316.158	13
316.371	13.98
316.583	13.15
316.795	11.96
317.008	12.26
317.22	13.38
317.432	13.18
317.644	12.58
317.857	13.83
318.069	14.78
318.281	15.84
318.494	15.68
318.706	15.47
318.918	15.71
319.13	17.89
319.342	18.36
319.555	17.6
319.767	18.27
319.979	16.69
320.191	15.84
320.403	15.89
320.615	16.93
320.827	16.6
321.039	16.63
321.252	18.69
321.464	17.71
321.676	17.66
321.888	17.68
322.1	16.62
322.312	18.83
322.524	17.44
322.736	18.24
322.948	15.69
323.16	16.16
323.372	15.39
323.584	13.51
323.796	13.99
324.007	14.07
324.219	14.18
324.431	14.57
324.643	14.06
324.855	14.03
325.067	13.6
325.279	13.63
325.491	14.36
325.702	14.9
325.914	15.54
326.126	15.22
326.338	15.96
326.55	17.3
326.761	18.2
326.973	18.74
327.185	20.41
327.396	20.47
327.608	21.68
327.82	20.24
328.032	20.6
328.243	21.88
328.455	22.64
328.666	21.63
328.878	21.33
329.09	21.07
329.301	21.96
329.513	19.98
329.725	19.09
329.936	19.14
330.148	20.24
330.359	19.59
330.571	18.79
330.782	18.31
330.994	19.77
331.205	18.98
331.417	18.99
331.628	18.47
331.84	19.05
332.051	19.48
332.262	20.39
332.474	20.77
332.685	21.5
332.897	21.7
333.108	21.81
333.319	21.72
333.531	22.37
333.742	22.89
333.953	22.06
334.165	22.26
334.376	23.1
334.587	23.57
334.799	24.56
335.01	24.76
335.221	25.35
335.432	26.05
335.644	25.75
335.855	25.25
336.066	24.86
336.277	25.62
336.488	25.14
336.7	24.13
336.911	23.44
337.122	23.35
337.333	24.43
337.544	23.94
337.755	22.39
337.966	22.65
338.177	23.41
338.388	23.02
338.599	23.51
338.811	23.47
339.022	23.99
339.233	23.98
339.444	22.69
339.655	21.51
339.866	21.64
340.076	22.46
340.287	22.03
340.498	21.62
340.709	22.22
340.92	21.52
341.131	21.72
341.342	21.94
341.553	21.22
341.764	22.05
341.975	22.42
342.185	21.99
342.396	21.8
342.607	22.08
342.818	21.93
343.029	21.85
343.239	22.71
343.45	22.39
343.661	21.82
343.872	22.29
344.082	21.56
344.293	21.56
344.504	21.54
344.714	22.16
344.925	21.86
345.136	22.39
345.346	21.72
345.557	20.58
345.768	20.93
345.978	21.2
346.189	21.49
346.399	22.11
346.61	21.12
346.821	21.07
347.031	21.36
347.242	21.75
347.452	20.43
347.663	20.64
347.873	20.67
348.084	21.98
348.294	22.39
348.504	22.51
348.715	22.53
348.925	23.45
349.136	23.8
349.346	23.08
349.557	22.6
349.767	22.82
349.977	22.93
350.188	22.83
350.398	21.7
350.608	21.32
350.819	21.11
351.029	20.98
351.239	20.44
351.449	19.81
351.66	19.66
351.87	20.23
352.08	20.55
352.29	20.87
352.501	21.38
352.711	22.44
352.921	22.62
353.131	22.34
353.341	22.05
353.552	22.36
353.762	23.1
353.972	23.78
354.182	23.4
354.392	23.16
354.602	22.57
354.812	23.16
355.022	23
355.232	22.77
355.442	22.89
355.652	22.99
355.862	22.88
356.072	22.82
356.282	22
356.492	22.25
356.702	22.08
356.912	22.24
357.122	21.74
357.332	21.62
357.542	21.33
357.752	21.55
357.962	21.58
358.171	21.69
358.381	22.34
358.591	22.44
358.801	22.17
359.011	22.15
359.221	21.88
359.43	21.35
359.64	20.41
359.85	20.61
360.06	20.03
360.269	19.55
360.479	19.48
360.689	18.78
360.899	19.17
361.108	19.3
361.318	19.44
361.528	19.85
361.737	20.31
361.947	20.26
362.156	20.65
362.366	20.69
362.576	20.98
362.785	21.14
362.995	21.25
363.204	20.68
363.414	20.41
363.623	20.89
363.833	20.94
364.042	20.06
364.252	20.47
364.461	20.16
364.671	20.71
364.88	20.7
365.09	20.73
365.299	20.8
365.509	20.98
365.718	21.04
365.927	20.55
366.137	21.03
366.346	21.84
366.555	21.98
366.765	21.34
366.974	20.76
367.183	20.34
367.393	20.14
367.602	19.79
367.811	19.76
368.021	19.73
368.23	19.56
368.439	18.9
368.648	19.43
368.857	19.26
369.067	19.33
369.276	19.12
369.485	18.83
369.694	19.06
369.903	19.17
370.112	19.09
370.321	19.52
370.531	19.58
370.74	19.24
370.949	18.35
371.158	18.21
371.367	18.47
371.576	18.66
371.785	19.24
371.994	18.66
372.203	18.91
372.412	18.77
372.621	18.27
372.83	18.27
373.039	18.28
373.248	18.58
373.457	18.6
373.666	18.21
373.874	17.61
374.083	17.5
374.292	16.97
374.501	16.57
374.71	16.17
374.919	16.41
375.128	16.41
375.336	16.38
375.545	16.3
375.754	16.63
375.963	16.86
376.171	17.27
376.38	17.71
376.589	18.34
376.798	17.86
377.006	18.03
377.215	17.91
377.424	18.01
377.632	17.47
377.841	17.68
378.05	17.38
378.258	17.54
378.467	17.17
378.675	17.22
378.884	16.75
379.093	17.17
379.301	17.34
379.51	17.32
379.718	17.32
379.927	17.82
380.135	17.67
380.344	17.47
380.552	16.56
380.761	16.87
380.969	16.67
381.177	17.25
381.386	16.98
381.594	17.06
381.803	16.39
382.011	15.92
382.219	15.9
382.428	16.39
382.636	16.07
382.845	16.83
383.053	17.1
383.261	16.78
383.469	16.46
383.678	16.61
383.886	16.74
384.094	17.15
384.302	17.36
384.511	17.14
384.719	16.62
384.927	16.51
385.135	16.48
385.343	16.09
385.552	15.95
385.76	15.6
385.968	15.05
386.176	14.68
386.384	15.05
386.592	14.81
386.8	14.67
387.008	14.2
387.216	14.78
387.424	14.04
387.633	14.27
387.841	14.16
388.049	14.54
388.257	14.81
388.465	14.77
388.672	13.83
388.88	13.84
389.088	13.91
389.296	13.8
389.504	13.1
389.712	13.58
389.92	13.41
390.128	13.94
390.336	13.63
390.544	13.5
390.751	13.21
390.959	13.3
391.167	13.27
391.375	13.09
391.583	13.24
391.79	13.31
391.998	13.4
392.206	13.16
392.414	12.52
392.621	12.34
392.829	12.31
393.037	12.78
393.244	12.88
393.452	12.44
393.66	12.53
393.867	12.37
394.075	12.61
394.283	12.29
394.49	12.49
394.698	12.49
394.905	12.56
395.113	12.54
395.32	12.44
395.528	12.32
395.735	12.74
395.943	12.77
396.15	12.95
396.358	12.87
396.565	12.94
396.773	12.79
396.98	12.77
397.188	12.6
397.395	12.39
397.602	12.26
397.81	12.23
398.017	12.14
398.225	12.28
398.432	11.99
398.639	11.96
398.847	12.14
399.054	11.95
399.261	11.94
399.468	11.9
399.676	12.49
399.883	12.35
400.09	12.29
400.297	12.12
400.505	11.7
400.712	11.75
400.919	11.44
401.126	10.96
401.333	11.1
401.54	11.47
401.748	11.52
401.955	10.86
402.162	10.82
402.369	10.77
402.576	10.71
402.783	10.94
402.99	11.18
403.197	11.37
403.404	11.52
403.611	11.13
403.818	10.9
404.025	10.83
404.232	10.86
404.439	10.7
404.646	10.83
404.853	10.92
405.06	10.95
405.267	10.89
405.474	10.93
405.681	10.89
405.887	11.16
406.094	10.81
406.301	11.21
406.508	11.58
406.715	11.74
406.922	11.81
407.128	11.95
407.335	11.87
407.542	11.81
407.749	11.52
407.955	11.47
408.162	11.84
408.369	12.16
408.575	11.98
408.782	11.72
408.989	11.54
409.195	11.72
409.402	11.54
409.609	11.54
409.815	11.5
410.022	11.59
410.228	11.62
410.435	11.26
410.642	11.31
410.848	11.01
411.055	10.82
411.261	10.88
411.468	10.67
411.674	10.79
411.881	10.57
412.087	10.37
412.294	10.56
412.5	10.59
412.706	10.45
412.913	10.13
413.119	10.28
413.326	10.55
413.532	10.74
413.738	10.77
413.945	10.54
414.151	10.61
414.357	10.69
414.564	10.45
414.77	10.16
414.976	10.53
415.182	10.61
415.389	10.6
415.595	10.44
415.801	10.17
416.007	10.13
416.214	10
416.42	10.14
416.626	10.26
416.832	10.32
417.038	10.77
417.244	10.68
417.45	10.85
417.657	10.88
417.863	11.02
418.069	11.02
418.275	10.81
418.481	11.04
418.687	10.96
418.893	11.08
419.099	11.08
419.305	10.97
419.511	10.78
419.717	10.72
419.923	10.66
420.129	10.56
420.335	10.64
420.541	11.01
420.746	10.9
420.952	10.86
421.158	10.64
421.364	10.57
421.57	10.52
421.776	10.64
421.982	10.56
422.187	10.39
422.393	10.4
422.599	10.46
422.805	10.16
423.01	10.29
423.216	10.29
423.422	10.34
423.628	10.39
423.833	10.38
424.039	10.4
424.245	10.52
424.45	10.74
424.656	10.68
424.862	10.55
425.067	10.66
425.273	10.61
425.478	10.57
425.684	10.48
425.889	10.39
426.095	10.42
426.301	10.33
426.506	10.27
426.712	10.2
426.917	10.38
427.123	10.44
427.328	10.3
427.533	10.31
427.739	10.43
427.944	10.53
428.15	10.5
428.355	10.39
428.561	10.52
428.766	10.44
428.971	10.48
429.177	10.32
429.382	10.34
429.587	10.24
429.793	10.32
429.998	10.23
430.203	10.27
430.408	10.57
430.614	10.65
430.819	10.52
431.024	10.65
431.229	10.6
431.434	10.43
431.64	10.44
431.845	10.67
432.05	10.47
432.255	10.48
432.46	10.51
432.665	10.25
432.87	10.33
433.076	10.44
433.281	10.24
433.486	10.13
433.691	10.16
433.896	10
434.101	9.99
434.306	9.85
434.511	9.8
434.716	9.76
434.921	9.8
435.126	9.7
435.331	9.66
435.535	9.73
435.74	9.84
435.945	10.08
436.15	10.16
436.355	10.13
436.56	10.41
436.765	10.64
436.97	10.67
437.174	10.79
437.379	10.86
437.584	10.71
437.789	10.78
437.993	10.86
438.198	10.78
438.403	10.88
438.608	10.78
438.812	10.82
439.017	10.6
439.222	10.65
439.426	10.62
439.631	10.54
439.836	10.69
440.04	10.85
440.245	10.81
440.45	10.81
440.654	10.73
440.859	10.85
441.063	10.79
441.268	10.88
441.472	10.81
441.677	11
441.881	11.06
442.086	11.04
442.29	10.84
442.495	10.88
442.699	10.83
442.904	10.98
443.108	10.73
443.312	10.78
443.517	10.71
443.721	10.81
443.925	10.62
444.13	10.69
444.334	10.61
444.538	10.65
444.743	10.47
444.947	10.64
445.151	10.46
445.356	10.65
445.56	10.75
445.764	10.92
445.968	10.75
446.173	10.74
446.377	10.49
446.581	10.4
446.785	10.38
446.989	10.4
447.193	10.42
447.398	10.57
447.602	10.51
447.806	10.41
448.01	10.34
448.214	10.59
448.418	10.53
448.622	10.59
448.826	10.61
449.03	10.67
449.234	10.84
449.438	10.7
449.642	10.53
449.846	10.59
450.05	10.44
450.254	10.35
450.458	10.13
450.662	10.21
450.866	10.33
451.069	10.69
451.273	10.58
451.477	10.43
451.681	10.35
451.885	10.56
452.089	10.29
452.292	10.47
452.496	10.49
452.7	10.49
452.904	10.41
453.107	10.36
453.311	10.18
453.515	10.26
453.719	10.36
453.922	10.28
454.126	10.2
454.33	10.36
454.533	10.28
454.737	10.23
454.94	10.31
455.144	10.27
455.348	10.27
455.551	10.24
455.755	10.26
455.958	10.27
456.162	10.37
456.365	10.3
456.569	10.44
456.772	10.55
456.976	10.59
457.179	10.55
457.383	10.54
457.586	10.54
457.79	10.61
457.993	10.65
458.196	10.52
458.4	10.67
458.603	10.66
458.807	10.62
459.01	10.41
459.213	10.43
459.417	10.47
459.62	10.46
459.823	10.4
460.026	10.3
460.23	10.19
460.433	10.31
460.636	10.26
460.839	10.22
461.042	10.21
461.246	10.31
461.449	10.21
461.652	10.04
461.855	10.17
462.058	10.24
462.261	10.39
462.464	10.53
462.668	10.52
462.871	10.56
463.074	10.68
463.277	10.83
463.48	10.62
463.683	10.61
463.886	10.76
464.089	10.58
464.292	10.63
464.495	10.6
464.698	10.63
464.901	10.53
465.104	10.43
465.306	10.27
465.509	9.93
465.712	10.02
465.915	9.95
466.118	9.96
466.321	9.97
466.524	10.03
466.726	9.92
466.929	9.79
467.132	9.82
467.335	9.69
467.538	9.81
467.74	9.75
467.943	9.77
468.146	9.97
468.348	10.04
468.551	10.14
468.754	10.12
468.956	10.11
469.159	9.95
469.362	10.05
469.564	10.19
469.767	10.27
469.969	10.44
470.172	10.61
470.375	10.57
470.577	10.52
470.78	10.47
470.982	10.41
471.185	10.48
471.387	10.67
471.59	10.54
471.792	10.39
471.995	10.44
472.197	10.42
472.399	10.33
472.602	10.45
472.804	10.29
473.007	10.12
473.209	10.05
473.411	9.77
473.614	9.79
473.816	9.85
474.018	10
474.22	9.98
474.423	9.93
474.625	9.79
474.827	9.61
475.03	9.73
475.232	9.87
475.434	10.14
475.636	10.48
475.838	10.45
476.04	10.36
476.243	10.39
476.445	10.26
476.647	10.36
476.849	10.38
477.051	10.26
477.253	10.2
477.455	10.11
477.657	10.02
477.859	9.86
478.061	9.88
478.263	9.89
478.465	9.79
478.667	9.85
478.869	9.78
479.071	9.87
479.273	10.02
479.475	10.09
479.677	10.19
479.879	10.05
480.081	10.15
480.283	10.07
480.485	10.04
480.686	10.19
480.888	10.17
481.09	10.24
481.292	10.21
481.494	10.24
481.695	10.31
481.897	10.4
482.099	10.47
482.301	10.45
482.502	10.52
482.704	10.47
482.906	10.37
483.107	10.38
483.309	10.33
483.511	10.36
483.712	10.32
483.914	10.22
484.115	10.18
484.317	10.24
484.519	10.21
484.72	10.15
484.922	10.18
485.123	10.22
485.325	10.16
485.526	10.19
485.728	10.2
485.929	10.2
486.131	10.19
486.332	10.17
486.534	10.06
486.735	10.09
486.936	10.17
487.138	10.24
487.339	10.2
487.541	10.32
487.742	10.34
487.943	10.34
488.144	10.42
488.346	10.47
488.547	10.5
488.748	10.47
488.95	10.44
489.151	10.43
489.352	10.31
489.553	10.33
489.755	10.27
489.956	10.24
490.157	10.2
490.358	10.1
490.559	10.11
490.76	10.11
490.961	10.16
491.163	10.31
491.364	10.25
491.565	10.26
491.766	10.27
491.967	10.22
492.168	10.22
492.369	10.25
492.57	10.24
492.771	10.24
492.972	10.2
493.173	10.22
493.374	10.15
493.575	10.13
493.776	10.14
493.976	10.07
494.177	10.11
494.378	10.19
494.579	10.17
494.78	10.31
494.981	10.4
495.182	10.62
495.382	10.71
495.583	10.62
495.784	10.69
495.985	10.8
496.185	10.82
496.386	10.75
496.587	10.68
496.788	10.62
496.988	10.56
497.189	10.58
497.39	10.55
497.59	10.42
497.791	10.45
497.992	10.59
498.192	10.56
498.393	10.57
498.593	10.61
498.794	10.51
498.994	10.57
499.195	10.42
499.395	10.49
499.596	10.56
499.796	10.59
499.997	10.7
500.197	10.54
500.398	10.64
500.598	10.7
500.799	10.88
500.999	10.98
501.199	10.93
501.4	11.21
501.6	11.04
501.801	10.95
502.001	10.94
502.201	10.83
502.402	10.85
502.602	10.65
502.802	10.61
503.002	10.62
503.203	10.67
503.403	10.75
503.603	10.65
503.803	10.87
504.003	10.87
504.204	10.77
504.404	10.97
504.604	11.13
504.804	11.23
505.004	11.2
505.204	11.09
505.404	11.14
505.604	11.08
505.804	11.15
506.005	10.95
506.205	11.06
506.405	11.22
506.605	11.03
506.805	10.89
507.005	10.91
507.204	11.05
507.404	11.04
507.604	11
507.804	11.07
508.004	11.12
508.204	11.16
508.404	11.09
508.604	11.08
508.804	11.26
509.003	11.48
509.203	11.46
509.403	11.5
509.603	11.5
509.803	11.58
510.002	11.6
510.202	11.68
510.402	11.81
510.602	11.81
510.801	11.97
511.001	11.85
511.201	11.87
511.4	12
511.6	12.02
511.8	12.29
511.999	12.29
512.199	12.21
512.398	12.19
512.598	12.21
512.797	12.37
512.997	12.38
513.197	12.48
513.396	12.35
513.596	12.32
513.795	12.53
513.994	12.34
514.194	12.5
514.393	12.74
514.593	12.9
514.792	13.02
514.992	13.04
515.191	13.05
515.39	13.09
515.59	13.23
515.789	13.33
515.988	13.29
516.188	13.54
516.387	13.62
516.586	13.69
516.786	13.53
516.985	13.55
517.184	13.64
517.383	13.56
517.582	13.6
517.782	13.69
517.981	13.69
518.18	13.73
518.379	13.61
518.578	13.53
518.777	13.45
518.976	13.66
519.176	13.63
519.375	13.72
519.574	13.96
519.773	13.95
519.972	14.01
520.171	14.07
520.37	14.13
520.569	14.25
520.768	14.37
520.967	14.52
521.166	14.5
521.365	14.61
521.564	14.43
521.762	14.47
521.961	14.57
522.16	14.64
522.359	14.77
522.558	14.86
522.757	14.89
522.956	14.97
523.154	15.13
523.353	15.18
523.552	15.31
523.751	15.43
523.949	15.51
524.148	15.52
524.347	15.47
524.546	15.49
524.744	15.5
524.943	15.54
525.142	15.5
525.34	15.56
525.539	15.5
525.737	15.54
525.936	15.65
526.135	15.63
526.333	15.76
526.532	15.91
526.73	15.98
526.929	15.96
527.127	16.13
527.326	16.24
527.524	16.17
527.723	16.31
527.921	16.39
528.12	16.38
528.318	16.41
528.516	16.47
528.715	16.51
528.913	16.56
529.112	16.56
529.31	16.57
529.508	16.63
529.707	16.74
529.905	16.74
530.103	16.7
530.301	16.75
530.5	16.84
530.698	16.79
530.896	16.78
531.094	16.83
531.293	16.99
531.491	16.98
531.689	17.06
531.887	17.07
532.085	17.23
532.283	17.31
532.481	17.49
532.68	17.54
532.878	17.72
533.076	17.84
533.274	17.87
533.472	17.9
533.67	17.98
533.868	17.96
534.066	18.06
534.264	18.02
534.462	18.07
534.66	18
534.858	17.94
535.056	17.95
535.253	17.86
535.451	17.95
535.649	18.08
535.847	18.07
536.045	18.12
536.243	18.08
536.441	18.13
536.638	18.19
536.836	18.28
537.034	18.43
537.232	18.51
537.43	18.59
537.627	18.53
537.825	18.53
538.023	18.58
538.22	18.81
538.418	18.87
538.616	19.01
538.813	19.12
539.011	19.12
539.209	19.08
539.406	19.09
539.604	19.31
539.801	19.49
539.999	19.61
540.196	19.74
540.394	19.66
540.591	19.76
540.789	19.75
540.986	19.81
541.184	19.9
541.381	20.01
541.579	20.03
541.776	20.05
541.974	20.08
542.171	20.12
542.368	20.17
542.566	20.19
542.763	20.31
542.96	20.37
543.158	20.42
543.355	20.55
543.552	20.7
543.75	20.82
543.947	20.81
544.144	20.87
544.341	21.01
544.539	21.17
544.736	21.35
544.933	21.34
545.13	21.38
545.327	21.46
545.524	21.43
545.722	21.41
545.919	21.54
546.116	21.61
546.313	21.57
546.51	21.47
546.707	21.44
546.904	21.5
547.101	21.55
547.298	21.65
547.495	21.64
547.692	21.72
547.889	21.87
548.086	21.98
548.283	22.07
548.48	22.28
548.677	22.25
548.874	22.32
549.07	22.31
549.267	22.51
549.464	22.61
549.661	22.66
549.858	22.75
550.055	22.72
550.251	22.74
550.448	22.76
550.645	22.8
550.842	22.97
551.038	22.95
551.235	23.02
551.432	22.9
551.628	23.02
551.825	23.07
552.022	23.19
552.218	23.11
552.415	22.92
552.612	22.99
552.808	23.07
553.005	23.13
553.201	23.26
553.398	23.31
553.594	23.41
553.791	23.44
553.987	23.61
554.184	23.48
554.38	23.76
554.577	24.01
554.773	24.24
554.97	24.22
555.166	24.26
555.362	24.22
555.559	24.35
555.755	24.43
555.952	24.33
556.148	24.24
556.344	24.45
556.541	24.38
556.737	24.35
556.933	24.29
557.129	24.44
557.326	24.54
557.522	24.7
557.718	24.8
557.914	24.99
558.11	25.35
558.307	25.48
558.503	25.5
558.699	25.66
558.895	25.69
559.091	25.51
559.287	25.7
559.483	25.79
559.679	25.93
559.876	26
560.072	26.03
560.268	25.72
560.464	26.07
560.66	26.14
560.856	26.26
561.052	26.56
561.247	26.82
561.443	26.51
561.639	26.48
561.835	26.49
562.031	26.42
562.227	26.27
562.423	26.65
562.619	26.5
562.815	26.52
563.01	26.53
563.206	26.46
563.402	26.46
563.598	26.69
563.793	26.84
563.989	26.8
564.185	26.82
564.381	26.85
564.576	26.79
564.772	26.68
564.968	26.68
565.163	26.64
565.359	26.61
565.555	26.89
565.75	27.02
565.946	27.06
566.141	27.04
566.337	27.12
566.532	27.25
566.728	27.33
566.923	27.44
567.119	27.61
567.314	27.51
567.51	27.7
567.705	27.46
567.901	27.51
568.096	27.55
568.292	27.68
568.487	27.84
568.682	27.89
568.878	27.95
569.073	28.03
569.268	28.06
569.464	28.15
569.659	28.14
569.854	28.14
570.05	28.09
570.245	28.23
570.44	28.2
570.635	28.08
570.831	28.01
571.026	27.84
571.221	27.95
571.416	27.88
571.611	28.02
571.806	27.94
572.002	28.18
572.197	28.43
572.392	28.34
572.587	28.46
572.782	28.49
572.977	28.58
573.172	28.88
573.367	28.76
573.562	28.72
573.757	28.59
573.952	28.64
574.147	28.61
574.342	28.72
574.537	28.69
574.732	28.58
574.927	28.66
575.121	28.71
575.316	28.65
575.511	28.82
575.706	29.05
575.901	29.25
576.096	29.26
576.29	29.3
576.485	29.15
576.68	29.29
576.875	29.53
577.069	29.45
577.264	29.67
577.459	29.56
577.654	29.43
577.848	29.47
578.043	29.6
578.238	29.65
578.432	29.53
578.627	29.7
578.821	29.72
579.016	29.71
579.21	29.79
579.405	29.72
579.6	29.96
579.794	30.03
579.989	29.89
580.183	29.73
580.378	29.81
580.572	30.13
580.766	30.11
580.961	30.09
581.155	29.95
581.35	30.26
581.544	30.27
581.738	30.36
581.933	30.46
582.127	30.63
582.321	30.61
582.516	30.72
582.71	30.51
582.904	30.14
583.099	30.16
583.293	30.53
583.487	30.58
583.681	30.39
583.875	30.33
584.07	30.37
584.264	30.53
584.458	30.76
584.652	30.7
584.846	31.11
585.04	31.18
585.234	31.29
585.428	31.25
585.623	31.11
585.817	31.09
586.011	31.2
586.205	31.2
586.399	31
586.593	30.8
586.787	30.95
586.981	30.93
587.174	30.87
587.368	30.7
587.562	30.47
587.756	30.33
587.95	30.52
588.144	30.45
588.338	30.41
588.532	30.42
588.725	30.81
588.919	30.7
589.113	30.62
589.307	30.75
589.501	30.82
589.694	30.85
589.888	30.97
590.082	30.89
590.275	30.82
590.469	30.83
590.663	30.91
590.856	30.77
591.05	30.94
591.244	30.97
591.437	31.05
591.631	31.13
591.824	31.35
592.018	31.32
592.212	31.49
592.405	31.74
592.599	31.75
592.792	31.73
592.986	31.55
593.179	31.47
593.372	31.35
593.566	31.45
593.759	31.35
593.953	31.29
594.146	31.3
594.339	31.43
594.533	31.56
594.726	31.68
594.92	31.7
595.113	31.94
595.306	31.9
595.499	32.06
595.693	32.13
595.886	32.36
596.079	32.21
596.272	32.39
596.466	32.06
596.659	31.66
596.852	31.71
597.045	31.74
597.238	31.54
597.431	31.61
597.624	31.64
597.818	31.58
598.011	31.44
598.204	31.68
598.397	31.62
598.59	31.95
598.783	32.25
598.976	32.27
599.169	32.32
599.362	32.49
599.555	32.47
599.748	32.28
599.941	32.17
600.134	32.47
600.326	32.47
600.519	32.4
600.712	32.21
600.905	32.16
601.098	31.98
601.291	31.98
601.483	31.87
601.676	31.94
601.869	32.06
602.062	32.16
602.255	31.84
602.447	31.79
602.64	31.78
602.833	31.94
603.025	31.89
603.218	31.93
603.411	32.1
603.603	32.33
603.796	32.31
603.989	32.35
604.181	32.49
604.374	32.69
604.566	32.63
604.759	32.53
604.951	32.69
605.144	32.7
605.336	32.92
605.529	32.86
605.721	32.9
605.914	32.94
606.106	32.94
606.299	32.81
606.491	33
606.683	33.05
606.876	33.18
607.068	32.88
607.26	33.15
607.453	33.24
607.645	33.22
607.837	33.03
608.03	33.24
608.222	33.31
608.414	33.62
608.606	33.29
608.799	33.2
608.991	33.49
609.183	33.8
609.375	33.79
609.567	33.94
609.759	34.06
609.952	34.37
610.144	34.5
610.336	34.97
610.528	34.91
610.72	35.26
610.912	35.72
611.104	35.88
611.296	35.86
611.488	35.99
611.68	35.88
611.872	35.69
612.064	35.78
612.256	35.72
612.448	35.07
612.64	34.9
612.832	34.62
613.023	34.48
613.215	34.28
613.407	34.23
613.599	34.14
613.791	33.98
613.983	34.17
614.174	34.04
614.366	34.03
614.558	34.54
614.75	34.74
614.941	34.75
615.133	34.52
615.325	34.71
615.516	34.61
615.708	34.51
615.9	34.57
616.091	34.6
616.283	34.24
616.475	34.06
616.666	33.54
616.858	33.5
617.049	33.56
617.241	33.53
617.432	33.12
617.624	33.38
617.815	33.37
618.007	33.29
618.198	33.59
618.39	33.76
618.581	33.62
618.773	33.8
618.964	33.85
619.155	34.24
619.347	34.26
619.538	34.21
619.729	34.23
619.921	34.28
620.112	34.37
620.303	34.03
620.494	34.21
620.686	34.28
620.877	34.21
621.068	34.13
621.259	33.87
621.451	34.06
621.642	34.28
621.833	34.14
622.024	33.99
622.215	34.02
622.406	34.05
622.597	33.95
622.788	34.19
622.98	34.23
623.171	34.26
623.362	34.24
623.553	34.16
623.744	34.45
623.935	34.27
624.126	34.39
624.317	34.21
624.508	34.2
624.698	34.23
624.889	33.9
625.08	34.04
625.271	34.07
625.462	33.81
625.653	33.87
625.844	33.47
626.034	33.78
626.225	33.84
626.416	33.83
626.607	33.81
626.798	33.76
626.988	34.12
627.179	34.24
627.37	34.69
627.56	35.04
627.751	35.22
627.942	35.56
628.132	35.2
628.323	35.19
628.514	35.36
628.704	35.48
628.895	35.28
629.085	35.11
629.276	35.16
629.466	34.81
629.657	34.55
629.847	34.44
630.038	34.06
630.228	34.55
630.419	34.79
630.609	34.67
630.8	34.62
630.99	34.89
631.181	34.96
631.371	34.68
631.561	34.8
631.752	34.8
631.942	34.68
632.132	34.97
632.323	34.6
632.513	34.49
632.703	34.75
632.893	34.74
633.084	34.52
633.274	34.46
633.464	34.53
633.654	34.34
633.844	34.55
634.034	34.51
634.225	34.35
634.415	34.47
634.605	34.2
634.795	33.92
634.985	34.06
635.175	34.64
635.365	34.41
635.555	34.22
635.745	33.88
635.935	33.73
636.125	33.95
636.315	34.1
636.505	34.28
636.695	34.82
636.885	34.69
637.075	34.72
637.265	34.42
637.455	34.63
637.644	35.01
637.834	35.33
638.024	35.25
638.214	35.3
638.404	35.39
638.593	35.34
638.783	35.11
638.973	35.68
639.163	35.35
639.352	35.03
639.542	35.31
639.732	34.99
639.921	34.99
640.111	35.19
640.301	34.86
640.49	34.7
640.68	34.82
640.87	34.72
641.059	34.65
641.249	34.95
641.438	35.56
641.628	35.02
641.817	35.35
642.007	35.23
642.196	35.25
642.386	35.78
642.575	35.24
642.764	34.59
642.954	34.58
643.143	34.5
643.333	34.83
643.522	34.26
643.711	34.75
643.901	34.69
644.09	34.85
644.279	34.82
644.469	34.78
644.658	35.02
644.847	35.19
645.036	34.94
645.226	34.84
645.415	34.46
645.604	35
645.793	35.03
645.982	34.84
646.171	34.84
646.361	34.83
646.55	34.64
646.739	34.89
646.928	35.2
647.117	35.25
647.306	35.25
647.495	34.95
647.684	34.95
647.873	34.63
648.062	34.47
648.251	34.66
648.44	34.59
648.629	34.65
648.818	34.89
649.007	34.8
649.196	34.78
649.384	34.62
649.573	35.28
649.762	35.46
649.951	35.87
650.14	36.17
650.328	35.88
650.517	36.01
650.706	35.98
650.895	35.95
651.083	36.39
651.272	36.4
651.461	36.78
651.65	35.91
651.838	35.35
652.027	34.87
652.216	34.81
652.404	35.42
652.593	35.72
652.781	35.57
652.97	35.55
653.158	35.24
653.347	35.53
653.535	35.36
653.724	36.03
653.912	36.26
654.101	36.73
654.289	36.6
654.478	36.22
654.666	35.68
654.855	35.85
655.043	35.61
655.231	35.43
655.42	35.31
655.608	35.43
655.796	35.36
655.985	35.4
656.173	35.04
656.361	35.43
656.55	35.4
656.738	35.97
656.926	35.61
657.114	35.62
657.302	35.43
657.491	35.63
657.679	35.34
657.867	35.74
658.055	35.78
658.243	35.73
658.431	35.37
658.619	35.38
658.807	35.3
658.996	35.47
659.184	35.71
659.372	35.9
659.56	35.48
659.748	35.9
659.936	35.82
660.124	35.81
660.311	36.04
660.499	36.25
660.687	36.04
660.875	35.68
661.063	35.92
661.251	36.22
661.439	36.27
661.627	36.71
661.814	36.61
662.002	36.53
662.19	36.41
662.378	36.44
662.565	36.4
662.753	36.74
662.941	37.47
663.129	36.86
663.316	36.3
663.504	36.04
663.692	35.77
663.879	35.77
664.067	36.04
664.254	36.36
664.442	36.38
664.63	36.77
664.817	36.44
665.005	35.82
665.192	36
665.38	36.23
665.567	36.64
665.755	37.32
665.942	37.1
666.13	36.73
666.317	36.5
666.504	36.39
666.692	35.82
666.879	36.08
667.067	36.56
667.254	36.47
667.441	36.45
667.629	36.4
667.816	36.12
668.003	36.13
668.19	35.88
668.378	36.04
668.565	36.13
668.752	36.48
668.939	36.61
669.127	36.2
669.314	36.32
669.501	36.2
669.688	36.46
669.875	36.28
670.062	36.32
670.249	36.41
670.436	36.21
670.623	36.2
670.81	36.44
670.997	36.15
671.184	36.12
671.371	36.61
671.558	36.95
671.745	36.56
671.932	36.6
672.119	36.44
672.306	36.35
672.493	36.76
672.68	36.55
672.867	36.22
673.054	36.3
673.24	36.61
673.427	36.11
673.614	36.33
673.801	36.56
673.988	36.31
674.174	37.06
674.361	37.24
674.548	37.14
674.734	37.8
674.921	37.56
675.108	38.07
675.294	37.74
675.481	37.68
675.668	37.27
675.854	37.57
676.041	37.67
676.227	36.89
676.414	36.79
676.601	36.44
676.787	36.55
676.974	36.86
677.16	36.23
677.347	36.57
677.533	36.78
677.719	36.8
677.906	36.24
678.092	36.72
678.279	37.2
678.465	37.33
678.651	37.69
678.838	37.41
679.024	37.69
679.21	37.73
679.397	37.83
679.583	37.39
679.769	37.24
679.955	37.47
680.142	37.29
680.328	37.38
680.514	37.16
680.7	36.83
680.886	36.81
681.073	36.59
681.259	36.49
681.445	35.95
681.631	36.18
681.817	36.48
682.003	36.39
682.189	36.27
682.375	35.7
682.561	36.39
682.747	36.74
682.933	36.24
683.119	36.21
683.305	36.42
683.491	36.89
683.677	37.53
683.863	37.8
684.049	38.05
684.235	38.25
684.42	38.77
684.606	38.5
684.792	38.55
684.978	39.09
685.164	39.27
685.349	39.54
685.535	39.44
685.721	39.81
685.907	39.14
686.092	39.26
686.278	39.01
686.464	38.97
686.649	38.3
686.835	38.51
687.021	38.48
687.206	38.28
687.392	37.92
687.577	38.5
687.763	37.84
687.948	37.91
688.134	37.88
688.319	37.75
688.505	37.63
688.69	37.96
688.876	37.62
689.061	38.2
689.247	38.08
689.432	38.36
689.618	37.61
689.803	37.84
689.988	38.34
690.174	38.12
690.359	37.64
690.544	37.61
690.73	37.95
690.915	37.98
691.1	37.47
691.285	37.58
691.471	37.45
691.656	38.26
691.841	37.91
692.026	37.16
692.211	36.23
692.396	37.03
692.582	37.22
692.767	37.04
692.952	36.47
693.137	36.34
693.322	35.97
693.507	35.68
693.692	35.49
693.877	35.64
694.062	35.91
694.247	37.36
694.432	37.55
694.617	36.9
694.802	36.65
694.987	37.36
695.172	37.34
695.357	37.91
695.541	38.19
695.726	37.85
695.911	38.16
696.096	38.28
696.281	38.23
696.466	38.34
696.65	39.1
696.835	39.13
697.02	38.88
697.204	38.8
697.389	38.73
697.574	38.64
697.759	38.84
697.943	38.64
698.128	38.38
698.312	38.27
698.497	37.88
698.682	37.77
698.866	37.72
699.051	37.41
699.235	37.12
699.42	37.34
699.604	37.25
699.789	36.89
699.973	36.87
700.158	37.08
700.342	36.5
700.527	36.5
700.711	36.42
700.895	36.2
701.08	36.69
701.264	36.9
701.448	36.34
701.633	36.37
701.817	36.19
702.001	35.86
702.186	35.68
702.37	36.15
702.554	36.07
702.738	36.38
702.923	37.37
703.107	37.12
703.291	36.98
703.475	37.28
703.659	37.33
703.843	37.95
704.027	38.64
704.212	38.53
704.396	38.56
704.58	38.7
704.764	37.96
704.948	37.18
705.132	37.37
705.316	38.34
705.5	38.71
705.684	39.4
705.868	39.63
706.052	39.65
706.235	39.78
706.419	39.84
706.603	40.39
706.787	40.7
706.971	41.08
707.155	40.77
707.339	40.28
707.522	39.87
707.706	39.24
707.89	38.46
708.074	37.99
708.257	38.51
708.441	37.85
708.625	37.05
708.808	37.37
708.992	37.19
709.176	37.45
709.359	36.76
709.543	36.58
709.727	36.95
709.91	36.89
710.094	37.41
710.277	37.26
710.461	37.46
710.644	37.94
710.828	37.83
711.011	37.78
711.195	37.84
711.378	39
711.562	39.23
711.745	39.12
711.928	39.24
712.112	39.19
712.295	38.9
712.478	39.43
712.662	38.87
712.845	38.53
713.028	38.47
713.212	38.68
713.395	38.08
713.578	37.39
713.761	37.37
713.945	37.62
714.128	37.02
714.311	37.45
714.494	37.28
714.677	37.6
714.86	38.31
715.043	38.3
715.227	37.9
715.41	37.61
715.593	38.47
715.776	38.18
715.959	38.98
716.142	38.82
716.325	38.37
716.508	38.4
716.691	38.92
716.874	38.65
717.057	38.8
717.239	38.89
717.422	39.31
717.605	38.75
717.788	38.57
717.971	37.58
718.154	37.82
718.337	38.04
718.519	38.79
718.702	38.43
718.885	38.2
719.068	38.61
719.25	38.49
719.433	38.42
719.616	38.47
719.798	39
719.981	38.73
720.164	39.1
720.346	38.78
720.529	38.94
720.712	38.29
720.894	38.15
721.077	37.41
721.259	37.27
721.442	37.45
721.624	38.38
721.807	38.26
721.989	39.2
722.172	38.11
722.354	39.07
722.537	37.68
722.719	38.36
722.901	38.74
723.084	39.76
723.266	40.43
723.448	40.2
723.631	39.62
723.813	39.58
723.995	38.26
724.178	38.99
724.36	38.62
724.542	38.84
724.724	38.3
724.907	37.6
725.089	36.34
725.271	35.58
725.453	35.56
725.635	34.62
725.817	34.97
725.999	35.71
726.181	35.91
726.364	36.57
726.546	36.26
726.728	37.02
726.91	37.06
727.092	37.76
727.274	38.33
727.456	38.03
727.638	38.31
727.819	37.83
728.001	37.66
728.183	37.7
728.365	37.27
728.547	37.75
728.729	37.21
728.911	37.68
729.093	37.53
729.274	37.28
729.456	36.91
729.638	37.19
729.82	37.91
730.001	38.03
730.183	38.53
730.365	37.61
730.546	36.67
730.728	36.99
730.91	37.29
731.091	37.04
731.273	37.19
731.455	37.87
731.636	38.12
731.818	37.93
731.999	38.58
732.181	38.11
732.362	39.1
732.544	40.11
732.725	40.19
732.907	40.11
733.088	40.29
733.27	40.15
733.451	39.91
733.633	39.69
733.814	39.69
733.995	39.71
734.177	39.4
734.358	39.76
734.539	39.1
734.721	38.62
734.902	38.78
735.083	39.52
735.264	39.66
735.446	40.38
735.627	41.73
735.808	42.14
735.989	40.31
736.17	41.24
736.351	39.6
736.533	40.38
736.714	41.43
736.895	40.44
737.076	40.22
737.257	40.18
737.438	40.22
737.619	38.99
737.8	38.83
737.981	40.95
738.162	40.5
738.343	42.1
738.524	42.38
738.705	41.33
738.886	41.19
739.067	39.9
739.247	40.28
739.428	39.81
739.609	40.56
739.79	40.78
739.971	41.07
740.151	40.56
740.332	39.1
740.513	39.55
740.694	39.49
740.874	40.56
741.055	40.45
741.236	41.38
741.417	41.56
741.597	40.95
741.778	40.12
741.958	38.69
742.139	38.52
742.32	38.98
742.5	38.02
742.681	38.82
742.861	38.38
743.042	38.4
743.222	37.68
743.403	37.76
743.583	38.04
743.764	38.34
743.944	38.44
744.124	39.69
744.305	39.75
744.485	39.75
744.666	39.76
744.846	39.2
745.026	39.73
745.207	38.54
745.387	38.09
745.567	37.94
745.747	37.66
745.928	38.16
746.108	37.29
746.288	37.81
746.468	37.91
746.648	38.5
746.829	38.92
747.009	39.62
747.189	40.34
747.369	40.93
747.549	40.56
747.729	40.24
747.909	40.32
748.089	39.12
748.269	38.54
748.449	39.2
748.629	38.46
748.809	38.94
748.989	38.88
749.169	38.03
749.349	37.21
749.529	37.43
749.709	38.26
749.889	37.43
750.068	39
750.248	38.4
750.428	36.93
750.608	36.61
750.788	36.36
750.967	36.43
751.147	36.89
751.327	38.67
751.507	38.43
751.686	38.25
751.866	39.13
752.046	39.32
752.225	40.49
752.405	41.66
752.585	42.8
752.764	42.47
752.944	42.46
753.123	42.92
753.303	40.2
753.482	40.32
753.662	41.15
753.841	41.02
754.021	40.34
754.2	40.18
754.38	39.82
754.559	39.24
754.739	39.08
754.918	39.67
755.097	39.24
755.277	40.67
755.456	41.16
755.635	40.45
755.815	40.03
755.994	40.35
756.173	39.95
756.352	39.81
756.532	39.89
756.711	40.34
756.89	38.97
757.069	39.29
757.248	38.41
757.427	37.39
757.607	36.38
757.786	37.02
757.965	37.53
758.144	38.11
758.323	37.32
758.502	38.11
758.681	38.24
758.86	39.62
759.039	39.09
759.218	39.39
759.397	39.94
759.576	39.65
759.755	37.97
759.934	37.49
760.113	37.24
760.291	37.99
760.47	37.46
760.649	36.85
760.828	35.98
761.007	35.36
761.186	36.24
761.364	36.94
761.543	39.42
761.722	40.75
761.901	40.33
762.079	40.73
762.258	39.92
762.437	39.26
762.615	39.54
762.794	40.24
762.972	41.02
763.151	40.61
763.33	40.38
763.508	39.37
763.687	38.98
763.865	38.68
764.044	38.49
764.222	38.81
764.401	39.17
764.579	39.45
764.758	38.51
764.936	38.45
765.114	39.34
765.293	40.06
765.471	40.51
765.65	40.84
765.828	41.53
766.006	41.45
766.184	41.8
766.363	41.69
766.541	42.31
766.719	43.59
766.898	43.4
767.076	41.52
767.254	40.91
767.432	40.41
767.61	40.41
767.788	39.67
767.967	39.66
768.145	39.37
768.323	39.24
768.501	38.79
768.679	38.21
768.857	38.4
769.035	39.53
769.213	40.45
769.391	40.42
769.569	39.89
769.747	40.38
769.925	40.51
770.103	40.41
770.281	39.11
770.459	37.97
770.636	39.84
770.814	41.88
770.992	42.46
771.17	39.94
771.348	39.41
771.525	41.03
771.703	40.75
771.881	41.67
772.059	43.64
772.236	44.15
772.414	44.61
772.592	43.27
772.769	41.42
772.947	40.33
773.125	41.5
773.302	41.78
773.48	41.19
773.657	41.84
773.835	41.5
774.013	39.97
774.19	40.61
774.368	40.48
774.545	37.44
774.723	36.14
774.9	38.31
775.077	36.03
775.255	36.64
775.432	34.66
775.61	35.81
775.787	33.16
775.964	33.64
776.142	32.84
776.319	32.95
776.496	33.67
776.674	35.65
776.851	35.29
777.028	37.01
777.205	35.78
777.382	36.61
777.56	35.4
777.737	38.24
777.914	37.5
778.091	38.65
778.268	37.66
778.445	38.6
778.622	37.45
778.8	36.55
778.977	36.53
779.154	33.09
779.331	33.99
779.508	33.74
779.685	31.48
779.862	33.24
780.038	33.38
780.215	33.23
780.392	33.53
780.569	34.51
780.746	35.22
780.923	36.12
781.1	40.01
781.277	41.32
781.453	43.39
781.63	45.54
781.807	45.03
781.984	45.14
782.16	47.24
782.337	49.18
782.514	47.88
782.691	47.29
782.867	46.45
783.044	46.64
783.221	45.3
783.397	43.84
783.574	39.83
783.75	38.1
783.927	38.13
784.103	39.05
784.28	36.71
784.456	39.23
784.633	37.92
784.809	40.64
784.986	41.36
785.162	40.55
785.339	41.95
785.515	44.03
785.692	44.15
785.868	44.21
786.044	42.66
786.221	40.66
786.397	37.29
786.573	38.38
786.749	34.73
786.926	35.08
787.102	33.71
787.278	33.05
787.454	33.22
787.631	33.5
787.807	32.56
787.983	32.51
788.159	34.98
788.335	33.3
788.511	34.38
788.687	33.8
788.863	34.86
789.039	37.75
789.216	35.8
789.392	36.19
789.568	37.59
789.744	36.83
789.919	37.29
790.095	38.24
790.271	41.85
790.447	43.64
790.623	46.59
790.799	47.36
790.975	45.34
791.151	46.32
791.327	47.45
791.502	44.08
791.678	46.04
791.854	47.15
792.03	44.42
792.205	42.93
792.381	41.4
792.557	39.91
792.733	37.37
792.908	39.56
793.084	40.56
793.259	41.05
793.435	44.15
793.611	44.59
793.786	43.56
793.962	44.41
794.137	46.01
794.313	44.36
794.488	45.15
794.664	47.08
794.839	44.79
795.015	44.35
795.19	42.9
795.366	42.96
795.541	42.61
795.716	43.37
795.892	43.58
796.067	43.42
796.242	45.53
796.418	43.26
796.593	42.1
796.768	43.1
796.944	42.99
797.119	42.83
797.294	41.88
797.469	42.61
797.644	41.15
797.82	40.03
797.995	39.72
798.17	38.22
798.345	39.84
798.52	40.88
798.695	39.71
798.87	37.21
799.045	38.42
799.22	39.51
799.395	39.44
799.57	42.99
799.745	41.94
799.92	43.65
800.095	44.58
800.27	44.71
800.445	41.72
800.62	43.38
800.795	45.09
800.97	45.17
801.145	45.2
801.319	42.06
801.494	37.69
801.669	39.31
801.844	37.86
802.018	37.05
802.193	38.83
802.368	40.48
802.543	40.63
802.717	43.13
802.892	43.31
803.067	41.92
803.241	44.3
803.416	47.22
803.59	49.44
803.765	50.94
803.94	49.06
804.114	43.06
804.289	42.04
804.463	39.72
804.638	38.7
804.812	37.04
804.986	38.7
805.161	38.45
805.335	35.86
805.51	33.46
805.684	32.71
805.858	32.94
806.033	36.59
806.207	36.7
806.381	39.02
806.556	39.5
806.73	41.79
806.904	40.74
807.078	40.96
807.253	42.6
807.427	41.28
807.601	40.18
807.775	42.46
807.949	41.39
808.123	43.59
808.298	43.4
808.472	39.41
808.646	35.08
808.82	36.62
808.994	36.43
809.168	33.1
809.342	37.68
809.516	39.92
809.69	39.55
809.864	36.85
810.038	34.76
810.212	32.35
810.385	34.99
810.559	36.05
810.733	34.75
810.907	32.98
811.081	34.12
811.255	31.48
811.428	28
811.602	28.38
811.776	32.54
811.95	32.88
812.123	37.8
812.297	35.73
812.471	35.69
812.644	32.15
812.818	34.02
812.992	34.64
813.165	32.81
813.339	31.91
813.512	28.86
813.686	30.14
813.86	26.52
814.033	21.6
814.207	25.2
814.38	27.84
814.554	33.73
814.727	34.99
814.9	32.22
815.074	38.58
815.247	36.92
815.421	41.56
815.594	38.39
815.767	42.16
815.941	46.6
816.114	42.11
816.287	43.19
816.46	38.27
816.634	35.13
816.807	36.98
816.98	31.69
817.153	36.89
817.327	33.31
817.5	36.65
817.673	38.44
817.846	35.55
818.019	42.7
818.192	40.71
818.365	45.03
818.538	49.75
818.711	49.94
818.884	49.15
819.057	42.01
819.23	42.02
819.403	41.65
819.576	40.06
819.749	37.99
819.922	34.24
820.095	37.12
820.268	34.96
820.441	32.01
820.614	34.73
820.786	35.65
820.959	38.59
821.132	36.71
821.305	36.74
821.477	36.42
821.65	37.07
821.823	38.12
821.996	37.59
822.168	38.46
822.341	38.66
822.514	38.22
822.686	38.23
822.859	38.09
823.031	38.65
823.204	38.75
823.376	38.77
823.549	38.83
823.722	38.45
823.894	38.41
824.067	37.74
824.239	37.73
824.411	37.74
824.584	37.89
824.756	38.07
824.929	38.3
825.101	37.7
825.273	38.21
825.446	38.05
825.618	38.5
825.79	38.88
825.963	39.02
826.135	38.93
826.307	38.82
826.479	38.27
826.652	38.25
826.824	38.33
826.996	38.19
827.168	37.73
827.34	37.72
827.512	37.41
827.684	37.13
827.856	37.7
828.029	38.08
828.201	38.04
828.373	38.94
828.545	37.78
828.717	37.28
828.889	37.23
829.061	38.34
829.232	38.56
829.404	38.13
829.576	37.41
829.748	37.95
829.92	38.95
830.092	38.67
830.264	38.05
830.436	40.4
830.607	39.71
830.779	40.2
830.951	38.66
831.123	38.33
831.294	38.57
831.466	37.01
831.638	34.59
831.809	34.52
831.981	35.79
832.153	36.58
832.324	35.31
832.496	37.06
832.667	36.85
832.839	37.11
833.011	38.32
833.182	37.39
833.354	39.32
833.525	41.46
833.697	39.17
833.868	38.8
834.039	37.33
834.211	39.19
834.382	39.23
834.554	40.68
834.725	39.81
834.896	40.79
835.068	41.83
835.239	42.95
835.41	42.45
835.581	44.98
835.753	44.02
835.924	44.07
836.095	44.1
836.266	44.61
836.438	44.75
836.609	43.68
836.78	44.15
836.951	41.95
837.122	39.92
837.293	39.66
837.464	35.98
837.635	35.89
837.806	35.12
837.977	31.44
838.148	30.01
838.319	25.28
838.49	30.75
838.661	28.13
838.832	27.55
839.003	26.69
839.174	19.97
839.345	20.65
839.516	19.39
839.687	20.36
839.857	25.49
840.028	28.06
840.199	29.54
840.37	27.63
840.54	32.81
840.711	37.78
840.882	39.08
841.053	42.31
841.223	39.62
841.394	40.56
841.564	41.09
841.735	42.1
841.906	44.97
842.076	49.08
842.247	49.3
842.417	39.35
842.588	37.47
842.758	39.61
842.929	36.64
843.099	30.15
843.27	26.06
843.44	24.7
843.611	18.88
843.781	14.19
843.951	17.13
844.122	17.64
844.292	19.83
844.462	22.12
844.633	24.12
844.803	34.55
844.973	48.67
845.144	56.84
845.314	60.38
845.484	72.51
845.654	77.19
845.824	82.35
845.995	80.48
846.165	76.25
846.335	76.82
846.505	82.9
846.675	74.57
846.845	76.63
847.015	59.63
847.185	63.31
847.355	37.49
847.525	42.74
847.695	34.47
847.865	24.05
848.035	37.49
848.205	22.06
848.375	35.31
848.545	37.44
848.715	23.86
848.884	40.14
849.054	8.74
849.224	19.28
849.394	9.21
849.564	36.11
849.733	57.38
849.903	54.97
850.073	63.67
850.243	54.45
850.412	58.83
850.582	56.58
850.752	36.99
850.921	64.39
851.091	64.92
851.26	67.13
851.43	64.49
851.599	64.04
851.769	44.36
851.939	60.95
852.108	49.17
852.278	57.42
852.447	72.06
852.616	86.01
852.786	81.78
852.955	72.34
853.125	57.95
853.294	52.65
853.463	30.41
853.633	48.87
853.802	51.24
853.971	44.68
854.141	27.37
854.31	20.64
854.479	14.96
854.648	25.29
854.818	39.64
854.987	52.48
855.156	45.78
855.325	89.91
855.494	99.56
855.663	53.16
855.832	64.71
856.001	85.06
856.171	70.74
856.34	67.44
856.509	53.09
856.678	87.08
856.847	91.81
857.016	82.68
857.185	55.98
857.353	40.82
857.522	58.21
857.691	45.98
857.86	47.15
858.029	54.81
858.198	55.27
858.367	55.53
858.535	45.53
858.704	25.61
858.873	39.1
859.042	48.51
859.21	47.44
859.379	31.94
859.548	32.28
859.717	41.73
859.885	40.45
860.054	43.33
860.222	45.3
860.391	38.1
860.56	51.81
860.728	57.35
860.897	43
861.065	45.67
861.234	50.77
861.402	59.42
861.571	49.76
861.739	50.78
861.908	55.7
862.076	55.89
862.244	68.87
862.413	63.57
862.581	51.21
862.749	48.49
862.918	64.61
863.086	83.95
863.254	99.15
863.423	264.06
863.591	229.13
863.759	272.37
863.927	404.33
864.096	846.46
864.264	-94.2
864.432	-241.61
864.6	1072.69
864.768	275.32
864.936	110.37
865.104	84.83
865.272	48.96
865.44	7.65
865.608	9.77
865.776	-32.04
865.944	-2.18
866.112	46.1
866.28	58.7
866.448	40.08
866.616	76.1
866.784	95
866.952	109.21
867.12	111.27
867.288	105.87
867.455	110.5
867.623	118.49
867.791	98.01
867.959	88.27
868.127	77.58
868.294	103.31
868.462	56.74
868.63	39.29
868.797	12.96
868.965	-2.03
869.133	16.29
869.3	-48.72
869.468	-21.36
869.636	20.77
869.803	31.14
869.971	32.38
870.138	25.46
870.306	56.36
870.473	63.9
870.641	60.51
870.808	38.55
870.975	32.51
871.143	55.55
871.31	73.01
871.478	58.77
871.645	56.76
871.812	55.97
871.98	55.23
872.147	44.61
872.314	59.68
872.482	38.06
872.649	95.69
872.816	123
872.983	116.11
873.15	83.53
873.318	71.32
873.485	98.34
873.652	205.71
873.819	133.07
873.986	114.14
874.153	112.42
874.32	120.29
874.487	120.81
874.654	101.11
874.821	91.27
874.988	103.43
875.155	117.57
875.322	93.97
875.489	77.51
875.656	80.64
875.823	54.31
875.99	57.65
876.157	62.03
876.324	64.4
876.49	76.53
876.657	83.14
876.824	76.04
876.991	73.88
877.157	80.27
877.324	68.42
877.491	70.18
877.658	88.55
877.824	95.62
877.991	110.37
878.157	91.23
878.324	84.02
878.491	77.2
878.657	77.17
878.824	67.46
878.99	71.05
879.157	73.16
879.323	57.89
879.49	64.13
879.656	58.81
879.823	36.92
879.989	59.43
880.156	56.17
880.322	60.61
880.488	74.62
880.655	99.77
880.821	89.68
880.987	99.38
881.154	99.71
881.32	89.36
881.486	67.21
881.652	74.84
881.819	64.37
881.985	54.48
882.151	45.71
882.317	41.31
882.483	34.28
882.649	35.9
882.816	35.28
882.982	34.91
883.148	33.53
883.314	35.49
883.48	35.89
883.646	34.29
883.812	36.97
883.978	39.47
884.144	37.52
884.31	39.11
884.476	40.26
884.642	38.33
884.807	41.08
884.973	40.75
885.139	41.79
885.305	41.34
885.471	42.35
885.637	41.47
885.802	40.05
885.968	43.19
886.134	45.61
886.3	44.6
886.465	44.84
886.631	41.52
886.797	40.96
886.962	42.56
887.128	38.47
887.293	40.5
887.459	35.54
887.625	39.98
887.79	43.64
887.956	38.6
888.121	42.88
888.287	49.86
888.452	52.07
888.618	75.26
888.783	66.73
