Data from CB_015_Reflection_1.txt Node
Date: Wed Nov 11 19:01:37 EST 2015
User: robert
Spectrometer: USB4E03001
Autoset integration time: false
Trigger mode: 4
Integration Time (sec): 1.000000E-1
Scans to average: 15
Electric dark correction enabled: true
Nonlinearity correction enabled: false
Boxcar width: 5
Stray light correction enabled: false
XAxis mode: Wavelengths
Stop averaging: false
Number of Pixels in Spectrum: 3648
>>>>>Begin Spectral Data<<<<<
177.566	-118.11
177.785	-102.61
178.005	-38.82
178.225	-1876.16
178.445	487.98
178.665	346.87
178.885	-148.09
179.105	526.53
179.324	282.77
179.544	-154.29
179.764	-108.49
179.984	-131.16
180.204	267.21
180.423	-120.83
180.643	-413.02
180.863	1778.33
181.083	5517.36
181.302	793
181.522	-2594.31
181.742	-865.48
181.961	610.54
182.181	282.46
182.401	365.35
182.621	1955.3
182.84	344.97
183.06	383.94
183.279	465.94
183.499	1192.26
183.719	1001.98
183.938	595.21
184.158	1607.87
184.377	-2607.74
184.597	-604.52
184.816	-446.38
185.036	-1076.13
185.256	-357.75
185.475	1172.38
185.695	-13202.3
185.914	477.76
186.134	310.4
186.353	403.07
186.572	478.6
186.792	319.99
187.011	267.07
187.231	243.16
187.45	345.03
187.67	356.04
187.889	3416.77
188.108	982.69
188.328	1565.19
188.547	-1480.39
188.766	-1927.1
188.986	828.69
189.205	-45413.64
189.424	1226.81
189.644	7419.01
189.863	377.57
190.082	373.54
190.302	284.58
190.521	222.1
190.74	162.53
190.959	101.05
191.178	122.15
191.398	110.55
191.617	98.77
191.836	103.14
192.055	99.28
192.274	99.37
192.494	71.97
192.713	72.56
192.932	85.15
193.151	80.35
193.37	101.37
193.589	85.78
193.808	97.52
194.027	80.65
194.246	105.1
194.465	158.8
194.685	153.89
194.904	201.87
195.123	477.05
195.342	1584.3
195.561	272.38
195.78	213.83
195.999	255.06
196.218	1059.72
196.436	-448.96
196.655	-1133.43
196.874	443.48
197.093	285.13
197.312	179.67
197.531	-27.65
197.75	-135.47
197.969	-21.65
198.188	-13.97
198.407	-15.78
198.625	-186.52
198.844	-241.57
199.063	-333.28
199.282	-345.63
199.501	-227.17
199.719	-297.42
199.938	-4766.02
200.157	548.17
200.376	674.49
200.594	1149.44
200.813	-42882.86
201.032	2892
201.251	624.49
201.469	620.76
201.688	577.55
201.907	544.78
202.125	435.06
202.344	276.72
202.563	328.25
202.781	331.47
203	276.34
203.218	198.83
203.437	204.45
203.656	170.9
203.874	113.77
204.093	80.08
204.311	52.95
204.53	39.86
204.748	-10.82
204.967	-31.39
205.185	5.99
205.404	38.29
205.622	53.33
205.841	59.51
206.059	77.77
206.278	129.54
206.496	115.94
206.715	269.3
206.933	412.94
207.151	293.28
207.37	251.13
207.588	318.93
207.806	425.7
208.025	588.93
208.243	611.48
208.461	266.68
208.68	262.31
208.898	334.63
209.116	295.01
209.335	235
209.553	-754.25
209.771	442.75
209.989	-3903.04
210.208	-2106.74
210.426	-804.56
210.644	-254.33
210.862	-165.54
211.081	-154.44
211.299	-146.18
211.517	-356.69
211.735	-310.9
211.953	-598.44
212.171	-210.75
212.39	-1266.89
212.608	-4192.19
212.826	597.36
213.044	440.75
213.262	390.56
213.48	381.6
213.698	625.06
213.916	-3106.16
214.134	-1199.23
214.352	-2601.13
214.57	1818.59
214.788	521.84
215.006	568.58
215.224	372.29
215.442	222.46
215.66	249.4
215.878	282.27
216.096	264.23
216.314	185.77
216.532	199.88
216.75	160.97
216.968	147.23
217.185	227.14
217.403	236.69
217.621	299.44
217.839	384.34
218.057	5399.5
218.275	-1769.4
218.492	-185.7
218.71	-112.77
218.928	-104.85
219.146	-114.79
219.363	-91.25
219.581	-153.45
219.799	-188.74
220.017	-116.8
220.234	-108.84
220.452	-144.06
220.67	-149.3
220.887	-301.57
221.105	-225.6
221.323	-232.15
221.54	-74.1
221.758	-47.82
221.976	-45.37
222.193	-43.78
222.411	-112.29
222.629	-120.54
222.846	-132.92
223.064	-118.37
223.281	-135.16
223.499	-176.12
223.716	-174.2
223.934	-846.57
224.151	-1528.52
224.369	-946.15
224.586	468175
224.804	-2101.68
225.021	-1021.97
225.239	-663.92
225.456	-516.56
225.674	-408.35
225.891	-165.86
226.108	-168.18
226.326	-123.15
226.543	-98.02
226.76	-67.64
226.978	-40.25
227.195	-32.83
227.413	-16.71
227.63	-18.98
227.847	-21.53
228.064	-16.79
228.282	-7.39
228.499	0.75
228.716	3.26
228.934	3.97
229.151	3.96
229.368	5.35
229.585	3.31
229.802	3.96
230.02	5.59
230.237	4.03
230.454	6.67
230.671	6.62
230.888	1.19
231.105	-0.81
231.323	-1.58
231.54	-1.03
231.757	-6.32
231.974	-2
232.191	-10.52
232.408	-9.17
232.625	-3.01
232.842	-5.71
233.059	-8.84
233.276	-7.53
233.493	-4.13
233.71	-9.12
233.927	-13.02
234.144	-7.22
234.361	-10.91
234.578	-11.67
234.795	-16.74
235.012	-19.79
235.229	-22.51
235.446	-27.86
235.663	-29.31
235.879	-23.34
236.096	-21.93
236.313	-24.82
236.53	-31.67
236.747	-19.91
236.964	-15.31
237.181	-19.12
237.397	-15.96
237.614	-16.02
237.831	-23.11
238.048	-22.23
238.264	-36.77
238.481	-32.62
238.698	-27.99
238.915	-26.94
239.131	-34.11
239.348	-40.65
239.565	-36.34
239.781	-31.2
239.998	-26.73
240.215	-14.9
240.431	-13.91
240.648	-3.48
240.865	-1.93
241.081	-1.94
241.298	-1.51
241.514	0.32
241.731	2.75
241.947	2.21
242.164	1.06
242.38	1.48
242.597	0.23
242.814	1
243.03	-1.35
243.246	-1.84
243.463	-0.98
243.679	-0.27
243.896	-1.22
244.112	-1.61
244.329	-0.37
244.545	0.4
244.762	1.39
244.978	1.78
245.194	0.8
245.411	0.84
245.627	0.09
245.843	0.29
246.06	3.06
246.276	3.55
246.492	4.09
246.709	5.26
246.925	5.42
247.141	4.9
247.357	5.71
247.574	6.61
247.79	7.6
248.006	8.64
248.222	9.59
248.439	8.58
248.655	9.55
248.871	9.29
249.087	8.63
249.303	8.96
249.519	8.74
249.736	6.29
249.952	5.17
250.168	2.13
250.384	-0.66
250.6	-2.46
250.816	-5.7
251.032	-7.97
251.248	-7.23
251.464	-6.23
251.68	-8.03
251.896	-5.46
252.112	-3.95
252.328	-1.67
252.544	-1.49
252.76	-1.49
252.976	-1.82
253.192	1.14
253.408	0.22
253.624	1.39
253.84	-0.05
254.056	1.28
254.272	-0.53
254.487	-1.17
254.703	-2.11
254.919	0.76
255.135	0.11
255.351	-0.99
255.567	-2.45
255.782	1.23
255.998	0.78
256.214	-1.11
256.43	-2.61
256.646	-2.69
256.861	-4.66
257.077	-6.87
257.293	-9.94
257.508	-5.74
257.724	-3.67
257.94	-2.22
258.155	-3.49
258.371	-1.52
258.587	0.19
258.802	0.24
259.018	0.04
259.234	2.81
259.449	3.87
259.665	4.66
259.88	4.58
260.096	4.37
260.312	4.53
260.527	5.06
260.743	4.56
260.958	4.66
261.174	5.48
261.389	5.31
261.605	3.76
261.82	3.62
262.036	3.23
262.251	2.82
262.466	3.21
262.682	1.07
262.897	-0.5
263.113	-3.46
263.328	-3.64
263.543	-4.73
263.759	-3.8
263.974	-2.04
264.189	-4.39
264.405	-5.22
264.62	-5.84
264.835	-5.62
265.051	-2.9
265.266	-4.41
265.481	-1.77
265.696	-3.5
265.912	-3.27
266.127	-3.58
266.342	-4.04
266.557	-4.93
266.773	-3.29
266.988	-2.65
267.203	-4.95
267.418	-5.29
267.633	-3.5
267.848	-4.17
268.064	-2.32
268.279	-3.13
268.494	-3.4
268.709	-1.84
268.924	-0.9
269.139	-0.49
269.354	-0.08
269.569	1.69
269.784	1.32
269.999	1.3
270.214	1.35
270.429	-0.93
270.644	0.35
270.859	0.45
271.074	-0.26
271.289	-0.05
271.504	0.34
271.719	-0.25
271.934	0.75
272.149	1.06
272.363	0.83
272.578	1.51
272.793	4.5
273.008	4.5
273.223	5.07
273.438	4.96
273.653	5.46
273.867	4.85
274.082	3.34
274.297	2.43
274.512	2.56
274.726	3.62
274.941	2.91
275.156	0.58
275.371	-0.19
275.585	-1.03
275.8	-1.56
276.015	-2.97
276.229	-4.64
276.444	-2.78
276.659	-4.05
276.873	-5.54
277.088	-7.43
277.302	-7.78
277.517	-8.87
277.732	-9.58
277.946	-9.64
278.161	-9.24
278.375	-8.71
278.59	-6
278.804	-5.88
279.019	-3.88
279.233	-1.51
279.448	0.07
279.662	0.75
279.877	2.28
280.091	3.2
280.306	4.79
280.52	4.04
280.735	3.39
280.949	2.93
281.163	4.13
281.378	3.58
281.592	3.29
281.806	2.89
282.021	3.17
282.235	2.6
282.449	1.73
282.664	0.75
282.878	1.86
283.092	3.63
283.307	3.64
283.521	3.66
283.735	4.51
283.949	4.15
284.164	4.02
284.378	4.97
284.592	5.28
284.806	6.48
285.02	6.45
285.234	6.68
285.449	6.24
285.663	5.83
285.877	4.74
286.091	4.28
286.305	4.05
286.519	5.04
286.733	4.79
286.947	5.28
287.161	4.97
287.375	4.88
287.589	4.41
287.803	4.61
288.017	5.31
288.231	5.55
288.445	5.64
288.659	4.58
288.873	4.48
289.087	3.91
289.301	4.19
289.515	4.49
289.729	5.11
289.943	5.5
290.157	5.8
290.371	4.79
290.584	5.51
290.798	5.19
291.012	7.04
291.226	6.73
291.44	6
291.654	4.8
291.867	5.16
292.081	3.9
292.295	2.32
292.509	1.68
292.722	0.57
292.936	-1.3
293.15	-0.72
293.364	-1.42
293.577	-1.47
293.791	0.43
294.005	1.2
294.218	1.25
294.432	2.65
294.645	4.32
294.859	3.78
295.073	5.88
295.286	7.83
295.5	7.89
295.713	9.21
295.927	8.86
296.14	8.14
296.354	8.4
296.568	8.07
296.781	7.48
296.994	6.82
297.208	6.8
297.421	7.41
297.635	7.34
297.848	7.27
298.062	6.79
298.275	6.43
298.489	6.08
298.702	5.69
298.915	6.22
299.129	6.18
299.342	6.21
299.555	6.31
299.769	5.22
299.982	5.02
300.195	6.52
300.409	6.11
300.622	7.89
300.835	7.7
301.048	8.42
301.262	8.5
301.475	9.11
301.688	10.04
301.901	11.01
302.115	9.97
302.328	9.84
302.541	7.96
302.754	8.43
302.967	6.4
303.18	6.64
303.393	6.91
303.607	6.6
303.82	5.39
304.033	4.98
304.246	4.75
304.459	4.93
304.672	3.93
304.885	4.06
305.098	2.69
305.311	4.02
305.524	3.89
305.737	2.66
305.95	2.67
306.163	4.28
306.376	4.22
306.589	3.54
306.802	4.94
307.015	4.59
307.228	3.94
307.44	5.63
307.653	5.37
307.866	6.4
308.079	6.6
308.292	6.37
308.505	7.58
308.718	9.29
308.93	9.13
309.143	9.97
309.356	10.44
309.569	10.57
309.781	9.59
309.994	8.74
310.207	9.32
310.42	9.69
310.632	9.38
310.845	8.65
311.058	6.88
311.27	6.92
311.483	6.36
311.696	6.04
311.908	5.89
312.121	6.1
312.333	5.87
312.546	6.03
312.759	5.47
312.971	4.48
313.184	3.44
313.396	4.55
313.609	5.49
313.821	4.94
314.034	6.95
314.246	7.87
314.459	7.45
314.671	9.56
314.884	8.95
315.096	11.19
315.309	12.38
315.521	11.07
315.733	9.49
315.946	8.97
316.158	8.64
316.371	7.25
316.583	5.88
316.795	6.32
317.008	4.93
317.22	5.04
317.432	2.84
317.644	1.3
317.857	2.93
318.069	3.63
318.281	1.68
318.494	2.8
318.706	2.12
318.918	2.64
319.13	1.78
319.342	2.62
319.555	1.59
319.767	1.4
319.979	4.08
320.191	4.22
320.403	3.75
320.615	5.35
320.827	4.13
321.039	4.96
321.252	5.46
321.464	6.06
321.676	4.65
321.888	4.14
322.1	4.81
322.312	4.82
322.524	6.24
322.736	7.59
322.948	7.33
323.16	9.1
323.372	9.9
323.584	10.17
323.796	10.07
324.007	10.41
324.219	10.45
324.431	10.58
324.643	9.35
324.855	8.64
325.067	8.18
325.279	8.18
325.491	6.65
325.702	6.08
325.914	6.5
326.126	6.06
326.338	7.34
326.55	8.88
326.761	9.04
326.973	10.68
327.185	10.69
327.396	9.54
327.608	10.31
327.82	11.36
328.032	11.09
328.243	11.38
328.455	12.08
328.666	11.94
328.878	11.35
329.09	11.11
329.301	8.93
329.513	8.92
329.725	10.27
329.936	9.77
330.148	9.08
330.359	8.94
330.571	7.62
330.782	7.8
330.994	7.29
331.205	7.65
331.417	9.07
331.628	9.59
331.84	10.34
332.051	10.82
332.262	10.26
332.474	10.92
332.685	12.29
332.897	14.05
333.108	14.99
333.319	15.07
333.531	14.27
333.742	12.69
333.953	13.94
334.165	12.77
334.376	12.21
334.587	13.34
334.799	12.9
335.01	12.5
335.221	12.43
335.432	12.28
335.644	12.84
335.855	13.45
336.066	14.5
336.277	13.02
336.488	13.47
336.7	14.34
336.911	15.43
337.122	15.38
337.333	15.61
337.544	14.92
337.755	15.4
337.966	13.54
338.177	13.21
338.388	12.73
338.599	13.76
338.811	14.1
339.022	13.73
339.233	11.6
339.444	12.48
339.655	13.03
339.866	13.26
340.076	12.36
340.287	14.49
340.498	15.83
340.709	15.78
340.92	16.26
341.131	15.81
341.342	15.51
341.553	15.94
341.764	15.05
341.975	14.37
342.185	14.22
342.396	14.39
342.607	13.29
342.818	11.66
343.029	11.68
343.239	11.65
343.45	12.41
343.661	12.46
343.872	13.42
344.082	13.45
344.293	13.46
344.504	14.36
344.714	14.84
344.925	15.33
345.136	16.04
345.346	17.28
345.557	17.02
345.768	17.27
345.978	17.51
346.189	17.33
346.399	18.19
346.61	18.17
346.821	17.81
347.031	16.62
347.242	16.82
347.452	16.67
347.663	15.35
347.873	15.69
348.084	14.9
348.294	14.36
348.504	13.61
348.715	13.62
348.925	13.64
349.136	12.99
349.346	14.55
349.557	14.75
349.767	14.34
349.977	13.96
350.188	14.28
350.398	14.44
350.608	15.24
350.819	16.11
351.029	15.34
351.239	15.51
351.449	14.93
351.66	14.7
351.87	14.83
352.08	15.33
352.29	16.58
352.501	16.27
352.711	16.42
352.921	16.16
353.131	16.68
353.341	17.06
353.552	16.89
353.762	17.9
353.972	17.1
354.182	16.84
354.392	16.19
354.602	15.97
354.812	15.27
355.022	15.13
355.232	14.65
355.442	13.48
355.652	13.76
355.862	14.5
356.072	14.17
356.282	14.28
356.492	14
356.702	15.04
356.912	14.78
357.122	14.49
357.332	14.27
357.542	14.86
357.752	15.16
357.962	14.53
358.171	13.66
358.381	13.53
358.591	13.92
358.801	14.11
359.011	13.72
359.221	13.43
359.43	13.55
359.64	14.01
359.85	14.26
360.06	14.29
360.269	14.81
360.479	15.26
360.689	15.41
360.899	15.55
361.108	15.4
361.318	15.28
361.528	15.94
361.737	16.19
361.947	16.05
362.156	15.6
362.366	15.64
362.576	15.09
362.785	14.78
362.995	14.78
363.204	14.46
363.414	14.37
363.623	14.61
363.833	14.12
364.042	14.61
364.252	14.63
364.461	15.1
364.671	14.96
364.88	14.89
365.09	14.68
365.299	15.06
365.509	15.04
365.718	15.26
365.927	14.78
366.137	14.68
366.346	14.1
366.555	13.86
366.765	13.4
366.974	13.32
367.183	12.97
367.393	13.13
367.602	12.73
367.811	12.88
368.021	12.62
368.23	13.27
368.439	12.75
368.648	12.85
368.857	13.27
369.067	13.06
369.276	13.34
369.485	14.03
369.694	13.95
369.903	13.59
370.112	13.14
370.321	12.93
370.531	12.2
370.74	11.98
370.949	11.48
371.158	10.65
371.367	10.58
371.576	10.03
371.785	9.77
371.994	9.91
372.203	9.98
372.412	9.95
372.621	10.6
372.83	10.64
373.039	11.16
373.248	11.82
373.457	12.16
373.666	12.08
373.874	12.04
374.083	12.45
374.292	12.03
374.501	11.66
374.71	11.5
374.919	11.18
375.128	11.2
375.336	10.34
375.545	9.6
375.754	9.03
375.963	9.03
376.171	9.1
376.38	9.05
376.589	9.21
376.798	9.02
377.006	8.74
377.215	8.49
377.424	8.25
377.632	8.68
377.841	9.21
378.05	8.74
378.258	8.5
378.467	8.62
378.675	8.23
378.884	7.96
379.093	7.98
379.301	8.31
379.51	8.33
379.718	8.14
379.927	8.11
380.135	7.15
380.344	8.05
380.552	8.52
380.761	8.63
380.969	8.74
381.177	9.05
381.386	9.41
381.594	9.05
381.803	8.54
382.011	8.85
382.219	8.71
382.428	9.22
382.636	9.28
382.845	9.01
383.053	8.63
383.261	8.04
383.469	8.12
383.678	8.04
383.886	8.05
384.094	8.2
384.302	8.13
384.511	7.79
384.719	7.31
384.927	7.08
385.135	6.77
385.343	6.8
385.552	7.39
385.76	6.77
385.968	6.73
386.176	6.8
386.384	6.35
386.592	5.89
386.8	5.89
387.008	6
387.216	5.88
387.424	6.56
387.633	6.89
387.841	6.63
388.049	6.68
388.257	6.8
388.465	6.71
388.672	6.81
388.88	7.03
389.088	7.29
389.296	7.57
389.504	7.47
389.712	6.82
389.92	6.54
390.128	6.49
390.336	6.17
390.544	6.06
390.751	6.3
390.959	6.28
391.167	6.46
391.375	6.62
391.583	6.62
391.79	6.35
391.998	6.52
392.206	6.14
392.414	6.16
392.621	6.5
392.829	6.35
393.037	6.15
393.244	6.25
393.452	5.81
393.66	5.19
393.867	5.12
394.075	5.44
394.283	5.24
394.49	5.54
394.698	5.54
394.905	5.52
395.113	5.43
395.32	5.25
395.528	5.1
395.735	5.36
395.943	5.28
396.15	4.99
396.358	4.74
396.565	4.76
396.773	4.6
396.98	4.14
397.188	3.86
397.395	3.86
397.602	3.74
397.81	4.02
398.017	3.9
398.225	4.25
398.432	4.39
398.639	4.58
398.847	4.48
399.054	4.3
399.261	4.64
399.468	4.97
399.676	4.95
399.883	4.92
400.09	5.03
400.297	5.02
400.505	5.03
400.712	5.2
400.919	5.23
401.126	5.09
401.333	5.24
401.54	5.19
401.748	4.87
401.955	4.6
402.162	4.71
402.369	4.63
402.576	4.6
402.783	4.57
402.99	4.51
403.197	4.45
403.404	4.42
403.611	4.32
403.818	4.27
404.025	4.39
404.232	4.84
404.439	5.07
404.646	4.87
404.853	4.96
405.06	4.95
405.267	4.7
405.474	4.66
405.681	4.98
405.887	4.89
406.094	5.21
406.301	5.25
406.508	5.01
406.715	4.8
406.922	4.98
407.128	4.81
407.335	4.6
407.542	4.76
407.749	4.75
407.955	4.56
408.162	4.94
408.369	4.76
408.575	4.89
408.782	4.96
408.989	5.1
409.195	5.17
409.402	5.31
409.609	5.57
409.815	5.55
410.022	5.4
410.228	5.45
410.435	5.59
410.642	5.28
410.848	5.1
411.055	4.89
411.261	4.55
411.468	4.43
411.674	4.12
411.881	3.9
412.087	3.85
412.294	3.87
412.5	3.68
412.706	3.3
412.913	3.23
413.119	3.23
413.326	3.46
413.532	3.78
413.738	3.91
413.945	4.2
414.151	4.5
414.357	4.47
414.564	4.67
414.77	4.9
414.976	5.05
415.182	5.14
415.389	5.11
415.595	5.24
415.801	4.89
416.007	4.96
416.214	4.85
416.42	4.58
416.626	4.56
416.832	4.6
417.038	4.43
417.244	4.15
417.45	4.24
417.657	4.1
417.863	4.02
418.069	4.16
418.275	4.13
418.481	4.15
418.687	4.19
418.893	4.25
419.099	4.1
419.305	4.23
419.511	4.39
419.717	4.43
419.923	4.58
420.129	4.66
420.335	4.62
420.541	4.38
420.746	4.56
420.952	4.66
421.158	4.71
421.364	4.66
421.57	4.62
421.776	4.44
421.982	4.35
422.187	4.28
422.393	4.1
422.599	4.29
422.805	4.42
423.01	4.24
423.216	4.12
423.422	4.04
423.628	4.19
423.833	4.14
424.039	4.32
424.245	4.32
424.45	4.45
424.656	4.4
424.862	4.18
425.067	4.21
425.273	4.4
425.478	4.55
425.684	4.6
425.889	4.58
426.095	4.68
426.301	4.79
426.506	5.01
426.712	4.9
426.917	5.11
427.123	5.2
427.328	5.02
427.533	4.77
427.739	4.49
427.944	4.48
428.15	4.38
428.355	4.45
428.561	4.29
428.766	3.94
428.971	3.92
429.177	3.78
429.382	3.67
429.587	3.84
429.793	3.6
429.998	3.86
430.203	3.7
430.408	3.52
430.614	3.32
430.819	3.37
431.024	3.28
431.229	3.5
431.434	3.56
431.64	3.56
431.845	3.49
432.05	3.75
432.255	3.68
432.46	3.66
432.665	3.86
432.87	3.93
433.076	3.94
433.281	3.97
433.486	3.71
433.691	3.57
433.896	3.53
434.101	3.7
434.306	3.92
434.511	3.88
434.716	3.85
434.921	3.7
435.126	3.58
435.331	3.31
435.535	3.43
435.74	3.65
435.945	3.83
436.15	3.92
436.355	3.86
436.56	3.54
436.765	3.4
436.97	3.43
437.174	3.52
437.379	3.66
437.584	3.85
437.789	3.78
437.993	3.65
438.198	3.53
438.403	3.68
438.608	3.77
438.812	3.8
439.017	3.92
439.222	4.09
439.426	4.06
439.631	4.04
439.836	4.07
440.04	4.21
440.245	4.08
440.45	4.14
440.654	4.16
440.859	3.98
441.063	3.89
441.268	3.95
441.472	3.94
441.677	3.93
441.881	3.9
442.086	3.94
442.29	3.84
442.495	4.05
442.699	4.02
442.904	3.9
443.108	3.97
443.312	4.06
443.517	4.01
443.721	4.05
443.925	4.14
444.13	4.11
444.334	4.15
444.538	4.25
444.743	4.24
444.947	4.16
445.151	4.19
445.356	4.41
445.56	4.4
445.764	4.45
445.968	4.48
446.173	4.47
446.377	4.49
446.581	4.45
446.785	4.48
446.989	4.44
447.193	4.49
447.398	4.46
447.602	4.29
447.806	4.33
448.01	4.23
448.214	4.21
448.418	4.17
448.622	4.25
448.826	4.21
449.03	4.13
449.234	4.12
449.438	4.15
449.642	4.16
449.846	4.07
450.05	3.97
450.254	4.12
450.458	3.99
450.662	3.88
450.866	3.73
451.069	3.69
451.273	3.7
451.477	3.74
451.681	3.88
451.885	3.77
452.089	3.56
452.292	3.77
452.496	3.7
452.7	3.58
452.904	3.85
453.107	3.86
453.311	3.87
453.515	3.68
453.719	3.63
453.922	3.33
454.126	3.46
454.33	3.59
454.533	3.43
454.737	3.56
454.94	3.52
455.144	3.17
455.348	3.2
455.551	3.04
455.755	3.33
455.958	3.13
456.162	3.21
456.365	2.99
456.569	3.04
456.772	3.22
456.976	3.03
457.179	3.06
457.383	3.4
457.586	3.31
457.79	3.49
457.993	3.32
458.196	3.44
458.4	3.47
458.603	3.83
458.807	3.91
459.01	3.72
459.213	3.78
459.417	3.75
459.62	3.74
459.823	3.76
460.026	3.68
460.23	3.7
460.433	3.68
460.636	3.58
460.839	3.51
461.042	3.54
461.246	3.54
461.449	3.54
461.652	3.57
461.855	3.54
462.058	3.31
462.261	3.25
462.464	3.27
462.668	3.38
462.871	3.71
463.074	3.66
463.277	3.72
463.48	3.72
463.683	3.66
463.886	3.67
464.089	3.6
464.292	3.9
464.495	3.99
464.698	4.19
464.901	4.21
465.104	4.03
465.306	4.11
465.509	4.03
465.712	3.95
465.915	4.09
466.118	4.37
466.321	4.32
466.524	4.27
466.726	4.37
466.929	4.18
467.132	4.03
467.335	4.15
467.538	4.1
467.74	4.12
467.943	4.25
468.146	4.21
468.348	3.99
468.551	4.06
468.754	4.22
468.956	4.12
469.159	4.11
469.362	4.19
469.564	4.18
469.767	4.06
469.969	4.1
470.172	4.13
470.375	4.08
470.577	3.9
470.78	3.88
470.982	3.84
471.185	3.97
471.387	4.02
471.59	3.95
471.792	3.87
471.995	3.91
472.197	3.8
472.399	3.8
472.602	3.65
472.804	3.9
473.007	3.88
473.209	3.69
473.411	3.4
473.614	3.32
473.816	3.41
474.018	3.37
474.22	3.47
474.423	3.5
474.625	3.51
474.827	3.66
475.03	3.37
475.232	3.35
475.434	3.41
475.636	3.69
475.838	3.68
476.04	3.69
476.243	3.75
476.445	3.72
476.647	3.67
476.849	3.72
477.051	3.57
477.253	3.66
477.455	3.78
477.657	3.74
477.859	3.75
478.061	3.86
478.263	3.9
478.465	3.76
478.667	3.79
478.869	3.84
479.071	3.73
479.273	3.81
479.475	3.86
479.677	3.74
479.879	3.73
480.081	3.7
480.283	3.63
480.485	3.66
480.686	3.65
480.888	3.45
481.09	3.37
481.292	3.56
481.494	3.66
481.695	3.51
481.897	3.61
482.099	3.74
482.301	3.81
482.502	3.84
482.704	3.76
482.906	3.83
483.107	3.92
483.309	4.04
483.511	4.04
483.712	4.03
483.914	4.05
484.115	4.05
484.317	4.06
484.519	4.08
484.72	4.03
484.922	4.07
485.123	4.11
485.325	4.08
485.526	4.05
485.728	3.99
485.929	4.06
486.131	4.18
486.332	4.17
486.534	4.18
486.735	4.12
486.936	4.16
487.138	4.12
487.339	4.1
487.541	4.11
487.742	4.06
487.943	4.08
488.144	4.03
488.346	3.98
488.547	3.98
488.748	3.97
488.95	3.91
489.151	3.88
489.352	3.91
489.553	3.86
489.755	3.87
489.956	3.86
490.157	3.86
490.358	3.94
490.559	4.03
490.76	4.04
490.961	4.03
491.163	4.08
491.364	4.11
491.565	4.07
491.766	4.13
491.967	4.12
492.168	4.13
492.369	4.08
492.57	4.04
492.771	4.01
492.972	3.94
493.173	3.98
493.374	3.94
493.575	3.91
493.776	3.94
493.976	3.89
494.177	3.89
494.378	3.94
494.579	3.92
494.78	3.89
494.981	3.82
495.182	3.83
495.382	3.7
495.583	3.77
495.784	3.83
495.985	3.77
496.185	3.9
496.386	3.75
496.587	3.78
496.788	3.8
496.988	3.71
497.189	3.69
497.39	3.66
497.59	3.61
497.791	3.58
497.992	3.69
498.192	3.81
498.393	3.8
498.593	3.98
498.794	3.91
498.994	3.96
499.195	4.08
499.395	4.18
499.596	4.27
499.796	4.42
499.997	4.42
500.197	4.17
500.398	4.2
500.598	4.25
500.799	4.29
500.999	4.36
501.199	4.52
501.4	4.53
501.6	4.63
501.801	4.45
502.001	4.52
502.201	4.7
502.402	4.81
502.602	4.69
502.802	4.64
503.002	4.76
503.203	4.8
503.403	4.71
503.603	4.6
503.803	4.4
504.003	4.58
504.204	4.56
504.404	4.52
504.604	4.63
504.804	4.67
505.004	4.5
505.204	4.4
505.404	4.41
505.604	4.37
505.804	4.48
506.005	4.66
506.205	4.84
506.405	4.86
506.605	4.89
506.805	4.88
507.005	4.87
507.204	5.07
507.404	5.14
507.604	5.18
507.804	5.38
508.004	5.51
508.204	5.56
508.404	5.4
508.604	5.37
508.804	5.42
509.003	5.56
509.203	5.75
509.403	5.76
509.603	5.79
509.803	5.93
510.002	6.01
510.202	6
510.402	6.06
510.602	6.22
510.801	6.42
511.001	6.53
511.201	6.41
511.4	6.49
511.6	6.66
511.8	6.68
511.999	6.59
512.199	6.47
512.398	6.53
512.598	6.58
512.797	6.65
512.997	6.51
513.197	6.5
513.396	6.73
513.596	6.78
513.795	6.76
513.994	6.76
514.194	6.89
514.393	7.09
514.593	7.27
514.792	7.17
514.992	7.31
515.191	7.6
515.39	7.7
515.59	7.84
515.789	7.9
515.988	8.03
516.188	8.46
516.387	8.61
516.586	8.55
516.786	8.48
516.985	8.79
517.184	8.76
517.383	8.76
517.582	8.85
517.782	8.89
517.981	8.93
518.18	9
518.379	8.91
518.578	9
518.777	9.05
518.976	9.17
519.176	9.12
519.375	9.26
519.574	9.47
519.773	9.54
519.972	9.53
520.171	9.63
520.37	9.65
520.569	9.69
520.768	9.7
520.967	9.94
521.166	10.04
521.365	10.18
521.564	10.24
521.762	10.13
521.961	10.28
522.16	10.45
522.359	10.56
522.558	10.87
522.757	11.13
522.956	11.15
523.154	11.24
523.353	11.37
523.552	11.48
523.751	11.63
523.949	11.82
524.148	11.97
524.347	12.03
524.546	12.21
524.744	12.28
524.943	12.35
525.142	12.6
525.34	12.8
525.539	12.96
525.737	13.19
525.936	13.28
526.135	13.39
526.333	13.38
526.532	13.52
526.73	13.54
526.929	13.69
527.127	13.81
527.326	13.99
527.524	14
527.723	14.08
527.921	14.16
528.12	14.28
528.318	14.38
528.516	14.54
528.715	14.68
528.913	14.78
529.112	14.78
529.31	14.87
529.508	14.88
529.707	14.96
529.905	15
530.103	15.04
530.301	15.06
530.5	15.19
530.698	15.29
530.896	15.28
531.094	15.38
531.293	15.55
531.491	15.59
531.689	15.69
531.887	15.82
532.085	15.99
532.283	16.08
532.481	16.26
532.68	16.35
532.878	16.4
533.076	16.56
533.274	16.72
533.472	16.79
533.67	16.87
533.868	16.97
534.066	17.11
534.264	17.18
534.462	17.27
534.66	17.3
534.858	17.21
535.056	17.32
535.253	17.41
535.451	17.35
535.649	17.49
535.847	17.62
536.045	17.68
536.243	17.84
536.441	17.89
536.638	17.9
536.836	18.01
537.034	18.28
537.232	18.27
537.43	18.32
537.627	18.42
537.825	18.44
538.023	18.52
538.22	18.62
538.418	18.64
538.616	18.8
538.813	18.93
539.011	18.97
539.209	18.91
539.406	19.03
539.604	19.1
539.801	19.2
539.999	19.3
540.196	19.47
540.394	19.57
540.591	19.6
540.789	19.63
540.986	19.68
541.184	19.86
541.381	19.96
541.579	20.04
541.776	20.14
541.974	20.29
542.171	20.24
542.368	20.21
542.566	20.18
542.763	20.17
542.96	20.18
543.158	20.2
543.355	20.19
543.552	20.2
543.75	20.24
543.947	20.18
544.144	20.11
544.341	20.25
544.539	20.27
544.736	20.4
544.933	20.35
545.13	20.45
545.327	20.62
545.524	20.59
545.722	20.53
545.919	20.59
546.116	20.75
546.313	20.84
546.51	20.94
546.707	21.09
546.904	21.12
547.101	21.4
547.298	21.38
547.495	21.55
547.692	21.72
547.889	21.95
548.086	21.99
548.283	21.98
548.48	21.88
548.677	21.9
548.874	21.86
549.07	21.95
549.267	21.78
549.464	21.9
549.661	21.68
549.858	21.75
550.055	21.62
550.251	21.82
550.448	21.82
550.645	22.13
550.842	22.17
551.038	22.23
551.235	22.2
551.432	22.3
551.628	22.37
551.825	22.55
552.022	22.61
552.218	22.79
552.415	22.81
552.612	22.88
552.808	22.73
553.005	22.95
553.201	23.06
553.398	23.1
553.594	23.18
553.791	23.22
553.987	23.33
554.184	23.45
554.38	23.4
554.577	23.29
554.773	23.5
554.97	23.64
555.166	23.44
555.362	23.48
555.559	23.64
555.755	23.66
555.952	23.74
556.148	23.78
556.344	23.54
556.541	23.9
556.737	23.81
556.933	23.42
557.129	23.46
557.326	23.56
557.522	23.61
557.718	23.49
557.914	23.8
558.11	23.77
558.307	23.82
558.503	23.86
558.699	23.65
558.895	23.97
559.091	24.23
559.287	24.35
559.483	24.33
559.679	24.36
559.876	24.54
560.072	24.34
560.268	24.45
560.464	24.3
560.66	24.44
560.856	24.36
561.052	24.48
561.247	24.75
561.443	24.65
561.639	24.79
561.835	24.79
562.031	24.71
562.227	24.77
562.423	24.83
562.619	24.96
562.815	24.99
563.01	25.1
563.206	25.08
563.402	24.97
563.598	25.1
563.793	25.1
563.989	25.17
564.185	25.25
564.381	25.21
564.576	25.38
564.772	25.41
564.968	25.4
565.163	25.57
565.359	25.52
565.555	25.38
565.75	25.35
565.946	25.34
566.141	25.36
566.337	25.53
566.532	25.66
566.728	25.49
566.923	25.5
567.119	25.52
567.314	25.6
567.51	25.83
567.705	26.11
567.901	26.31
568.096	26.48
568.292	26.49
568.487	26.57
568.682	26.84
568.878	26.99
569.073	27.11
569.268	27.16
569.464	27.21
569.659	26.89
569.854	26.87
570.05	26.83
570.245	26.73
570.44	26.69
570.635	26.66
570.831	26.44
571.026	26.7
571.221	26.71
571.416	26.8
571.611	26.83
571.806	26.9
572.002	26.81
572.197	26.64
572.392	26.87
572.587	26.92
572.782	26.91
572.977	27.02
573.172	26.71
573.367	26.69
573.562	26.7
573.757	26.53
573.952	26.67
574.147	26.74
574.342	26.83
574.537	26.75
574.732	26.84
574.927	27.04
575.121	26.98
575.316	27.13
575.511	27.06
575.706	27.09
575.901	27.38
576.096	27.39
576.29	27.52
576.485	27.63
576.68	27.66
576.875	27.53
577.069	27.3
577.264	27.17
577.459	27.18
577.654	27.48
577.848	27.44
578.043	27.22
578.238	27.23
578.432	27.04
578.627	27.23
578.821	27.11
579.016	27.27
579.21	27.12
579.405	27.39
579.6	27.28
579.794	27.26
579.989	27.25
580.183	27.04
580.378	26.98
580.572	26.96
580.766	27.08
580.961	27.15
581.155	27.14
581.35	27.32
581.544	27.07
581.738	27.27
581.933	26.98
582.127	27.18
582.321	27.68
582.516	27.66
582.71	27.9
582.904	27.42
583.099	27.51
583.293	27.5
583.487	27.61
583.681	27.58
583.875	27.35
584.07	27.27
584.264	27.17
584.458	27
584.652	27.41
584.846	27.35
585.04	27.6
585.234	27.49
585.428	27.71
585.623	27.65
585.817	27.79
586.011	27.77
586.205	27.76
586.399	27.77
586.593	27.89
586.787	27.71
586.981	27.72
587.174	27.7
587.368	27.9
587.562	27.85
587.756	27.82
587.95	27.95
588.144	28.28
588.338	28.54
588.532	28.88
588.725	28.83
588.919	28.78
589.113	28.93
589.307	28.9
589.501	28.82
589.694	28.91
589.888	29.18
590.082	28.99
590.275	29.11
590.469	28.97
590.663	28.72
590.856	28.57
591.05	28.77
591.244	28.74
591.437	28.67
591.631	28.79
591.824	28.77
592.018	28.55
592.212	28.93
592.405	28.79
592.599	29
592.792	29.08
592.986	29.34
593.179	29.12
593.372	29.2
593.566	29.06
593.759	29.22
593.953	29.16
594.146	29.51
594.339	29.19
594.533	29.14
594.726	28.93
594.92	28.94
595.113	28.89
595.306	28.88
595.499	29.01
595.693	29.29
595.886	29.29
596.079	29.4
596.272	29.17
596.466	29.42
596.659	29.46
596.852	29.58
597.045	29.53
597.238	29.66
597.431	29.74
597.624	29.67
597.818	29.7
598.011	29.64
598.204	29.58
598.397	29.72
598.59	29.64
598.783	29.81
598.976	29.93
599.169	29.88
599.362	29.6
599.555	29.64
599.748	29.63
599.941	29.83
600.134	29.62
600.326	29.81
600.519	29.73
600.712	29.83
600.905	29.64
601.098	29.64
601.291	29.49
601.483	29.44
601.676	29.45
601.869	29.43
602.062	29.35
602.255	29.49
602.447	29.36
602.64	29.29
602.833	29.26
603.025	29.44
603.218	29.54
603.411	29.9
603.603	30.28
603.796	30.35
603.989	30.31
604.181	30.27
604.374	30.23
604.566	30.33
604.759	30.41
604.951	30.44
605.144	30.36
605.336	30.19
605.529	30.16
605.721	30.11
605.914	30.14
606.106	30.2
606.299	30.28
606.491	30.33
606.683	30.23
606.876	30.17
607.068	30.16
607.26	30.25
607.453	30.48
607.645	30.37
607.837	30.05
608.03	30.23
608.222	30.37
608.414	30.32
608.606	30.34
608.799	30.54
608.991	30.63
609.183	30.61
609.375	30.54
609.567	30.49
609.759	30.54
609.952	30.61
610.144	30.44
610.336	30.04
610.528	30.23
610.72	30.45
610.912	30.1
611.104	29.88
611.296	29.9
611.488	29.81
611.68	29.7
611.872	29.71
612.064	29.52
612.256	29.4
612.448	29.76
612.64	29.52
612.832	29.02
613.023	29.09
613.215	28.91
613.407	28.65
613.599	28.49
613.791	28.66
613.983	28.83
614.174	28.97
614.366	29.09
614.558	29.43
614.75	29.18
614.941	29.73
615.133	29.95
615.325	30.33
615.516	30.77
615.708	31.32
615.9	31.3
616.091	31.18
616.283	31.39
616.475	31.22
616.666	31.04
616.858	31.06
617.049	30.86
617.241	30.63
617.432	30.72
617.624	30.63
617.815	30.19
618.007	30.28
618.198	30.19
618.39	30.09
618.581	30.23
618.773	30.32
618.964	30.58
619.155	30.6
619.347	30.85
619.538	30.99
619.729	31
619.921	31.3
620.112	31.09
620.303	31.05
620.494	31.06
620.686	30.98
620.877	30.88
621.068	31.03
621.259	31.02
621.451	30.93
621.642	30.81
621.833	30.66
622.024	30.76
622.215	30.69
622.406	30.74
622.597	30.82
622.788	30.93
622.98	30.7
623.171	30.53
623.362	30.42
623.553	30.49
623.744	30.34
623.935	30.38
624.126	30.09
624.317	30.54
624.508	30.66
624.698	30.86
624.889	30.75
625.08	30.63
625.271	30.49
625.462	30.33
625.653	30.42
625.844	30.53
626.034	30.47
626.225	30.63
626.416	30.43
626.607	30.62
626.798	30.66
626.988	30.59
627.179	30.64
627.37	30.88
627.56	31.08
627.751	31.08
627.942	31.08
628.132	31.39
628.323	31.3
628.514	31.39
628.704	31.31
628.895	31.13
629.085	31.27
629.276	31.39
629.466	31.4
629.657	31.15
629.847	31.22
630.038	31.53
630.228	31.34
630.419	31.34
630.609	31.06
630.8	31.04
630.99	31.23
631.181	31.17
631.371	31.66
631.561	31.46
631.752	31.73
631.942	31.22
632.132	30.88
632.323	31.1
632.513	31.29
632.703	31.61
632.893	31.4
633.084	31.39
633.274	31.6
633.464	31.16
633.654	31.05
633.844	31.2
634.034	31.5
634.225	31.65
634.415	31.49
634.605	31.53
634.795	31.74
634.985	31.91
635.175	31.88
635.365	31.76
635.555	31.57
635.745	31.87
635.935	31.61
636.125	31.64
636.315	31.78
636.505	31.86
636.695	31.63
636.885	31.3
637.075	31.22
637.265	31.18
637.455	31.15
637.644	31.28
637.834	31.12
638.024	31.42
638.214	31.53
638.404	31.27
638.593	31.03
638.783	31.46
638.973	31.61
639.163	31.99
639.352	31.85
639.542	32.04
639.732	31.86
639.921	32.15
640.111	32.14
640.301	32.1
640.49	32.14
640.68	32.49
640.87	32.24
641.059	32.48
641.249	32.1
641.438	32.48
641.628	32.31
641.817	32.77
642.007	32.61
642.196	32.53
642.386	32.38
642.575	32.45
642.764	32.71
642.954	32.36
643.143	31.78
643.333	31.99
643.522	31.52
643.711	31.84
643.901	31.76
644.09	31.84
644.279	31.95
644.469	32.25
644.658	32.22
644.847	31.82
645.036	32.15
645.226	32.26
645.415	32.6
645.604	33.05
645.793	33.33
645.982	33.12
646.171	32.99
646.361	32.84
646.55	33
646.739	32.85
646.928	33.07
647.117	33.08
647.306	33.1
647.495	32.82
647.684	32.23
647.873	32.17
648.062	32.07
648.251	31.9
648.44	31.57
648.629	31.43
648.818	31.35
649.007	30.96
649.196	30.67
649.384	31.13
649.573	31.28
649.762	31.42
649.951	30.92
650.14	30.62
650.328	30.92
650.517	31.43
650.706	31.3
650.895	31.32
651.083	31.32
651.272	31.93
651.461	31.31
651.65	31.15
651.838	31.5
652.027	31.74
652.216	32.3
652.404	32.38
652.593	32.45
652.781	32.66
652.97	33.04
653.158	33.04
653.347	32.85
653.535	33.27
653.724	32.69
653.912	32.28
654.101	32.14
654.289	32.12
654.478	32.29
654.666	31.8
654.855	31.28
655.043	30.83
655.231	31.05
655.42	30.99
655.608	30.78
655.796	30.92
655.985	31.42
656.173	31.43
656.361	31.38
656.55	31.21
656.738	31.43
656.926	31.92
657.114	32.19
657.302	32.17
657.491	32.01
657.679	31.71
657.867	31.94
658.055	31.78
658.243	31.72
658.431	31.61
658.619	31.51
658.807	31.4
658.996	30.99
659.184	30.9
659.372	30.92
659.56	31.29
659.748	31.63
659.936	31.85
660.124	31.95
660.311	31.94
660.499	32.33
660.687	32.35
660.875	32.28
661.063	32.63
661.251	32.95
661.439	32.78
661.627	32.45
661.814	32.41
662.002	32.26
662.19	32.13
662.378	32.38
662.565	32.25
662.753	32.48
662.941	32.41
663.129	32.72
663.316	32.31
663.504	32.74
663.692	32.52
663.879	32.54
664.067	32.52
664.254	32.8
664.442	32.88
664.63	32.92
664.817	32.66
665.005	33.21
665.192	32.4
665.38	32.74
665.567	32.61
665.755	32.89
665.942	33.15
666.13	33.28
666.317	33.35
666.504	33.28
666.692	33.02
666.879	33.17
667.067	33.06
667.254	33.24
667.441	32.85
667.629	33.02
667.816	32.94
668.003	32.53
668.19	32.27
668.378	32.36
668.565	31.95
668.752	32.28
668.939	32.55
669.127	32.27
669.314	32.32
669.501	32.6
669.688	31.96
669.875	32.04
670.062	32.07
670.249	32.19
670.436	31.65
670.623	31.31
670.81	31.21
670.997	30.91
671.184	30.9
671.371	30.95
671.558	30.85
671.745	31.14
671.932	31.24
672.119	31.27
672.306	31.6
672.493	31.43
672.68	31.76
672.867	31.59
673.054	31.13
673.24	31.16
673.427	31.46
673.614	30.82
673.801	30.83
673.988	30.65
674.174	30.86
674.361	30.38
674.548	30.78
674.734	31.19
674.921	31.42
675.108	31.42
675.294	32.11
675.481	31.68
675.668	32.42
675.854	32.28
676.041	32.3
676.227	32.27
676.414	32.1
676.601	31.95
676.787	31.96
676.974	31.91
677.16	32.29
677.347	31.86
677.533	31.7
677.719	32
677.906	32.36
678.092	32.14
678.279	32.26
678.465	32.45
678.651	32.91
678.838	32.93
679.024	33.05
679.21	32.96
679.397	33.11
679.583	32.97
679.769	32.84
679.955	32.88
680.142	33.06
680.328	32.83
680.514	32.58
680.7	32.18
680.886	32.53
681.073	32.47
681.259	32.68
681.445	32.85
681.631	33.51
681.817	33.15
682.003	33.08
682.189	33.41
682.375	33.82
682.561	33.98
682.747	34.34
682.933	33.52
683.119	32.97
683.305	32.86
683.491	32.69
683.677	32.5
683.863	33.36
684.049	33.28
684.235	32.82
684.42	32.76
684.606	32.85
684.792	32.6
684.978	32.82
685.164	32.93
685.349	33.54
685.535	33.36
685.721	33.38
685.907	32.27
686.092	32.53
686.278	33.15
686.464	32.85
686.649	32.99
686.835	32.57
687.021	32.79
687.206	32.67
687.392	31.56
687.577	31.6
687.763	31.46
687.948	31.89
688.134	31.73
688.319	31.4
688.505	31.4
688.69	31.67
688.876	32.17
689.061	32.26
689.247	32.65
689.432	33
689.618	33.62
689.803	33.83
689.988	34.07
690.174	33.93
690.359	33.6
690.544	33.69
690.73	33.58
690.915	33.59
691.1	33.41
691.285	33.21
691.471	33.51
691.656	33.39
691.841	33.39
692.026	32.98
692.211	33.1
692.396	32.92
692.582	32.98
692.767	32.84
692.952	32.55
693.137	32.5
693.322	32.98
693.507	32.7
693.692	31.82
693.877	31.63
694.062	31.71
694.247	31.83
694.432	32.8
694.617	33.2
694.802	33.23
694.987	33.33
695.172	33.69
695.357	33.66
695.541	33.78
695.726	34.19
695.911	34.18
696.096	34.91
696.281	35.29
696.466	34.92
696.65	34.7
696.835	35.18
697.02	35.04
697.204	34.94
697.389	34.89
697.574	34.98
697.759	34.95
697.943	35.14
698.128	34.73
698.312	34.94
698.497	34.86
698.682	34.48
698.866	34.36
699.051	34.33
699.235	34.33
699.42	33.98
699.604	33.79
699.789	33.43
699.973	33.24
700.158	33
700.342	32.69
700.527	32.64
700.711	32.81
700.895	32.29
701.08	32.36
701.264	32.12
701.448	32.19
701.633	32.28
701.817	32.85
702.001	33.19
702.186	33.43
702.37	33.19
702.554	33.11
702.738	33.26
702.923	33.57
703.107	33.5
703.291	33.07
703.475	33.54
703.659	33.74
703.843	33
704.027	32.88
704.212	32.52
704.396	32.05
704.58	31.51
704.764	31.09
704.948	30.8
705.132	31.22
705.316	31.67
705.5	31.6
705.684	31.21
705.868	31.93
706.052	31.47
706.235	31.89
706.419	32.48
706.603	33.21
706.787	33.27
706.971	33.05
707.155	32.96
707.339	32.82
707.522	33.21
707.706	33.2
707.89	33.03
708.074	33.31
708.257	32.94
708.441	32.52
708.625	32.4
708.808	33.33
708.992	33.87
709.176	33.94
709.359	34.13
709.543	33.55
709.727	33.91
709.91	33.46
710.094	33.71
710.277	34.24
710.461	34.66
710.644	34.46
710.828	32.98
711.011	32.81
711.195	33.1
711.378	32.59
711.562	32.6
711.745	32.38
711.928	32.57
712.112	32.79
712.295	32.93
712.478	33.06
712.662	33.62
712.845	34.22
713.028	34.23
713.212	33.4
713.395	34.03
713.578	33.99
713.761	33.63
713.945	33.21
714.128	32.93
714.311	32.68
714.494	32.17
714.677	31.72
714.86	31.21
715.043	31.11
715.227	31.58
715.41	31.33
715.593	31.29
715.776	31.9
715.959	32.5
716.142	32.22
716.325	32.29
716.508	32.48
716.691	32.93
716.874	33.66
717.057	33.49
717.239	33.17
717.422	33.65
717.605	33.88
717.788	33.79
717.971	33.61
718.154	33.26
718.337	33.47
718.519	33.96
718.702	33.42
718.885	33.77
719.068	33.9
719.25	33.75
719.433	33.27
719.616	32.29
719.798	31.26
719.981	31.39
720.164	32.01
720.346	31.99
720.529	30.83
720.712	30.76
720.894	30.86
721.077	31.55
721.259	31.72
721.442	32.06
721.624	33.34
721.807	34.54
721.989	34.57
722.172	34.34
722.354	33.21
722.537	33.02
722.719	33.41
722.901	33.13
723.084	32.03
723.266	32.98
723.448	32.68
723.631	31.65
723.813	31.17
723.995	31.98
724.178	32.44
724.36	32.69
724.542	33.59
724.724	33.28
724.907	32.4
725.089	32.73
725.271	31.65
725.453	32.08
725.635	33.84
725.817	33.67
725.999	32
726.181	31.17
726.364	31.5
726.546	30.47
726.728	29.64
726.91	30.95
727.092	31.64
727.274	32.32
727.456	32.97
727.638	32.56
727.819	33.18
728.001	34.31
728.183	34.47
728.365	34.22
728.547	34.38
728.729	35.96
728.911	35.91
729.093	35.14
729.274	34.12
729.456	33.25
729.638	32.66
729.82	31.86
730.001	31.31
730.183	30.99
730.365	30.63
730.546	32
730.728	31.5
730.91	31.64
731.091	32.47
731.273	32.99
731.455	32.65
731.636	32.23
731.818	33.11
731.999	32.27
732.181	33.86
732.362	34.26
732.544	33.4
732.725	33.04
732.907	31.95
733.088	31.71
733.27	31.68
733.451	31.25
733.633	31.51
733.814	31.34
733.995	32.15
734.177	31.13
734.358	31.1
734.539	30.71
734.721	31.07
734.902	31.65
735.083	31.43
735.264	31.19
735.446	32.18
735.627	31.47
735.808	31.9
735.989	32.31
736.17	31.67
736.351	31.73
736.533	32.62
736.714	32.36
736.895	32.08
737.076	32.31
737.257	33.09
737.438	32.22
737.619	32.72
737.8	31.54
737.981	33.18
738.162	33.44
738.343	32.65
738.524	32.25
738.705	31.91
738.886	31.68
739.067	31.18
739.247	31.18
739.428	30.95
739.609	30.96
739.79	31.61
739.971	30.24
740.151	30.29
740.332	30.8
740.513	31.44
740.694	30.73
740.874	29.45
741.055	29.89
741.236	29.77
741.417	31.22
741.597	31.96
741.778	31.74
741.958	30.82
742.139	31.42
742.32	32.04
742.5	31.98
742.681	32.75
742.861	33.73
743.042	33.99
743.222	33.47
743.403	33.15
743.583	34.23
743.764	34.28
743.944	34.16
744.124	33.1
744.305	33.58
744.485	33.7
744.666	32.81
744.846	32.58
745.026	31.41
745.207	31.99
745.387	30.76
745.567	29.17
745.747	28.8
745.928	28.76
746.108	29.2
746.288	27.15
746.468	26.49
746.648	27.45
746.829	29.78
747.009	31.27
747.189	32.03
747.369	32.9
747.549	33.12
747.729	32.71
747.909	33.92
748.089	34.44
748.269	36.28
748.449	36.38
748.629	37.79
748.809	36.73
748.989	35.91
749.169	35.45
749.349	35.1
749.529	34.95
749.709	35.84
749.889	35.76
750.068	35.83
750.248	35.48
750.428	34.38
750.608	33.08
750.788	33.21
750.967	33.81
751.147	33.47
751.327	34.25
751.507	33.79
751.686	33.4
751.866	33.77
752.046	32.8
752.225	32.98
752.405	33.23
752.585	33.43
752.764	32.89
752.944	33.08
753.123	32.41
753.303	32.27
753.482	32.32
753.662	32.38
753.841	31.06
754.021	31.92
754.2	31.47
754.38	32.25
754.559	32.44
754.739	33.33
754.918	31.94
755.097	32.6
755.277	30.82
755.456	31.63
755.635	31.39
755.815	32.09
755.994	32.03
756.173	32.2
756.352	32.7
756.532	32.79
756.711	32.02
756.89	32.65
757.069	33.14
757.248	33.78
757.427	33.46
757.607	33.43
757.786	33.95
757.965	34.18
758.144	34.32
758.323	34.1
758.502	33.66
758.681	32.63
758.86	33.04
759.039	32.93
759.218	34.66
759.397	35.29
759.576	35.78
759.755	35.32
759.934	35.73
760.113	35.37
760.291	35.42
760.47	36.44
760.649	38.38
760.828	38.05
761.007	37.97
761.186	37.59
761.364	37.23
761.543	37.86
761.722	36.49
761.901	36.07
762.079	36.13
762.258	36.08
762.437	36.36
762.615	35.93
762.794	36.66
762.972	36.52
763.151	36.1
763.33	35.79
763.508	35
763.687	36.22
763.865	35.39
764.044	35.72
764.222	35.08
764.401	33.98
764.579	33.72
764.758	32.9
764.936	32.63
765.114	32.33
765.293	32.29
765.471	32.51
765.65	32.42
765.828	33.56
766.006	33.22
766.184	32.84
766.363	33.63
766.541	33.11
766.719	33.44
766.898	34.07
767.076	34.98
767.254	33.89
767.432	33.57
767.61	34.01
767.788	34
767.967	33.02
768.145	33.05
768.323	32.91
768.501	33.57
768.679	33.11
768.857	31.74
769.035	29.59
769.213	30.41
769.391	29.18
769.569	28.53
769.747	27.31
769.925	28.65
770.103	29.17
770.281	28.06
770.459	28.45
770.636	28.88
770.814	30.99
770.992	32.18
771.17	34.02
771.348	36.11
771.525	35.48
771.703	37.28
771.881	36.65
772.059	36.51
772.236	37.15
772.414	37.45
772.592	36.18
772.769	34.15
772.947	33.93
773.125	31.86
773.302	31.45
773.48	30.67
773.657	28.18
773.835	28.24
774.013	29.29
774.19	28.93
774.368	27.97
774.545	30.42
774.723	32.41
774.9	32.83
775.077	33.52
775.255	33.05
775.432	32.53
775.61	35.48
775.787	35.7
775.964	34.99
776.142	34.45
776.319	33.19
776.496	31.57
776.674	31.12
776.851	30.95
777.028	30.18
777.205	28.04
777.382	29.71
777.56	27.36
777.737	26.62
777.914	27.18
778.091	27.21
778.268	26.82
778.445	27.98
778.622	26.47
778.8	25.65
778.977	27.32
779.154	47.53
779.331	46.58
779.508	46.34
779.685	46.14
779.862	47.32
780.038	48.68
780.215	47.08
780.392	46.31
780.569	44.82
780.746	47.24
780.923	45.79
781.1	24.99
781.277	25.13
781.453	25.68
781.63	23.94
781.807	21.78
781.984	21.6
782.16	23.32
782.337	22.1
782.514	22.9
782.691	23.46
782.867	22.81
783.044	22.73
783.221	24.15
783.397	23.53
783.574	25.6
783.75	25.28
783.927	23.23
784.103	24.02
784.28	25.28
784.456	26.01
784.633	27.14
784.809	29.03
784.986	28.05
785.162	25.63
785.339	24.92
785.515	23.85
785.692	23.04
785.868	23.58
786.044	23.74
786.221	22.17
786.397	21.56
786.573	18.38
786.749	20.4
786.926	23.79
787.102	25.02
787.278	26.11
787.454	29.25
787.631	28.77
787.807	30.46
787.983	30.38
788.159	29.98
788.335	29.9
788.511	32.36
788.687	30.1
788.863	28.15
789.039	28.09
789.216	27.51
789.392	26.38
789.568	25.94
789.744	24.07
789.919	23.87
790.095	23.99
790.271	26.22
790.447	25.29
790.623	26.03
790.799	28.81
790.975	29.7
791.151	29.31
791.327	29.01
791.502	32.77
791.678	35.26
791.854	35.62
792.03	36.59
792.205	34.82
792.381	31.13
792.557	29.12
792.733	27.23
792.908	27.7
793.084	28.49
793.259	29.22
793.435	26.17
793.611	24.9
793.786	25.29
793.962	24.64
794.137	25.29
794.313	24.38
794.488	23.73
794.664	23.46
794.839	21.75
795.015	20.58
795.19	19.84
795.366	18.8
795.541	18.94
795.716	19.62
795.892	18.06
796.067	16.8
796.242	20.98
796.418	21.56
796.593	23.3
796.768	23.56
796.944	24.45
797.119	25.52
797.294	27.42
797.469	26.8
797.644	26.1
797.82	29.29
797.995	30.6
798.17	29.37
798.345	30.22
798.52	29.18
798.695	30.63
798.87	32.29
799.045	31.68
799.22	32.69
799.395	34.9
799.57	34.48
799.745	31.4
799.92	31.08
800.095	30.26
800.27	28.64
800.445	28.77
800.62	26.44
800.795	25.38
800.97	23.98
801.145	21.95
801.319	19.41
801.494	18.25
801.669	18.91
801.844	19.93
802.018	22.03
802.193	23.77
802.368	22.27
802.543	22.29
802.717	21.46
802.892	22.27
803.067	24.34
803.241	25.28
803.416	28.18
803.59	27.04
803.765	25.21
803.94	25.99
804.114	25.02
804.289	22.99
804.463	23.66
804.638	22.88
804.812	22.48
804.986	20.33
805.161	20.45
805.335	18.72
805.51	19.38
805.684	20
805.858	18.39
806.033	18.14
806.207	21.36
806.381	19.8
806.556	20.06
806.73	19.23
806.904	20.36
807.078	21.38
807.253	20.48
807.427	20.62
807.601	19.25
807.775	18.87
807.949	22.17
808.123	19.11
808.298	19.03
808.472	19.07
808.646	21.24
808.82	22.1
808.994	19.5
809.168	18.18
809.342	18.34
809.516	20.18
809.69	20.05
809.864	21.92
810.038	23.79
810.212	27.05
810.385	28.78
810.559	28.24
810.733	27.36
810.907	26.18
811.081	29.41
811.255	25.65
811.428	24.19
811.602	25.45
811.776	21.47
811.95	19.27
812.123	18.38
812.297	16.85
812.471	15.29
812.644	15.17
812.818	15.78
812.992	16.61
813.165	22.62
813.339	27.82
813.512	30.39
813.686	31.82
813.86	35.88
814.033	35.66
814.207	38.86
814.38	40.81
814.554	39.69
814.727	39.53
814.9	33.87
815.074	31.83
815.247	28.96
815.421	26.47
815.594	25.16
815.767	24.46
815.941	21.57
816.114	20.03
816.287	17.34
816.46	19.5
816.634	23.08
816.807	28.05
816.98	30.92
817.153	30.73
817.327	27.7
817.5	29.07
817.673	31.32
817.846	35.74
818.019	35.47
818.192	36.59
818.365	34.73
818.538	33.03
818.711	29.72
818.884	31.81
819.057	30.95
819.23	29.37
819.403	28.79
819.576	25.48
819.749	22.79
819.922	21.26
820.095	20.45
820.268	19.68
820.441	20.18
820.614	21.8
820.786	21.42
820.959	24.56
821.132	27.92
821.305	28.49
821.477	29.39
821.65	31.35
821.823	32.54
821.996	33.77
822.168	34.56
822.341	35.55
822.514	36.8
822.686	36.15
822.859	35.3
823.031	35.66
823.204	35.93
823.376	36.5
823.549	36.4
823.722	36.66
823.894	36.26
824.067	36.12
824.239	35.25
824.411	34.6
824.584	35.14
824.756	35.62
824.929	34.92
825.101	34.83
825.273	34.48
825.446	34.19
825.618	34.57
825.79	34.58
825.963	34.39
826.135	34.88
826.307	35.68
826.479	35.63
826.652	34.99
826.824	35.43
826.996	34.03
827.168	33.95
827.34	34.29
827.512	34.06
827.684	33.86
827.856	34.23
828.029	35.31
828.201	34.42
828.373	33.78
828.545	33.74
828.717	33.8
828.889	36.72
829.061	36.17
829.232	35
829.404	34.07
829.576	33.48
829.748	33.35
829.92	29.41
830.092	29.32
830.264	29.93
830.436	31.19
830.607	30.67
830.779	27.7
830.951	28.79
831.123	28.45
831.294	27.5
831.466	28.01
831.638	26.47
831.809	28.75
831.981	25.06
832.153	23.02
832.324	22.04
832.496	21.3
832.667	19.08
832.839	18.8
833.011	21.65
833.182	22.35
833.354	24.22
833.525	24.86
833.697	26.09
833.868	26.99
834.039	27.07
834.211	27.34
834.382	26.54
834.554	28.69
834.725	29.04
834.896	28.51
835.068	28.47
835.239	27.39
835.41	29.42
835.581	29.75
835.753	30.79
835.924	31.01
836.095	30.98
836.266	33.52
836.438	34.15
836.609	34.37
836.78	34.26
836.951	32.62
837.122	33.72
837.293	29.6
837.464	27.38
837.635	26.34
837.806	25.24
837.977	25.23
838.148	23.33
838.319	22.18
838.49	22.45
838.661	22.34
838.832	26.15
839.003	23.83
839.174	24.67
839.345	26.62
839.516	26.41
839.687	26.89
839.857	25.03
840.028	25.11
840.199	23.4
840.37	19.47
840.54	18.71
840.711	17.96
840.882	19.54
841.053	24.66
841.223	19.49
841.394	16.29
841.564	21.82
841.735	16.55
841.906	7.46
842.076	5.86
842.247	3.65
842.417	1.26
842.588	-6.1
842.758	-4.35
842.929	-17.04
843.099	-12.32
843.27	-0.72
843.44	-9.42
843.611	-5.7
843.781	-2.99
843.951	-1.53
844.122	0.02
844.292	2.51
844.462	3.76
844.633	-1.83
844.803	-1.63
844.973	1.37
845.144	-2.95
845.314	-2.96
845.484	-2.45
845.654	0.69
845.824	-15.3
845.995	-14.2
846.165	-23.17
846.335	-13.53
846.505	-16.42
846.675	-11.69
846.845	-17.06
847.015	-23.89
847.185	-13.46
847.355	-20
847.525	-30.63
847.695	-18.96
847.865	-13.16
848.035	-4.08
848.205	-11.57
848.375	-11.9
848.545	-19.05
848.715	-6.37
848.884	-16.7
849.054	-27.58
849.224	-9.44
849.394	-3.07
849.564	0.03
849.733	-13.28
849.903	-10.66
850.073	-22.67
850.243	-17.66
850.412	-7.84
850.582	-27.35
850.752	-32.08
850.921	-22.46
851.091	-46.1
851.26	-54.09
851.43	-96.31
851.599	-61.61
851.769	-81.63
851.939	-76.82
852.108	-80.12
852.278	-58.91
852.447	-60.84
852.616	-33.04
852.786	-36.23
852.955	-29.46
853.125	-18.12
853.294	13.07
853.463	14.38
853.633	15.65
853.802	21.05
853.971	29.34
854.141	33.08
854.31	49.17
854.479	53.09
854.648	48.71
854.818	52.27
854.987	42.01
855.156	29.98
855.325	28.51
855.494	30.19
855.663	32.64
855.832	21.74
856.001	13.16
856.171	5.53
856.34	-13.88
856.509	-31.7
856.678	-42.37
856.847	-32.12
857.016	-22.69
857.185	-13.62
857.353	-19.28
857.522	-30.04
857.691	-17.58
857.86	-11.11
858.029	-11.63
858.198	9.44
858.367	16.99
858.535	16.99
858.704	13.61
858.873	-4.62
859.042	-38.16
859.21	-20.48
859.379	-32.24
859.548	-24.01
859.717	-38.77
859.885	-37.53
860.054	-42.35
860.222	-19.78
860.391	-9.64
860.56	-28.87
860.728	-13.08
860.897	7.93
861.065	-7.85
861.234	17.09
861.402	9.99
861.571	22.63
861.739	17.39
861.908	17.65
862.076	-1.19
862.244	-0.33
862.413	10.4
862.581	16.65
862.749	-6.21
862.918	-15.42
863.086	-54.43
863.254	-47.78
863.423	-81.68
863.591	-46.87
863.759	-71.83
863.927	-47.17
864.096	-56.67
864.264	-153.61
864.432	-132.3
864.6	-112.6
864.768	-83.54
864.936	-60.48
865.104	-73.08
865.272	-63.98
865.44	-99.17
865.608	-88.89
865.776	-120.84
865.944	-107.28
866.112	-61.31
866.28	-40.9
866.448	-41.64
866.616	-36.9
866.784	-38.93
866.952	-30.76
867.12	-52.73
867.288	-26.34
867.455	-27.91
867.623	-22.46
867.791	-17.88
867.959	-37.63
868.127	-79.3
868.294	-52.91
868.462	-53.53
868.63	-50.07
868.797	-49.37
868.965	-38.81
869.133	-40.19
869.3	-26
869.468	-10.57
869.636	-22.31
869.803	-11.62
869.971	-1.32
870.138	-14.97
870.306	-6.8
870.473	-1.24
870.641	-3.36
870.808	10.71
870.975	11.85
871.143	4.37
871.31	-22.9
871.478	-29.16
871.645	-42.74
871.812	-26.52
871.98	-15.59
872.147	-27.27
872.314	-24.01
872.482	-23.68
872.649	-39.72
872.816	-32.53
872.983	-30.91
873.15	-17.08
873.318	-11.88
873.485	-22.84
873.652	-38.48
873.819	-19.38
873.986	-21.11
874.153	-15.9
874.32	-9.29
874.487	-18.3
874.654	-9.68
874.821	-11.57
874.988	-6.14
875.155	1.33
875.322	19.58
875.489	21.3
875.656	5.15
875.823	3.5
875.99	6.52
876.157	-2.7
876.324	5.33
876.49	-9.98
876.657	-5.7
876.824	-17.4
876.991	-27.28
877.157	-15.94
877.324	-16.04
877.491	-14.52
877.658	-5.76
877.824	-8.39
877.991	-0.24
878.157	-22.37
878.324	-11.94
878.491	-42.99
878.657	-17.33
878.824	-5.38
878.99	-35.28
879.157	-53.25
879.323	-32.64
879.49	-24.14
879.656	-19.03
879.823	-16.5
879.989	-3.89
880.156	-6.43
880.322	6.4
880.488	-1.61
880.655	11.31
880.821	15.27
880.987	18.9
881.154	19.92
881.32	28.79
881.486	30.11
881.652	29.72
881.819	29.71
881.985	29.24
882.151	33.45
882.317	36.75
882.483	32.7
882.649	34.01
882.816	35.61
882.982	35.29
883.148	31.43
883.314	29.82
883.48	31.75
883.646	32.74
883.812	33.94
883.978	31.37
884.144	29.78
884.31	28.39
884.476	26.67
884.642	27.36
884.807	25.6
884.973	24.55
885.139	23.69
885.305	21.93
885.471	20.45
885.637	22.34
885.802	21.99
885.968	22.66
886.134	23.92
886.3	27.25
886.465	25.17
886.631	28.55
886.797	28.89
886.962	30.61
887.128	29.36
887.293	28.32
887.459	20.76
887.625	16.07
887.79	11.12
887.956	8.71
888.121	-2.89
888.287	-7.26
888.452	-16.08
888.618	-24.66
888.783	-36.53
