Data from CB_074_Reflection_3.txt Node
Date: Sat Nov 14 11:21:38 EST 2015
User: robert
Spectrometer: USB4E03001
Autoset integration time: false
Trigger mode: 4
Integration Time (sec): 1.000000E-1
Scans to average: 15
Electric dark correction enabled: true
Nonlinearity correction enabled: false
Boxcar width: 5
Stray light correction enabled: false
XAxis mode: Wavelengths
Stop averaging: false
Number of Pixels in Spectrum: 3648
>>>>>Begin Spectral Data<<<<<
177.566	-270.72
177.785	-429.24
178.005	-1459.43
178.225	-226.38
178.445	-214.98
178.665	-297.49
178.885	-6.35
179.105	-92.56
179.324	-148.79
179.544	-389.94
179.764	-150.31
179.984	-179.45
180.204	-190.74
180.423	-722.27
180.643	-342.63
180.863	-590.16
181.083	-2471.27
181.302	-10396.03
181.522	1071.47
181.742	1063.39
181.961	1014.39
182.181	159.19
182.401	142.86
182.621	266.61
182.84	1058.07
183.06	-3356.27
183.279	-413.43
183.499	-258.82
183.719	-390.72
183.938	-282.12
184.158	-236.86
184.377	-173.63
184.597	-104.25
184.816	-52.66
185.036	-87.89
185.256	-100.45
185.475	-253.74
185.695	-121.07
185.914	-164.93
186.134	-151.66
186.353	-191.97
186.572	-110.13
186.792	-704.07
187.011	3564.71
187.231	-3041.56
187.45	-516.57
187.67	-2064.92
187.889	786.49
188.108	462.57
188.328	311.77
188.547	223.13
188.766	177.11
188.986	161.53
189.205	148.92
189.424	171.2
189.644	140.17
189.863	188.81
190.082	215.62
190.302	319.4
190.521	241
190.74	272.65
190.959	956.64
191.178	926.81
191.398	824.88
191.617	2251.32
191.836	7923.12
192.055	1362.89
192.274	356.84
192.494	521.7
192.713	20373.21
192.932	-1957.81
193.151	365500
193.37	562.05
193.589	-12834.51
193.808	-1117.58
194.027	-1742.15
194.246	3173.71
194.465	-2258.1
194.685	511.75
194.904	470.11
195.123	289.73
195.342	213.41
195.561	161.23
195.78	587.33
195.999	1274.24
196.218	523.08
196.436	203.12
196.655	174.16
196.874	130.6
197.093	309.94
197.312	254.43
197.531	407.01
197.75	555.37
197.969	1596.67
198.188	246.55
198.407	185.61
198.625	201.88
198.844	293.92
199.063	381.85
199.282	716.73
199.501	-3166.8
199.719	-1585.88
199.938	848.49
200.157	597.26
200.376	-3170.66
200.594	-223.23
200.813	-582.75
201.032	-1562.35
201.251	-651.15
201.469	-995.32
201.688	-1982.37
201.907	3755.04
202.125	1142.95
202.344	4293.62
202.563	19756.52
202.781	1039.82
203	293.91
203.218	252.25
203.437	461.46
203.656	364.56
203.874	852.97
204.093	800.8
204.311	510.47
204.53	1369.51
204.748	327.43
204.967	462.47
205.185	446.81
205.404	548.17
205.622	607.78
205.841	300.83
206.059	245.34
206.278	190.76
206.496	295.5
206.715	415.23
206.933	306.28
207.151	421.51
207.37	305.99
207.588	365.85
207.806	445.72
208.025	636.61
208.243	904.52
208.461	-64386.36
208.68	1707.52
208.898	754.7
209.116	446.28
209.335	376.52
209.553	356.16
209.771	260
209.989	247.22
210.208	207.2
210.426	190.76
210.644	162.78
210.862	157.73
211.081	152.14
211.299	124.02
211.517	145.45
211.735	117.75
211.953	114.14
212.171	130.89
212.39	106.74
212.608	101.26
212.826	87.33
213.044	119.33
213.262	114.34
213.48	108.47
213.698	142.06
213.916	97.2
214.134	182.72
214.352	253.43
214.57	176.79
214.788	165.73
215.006	168
215.224	312.96
215.442	827.36
215.66	1475.88
215.878	559.76
216.096	230.11
216.314	649.66
216.532	2664.72
216.75	-828.77
216.968	-1152.34
217.185	-9429.2
217.403	2073.41
217.621	-154788.89
217.839	-863.31
218.057	-28372.92
218.275	-837.57
218.492	-130.31
218.71	-3354.96
218.928	1723.23
219.146	999.54
219.363	519.59
219.581	560.06
219.799	-2509.35
220.017	290.75
220.234	294.41
220.452	323.28
220.67	562.59
220.887	280.57
221.105	426.42
221.323	272.52
221.54	192.14
221.758	193.47
221.976	178.08
222.193	142.09
222.411	137.7
222.629	142.6
222.846	133.64
223.064	116.37
223.281	124.71
223.499	116.85
223.716	101.16
223.934	95.03
224.151	100.84
224.369	111.67
224.586	129.1
224.804	147.78
225.021	136.29
225.239	141.11
225.456	136.95
225.674	114.04
225.891	122.68
226.108	118.28
226.326	112.76
226.543	106.37
226.76	96.89
226.978	80.02
227.195	74.08
227.413	67.56
227.63	63.4
227.847	61.23
228.064	56.45
228.282	51.17
228.499	50.58
228.716	48.33
228.934	45.91
229.151	46.35
229.368	43.15
229.585	40.88
229.802	39.69
230.02	38.33
230.237	36.8
230.454	38.96
230.671	39.54
230.888	42.7
231.105	39.07
231.323	42.64
231.54	43.1
231.757	47.78
231.974	52.62
232.191	55.97
232.408	57.55
232.625	62.14
232.842	53.93
233.059	47.02
233.276	40.81
233.493	42.95
233.71	39.17
233.927	34.5
234.144	32.1
234.361	31.92
234.578	27.84
234.795	28.18
235.012	24.5
235.229	28.26
235.446	35.5
235.663	35.87
235.879	35.69
236.096	40.06
236.313	48.39
236.53	45.47
236.747	40.55
236.964	41.3
237.181	46.04
237.397	49.42
237.614	56.68
237.831	57.47
238.048	58.51
238.264	59.93
238.481	55.46
238.698	48.14
238.915	48.96
239.131	49.45
239.348	46.9
239.565	43.57
239.781	38.32
239.998	34.83
240.215	29.14
240.431	31.9
240.648	31.63
240.865	28.7
241.081	30.77
241.298	30.49
241.514	30.69
241.731	30.13
241.947	28.74
242.164	28.84
242.38	25.33
242.597	23.36
242.814	21.09
243.03	22.64
243.246	24.09
243.463	22.29
243.679	21.01
243.896	19.66
244.112	19.3
244.329	20.51
244.545	24.97
244.762	25.3
244.978	29.74
245.194	27.74
245.411	25.61
245.627	24.46
245.843	25.4
246.06	25.59
246.276	23.67
246.492	25.54
246.709	24.16
246.925	22.17
247.141	22.94
247.357	22.19
247.574	22.44
247.79	21.5
248.006	20.95
248.222	20.95
248.439	20.29
248.655	21.3
248.871	18.91
249.087	19.19
249.303	19.74
249.519	19.91
249.736	19.69
249.952	21.3
250.168	25.16
250.384	26.41
250.6	25.36
250.816	28.04
251.032	26.96
251.248	27.74
251.464	26.17
251.68	22.41
251.896	19.9
252.112	21.15
252.328	21.24
252.544	20.28
252.76	19.19
252.976	17.09
253.192	15.53
253.408	17.53
253.624	19.45
253.84	20.61
254.056	22.28
254.272	22.73
254.487	21.37
254.703	19.85
254.919	19.75
255.135	23.01
255.351	25.81
255.567	28.36
255.782	29.06
255.998	29.71
256.214	26.96
256.43	23.11
256.646	25.4
256.861	26.49
257.077	24.57
257.293	21.3
257.508	19.8
257.724	21.22
257.94	18.68
258.155	17.11
258.371	16.16
258.587	17.25
258.802	17.99
259.018	16.55
259.234	16.15
259.449	16.22
259.665	17.14
259.88	17.2
260.096	16.05
260.312	15.69
260.527	15.72
260.743	15.51
260.958	14.99
261.174	15.87
261.389	17.09
261.605	17.1
261.82	16.74
262.036	16.37
262.251	16.42
262.466	17.21
262.682	17.19
262.897	16.91
263.113	16.7
263.328	16.88
263.543	17.5
263.759	17.43
263.974	16.1
264.189	16.41
264.405	15.86
264.62	15.89
264.835	17.47
265.051	21.82
265.266	21.42
265.481	23.92
265.696	24.97
265.912	21.58
266.127	20.88
266.342	19.56
266.557	20.13
266.773	20.66
266.988	19.97
267.203	19.42
267.418	16.19
267.633	16.79
267.848	15.09
268.064	13.43
268.279	14.13
268.494	12.97
268.709	14.43
268.924	16.95
269.139	15.46
269.354	16.04
269.569	15.11
269.784	16.11
269.999	16.07
270.214	16.22
270.429	18.24
270.644	19.58
270.859	19.47
271.074	19.29
271.289	18.33
271.504	18.55
271.719	17.85
271.934	19.32
272.149	19.01
272.363	18.91
272.578	18.1
272.793	17.31
273.008	17.28
273.223	17.31
273.438	16.4
273.653	15.73
273.867	15.99
274.082	18.06
274.297	16.5
274.512	18.25
274.726	17.1
274.941	16.58
275.156	17.13
275.371	16.42
275.585	16.91
275.8	19.45
276.015	18.76
276.229	18.77
276.444	17.01
276.659	17.06
276.873	15.16
277.088	18.05
277.302	20.25
277.517	19.02
277.732	18.94
277.946	18.77
278.161	18.58
278.375	18.24
278.59	18.2
278.804	18.36
279.019	18.52
279.233	17.9
279.448	14.83
279.662	13.12
279.877	13.81
280.091	11.91
280.306	10.65
280.52	8.72
280.735	9.23
280.949	9.79
281.163	8.54
281.378	7.23
281.592	8.73
281.806	10.32
282.021	10.39
282.235	10.68
282.449	13.75
282.664	14.17
282.878	14
283.092	13.25
283.307	13.25
283.521	12.51
283.735	14.49
283.949	14.8
284.164	13.83
284.378	13.85
284.592	12.97
284.806	11.93
285.02	12.97
285.234	12.28
285.449	13.19
285.663	14.28
285.877	15
286.091	14.12
286.305	13.55
286.519	14.13
286.733	14.45
286.947	15.18
287.161	15.41
287.375	14.63
287.589	17.46
287.803	18.85
288.017	16.94
288.231	17.59
288.445	17.76
288.659	18.49
288.873	19.01
289.087	19.5
289.301	20.1
289.515	18.74
289.729	19.06
289.943	17.67
290.157	16.7
290.371	17.12
290.584	17.54
290.798	18.31
291.012	17.48
291.226	17.02
291.44	17.48
291.654	15.84
291.867	16.86
292.081	17.38
292.295	18.61
292.509	19.39
292.722	19.67
292.936	18.2
293.15	17.35
293.364	17.6
293.577	18.49
293.791	18.36
294.005	19.69
294.218	19.46
294.432	19.66
294.645	17.85
294.859	16.84
295.073	16.93
295.286	17.78
295.5	18.5
295.713	18.24
295.927	17.41
296.14	16.93
296.354	16.41
296.568	16.15
296.781	15.57
296.994	16.73
297.208	16.7
297.421	16.33
297.635	16.47
297.848	16.03
298.062	15.21
298.275	15.4
298.489	15.68
298.702	16.74
298.915	16.41
299.129	16.71
299.342	16.72
299.555	17.29
299.769	17.27
299.982	16.38
300.195	17.11
300.409	18.52
300.622	18.63
300.835	18.76
301.048	17.24
301.262	18.64
301.475	19.61
301.688	18.09
301.901	17.77
302.115	18.08
302.328	18.86
302.541	19.13
302.754	19.97
302.967	20.41
303.18	21.16
303.393	20.69
303.607	20.55
303.82	20.46
304.033	22.05
304.246	22.73
304.459	23.06
304.672	23.74
304.885	23.98
305.098	23.34
305.311	22.19
305.524	21.08
305.737	22.44
305.95	23.64
306.163	22.57
306.376	22.1
306.589	21.35
306.802	22.47
307.015	23.26
307.228	21.75
307.44	21.78
307.653	21.97
307.866	22.95
308.079	22.62
308.292	20.46
308.505	22.49
308.718	23.74
308.93	24.3
309.143	23.88
309.356	23.7
309.569	23.98
309.781	23.99
309.994	25.42
310.207	25.07
310.42	24.27
310.632	25.14
310.845	23.92
311.058	23.14
311.27	22.25
311.483	21.89
311.696	21.11
311.908	21.15
312.121	21.41
312.333	22.21
312.546	22.13
312.759	22.3
312.971	21.71
313.184	22.76
313.396	22.78
313.609	23.33
313.821	23.83
314.034	24.53
314.246	25.24
314.459	25.8
314.671	23.73
314.884	24.18
315.096	25.11
315.309	26.2
315.521	26.16
315.733	25.1
315.946	24.59
316.158	25.06
316.371	25.17
316.583	23.89
316.795	22.44
317.008	22.7
317.22	21.55
317.432	21.26
317.644	20.86
317.857	20.64
318.069	21.71
318.281	22.9
318.494	22.73
318.706	23.84
318.918	25.23
319.13	24.48
319.342	24.88
319.555	25.49
319.767	26.13
319.979	24.67
320.191	23.99
320.403	24.37
320.615	24.02
320.827	23.66
321.039	22.46
321.252	23.42
321.464	25.07
321.676	24.55
321.888	24.43
322.1	23.37
322.312	24.45
322.524	24.91
322.736	24.05
322.948	24.43
323.16	24.63
323.372	24.95
323.584	23.94
323.796	23.05
324.007	23.42
324.219	23.44
324.431	25.14
324.643	25.19
324.855	25.18
325.067	24.97
325.279	24.27
325.491	25
325.702	25.19
325.914	25.14
326.126	25.82
326.338	24.24
326.55	24.36
326.761	22.89
326.973	23.28
327.185	23.05
327.396	24.11
327.608	24.37
327.82	23.4
328.032	23.4
328.243	24
328.455	24.06
328.666	25.11
328.878	26.11
329.09	27.78
329.301	27.69
329.513	28.48
329.725	28.38
329.936	28.61
330.148	28.94
330.359	29.31
330.571	29.89
330.782	29.61
330.994	29.85
331.205	29.38
331.417	28.43
331.628	28.12
331.84	28.71
332.051	29.8
332.262	29.78
332.474	28.75
332.685	29.16
332.897	29.12
333.108	30.32
333.319	30.67
333.531	31.47
333.742	30.81
333.953	30.52
334.165	28.96
334.376	28.8
334.587	29.04
334.799	29.63
335.01	28.18
335.221	27.7
335.432	26.17
335.644	27.02
335.855	25.91
336.066	26.71
336.277	27.67
336.488	27.96
336.7	26.1
336.911	26.59
337.122	27.13
337.333	27.4
337.544	27.12
337.755	28.87
337.966	27.22
338.177	27.22
338.388	26.79
338.599	26.84
338.811	26.15
339.022	27.43
339.233	26.83
339.444	25.59
339.655	24.84
339.866	24.15
340.076	22.45
340.287	22.74
340.498	23.22
340.709	23.31
340.92	23.06
341.131	23.7
341.342	23.27
341.553	23.08
341.764	23.98
341.975	25.3
342.185	24.68
342.396	25.33
342.607	25.44
342.818	24.88
343.029	24.44
343.239	24.79
343.45	23.89
343.661	24.11
343.872	24.08
344.082	23.43
344.293	23.03
344.504	24.29
344.714	24.32
344.925	25.01
345.136	24.83
345.346	23.62
345.557	23.39
345.768	24.25
345.978	24.3
346.189	23.65
346.399	23.82
346.61	23.42
346.821	23.77
347.031	24.07
347.242	22.86
347.452	22.76
347.663	23.99
347.873	24.09
348.084	23.94
348.294	22.82
348.504	23.38
348.715	24.36
348.925	24.8
349.136	22.44
349.346	22.15
349.557	22.46
349.767	22.77
349.977	23.5
350.188	22.65
350.398	23.1
350.608	23.1
350.819	23.56
351.029	21.67
351.239	22.27
351.449	23.82
351.66	23.76
351.87	24.17
352.08	24.32
352.29	22.98
352.501	22.35
352.711	21.56
352.921	22.15
353.131	20.83
353.341	22.43
353.552	21.32
353.762	20.94
353.972	19.9
354.182	20.96
354.392	20.89
354.602	21.32
354.812	22.47
355.022	22.28
355.232	22.89
355.442	23.64
355.652	23.05
355.862	23.34
356.072	24.1
356.282	23.76
356.492	22.47
356.702	22.28
356.912	22.87
357.122	22.96
357.332	23.03
357.542	22.18
357.752	22.1
357.962	21.96
358.171	21.36
358.381	20.62
358.591	21.6
358.801	21.91
359.011	21.55
359.221	21.27
359.43	20.82
359.64	20.57
359.85	20.51
360.06	20.56
360.269	21.04
360.479	21.57
360.689	22.03
360.899	21.94
361.108	21.93
361.318	21.62
361.528	21.06
361.737	20.67
361.947	20.74
362.156	20.55
362.366	20.19
362.576	19.99
362.785	19.78
362.995	19.05
363.204	18.95
363.414	19.08
363.623	19.09
363.833	19.93
364.042	20.44
364.252	20.96
364.461	21.07
364.671	20.95
364.88	20.7
365.09	21.13
365.299	21.92
365.509	22.46
365.718	22.11
365.927	22.8
366.137	22.18
366.346	21.82
366.555	20.78
366.765	21.02
366.974	21.39
367.183	20.65
367.393	19.31
367.602	19
367.811	18.3
368.021	18.55
368.23	18.34
368.439	18.25
368.648	17.86
368.857	18.59
369.067	18.58
369.276	18.78
369.485	19.84
369.694	20.79
369.903	20.9
370.112	20.87
370.321	19.95
370.531	19.29
370.74	19.51
370.949	19.63
371.158	19.23
371.367	19.36
371.576	18.92
371.785	18.35
371.994	18.76
372.203	18.76
372.412	18.66
372.621	19.39
372.83	20.5
373.039	20.75
373.248	20.18
373.457	20.37
373.666	19.71
373.874	19.7
374.083	19.85
374.292	19.02
374.501	18.48
374.71	18.19
374.919	17.84
375.128	17.04
375.336	17.17
375.545	18.29
375.754	18.17
375.963	17.96
376.171	17.51
376.38	17.67
376.589	17.64
376.798	17.19
377.006	17.71
377.215	17.57
377.424	17.03
377.632	15.98
377.841	15.44
378.05	15.19
378.258	15.94
378.467	15.75
378.675	15.27
378.884	15.68
379.093	15.93
379.301	15.42
379.51	15.65
379.718	16.22
379.927	16.69
380.135	17.08
380.344	16.7
380.552	17.04
380.761	17.23
380.969	17.26
381.177	16.64
381.386	17.28
381.594	17.45
381.803	17.11
382.011	17.18
382.219	16.66
382.428	16.55
382.636	17.21
382.845	16.07
383.053	16.85
383.261	16.85
383.469	16.84
383.678	16.67
383.886	16.6
384.094	16.45
384.302	16.3
384.511	16.75
384.719	16.39
384.927	16.04
385.135	16.39
385.343	15.61
385.552	15.86
385.76	15.57
385.968	15.26
386.176	14.82
386.384	14.86
386.592	14.39
386.8	14.1
387.008	14.41
387.216	14.35
387.424	14.06
387.633	14.12
387.841	14.12
388.049	14.81
388.257	14.87
388.465	14.8
388.672	14.61
388.88	14.91
389.088	14.74
389.296	14.2
389.504	13.97
389.712	14.11
389.92	14.42
390.128	14.23
390.336	13.89
390.544	13.59
390.751	13.67
390.959	14.06
391.167	13.87
391.375	14.19
391.583	14.11
391.79	14.34
391.998	14.46
392.206	14.11
392.414	13.61
392.621	13.15
392.829	13.41
393.037	13.52
393.244	13.26
393.452	13.37
393.66	13.25
393.867	13.45
394.075	13.06
394.283	12.92
394.49	12.68
394.698	12.73
394.905	13.15
395.113	13.11
395.32	12.8
395.528	12.78
395.735	12.61
395.943	12.52
396.15	12.33
396.358	12.45
396.565	12.49
396.773	12.7
396.98	13.13
397.188	12.95
397.395	12.97
397.602	13.18
397.81	13.01
398.017	13.21
398.225	13.6
398.432	13.56
398.639	13.73
398.847	13.55
399.054	13.78
399.261	13.81
399.468	13.83
399.676	13.96
399.883	13.94
400.09	14.09
400.297	13.84
400.505	13.43
400.712	13.89
400.919	14
401.126	14
401.333	13.98
401.54	13.78
401.748	13.86
401.955	13.23
402.162	13.03
402.369	13.1
402.576	13.34
402.783	13.15
402.99	12.81
403.197	12.22
403.404	12.15
403.611	11.93
403.818	11.93
404.025	11.68
404.232	12.01
404.439	11.92
404.646	11.54
404.853	11.28
405.06	11.29
405.267	11.19
405.474	11.81
405.681	12.28
405.887	12.31
406.094	12.43
406.301	12.51
406.508	12.6
406.715	13.32
406.922	13.45
407.128	13.86
407.335	13.82
407.542	13.79
407.749	13.38
407.955	12.81
408.162	12.83
408.369	12.9
408.575	13.09
408.782	12.92
408.989	12.05
409.195	11.75
409.402	11.5
409.609	11.13
409.815	11.42
410.022	11.56
410.228	11.66
410.435	11.6
410.642	11.49
410.848	11.06
411.055	11.09
411.261	11.23
411.468	11.71
411.674	11.48
411.881	12.04
412.087	11.88
412.294	11.97
412.5	12.14
412.706	12.05
412.913	11.77
413.119	11.75
413.326	11.53
413.532	11.55
413.738	11.49
413.945	11.35
414.151	11.3
414.357	11.32
414.564	11.34
414.77	11.39
414.976	11.37
415.182	11.64
415.389	11.84
415.595	11.61
415.801	11.78
416.007	11.94
416.214	11.75
416.42	11.53
416.626	11.21
416.832	11.1
417.038	10.86
417.244	11.12
417.45	10.93
417.657	10.77
417.863	10.92
418.069	10.98
418.275	10.67
418.481	10.83
418.687	10.98
418.893	11.04
419.099	11.05
419.305	10.93
419.511	10.74
419.717	10.68
419.923	10.74
420.129	10.77
420.335	10.77
420.541	10.9
420.746	10.85
420.952	10.84
421.158	10.88
421.364	10.74
421.57	10.82
421.776	10.83
421.982	10.96
422.187	10.94
422.393	10.87
422.599	10.78
422.805	10.69
423.01	10.81
423.216	10.74
423.422	10.87
423.628	10.99
423.833	10.92
424.039	10.98
424.245	10.92
424.45	10.9
424.656	10.92
424.862	10.88
425.067	10.76
425.273	10.67
425.478	10.73
425.684	10.52
425.889	10.55
426.095	10.62
426.301	10.52
426.506	10.43
426.712	10.48
426.917	10.71
427.123	10.71
427.328	10.93
427.533	11
427.739	10.97
427.944	11.1
428.15	10.93
428.355	10.91
428.561	11.06
428.766	11.15
428.971	11.06
429.177	10.87
429.382	10.94
429.587	10.86
429.793	10.76
429.998	10.85
430.203	10.72
430.408	10.82
430.614	10.76
430.819	10.49
431.024	10.44
431.229	10.58
431.434	10.54
431.64	10.53
431.845	10.64
432.05	10.79
432.255	10.58
432.46	10.73
432.665	10.54
432.87	10.58
433.076	10.68
433.281	10.89
433.486	10.68
433.691	10.77
433.896	10.68
434.101	10.59
434.306	10.55
434.511	10.61
434.716	10.6
434.921	10.93
435.126	10.94
435.331	10.99
435.535	10.76
435.74	10.81
435.945	10.59
436.15	10.7
436.355	10.82
436.56	10.78
436.765	10.81
436.97	10.76
437.174	10.63
437.379	10.81
437.584	10.94
437.789	10.85
437.993	10.84
438.198	10.97
438.403	10.93
438.608	10.84
438.812	10.72
439.017	10.65
439.222	10.64
439.426	10.55
439.631	10.25
439.836	10.19
440.04	10.2
440.245	10.26
440.45	10.24
440.654	10.2
440.859	10.01
441.063	9.97
441.268	10.02
441.472	9.92
441.677	9.94
441.881	9.88
442.086	9.91
442.29	9.9
442.495	9.87
442.699	9.86
442.904	9.68
443.108	9.96
443.312	10.17
443.517	10.2
443.721	10.23
443.925	10.32
444.13	10.36
444.334	10.03
444.538	10.16
444.743	10.12
444.947	10.04
445.151	10.18
445.356	10
445.56	10.05
445.764	9.96
445.968	10.04
446.173	9.9
446.377	10.07
446.581	10.24
446.785	10.27
446.989	10.39
447.193	10.45
447.398	10.5
447.602	10.54
447.806	10.43
448.01	10.46
448.214	10.42
448.418	10.46
448.622	10.37
448.826	10.41
449.03	10.27
449.234	10.25
449.438	10.24
449.642	10.15
449.846	10.3
450.05	10.23
450.254	10.28
450.458	10.29
450.662	10.39
450.866	10.36
451.069	10.35
451.273	10.35
451.477	10.37
451.681	10.39
451.885	10.35
452.089	10.3
452.292	10.14
452.496	10.06
452.7	10.04
452.904	10.06
453.107	10.11
453.311	9.93
453.515	10
453.719	9.89
453.922	9.96
454.126	10.15
454.33	9.93
454.533	10.14
454.737	10.27
454.94	10.24
455.144	10.24
455.348	10.17
455.551	10.33
455.755	10.26
455.958	10.34
456.162	10.2
456.365	9.97
456.569	10.13
456.772	10.23
456.976	10.28
457.179	10.37
457.383	10.34
457.586	10.49
457.79	10.46
457.993	10.44
458.196	10.23
458.4	10.29
458.603	10.36
458.807	10.27
459.01	10.23
459.213	10.09
459.417	10.14
459.62	10.09
459.823	10.12
460.026	10.1
460.23	10.04
460.433	10.01
460.636	9.97
460.839	10
461.042	9.93
461.246	10.03
461.449	10.11
461.652	10
461.855	10.08
462.058	9.98
462.261	10.14
462.464	10.11
462.668	10.2
462.871	10.45
463.074	10.35
463.277	10.43
463.48	10.42
463.683	10.55
463.886	10.44
464.089	10.5
464.292	10.35
464.495	10.16
464.698	10.32
464.901	10.42
465.104	10.16
465.306	9.95
465.509	9.92
465.712	9.82
465.915	9.9
466.118	10.1
466.321	9.91
466.524	10.04
466.726	10.21
466.929	10.31
467.132	10.17
467.335	10.18
467.538	10.15
467.74	10.15
467.943	10.15
468.146	9.94
468.348	9.94
468.551	9.97
468.754	10.05
468.956	9.95
469.159	9.74
469.362	9.92
469.564	10.07
469.767	10.37
469.969	10.46
470.172	10.55
470.375	10.54
470.577	10.47
470.78	10.57
470.982	10.38
471.185	10.25
471.387	10.22
471.59	10.09
471.792	10
471.995	10.05
472.197	10.1
472.399	9.93
472.602	9.94
472.804	9.92
473.007	9.84
473.209	10.01
473.411	10.22
473.614	10.51
473.816	10.52
474.018	10.42
474.22	10.41
474.423	10.36
474.625	10.36
474.827	10.4
475.03	10.44
475.232	10.39
475.434	10.25
475.636	9.97
475.838	9.89
476.04	9.94
476.243	10.02
476.445	9.98
476.647	9.95
476.849	10.09
477.051	10.02
477.253	10.23
477.455	10.22
477.657	10.35
477.859	10.4
478.061	10.21
478.263	10.11
478.465	9.98
478.667	9.9
478.869	9.85
479.071	9.71
479.273	9.61
479.475	9.45
479.677	9.41
479.879	9.25
480.081	9.19
480.283	9.27
480.485	9.26
480.686	9.56
480.888	9.79
481.09	9.82
481.292	9.75
481.494	9.91
481.695	9.83
481.897	9.86
482.099	9.9
482.301	9.88
482.502	9.88
482.704	9.95
482.906	9.74
483.107	9.51
483.309	9.45
483.511	9.45
483.712	9.39
483.914	9.39
484.115	9.35
484.317	9.36
484.519	9.37
484.72	9.33
484.922	9.3
485.123	9.31
485.325	9.39
485.526	9.46
485.728	9.47
485.929	9.45
486.131	9.42
486.332	9.43
486.534	9.39
486.735	9.39
486.936	9.48
487.138	9.47
487.339	9.48
487.541	9.49
487.742	9.49
487.943	9.54
488.144	9.61
488.346	9.68
488.547	9.72
488.748	9.75
488.95	9.78
489.151	9.82
489.352	9.85
489.553	9.86
489.755	9.87
489.956	9.83
490.157	9.83
490.358	9.77
490.559	9.65
490.76	9.66
490.961	9.56
491.163	9.53
491.364	9.43
491.565	9.43
491.766	9.5
491.967	9.51
492.168	9.55
492.369	9.53
492.57	9.51
492.771	9.63
492.972	9.63
493.173	9.73
493.374	9.86
493.575	10.02
493.776	9.93
493.976	9.93
494.177	9.98
494.378	10.03
494.579	10.19
494.78	10.28
494.981	10.31
495.182	10.3
495.382	10.34
495.583	10.25
495.784	10.1
495.985	10.32
496.185	10.24
496.386	10.17
496.587	10.26
496.788	10.23
496.988	10.1
497.189	10.16
497.39	10.12
497.59	10.12
497.791	9.92
497.992	9.9
498.192	9.86
498.393	9.99
498.593	10.03
498.794	9.87
498.994	9.92
499.195	9.96
499.395	9.96
499.596	10.17
499.796	10.05
499.997	10.28
500.197	10.32
500.398	10.28
500.598	9.97
500.799	10.16
500.999	10.11
501.199	9.87
501.4	10.01
501.6	9.91
501.801	9.71
502.001	9.88
502.201	9.83
502.402	9.79
502.602	9.77
502.802	10.02
503.002	9.79
503.203	9.9
503.403	9.97
503.603	10.02
503.803	10.06
504.003	10.17
504.204	10.14
504.404	10.11
504.604	10.34
504.804	10.64
505.004	10.54
505.204	10.63
505.404	10.72
505.604	10.86
505.804	10.79
506.005	10.72
506.205	10.58
506.405	10.61
506.605	10.66
506.805	10.55
507.005	10.25
507.204	10.38
507.404	10.38
507.604	10.34
507.804	10.4
508.004	10.47
508.204	10.45
508.404	10.53
508.604	10.46
508.804	10.47
509.003	10.51
509.203	10.65
509.403	10.64
509.603	10.64
509.803	10.68
510.002	10.52
510.202	10.6
510.402	10.7
510.602	10.73
510.801	10.76
511.001	10.78
511.201	10.7
511.4	10.62
511.6	10.59
511.8	10.61
511.999	10.67
512.199	10.7
512.398	10.65
512.598	10.63
512.797	10.84
512.997	10.93
513.197	11.08
513.396	11.23
513.596	11.18
513.795	11.24
513.994	11.23
514.194	11.15
514.393	11.08
514.593	11.21
514.792	11.33
514.992	11.27
515.191	11.11
515.39	11.02
515.59	10.86
515.789	11.03
515.988	11.08
516.188	11.16
516.387	11.31
516.586	11.7
516.786	11.55
516.985	11.48
517.184	11.56
517.383	11.66
517.582	11.6
517.782	11.58
517.981	11.56
518.18	11.55
518.379	11.7
518.578	11.61
518.777	11.48
518.976	11.55
519.176	11.62
519.375	11.49
519.574	11.63
519.773	11.72
519.972	11.99
520.171	12.1
520.37	12.11
520.569	12.18
520.768	12.26
520.967	12.32
521.166	12.38
521.365	12.32
521.564	12.46
521.762	12.43
521.961	12.47
522.16	12.37
522.359	12.27
522.558	12.32
522.757	12.11
522.956	12.06
523.154	12.12
523.353	12.15
523.552	12.09
523.751	12.1
523.949	12.11
524.148	12.05
524.347	12.11
524.546	12.25
524.744	12.29
524.943	12.31
525.142	12.31
525.34	12.18
525.539	12.11
525.737	12.29
525.936	12.18
526.135	12.27
526.333	12.39
526.532	12.32
526.73	12.25
526.929	12.28
527.127	12.31
527.326	12.35
527.524	12.46
527.723	12.51
527.921	12.47
528.12	12.56
528.318	12.55
528.516	12.59
528.715	12.63
528.913	12.64
529.112	12.68
529.31	12.7
529.508	12.73
529.707	12.71
529.905	12.78
530.103	12.83
530.301	12.83
530.5	12.84
530.698	12.82
530.896	12.85
531.094	12.95
531.293	12.95
531.491	13.06
531.689	13.11
531.887	13.13
532.085	13.11
532.283	13.07
532.481	13.13
532.68	13.2
532.878	13.26
533.076	13.27
533.274	13.18
533.472	13.17
533.67	13.09
533.868	13.14
534.066	13.2
534.264	13.18
534.462	13.22
534.66	13.27
534.858	13.32
535.056	13.4
535.253	13.38
535.451	13.56
535.649	13.58
535.847	13.78
536.045	13.85
536.243	14.06
536.441	14.21
536.638	14.29
536.836	14.23
537.034	14.27
537.232	14.19
537.43	14.23
537.627	14.24
537.825	14.4
538.023	14.43
538.22	14.51
538.418	14.33
538.616	14.39
538.813	14.36
539.011	14.46
539.209	14.47
539.406	14.54
539.604	14.82
539.801	14.94
539.999	14.9
540.196	14.81
540.394	14.81
540.591	14.97
540.789	15.01
540.986	15.07
541.184	15.19
541.381	15.24
541.579	15.25
541.776	15.19
541.974	15.24
542.171	15.29
542.368	15.42
542.566	15.42
542.763	15.43
542.96	15.49
543.158	15.62
543.355	15.6
543.552	15.69
543.75	15.83
543.947	15.99
544.144	16.04
544.341	16.14
544.539	16.15
544.736	16.31
544.933	16.28
545.13	16.34
545.327	16.4
545.524	16.43
545.722	16.32
545.919	16.34
546.116	16.27
546.313	16.22
546.51	16.22
546.707	16.18
546.904	16.25
547.101	16.27
547.298	16.27
547.495	16.26
547.692	16.31
547.889	16.32
548.086	16.34
548.283	16.63
548.48	16.8
548.677	16.79
548.874	16.96
549.07	16.98
549.267	17.12
549.464	17.23
549.661	17.48
549.858	17.71
550.055	18.11
550.251	18.23
550.448	18.07
550.645	18.03
550.842	18.28
551.038	18.27
551.235	18.27
551.432	18.45
551.628	18.46
551.825	18.34
552.022	18.23
552.218	18.17
552.415	18.22
552.612	18.29
552.808	18.36
553.005	18.33
553.201	18.36
553.398	18.51
553.594	18.6
553.791	18.8
553.987	18.91
554.184	19.06
554.38	18.99
554.577	19.06
554.773	19.36
554.97	19.47
555.166	19.82
555.362	19.94
555.559	20.03
555.755	20.04
555.952	19.88
556.148	20.09
556.344	20.15
556.541	20.41
556.737	20.29
556.933	20.2
557.129	20.11
557.326	19.99
557.522	20.15
557.718	20.29
557.914	20.44
558.11	20.53
558.307	20.31
558.503	20.33
558.699	20.55
558.895	20.76
559.091	20.76
559.287	21.14
559.483	21.19
559.679	21.38
559.876	21.33
560.072	21.28
560.268	21.5
560.464	21.58
560.66	21.65
560.856	21.75
561.052	21.84
561.247	21.8
561.443	21.88
561.639	21.96
561.835	22.07
562.031	22.13
562.227	22.24
562.423	22.38
562.619	22.67
562.815	22.81
563.01	22.97
563.206	22.96
563.402	23.3
563.598	23.23
563.793	23.38
563.989	23.36
564.185	23.55
564.381	23.49
564.576	23.59
564.772	23.49
564.968	23.52
565.163	23.39
565.359	23.45
565.555	23.45
565.75	23.61
565.946	23.39
566.141	23.45
566.337	23.33
566.532	23.59
566.728	23.55
566.923	23.59
567.119	23.79
567.314	23.92
567.51	23.86
567.705	23.84
567.901	23.84
568.096	24.08
568.292	24.26
568.487	24.45
568.682	24.46
568.878	24.67
569.073	24.86
569.268	24.7
569.464	25
569.659	25.44
569.854	25.5
570.05	25.45
570.245	25.65
570.44	25.69
570.635	25.75
570.831	25.75
571.026	25.74
571.221	25.96
571.416	25.95
571.611	25.76
571.806	25.57
572.002	25.64
572.197	25.71
572.392	25.61
572.587	25.63
572.782	25.65
572.977	25.75
573.172	25.73
573.367	25.58
573.562	25.88
573.757	25.97
573.952	25.88
574.147	25.92
574.342	26.12
574.537	26.14
574.732	26.05
574.927	26.18
575.121	26.18
575.316	26.47
575.511	26.76
575.706	26.79
575.901	26.74
576.096	27.19
576.29	27.33
576.485	27.45
576.68	27.76
576.875	27.74
577.069	27.77
577.264	27.91
577.459	27.77
577.654	27.66
577.848	27.65
578.043	27.9
578.238	27.83
578.432	27.79
578.627	27.72
578.821	27.69
579.016	27.98
579.21	28.16
579.405	28.33
579.6	28.34
579.794	28.62
579.989	28.6
580.183	28.98
580.378	28.9
580.572	29.47
580.766	29.47
580.961	29.25
581.155	29.24
581.35	29.18
581.544	28.76
581.738	29.2
581.933	28.94
582.127	29.09
582.321	28.75
582.516	29.05
582.71	28.77
582.904	28.91
583.099	29.36
583.293	29.44
583.487	29.47
583.681	30.19
583.875	29.86
584.07	30.24
584.264	30.41
584.458	30.58
584.652	30.47
584.846	30.58
585.04	30.6
585.234	30.74
585.428	30.72
585.623	30.86
585.817	30.37
586.011	30.38
586.205	30.18
586.399	30.33
586.593	30.36
586.787	30.57
586.981	30.38
587.174	30.46
587.368	30.23
587.562	30.58
587.756	30.74
587.95	31.03
588.144	31.23
588.338	31.42
588.532	31.28
588.725	31.24
588.919	31.3
589.113	31.36
589.307	31.67
589.501	31.77
589.694	31.82
589.888	31.65
590.082	31.59
590.275	31.71
590.469	31.85
590.663	31.98
590.856	31.92
591.05	32.04
591.244	32.11
591.437	32.28
591.631	32.22
591.824	31.91
592.018	32.23
592.212	32.46
592.405	32.37
592.599	32.51
592.792	32.24
592.986	32.29
593.179	32.14
593.372	32.24
593.566	31.98
593.759	32.24
593.953	32.58
594.146	32.4
594.339	32.2
594.533	32.25
594.726	31.99
594.92	32.13
595.113	32.23
595.306	32.29
595.499	32.25
595.693	32.49
595.886	32.54
596.079	32.55
596.272	32.76
596.466	32.83
596.659	32.8
596.852	32.89
597.045	33.01
597.238	33
597.431	33.19
597.624	33.23
597.818	33.02
598.011	32.97
598.204	32.86
598.397	32.66
598.59	32.84
598.783	33.09
598.976	33.19
599.169	33.2
599.362	33.33
599.555	33.1
599.748	33.33
599.941	33.5
600.134	33.53
600.326	33.7
600.519	34.06
600.712	34.16
600.905	34.09
601.098	34.23
601.291	34.27
601.483	34.41
601.676	34.53
601.869	34.48
602.062	34.26
602.255	34.39
602.447	34.17
602.64	33.93
602.833	33.75
603.025	33.93
603.218	33.67
603.411	33.68
603.603	33.52
603.796	33.56
603.989	33.27
604.181	33.56
604.374	33.58
604.566	33.92
604.759	33.98
604.951	34.05
605.144	33.78
605.336	34.04
605.529	34.25
605.721	34.3
605.914	34.44
606.106	34.73
606.299	34.7
606.491	34.68
606.683	34.69
606.876	34.55
607.068	34.82
607.26	34.88
607.453	34.64
607.645	34.41
607.837	34.57
608.03	34.31
608.222	34.27
608.414	34.23
608.606	34.16
608.799	34.39
608.991	34.83
609.183	34.89
609.375	35.15
609.567	35.29
609.759	35.75
609.952	35.87
610.144	36.2
610.336	36.63
610.528	37.14
610.72	37.56
610.912	37.67
611.104	37.95
611.296	38.03
611.488	38.4
611.68	38.82
611.872	38.71
612.064	39.06
612.256	39.12
612.448	39.25
612.64	38.88
612.832	38.75
613.023	38.71
613.215	38.49
613.407	37.99
613.599	37.54
613.791	37.42
613.983	37.22
614.174	37.02
614.366	36.92
614.558	36.66
614.75	36.96
614.941	36.76
615.133	36.48
615.325	36.61
615.516	37.07
615.708	37.03
615.9	37.01
616.091	37.15
616.283	36.81
616.475	36.76
616.666	36.53
616.858	36.43
617.049	36.21
617.241	36.22
617.432	35.78
617.624	35.99
617.815	35.97
618.007	35.85
618.198	35.51
618.39	35.72
618.581	35.74
618.773	35.62
618.964	35.49
619.155	35.76
619.347	35.55
619.538	35.71
619.729	35.72
619.921	35.8
620.112	35.81
620.303	35.97
620.494	35.96
620.686	36.24
620.877	36.48
621.068	36.09
621.259	36.17
621.451	36.38
621.642	36.3
621.833	36.05
622.024	36.03
622.215	35.71
622.406	35.78
622.597	35.7
622.788	35.39
622.98	35.41
623.171	35.8
623.362	35.9
623.553	35.99
623.744	35.98
623.935	35.97
624.126	35.95
624.317	36.56
624.508	36.37
624.698	36.31
624.889	36.11
625.08	36.44
625.271	36.67
625.462	36.54
625.653	36.22
625.844	36.16
626.034	35.98
626.225	36.08
626.416	35.54
626.607	35.96
626.798	36.16
626.988	36.36
627.179	36.04
627.37	35.55
627.56	35.73
627.751	36.18
627.942	36.38
628.132	36.54
628.323	36.46
628.514	36.84
628.704	36.72
628.895	36.58
629.085	36.59
629.276	36.71
629.466	37.23
629.657	37.2
629.847	37.03
630.038	37.35
630.228	37.86
630.419	38.15
630.609	38.42
630.8	38.06
630.99	38.37
631.181	38.68
631.371	38.69
631.561	38.43
631.752	38.2
631.942	38.4
632.132	38.08
632.323	37.72
632.513	37.8
632.703	37.42
632.893	37.91
633.084	37.66
633.274	37.53
633.464	37.46
633.654	37.69
633.844	37.71
634.034	37.65
634.225	37.43
634.415	37.42
634.605	37.5
634.795	37.38
634.985	37.45
635.175	37.84
635.365	37.96
635.555	38.14
635.745	37.9
635.935	38.3
636.125	37.9
636.315	38.34
636.505	38.14
636.695	37.86
636.885	37.79
637.075	37.94
637.265	37.46
637.455	37.43
637.644	37.26
637.834	37.47
638.024	37.08
638.214	37.54
638.404	37.42
638.593	37.42
638.783	37.33
638.973	37.47
639.163	37.15
639.352	36.99
639.542	36.82
639.732	37.2
639.921	37.35
640.111	37.68
640.301	37.55
640.49	37.38
640.68	37.75
640.87	37.71
641.059	37.96
641.249	38.11
641.438	38.07
641.628	38.08
641.817	38.18
642.007	38.13
642.196	38.19
642.386	38.12
642.575	38.4
642.764	37.96
642.954	38.29
643.143	38.39
643.333	38.29
643.522	38.95
643.711	38.67
643.901	38.63
644.09	38.13
644.279	38.16
644.469	38.16
644.658	38.09
644.847	38.41
645.036	38.53
645.226	38.26
645.415	38.36
645.604	38.15
645.793	38.32
645.982	37.62
646.171	37.93
646.361	37.44
646.55	37.84
646.739	37.89
646.928	38.12
647.117	37.99
647.306	38.28
647.495	37.96
647.684	38.06
647.873	38.15
648.062	38.41
648.251	38.38
648.44	38.66
648.629	38.21
648.818	38.03
649.007	37.75
649.196	37.81
649.384	37.79
649.573	37.89
649.762	37.75
649.951	37.82
650.14	37.93
650.328	37.9
650.517	38.01
650.706	38.36
650.895	38.53
651.083	39.09
651.272	39.36
651.461	39.34
651.65	39.17
651.838	39.12
652.027	39.21
652.216	39.62
652.404	39.75
652.593	39.6
652.781	39.34
652.97	39.58
653.158	38.75
653.347	38.64
653.535	38.47
653.724	38.48
653.912	39.04
654.101	38.7
654.289	38.38
654.478	38.7
654.666	38.64
654.855	38.9
655.043	38.56
655.231	39.1
655.42	39.35
655.608	39.94
655.796	40.48
655.985	40.27
656.173	40.23
656.361	40.37
656.55	39.84
656.738	40.36
656.926	40.21
657.114	40.12
657.302	40.27
657.491	39.68
657.679	39.47
657.867	39.42
658.055	39.31
658.243	39.62
658.431	39.4
658.619	39.76
658.807	39.62
658.996	39.67
659.184	39.83
659.372	39.31
659.56	39.35
659.748	38.98
659.936	39.17
660.124	39.1
660.311	38.97
660.499	39.18
660.687	39.03
660.875	39.03
661.063	39.19
661.251	39.12
661.439	39.62
661.627	39.93
661.814	40.26
662.002	39.76
662.19	39.96
662.378	40.02
662.565	40.37
662.753	40.8
662.941	40.48
663.129	39.9
663.316	40.13
663.504	39.98
663.692	39.48
663.879	39.27
664.067	39.22
664.254	38.85
664.442	39.32
664.63	39.03
664.817	38.81
665.005	39.27
665.192	39.7
665.38	39.81
665.567	39.65
665.755	40.23
665.942	40.33
666.13	40.84
666.317	41.01
666.504	40.59
666.692	40.72
666.879	40.39
667.067	40.59
667.254	40.75
667.441	40.5
667.629	40.71
667.816	40.05
668.003	40.24
668.19	39.92
668.378	40.36
668.565	40.61
668.752	40.33
668.939	40.58
669.127	40.69
669.314	40.44
669.501	40.83
669.688	40.77
669.875	41.26
670.062	41.67
670.249	41.78
670.436	41.57
670.623	41.54
670.81	41.54
670.997	41.48
671.184	40.73
671.371	41.02
671.558	40.49
671.745	40.12
671.932	40.09
672.119	39.21
672.306	39.63
672.493	39.21
672.68	39.21
672.867	39.91
673.054	40.06
673.24	39.99
673.427	39.47
673.614	39.46
673.801	40.12
673.988	40.04
674.174	40.38
674.361	40.21
674.548	40.19
674.734	40.51
674.921	39.51
675.108	39.56
675.294	40.04
675.481	40.17
675.668	40.23
675.854	40.08
676.041	40.25
676.227	40.3
676.414	40.49
676.601	40.91
676.787	40.37
676.974	40.58
677.16	40.51
677.347	40.6
677.533	40.81
677.719	41.01
677.906	40.99
678.092	41.45
678.279	41.41
678.465	41.34
678.651	41.53
678.838	42.11
679.024	42.29
679.21	41.47
679.397	40.89
679.583	40.98
679.769	40.59
679.955	40.14
680.142	39.23
680.328	39.58
680.514	39.21
680.7	38.97
680.886	38.56
681.073	38.38
681.259	38.99
681.445	39.4
681.631	39.29
681.817	39.61
682.003	40.22
682.189	40.59
682.375	40.23
682.561	40.46
682.747	39.93
682.933	40.14
683.119	39.77
683.305	39.55
683.491	39.74
683.677	40.33
683.863	40.38
684.049	40.44
684.235	40.99
684.42	41.01
684.606	41.09
684.792	42.08
684.978	42.18
685.164	42.51
685.349	43.37
685.535	43.32
685.721	42.43
685.907	42.47
686.092	41.56
686.278	41.3
686.464	41.52
686.649	41.66
686.835	41.31
687.021	41.42
687.206	41.96
687.392	41.01
687.577	40.61
687.763	40.96
687.948	40.81
688.134	41.54
688.319	41.52
688.505	41.61
688.69	41.44
688.876	41.46
689.061	41.17
689.247	40.94
689.432	41.28
689.618	41.33
689.803	41.4
689.988	41.46
690.174	41.68
690.359	41.26
690.544	40.89
690.73	41.06
690.915	41.16
691.1	41.01
691.285	41.73
691.471	41.58
691.656	41.73
691.841	41.68
692.026	41.73
692.211	41.44
692.396	41.68
692.582	42.67
692.767	42.44
692.952	42.27
693.137	42.16
693.322	41.55
693.507	41.66
693.692	41.87
693.877	42.2
694.062	42.49
694.247	42.92
694.432	43.07
694.617	42.45
694.802	42.49
694.987	42.84
695.172	43.34
695.357	43.12
695.541	42.93
695.726	43
695.911	42.73
696.096	42.44
696.281	41.92
696.466	41.71
696.65	42.25
696.835	42.24
697.02	41.54
697.204	41.84
697.389	41.43
697.574	41.67
697.759	41.72
697.943	41.9
698.128	41.8
698.312	42.19
698.497	41.72
698.682	40.97
698.866	41.17
699.051	41.47
699.235	40.86
699.42	41.28
699.604	41.32
699.789	41.18
699.973	41.06
700.158	40.91
700.342	40.16
700.527	40.64
700.711	40.76
700.895	40.66
701.08	40.57
701.264	41.31
701.448	40.53
701.633	40.62
701.817	40.82
702.001	40.78
702.186	41.49
702.37	41.68
702.554	42.19
702.738	42.98
702.923	42.47
703.107	42.55
703.291	42.42
703.475	43.74
703.659	43.56
703.843	43.32
704.027	43.82
704.212	43.08
704.396	44.8
704.58	44.76
704.764	43.58
704.948	44.09
705.132	44.14
705.316	44.31
705.5	44.42
705.684	44.6
705.868	44.71
706.052	44.81
706.235	45.39
706.419	44.2
706.603	43.8
706.787	44.36
706.971	43.98
707.155	43.99
707.339	43.4
707.522	42.86
707.706	42.72
707.89	42.62
708.074	42.6
708.257	42.15
708.441	42.68
708.625	42.87
708.808	42.93
708.992	43.34
709.176	43.34
709.359	43.26
709.543	43.04
709.727	43.33
709.91	43.84
710.094	43.48
710.277	44.11
710.461	43.97
710.644	43.94
710.828	44.48
711.011	43.62
711.195	43.93
711.378	44.16
711.562	43.81
711.745	43.53
711.928	42.83
712.112	42.66
712.295	42.08
712.478	42.2
712.662	42.35
712.845	41.79
713.028	42.31
713.212	41.99
713.395	41.26
713.578	42.12
713.761	42.52
713.945	42.96
714.128	43.83
714.311	44.48
714.494	43.84
714.677	43.27
714.86	43.15
715.043	43.54
715.227	43.39
715.41	44.34
715.593	44.17
715.776	43.6
715.959	43.12
716.142	42.58
716.325	42.19
716.508	42.97
716.691	43.39
716.874	43.53
717.057	43.4
717.239	43.92
717.422	43.17
717.605	42.67
717.788	42.18
717.971	43.29
718.154	43.51
718.337	44.13
718.519	43.33
718.702	43.75
718.885	43.53
719.068	43.29
719.25	43.49
719.433	43.79
719.616	44.62
719.798	45.97
719.981	45.93
720.164	45.38
720.346	45.02
720.529	46.1
720.712	45.92
720.894	46.88
721.077	46.72
721.259	46.82
721.442	47.95
721.624	47.49
721.807	47.15
721.989	46.28
722.172	46.23
722.354	46.75
722.537	46.65
722.719	46.13
722.901	46.25
723.084	46.11
723.266	45.23
723.448	45.05
723.631	44.71
723.813	44.67
723.995	45.01
724.178	45.37
724.36	44.46
724.542	43.48
724.724	44.02
724.907	43.95
725.089	45.12
725.271	45.5
725.453	45.13
725.635	45.26
725.817	45.31
725.999	45.43
726.181	45.16
726.364	45.78
726.546	45.68
726.728	45.31
726.91	44.49
727.092	43.65
727.274	44.28
727.456	43.84
727.638	43.88
727.819	44.01
728.001	43.31
728.183	43.17
728.365	43.8
728.547	44.51
728.729	45.32
728.911	46.28
729.093	46.76
729.274	45.01
729.456	45.16
729.638	45.73
729.82	45.82
730.001	45.78
730.183	46.31
730.365	44.31
730.546	43.43
730.728	43.01
730.91	42.38
731.091	42.19
731.273	43.28
731.455	43.75
731.636	43.97
731.818	44.49
731.999	43.97
732.181	44.04
732.362	44.58
732.544	45.53
732.725	44.62
732.907	45.09
733.088	44.74
733.27	45.44
733.451	45.05
733.633	45.2
733.814	44.51
733.995	45.79
734.177	45.85
734.358	46.45
734.539	46.04
734.721	47.13
734.902	46.34
735.083	47.29
735.264	46.68
735.446	46.75
735.627	45.91
735.808	46.18
735.989	45.86
736.17	45.47
736.351	45.75
736.533	46.07
736.714	45.29
736.895	45.19
737.076	44.52
737.257	44.82
737.438	44.99
737.619	45.6
737.8	45
737.981	45.53
738.162	46.23
738.343	46.04
738.524	45.75
738.705	46.79
738.886	47.09
739.067	47.77
739.247	47.77
739.428	47.27
739.609	46.44
739.79	47.54
739.971	47.54
740.151	46.27
740.332	45.83
740.513	45.86
740.694	44.7
740.874	43.99
741.055	43.27
741.236	42.59
741.417	42.67
741.597	42.91
741.778	42.71
741.958	42.1
742.139	42.63
742.32	41.88
742.5	42.77
742.681	44.06
742.861	44.79
743.042	44.68
743.222	44.43
743.403	44.44
743.583	45.26
743.764	45.26
743.944	44.84
744.124	45.54
744.305	47.11
744.485	45.33
744.666	44.69
744.846	45.56
745.026	46.76
745.207	48.14
745.387	48.45
745.567	46.97
745.747	46.18
745.928	45.64
746.108	44.91
746.288	43.64
746.468	44.65
746.648	45.11
746.829	44.43
747.009	43.46
747.189	42.39
747.369	41.52
747.549	41.69
747.729	41.76
747.909	42.78
748.089	42.55
748.269	43.75
748.449	43.5
748.629	43.65
748.809	42.98
748.989	43.91
749.169	44.16
749.349	45.08
749.529	45.98
749.709	45.81
749.889	45.8
750.068	45.9
750.248	46.3
750.428	46.94
750.608	45.69
750.788	46.47
750.967	46.08
751.147	46.07
751.327	46.11
751.507	45.65
751.686	46.21
751.866	47.61
752.046	47.88
752.225	47.57
752.405	46.55
752.585	46.11
752.764	46.5
752.944	45.18
753.123	45.42
753.303	45.08
753.482	45.19
753.662	45.05
753.841	43.45
754.021	43.37
754.2	42.96
754.38	43.46
754.559	44.41
754.739	43.85
754.918	45.94
755.097	45.43
755.277	44.56
755.456	44.48
755.635	44.82
755.815	45.32
755.994	46.07
756.173	45.57
756.352	45
756.532	45.16
756.711	44.73
756.89	43.85
757.069	44.7
757.248	45.11
757.427	44.54
757.607	44.33
757.786	44.11
757.965	43.17
758.144	43.17
758.323	44.63
758.502	45.03
758.681	45.18
758.86	43.98
759.039	42.55
759.218	42.7
759.397	43.53
759.576	42.57
759.755	42.26
759.934	41.47
760.113	42.45
760.291	41.82
760.47	41.8
760.649	41.09
760.828	41.68
761.007	41.81
761.186	42.27
761.364	41.78
761.543	42.45
761.722	43.43
761.901	43.89
762.079	43.42
762.258	42.87
762.437	42.18
762.615	43.21
762.794	43.35
762.972	44.16
763.151	43.61
763.33	43.61
763.508	44.16
763.687	43.8
763.865	44.67
764.044	44.34
764.222	43.79
764.401	43.33
764.579	43.71
764.758	43.66
764.936	43.36
765.114	43.63
765.293	44.17
765.471	44.02
765.65	43.62
765.828	43.24
766.006	43.67
766.184	44.19
766.363	44.41
766.541	43.82
766.719	43.14
766.898	43.83
767.076	44.14
767.254	44.39
767.432	44.73
767.61	45.15
767.788	45.45
767.967	45
768.145	44.93
768.323	46.11
768.501	45.65
768.679	47.75
768.857	47.92
769.035	49.46
769.213	48.67
769.391	47.65
769.569	47.47
769.747	47.34
769.925	47.13
770.103	47.44
770.281	45.27
770.459	45.74
770.636	44.48
770.814	45.13
770.992	43.8
771.17	45.13
771.348	45.38
771.525	46.42
771.703	46.74
771.881	47.15
772.059	48.74
772.236	48.14
772.414	48.38
772.592	47.4
772.769	45.82
772.947	43.94
773.125	41.77
773.302	42.71
773.48	41.85
773.657	42.1
773.835	41.84
774.013	42.85
774.19	44.99
774.368	44.57
774.545	45.64
774.723	45.85
774.9	47.18
775.077	46.48
775.255	44.51
775.432	43.45
775.61	43.64
775.787	45.47
775.964	44.14
776.142	44.72
776.319	45.08
776.496	45.45
776.674	46.04
776.851	47.2
777.028	48.29
777.205	50.3
777.382	51.41
777.56	51.63
777.737	53.14
777.914	53.22
778.091	54.72
778.268	54.63
778.445	55.28
778.622	56.31
778.8	53.91
778.977	55.82
779.154	53.56
779.331	53.02
779.508	51.91
779.685	50.06
779.862	49.28
780.038	47.53
780.215	49.85
780.392	49.45
780.569	49.25
780.746	50.22
780.923	48.59
781.1	46.95
781.277	46.61
781.453	46.53
781.63	44.86
781.807	45.73
781.984	45.37
782.16	45.61
782.337	45.69
782.514	44.51
782.691	45.73
782.867	46.97
783.044	50.74
783.221	51.95
783.397	51.71
783.574	52.41
783.75	49.98
783.927	52.46
784.103	50.3
784.28	49.46
784.456	50.09
784.633	49.18
784.809	49.51
784.986	46
785.162	46.24
785.339	46.21
785.515	45.94
785.692	48.63
785.868	47.54
786.044	46.84
786.221	47.63
786.397	48.1
786.573	47.12
786.749	47.57
786.926	49.12
787.102	47.95
787.278	47.7
787.454	48.27
787.631	46.9
787.807	45.74
787.983	47.19
788.159	47.63
788.335	47.71
788.511	48.79
788.687	46.3
788.863	48.52
789.039	50.11
789.216	49.39
789.392	48.73
789.568	48.98
789.744	50.68
789.919	49.56
790.095	49.47
790.271	48.83
790.447	50.03
790.623	52.21
790.799	50.16
790.975	47.47
791.151	50.84
791.327	50.29
791.502	49.06
791.678	47.45
791.854	50.47
792.03	49.11
792.205	50.56
792.381	48.14
792.557	45.21
792.733	43.46
792.908	46.42
793.084	46.81
793.259	43.4
793.435	43.1
793.611	45.65
793.786	41.66
793.962	41.98
794.137	40.47
794.313	41.4
794.488	43.76
794.664	46.19
794.839	45.76
795.015	45.28
795.19	48.12
795.366	50.44
795.541	49.43
795.716	48.38
795.892	47.12
796.067	46.35
796.242	47.84
796.418	49.55
796.593	49.24
796.768	47.56
796.944	46.42
797.119	47.76
797.294	48.58
797.469	49.41
797.644	50.41
797.82	53.19
797.995	54.52
798.17	53.9
798.345	51.63
798.52	50.57
798.695	52.45
798.87	50.23
799.045	52.14
799.22	53.49
799.395	54.51
799.57	55.88
799.745	56.78
799.92	55.66
800.095	57
800.27	56.73
800.445	56.13
800.62	54.14
800.795	57.52
800.97	57.36
801.145	54.66
801.319	50.5
801.494	50.61
801.669	51.86
801.844	51.45
802.018	48.68
802.193	49.47
802.368	51.41
802.543	55.2
802.717	55.07
802.892	56.46
803.067	59.28
803.241	61.52
803.416	58.69
803.59	59.47
803.765	60.43
803.94	63.21
804.114	64.12
804.289	65.07
804.463	64.32
804.638	60.01
804.812	56.96
804.986	53.42
805.161	52.83
805.335	55.52
805.51	52.36
805.684	51.71
805.858	51.09
806.033	49.85
806.207	49.57
806.381	47.67
806.556	48.88
806.73	51.2
806.904	52.3
807.078	51.63
807.253	50.35
807.427	51.66
807.601	50.87
807.775	50.81
807.949	51.72
808.123	51.18
808.298	54.1
808.472	54.5
808.646	51.82
808.82	51.75
808.994	50.25
809.168	51.09
809.342	49.34
809.516	50.52
809.69	48.21
809.864	45.51
810.038	44.88
810.212	41.27
810.385	40.43
810.559	40.73
810.733	40.02
810.907	41.33
811.081	40.82
811.255	43.37
811.428	42.88
811.602	44.22
811.776	46.75
811.95	46.22
812.123	46.15
812.297	48.19
812.471	50.72
812.644	48.38
812.818	51.73
812.992	54.22
813.165	52.6
813.339	53.96
813.512	54.01
813.686	54
813.86	54.76
814.033	54.82
814.207	55.36
814.38	55.66
814.554	59.91
814.727	60.25
814.9	59.94
815.074	58.93
815.247	56.26
815.421	55.86
815.594	55.73
815.767	56.15
815.941	54.68
816.114	56.36
816.287	55.35
816.46	54.99
816.634	49.39
816.807	48.35
816.98	49.28
817.153	53.42
817.327	54.99
817.5	55
817.673	56.74
817.846	59.72
818.019	58.05
818.192	60.08
818.365	58.63
818.538	63.39
818.711	62.89
818.884	59.96
819.057	57.71
819.23	54.95
819.403	56.01
819.576	55.44
819.749	55.6
819.922	54.55
820.095	54.48
820.268	53.18
820.441	50.96
820.614	50.14
820.786	50.39
820.959	51.88
821.132	51.11
821.305	48.26
821.477	46.99
821.65	45.08
821.823	45.19
821.996	43.7
822.168	44.44
822.341	43.83
822.514	43.84
822.686	43.96
822.859	42.94
823.031	42.58
823.204	42.99
823.376	43.16
823.549	43.61
823.722	43.44
823.894	43.55
824.067	43.3
824.239	43.63
824.411	42.98
824.584	43.67
824.756	43.4
824.929	43.48
825.101	43.67
825.273	43.83
825.446	43.71
825.618	43.34
825.79	43.46
825.963	43.71
826.135	43.6
826.307	44.32
826.479	43.77
826.652	44.02
826.824	44.88
826.996	44.09
827.168	44.39
827.34	44.39
827.512	45.88
827.684	46.01
827.856	45.36
828.029	45.59
828.201	44.67
828.373	44.43
828.545	43.97
828.717	44.82
828.889	44.78
829.061	45.8
829.232	45.85
829.404	45.56
829.576	44.78
829.748	45.44
829.92	47.69
830.092	49.73
830.264	50.14
830.436	50.64
830.607	50.24
830.779	51.27
830.951	50.19
831.123	50.75
831.294	50.92
831.466	52.02
831.638	51.21
831.809	46.9
831.981	46.94
832.153	47.08
832.324	50.28
832.496	50.1
832.667	50.36
832.839	52.9
833.011	52.41
833.182	49.83
833.354	48.62
833.525	49.93
833.697	51.34
833.868	48.72
834.039	49.07
834.211	46.74
834.382	46.73
834.554	47.09
834.725	45.02
834.896	42.62
835.068	43.27
835.239	44.08
835.41	45.04
835.581	45.09
835.753	46.33
835.924	46.83
836.095	48.29
836.266	47.13
836.438	47.01
836.609	47.32
836.78	49.24
836.951	50.5
837.122	50.47
837.293	50.01
837.464	47.35
837.635	51.42
837.806	49.01
837.977	46.45
838.148	50.18
838.319	50.64
838.49	51.97
838.661	55.21
838.832	59.12
839.003	60.06
839.174	59.13
839.345	67.44
839.516	60.87
839.687	66.53
839.857	66.64
840.028	64.25
840.199	62.29
840.37	61.61
840.54	62.3
840.711	57.68
840.882	56.17
841.053	55.39
841.223	54.05
841.394	60.57
841.564	62.21
841.735	71.77
841.906	71.88
842.076	71.2
842.247	65.08
842.417	62.27
842.588	64.1
842.758	68.39
842.929	69.68
843.099	67.57
843.27	61.5
843.44	61.44
843.611	61
843.781	63.76
843.951	63.21
844.122	70.18
844.292	64.56
844.462	65.16
844.633	66.42
844.803	64.37
844.973	64.04
845.144	65.9
845.314	58.84
845.484	61.6
845.654	61.38
845.824	64.71
845.995	61.45
846.165	66.22
846.335	62.22
846.505	57.1
846.675	62.22
846.845	63.27
847.015	72.5
847.185	80.98
847.355	65.66
847.525	61.92
847.695	73.71
847.865	77.21
848.035	87.97
848.205	78.64
848.375	91.54
848.545	88.7
848.715	89.92
848.884	75.4
849.054	72.72
849.224	73.52
849.394	71.47
849.564	65.65
849.733	67.58
849.903	63.36
850.073	69.6
850.243	69
850.412	74.49
850.582	75.71
850.752	80.58
850.921	74.08
851.091	77.68
851.26	81.85
851.43	77.92
851.599	81.02
851.769	74.69
851.939	74.85
852.108	62.92
852.278	65.22
852.447	64.85
852.616	61.8
852.786	62.13
852.955	63.4
853.125	62.54
853.294	61.17
853.463	57.51
853.633	59.43
853.802	77.28
853.971	89.53
854.141	89.53
854.31	91.8
854.479	90.23
854.648	126.01
854.818	107.11
854.987	108.85
855.156	114.38
855.325	120.94
855.494	129.95
855.663	107.93
855.832	105.6
856.001	97.83
856.171	78.16
856.34	89.6
856.509	84.72
856.678	96.61
856.847	93.4
857.016	88.7
857.185	85.7
857.353	82.92
857.522	80.98
857.691	59.95
857.86	69
858.029	90.06
858.198	83.59
858.367	78.45
858.535	71.03
858.704	87.55
858.873	94.31
859.042	91.76
859.21	91.06
859.379	92.31
859.548	104.61
859.717	109.93
859.885	110.35
860.054	105.83
860.222	90.57
860.391	92.49
860.56	90.36
860.728	92.45
860.897	86.22
861.065	86.59
861.234	89
861.402	91.87
861.571	74.28
861.739	66.98
861.908	73.21
862.076	86.9
862.244	84.14
862.413	79.62
862.581	76.42
862.749	82.83
862.918	75.6
863.086	74.78
863.254	75.16
863.423	77.93
863.591	74.03
863.759	66.89
863.927	47.44
864.096	51.99
864.264	47.53
864.432	54.4
864.6	57.94
864.768	65.93
864.936	54.22
865.104	51.74
865.272	60.42
865.44	66.12
865.608	69.44
865.776	82.34
865.944	83.33
866.112	83.79
866.28	80.48
866.448	65.19
866.616	70.13
866.784	79.99
866.952	76.03
867.12	90.57
867.288	81.26
867.455	87.72
867.623	73.27
867.791	84.68
867.959	94.1
868.127	92.81
868.294	98.34
868.462	84.63
868.63	94.76
868.797	105.92
868.965	78.92
869.133	75.01
869.3	61.36
869.468	87.98
869.636	71.79
869.803	70.42
869.971	65.18
870.138	64.71
870.306	59.68
870.473	57.16
870.641	51.39
870.808	54.59
870.975	52.49
871.143	59.1
871.31	48.99
871.478	43.53
871.645	38.54
871.812	52.2
871.98	64.55
872.147	67.06
872.314	63
872.482	54.9
872.649	59.23
872.816	69.39
872.983	71.79
873.15	69.44
873.318	75.49
873.485	96.19
873.652	90.2
873.819	84.18
873.986	98
874.153	108.28
874.32	134.64
874.487	136.05
874.654	142.37
874.821	149.08
874.988	160.48
875.155	166.8
875.322	110.24
875.489	114.34
875.656	98.59
875.823	82.37
875.99	67.48
876.157	51.31
876.324	57.14
876.49	57.95
876.657	61.89
876.824	69.04
876.991	76.84
877.157	83.54
877.324	81.35
877.491	88.8
877.658	87.74
877.824	92.93
877.991	99.93
878.157	101.18
878.324	104.93
878.491	102.48
878.657	93.39
878.824	83.63
878.99	82.57
879.157	84.13
879.323	85.77
879.49	89.63
879.656	83.87
879.823	84.71
879.989	85.53
880.156	84.27
880.322	80.39
880.488	78.63
880.655	85.16
880.821	85.21
880.987	79.52
881.154	75.05
881.32	73.46
881.486	70.48
881.652	68.87
881.819	65.22
881.985	63.22
882.151	61.09
882.317	57.96
882.483	58.33
882.649	58.22
882.816	56.97
882.982	55.6
883.148	53.63
883.314	51.61
883.48	50.21
883.646	48.97
883.812	48.6
883.978	48.45
884.144	48.25
884.31	48.45
884.476	46.22
884.642	46.85
884.807	45.24
884.973	44.71
885.139	46.81
885.305	48
885.471	47.26
885.637	48.93
885.802	49.88
885.968	54.08
886.134	53.93
886.3	56.31
886.465	56.15
886.631	58.68
886.797	63.73
886.962	61.86
887.128	60.03
887.293	65.21
887.459	59.71
887.625	59.59
887.79	56.88
887.956	50.38
888.121	49.69
888.287	50.2
888.452	51.74
888.618	42.43
888.783	48.58
