Data from CB_067_Reflection_3.txt Node
Date: Sat Nov 14 10:49:33 EST 2015
User: robert
Spectrometer: USB4E03001
Autoset integration time: false
Trigger mode: 4
Integration Time (sec): 1.000000E-1
Scans to average: 15
Electric dark correction enabled: true
Nonlinearity correction enabled: false
Boxcar width: 5
Stray light correction enabled: false
XAxis mode: Wavelengths
Stop averaging: false
Number of Pixels in Spectrum: 3648
>>>>>Begin Spectral Data<<<<<
177.566	-141.04
177.785	-101.47
178.005	-705.17
178.225	-44.27
178.445	-28.75
178.665	-255.71
178.885	56.08
179.105	-91.77
179.324	-130.16
179.544	-267.59
179.764	-27.3
179.984	-35.38
180.204	-21.84
180.423	-207.09
180.643	-28.04
180.863	-115.26
181.083	-853.31
181.302	-3706.35
181.522	406.55
181.742	424.6
181.961	552.32
182.181	132.19
182.401	114.15
182.621	128.88
182.84	371.87
183.06	-547.46
183.279	-32.1
183.499	-24.14
183.719	-78.81
183.938	-18.45
184.158	-1.65
184.377	7.66
184.597	26.85
184.816	28.48
185.036	19.64
185.256	-3.1
185.475	-126.83
185.695	-31.19
185.914	-16.23
186.134	-34.69
186.353	-49.74
186.572	-4.23
186.792	-103.82
187.011	580.25
187.231	-410.39
187.45	-109.69
187.67	-237.4
187.889	313.05
188.108	210.51
188.328	162.35
188.547	102.95
188.766	80.59
188.986	77.59
189.205	50.68
189.424	43.07
189.644	37.51
189.863	36.93
190.082	60.46
190.302	53.22
190.521	-2.15
190.74	-27.98
190.959	-111.21
191.178	6.5
191.398	99.28
191.617	648.53
191.836	2447.85
192.055	473.73
192.274	154.59
192.494	264.77
192.713	3951.79
192.932	-900
193.151	211000
193.37	245.42
193.589	-6928.32
193.808	-552.51
194.027	-906.28
194.246	2153.56
194.465	-1295.95
194.685	362.08
194.904	208.39
195.123	190.91
195.342	140.21
195.561	128.31
195.78	372.4
195.999	400
196.218	38.61
196.436	-136.82
196.655	-42.82
196.874	16.24
197.093	69.27
197.312	126.86
197.531	209
197.75	322.94
197.969	1160.67
198.188	270.08
198.407	175.31
198.625	220.79
198.844	258.41
199.063	344.34
199.282	650.19
199.501	-2403.12
199.719	-1086.08
199.938	578.23
200.157	305.38
200.376	-1277.54
200.594	-55.92
200.813	-311.6
201.032	-872.92
201.251	-440.81
201.469	-583.13
201.688	-1171.99
201.907	2581.57
202.125	835.87
202.344	3114.59
202.563	14078.26
202.781	618.58
203	141.38
203.218	87.75
203.437	72.11
203.656	100.54
203.874	180.58
204.093	90.94
204.311	18.49
204.53	24.84
204.748	34.97
204.967	115.66
205.185	167.79
205.404	238.72
205.622	388.76
205.841	267.93
206.059	205.77
206.278	162.94
206.496	193.72
206.715	245.46
206.933	143.4
207.151	181.5
207.37	101.11
207.588	98.83
207.806	139.2
208.025	224.16
208.243	272.4
208.461	-20163.64
208.68	1079.16
208.898	513.92
209.116	315.77
209.335	229.6
209.553	243.53
209.771	199.91
209.989	210.22
210.208	166.63
210.426	129.17
210.644	111.91
210.862	102.85
211.081	82.4
211.299	79.57
211.517	83.26
211.735	79.15
211.953	72.58
212.171	88.04
212.39	51.68
212.608	45.52
212.826	51.45
213.044	70.93
213.262	75.64
213.48	54.46
213.698	43.02
213.916	24.92
214.134	-16.63
214.352	-197.74
214.57	-168.75
214.788	-124.24
215.006	-50.46
215.224	-116.93
215.442	-651.64
215.66	-1650.52
215.878	-413.78
216.096	-94.78
216.314	-131.9
216.532	129.44
216.75	23.62
216.968	-247.88
217.185	-3580.53
217.403	689.81
217.621	8055.56
217.839	60.32
218.057	2295.83
218.275	167.97
218.492	76.13
218.71	351.21
218.928	-104.62
219.146	24.16
219.363	17.03
219.581	-30.17
219.799	553.89
220.017	93.2
220.234	84.99
220.452	174.2
220.67	259.46
220.887	156.36
221.105	198.97
221.323	128.6
221.54	103.25
221.758	86
221.976	91.38
222.193	79.27
222.411	80.15
222.629	84.95
222.846	75.32
223.064	67.59
223.281	63.64
223.499	71.15
223.716	56.38
223.934	50.06
224.151	63.35
224.369	57.33
224.586	64.29
224.804	81.1
225.021	79.62
225.239	78.93
225.456	69.32
225.674	52.01
225.891	36.75
226.108	43.69
226.326	36.91
226.543	33.62
226.76	17.42
226.978	19.14
227.195	20.4
227.413	16.77
227.63	23.62
227.847	31.19
228.064	32.05
228.282	32.41
228.499	28.44
228.716	30.15
228.934	25.9
229.151	29.13
229.368	25.44
229.585	24.24
229.802	23.26
230.02	21.78
230.237	20.15
230.454	20.63
230.671	19.53
230.888	22.37
231.105	21.74
231.323	25.59
231.54	28.61
231.757	30.72
231.974	30.39
232.191	31.53
232.408	23.44
232.625	27.56
232.842	24.01
233.059	23.76
233.276	21.21
233.493	18.61
233.71	15.61
233.927	13.21
234.144	12.4
234.361	18.05
234.578	24.3
234.795	29.4
235.012	17.21
235.229	13.73
235.446	16.07
235.663	15.01
235.879	17.63
236.096	22.28
236.313	23.57
236.53	21.08
236.747	12.39
236.964	3.76
237.181	13.83
237.397	23.8
237.614	36.04
237.831	38.08
238.048	43.02
238.264	35.79
238.481	33.03
238.698	29.57
238.915	32.19
239.131	33.01
239.348	29.07
239.565	19.7
239.781	15.08
239.998	9.93
240.215	6.32
240.431	7.43
240.648	12.88
240.865	11.08
241.081	10.71
241.298	9.86
241.514	11.01
241.731	12.29
241.947	14.4
242.164	14.3
242.38	12.9
242.597	12.28
242.814	10.04
243.03	9.72
243.246	11.25
243.463	14.29
243.679	13.43
243.896	11.63
244.112	10.21
244.329	8.33
244.545	10.79
244.762	11.69
244.978	11.81
245.194	9.88
245.411	10.08
245.627	10.92
245.843	10.67
246.06	11.49
246.276	11.25
246.492	13.66
246.709	12.88
246.925	11.92
247.141	12.04
247.357	12.81
247.574	14.11
247.79	14.25
248.006	12.96
248.222	12.64
248.439	12.55
248.655	13.66
248.871	13.61
249.087	15.57
249.303	17.81
249.519	19.73
249.736	20.06
249.952	20.84
250.168	22.38
250.384	23.75
250.6	23.2
250.816	24.67
251.032	24.36
251.248	22.12
251.464	20.22
251.68	15.56
251.896	12.44
252.112	13.05
252.328	13.81
252.544	14.73
252.76	14.83
252.976	13.87
253.192	12.35
253.408	10.55
253.624	10.37
253.84	10.81
254.056	12.22
254.272	12.64
254.487	11.22
254.703	4.86
254.919	1.81
255.135	2.21
255.351	5.61
255.567	5.76
255.782	8.97
255.998	8.98
256.214	6.68
256.43	5.13
256.646	6.44
256.861	8.35
257.077	9.43
257.293	11.44
257.508	10.97
257.724	10.87
257.94	9.95
258.155	9.25
258.371	9.57
258.587	9.59
258.802	11.66
259.018	10.95
259.234	10.9
259.449	12.29
259.665	11.82
259.88	12.99
260.096	13.18
260.312	13.66
260.527	13.28
260.743	13.28
260.958	13.73
261.174	14.16
261.389	15.26
261.605	15.23
261.82	14.8
262.036	15.24
262.251	13.74
262.466	12.58
262.682	11.39
262.897	11.04
263.113	10.77
263.328	9.93
263.543	8.67
263.759	8.94
263.974	9.98
264.189	8.99
264.405	6.23
264.62	7.47
264.835	6.63
265.051	9.46
265.266	11.67
265.481	12.94
265.696	16.49
265.912	13.71
266.127	11.65
266.342	9.71
266.557	11.26
266.773	13.41
266.988	13.2
267.203	14.67
267.418	12.85
267.633	11.66
267.848	11.71
268.064	8.7
268.279	9.78
268.494	8.31
268.709	8.82
268.924	8.9
269.139	6.87
269.354	6.59
269.569	4.64
269.784	6.17
269.999	7.3
270.214	7.55
270.429	7.15
270.644	8.04
270.859	8.67
271.074	8.4
271.289	9.81
271.504	10.55
271.719	10.86
271.934	12.03
272.149	10.77
272.363	11.11
272.578	10.11
272.793	10.77
273.008	10.66
273.223	10.54
273.438	8.41
273.653	7.39
273.867	7.05
274.082	7.24
274.297	8.27
274.512	10.31
274.726	9.32
274.941	9.55
275.156	11.73
275.371	11.38
275.585	11.8
275.8	15.63
276.015	13.84
276.229	15.29
276.444	14.41
276.659	12.53
276.873	11.4
277.088	13.87
277.302	15.04
277.517	13.05
277.732	13.57
277.946	13.35
278.161	11.63
278.375	13.53
278.59	12.76
278.804	12.95
279.019	14.4
279.233	14.14
279.448	11.07
279.662	9.9
279.877	9.9
280.091	7.72
280.306	7.73
280.52	6.22
280.735	5.64
280.949	5.75
281.163	5.77
281.378	3.16
281.592	4.61
281.806	4.87
282.021	4.64
282.235	4.76
282.449	6.05
282.664	5.78
282.878	7.88
283.092	7.43
283.307	6.71
283.521	6.59
283.735	8
283.949	7.64
284.164	8.02
284.378	8.57
284.592	7.76
284.806	7.85
285.02	9.06
285.234	6.87
285.449	7.74
285.663	8.22
285.877	7.65
286.091	7.55
286.305	7.37
286.519	7
286.733	7.77
286.947	8.71
287.161	9.23
287.375	8.44
287.589	10.91
287.803	12.38
288.017	11.85
288.231	13.24
288.445	13.19
288.659	13.29
288.873	13.84
289.087	13.2
289.301	13.98
289.515	12.99
289.729	13.33
289.943	12.69
290.157	11.61
290.371	13.07
290.584	12.53
290.798	13.72
291.012	12.69
291.226	11.96
291.44	11.87
291.654	10.45
291.867	10.31
292.081	10.95
292.295	11.69
292.509	11.25
292.722	9.91
292.936	9.73
293.15	8.03
293.364	7.98
293.577	9.87
293.791	10.5
294.005	10.2
294.218	11.68
294.432	11.02
294.645	10.7
294.859	10.44
295.073	10.79
295.286	10.17
295.5	10.49
295.713	10.73
295.927	10.29
296.14	9.91
296.354	10.5
296.568	9.51
296.781	10.18
296.994	10.3
297.208	9.8
297.421	10.02
297.635	11.06
297.848	10.78
298.062	11.01
298.275	11.27
298.489	11.8
298.702	12.06
298.915	11.39
299.129	11.27
299.342	10.52
299.555	11.67
299.769	11.31
299.982	10.51
300.195	11.38
300.409	10.16
300.622	9.62
300.835	8.56
301.048	7.39
301.262	8.6
301.475	9.56
301.688	9.13
301.901	7.4
302.115	6.23
302.328	7.01
302.541	6.42
302.754	7.83
302.967	8.26
303.18	9.65
303.393	10.62
303.607	10.83
303.82	9.24
304.033	10.44
304.246	11.94
304.459	12.97
304.672	12.81
304.885	13.43
305.098	13.96
305.311	13.99
305.524	12.76
305.737	12.45
305.95	13.17
306.163	14.33
306.376	14.97
306.589	14.31
306.802	15.47
307.015	15.49
307.228	15.41
307.44	15.32
307.653	15.63
307.866	15.9
308.079	16.14
308.292	14.92
308.505	14.89
308.718	15.16
308.93	16.17
309.143	15.73
309.356	16.08
309.569	15.49
309.781	15.26
309.994	14.65
310.207	14.73
310.42	15.11
310.632	16.3
310.845	15.79
311.058	15.11
311.27	14.81
311.483	14.69
311.696	14.5
311.908	14.31
312.121	13.99
312.333	15.06
312.546	14.64
312.759	13.68
312.971	12.37
313.184	12.14
313.396	11.08
313.609	10.71
313.821	11.6
314.034	10.56
314.246	10.72
314.459	11.2
314.671	9.93
314.884	10.4
315.096	11.37
315.309	12.92
315.521	13.54
315.733	13.59
315.946	14.04
316.158	13.12
316.371	13.76
316.583	13.49
316.795	13.15
317.008	13.87
317.22	14.28
317.432	14.97
317.644	13.68
317.857	13.41
318.069	14.59
318.281	14.23
318.494	13.84
318.706	14.34
318.918	15.98
319.13	15.71
319.342	14.22
319.555	14.68
319.767	14.5
319.979	14.09
320.191	14.64
320.403	15.17
320.615	17.34
320.827	17.32
321.039	17.31
321.252	16.61
321.464	17.62
321.676	18.57
321.888	17.7
322.1	17.28
322.312	17.66
322.524	18.24
322.736	16.38
322.948	14.42
323.16	14.29
323.372	14.87
323.584	14.65
323.796	12.87
324.007	12.34
324.219	13.28
324.431	14.07
324.643	15.01
324.855	15.57
325.067	15.66
325.279	15.82
325.491	16.13
325.702	16.23
325.914	15.9
326.126	17.12
326.338	16.22
326.55	16.45
326.761	15.46
326.973	15.65
327.185	14.64
327.396	16.66
327.608	16.11
327.82	16.5
328.032	16.83
328.243	17.38
328.455	18.92
328.666	20.31
328.878	19.86
329.09	20.32
329.301	19.58
329.513	19.35
329.725	18.34
329.936	18.67
330.148	17.43
330.359	16.89
330.571	17.74
330.782	16.11
330.994	16.69
331.205	16.6
331.417	16.3
331.628	16.54
331.84	17.26
332.051	17.6
332.262	18.91
332.474	19.94
332.685	19.85
332.897	19.44
333.108	19.16
333.319	19
333.531	19.28
333.742	19.45
333.953	18.36
334.165	17.6
334.376	18.72
334.587	18.68
334.799	18.82
335.01	19.32
335.221	18.92
335.432	18.41
335.644	18.12
335.855	18.06
336.066	17.95
336.277	19.55
336.488	19.77
336.7	19.27
336.911	19.28
337.122	19.83
337.333	19.73
337.544	20.38
337.755	22.22
337.966	22.51
338.177	22.34
338.388	21.92
338.599	21.63
338.811	20.42
339.022	19.72
339.233	19.31
339.444	18.07
339.655	16.45
339.866	15.94
340.076	14.88
340.287	14.17
340.498	13.62
340.709	14.62
340.92	13.89
341.131	15.22
341.342	15.67
341.553	14.59
341.764	15.88
341.975	16.64
342.185	16.39
342.396	16.23
342.607	16.37
342.818	16.12
343.029	16.12
343.239	17.74
343.45	17.49
343.661	17.55
343.872	18.37
344.082	17.2
344.293	17.49
344.504	17.35
344.714	17.48
344.925	17.56
345.136	18.23
345.346	16.94
345.557	15.67
345.768	15.43
345.978	15.86
346.189	15.5
346.399	15.77
346.61	15.25
346.821	15.89
347.031	15.97
347.242	16.19
347.452	16
347.663	17.52
347.873	18.43
348.084	18.87
348.294	17.95
348.504	18.45
348.715	18.82
348.925	19.01
349.136	17.11
349.346	17.21
349.557	17.05
349.767	17.56
349.977	17.75
350.188	17.41
350.398	17.65
350.608	17.47
350.819	18.21
351.029	17.28
351.239	18.23
351.449	19.55
351.66	20.01
351.87	20.36
352.08	19.53
352.29	19.65
352.501	19.13
352.711	18.82
352.921	18.87
353.131	17.71
353.341	18.53
353.552	17.93
353.762	17.67
353.972	16.79
354.182	16.89
354.392	17.19
354.602	16.08
354.812	16.13
355.022	16.04
355.232	16.62
355.442	17.02
355.652	16.51
355.862	15.83
356.072	16.42
356.282	16.21
356.492	16.08
356.702	16.4
356.912	16.66
357.122	16.94
357.332	16.86
357.542	16
357.752	15.94
357.962	15.74
358.171	16.16
358.381	15.92
358.591	16.63
358.801	16.43
359.011	16.36
359.221	16.43
359.43	15.96
359.64	15.18
359.85	15.14
360.06	14.87
360.269	14.83
360.479	14.71
360.689	14.45
360.899	14.51
361.108	14.42
361.318	13.69
361.528	13.36
361.737	13.69
361.947	14.07
362.156	14.44
362.366	14.27
362.576	14.79
362.785	14.63
362.995	14.95
363.204	14.62
363.414	14.98
363.623	15.28
363.833	15.42
364.042	15.48
364.252	15.69
364.461	15.34
364.671	15.18
364.88	15.16
365.09	15.69
365.299	15.67
365.509	15.75
365.718	14.48
365.927	14.82
366.137	14.55
366.346	14.52
366.555	14.29
366.765	14.96
366.974	15.56
367.183	15.47
367.393	14.96
367.602	14.82
367.811	14.17
368.021	15.29
368.23	15.04
368.439	15.13
368.648	15.13
368.857	15.33
369.067	15.12
369.276	14.75
369.485	14.62
369.694	14.61
369.903	14.33
370.112	14.92
370.321	14.3
370.531	14.18
370.74	14.25
370.949	13.65
371.158	13.7
371.367	13.54
371.576	12.94
371.785	12.58
371.994	12.69
372.203	12.35
372.412	11.98
372.621	13.02
372.83	12.64
373.039	12.71
373.248	12.47
373.457	12.29
373.666	11.62
373.874	11.87
374.083	12.32
374.292	12.08
374.501	12.25
374.71	12.09
374.919	11.53
375.128	11.87
375.336	12.05
375.545	12.52
375.754	12.58
375.963	12.51
376.171	12.23
376.38	11.46
376.589	11.2
376.798	10.92
377.006	11.26
377.215	11.32
377.424	11.38
377.632	10.5
377.841	10.47
378.05	10.01
378.258	10.4
378.467	10.45
378.675	10.6
378.884	10.68
379.093	10.45
379.301	10.46
379.51	10.07
379.718	9.57
379.927	9.91
380.135	10.08
380.344	10.06
380.552	9.94
380.761	9.91
380.969	9.8
381.177	9.29
381.386	10.37
381.594	9.83
381.803	9.36
382.011	9.79
382.219	9.7
382.428	9.21
382.636	9.13
382.845	8.64
383.053	8.8
383.261	8.66
383.469	9.16
383.678	8.25
383.886	8.36
384.094	8.68
384.302	8.99
384.511	8.99
384.719	8.94
384.927	9.22
385.135	9.35
385.343	8.93
385.552	9.13
385.76	8.95
385.968	8.83
386.176	8.68
386.384	8.11
386.592	7.27
386.8	7.34
387.008	7.48
387.216	7.3
387.424	7.3
387.633	7.53
387.841	7.52
388.049	7.97
388.257	8.46
388.465	8.09
388.672	8.65
388.88	9.02
389.088	8.46
389.296	8.2
389.504	7.85
389.712	8.02
389.92	8.02
390.128	7.92
390.336	7.73
390.544	7.33
390.751	7.61
390.959	7.22
391.167	6.96
391.375	7.36
391.583	7.19
391.79	7.21
391.998	7.19
392.206	7.02
392.414	6.62
392.621	6.4
392.829	6.41
393.037	6.46
393.244	6.57
393.452	6.65
393.66	6.48
393.867	6.46
394.075	6.36
394.283	6.3
394.49	6.08
394.698	6.39
394.905	6.38
395.113	6.14
395.32	5.75
395.528	5.67
395.735	5.46
395.943	5.45
396.15	5.58
396.358	5.47
396.565	5.52
396.773	5.66
396.98	5.78
397.188	5.7
397.395	6.17
397.602	6.37
397.81	6.24
398.017	6.35
398.225	6.67
398.432	6.48
398.639	6.64
398.847	6.05
399.054	5.96
399.261	5.81
399.468	5.88
399.676	5.74
399.883	5.55
400.09	5.65
400.297	5.62
400.505	5.2
400.712	5.32
400.919	5.48
401.126	5.5
401.333	5.53
401.54	5.22
401.748	5.16
401.955	4.86
402.162	5.13
402.369	5.02
402.576	4.74
402.783	4.59
402.99	4.45
403.197	3.9
403.404	3.96
403.611	4.07
403.818	4.2
404.025	4.14
404.232	4.23
404.439	4.09
404.646	4.01
404.853	4.1
405.06	3.98
405.267	4
405.474	4.18
405.681	4.44
405.887	4.22
406.094	4.33
406.301	4.29
406.508	4.66
406.715	4.59
406.922	4.44
407.128	4.49
407.335	4.57
407.542	4.43
407.749	4.29
407.955	4.19
408.162	4.3
408.369	4.01
408.575	4.05
408.782	3.72
408.989	3.68
409.195	3.76
409.402	3.68
409.609	3.65
409.815	3.72
410.022	4.22
410.228	4.14
410.435	4.08
410.642	4.31
410.848	4.08
411.055	4.14
411.261	3.93
411.468	4.32
411.674	4.37
411.881	4.47
412.087	4.53
412.294	4.51
412.5	4.82
412.706	4.83
412.913	4.82
413.119	4.9
413.326	4.54
413.532	4.56
413.738	4.18
413.945	3.81
414.151	4.16
414.357	4.17
414.564	4.13
414.77	3.98
414.976	3.94
415.182	3.81
415.389	3.72
415.595	3.61
415.801	3.81
416.007	3.73
416.214	4.18
416.42	3.85
416.626	3.89
416.832	3.92
417.038	3.85
417.244	3.88
417.45	4.03
417.657	4.11
417.863	4.24
418.069	4.38
418.275	4.42
418.481	4.17
418.687	4.21
418.893	4.16
419.099	4.06
419.305	3.89
419.511	3.93
419.717	3.77
419.923	3.75
420.129	3.65
420.335	3.58
420.541	3.63
420.746	3.59
420.952	3.64
421.158	3.6
421.364	3.36
421.57	3.42
421.776	3.34
421.982	3.38
422.187	3.25
422.393	3.24
422.599	3.22
422.805	3.16
423.01	3.3
423.216	3.22
423.422	3.33
423.628	3.51
423.833	3.39
424.039	3.42
424.245	3.54
424.45	3.63
424.656	3.69
424.862	3.67
425.067	3.55
425.273	3.42
425.478	3.46
425.684	3.36
425.889	3.44
426.095	3.56
426.301	3.51
426.506	3.28
426.712	3.37
426.917	3.45
427.123	3.35
427.328	3.39
427.533	3.52
427.739	3.33
427.944	3.32
428.15	3.03
428.355	3.04
428.561	3.22
428.766	3.21
428.971	3.01
429.177	3.04
429.382	2.89
429.587	2.87
429.793	2.85
429.998	2.97
430.203	2.75
430.408	3.15
430.614	3.11
430.819	2.87
431.024	3.01
431.229	3.07
431.434	2.89
431.64	3.02
431.845	3.21
432.05	3.29
432.255	3.22
432.46	3.33
432.665	3.03
432.87	3.01
433.076	3.09
433.281	3.17
433.486	3.02
433.691	2.99
433.896	3.04
434.101	2.97
434.306	2.83
434.511	2.91
434.716	2.83
434.921	3.08
435.126	3.2
435.331	3.14
435.535	2.98
435.74	3.01
435.945	3.07
436.15	3.04
436.355	3.14
436.56	3.21
436.765	3.27
436.97	3.16
437.174	3.15
437.379	3.12
437.584	3.21
437.789	3.11
437.993	3.16
438.198	3.17
438.403	3.14
438.608	3.11
438.812	3.08
439.017	2.83
439.222	2.95
439.426	2.71
439.631	2.48
439.836	2.43
440.04	2.57
440.245	2.56
440.45	2.63
440.654	2.76
440.859	2.66
441.063	2.64
441.268	2.9
441.472	2.87
441.677	2.94
441.881	3.03
442.086	3.1
442.29	2.92
442.495	2.94
442.699	2.85
442.904	2.69
443.108	2.8
443.312	2.8
443.517	2.68
443.721	2.53
443.925	2.56
444.13	2.45
444.334	2.11
444.538	2.31
444.743	2.33
444.947	2.32
445.151	2.47
445.356	2.42
445.56	2.47
445.764	2.36
445.968	2.56
446.173	2.5
446.377	2.67
446.581	2.84
446.785	2.69
446.989	2.71
447.193	2.74
447.398	2.67
447.602	2.53
447.806	2.45
448.01	2.49
448.214	2.39
448.418	2.33
448.622	2.3
448.826	2.37
449.03	2.5
449.234	2.51
449.438	2.54
449.642	2.49
449.846	2.72
450.05	2.72
450.254	2.78
450.458	2.74
450.662	2.91
450.866	2.74
451.069	2.68
451.273	2.78
451.477	2.86
451.681	2.72
451.885	2.72
452.089	2.72
452.292	2.39
452.496	2.28
452.7	2.44
452.904	2.44
453.107	2.61
453.311	2.47
453.515	2.41
453.719	2.22
453.922	2.28
454.126	2.4
454.33	2.41
454.533	2.66
454.737	2.81
454.94	2.71
455.144	2.75
455.348	2.73
455.551	2.92
455.755	2.9
455.958	3.04
456.162	3.04
456.365	2.97
456.569	2.77
456.772	2.78
456.976	2.72
457.179	2.89
457.383	2.79
457.586	2.83
457.79	2.81
457.993	2.64
458.196	2.56
458.4	2.68
458.603	2.61
458.807	2.55
459.01	2.71
459.213	2.7
459.417	2.6
459.62	2.53
459.823	2.46
460.026	2.44
460.23	2.48
460.433	2.41
460.636	2.35
460.839	2.31
461.042	2.32
461.246	2.24
461.449	2.23
461.652	2.24
461.855	2.26
462.058	2.36
462.261	2.45
462.464	2.38
462.668	2.48
462.871	2.64
463.074	2.66
463.277	2.7
463.48	2.65
463.683	2.76
463.886	2.5
464.089	2.64
464.292	2.39
464.495	2.31
464.698	2.35
464.901	2.28
465.104	2
465.306	1.82
465.509	1.93
465.712	2.17
465.915	2.2
466.118	2.27
466.321	2.26
466.524	2.18
466.726	2.12
466.929	2.22
467.132	2.23
467.335	2.4
467.538	2.67
467.74	2.65
467.943	2.43
468.146	2.25
468.348	2.41
468.551	2.21
468.754	2.38
468.956	2.44
469.159	2.24
469.362	2.44
469.564	2.41
469.767	2.38
469.969	2.51
470.172	2.6
470.375	2.77
470.577	2.69
470.78	2.84
470.982	2.67
471.185	2.71
471.387	2.94
471.59	2.7
471.792	2.6
471.995	2.66
472.197	2.63
472.399	2.74
472.602	2.69
472.804	2.9
473.007	2.93
473.209	3.16
473.411	3.14
473.614	3.25
473.816	3.26
474.018	3.35
474.22	3.34
474.423	3.34
474.625	3.19
474.827	3.16
475.03	2.99
475.232	2.97
475.434	2.86
475.636	2.71
475.838	2.66
476.04	2.75
476.243	2.65
476.445	2.64
476.647	2.65
476.849	2.71
477.051	2.44
477.253	2.62
477.455	2.48
477.657	2.47
477.859	2.45
478.061	2.26
478.263	2.13
478.465	2
478.667	1.81
478.869	1.61
479.071	1.63
479.273	1.76
479.475	1.61
479.677	1.72
479.879	1.71
480.081	1.74
480.283	1.76
480.485	1.82
480.686	2.18
480.888	2.35
481.09	2.4
481.292	2.24
481.494	2.42
481.695	2.36
481.897	2.35
482.099	2.48
482.301	2.54
482.502	2.52
482.704	2.58
482.906	2.44
483.107	2.38
483.309	2.38
483.511	2.38
483.712	2.35
483.914	2.38
484.115	2.35
484.317	2.29
484.519	2.25
484.72	2.26
484.922	2.21
485.123	2.17
485.325	2.21
485.526	2.22
485.728	2.21
485.929	2.17
486.131	2.11
486.332	2.07
486.534	2.11
486.735	2.18
486.936	2.24
487.138	2.23
487.339	2.26
487.541	2.21
487.742	2.23
487.943	2.26
488.144	2.24
488.346	2.29
488.547	2.4
488.748	2.35
488.95	2.27
489.151	2.26
489.352	2.32
489.553	2.39
489.755	2.44
489.956	2.33
490.157	2.35
490.358	2.3
490.559	2.18
490.76	2.21
490.961	2.24
491.163	2.35
491.364	2.31
491.565	2.24
491.766	2.24
491.967	2.25
492.168	2.33
492.369	2.28
492.57	2.33
492.771	2.47
492.972	2.37
493.173	2.47
493.374	2.43
493.575	2.42
493.776	2.45
493.976	2.46
494.177	2.47
494.378	2.5
494.579	2.71
494.78	2.81
494.981	2.8
495.182	2.93
495.382	2.91
495.583	3.02
495.784	3.06
495.985	3.11
496.185	3
496.386	3
496.587	2.99
496.788	2.86
496.988	2.56
497.189	2.54
497.39	2.44
497.59	2.4
497.791	2.07
497.992	2.07
498.192	2.1
498.393	2.2
498.593	2.3
498.794	2.34
498.994	2.4
499.195	2.67
499.395	2.8
499.596	2.96
499.796	2.86
499.997	3.21
500.197	3.29
500.398	3.2
500.598	2.99
500.799	3.12
500.999	2.93
501.199	2.89
501.4	3.06
501.6	2.93
501.801	2.73
502.001	2.93
502.201	2.87
502.402	2.93
502.602	3.12
502.802	3.42
503.002	3.16
503.203	3.42
503.403	3.7
503.603	3.61
503.803	3.72
504.003	3.91
504.204	3.95
504.404	3.92
504.604	3.92
504.804	4.03
505.004	3.95
505.204	4.1
505.404	3.98
505.604	3.73
505.804	3.77
506.005	3.88
506.205	3.74
506.405	3.82
506.605	3.94
506.805	3.97
507.005	3.89
507.204	3.98
507.404	3.83
507.604	4.02
507.804	4.21
508.004	4.27
508.204	4.23
508.404	4.27
508.604	4.21
508.804	4.22
509.003	4.24
509.203	4.23
509.403	4.29
509.603	4.44
509.803	4.34
510.002	4.28
510.202	4.36
510.402	4.44
510.602	4.6
510.801	4.54
511.001	4.72
511.201	4.73
511.4	4.78
511.6	4.88
511.8	4.91
511.999	5.07
512.199	5.03
512.398	5
512.598	5.08
512.797	5.31
512.997	5.46
513.197	5.35
513.396	5.55
513.596	5.7
513.795	5.63
513.994	5.71
514.194	5.64
514.393	5.83
514.593	5.93
514.792	6.04
514.992	6.07
515.191	6.15
515.39	6.23
515.59	6.23
515.789	6.3
515.988	6.49
516.188	6.61
516.387	6.82
516.586	6.92
516.786	7.11
516.985	6.99
517.184	6.95
517.383	7.05
517.582	7.2
517.782	7.1
517.981	7.31
518.18	7.28
518.379	7.43
518.578	7.48
518.777	7.64
518.976	7.69
519.176	7.91
519.375	7.94
519.574	8.04
519.773	8.11
519.972	8.44
520.171	8.43
520.37	8.6
520.569	8.62
520.768	8.84
520.967	8.86
521.166	8.95
521.365	9.04
521.564	9.26
521.762	9.37
521.961	9.44
522.16	9.42
522.359	9.53
522.558	9.6
522.757	9.75
522.956	9.72
523.154	9.82
523.353	9.99
523.552	9.99
523.751	10.14
523.949	10.14
524.148	10.23
524.347	10.52
524.546	10.71
524.744	10.77
524.943	10.81
525.142	10.86
525.34	10.9
525.539	10.91
525.737	11.15
525.936	11.19
526.135	11.35
526.333	11.45
526.532	11.29
526.73	11.32
526.929	11.47
527.127	11.65
527.326	11.71
527.524	11.83
527.723	11.97
527.921	11.95
528.12	12.03
528.318	12.07
528.516	12.21
528.715	12.4
528.913	12.44
529.112	12.47
529.31	12.46
529.508	12.52
529.707	12.58
529.905	12.7
530.103	12.77
530.301	12.81
530.5	12.96
530.698	13.03
530.896	13.09
531.094	13.3
531.293	13.41
531.491	13.6
531.689	13.81
531.887	13.93
532.085	13.95
532.283	13.93
532.481	14
532.68	14.01
532.878	14.05
533.076	14.19
533.274	14.12
533.472	14.12
533.67	14.18
533.868	14.31
534.066	14.37
534.264	14.31
534.462	14.46
534.66	14.55
534.858	14.59
535.056	14.77
535.253	14.76
535.451	14.84
535.649	15.02
535.847	15.03
536.045	15.07
536.243	15.21
536.441	15.33
536.638	15.38
536.836	15.45
537.034	15.57
537.232	15.59
537.43	15.52
537.627	15.65
537.825	15.78
538.023	15.8
538.22	15.9
538.418	15.89
538.616	16.05
538.813	16.14
539.011	16.24
539.209	16.3
539.406	16.27
539.604	16.64
539.801	16.71
539.999	16.84
540.196	17.02
540.394	16.98
540.591	17.03
540.789	17.12
540.986	17.21
541.184	17.32
541.381	17.42
541.579	17.51
541.776	17.45
541.974	17.5
542.171	17.51
542.368	17.53
542.566	17.62
542.763	17.58
542.96	17.59
543.158	17.66
543.355	17.7
543.552	17.71
543.75	17.79
543.947	17.89
544.144	17.97
544.341	18.01
544.539	18.1
544.736	18.29
544.933	18.45
545.13	18.56
545.327	18.65
545.524	18.6
545.722	18.6
545.919	18.61
546.116	18.67
546.313	18.64
546.51	18.8
546.707	18.75
546.904	18.81
547.101	18.92
547.298	18.98
547.495	19
547.692	19.07
547.889	19.1
548.086	19.08
548.283	19.3
548.48	19.44
548.677	19.47
548.874	19.51
549.07	19.42
549.267	19.46
549.464	19.55
549.661	19.49
549.858	19.63
550.055	19.93
550.251	20.01
550.448	19.83
550.645	19.72
550.842	19.7
551.038	19.89
551.235	19.9
551.432	19.95
551.628	19.93
551.825	20.11
552.022	20.12
552.218	20.1
552.415	20.21
552.612	20.32
552.808	20.51
553.005	20.39
553.201	20.38
553.398	20.54
553.594	20.69
553.791	20.85
553.987	20.98
554.184	21.05
554.38	21.01
554.577	20.99
554.773	21.09
554.97	21
555.166	21.3
555.362	21.34
555.559	21.25
555.755	21.35
555.952	21.31
556.148	21.42
556.344	21.49
556.541	21.43
556.737	21.47
556.933	21.4
557.129	21.51
557.326	21.39
557.522	21.53
557.718	21.82
557.914	21.82
558.11	21.7
558.307	21.45
558.503	21.48
558.699	21.8
558.895	22.08
559.091	22.33
559.287	22.58
559.483	22.8
559.679	22.69
559.876	22.48
560.072	22.34
560.268	22.31
560.464	22.37
560.66	22.4
560.856	22.41
561.052	22.23
561.247	22.23
561.443	22.05
561.639	22.01
561.835	22.2
562.031	22.29
562.227	22.61
562.423	22.79
562.619	22.93
562.815	23.12
563.01	23.2
563.206	23.2
563.402	23.21
563.598	23.44
563.793	23.45
563.989	23.49
564.185	23.56
564.381	23.45
564.576	23.65
564.772	23.56
564.968	23.5
565.163	23.39
565.359	23.35
565.555	23.35
565.75	23.3
565.946	23.32
566.141	23.3
566.337	23.27
566.532	23.39
566.728	23.27
566.923	23.43
567.119	23.52
567.314	23.59
567.51	23.81
567.705	23.86
567.901	23.98
568.096	23.83
568.292	23.9
568.487	24.07
568.682	23.78
568.878	23.87
569.073	23.87
569.268	23.81
569.464	23.96
569.659	23.87
569.854	23.77
570.05	23.57
570.245	23.94
570.44	24.06
570.635	24.06
570.831	24.39
571.026	24.39
571.221	24.57
571.416	24.53
571.611	24.47
571.806	24.44
572.002	24.38
572.197	24.5
572.392	24.38
572.587	24.39
572.782	24.33
572.977	24.26
573.172	24.18
573.367	24.04
573.562	24.15
573.757	24.22
573.952	24.18
574.147	24.28
574.342	24.25
574.537	24.37
574.732	24.11
574.927	24.27
575.121	24.28
575.316	24.48
575.511	24.63
575.706	24.52
575.901	24.42
576.096	24.71
576.29	24.82
576.485	24.91
576.68	24.89
576.875	24.98
577.069	24.84
577.264	24.75
577.459	24.65
577.654	24.78
577.848	25.02
578.043	25.26
578.238	25.36
578.432	25.39
578.627	25.38
578.821	25.61
579.016	25.83
579.21	25.94
579.405	26.09
579.6	26.27
579.794	26.33
579.989	26.13
580.183	26.41
580.378	26.12
580.572	26.32
580.766	26.42
580.961	26.2
581.155	26.28
581.35	26.28
581.544	26.16
581.738	26.21
581.933	26.03
582.127	26.13
582.321	25.8
582.516	25.9
582.71	25.87
582.904	25.96
583.099	25.95
583.293	25.86
583.487	26
583.681	26.12
583.875	25.93
584.07	26.06
584.264	26.27
584.458	26.31
584.652	26.42
584.846	26.24
585.04	26.19
585.234	26.4
585.428	26.57
585.623	26.75
585.817	26.85
586.011	26.97
586.205	26.69
586.399	26.77
586.593	26.72
586.787	26.74
586.981	26.66
587.174	26.65
587.368	26.56
587.562	26.63
587.756	26.42
587.95	26.64
588.144	26.56
588.338	26.68
588.532	26.57
588.725	26.74
588.919	26.83
589.113	27.1
589.307	27.22
589.501	27.25
589.694	27.27
589.888	27.24
590.082	26.94
590.275	26.91
590.469	27.06
590.663	27.17
590.856	26.88
591.05	26.9
591.244	26.74
591.437	26.83
591.631	26.84
591.824	26.78
592.018	27.03
592.212	27.22
592.405	27.3
592.599	27.25
592.792	27.3
592.986	27.69
593.179	27.43
593.372	27.38
593.566	27.08
593.759	27.37
593.953	27.24
594.146	27
594.339	27.03
594.533	27.13
594.726	27.05
594.92	26.74
595.113	26.51
595.306	26.79
595.499	27.05
595.693	27.35
595.886	27.27
596.079	27.49
596.272	27.61
596.466	27.48
596.659	27.41
596.852	27.61
597.045	27.75
597.238	27.81
597.431	27.84
597.624	27.88
597.818	27.81
598.011	27.73
598.204	27.67
598.397	27.58
598.59	27.57
598.783	27.68
598.976	27.66
599.169	27.63
599.362	27.68
599.555	27.47
599.748	27.39
599.941	27.41
600.134	27.37
600.326	27.17
600.519	27.25
600.712	27.58
600.905	27.64
601.098	27.6
601.291	27.49
601.483	27.53
601.676	27.44
601.869	27.34
602.062	27.22
602.255	27.24
602.447	27.37
602.64	27.41
602.833	27.1
603.025	27.15
603.218	27.2
603.411	27.35
603.603	27.46
603.796	27.66
603.989	27.74
604.181	27.89
604.374	27.89
604.566	28.1
604.759	28
604.951	28.2
605.144	28.17
605.336	28.2
605.529	28.16
605.721	28.08
605.914	28.2
606.106	28.25
606.299	28.38
606.491	28.53
606.683	28.46
606.876	28.43
607.068	28.33
607.26	28.09
607.453	27.96
607.645	27.91
607.837	28.08
608.03	27.83
608.222	27.6
608.414	27.37
608.606	27.26
608.799	27.45
608.991	27.86
609.183	28.1
609.375	28.46
609.567	28.44
609.759	28.84
609.952	28.78
610.144	28.94
610.336	29.26
610.528	29.58
610.72	29.92
610.912	29.95
611.104	30.03
611.296	30.17
611.488	30.53
611.68	30.95
611.872	30.86
612.064	31.31
612.256	31.43
612.448	31.63
612.64	31.46
612.832	31.28
613.023	31.1
613.215	31.14
613.407	30.71
613.599	30.37
613.791	30.25
613.983	30.28
614.174	29.84
614.366	29.93
614.558	29.77
614.75	30.02
614.941	30.06
615.133	30.12
615.325	29.75
615.516	30.22
615.708	30.16
615.9	30.01
616.091	29.9
616.283	29.72
616.475	29.24
616.666	29.17
616.858	28.78
617.049	28.63
617.241	28.43
617.432	28.76
617.624	28.83
617.815	28.5
618.007	28.47
618.198	28.4
618.39	28.75
618.581	29.28
618.773	29.13
618.964	29.26
619.155	29.28
619.347	29.34
619.538	29.29
619.729	29.04
619.921	29.43
620.112	29.55
620.303	29.6
620.494	29.32
620.686	29
620.877	29.09
621.068	29.09
621.259	29.13
621.451	29.43
621.642	28.99
621.833	29.13
622.024	28.92
622.215	28.62
622.406	28.57
622.597	28.56
622.788	28.74
622.98	28.67
623.171	28.53
623.362	28.58
623.553	28.75
623.744	29.1
623.935	29.02
624.126	29.04
624.317	29.33
624.508	29.2
624.698	29.42
624.889	29.36
625.08	29.75
625.271	29.84
625.462	29.73
625.653	29.27
625.844	29.43
626.034	29.23
626.225	29.61
626.416	29.35
626.607	29.51
626.798	29.26
626.988	29.29
627.179	29.11
627.37	29.1
627.56	28.99
627.751	29.25
627.942	29.16
628.132	29.19
628.323	28.93
628.514	29.24
628.704	29.37
628.895	29.44
629.085	29.28
629.276	29.33
629.466	29.41
629.657	29.35
629.847	29.17
630.038	29.29
630.228	29.59
630.419	29.93
630.609	30.15
630.8	29.97
630.99	30.1
631.181	30.43
631.371	30.48
631.561	30.36
631.752	30.7
631.942	30.83
632.132	30.76
632.323	30.58
632.513	30.22
632.703	30.05
632.893	30.42
633.084	30.33
633.274	30.21
633.464	29.77
633.654	30.13
633.844	29.93
634.034	29.74
634.225	29.38
634.415	29.36
634.605	29.26
634.795	28.99
634.985	28.81
635.175	28.91
635.365	28.8
635.555	29.09
635.745	28.73
635.935	29.08
636.125	29.2
636.315	29.72
636.505	29.55
636.695	29.66
636.885	29.62
637.075	29.47
637.265	29.42
637.455	29.56
637.644	29.71
637.834	29.68
638.024	29.31
638.214	29.65
638.404	29.42
638.593	29.51
638.783	29.48
638.973	29.74
639.163	29.75
639.352	29.77
639.542	29.71
639.732	29.39
639.921	29.52
640.111	29.57
640.301	29.26
640.49	29.38
640.68	29.84
640.87	30.03
641.059	29.86
641.249	30.02
641.438	30.14
641.628	30.38
641.817	30.78
642.007	30.78
642.196	30.78
642.386	30.67
642.575	30.86
642.764	30.38
642.954	30.3
643.143	30.69
643.333	30.71
643.522	30.64
643.711	30.58
643.901	30.63
644.09	30.75
644.279	31.25
644.469	31.33
644.658	30.92
644.847	31.25
645.036	31.44
645.226	31.09
645.415	31.01
645.604	30.88
645.793	30.66
645.982	30.19
646.171	29.85
646.361	29.56
646.55	29.9
646.739	29.7
646.928	29.56
647.117	29.68
647.306	29.88
647.495	29.74
647.684	29.84
647.873	30.04
648.062	30.31
648.251	30.66
648.44	30.66
648.629	30
648.818	30.18
649.007	30.05
649.196	29.74
649.384	29.77
649.573	29.68
649.762	29.83
649.951	29.71
650.14	29.69
650.328	29.23
650.517	29.09
650.706	29.46
650.895	29.79
651.083	30.46
651.272	30.64
651.461	30.3
651.65	30.59
651.838	30.31
652.027	30.14
652.216	29.99
652.404	30.06
652.593	30.26
652.781	30.34
652.97	30.34
653.158	29.69
653.347	29.42
653.535	29.48
653.724	29.37
653.912	30.02
654.101	30
654.289	30.31
654.478	30.66
654.666	30.91
654.855	30.82
655.043	30.52
655.231	30.65
655.42	31.01
655.608	31.33
655.796	31.87
655.985	31.66
656.173	31.56
656.361	31.47
656.55	31.34
656.738	30.71
656.926	31.02
657.114	31.03
657.302	31.37
657.491	31.21
657.679	31.26
657.867	31.01
658.055	30.8
658.243	31.12
658.431	31.05
658.619	30.87
658.807	31.41
658.996	30.98
659.184	31.14
659.372	30.69
659.56	30.48
659.748	30.42
659.936	30.28
660.124	30.45
660.311	30.33
660.499	30.27
660.687	30.61
660.875	30.28
661.063	30.53
661.251	30.46
661.439	30.66
661.627	30.82
661.814	30.69
662.002	30.41
662.19	30.68
662.378	30.76
662.565	31
662.753	30.87
662.941	31.16
663.129	30.65
663.316	30.8
663.504	30.86
663.692	30.79
663.879	30.82
664.067	30.88
664.254	30.25
664.442	30.37
664.63	30.28
664.817	30.46
665.005	30.13
665.192	30.83
665.38	30.39
665.567	30.71
665.755	31.28
665.942	31.02
666.13	31.26
666.317	31.24
666.504	31.18
666.692	31.14
666.879	31.19
667.067	31.74
667.254	31.78
667.441	31.98
667.629	31.82
667.816	31.3
668.003	32
668.19	32.45
668.378	32.82
668.565	32.8
668.752	32.53
668.939	32.53
669.127	32.02
669.314	31.27
669.501	31.9
669.688	31.68
669.875	32.19
670.062	31.75
670.249	31.15
670.436	31.41
670.623	31.53
670.81	31.66
670.997	31.5
671.184	31.61
671.371	32.46
671.558	31.28
671.745	31.46
671.932	30.78
672.119	30.63
672.306	30.95
672.493	30.06
672.68	30.32
672.867	31.09
673.054	31.13
673.24	31.21
673.427	30.78
673.614	30.94
673.801	30.88
673.988	31.04
674.174	31.49
674.361	31.37
674.548	31.71
674.734	31.1
674.921	30.36
675.108	30
675.294	30.06
675.481	30.04
675.668	30.68
675.854	30.69
676.041	30.99
676.227	30.87
676.414	31.14
676.601	31.43
676.787	31.46
676.974	31.68
677.16	31.67
677.347	31.47
677.533	31.71
677.719	31.94
677.906	31.96
678.092	32.06
678.279	32.14
678.465	32.12
678.651	32
678.838	32
679.024	31.98
679.21	31.98
679.397	31.88
679.583	32.29
679.769	31.53
679.955	31.52
680.142	31.06
680.328	31.03
680.514	30.73
680.7	30.47
680.886	30.86
681.073	30.87
681.259	31.29
681.445	31.45
681.631	30.72
681.817	31.22
682.003	31.45
682.189	31.52
682.375	31.55
682.561	31.73
682.747	31.88
682.933	31.89
683.119	31.72
683.305	31.66
683.491	31.61
683.677	32.14
683.863	32.17
684.049	32.01
684.235	32.24
684.42	32.2
684.606	31.99
684.792	32.18
684.978	32.28
685.164	32.44
685.349	32.64
685.535	32.74
685.721	32.86
685.907	32.56
686.092	31.91
686.278	31.82
686.464	32.01
686.649	32.01
686.835	32.22
687.021	32.05
687.206	31.62
687.392	31.61
687.577	31.86
687.763	31.8
687.948	32.31
688.134	32.85
688.319	33.13
688.505	33.17
688.69	33.08
688.876	32.82
689.061	32.35
689.247	32.97
689.432	32.36
689.618	31.66
689.803	31.62
689.988	31.52
690.174	31.72
690.359	31.01
690.544	30.52
690.73	30.52
690.915	30.43
691.1	30.36
691.285	30.55
691.471	30.97
691.656	31.69
691.841	31.63
692.026	31.56
692.211	31.36
692.396	32.11
692.582	32.87
692.767	33.29
692.952	33.45
693.137	33.99
693.322	33.76
693.507	33.65
693.692	33.57
693.877	33.46
694.062	32.94
694.247	33.37
694.432	33.03
694.617	32.54
694.802	32.38
694.987	32.19
695.172	32.14
695.357	32.07
695.541	31.79
695.726	32.12
695.911	32.05
696.096	32.82
696.281	32.65
696.466	32.7
696.65	33.02
696.835	33.23
697.02	32.88
697.204	33.4
697.389	33.22
697.574	33.4
697.759	32.62
697.943	32.43
698.128	32.26
698.312	32.18
698.497	32.16
698.682	31.79
698.866	31.47
699.051	31.75
699.235	31.58
699.42	31.48
699.604	31.55
699.789	32.05
699.973	32.14
700.158	31.95
700.342	31.99
700.527	32.16
700.711	32.21
700.895	32.64
701.08	32.65
701.264	32.32
701.448	32.1
701.633	31.95
701.817	31.5
702.001	31.9
702.186	31.95
702.37	31.56
702.554	32.08
702.738	32.18
702.923	32.15
703.107	32.15
703.291	32.29
703.475	32.6
703.659	32.58
703.843	32.76
704.027	32.27
704.212	31.94
704.396	32.67
704.58	31.82
704.764	31.36
704.948	30.85
705.132	30.89
705.316	31.07
705.5	31.83
705.684	32
705.868	32.57
706.052	32.52
706.235	32.8
706.419	32.44
706.603	32.13
706.787	32.27
706.971	32.73
707.155	32.69
707.339	32.48
707.522	32
707.706	32.05
707.89	31.64
708.074	32.24
708.257	32.11
708.441	32.63
708.625	33.31
708.808	33.71
708.992	33.17
709.176	33.31
709.359	32.93
709.543	32.67
709.727	32.6
709.91	32.8
710.094	32.67
710.277	33.47
710.461	32.88
710.644	32.72
710.828	33.16
711.011	33.35
711.195	33.34
711.378	33.37
711.562	33.52
711.745	33.58
711.928	33.3
712.112	32.43
712.295	32.07
712.478	32.32
712.662	32.62
712.845	32.3
713.028	32.27
713.212	32.65
713.395	33.2
713.578	33.07
713.761	32.75
713.945	32.95
714.128	34.37
714.311	33.63
714.494	33.32
714.677	32.88
714.86	32.53
715.043	33.02
715.227	32.85
715.41	32.64
715.593	32.76
715.776	33.07
715.959	32.72
716.142	32.24
716.325	33.19
716.508	33.27
716.691	33.58
716.874	33.8
717.057	33.59
717.239	33.79
717.422	33.87
717.605	33.81
717.788	33.76
717.971	34.36
718.154	34.1
718.337	34.13
718.519	33.63
718.702	33.35
718.885	33.02
719.068	32.51
719.25	32.44
719.433	33.08
719.616	33.44
719.798	33.92
719.981	33.41
720.164	33.33
720.346	33.09
720.529	33.6
720.712	33.66
720.894	34.01
721.077	34.28
721.259	33.58
721.442	33.04
721.624	33.38
721.807	32.74
721.989	32.84
722.172	33.09
722.354	32.99
722.537	33.05
722.719	33.02
722.901	33.28
723.084	33.37
723.266	34.25
723.448	34
723.631	32.54
723.813	33.53
723.995	33.55
724.178	34.01
724.36	33.01
724.542	32.45
724.724	32.98
724.907	32.77
725.089	32.92
725.271	33.1
725.453	33.17
725.635	35
725.817	34.42
725.999	35.22
726.181	34.89
726.364	35.55
726.546	35.97
726.728	35.03
726.91	34.66
727.092	34.45
727.274	34.01
727.456	34.17
727.638	32.93
727.819	33.02
728.001	32.73
728.183	32.43
728.365	32.74
728.547	32.65
728.729	33.59
728.911	34.9
729.093	35.67
729.274	34.95
729.456	34.54
729.638	35.2
729.82	35.36
730.001	34.41
730.183	34.18
730.365	33.91
730.546	33.93
730.728	34.06
730.91	33
731.091	33.28
731.273	33.94
731.455	34.35
731.636	34.7
731.818	34.2
731.999	34.16
732.181	34.55
732.362	34.47
732.544	34.67
732.725	34.05
732.907	34.37
733.088	34.02
733.27	34.59
733.451	33.87
733.633	33.17
733.814	33.11
733.995	32.82
734.177	32.4
734.358	32.28
734.539	31.71
734.721	31.73
734.902	32.05
735.083	32.09
735.264	31.53
735.446	32.68
735.627	32.54
735.808	33.48
735.989	35.01
736.17	35.83
736.351	36.5
736.533	36.73
736.714	36.67
736.895	35.52
737.076	34.88
737.257	34.66
737.438	33.84
737.619	34.67
737.8	33.04
737.981	33.02
738.162	32.49
738.343	32.2
738.524	32.1
738.705	32.07
738.886	32.6
739.067	32.93
739.247	32.98
739.428	31.81
739.609	31.36
739.79	31.56
739.971	31.47
740.151	31.86
740.332	31.45
740.513	32.28
740.694	31.76
740.874	31.26
741.055	30.15
741.236	29.77
741.417	30.64
741.597	30.27
741.778	30.85
741.958	30
742.139	29.43
742.32	29.12
742.5	28.92
742.681	29.35
742.861	30.02
743.042	31.89
743.222	32.13
743.403	32.52
743.583	34.18
743.764	35.37
743.944	35.78
744.124	36.38
744.305	36.48
744.485	36.25
744.666	37.52
744.846	37.46
745.026	36.3
745.207	38
745.387	38.57
745.567	37.94
745.747	36.93
745.928	35.75
746.108	36.14
746.288	36.42
746.468	36.75
746.648	36.95
746.829	36.32
747.009	36.63
747.189	35.28
747.369	34.41
747.549	33.28
747.729	33.53
747.909	34.01
748.089	33.21
748.269	33.86
748.449	33.83
748.629	32.56
748.809	32.34
748.989	33.22
749.169	32.74
749.349	33.12
749.529	32.78
749.709	32.51
749.889	33.32
750.068	33.56
750.248	33.2
750.428	32.75
750.608	32.12
750.788	33.24
750.967	32.25
751.147	31.66
751.327	32.73
751.507	33.1
751.686	33.08
751.866	34.02
752.046	33.4
752.225	33.62
752.405	34.21
752.585	35.36
752.764	35.07
752.944	34.11
753.123	35.39
753.303	34.19
753.482	34.27
753.662	34.82
753.841	34.18
754.021	34.62
754.2	34.69
754.38	34.53
754.559	34.33
754.739	34.98
754.918	36.21
755.097	35.16
755.277	35.61
755.456	35.62
755.635	36.03
755.815	35.76
755.994	36.26
756.173	35.25
756.352	35.3
756.532	35.18
756.711	33.57
756.89	33.33
757.069	33.82
757.248	32.98
757.427	32.59
757.607	32.26
757.786	32.89
757.965	32.32
758.144	32.39
758.323	31.82
758.502	31.91
758.681	32.63
758.86	32.71
759.039	32.16
759.218	31.94
759.397	33.78
759.576	33.11
759.755	32.93
759.934	33.58
760.113	34.89
760.291	35.62
760.47	35.65
760.649	35.09
760.828	34.76
761.007	34.5
761.186	35.66
761.364	33.65
761.543	33.7
761.722	34.02
761.901	32.96
762.079	32.54
762.258	32.51
762.437	32.11
762.615	31.66
762.794	32.66
762.972	33.41
763.151	32.87
763.33	33.27
763.508	33.69
763.687	33.1
763.865	34.63
764.044	34.25
764.222	33.51
764.401	33.65
764.579	34.43
764.758	33.48
764.936	33.5
765.114	33.67
765.293	33.92
765.471	33.09
765.65	32.83
765.828	31.15
766.006	32.22
766.184	33.14
766.363	32.89
766.541	32.25
766.719	31.57
766.898	31.8
767.076	31.54
767.254	32.2
767.432	33.1
767.61	33.99
767.788	34.53
767.967	33.08
768.145	32.92
768.323	33.16
768.501	33.66
768.679	35.26
768.857	34.87
769.035	36.28
769.213	36.15
769.391	35.85
769.569	34.98
769.747	35.13
769.925	35
770.103	34.94
770.281	34.05
770.459	34.56
770.636	33.3
770.814	32.53
770.992	31.75
771.17	32.34
771.348	32.81
771.525	33.94
771.703	33.34
771.881	33.22
772.059	33.67
772.236	33.05
772.414	31.84
772.592	32.77
772.769	33.22
772.947	32.73
773.125	31.31
773.302	32.62
773.48	32.12
773.657	32.57
773.835	33.39
774.013	35.21
774.19	36.95
774.368	35.99
774.545	36.38
774.723	36.71
774.9	36.32
775.077	34.28
775.255	32.64
775.432	31.25
775.61	30.84
775.787	30.79
775.964	27.48
776.142	27.88
776.319	29.13
776.496	30.6
776.674	31.61
776.851	31.41
777.028	33.15
777.205	32.22
777.382	33.42
777.56	35.71
777.737	39.08
777.914	39.81
778.091	39.5
778.268	39.85
778.445	38.35
778.622	35.2
778.8	36.05
778.977	36.19
779.154	37.91
779.331	37.5
779.508	36.15
779.685	33.58
779.862	32.62
780.038	32.3
780.215	36.09
780.392	35.58
780.569	36.74
780.746	36.73
780.923	35.83
781.1	34.18
781.277	34.63
781.453	34.43
781.63	32.23
781.807	36.07
781.984	36.84
782.16	34.81
782.337	35.29
782.514	35.53
782.691	34.95
782.867	35.66
783.044	37.86
783.221	37.24
783.397	37.06
783.574	38.44
783.75	35.91
783.927	37.22
784.103	35.32
784.28	34.07
784.456	36.17
784.633	37.06
784.809	37.35
784.986	34.36
785.162	36.37
785.339	34.09
785.515	33.14
785.692	32.15
785.868	30.61
786.044	31.55
786.221	31.86
786.397	32.65
786.573	32.54
786.749	34
786.926	35.7
787.102	35.99
787.278	40.06
787.454	44.68
787.631	45.26
787.807	44.07
787.983	44.68
788.159	46.04
788.335	44.7
788.511	43.67
788.687	42.9
788.863	43.89
789.039	43.66
789.216	42.29
789.392	39.4
789.568	36.96
789.744	37.72
789.919	37.21
790.095	36.09
790.271	36.44
790.447	38.28
790.623	37.99
790.799	36.94
790.975	34.98
791.151	34.16
791.327	33.55
791.502	35.2
791.678	35.64
791.854	37.21
792.03	36.01
792.205	34.28
792.381	32.15
792.557	30.66
792.733	28.47
792.908	29.37
793.084	32
793.259	31.57
793.435	30
793.611	28.68
793.786	26.78
793.962	26.76
794.137	28.07
794.313	29.37
794.488	31.96
794.664	34.07
794.839	32.55
795.015	31.6
795.19	29.14
795.366	32.58
795.541	32.34
795.716	31.3
795.892	31.65
796.067	31.87
796.242	31.85
796.418	29.91
796.593	29.4
796.768	29.2
796.944	26.5
797.119	28.4
797.294	27.39
797.469	28.83
797.644	29.27
797.82	31.38
797.995	31.81
798.17	31.85
798.345	33.09
798.52	34.64
798.695	35.54
798.87	35.36
799.045	36.16
799.22	35.68
799.395	36.64
799.57	38.19
799.745	37.92
799.92	36.28
800.095	35.42
800.27	32.99
800.445	31.81
800.62	29.83
800.795	30.78
800.97	32.51
801.145	32.14
801.319	28.83
801.494	26.89
801.669	27.73
801.844	28.39
802.018	27.78
802.193	28.2
802.368	25.86
802.543	27.09
802.717	30.74
802.892	28.12
803.067	32.67
803.241	35.43
803.416	37.47
803.59	39.07
803.765	37.51
803.94	39.49
804.114	38.9
804.289	40.94
804.463	41.86
804.638	38.3
804.812	38.64
804.986	35.03
805.161	34.95
805.335	36.02
805.51	34.13
805.684	33.89
805.858	34.82
806.033	37.68
806.207	35.47
806.381	37.75
806.556	40.1
806.73	40.04
806.904	43.18
807.078	46
807.253	43.15
807.427	42.16
807.601	42.41
807.775	40.93
807.949	40.33
808.123	41.08
808.298	39.46
808.472	36.38
808.646	36.95
808.82	34.5
808.994	30.88
809.168	32.36
809.342	33.27
809.516	35.38
809.69	35.1
809.864	34.83
810.038	36.21
810.212	36.95
810.385	37.18
810.559	37.15
810.733	31.51
810.907	31.78
811.081	28.67
811.255	27.96
811.428	24.76
811.602	21.19
811.776	20.63
811.95	22.17
812.123	23.35
812.297	23.87
812.471	26.72
812.644	32.63
812.818	29.92
812.992	34.48
813.165	32.04
813.339	33.85
813.512	37.49
813.686	37.46
813.86	36.68
814.033	36.51
814.207	38.94
814.38	38.15
814.554	38.18
814.727	43.41
814.9	42.91
815.074	42.9
815.247	41.14
815.421	39.56
815.594	42.15
815.767	39.47
815.941	36.69
816.114	36.99
816.287	34.23
816.46	34.91
816.634	31.16
816.807	31.41
816.98	32.51
817.153	33.7
817.327	36.63
817.5	33.05
817.673	35.5
817.846	37.19
818.019	39.65
818.192	42.74
818.365	41.17
818.538	41.73
818.711	37.8
818.884	40.24
819.057	38.38
819.23	36.3
819.403	36.41
819.576	36.24
819.749	36.47
819.922	32.94
820.095	31.79
820.268	31.66
820.441	31.82
820.614	34.87
820.786	34.47
820.959	37.79
821.132	37.05
821.305	36.38
821.477	35.62
821.65	36.33
821.823	35.7
821.996	36.32
822.168	36.6
822.341	36.83
822.514	36.4
822.686	36.49
822.859	35.57
823.031	35.76
823.204	35.81
823.376	35.79
823.549	35.52
823.722	35.93
823.894	35.59
824.067	35.43
824.239	35.32
824.411	34.76
824.584	34.67
824.756	35.05
824.929	34.87
825.101	35.14
825.273	35.52
825.446	34.99
825.618	35.33
825.79	35.25
825.963	35.59
826.135	35.25
826.307	36.58
826.479	36.14
826.652	35.98
826.824	36.55
826.996	36.99
827.168	37.47
827.34	37.69
827.512	37.89
827.684	38.47
827.856	37.75
828.029	37.58
828.201	36.74
828.373	37.25
828.545	36.5
828.717	36.5
828.889	34.97
829.061	35.12
829.232	34.78
829.404	34.03
829.576	32.27
829.748	32.01
829.92	33.28
830.092	32.41
830.264	30.57
830.436	31.09
830.607	30.96
830.779	32.88
830.951	31.12
831.123	32.5
831.294	32.67
831.466	32.55
831.638	33.83
831.809	30.78
831.981	30.97
832.153	32.3
832.324	29.64
832.496	29.59
832.667	31.68
832.839	34.18
833.011	31.35
833.182	29.53
833.354	30.7
833.525	30.95
833.697	30.74
833.868	30.36
834.039	30.79
834.211	33.45
834.382	32.67
834.554	31.8
834.725	30.62
834.896	31.03
835.068	31.68
835.239	32.13
835.41	31.91
835.581	32.47
835.753	34.05
835.924	33.91
836.095	32.92
836.266	34.96
836.438	33.46
836.609	33.89
836.78	34.03
836.951	35.07
837.122	35.25
837.293	34.28
837.464	34.78
837.635	36.69
837.806	34.22
837.977	35.38
838.148	36.14
838.319	35.55
838.49	35.77
838.661	35.5
838.832	37.7
839.003	38.04
839.174	39.39
839.345	42.97
839.516	39.99
839.687	44.94
839.857	39.21
840.028	37.55
840.199	41.01
840.37	42.7
840.54	46.84
840.711	44.91
840.882	46.69
841.053	48.39
841.223	45.21
841.394	46.47
841.564	48.39
841.735	56.43
841.906	51.14
842.076	48.67
842.247	42.75
842.417	37.2
842.588	39.35
842.758	38.29
842.929	36.71
843.099	41.02
843.27	36.87
843.44	37.85
843.611	37.18
843.781	44.26
843.951	44.99
844.122	47.6
844.292	45.08
844.462	43.8
844.633	41.25
844.803	38.31
844.973	34.02
845.144	38.6
845.314	33.54
845.484	30.39
845.654	26.41
845.824	26.55
845.995	26.52
846.165	34.33
846.335	31.37
846.505	31.69
846.675	37.04
846.845	35.55
847.015	35.01
847.185	46.99
847.355	49.4
847.525	45.25
847.695	51.66
847.865	58.47
848.035	52.2
848.205	43.65
848.375	50.94
848.545	51.5
848.715	55.54
848.884	52.32
849.054	44.45
849.224	47.53
849.394	52.15
849.564	55.4
849.733	51.11
849.903	45.96
850.073	43.5
850.243	39.87
850.412	42.8
850.582	39.41
850.752	34.55
850.921	21.02
851.091	9.74
851.26	6.57
851.43	-2.78
851.599	1.53
851.769	5.6
851.939	20.08
852.108	13.05
852.278	11.95
852.447	12.87
852.616	15.77
852.786	31.73
852.955	38.6
853.125	42.97
853.294	41.65
853.463	39.49
853.633	41.9
853.802	47.52
853.971	65.54
854.141	65.81
854.31	68.06
854.479	61.62
854.648	80.44
854.818	78.66
854.987	56.26
855.156	61.37
855.325	58.07
855.494	63.5
855.663	46.62
855.832	43.34
856.001	35.72
856.171	23.03
856.34	24.26
856.509	20.94
856.678	22.54
856.847	38
857.016	40.37
857.185	48.01
857.353	53.12
857.522	64.44
857.691	59.46
857.86	52.79
858.029	68.05
858.198	74.62
858.367	73.82
858.535	61.58
858.704	55.92
858.873	60.25
859.042	52.75
859.21	42.4
859.379	29.9
859.548	17.46
859.717	26.83
859.885	23.8
860.054	21.43
860.222	-1.61
860.391	-0.56
860.56	12.12
860.728	7.53
860.897	12.7
861.065	8.41
861.234	16.29
861.402	26
861.571	27.17
861.739	39.25
861.908	37.87
862.076	61.59
862.244	67.69
862.413	63.87
862.581	71.49
862.749	68.58
862.918	67.06
863.086	66.48
863.254	75.52
863.423	87.16
863.591	71.57
863.759	76.45
863.927	64.28
864.096	62
864.264	51.96
864.432	52.76
864.6	54.38
864.768	60.8
864.936	60.73
865.104	50.71
865.272	49.04
865.44	52
865.608	47.96
865.776	51
865.944	50.8
866.112	52.81
866.28	48.59
866.448	36.5
866.616	42.98
866.784	41.54
866.952	47.28
867.12	51.08
867.288	35.12
867.455	33.14
867.623	13.62
867.791	9.71
867.959	20.42
868.127	1.25
868.294	33.57
868.462	29.78
868.63	14.94
868.797	1.24
868.965	-7.36
869.133	6.21
869.3	10.24
869.468	31.62
869.636	33.81
869.803	32.1
869.971	30.98
870.138	24.98
870.306	26.79
870.473	36.91
870.641	33.48
870.808	27.55
870.975	25.12
871.143	23.96
871.31	19.23
871.478	3.58
871.645	8.21
871.812	23.27
871.98	34.59
872.147	18.34
872.314	19.71
872.482	28.51
872.649	38.52
872.816	43.4
872.983	46.6
873.15	56.67
873.318	65.27
873.485	62.34
873.652	53.33
873.819	49.03
873.986	61.03
874.153	65.29
874.32	62.99
874.487	69.81
874.654	83.44
874.821	91.96
874.988	88.51
875.155	94.5
875.322	80.52
875.489	87
875.656	73.9
875.823	68.64
875.99	63.21
876.157	72.91
876.324	67.41
876.49	59.71
876.657	57.66
876.824	49.71
876.991	46.45
877.157	48.41
877.324	51.2
877.491	52.49
877.658	48.79
877.824	45.97
877.991	38.26
878.157	35.71
878.324	31.62
878.491	27.92
878.657	29.64
878.824	31.58
878.99	23.62
879.157	25
879.323	23.61
879.49	23.39
879.656	25.49
879.823	27.93
879.989	31.9
880.156	37.52
880.322	40.24
880.488	41.8
880.655	46.65
880.821	51.26
880.987	56.17
881.154	50.08
881.32	58.22
881.486	55.3
881.652	57.46
881.819	57.08
881.985	51.22
882.151	49.76
882.317	47.61
882.483	46.25
882.649	50.14
882.816	44.04
882.982	45.24
883.148	41.87
883.314	41.12
883.48	38.13
883.646	37.55
883.812	38.9
883.978	38.86
884.144	38.71
884.31	38.4
884.476	35.55
884.642	36.09
884.807	35.53
884.973	34.07
885.139	34.4
885.305	34.87
885.471	33.59
885.637	32.67
885.802	33.25
885.968	35.43
886.134	35.77
886.3	38.14
886.465	38.19
886.631	40.3
886.797	45.45
886.962	47.31
887.128	48.84
887.293	55.51
887.459	53.17
887.625	55.86
887.79	52.62
887.956	48.12
888.121	45.85
888.287	49.72
888.452	49.65
888.618	41.86
888.783	39.18
