Data from CB_070_Reflection_2.txt Node
Date: Sat Nov 14 11:01:51 EST 2015
User: robert
Spectrometer: USB4E03001
Autoset integration time: false
Trigger mode: 4
Integration Time (sec): 1.000000E-1
Scans to average: 15
Electric dark correction enabled: true
Nonlinearity correction enabled: false
Boxcar width: 5
Stray light correction enabled: false
XAxis mode: Wavelengths
Stop averaging: false
Number of Pixels in Spectrum: 3648
>>>>>Begin Spectral Data<<<<<
177.566	-156.19
177.785	-201.47
178.005	-889.15
178.225	-112.46
178.445	-206.03
178.665	-267.63
178.885	194.07
179.105	-84.76
179.324	-164.89
179.544	-411.38
179.764	-107.8
179.984	-126.55
180.204	-111.66
180.423	-539.67
180.643	-265.74
180.863	-479.32
181.083	-1737.24
181.302	-10450.79
181.522	1126.92
181.742	1108.04
181.961	1292.34
182.181	228.97
182.401	197.47
182.621	345.69
182.84	1405.41
183.06	-4058.31
183.279	-512.58
183.499	-352.37
183.719	-412.85
183.938	-258.77
184.158	-207.29
184.377	-201.76
184.597	-92.25
184.816	-44.28
185.036	-85.23
185.256	-126.54
185.475	-402.45
185.695	-287.43
185.914	-318.14
186.134	-242.96
186.353	-227.62
186.572	-156.17
186.792	-327.88
187.011	2566.81
187.231	-1552.92
187.45	-329.24
187.67	-1332.56
187.889	734.75
188.108	379.32
188.328	313.55
188.547	252.68
188.766	233.43
188.986	224.77
189.205	223.37
189.424	241.24
189.644	215.31
189.863	274.78
190.082	297.93
190.302	369.58
190.521	352.29
190.74	368.06
190.959	1558.2
191.178	1281.06
191.398	1022
191.617	2701.18
191.836	9868.28
192.055	1737.11
192.274	475.57
192.494	701.99
192.713	25696.43
192.932	-1751.53
193.151	303850
193.37	442.72
193.589	-12170.8
193.808	-998.97
194.027	-1926.33
194.246	3609.09
194.465	-2540.32
194.685	612.87
194.904	506.91
195.123	338.16
195.342	338.12
195.561	270.77
195.78	730.96
195.999	1185.69
196.218	584.77
196.436	9.27
196.655	126.55
196.874	96.51
197.093	186.86
197.312	209.06
197.531	348.67
197.75	419.67
197.969	1192.95
198.188	223.83
198.407	206.88
198.625	192.85
198.844	325.98
199.063	443.34
199.282	891.95
199.501	-4625.78
199.719	-1889.07
199.938	857.86
200.157	568.94
200.376	-3397.6
200.594	-278.84
200.813	-767.39
201.032	-2098.81
201.251	-1007.24
201.469	-1042.44
201.688	-1848.11
201.907	3950.86
202.125	1469.91
202.344	6278.42
202.563	32253.62
202.781	1850.22
203	555.62
203.218	443.76
203.437	722.19
203.656	517.46
203.874	1266.9
204.093	1212.63
204.311	752.04
204.53	2025.72
204.748	500.14
204.967	675.19
205.185	495.47
205.404	627.18
205.622	840.62
205.841	420.01
206.059	325.47
206.278	275.13
206.496	404.32
206.715	600.89
206.933	452.74
207.151	522.51
207.37	370.74
207.588	463.83
207.806	536
208.025	625.64
208.243	1135.99
208.461	-89340.91
208.68	2490.11
208.898	1087
209.116	637.74
209.335	470.4
209.553	478.91
209.771	364.96
209.989	296.14
210.208	248.05
210.426	242.66
210.644	217.24
210.862	200.85
211.081	196.94
211.299	167.95
211.517	217.64
211.735	184.24
211.953	162.1
212.171	190.36
212.39	209.57
212.608	212.67
212.826	212.21
213.044	177.63
213.262	169.18
213.48	190.07
213.698	291.16
213.916	132.08
214.134	252.49
214.352	577.15
214.57	333.77
214.788	279.38
215.006	241.65
215.224	411.61
215.442	1130.45
215.66	2050.31
215.878	549.79
216.096	157.31
216.314	698.05
216.532	2497.46
216.75	-517.28
216.968	-1000
217.185	-8892.04
217.403	1850.48
217.621	-119588.89
217.839	-753.37
218.057	-29897.92
218.275	-971.63
218.492	-217.09
218.71	-4021.72
218.928	2337.23
219.146	1383.67
219.363	761.15
219.581	901.36
219.799	-5709.97
220.017	566.84
220.234	695.81
220.452	628.76
220.67	1072.97
220.887	429.69
221.105	651.26
221.323	405.02
221.54	265.45
221.758	269.38
221.976	239.58
222.193	163.15
222.411	151.78
222.629	146.03
222.846	146.93
223.064	115.56
223.281	133.83
223.499	148.89
223.716	135.65
223.934	130.56
224.151	117.76
224.369	122.52
224.586	148.84
224.804	187.44
225.021	178.6
225.239	181.84
225.456	181.09
225.674	155.35
225.891	139.64
226.108	140.43
226.326	131.45
226.543	128.68
226.76	117.19
226.978	93.85
227.195	85.57
227.413	75.28
227.63	70.23
227.847	71.3
228.064	68.28
228.282	61.41
228.499	57.94
228.716	54.58
228.934	53.34
229.151	50.74
229.368	49.53
229.585	46.99
229.802	46.83
230.02	47.43
230.237	44.34
230.454	41.6
230.671	45.26
230.888	47.91
231.105	49.65
231.323	51.98
231.54	56.05
231.757	59.96
231.974	66.68
232.191	66.48
232.408	66.75
232.625	71.03
232.842	67.7
233.059	58.68
233.276	54.67
233.493	55.86
233.71	52.9
233.927	47.68
234.144	47.41
234.361	46.12
234.578	50.71
234.795	49.24
235.012	46.58
235.229	46.38
235.446	54.49
235.663	54.35
235.879	52.67
236.096	60.25
236.313	69.06
236.53	64.68
236.747	65.93
236.964	60
237.181	62.06
237.397	59.76
237.614	70.21
237.831	73.52
238.048	70.56
238.264	67.79
238.481	62.98
238.698	53.73
238.915	58.83
239.131	50.07
239.348	51.09
239.565	47.17
239.781	44.76
239.998	40.22
240.215	34.31
240.431	33.88
240.648	37.34
240.865	32.41
241.081	32.53
241.298	29.9
241.514	32.3
241.731	30.62
241.947	30.01
242.164	30.27
242.38	26.5
242.597	24.86
242.814	23.98
243.03	25.19
243.246	26.58
243.463	25.31
243.679	25.42
243.896	25
244.112	23.77
244.329	23.71
244.545	26.62
244.762	29.84
244.978	30.34
245.194	29.93
245.411	24.08
245.627	22.72
245.843	24.08
246.06	23.28
246.276	21.79
246.492	24.57
246.709	24.46
246.925	22.08
247.141	22.63
247.357	22.88
247.574	23.75
247.79	23.47
248.006	22.83
248.222	23.14
248.439	23.07
248.655	22.74
248.871	20.33
249.087	21.06
249.303	22.2
249.519	22.33
249.736	23.55
249.952	22.64
250.168	27.05
250.384	29.08
250.6	29.23
250.816	29.91
251.032	32.66
251.248	32.77
251.464	30.94
251.68	30.14
251.896	25.9
252.112	24.37
252.328	23.56
252.544	22.89
252.76	23.91
252.976	21.93
253.192	21.96
253.408	20.97
253.624	23.84
253.84	22.43
254.056	22.25
254.272	24.87
254.487	24.94
254.703	27.03
254.919	25.73
255.135	24.06
255.351	26.17
255.567	25.48
255.782	27.31
255.998	28.36
256.214	30.13
256.43	31.38
256.646	33.06
256.861	32.01
257.077	28.96
257.293	26.82
257.508	25.56
257.724	24.75
257.94	21.96
258.155	21.12
258.371	18.62
258.587	17.84
258.802	17.34
259.018	15.72
259.234	15.04
259.449	14.32
259.665	15.48
259.88	15.86
260.096	15.87
260.312	16.49
260.527	16.33
260.743	16.33
260.958	16.4
261.174	17.11
261.389	18.77
261.605	19.82
261.82	20.6
262.036	20.41
262.251	20.26
262.466	20.94
262.682	21.01
262.897	22.08
263.113	23.09
263.328	22.37
263.543	21.71
263.759	21.03
263.974	19.74
264.189	19.91
264.405	19.66
264.62	20.93
264.835	21.08
265.051	22.09
265.266	21.53
265.481	22.21
265.696	27.21
265.912	24.23
266.127	20.61
266.342	20.53
266.557	21.46
266.773	21.31
266.988	20.35
267.203	19.39
267.418	19.36
267.633	19.62
267.848	18.51
268.064	13.87
268.279	14.39
268.494	14.8
268.709	14.82
268.924	15.2
269.139	14.05
269.354	13.65
269.569	12.82
269.784	12.44
269.999	12.4
270.214	14.11
270.429	15.29
270.644	17.6
270.859	17.32
271.074	17.93
271.289	18.04
271.504	18.89
271.719	19.1
271.934	19.44
272.149	18.69
272.363	20.03
272.578	17.48
272.793	17.81
273.008	16.72
273.223	16.84
273.438	16.6
273.653	16.47
273.867	16.15
274.082	16.25
274.297	16.87
274.512	18.55
274.726	16.6
274.941	18.11
275.156	18.58
275.371	17.52
275.585	19.68
275.8	20.68
276.015	18.98
276.229	19.09
276.444	20.15
276.659	19.3
276.873	18.04
277.088	18.86
277.302	19.09
277.517	17.75
277.732	19.23
277.946	19.78
278.161	20.39
278.375	21.13
278.59	20.5
278.804	19.54
279.019	20.58
279.233	19.44
279.448	17.25
279.662	17.03
279.877	17.86
280.091	14.45
280.306	12.11
280.52	9.58
280.735	10.82
280.949	12.68
281.163	12.11
281.378	11.49
281.592	13.29
281.806	14.82
282.021	14.02
282.235	13.57
282.449	15.77
282.664	16.06
282.878	17.44
283.092	16.73
283.307	15.91
283.521	15.81
283.735	16.36
283.949	15.68
284.164	13.99
284.378	14.54
284.592	15.79
284.806	15.26
285.02	15.37
285.234	13.59
285.449	13.8
285.663	14.46
285.877	14.04
286.091	13.76
286.305	14.7
286.519	16.3
286.733	15.42
286.947	14.11
287.161	14.75
287.375	14.74
287.589	17.06
287.803	18.03
288.017	16.63
288.231	18.1
288.445	19.16
288.659	18.2
288.873	18.45
289.087	20.18
289.301	21.89
289.515	21.05
289.729	20.47
289.943	19.46
290.157	19.05
290.371	19.25
290.584	18.62
290.798	18.26
291.012	18.06
291.226	17.01
291.44	17.06
291.654	16.12
291.867	16.42
292.081	17.17
292.295	17.49
292.509	17.29
292.722	17.3
292.936	16.5
293.15	16.08
293.364	16.16
293.577	15.47
293.791	16.11
294.005	15.43
294.218	15.7
294.432	15.86
294.645	16.5
294.859	16.09
295.073	16.84
295.286	16.87
295.5	17.89
295.713	17.73
295.927	18.4
296.14	16.84
296.354	17.29
296.568	16.89
296.781	16.39
296.994	15.77
297.208	15.62
297.421	15.49
297.635	16.43
297.848	15.54
298.062	15.72
298.275	16.23
298.489	17.21
298.702	17.42
298.915	17
299.129	17.04
299.342	16.82
299.555	17.42
299.769	17.78
299.982	17.07
300.195	16.85
300.409	16.77
300.622	16.29
300.835	15.32
301.048	15.57
301.262	15.28
301.475	16.18
301.688	16.35
301.901	16.53
302.115	16.91
302.328	17.33
302.541	17.98
302.754	18.49
302.967	19.22
303.18	20.52
303.393	20.47
303.607	21.56
303.82	22.47
304.033	23.43
304.246	22.6
304.459	22.05
304.672	23.88
304.885	24.54
305.098	24.7
305.311	25.14
305.524	24.52
305.737	23.58
305.95	23.94
306.163	22.3
306.376	21.14
306.589	22.43
306.802	22.26
307.015	20.84
307.228	20.64
307.44	20.36
307.653	18.8
307.866	19.65
308.079	20.69
308.292	20.02
308.505	20.22
308.718	20.67
308.93	20.97
309.143	21.53
309.356	21.91
309.569	21.37
309.781	21.35
309.994	22.01
310.207	20.74
310.42	20.52
310.632	20.83
310.845	21.09
311.058	20.4
311.27	19.97
311.483	19.91
311.696	19.03
311.908	18.66
312.121	19.59
312.333	19.77
312.546	18.86
312.759	18.6
312.971	18.6
313.184	19.36
313.396	20.25
313.609	20.04
313.821	20.46
314.034	20.89
314.246	21.04
314.459	20.1
314.671	19.58
314.884	21.42
315.096	22.48
315.309	23.23
315.521	22.93
315.733	22.17
315.946	22.05
316.158	22.05
316.371	22.4
316.583	21.77
316.795	21.61
317.008	22.07
317.22	22.05
317.432	20.91
317.644	21.02
317.857	20.76
318.069	22.03
318.281	22.07
318.494	21.76
318.706	21.24
318.918	22.48
319.13	21.78
319.342	20.75
319.555	19.66
319.767	19.88
319.979	18.32
320.191	17.6
320.403	17.16
320.615	16.99
320.827	17.22
321.039	17.77
321.252	18.66
321.464	19.58
321.676	19.72
321.888	20.72
322.1	20.88
322.312	21.29
322.524	22.73
322.736	22.05
322.948	23.1
323.16	23.21
323.372	23.17
323.584	21.81
323.796	21.65
324.007	21.83
324.219	22.83
324.431	23.38
324.643	24.4
324.855	25.23
325.067	25.49
325.279	24.8
325.491	24.45
325.702	24.5
325.914	24.29
326.126	25.16
326.338	24.07
326.55	24.21
326.761	24.11
326.973	24
327.185	22.12
327.396	23.44
327.608	23.19
327.82	23.11
328.032	23.53
328.243	24.42
328.455	23.98
328.666	26
328.878	26.18
329.09	26.65
329.301	26.81
329.513	27.31
329.725	26.17
329.936	27.15
330.148	27.39
330.359	28.23
330.571	29.22
330.782	28.48
330.994	29.75
331.205	28.84
331.417	29.09
331.628	28.46
331.84	29.6
332.051	30.45
332.262	30.47
332.474	29.73
332.685	29.27
332.897	28.98
333.108	30.19
333.319	28.16
333.531	29.83
333.742	29.18
333.953	28.62
334.165	27.33
334.376	28.41
334.587	29.37
334.799	29.56
335.01	28.54
335.221	28.18
335.432	27.22
335.644	27.75
335.855	27.12
336.066	27.75
336.277	28.82
336.488	29.54
336.7	28.56
336.911	28.68
337.122	28.99
337.333	30.12
337.544	30.65
337.755	32.1
337.966	32.34
338.177	31.96
338.388	32.1
338.599	32.37
338.811	31.81
339.022	31.17
339.233	30.6
339.444	30.4
339.655	28.86
339.866	29.02
340.076	28.46
340.287	28.13
340.498	28.02
340.709	28.17
340.92	27.77
341.131	27.89
341.342	28.34
341.553	26.13
341.764	27.27
341.975	28.24
342.185	28.17
342.396	28.43
342.607	28.45
342.818	28.62
343.029	27.43
343.239	28.02
343.45	27.56
343.661	27.65
343.872	28.18
344.082	27.04
344.293	27.36
344.504	27.11
344.714	27.01
344.925	27.24
345.136	26.55
345.346	25.83
345.557	25.54
345.768	25.57
345.978	25.67
346.189	26.17
346.399	25.57
346.61	24.98
346.821	24.95
347.031	25.02
347.242	25.67
347.452	25.75
347.663	26.84
347.873	26.75
348.084	27.24
348.294	26.82
348.504	27.16
348.715	28.09
348.925	27.75
349.136	26.65
349.346	26.01
349.557	24.89
349.767	26.13
349.977	25.83
350.188	25.88
350.398	26.25
350.608	25.73
350.819	26.99
351.029	26.07
351.239	27.32
351.449	27.39
351.66	27.25
351.87	27.75
352.08	26.75
352.29	27.2
352.501	27.37
352.711	27.33
352.921	27.85
353.131	26.18
353.341	26.63
353.552	25.62
353.762	25.77
353.972	25.46
354.182	25.03
354.392	24.71
354.602	25.06
354.812	24.26
355.022	23.4
355.232	23.87
355.442	24.6
355.652	24.79
355.862	24.94
356.072	25.4
356.282	24.63
356.492	24.8
356.702	24.74
356.912	23.95
357.122	24.54
357.332	24.73
357.542	23.91
357.752	23.58
357.962	23.56
358.171	23.16
358.381	22.88
358.591	23.89
358.801	24.21
359.011	23.84
359.221	24.45
359.43	23.83
359.64	23.17
359.85	23.04
360.06	23.08
360.269	22.58
360.479	23.12
360.689	23.42
360.899	22.89
361.108	22.45
361.318	22.72
361.528	22.09
361.737	22.12
361.947	22.74
362.156	23.48
362.366	23.05
362.576	23.48
362.785	22.81
362.995	22.63
363.204	22.74
363.414	23.01
363.623	22.93
363.833	23.56
364.042	24.11
364.252	24.07
364.461	23.31
364.671	23.8
364.88	23.57
365.09	24.8
365.299	25.14
365.509	25.84
365.718	25.3
365.927	25.8
366.137	25.18
366.346	24.31
366.555	24.29
366.765	24.8
366.974	24.83
367.183	24.82
367.393	23.24
367.602	22.24
367.811	22.17
368.021	22.46
368.23	22.39
368.439	22.3
368.648	22.42
368.857	21.96
369.067	21.23
369.276	20.89
369.485	20.94
369.694	21.71
369.903	22.35
370.112	21.9
370.321	21.54
370.531	20.61
370.74	20.62
370.949	20.62
371.158	20.75
371.367	20.76
371.576	20.5
371.785	20.01
371.994	20.5
372.203	20.57
372.412	20.21
372.621	20.83
372.83	21.19
373.039	21.35
373.248	21.52
373.457	21.36
373.666	21.4
373.874	21.56
374.083	22.12
374.292	21.52
374.501	21.36
374.71	21.54
374.919	20.73
375.128	19.99
375.336	20.13
375.545	20.29
375.754	20.65
375.963	20.85
376.171	20.51
376.38	19.89
376.589	19.95
376.798	19.17
377.006	19.38
377.215	19.47
377.424	19.54
377.632	18.81
377.841	18.56
378.05	18.41
378.258	18.19
378.467	18.02
378.675	18.2
378.884	18.09
379.093	18.23
379.301	17.9
379.51	17.91
379.718	18.43
379.927	18.49
380.135	18.47
380.344	17.81
380.552	17.61
380.761	17.59
380.969	17.37
381.177	16.73
381.386	17.87
381.594	17.59
381.803	17.47
382.011	17.4
382.219	17.45
382.428	17.34
382.636	17.63
382.845	16.74
383.053	16.58
383.261	16.33
383.469	16.91
383.678	16.01
383.886	15.86
384.094	16.07
384.302	15.98
384.511	15.92
384.719	15.98
384.927	16.07
385.135	16.71
385.343	16.56
385.552	16.97
385.76	16.6
385.968	16.41
386.176	16.3
386.384	15.22
386.592	14.54
386.8	14.48
387.008	14.49
387.216	14.2
387.424	14.44
387.633	14.62
387.841	14.3
388.049	14.52
388.257	14.79
388.465	14.65
388.672	15.11
388.88	15.48
389.088	15.26
389.296	14.93
389.504	14.59
389.712	14.13
389.92	14.07
390.128	14.2
390.336	14.03
390.544	13.58
390.751	13.77
390.959	13.97
391.167	13.85
391.375	13.98
391.583	13.78
391.79	13.85
391.998	14.22
392.206	14.05
392.414	13.75
392.621	13.66
392.829	13.94
393.037	13.62
393.244	13.15
393.452	13.31
393.66	13.26
393.867	13.41
394.075	13.52
394.283	13.29
394.49	13.2
394.698	13.15
394.905	13.13
395.113	13.16
395.32	13.04
395.528	13.57
395.735	13.45
395.943	13.48
396.15	13.07
396.358	12.74
396.565	12.37
396.773	12.41
396.98	12.69
397.188	12.57
397.395	12.59
397.602	12.69
397.81	11.85
398.017	11.61
398.225	11.55
398.432	11.72
398.639	11.7
398.847	11.73
399.054	11.96
399.261	11.28
399.468	11.16
399.676	10.8
399.883	10.73
400.09	11.26
400.297	11.09
400.505	10.96
400.712	11.16
400.919	11.39
401.126	11.57
401.333	11.27
401.54	11.63
401.748	11.2
401.955	10.89
402.162	10.94
402.369	11
402.576	11.21
402.783	10.94
402.99	10.48
403.197	10.05
403.404	9.57
403.611	9.63
403.818	9.63
404.025	9.93
404.232	10.2
404.439	10.24
404.646	9.82
404.853	9.71
405.06	9.54
405.267	9.75
405.474	10.04
405.681	10.57
405.887	10.46
406.094	10.81
406.301	10.72
406.508	10.81
406.715	10.75
406.922	11
407.128	11.16
407.335	11.3
407.542	11.05
407.749	10.99
407.955	10.97
408.162	10.93
408.369	10.27
408.575	10.45
408.782	10.12
408.989	9.94
409.195	9.74
409.402	9.96
409.609	9.81
409.815	9.79
410.022	9.98
410.228	9.59
410.435	9.79
410.642	9.99
410.848	10
411.055	9.88
411.261	9.77
411.468	10
411.674	9.62
411.881	9.87
412.087	9.92
412.294	9.6
412.5	9.82
412.706	9.72
412.913	9.64
413.119	9.5
413.326	9.48
413.532	9.72
413.738	9.7
413.945	9.25
414.151	9.47
414.357	9.47
414.564	9.61
414.77	9.5
414.976	9.27
415.182	9.49
415.389	9.39
415.595	9.3
415.801	9.25
416.007	9.29
416.214	9.47
416.42	9.4
416.626	9.22
416.832	9.17
417.038	9.17
417.244	9.29
417.45	8.89
417.657	8.79
417.863	8.56
418.069	8.51
418.275	8.28
418.481	8.29
418.687	8.18
418.893	8.23
419.099	8.12
419.305	8.07
419.511	7.92
419.717	7.97
419.923	8.08
420.129	8.3
420.335	8.37
420.541	8.41
420.746	8.27
420.952	8.21
421.158	8.25
421.364	8.11
421.57	7.98
421.776	7.96
421.982	8.1
422.187	7.97
422.393	7.82
422.599	7.75
422.805	7.83
423.01	7.89
423.216	7.81
423.422	7.79
423.628	7.93
423.833	8.01
424.039	8.05
424.245	8.05
424.45	8.13
424.656	8.06
424.862	7.96
425.067	7.78
425.273	7.86
425.478	7.91
425.684	7.86
425.889	7.95
426.095	7.88
426.301	7.85
426.506	7.72
426.712	7.81
426.917	8.01
427.123	8
427.328	8.1
427.533	8.09
427.739	8.25
427.944	8.26
428.15	7.97
428.355	7.87
428.561	7.95
428.766	7.88
428.971	7.48
429.177	7.29
429.382	7.42
429.587	7.64
429.793	7.66
429.998	7.57
430.203	7.47
430.408	7.63
430.614	7.76
430.819	7.68
431.024	7.55
431.229	7.78
431.434	8.08
431.64	8.05
431.845	7.97
432.05	8
432.255	7.86
432.46	7.86
432.665	7.78
432.87	7.66
433.076	7.63
433.281	7.73
433.486	7.67
433.691	7.45
433.896	7.39
434.101	7.3
434.306	7.24
434.511	7.29
434.716	7.4
434.921	7.58
435.126	7.85
435.331	7.87
435.535	7.9
435.74	7.86
435.945	7.8
436.15	7.82
436.355	8
436.56	8.13
436.765	8.25
436.97	8.12
437.174	7.99
437.379	7.84
437.584	8.08
437.789	7.93
437.993	7.94
438.198	8.07
438.403	7.93
438.608	7.78
438.812	7.59
439.017	7.39
439.222	7.38
439.426	7.41
439.631	7.24
439.836	7.12
440.04	7.17
440.245	7.01
440.45	6.96
440.654	7.01
440.859	6.9
441.063	7.01
441.268	7.12
441.472	7.21
441.677	7.1
441.881	7.15
442.086	7.1
442.29	7.12
442.495	7.32
442.699	7.45
442.904	7.48
443.108	7.57
443.312	7.39
443.517	7.37
443.721	7.21
443.925	7.25
444.13	7.29
444.334	7.14
444.538	7.19
444.743	7.18
444.947	7.08
445.151	7.16
445.356	7.13
445.56	7.17
445.764	7.04
445.968	7.18
446.173	7.12
446.377	7.07
446.581	7.13
446.785	7.05
446.989	7.02
447.193	7.02
447.398	7.06
447.602	7.02
447.806	7.09
448.01	7.15
448.214	7.11
448.418	6.98
448.622	7.2
448.826	7.31
449.03	7.36
449.234	7.44
449.438	7.47
449.642	7.33
449.846	7.5
450.05	7.49
450.254	7.44
450.458	7.38
450.662	7.58
450.866	7.45
451.069	7.34
451.273	7.29
451.477	7.39
451.681	7.54
451.885	7.44
452.089	7.29
452.292	6.93
452.496	6.96
452.7	7.12
452.904	7.24
453.107	7.18
453.311	7.11
453.515	7.2
453.719	7.11
453.922	7.09
454.126	7.07
454.33	6.97
454.533	7.12
454.737	7.3
454.94	7.23
455.144	7.39
455.348	7.43
455.551	7.52
455.755	7.62
455.958	7.72
456.162	7.55
456.365	7.81
456.569	7.82
456.772	7.86
456.976	7.94
457.179	7.95
457.383	7.65
457.586	7.69
457.79	7.6
457.993	7.35
458.196	7.12
458.4	7.25
458.603	6.91
458.807	6.79
459.01	6.86
459.213	6.71
459.417	6.6
459.62	6.55
459.823	6.47
460.026	6.37
460.23	6.4
460.433	6.36
460.636	6.34
460.839	6.52
461.042	6.57
461.246	6.56
461.449	6.61
461.652	6.67
461.855	6.72
462.058	6.76
462.261	7.06
462.464	7.02
462.668	7.15
462.871	7.36
463.074	7.32
463.277	7.51
463.48	7.54
463.683	7.67
463.886	7.58
464.089	7.65
464.292	7.59
464.495	7.54
464.698	7.68
464.901	7.58
465.104	7.22
465.306	7.1
465.509	7.03
465.712	7.14
465.915	6.99
466.118	6.88
466.321	6.84
466.524	6.65
466.726	6.67
466.929	6.71
467.132	6.74
467.335	6.95
467.538	6.99
467.74	6.98
467.943	6.88
468.146	6.73
468.348	6.95
468.551	7
468.754	7.27
468.956	7.23
469.159	7.14
469.362	7.32
469.564	7.2
469.767	7.43
469.969	7.48
470.172	7.43
470.375	7.62
470.577	7.82
470.78	7.68
470.982	7.7
471.185	7.65
471.387	7.72
471.59	7.5
471.792	7.41
471.995	7.33
472.197	7.35
472.399	7.48
472.602	7.45
472.804	7.28
473.007	7.46
473.209	7.4
473.411	7.46
473.614	7.58
473.816	7.55
474.018	7.64
474.22	7.65
474.423	7.74
474.625	7.64
474.827	7.78
475.03	7.8
475.232	7.8
475.434	7.88
475.636	7.7
475.838	7.74
476.04	7.91
476.243	7.82
476.445	7.75
476.647	7.52
476.849	7.49
477.051	7.22
477.253	7.4
477.455	7.25
477.657	7.25
477.859	7.31
478.061	7.09
478.263	7.07
478.465	7.16
478.667	7.2
478.869	7.14
479.071	7.17
479.273	7.12
479.475	6.89
479.677	6.89
479.879	6.76
480.081	6.68
480.283	6.69
480.485	6.63
480.686	6.71
480.888	6.79
481.09	6.86
481.292	6.8
481.494	7.03
481.695	6.94
481.897	6.85
482.099	6.87
482.301	6.82
482.502	6.71
482.704	6.67
482.906	6.41
483.107	6.25
483.309	6.19
483.511	6.17
483.712	6.12
483.914	6.13
484.115	6.13
484.317	6.04
484.519	6.04
484.72	6.05
484.922	6.03
485.123	6.1
485.325	6.14
485.526	6.16
485.728	6.18
485.929	6.13
486.131	6.09
486.332	6.08
486.534	6.13
486.735	6.15
486.936	6.21
487.138	6.2
487.339	6.2
487.541	6.21
487.742	6.22
487.943	6.26
488.144	6.32
488.346	6.36
488.547	6.45
488.748	6.51
488.95	6.49
489.151	6.59
489.352	6.66
489.553	6.66
489.755	6.69
489.956	6.71
490.157	6.66
490.358	6.6
490.559	6.53
490.76	6.54
490.961	6.39
491.163	6.46
491.364	6.34
491.565	6.31
491.766	6.39
491.967	6.43
492.168	6.45
492.369	6.49
492.57	6.59
492.771	6.71
492.972	6.65
493.173	6.78
493.374	6.84
493.575	6.9
493.776	7
493.976	7.04
494.177	7.14
494.378	7.19
494.579	7.3
494.78	7.29
494.981	7.3
495.182	7.55
495.382	7.64
495.583	7.61
495.784	7.71
495.985	7.7
496.185	7.72
496.386	7.68
496.587	7.74
496.788	7.68
496.988	7.54
497.189	7.59
497.39	7.37
497.59	7.4
497.791	7.21
497.992	7.18
498.192	7.17
498.393	7.08
498.593	7.14
498.794	7.19
498.994	7.27
499.195	7.33
499.395	7.26
499.596	7.46
499.796	7.41
499.997	7.81
500.197	7.83
500.398	7.82
500.598	7.64
500.799	7.55
500.999	7.37
501.199	7.34
501.4	7.52
501.6	7.55
501.801	7.64
502.001	7.88
502.201	7.62
502.402	7.61
502.602	7.53
502.802	7.87
503.002	7.9
503.203	8.07
503.403	8.09
503.603	8.1
503.803	8.04
504.003	8.05
504.204	8.05
504.404	8.2
504.604	8.31
504.804	8.65
505.004	8.58
505.204	8.61
505.404	8.76
505.604	8.84
505.804	8.77
506.005	8.87
506.205	8.66
506.405	8.53
506.605	8.58
506.805	8.62
507.005	8.39
507.204	8.46
507.404	8.5
507.604	8.45
507.804	8.41
508.004	8.5
508.204	8.53
508.404	8.72
508.604	8.78
508.804	8.9
509.003	8.98
509.203	9.04
509.403	9.1
509.603	9.1
509.803	9.22
510.002	9.33
510.202	9.43
510.402	9.6
510.602	9.6
510.801	9.67
511.001	9.58
511.201	9.43
511.4	9.57
511.6	9.67
511.8	9.8
511.999	9.92
512.199	9.77
512.398	9.69
512.598	9.8
512.797	10.04
512.997	10.01
513.197	10.21
513.396	10.55
513.596	10.64
513.795	10.6
513.994	10.67
514.194	10.61
514.393	10.81
514.593	10.91
514.792	10.86
514.992	10.97
515.191	11.09
515.39	10.97
515.59	10.9
515.789	10.98
515.988	11.2
516.188	11.18
516.387	11.38
516.586	11.5
516.786	11.54
516.985	11.56
517.184	11.54
517.383	11.63
517.582	11.73
517.782	11.61
517.981	11.66
518.18	11.57
518.379	11.84
518.578	11.68
518.777	11.83
518.976	11.94
519.176	12.01
519.375	11.92
519.574	11.97
519.773	12.03
519.972	12.34
520.171	12.48
520.37	12.67
520.569	12.7
520.768	12.97
520.967	12.86
521.166	12.99
521.365	13.18
521.564	13.48
521.762	13.76
521.961	13.97
522.16	13.9
522.359	13.81
522.558	13.79
522.757	13.85
522.956	13.77
523.154	14.13
523.353	14.19
523.552	14.19
523.751	14.1
523.949	14.12
524.148	14.11
524.347	14.33
524.546	14.47
524.744	14.73
524.943	14.61
525.142	14.63
525.34	14.63
525.539	14.68
525.737	14.79
525.936	14.88
526.135	14.83
526.333	14.92
526.532	14.81
526.73	14.8
526.929	14.78
527.127	14.82
527.326	14.82
527.524	14.68
527.723	14.63
527.921	14.61
528.12	14.6
528.318	14.58
528.516	14.62
528.715	14.65
528.913	14.66
529.112	14.63
529.31	14.7
529.508	14.75
529.707	14.85
529.905	15.01
530.103	15.05
530.301	15.14
530.5	15.3
530.698	15.32
530.896	15.45
531.094	15.64
531.293	15.86
531.491	15.96
531.689	16.14
531.887	16.3
532.085	16.27
532.283	16.38
532.481	16.46
532.68	16.51
532.878	16.62
533.076	16.7
533.274	16.7
533.472	16.61
533.67	16.67
533.868	16.69
534.066	16.77
534.264	16.78
534.462	16.79
534.66	16.81
534.858	16.88
535.056	17.08
535.253	17.21
535.451	17.36
535.649	17.58
535.847	17.79
536.045	17.92
536.243	18.1
536.441	18.28
536.638	18.45
536.836	18.64
537.034	18.82
537.232	18.69
537.43	18.64
537.627	18.74
537.825	18.95
538.023	19.05
538.22	19.27
538.418	19.31
538.616	19.47
538.813	19.52
539.011	19.64
539.209	19.72
539.406	19.86
539.604	20.23
539.801	20.31
539.999	20.28
540.196	20.18
540.394	20.12
540.591	20.12
540.789	20.23
540.986	20.24
541.184	20.27
541.381	20.29
541.579	20.29
541.776	20.22
541.974	20.26
542.171	20.3
542.368	20.41
542.566	20.4
542.763	20.44
542.96	20.43
543.158	20.65
543.355	20.81
543.552	20.95
543.75	21.29
543.947	21.44
544.144	21.63
544.341	21.83
544.539	22.04
544.736	22.41
544.933	22.73
545.13	22.95
545.327	23.05
545.524	23.16
545.722	23.27
545.919	23.19
546.116	23.41
546.313	23.42
546.51	23.51
546.707	23.46
546.904	23.48
547.101	23.36
547.298	23.44
547.495	23.52
547.692	23.61
547.889	23.63
548.086	23.84
548.283	24.14
548.48	24.38
548.677	24.48
548.874	24.72
549.07	24.94
549.267	25.35
549.464	25.69
549.661	25.93
549.858	26.12
550.055	26.54
550.251	26.57
550.448	26.38
550.645	26.26
550.842	26.41
551.038	26.46
551.235	26.55
551.432	26.69
551.628	26.46
551.825	26.46
552.022	26.5
552.218	26.23
552.415	26.28
552.612	26.28
552.808	26.63
553.005	26.6
553.201	26.65
553.398	26.74
553.594	26.74
553.791	27.02
553.987	27.06
554.184	27.16
554.38	27.35
554.577	27.66
554.773	27.86
554.97	27.73
555.166	28.01
555.362	28.02
555.559	28.06
555.755	28.26
555.952	28.25
556.148	28.43
556.344	28.55
556.541	28.7
556.737	28.69
556.933	28.8
557.129	28.95
557.326	29.02
557.522	29.38
557.718	29.68
557.914	29.59
558.11	29.6
558.307	29.6
558.503	29.49
558.699	29.52
558.895	29.71
559.091	29.85
559.287	30
559.483	29.97
559.679	29.95
559.876	29.7
560.072	29.78
560.268	29.94
560.464	30.03
560.66	30.32
560.856	30.59
561.052	30.58
561.247	30.64
561.443	30.59
561.639	30.77
561.835	31.01
562.031	31.32
562.227	31.56
562.423	31.76
562.619	31.87
562.815	32.1
563.01	32.2
563.206	32.26
563.402	32.29
563.598	32.28
563.793	32.34
563.989	32.33
564.185	32.19
564.381	32.05
564.576	32.11
564.772	32.06
564.968	31.81
565.163	31.72
565.359	31.6
565.555	31.7
565.75	31.86
565.946	31.93
566.141	32.11
566.337	32.2
566.532	32.44
566.728	32.43
566.923	32.46
567.119	32.68
567.314	32.71
567.51	33.01
567.705	33
567.901	33.06
568.096	32.98
568.292	33.08
568.487	33.17
568.682	33.05
568.878	33.16
569.073	33.5
569.268	33.41
569.464	33.63
569.659	33.55
569.854	33.65
570.05	33.56
570.245	33.85
570.44	33.74
570.635	33.72
570.831	33.78
571.026	33.81
571.221	33.83
571.416	33.82
571.611	33.75
571.806	33.86
572.002	34.03
572.197	34.07
572.392	34.05
572.587	34.02
572.782	34.04
572.977	34.11
573.172	34.07
573.367	34.03
573.562	34.27
573.757	34.47
573.952	34.34
574.147	34.24
574.342	34.54
574.537	34.42
574.732	34.26
574.927	34.47
575.121	34.7
575.316	34.98
575.511	34.99
575.706	34.96
575.901	35.03
576.096	35.35
576.29	35.3
576.485	35.3
576.68	35.51
576.875	35.78
577.069	35.81
577.264	35.71
577.459	35.63
577.654	35.88
577.848	35.94
578.043	35.88
578.238	36.09
578.432	36.38
578.627	36.28
578.821	36.43
579.016	36.85
579.21	36.88
579.405	36.96
579.6	37.05
579.794	37.2
579.989	37.31
580.183	37.43
580.378	37.4
580.572	37.64
580.766	37.92
580.961	37.85
581.155	37.68
581.35	37.85
581.544	37.94
581.738	38.13
581.933	37.99
582.127	38.19
582.321	38.31
582.516	38.4
582.71	38.43
582.904	38.49
583.099	38.57
583.293	38.89
583.487	39.02
583.681	39.56
583.875	39.59
584.07	39.83
584.264	40.04
584.458	40.06
584.652	39.9
584.846	39.94
585.04	39.74
585.234	39.79
585.428	39.77
585.623	40
585.817	39.72
586.011	39.64
586.205	39.6
586.399	39.63
586.593	39.64
586.787	39.74
586.981	39.45
587.174	39.7
587.368	39.78
587.562	39.71
587.756	39.38
587.95	39.42
588.144	39.35
588.338	39.51
588.532	39.05
588.725	39.26
588.919	39.12
589.113	39.25
589.307	39.35
589.501	39.19
589.694	39.24
589.888	39.21
590.082	39.07
590.275	38.95
590.469	38.96
590.663	39.42
590.856	39.11
591.05	39.23
591.244	39.24
591.437	39.25
591.631	39.42
591.824	39.3
592.018	39.55
592.212	39.62
592.405	39.93
592.599	39.9
592.792	39.62
592.986	39.58
593.179	39.47
593.372	39.7
593.566	39.48
593.759	39.71
593.953	40.02
594.146	39.82
594.339	39.93
594.533	39.84
594.726	39.54
594.92	39.42
595.113	39.41
595.306	39.59
595.499	39.41
595.693	39.59
595.886	39.49
596.079	39.18
596.272	39.36
596.466	39.14
596.659	38.99
596.852	39.29
597.045	39.54
597.238	39.69
597.431	39.59
597.624	39.72
597.818	39.6
598.011	39.42
598.204	39.64
598.397	39.72
598.59	39.97
598.783	40.21
598.976	40.18
599.169	40.1
599.362	40.12
599.555	40.24
599.748	40.24
599.941	40.53
600.134	40.92
600.326	40.77
600.519	40.86
600.712	41.01
600.905	41.3
601.098	41.4
601.291	41.27
601.483	41.31
601.676	41.41
601.869	41.4
602.062	41.21
602.255	41.1
602.447	41.12
602.64	40.96
602.833	40.57
603.025	40.37
603.218	40.27
603.411	40.34
603.603	40.38
603.796	40.24
603.989	39.96
604.181	40.06
604.374	40.1
604.566	40.26
604.759	40.08
604.951	40.36
605.144	40.32
605.336	40.38
605.529	40.36
605.721	40.29
605.914	40.38
606.106	40.78
606.299	40.98
606.491	41.02
606.683	41.2
606.876	41.34
607.068	41.42
607.26	41.52
607.453	41.5
607.645	41.5
607.837	41.72
608.03	41.8
608.222	41.79
608.414	41.71
608.606	41.73
608.799	41.71
608.991	41.98
609.183	42.24
609.375	42.65
609.567	42.84
609.759	43.37
609.952	43.46
610.144	43.88
610.336	44.41
610.528	44.89
610.72	45.38
610.912	45.82
611.104	46.32
611.296	46.44
611.488	46.7
611.68	47.25
611.872	47.47
612.064	48.07
612.256	48.14
612.448	48.04
612.64	47.83
612.832	47.83
613.023	47.76
613.215	47.81
613.407	47.32
613.599	46.91
613.791	46.45
613.983	46.12
614.174	45.78
614.366	45.62
614.558	45.16
614.75	45.42
614.941	45.27
615.133	44.67
615.325	44.23
615.516	44.35
615.708	44.26
615.9	44.07
616.091	43.93
616.283	43.67
616.475	43.35
616.666	43.39
616.858	43.06
617.049	42.76
617.241	42.85
617.432	42.42
617.624	42.8
617.815	42.63
618.007	42.59
618.198	42.83
618.39	43.15
618.581	43.37
618.773	43.19
618.964	42.98
619.155	42.97
619.347	42.79
619.538	43.17
619.729	43.07
619.921	43.26
620.112	43.52
620.303	43.42
620.494	43.26
620.686	43.08
620.877	43.41
621.068	43.3
621.259	43.37
621.451	43.47
621.642	43.23
621.833	42.97
622.024	42.62
622.215	42.25
622.406	42.15
622.597	41.79
622.788	41.87
622.98	41.67
623.171	42.01
623.362	42.04
623.553	42.25
623.744	42.46
623.935	42.39
624.126	42.88
624.317	43.14
624.508	42.89
624.698	43.34
624.889	43.15
625.08	43.62
625.271	43.53
625.462	43.5
625.653	43.51
625.844	43.58
626.034	43.51
626.225	43.4
626.416	43.04
626.607	43.33
626.798	43
626.988	43.08
627.179	42.68
627.37	42.54
627.56	42.52
627.751	42.55
627.942	42.49
628.132	42.61
628.323	42.49
628.514	42.89
628.704	43.11
628.895	43.25
629.085	43.08
629.276	43.17
629.466	43.38
629.657	43.44
629.847	43.44
630.038	43.72
630.228	43.9
630.419	44.07
630.609	44.27
630.8	44.1
630.99	44.4
631.181	45
631.371	44.98
631.561	44.83
631.752	44.79
631.942	44.69
632.132	44.37
632.323	44.3
632.513	44.29
632.703	43.64
632.893	43.66
633.084	43.48
633.274	43.16
633.464	43.12
633.654	43.3
633.844	43.12
634.034	43
634.225	42.71
634.415	42.55
634.605	42.49
634.795	42.65
634.985	42.6
635.175	42.94
635.365	43.31
635.555	43.59
635.745	43.64
635.935	44.16
636.125	44.09
636.315	44.66
636.505	44.76
636.695	44.79
636.885	44.8
637.075	44.96
637.265	44.65
637.455	44.3
637.644	44.24
637.834	44.02
638.024	43.69
638.214	43.99
638.404	43.86
638.593	43.67
638.783	43.79
638.973	43.94
639.163	44.03
639.352	43.95
639.542	43.88
639.732	44.02
639.921	44.17
640.111	44.3
640.301	44.19
640.49	44.2
640.68	44.49
640.87	44.53
641.059	44.56
641.249	44.7
641.438	44.89
641.628	45.25
641.817	45.38
642.007	45.4
642.196	45.5
642.386	45.6
642.575	45.75
642.764	45.76
642.954	45.59
643.143	45.6
643.333	45.32
643.522	44.86
643.711	44.68
643.901	44.31
644.09	44.34
644.279	44.64
644.469	44.8
644.658	44.49
644.847	44.72
645.036	44.9
645.226	45.18
645.415	44.81
645.604	45.09
645.793	45.12
645.982	44.99
646.171	44.77
646.361	44.3
646.55	44.48
646.739	44.76
646.928	44.38
647.117	44.24
647.306	43.87
647.495	43.87
647.684	43.66
647.873	43.64
648.062	43.62
648.251	43.95
648.44	43.81
648.629	43.19
648.818	43.05
649.007	42.98
649.196	43.39
649.384	43.4
649.573	43.48
649.762	43.59
649.951	43.76
650.14	44.21
650.328	43.91
650.517	43.98
650.706	44.18
650.895	44.22
651.083	44.82
651.272	44.86
651.461	44.75
651.65	45.02
651.838	45.15
652.027	45.16
652.216	44.88
652.404	44.54
652.593	44.84
652.781	44.98
652.97	44.9
653.158	44.45
653.347	44
653.535	44.11
653.724	43.78
653.912	43.87
654.101	43.34
654.289	43.63
654.478	44.19
654.666	43.68
654.855	43.86
655.043	44.34
655.231	44.31
655.42	44.79
655.608	45.29
655.796	45.66
655.985	45.59
656.173	45.84
656.361	45.46
656.55	45.05
656.738	45.83
656.926	45.64
657.114	45.32
657.302	45.66
657.491	45.01
657.679	44.74
657.867	44.57
658.055	44.73
658.243	44.78
658.431	44.75
658.619	44.86
658.807	44.91
658.996	44.78
659.184	44.58
659.372	44.57
659.56	44.63
659.748	44.53
659.936	44.73
660.124	44.6
660.311	44.8
660.499	44.9
660.687	44.67
660.875	44.12
661.063	44.43
661.251	44.54
661.439	44.65
661.627	44.68
661.814	44.78
662.002	44.56
662.19	44.59
662.378	44.44
662.565	45.07
662.753	45.77
662.941	46.31
663.129	45.68
663.316	45.99
663.504	45.51
663.692	45.7
663.879	45.55
664.067	44.99
664.254	44.93
664.442	45.13
664.63	44.88
664.817	44.85
665.005	44.53
665.192	45.5
665.38	45.52
665.567	45.71
665.755	46.04
665.942	46.3
666.13	47.31
666.317	47.27
666.504	46.87
666.692	46.95
666.879	46.79
667.067	46.95
667.254	46.65
667.441	46.12
667.629	46.15
667.816	45.48
668.003	45.64
668.19	45.7
668.378	46.23
668.565	46.58
668.752	45.98
668.939	45.35
669.127	45.13
669.314	45.21
669.501	45.82
669.688	46.17
669.875	46.53
670.062	46.23
670.249	45.97
670.436	45.64
670.623	45.48
670.81	45.59
670.997	46.42
671.184	46.63
671.371	46.54
671.558	46.48
671.745	46.18
671.932	45.96
672.119	46.18
672.306	46.25
672.493	45.75
672.68	45.57
672.867	45.88
673.054	45.99
673.24	45.46
673.427	44.97
673.614	44.12
673.801	44.09
673.988	44.17
674.174	43.97
674.361	43.88
674.548	44.23
674.734	44.52
674.921	44.07
675.108	43.87
675.294	44.22
675.481	44.37
675.668	45.04
675.854	45.3
676.041	45.65
676.227	45.73
676.414	45.75
676.601	46.07
676.787	45.78
676.974	45.75
677.16	45.1
677.347	45
677.533	45.26
677.719	45.08
677.906	44.6
678.092	44.74
678.279	45.01
678.465	44.81
678.651	45
678.838	45.21
679.024	45.27
679.21	44.93
679.397	44.83
679.583	44.66
679.769	44.52
679.955	44.41
680.142	43.76
680.328	43.64
680.514	43.61
680.7	43.33
680.886	43.02
681.073	43.35
681.259	44.25
681.445	44.75
681.631	44.69
681.817	44.84
682.003	44.98
682.189	45.54
682.375	45.57
682.561	45.35
682.747	44.99
682.933	45.27
683.119	45.18
683.305	45.13
683.491	44.87
683.677	44.98
683.863	45.17
684.049	45.42
684.235	45.14
684.42	44.97
684.606	45.25
684.792	46.18
684.978	46.48
685.164	46.24
685.349	46.38
685.535	46.02
685.721	45.89
685.907	45.35
686.092	45.17
686.278	45.41
686.464	45.75
686.649	46.19
686.835	45.62
687.021	45.56
687.206	45.61
687.392	45.49
687.577	45.81
687.763	46.15
687.948	46.23
688.134	46.08
688.319	46.17
688.505	45.94
688.69	45.48
688.876	45.45
689.061	45.29
689.247	45.51
689.432	45.52
689.618	45.24
689.803	44.84
689.988	45.08
690.174	45.36
690.359	44.55
690.544	45.09
690.73	45.21
690.915	45.32
691.1	44.9
691.285	45.14
691.471	44.84
691.656	44.93
691.841	45.12
692.026	45.13
692.211	45.04
692.396	45.68
692.582	45.83
692.767	46.21
692.952	46.14
693.137	46.22
693.322	46.09
693.507	46.08
693.692	46.54
693.877	46.36
694.062	46.28
694.247	47.01
694.432	46.87
694.617	45.96
694.802	45.38
694.987	45.63
695.172	46.2
695.357	45.77
695.541	45.93
695.726	45.99
695.911	46.73
696.096	46.81
696.281	46.47
696.466	46.83
696.65	47.32
696.835	47.57
697.02	47.1
697.204	46.95
697.389	46.94
697.574	46.59
697.759	46.41
697.943	45.93
698.128	46.06
698.312	45.78
698.497	45.24
698.682	44.69
698.866	44.64
699.051	44.52
699.235	44.41
699.42	44.58
699.604	44.67
699.789	44.77
699.973	44.45
700.158	44.25
700.342	44.13
700.527	44.57
700.711	45.26
700.895	45.67
701.08	46.34
701.264	46.46
701.448	46.18
701.633	46.66
701.817	46.95
702.001	47.72
702.186	48.38
702.37	48.71
702.554	49.01
702.738	49.31
702.923	48.71
703.107	48.47
703.291	48.79
703.475	49.33
703.659	49.38
703.843	48.28
704.027	48.48
704.212	48.34
704.396	48.84
704.58	48.76
704.764	47.55
704.948	47.81
705.132	47.61
705.316	48.22
705.5	48.68
705.684	48.47
705.868	49.25
706.052	48.96
706.235	49.26
706.419	49.04
706.603	48.77
706.787	48.55
706.971	48.65
707.155	48.95
707.339	48
707.522	47.43
707.706	47.82
707.89	47.75
708.074	47.62
708.257	46.96
708.441	46.9
708.625	47.32
708.808	48.3
708.992	48.07
709.176	48.39
709.359	48.18
709.543	48.21
709.727	47.99
709.91	48.21
710.094	48.45
710.277	48.88
710.461	48.99
710.644	48.92
710.828	49.43
711.011	49.27
711.195	49.13
711.378	50.08
711.562	49.62
711.745	49.14
711.928	48.56
712.112	48.19
712.295	47.72
712.478	47.47
712.662	47.58
712.845	46.8
713.028	46.95
713.212	46.97
713.395	45.71
713.578	45.84
713.761	46.31
713.945	46.96
714.128	47.5
714.311	47.05
714.494	47.28
714.677	46.8
714.86	46.79
715.043	46.76
715.227	46.28
715.41	46.84
715.593	46.98
715.776	46.94
715.959	46.35
716.142	46.4
716.325	46.76
716.508	46.2
716.691	45.89
716.874	45.69
717.057	45.45
717.239	45.48
717.422	45.22
717.605	45.05
717.788	44.6
717.971	45.88
718.154	45.8
718.337	46.32
718.519	46.5
718.702	47.64
718.885	47.11
719.068	47.09
719.25	47.59
719.433	48.6
719.616	48.86
719.798	49.45
719.981	49.02
720.164	48.45
720.346	48.58
720.529	49.37
720.712	48.46
720.894	49.01
721.077	49.36
721.259	49.24
721.442	49.06
721.624	49.54
721.807	49.15
721.989	48.58
722.172	48.65
722.354	48.42
722.537	48.44
722.719	48.61
722.901	48.82
723.084	48.88
723.266	48.69
723.448	48.32
723.631	47.87
723.813	48.13
723.995	47.37
724.178	47.72
724.36	47.28
724.542	46.49
724.724	47.02
724.907	46.85
725.089	47.41
725.271	47.43
725.453	47.27
725.635	47.63
725.817	48.59
725.999	49.58
726.181	49.8
726.364	49.76
726.546	49.82
726.728	49.51
726.91	49.24
727.092	48.39
727.274	49.42
727.456	49.72
727.638	48.98
727.819	48.3
728.001	48.16
728.183	47.93
728.365	48.35
728.547	48.32
728.729	48.07
728.911	49.41
729.093	50.21
729.274	48.36
729.456	47.19
729.638	48.1
729.82	47.94
730.001	47.76
730.183	48.12
730.365	47.69
730.546	47.97
730.728	47.69
730.91	46.73
731.091	47.56
731.273	48.36
731.455	50.13
731.636	50.38
731.818	50.83
731.999	50.82
732.181	49.95
732.362	50.26
732.544	49.92
732.725	49.82
732.907	49.96
733.088	48.65
733.27	49.62
733.451	48.59
733.633	48.28
733.814	48.22
733.995	48.87
734.177	50.14
734.358	49.89
734.539	50.09
734.721	50.73
734.902	50.99
735.083	51.78
735.264	50.27
735.446	51.85
735.627	50.53
735.808	50.16
735.989	50.23
736.17	50.36
736.351	51.04
736.533	50.84
736.714	50.57
736.895	49.55
737.076	48.66
737.257	49.06
737.438	47.15
737.619	48.58
737.8	47.98
737.981	47.73
738.162	46.59
738.343	46.52
738.524	47.04
738.705	47.41
738.886	48.81
739.067	49.15
739.247	49.47
739.428	50.28
739.609	49.76
739.79	51.8
739.971	51.86
740.151	52.56
740.332	52.16
740.513	52.35
740.694	52.65
740.874	51.71
741.055	51.81
741.236	52.32
741.417	52.69
741.597	53.03
741.778	52.05
741.958	50.83
742.139	49.67
742.32	49.61
742.5	49.08
742.681	50.01
742.861	51.71
743.042	51
743.222	49.92
743.403	48.87
743.583	48.77
743.764	47.65
743.944	48.75
744.124	50.47
744.305	51
744.485	51.65
744.666	50.95
744.846	50.1
745.026	51.87
745.207	52.62
745.387	53.2
745.567	53.01
745.747	53.19
745.928	52.14
746.108	52.08
746.288	52.24
746.468	52.37
746.648	51.56
746.829	51.2
747.009	50.51
747.189	50.47
747.369	50.44
747.549	50.14
747.729	51.09
747.909	52.51
748.089	53.19
748.269	52.25
748.449	51.25
748.629	52.39
748.809	52.25
748.989	52
749.169	51.94
749.349	52.17
749.529	52
749.709	51.91
749.889	51.31
750.068	49.74
750.248	50.63
750.428	52.07
750.608	51.04
750.788	51.97
750.967	52.24
751.147	51.29
751.327	51.23
751.507	51.91
751.686	51.83
751.866	52.77
752.046	53.39
752.225	53.33
752.405	52.68
752.585	53.38
752.764	52.62
752.944	51.47
753.123	52.92
753.303	52.68
753.482	52.34
753.662	52.51
753.841	51.63
754.021	50.37
754.2	50.55
754.38	50.8
754.559	50.16
754.739	50.65
754.918	51.34
755.097	49.9
755.277	49.39
755.456	50.26
755.635	50.18
755.815	49.13
755.994	50.15
756.173	49.85
756.352	49.84
756.532	50.56
756.711	49.26
756.89	49.57
757.069	50.46
757.248	50.14
757.427	48.29
757.607	47.74
757.786	49.68
757.965	49.17
758.144	48.64
758.323	48.66
758.502	48.5
758.681	49.06
758.86	49.03
759.039	48.73
759.218	48.78
759.397	49.7
759.576	49.92
759.755	48.88
759.934	48.6
760.113	48.7
760.291	48.01
760.47	47.93
760.649	48.43
760.828	48.54
761.007	48.01
761.186	48.81
761.364	48.42
761.543	47.98
761.722	48.5
761.901	48
762.079	48.15
762.258	48.11
762.437	48.21
762.615	47.13
762.794	46.24
762.972	46.44
763.151	45.54
763.33	45.92
763.508	46.4
763.687	46.91
763.865	48.44
764.044	48.25
764.222	48.1
764.401	46.84
764.579	47.1
764.758	47.02
764.936	48.16
765.114	49.07
765.293	49.11
765.471	49.21
765.65	47.77
765.828	46.64
766.006	46.64
766.184	46.06
766.363	47.47
766.541	48.1
766.719	48.29
766.898	47.24
767.076	47.59
767.254	48.29
767.432	48.73
767.61	49.68
767.788	49.24
767.967	48.32
768.145	48.91
768.323	50.45
768.501	49.32
768.679	49.99
768.857	50.03
769.035	50.52
769.213	50.95
769.391	49.84
769.569	49.94
769.747	51.63
769.925	53.07
770.103	53.94
770.281	51.42
770.459	52.02
770.636	51.85
770.814	51.74
770.992	51.28
771.17	49.65
771.348	50.82
771.525	51
771.703	50.74
771.881	50.83
772.059	51.34
772.236	51.63
772.414	50.94
772.592	51.5
772.769	52.04
772.947	51.21
773.125	52.17
773.302	52.9
773.48	53.08
773.657	51.74
773.835	51.67
774.013	51.48
774.19	52.02
774.368	53.07
774.545	53.01
774.723	53.76
774.9	54.91
775.077	54.27
775.255	52.68
775.432	53.09
775.61	54.32
775.787	55.35
775.964	55.56
776.142	55.05
776.319	56.28
776.496	57.3
776.674	57.3
776.851	57.62
777.028	59.41
777.205	59.78
777.382	61.18
777.56	61.97
777.737	63.48
777.914	63.34
778.091	63.81
778.268	62.69
778.445	63.56
778.622	62.29
778.8	61
778.977	59.75
779.154	61.89
779.331	60.44
779.508	59.72
779.685	57.93
779.862	58.38
780.038	59.11
780.215	60.76
780.392	60.04
780.569	62.23
780.746	63.42
780.923	62.85
781.1	60.17
781.277	57.4
781.453	56.11
781.63	56.6
781.807	57.41
781.984	56.73
782.16	56.34
782.337	56.4
782.514	54.15
782.691	53.08
782.867	53.15
783.044	55.45
783.221	59.36
783.397	60.99
783.574	59.62
783.75	58.89
783.927	59.65
784.103	58.66
784.28	56.75
784.456	56.05
784.633	56.35
784.809	56.72
784.986	51.53
785.162	50.57
785.339	50.08
785.515	50.68
785.692	49.48
785.868	49.99
786.044	50.96
786.221	52.02
786.397	55.08
786.573	54.54
786.749	55.19
786.926	57.54
787.102	55.34
787.278	55.59
787.454	56.53
787.631	58.02
787.807	55.75
787.983	54.86
788.159	53.13
788.335	51.22
788.511	51.38
788.687	50.09
788.863	52.76
789.039	54.99
789.216	53.43
789.392	53.26
789.568	51.36
789.744	53.76
789.919	53.35
790.095	54.41
790.271	54.21
790.447	53.89
790.623	53.27
790.799	53.2
790.975	51.44
791.151	52.77
791.327	51.49
791.502	51.34
791.678	50.12
791.854	51.96
792.03	53.18
792.205	52.92
792.381	54.09
792.557	54.14
792.733	51.81
792.908	53.79
793.084	56.12
793.259	54.37
793.435	53.02
793.611	53.37
793.786	50.15
793.962	49.85
794.137	50.85
794.313	49.92
794.488	52.65
794.664	56
794.839	56.31
795.015	53.96
795.19	53.58
795.366	56.3
795.541	57.06
795.716	57.12
795.892	54.99
796.067	56.39
796.242	56.06
796.418	57.31
796.593	53.03
796.768	51.34
796.944	52.98
797.119	54.49
797.294	55.04
797.469	53.09
797.644	52.32
797.82	53.68
797.995	52
798.17	53.18
798.345	49.94
798.52	51.55
798.695	51.54
798.87	48.93
799.045	50.23
799.22	48.73
799.395	51.11
799.57	53.31
799.745	53.56
799.92	54.07
800.095	54.33
800.27	55.5
800.445	55.36
800.62	54.93
800.795	53.9
800.97	53.62
801.145	56.31
801.319	52.72
801.494	53.4
801.669	56.23
801.844	57.3
802.018	56.69
802.193	56.47
802.368	55.31
802.543	53.65
802.717	58.83
802.892	58.81
803.067	56.71
803.241	59.07
803.416	57
803.59	55.27
803.765	52.38
803.94	54.55
804.114	53.89
804.289	54.92
804.463	55.71
804.638	51.68
804.812	51.06
804.986	51.75
805.161	52.08
805.335	53.52
805.51	52.48
805.684	55.93
805.858	52.49
806.033	52.9
806.207	51.8
806.381	53.66
806.556	52.84
806.73	54.65
806.904	53.06
807.078	53.63
807.253	55.43
807.427	54.5
807.601	52.63
807.775	53.79
807.949	54.22
808.123	55.07
808.298	55.4
808.472	55.6
808.646	55.65
808.82	55.46
808.994	53.29
809.168	51.19
809.342	53.75
809.516	55.98
809.69	55.36
809.864	52.75
810.038	53.72
810.212	53.4
810.385	54.93
810.559	55.59
810.733	54.22
810.907	57.08
811.081	60.67
811.255	57.84
811.428	53.31
811.602	54.29
811.776	56.76
811.95	57.85
812.123	57.64
812.297	56.55
812.471	55.54
812.644	58.33
812.818	55.41
812.992	54.12
813.165	56.55
813.339	58.58
813.512	58.23
813.686	58.81
813.86	57.56
814.033	57.95
814.207	57.43
814.38	58.04
814.554	57.6
814.727	57.99
814.9	58.99
815.074	56.6
815.247	53.76
815.421	52.72
815.594	54.48
815.767	53.3
815.941	51.9
816.114	56.4
816.287	55.77
816.46	55.52
816.634	57.39
816.807	56.7
816.98	59.68
817.153	62.01
817.327	64.8
817.5	62.67
817.673	62.52
817.846	60.42
818.019	59.86
818.192	61.81
818.365	59.85
818.538	58.4
818.711	56.57
818.884	53.51
819.057	52.27
819.23	49.8
819.403	49.91
819.576	51.05
819.749	53.13
819.922	51.17
820.095	48.61
820.268	49
820.441	49.5
820.614	50.25
820.786	50.83
820.959	53.03
821.132	51.14
821.305	48.98
821.477	49.06
821.65	47.03
821.823	47.33
821.996	46.69
822.168	47.59
822.341	46.43
822.514	46.06
822.686	45.82
822.859	44.87
823.031	45.31
823.204	45.57
823.376	45.08
823.549	45.45
823.722	44.88
823.894	45.56
824.067	44.98
824.239	45.55
824.411	45.22
824.584	45.37
824.756	45.53
824.929	45.38
825.101	45.41
825.273	45.22
825.446	45.66
825.618	46.13
825.79	45.87
825.963	45.43
826.135	46.46
826.307	46.82
826.479	46.63
826.652	46.54
826.824	47.55
826.996	46.89
827.168	47.95
827.34	48.3
827.512	48.05
827.684	47.78
827.856	48.15
828.029	46.93
828.201	46.43
828.373	47.09
828.545	47.34
828.717	46.94
828.889	48.12
829.061	48.53
829.232	47.79
829.404	49.32
829.576	51.29
829.748	52.31
829.92	54.32
830.092	55.88
830.264	54.43
830.436	56.19
830.607	58.31
830.779	58.16
830.951	57.92
831.123	60.01
831.294	58.95
831.466	56.15
831.638	55.44
831.809	51.91
831.981	50.04
832.153	51.27
832.324	48.04
832.496	46.85
832.667	50.77
832.839	51.44
833.011	47.75
833.182	48.09
833.354	47.74
833.525	50.62
833.697	50.69
833.868	52.29
834.039	54.04
834.211	54.58
834.382	53.3
834.554	52.22
834.725	51.33
834.896	50.07
835.068	48.89
835.239	47.97
835.41	47.22
835.581	48.61
835.753	48.76
835.924	47.49
836.095	47.39
836.266	48.75
836.438	47.09
836.609	46.15
836.78	47.44
836.951	50.22
837.122	51.34
837.293	51.04
837.464	49.43
837.635	49.02
837.806	50.11
837.977	51.9
838.148	52.39
838.319	55.54
838.49	56.82
838.661	58.21
838.832	60.17
839.003	63.46
839.174	61.59
839.345	66.4
839.516	69.02
839.687	73.76
839.857	68.75
840.028	69.87
840.199	70.8
840.37	72.48
840.54	75.97
840.711	71.33
840.882	70.16
841.053	73.89
841.223	71.17
841.394	75.34
841.564	72.86
841.735	78.64
841.906	77.12
842.076	75.14
842.247	73.47
842.417	74.24
842.588	74.81
842.758	83.51
842.929	86.3
843.099	89.17
843.27	82.69
843.44	85.22
843.611	84.16
843.781	87.66
843.951	85.32
844.122	86.63
844.292	79.19
844.462	82.6
844.633	76.58
844.803	71.92
844.973	71.96
845.144	74.07
845.314	69.62
845.484	73.74
845.654	65.62
845.824	66.5
845.995	60.36
846.165	71.73
846.335	71.42
846.505	67.11
846.675	65.76
846.845	64.27
847.015	72.84
847.185	65.89
847.355	71.09
847.525	91.2
847.695	93.6
847.865	109.04
848.035	95.31
848.205	82.09
848.375	85.44
848.545	88.9
848.715	91.07
848.884	78.49
849.054	85.01
849.224	74.64
849.394	73.04
849.564	70.39
849.733	79.22
849.903	79.56
850.073	78.05
850.243	79.28
850.412	89.68
850.582	90.4
850.752	95.59
850.921	85.96
851.091	101.79
851.26	111.78
851.43	109.9
851.599	100.33
851.769	102.42
851.939	117.58
852.108	106.96
852.278	101.08
852.447	110.09
852.616	112.64
852.786	112.43
852.955	104.24
853.125	87.17
853.294	92.53
853.463	89.93
853.633	83.94
853.802	90.02
853.971	114.82
854.141	108.84
854.31	105.94
854.479	97.25
854.648	114.19
854.818	94.51
854.987	111.9
855.156	110.85
855.325	116.35
855.494	136.94
855.663	124.83
855.832	122.21
856.001	115.53
856.171	100.92
856.34	105.63
856.509	103.6
856.678	122.66
856.847	112.1
857.016	123.97
857.185	123.3
857.353	115.8
857.522	118.13
857.691	107.9
857.86	115.58
858.029	126.47
858.198	119.13
858.367	125.62
858.535	115.79
858.704	114.3
858.873	102.59
859.042	101.06
859.21	107.17
859.379	96.92
859.548	92.52
859.717	83.99
859.885	81.55
860.054	88.17
860.222	77.05
860.391	88.06
860.56	90.06
860.728	94.01
860.897	84.68
861.065	81.25
861.234	78.6
861.402	70.4
861.571	68.3
861.739	75.19
861.908	70.09
862.076	81.25
862.244	75.8
862.413	78.03
862.581	78.55
862.749	78.24
862.918	69.17
863.086	70.03
863.254	86.45
863.423	101.14
863.591	77.53
863.759	87.2
863.927	74.7
864.096	80.39
864.264	77.88
864.432	74.93
864.6	91.69
864.768	101.21
864.936	112.38
865.104	101.04
865.272	92.81
865.44	109.05
865.608	100.88
865.776	100.36
865.944	109.79
866.112	104.99
866.28	107.52
866.448	101.45
866.616	116.03
866.784	107.99
866.952	110.36
867.12	123.09
867.288	122.27
867.455	137.11
867.623	145.79
867.791	141.27
867.959	161.65
868.127	181.13
868.294	145.69
868.462	116.16
868.63	120.96
868.797	118.11
868.965	98.25
869.133	92.58
869.3	81.42
869.468	100.19
869.636	78.61
869.803	70.85
869.971	56.27
870.138	57.84
870.306	58.43
870.473	63.46
870.641	65.02
870.808	60.05
870.975	61.81
871.143	60.35
871.31	49.62
871.478	45.5
871.645	47.45
871.812	66.42
871.98	86.77
872.147	89.75
872.314	88.52
872.482	82.97
872.649	88.68
872.816	88.02
872.983	94.57
873.15	100.9
873.318	108.64
873.485	132.11
873.652	122.36
873.819	110.95
873.986	129.81
874.153	123.92
874.32	140.64
874.487	163.92
874.654	189.91
874.821	208.17
874.988	203.99
875.155	213.1
875.322	159.25
875.489	160.35
875.656	158.52
875.823	129.27
875.99	118.08
876.157	91.82
876.324	81.5
876.49	77.78
876.657	75.5
876.824	67.66
876.991	63.23
877.157	65.93
877.324	66.41
877.491	62.41
877.658	58.46
877.824	66.59
877.991	71.34
878.157	73.83
878.324	76.39
878.491	70.19
878.657	72.03
878.824	80.16
878.99	78.95
879.157	88.51
879.323	87.43
879.49	91.89
879.656	86.59
879.823	85.93
879.989	84.23
880.156	78.35
880.322	80.09
880.488	90.39
880.655	80.17
880.821	82.9
880.987	73.62
881.154	81.25
881.32	81.31
881.486	86.75
881.652	81.95
881.819	77.6
881.985	75.24
882.151	74.08
882.317	67.4
882.483	68.55
882.649	66.49
882.816	64.99
882.982	60.65
883.148	57.96
883.314	52.9
883.48	54.38
883.646	53.83
883.812	52.79
883.978	53.69
884.144	55.31
884.31	55.35
884.476	52.97
884.642	52.04
884.807	52.92
884.973	52.72
885.139	54.03
885.305	51.79
885.471	50.92
885.637	51.04
885.802	50.03
885.968	47.98
886.134	47.71
886.3	50.54
886.465	52.56
886.631	53.38
886.797	58.4
886.962	63.6
887.128	68.86
887.293	76.47
887.459	76.44
887.625	76.91
887.79	79.25
887.956	81.47
888.121	80.06
888.287	81.13
888.452	84.81
888.618	79.64
888.783	71.74
