Data from CB_072_Reflection_2.txt Node
Date: Sat Nov 14 11:12:32 EST 2015
User: robert
Spectrometer: USB4E03001
Autoset integration time: false
Trigger mode: 4
Integration Time (sec): 1.000000E-1
Scans to average: 15
Electric dark correction enabled: true
Nonlinearity correction enabled: false
Boxcar width: 5
Stray light correction enabled: false
XAxis mode: Wavelengths
Stop averaging: false
Number of Pixels in Spectrum: 3648
>>>>>Begin Spectral Data<<<<<
177.566	-357.4
177.785	-446.11
178.005	-1380.62
178.225	-192.81
178.445	-244.54
178.665	-417.57
178.885	35.77
179.105	-173.03
179.324	-285.01
179.544	-585.3
179.764	-171.28
179.984	-253.38
180.204	-268.6
180.423	-913.45
180.643	-448.26
180.863	-706.2
181.083	-3120.98
181.302	-14011.11
181.522	1617.14
181.742	1472.19
181.961	1717.75
182.181	286.78
182.401	212.46
182.621	350.12
182.84	1162.85
183.06	-4010.17
183.279	-654
183.499	-401.67
183.719	-560.57
183.938	-338.3
184.158	-306.86
184.377	-261.17
184.597	-143.82
184.816	-92.14
185.036	-165.8
185.256	-288.73
185.475	-578.57
185.695	-326.79
185.914	-305.35
186.134	-271.88
186.353	-287.13
186.572	-243.51
186.792	-663.49
187.011	3495.8
187.231	-2439.61
187.45	-377.26
187.67	-1345.35
187.889	655.54
188.108	336.38
188.328	301.72
188.547	215.99
188.766	182.94
188.986	151.24
189.205	161.08
189.424	157.88
189.644	140.35
189.863	182.56
190.082	206.47
190.302	298.07
190.521	244.78
190.74	276.57
190.959	1202.47
191.178	965.79
191.398	832.51
191.617	2030.29
191.836	8799.46
192.055	1763.08
192.274	545.05
192.494	768.06
192.713	30875
192.932	-2935.91
193.151	490100
193.37	702.67
193.589	-20236.28
193.808	-1861.58
194.027	-3191.91
194.246	6078.38
194.465	-3867.96
194.685	865.55
194.904	872.88
195.123	567.58
195.342	481.46
195.561	416.93
195.78	1141.51
195.999	2475.95
196.218	1141.65
196.436	688.42
196.655	360.48
196.874	233.23
197.093	469.06
197.312	325.91
197.531	540.95
197.75	644.56
197.969	1534.05
198.188	305.96
198.407	169.24
198.625	164.48
198.844	202.11
199.063	226.07
199.282	555.16
199.501	-2432.42
199.719	-1530.02
199.938	672.66
200.157	511.32
200.376	-2763.47
200.594	-159.01
200.813	-551.68
201.032	-1263.24
201.251	-527.45
201.469	-851.58
201.688	-1494.89
201.907	3395.33
202.125	909.72
202.344	3560.18
202.563	16843.48
202.781	1034.44
203	333.93
203.218	288.55
203.437	487.34
203.656	377.27
203.874	781.19
204.093	627.13
204.311	247.88
204.53	851.44
204.748	243.84
204.967	385.85
205.185	287.32
205.404	364.04
205.622	382.66
205.841	263.22
206.059	223.34
206.278	191.28
206.496	301.2
206.715	464.04
206.933	386.57
207.151	473.76
207.37	300.24
207.588	369.13
207.806	441.83
208.025	633.36
208.243	884.71
208.461	-67363.64
208.68	2184.96
208.898	892.73
209.116	525.86
209.335	325.36
209.553	280.96
209.771	239.07
209.989	217.71
210.208	172.95
210.426	155.42
210.644	136.06
210.862	129.07
211.081	120.76
211.299	94.1
211.517	104.1
211.735	106.31
211.953	112.45
212.171	132.67
212.39	129.46
212.608	139.51
212.826	166
213.044	178.59
213.262	187.74
213.48	176.36
213.698	305.91
213.916	183.99
214.134	312.98
214.352	505.56
214.57	292.99
214.788	269.82
215.006	236.88
215.224	334.83
215.442	814.93
215.66	1058.76
215.878	453.23
216.096	145.79
216.314	607.13
216.532	2431.73
216.75	-671.51
216.968	-1090.64
217.185	-10181.42
217.403	2430.25
217.621	-163944.44
217.839	-947.67
218.057	-34747.92
218.275	-1107.48
218.492	-254.6
218.71	-4098.66
218.928	2333.62
219.146	1421.63
219.363	693.58
219.581	718.22
219.799	-3069.78
220.017	318.31
220.234	401.71
220.452	394.6
220.67	623.3
220.887	284.05
221.105	537.22
221.323	324.51
221.54	208.66
221.758	207.37
221.976	204.75
222.193	163.67
222.411	172.29
222.629	151.19
222.846	150.92
223.064	135.97
223.281	130.58
223.499	117.75
223.716	104.12
223.934	101.32
224.151	97.44
224.369	99.7
224.586	107.01
224.804	115.77
225.021	139.1
225.239	140.48
225.456	126.96
225.674	117.31
225.891	104.69
226.108	104.8
226.326	108.1
226.543	114.33
226.76	92.66
226.978	79.94
227.195	76.4
227.413	59.07
227.63	55.54
227.847	56.29
228.064	49.59
228.282	48.59
228.499	50.01
228.716	43.64
228.934	39.4
229.151	41.35
229.368	36.74
229.585	35.61
229.802	38.27
230.02	37.84
230.237	37.37
230.454	39.67
230.671	43.04
230.888	40.58
231.105	43.73
231.323	47.37
231.54	47.21
231.757	53.76
231.974	58.33
232.191	58.92
232.408	54.16
232.625	57.59
232.842	51.01
233.059	43.61
233.276	42.77
233.493	40.49
233.71	36.69
233.927	31.64
234.144	28.26
234.361	29.11
234.578	21.93
234.795	28.75
235.012	27.37
235.229	30.64
235.446	36.48
235.663	33.32
235.879	30.42
236.096	39.91
236.313	47.12
236.53	45.71
236.747	51.14
236.964	53.1
237.181	53.59
237.397	55.86
237.614	64.71
237.831	66.87
238.048	69.97
238.264	70.47
238.481	62.98
238.698	60.77
238.915	58.6
239.131	48.86
239.348	49.08
239.565	39.66
239.781	37.13
239.998	33.65
240.215	28.56
240.431	27.32
240.648	31.33
240.865	26.41
241.081	22.54
241.298	20.9
241.514	22.96
241.731	22.78
241.947	24.2
242.164	25.14
242.38	22.26
242.597	22.09
242.814	23.13
243.03	23.27
243.246	26.25
243.463	27.85
243.679	29.99
243.896	28.52
244.112	27.83
244.329	29.95
244.545	28.83
244.762	28.6
244.978	27.44
245.194	24.4
245.411	21.36
245.627	17.76
245.843	20.13
246.06	18.52
246.276	18.33
246.492	20.23
246.709	19.18
246.925	19.23
247.141	18.87
247.357	19.22
247.574	19.79
247.79	19.96
248.006	19.74
248.222	19.01
248.439	18.61
248.655	19.44
248.871	18.91
249.087	19.14
249.303	19.17
249.519	19.65
249.736	20.52
249.952	20.87
250.168	24.02
250.384	26.19
250.6	23.09
250.816	24.97
251.032	23.71
251.248	22.41
251.464	23.99
251.68	22.41
251.896	22.06
252.112	21.87
252.328	22.11
252.544	20.96
252.76	19.11
252.976	19.04
253.192	19.27
253.408	20.02
253.624	20.43
253.84	18.58
254.056	17.72
254.272	19.92
254.487	16.91
254.703	13.87
254.919	11.01
255.135	14.53
255.351	22.34
255.567	22.36
255.782	24.74
255.998	25.77
256.214	24
256.43	26.12
256.646	25.92
256.861	28.22
257.077	27.92
257.293	27.65
257.508	23.53
257.724	19.89
257.94	16.77
258.155	14.11
258.371	13.46
258.587	13.75
258.802	15.24
259.018	14.89
259.234	15.21
259.449	15.04
259.665	14.42
259.88	15.28
260.096	15.83
260.312	16.27
260.527	16.11
260.743	16.22
260.958	16.82
261.174	15.96
261.389	16.83
261.605	15.81
261.82	15.54
262.036	15.88
262.251	15.65
262.466	14.63
262.682	14.48
262.897	14.37
263.113	13.96
263.328	12.66
263.543	13.21
263.759	12.85
263.974	15.04
264.189	16.2
264.405	15.3
264.62	15.28
264.835	15.33
265.051	16.66
265.266	16.88
265.481	18.51
265.696	20.98
265.912	20.41
266.127	18.94
266.342	17.55
266.557	18.68
266.773	19.44
266.988	18.18
267.203	17
267.418	15.89
267.633	15.92
267.848	14.57
268.064	11.88
268.279	12.65
268.494	10.6
268.709	9.76
268.924	10.48
269.139	9.47
269.354	10.89
269.569	9.75
269.784	9.29
269.999	9.17
270.214	11.04
270.429	11.29
270.644	11.27
270.859	11.91
271.074	10.87
271.289	10.28
271.504	10.39
271.719	9.62
271.934	11.93
272.149	13.25
272.363	14.27
272.578	13.15
272.793	12.84
273.008	12.08
273.223	11.79
273.438	12.55
273.653	14.31
273.867	15.58
274.082	17.52
274.297	15.88
274.512	15.93
274.726	13.98
274.941	13.66
275.156	15.78
275.371	15.77
275.585	16.88
275.8	18.28
276.015	15.17
276.229	14.73
276.444	14.17
276.659	15.8
276.873	15
277.088	18.02
277.302	18.72
277.517	16.74
277.732	15.98
277.946	15.92
278.161	16.5
278.375	15.68
278.59	15.39
278.804	14.74
279.019	14.75
279.233	14.01
279.448	11.89
279.662	10.66
279.877	11.93
280.091	12.01
280.306	11.45
280.52	8.54
280.735	9.06
280.949	10.16
281.163	11.08
281.378	10.68
281.592	11.77
281.806	10.95
282.021	11.69
282.235	11.94
282.449	13.4
282.664	14.27
282.878	15.54
283.092	15.84
283.307	14.42
283.521	13.22
283.735	12.65
283.949	13.18
284.164	14.71
284.378	14.15
284.592	13.45
284.806	13.09
285.02	13.16
285.234	12.01
285.449	11.61
285.663	13.45
285.877	13.99
286.091	13.88
286.305	13.58
286.519	13.25
286.733	13.95
286.947	14.54
287.161	14.41
287.375	13.34
287.589	15.27
287.803	17.12
288.017	15.28
288.231	15.22
288.445	15.63
288.659	15.39
288.873	16.4
289.087	16.46
289.301	16.16
289.515	16.09
289.729	17.25
289.943	16.85
290.157	16.36
290.371	17.68
290.584	18.08
290.798	19.14
291.012	18.33
291.226	16.75
291.44	16.96
291.654	17.24
291.867	17.33
292.081	17.26
292.295	17.84
292.509	16.85
292.722	15.13
292.936	13.31
293.15	12.28
293.364	12.59
293.577	13.93
293.791	14.33
294.005	14.96
294.218	15.97
294.432	16.12
294.645	16.46
294.859	16.71
295.073	18.12
295.286	17.58
295.5	18.52
295.713	17.9
295.927	17.11
296.14	16.24
296.354	14.98
296.568	13.48
296.781	12.96
296.994	12.1
297.208	11.63
297.421	10.77
297.635	12.63
297.848	11.52
298.062	11.87
298.275	12.11
298.489	12.78
298.702	13.3
298.915	13.69
299.129	14.12
299.342	13.73
299.555	15.31
299.769	16.32
299.982	15.54
300.195	15.04
300.409	15.78
300.622	14.98
300.835	14.08
301.048	13.8
301.262	14.4
301.475	15.7
301.688	16.32
301.901	15.12
302.115	13.63
302.328	13.94
302.541	15.44
302.754	15.42
302.967	16.78
303.18	17.12
303.393	16.65
303.607	16.82
303.82	14.7
304.033	15.14
304.246	15.92
304.459	16.61
304.672	17.12
304.885	16.73
305.098	16.86
305.311	17.22
305.524	17.12
305.737	18
305.95	18.01
306.163	18.41
306.376	17.71
306.589	17.94
306.802	18.4
307.015	18.78
307.228	19.18
307.44	18
307.653	17.49
307.866	17.79
308.079	18.6
308.292	18.19
308.505	19.4
308.718	20.01
308.93	19.57
309.143	19.57
309.356	19.17
309.569	18.42
309.781	19.16
309.994	19.3
310.207	19.13
310.42	18.37
310.632	18.73
310.845	18.53
311.058	17.67
311.27	17.55
311.483	17.71
311.696	16.97
311.908	16.94
312.121	16.89
312.333	17.41
312.546	17.35
312.759	16.62
312.971	16.01
313.184	15.15
313.396	16.47
313.609	16.17
313.821	15.93
314.034	16.44
314.246	16.43
314.459	16.87
314.671	16.06
314.884	16.24
315.096	17.23
315.309	17.89
315.521	19.26
315.733	17.55
315.946	17.71
316.158	17.98
316.371	17.87
316.583	17.37
316.795	16.59
317.008	17.73
317.22	16.8
317.432	17.32
317.644	17.78
317.857	16.11
318.069	17.15
318.281	17.13
318.494	17.2
318.706	18.99
318.918	19.58
319.13	18.92
319.342	17.12
319.555	17.2
319.767	17.27
319.979	16.44
320.191	16.79
320.403	18.91
320.615	20.75
320.827	20.02
321.039	18.86
321.252	20.64
321.464	22.1
321.676	22.22
321.888	21.74
322.1	20.47
322.312	19.81
322.524	19.94
322.736	18.05
322.948	16.97
323.16	17.49
323.372	18.14
323.584	17.58
323.796	15.6
324.007	16.55
324.219	17.47
324.431	19.05
324.643	20.87
324.855	22.55
325.067	22.71
325.279	22.27
325.491	23.32
325.702	23.7
325.914	22.96
326.126	24.98
326.338	23.06
326.55	24.33
326.761	24.9
326.973	25.33
327.185	25.2
327.396	26.2
327.608	26.71
327.82	26.77
328.032	26.56
328.243	28.26
328.455	29.64
328.666	32.15
328.878	31.71
329.09	32.08
329.301	31.83
329.513	31.88
329.725	31.79
329.936	33.48
330.148	34.85
330.359	34.75
330.571	34.91
330.782	33.59
330.994	34.76
331.205	36.58
331.417	36.04
331.628	36.26
331.84	37.5
332.051	38.43
332.262	38.56
332.474	37.05
332.685	38.39
332.897	38.17
333.108	39.59
333.319	38.17
333.531	37.25
333.742	38.18
333.953	38.33
334.165	37.97
334.376	38.25
334.587	38.11
334.799	37.81
335.01	36.47
335.221	37.5
335.432	35.77
335.644	35.64
335.855	35.67
336.066	35.45
336.277	35.42
336.488	34.62
336.7	33.87
336.911	33.7
337.122	35.18
337.333	35.7
337.544	34.92
337.755	36.51
337.966	37.29
338.177	37.14
338.388	36.97
338.599	37.64
338.811	37.62
339.022	37.45
339.233	38.87
339.444	37.31
339.655	36.59
339.866	35.93
340.076	34.93
340.287	34.15
340.498	34.85
340.709	34
340.92	33.15
341.131	33.23
341.342	33.71
341.553	31.55
341.764	32.79
341.975	33.41
342.185	34.18
342.396	34.56
342.607	34.81
342.818	34.96
343.029	34.76
343.239	35.01
343.45	34.54
343.661	34.05
343.872	34.8
344.082	34.05
344.293	34.02
344.504	34.15
344.714	34.26
344.925	34.59
345.136	33.61
345.346	32.71
345.557	32.54
345.768	33.1
345.978	33.96
346.189	33.07
346.399	32.28
346.61	32.63
346.821	32.64
347.031	33.37
347.242	32.96
347.452	33.25
347.663	35.18
347.873	35.98
348.084	35.88
348.294	34.39
348.504	35.14
348.715	36.68
348.925	35.72
349.136	34.77
349.346	33.66
349.557	33.83
349.767	33.88
349.977	33.56
350.188	32.18
350.398	32.08
350.608	31.9
350.819	32.17
351.029	31.26
351.239	32.12
351.449	33.02
351.66	33.87
351.87	33.64
352.08	33.57
352.29	33.34
352.501	33.82
352.711	33.37
352.921	34.31
353.131	33.35
353.341	34.28
353.552	33.79
353.762	33.15
353.972	31.32
354.182	32.44
354.392	32.31
354.602	32.55
354.812	32.68
355.022	32.44
355.232	33.42
355.442	33.61
355.652	32.91
355.862	33.12
356.072	34.23
356.282	34.15
356.492	33.21
356.702	32.86
356.912	32.18
357.122	32.62
357.332	32.86
357.542	31.74
357.752	31.64
357.962	31.28
358.171	30.8
358.381	29.73
358.591	30.43
358.801	30.73
359.011	30.96
359.221	31.34
359.43	30.65
359.64	30.35
359.85	30.72
360.06	30.91
360.269	31.08
360.479	30.91
360.689	31.53
360.899	31.85
361.108	31.8
361.318	31.37
361.528	31.43
361.737	31.18
361.947	31.42
362.156	30.97
362.366	30.39
362.576	30.59
362.785	30.89
362.995	30.65
363.204	30.22
363.414	29.78
363.623	29.87
363.833	29.84
364.042	30.11
364.252	30.8
364.461	30.65
364.671	31.01
364.88	30.59
365.09	31.25
365.299	31.03
365.509	30.92
365.718	30.59
365.927	30.47
366.137	30.37
366.346	29.86
366.555	28.92
366.765	29.31
366.974	29.88
367.183	29.05
367.393	27.76
367.602	27.71
367.811	28.04
368.021	28.69
368.23	28.83
368.439	28.46
368.648	28.26
368.857	28.29
369.067	28.14
369.276	27.63
369.485	28.7
369.694	29.65
369.903	29.29
370.112	28.92
370.321	27.96
370.531	27.6
370.74	27.67
370.949	27.88
371.158	27.5
371.367	27.32
371.576	26.96
371.785	26.68
371.994	26.43
372.203	26.38
372.412	25.86
372.621	26.85
372.83	26.99
373.039	26.78
373.248	26.7
373.457	27
373.666	27.01
373.874	27.02
374.083	26.97
374.292	26.91
374.501	27.25
374.71	27.38
374.919	26.71
375.128	26.3
375.336	26.68
375.545	26.98
375.754	26.51
375.963	26.51
376.171	25.9
376.38	25.45
376.589	24.43
376.798	23.91
377.006	23.94
377.215	24.16
377.424	24.34
377.632	23.26
377.841	22.75
378.05	22.76
378.258	22.35
378.467	22.36
378.675	22.24
378.884	22.39
379.093	22.53
379.301	22.6
379.51	22.11
379.718	21.72
379.927	22.15
380.135	22.21
380.344	22.07
380.552	22.24
380.761	22.39
380.969	22.56
381.177	22.7
381.386	23.34
381.594	22.98
381.803	22.58
382.011	23.07
382.219	22.97
382.428	22.74
382.636	22.64
382.845	21.64
383.053	21.77
383.261	21.33
383.469	21.05
383.678	20.15
383.886	19.82
384.094	20.29
384.302	20.39
384.511	20.1
384.719	20.03
384.927	19.82
385.135	20.46
385.343	20.09
385.552	20.7
385.76	20.41
385.968	20.03
386.176	20.25
386.384	19.67
386.592	19
386.8	18.92
387.008	19.17
387.216	19.52
387.424	19.54
387.633	19.43
387.841	18.82
388.049	19.52
388.257	19.61
388.465	19.28
388.672	19.39
388.88	19.79
389.088	19.51
389.296	18.91
389.504	18.32
389.712	17.91
389.92	17.68
390.128	17.93
390.336	17.28
390.544	16.98
390.751	17.14
390.959	17.11
391.167	16.73
391.375	17.34
391.583	17.46
391.79	17.41
391.998	17.48
392.206	17.39
392.414	16.57
392.621	16.65
392.829	16.92
393.037	16.81
393.244	16.52
393.452	16.61
393.66	16.09
393.867	15.81
394.075	15.64
394.283	15.39
394.49	15.44
394.698	15.82
394.905	15.27
395.113	15.35
395.32	15.37
395.528	15.65
395.735	15.42
395.943	15.36
396.15	15.47
396.358	15.38
396.565	15.25
396.773	15.27
396.98	15.49
397.188	15.82
397.395	15.61
397.602	15.35
397.81	14.79
398.017	14.7
398.225	15.26
398.432	15.26
398.639	15.51
398.847	15.55
399.054	15.53
399.261	15.44
399.468	15.38
399.676	15.47
399.883	15.35
400.09	15.85
400.297	15.9
400.505	15.56
400.712	15.36
400.919	15.53
401.126	15.87
401.333	15.72
401.54	15.46
401.748	15.38
401.955	14.64
402.162	14.73
402.369	14.32
402.576	14.38
402.783	13.8
402.99	13.97
403.197	13.5
403.404	12.95
403.611	12.65
403.818	12.85
404.025	12.68
404.232	13.05
404.439	12.72
404.646	12.74
404.853	12.48
405.06	12.59
405.267	12.37
405.474	12.5
405.681	12.77
405.887	12.85
406.094	12.75
406.301	13.17
406.508	13.09
406.715	13.69
406.922	13.88
407.128	14.34
407.335	14.28
407.542	14.28
407.749	14.36
407.955	14.31
408.162	14.23
408.369	14.05
408.575	14.08
408.782	14.45
408.989	13.85
409.195	13.66
409.402	13.32
409.609	13.31
409.815	12.84
410.022	12.73
410.228	12.65
410.435	12.8
410.642	13.09
410.848	12.42
411.055	12.3
411.261	12.42
411.468	12.74
411.674	12.75
411.881	12.77
412.087	13.23
412.294	13.29
412.5	13.38
412.706	13.3
412.913	12.8
413.119	13.27
413.326	12.86
413.532	12.79
413.738	12.67
413.945	12.37
414.151	12.71
414.357	12.79
414.564	12.64
414.77	12.57
414.976	12.62
415.182	13.15
415.389	13.05
415.595	12.88
415.801	12.69
416.007	12.47
416.214	12.47
416.42	12.41
416.626	12.19
416.832	12.12
417.038	11.92
417.244	12.06
417.45	11.7
417.657	11.56
417.863	11.42
418.069	11.63
418.275	11.63
418.481	11.65
418.687	11.53
418.893	11.6
419.099	11.59
419.305	11.65
419.511	11.41
419.717	11.33
419.923	11.33
420.129	11.4
420.335	11.42
420.541	11.39
420.746	11.27
420.952	11.24
421.158	11.25
421.364	11.21
421.57	11.23
421.776	11.35
421.982	11.52
422.187	11.41
422.393	11.48
422.599	11.44
422.805	11.34
423.01	11.37
423.216	11.38
423.422	11.42
423.628	11.59
423.833	11.53
424.039	11.44
424.245	11.46
424.45	11.52
424.656	11.48
424.862	11.31
425.067	11.39
425.273	11.43
425.478	11.36
425.684	11.32
425.889	11.27
426.095	11.23
426.301	11.27
426.506	11.09
426.712	11.18
426.917	11.26
427.123	11.12
427.328	11.08
427.533	11.05
427.739	11.15
427.944	11.24
428.15	11.07
428.355	11.03
428.561	11.12
428.766	11.2
428.971	11.11
429.177	11.18
429.382	11.68
429.587	11.64
429.793	11.65
429.998	11.55
430.203	11.38
430.408	11.75
430.614	11.91
430.819	11.78
431.024	11.77
431.229	11.81
431.434	11.7
431.64	11.45
431.845	11.68
432.05	11.83
432.255	11.68
432.46	11.58
432.665	11.31
432.87	11.14
433.076	11.13
433.281	11.13
433.486	11.14
433.691	11.18
433.896	11.22
434.101	10.96
434.306	10.84
434.511	11.03
434.716	11.14
434.921	11.24
435.126	11.43
435.331	11.56
435.535	11.35
435.74	11.24
435.945	11.12
436.15	11.21
436.355	11.53
436.56	11.28
436.765	11.31
436.97	11.08
437.174	11.18
437.379	11.07
437.584	11.08
437.789	11.18
437.993	11.25
438.198	11.27
438.403	11.21
438.608	10.97
438.812	11.09
439.017	10.94
439.222	11
439.426	10.85
439.631	10.83
439.836	10.76
440.04	10.81
440.245	10.77
440.45	10.81
440.654	10.81
440.859	10.86
441.063	10.85
441.268	10.92
441.472	10.94
441.677	10.79
441.881	10.72
442.086	10.72
442.29	10.63
442.495	10.65
442.699	10.67
442.904	10.54
443.108	10.74
443.312	10.92
443.517	11.05
443.721	10.98
443.925	11.03
444.13	10.98
444.334	10.81
444.538	10.83
444.743	10.81
444.947	10.72
445.151	10.76
445.356	10.43
445.56	10.44
445.764	10.3
445.968	10.37
446.173	10.4
446.377	10.48
446.581	10.62
446.785	10.61
446.989	10.6
447.193	10.53
447.398	10.68
447.602	10.67
447.806	10.61
448.01	10.73
448.214	10.76
448.418	10.64
448.622	10.64
448.826	10.5
449.03	10.55
449.234	10.57
449.438	10.62
449.642	10.5
449.846	10.71
450.05	10.62
450.254	10.32
450.458	10.27
450.662	10.45
450.866	10.41
451.069	10.46
451.273	10.3
451.477	10.42
451.681	10.55
451.885	10.38
452.089	10.37
452.292	10.2
452.496	10.34
452.7	10.41
452.904	10.39
453.107	10.42
453.311	10.51
453.515	10.66
453.719	10.43
453.922	10.45
454.126	10.57
454.33	10.27
454.533	10.35
454.737	10.42
454.94	10.21
455.144	10.33
455.348	10.15
455.551	10.18
455.755	10.15
455.958	10.36
456.162	10.32
456.365	10.23
456.569	10.33
456.772	10.34
456.976	10.5
457.179	10.5
457.383	10.36
457.586	10.47
457.79	10.32
457.993	10.34
458.196	10.29
458.4	10.26
458.603	10.24
458.807	10.22
459.01	10.4
459.213	10.23
459.417	10.41
459.62	10.3
459.823	10.29
460.026	10.28
460.23	10.15
460.433	9.97
460.636	9.81
460.839	9.91
461.042	9.85
461.246	9.82
461.449	9.94
461.652	9.78
461.855	9.9
462.058	9.96
462.261	10.05
462.464	9.99
462.668	10.1
462.871	10.47
463.074	10.25
463.277	10.41
463.48	10.3
463.683	10.37
463.886	10.29
464.089	10.24
464.292	10.13
464.495	10.1
464.698	10.23
464.901	10.34
465.104	10.1
465.306	10.11
465.509	10.26
465.712	10.42
465.915	10.34
466.118	10.31
466.321	10.41
466.524	10.33
466.726	10.43
466.929	10.53
467.132	10.33
467.335	10.34
467.538	10.33
467.74	10.22
467.943	10.18
468.146	9.83
468.348	9.87
468.551	9.81
468.754	9.87
468.956	9.8
469.159	9.78
469.362	10.05
469.564	10.15
469.767	10.32
469.969	10.23
470.172	10.18
470.375	10.43
470.577	10.48
470.78	10.47
470.982	10.48
471.185	10.45
471.387	10.39
471.59	10.23
471.792	10.24
471.995	10.24
472.197	10.35
472.399	10.33
472.602	10.29
472.804	10.36
473.007	10.4
473.209	10.36
473.411	10.4
473.614	10.55
473.816	10.63
474.018	10.49
474.22	10.56
474.423	10.61
474.625	10.62
474.827	10.6
475.03	10.68
475.232	10.64
475.434	10.84
475.636	10.78
475.838	10.66
476.04	10.54
476.243	10.52
476.445	10.47
476.647	10.45
476.849	10.54
477.051	10.4
477.253	10.38
477.455	10.42
477.657	10.29
477.859	10.11
478.061	9.86
478.263	9.96
478.465	9.96
478.667	9.84
478.869	9.71
479.071	9.6
479.273	9.66
479.475	9.57
479.677	9.58
479.879	9.49
480.081	9.61
480.283	9.92
480.485	9.85
480.686	10.1
480.888	10.3
481.09	10.28
481.292	10.16
481.494	10.28
481.695	10.24
481.897	9.99
482.099	10
482.301	9.98
482.502	9.79
482.704	9.73
482.906	9.58
483.107	9.52
483.309	9.51
483.511	9.5
483.712	9.52
483.914	9.52
484.115	9.57
484.317	9.58
484.519	9.55
484.72	9.54
484.922	9.57
485.123	9.54
485.325	9.55
485.526	9.55
485.728	9.56
485.929	9.51
486.131	9.49
486.332	9.52
486.534	9.59
486.735	9.61
486.936	9.66
487.138	9.59
487.339	9.62
487.541	9.6
487.742	9.65
487.943	9.75
488.144	9.77
488.346	9.8
488.547	9.79
488.748	9.76
488.95	9.72
489.151	9.8
489.352	9.83
489.553	9.92
489.755	9.96
489.956	9.88
490.157	9.78
490.358	9.74
490.559	9.68
490.76	9.7
490.961	9.56
491.163	9.72
491.364	9.73
491.565	9.85
491.766	9.82
491.967	9.8
492.168	9.84
492.369	9.82
492.57	9.83
492.771	9.93
492.972	9.96
493.173	10.11
493.374	10.05
493.575	10.02
493.776	10.03
493.976	10.06
494.177	10.09
494.378	10.2
494.579	10.33
494.78	10.42
494.981	10.43
495.182	10.45
495.382	10.53
495.583	10.6
495.784	10.62
495.985	10.64
496.185	10.69
496.386	10.76
496.587	10.85
496.788	10.83
496.988	10.66
497.189	10.67
497.39	10.63
497.59	10.52
497.791	10.35
497.992	10.41
498.192	10.47
498.393	10.46
498.593	10.45
498.794	10.31
498.994	10.4
499.195	10.47
499.395	10.52
499.596	10.61
499.796	10.55
499.997	10.84
500.197	10.67
500.398	10.45
500.598	10.28
500.799	10.32
500.999	10.39
501.199	10.24
501.4	10.31
501.6	10.36
501.801	10.41
502.001	10.61
502.201	10.52
502.402	10.7
502.602	10.84
502.802	11.05
503.002	11.13
503.203	11.2
503.403	11.39
503.603	11.5
503.803	11.52
504.003	11.56
504.204	11.66
504.404	11.81
504.604	11.93
504.804	12.2
505.004	12.32
505.204	12.33
505.404	12.31
505.604	12.15
505.804	12.14
506.005	12.17
506.205	12.19
506.405	12.13
506.605	12.13
506.805	12.08
507.005	11.86
507.204	11.78
507.404	11.64
507.604	11.82
507.804	12.03
508.004	12.08
508.204	12.09
508.404	12.18
508.604	12.21
508.804	12.27
509.003	12.36
509.203	12.4
509.403	12.42
509.603	12.67
509.803	12.56
510.002	12.7
510.202	12.71
510.402	12.89
510.602	12.9
510.801	12.93
511.001	12.92
511.201	12.99
511.4	13.12
511.6	13.25
511.8	13.21
511.999	13.44
512.199	13.35
512.398	13.39
512.598	13.45
512.797	13.76
512.997	13.87
513.197	13.97
513.396	14.18
513.596	14.22
513.795	14.32
513.994	14.34
514.194	14.29
514.393	14.34
514.593	14.58
514.792	14.59
514.992	14.59
515.191	14.7
515.39	14.76
515.59	14.7
515.789	14.89
515.988	14.97
516.188	15.12
516.387	15.27
516.586	15.54
516.786	15.59
516.985	15.75
517.184	15.91
517.383	15.91
517.582	16.01
517.782	16.04
517.981	16.03
518.18	15.99
518.379	16.27
518.578	16.34
518.777	16.41
518.976	16.54
519.176	16.59
519.375	16.52
519.574	16.67
519.773	16.79
519.972	17
520.171	17.24
520.37	17.49
520.569	17.42
520.768	17.63
520.967	17.64
521.166	17.76
521.365	17.75
521.564	17.92
521.762	18.07
521.961	18.26
522.16	18.31
522.359	18.44
522.558	18.53
522.757	18.71
522.956	18.68
523.154	18.86
523.353	18.99
523.552	19.14
523.751	19.23
523.949	19.36
524.148	19.35
524.347	19.49
524.546	19.6
524.744	19.86
524.943	19.85
525.142	19.93
525.34	20.06
525.539	20.12
525.737	20.27
525.936	20.27
526.135	20.37
526.333	20.47
526.532	20.46
526.73	20.45
526.929	20.5
527.127	20.61
527.326	20.75
527.524	20.85
527.723	20.9
527.921	21.06
528.12	21.19
528.318	21.19
528.516	21.32
528.715	21.39
528.913	21.46
529.112	21.51
529.31	21.61
529.508	21.66
529.707	21.71
529.905	21.86
530.103	21.85
530.301	21.89
530.5	22.06
530.698	22.13
530.896	22.31
531.094	22.5
531.293	22.6
531.491	22.72
531.689	22.81
531.887	22.94
532.085	22.93
532.283	23
532.481	23.15
532.68	23.21
532.878	23.25
533.076	23.36
533.274	23.34
533.472	23.34
533.67	23.4
533.868	23.45
534.066	23.53
534.264	23.55
534.462	23.64
534.66	23.7
534.858	23.84
535.056	23.97
535.253	23.93
535.451	24.06
535.649	24.27
535.847	24.42
536.045	24.68
536.243	24.8
536.441	25.02
536.638	25.18
536.836	25.27
537.034	25.4
537.232	25.43
537.43	25.53
537.627	25.63
537.825	25.69
538.023	25.84
538.22	25.97
538.418	26
538.616	26.08
538.813	26.23
539.011	26.47
539.209	26.5
539.406	26.71
539.604	26.93
539.801	27
539.999	27.12
540.196	27.1
540.394	27.07
540.591	27.14
540.789	27.17
540.986	27.2
541.184	27.16
541.381	27.19
541.579	27.24
541.776	27.32
541.974	27.41
542.171	27.49
542.368	27.52
542.566	27.55
542.763	27.63
542.96	27.77
543.158	27.9
543.355	28.03
543.552	28.2
543.75	28.3
543.947	28.32
544.144	28.41
544.341	28.49
544.539	28.66
544.736	28.84
544.933	28.93
545.13	28.94
545.327	28.92
545.524	28.95
545.722	29.03
545.919	29.02
546.116	29.1
546.313	29.08
546.51	29.17
546.707	29.22
546.904	29.25
547.101	29.34
547.298	29.51
547.495	29.57
547.692	29.73
547.889	29.62
548.086	29.75
548.283	29.97
548.48	30.25
548.677	30.36
548.874	30.47
549.07	30.65
549.267	30.73
549.464	30.76
549.661	30.8
549.858	30.85
550.055	31.09
550.251	31.06
550.448	31.06
550.645	31.08
550.842	31.1
551.038	31.11
551.235	31.11
551.432	31.2
551.628	31.33
551.825	31.51
552.022	31.66
552.218	31.65
552.415	31.81
552.612	31.91
552.808	31.98
553.005	31.98
553.201	32.08
553.398	32.15
553.594	32.43
553.791	32.57
553.987	32.76
554.184	32.71
554.38	32.71
554.577	32.79
554.773	32.7
554.97	32.77
555.166	32.99
555.362	33.16
555.559	33.3
555.755	33.28
555.952	33.22
556.148	33.33
556.344	33.46
556.541	33.49
556.737	33.68
556.933	33.92
557.129	33.82
557.326	33.83
557.522	33.67
557.718	33.73
557.914	33.77
558.11	33.68
558.307	33.41
558.503	33.54
558.699	33.81
558.895	33.85
559.091	33.96
559.287	34.34
559.483	34.48
559.679	34.61
559.876	34.5
560.072	34.62
560.268	34.93
560.464	35.27
560.66	35.14
560.856	35.38
561.052	35.33
561.247	35.3
561.443	35.07
561.639	35.21
561.835	35.45
562.031	35.6
562.227	35.54
562.423	35.65
562.619	35.51
562.815	35.76
563.01	35.81
563.206	35.96
563.402	35.97
563.598	36.16
563.793	36
563.989	36.1
564.185	36.1
564.381	36.26
564.576	36.29
564.772	36.35
564.968	36.41
565.163	36.36
565.359	36.32
565.555	36.34
565.75	36.47
565.946	36.47
566.141	36.54
566.337	36.63
566.532	36.58
566.728	36.68
566.923	36.64
567.119	36.54
567.314	36.61
567.51	36.54
567.705	36.71
567.901	36.74
568.096	36.72
568.292	36.8
568.487	36.95
568.682	37.17
568.878	37.03
569.073	37.24
569.268	37.37
569.464	37.47
569.659	37.76
569.854	37.58
570.05	37.45
570.245	37.92
570.44	37.87
570.635	37.71
570.831	37.71
571.026	37.93
571.221	38.21
571.416	38.32
571.611	38.29
571.806	38.2
572.002	38.46
572.197	38.65
572.392	38.51
572.587	38.68
572.782	38.86
572.977	38.68
573.172	38.67
573.367	38.54
573.562	38.49
573.757	38.59
573.952	38.4
574.147	38.34
574.342	38.3
574.537	38.18
574.732	37.9
574.927	38
575.121	38.12
575.316	38.15
575.511	38.2
575.706	38.27
575.901	38.16
576.096	38.44
576.29	38.36
576.485	38.46
576.68	38.62
576.875	38.78
577.069	38.68
577.264	38.96
577.459	38.86
577.654	38.93
577.848	38.93
578.043	39.22
578.238	39.41
578.432	39.44
578.627	39.39
578.821	39.36
579.016	39.39
579.21	39.53
579.405	39.53
579.6	39.73
579.794	39.86
579.989	39.99
580.183	40.21
580.378	40.11
580.572	40.64
580.766	40.72
580.961	40.75
581.155	40.66
581.35	40.75
581.544	40.86
581.738	40.81
581.933	40.6
582.127	40.82
582.321	40.64
582.516	40.89
582.71	40.76
582.904	41.11
583.099	41.46
583.293	41.95
583.487	41.9
583.681	41.91
583.875	41.76
584.07	42.02
584.264	41.95
584.458	41.86
584.652	41.64
584.846	41.71
585.04	41.42
585.234	41.42
585.428	41.15
585.623	41.3
585.817	40.96
586.011	41.19
586.205	41.27
586.399	41.05
586.593	41.08
586.787	41.22
586.981	41.07
587.174	41.43
587.368	41.32
587.562	41.51
587.756	41.45
587.95	41.69
588.144	41.7
588.338	41.63
588.532	41.92
588.725	42.05
588.919	42.12
589.113	42.2
589.307	42.29
589.501	42.13
589.694	42.18
589.888	42.09
590.082	42.03
590.275	42.03
590.469	42.23
590.663	42.25
590.856	41.97
591.05	42.06
591.244	41.98
591.437	42.06
591.631	42.23
591.824	41.97
592.018	42.22
592.212	42.38
592.405	42.79
592.599	42.74
592.792	42.77
592.986	42.8
593.179	42.74
593.372	43.02
593.566	42.45
593.759	42.67
593.953	42.81
594.146	42.8
594.339	43.09
594.533	42.87
594.726	42.45
594.92	42.36
595.113	42.38
595.306	42.26
595.499	42.21
595.693	42.62
595.886	42.73
596.079	42.87
596.272	42.72
596.466	42.44
596.659	42.34
596.852	42.69
597.045	42.56
597.238	42.74
597.431	42.77
597.624	42.92
597.818	42.8
598.011	42.69
598.204	42.52
598.397	42.53
598.59	42.67
598.783	42.94
598.976	42.95
599.169	43.06
599.362	43.16
599.555	43.36
599.748	43.16
599.941	43.13
600.134	43.17
600.326	43.44
600.519	43.65
600.712	43.68
600.905	43.57
601.098	43.73
601.291	43.77
601.483	43.47
601.676	43.43
601.869	43.45
602.062	43.4
602.255	43.3
602.447	43.08
602.64	43.02
602.833	42.68
603.025	42.67
603.218	42.58
603.411	42.68
603.603	42.88
603.796	42.92
603.989	42.65
604.181	42.87
604.374	42.84
604.566	43.03
604.759	43
604.951	43.22
605.144	43.32
605.336	43.37
605.529	43.32
605.721	43.28
605.914	43.27
606.106	43.5
606.299	43.53
606.491	43.57
606.683	43.63
606.876	43.6
607.068	43.69
607.26	43.58
607.453	43.32
607.645	43.21
607.837	43.43
608.03	43.49
608.222	43.49
608.414	43.17
608.606	43.28
608.799	43.13
608.991	43.34
609.183	43.35
609.375	43.63
609.567	43.74
609.759	44.02
609.952	43.92
610.144	43.86
610.336	43.99
610.528	44.13
610.72	44.16
610.912	44.33
611.104	44.7
611.296	44.72
611.488	44.53
611.68	44.67
611.872	44.57
612.064	44.85
612.256	45.17
612.448	45.35
612.64	45.63
612.832	45.75
613.023	45.61
613.215	45.17
613.407	45.06
613.599	44.75
613.791	44.79
613.983	44.45
614.174	44.07
614.366	43.71
614.558	43.55
614.75	43.5
614.941	43.34
615.133	43.24
615.325	43.43
615.516	43.45
615.708	43.84
615.9	43.93
616.091	44.37
616.283	44.55
616.475	44.4
616.666	44.52
616.858	44.55
617.049	44.4
617.241	44.55
617.432	44.38
617.624	44.58
617.815	44.43
618.007	44.48
618.198	44.52
618.39	44.39
618.581	44.66
618.773	44.26
618.964	44.02
619.155	43.96
619.347	43.52
619.538	43.54
619.729	43.32
619.921	43.23
620.112	43.23
620.303	43.11
620.494	43.32
620.686	43.27
620.877	43.78
621.068	43.81
621.259	43.91
621.451	44.43
621.642	44.24
621.833	44.4
622.024	44.51
622.215	44.29
622.406	44.43
622.597	44.29
622.788	44.43
622.98	44.29
623.171	44.2
623.362	44.38
623.553	44.51
623.744	44.7
623.935	44.39
624.126	44.45
624.317	44.75
624.508	44.49
624.698	44.52
624.889	44.38
625.08	44.63
625.271	44.77
625.462	44.93
625.653	44.84
625.844	45.03
626.034	45.21
626.225	45.4
626.416	45.07
626.607	45.09
626.798	45.13
626.988	45
627.179	44.77
627.37	44.7
627.56	44.66
627.751	44.79
627.942	44.8
628.132	44.69
628.323	44.46
628.514	44.89
628.704	44.81
628.895	44.85
629.085	44.97
629.276	44.82
629.466	45.06
629.657	44.69
629.847	44.52
630.038	44.75
630.228	44.83
630.419	45.13
630.609	44.77
630.8	44.83
630.99	44.8
631.181	45.13
631.371	45.38
631.561	45.03
631.752	45.44
631.942	45.62
632.132	45.24
632.323	45.41
632.513	45.23
632.703	44.98
632.893	45.32
633.084	45.13
633.274	44.9
633.464	44.89
633.654	45.17
633.844	44.89
634.034	44.78
634.225	44.37
634.415	44.19
634.605	44.35
634.795	44.73
634.985	44.72
635.175	45.16
635.365	45.19
635.555	45.16
635.745	44.94
635.935	45.01
636.125	45.01
636.315	45.84
636.505	45.87
636.695	45.63
636.885	45.32
637.075	45.35
637.265	44.87
637.455	44.97
637.644	45.04
637.834	45.15
638.024	45.34
638.214	45.47
638.404	44.99
638.593	45.01
638.783	44.79
638.973	45.05
639.163	44.81
639.352	44.95
639.542	44.95
639.732	45.06
639.921	45.15
640.111	45.67
640.301	45.42
640.49	45.75
640.68	45.96
640.87	46.1
641.059	46.23
641.249	46.69
641.438	46.75
641.628	46.61
641.817	46.79
642.007	46.95
642.196	46.42
642.386	46.56
642.575	46.69
642.764	46.47
642.954	46.64
643.143	46.8
643.333	46.62
643.522	46.62
643.711	46.78
643.901	46.3
644.09	46.14
644.279	46.48
644.469	46.28
644.658	45.96
644.847	46.23
645.036	46.42
645.226	46.11
645.415	46.13
645.604	46.04
645.793	45.86
645.982	45.9
646.171	46.19
646.361	45.89
646.55	46.52
646.739	46.61
646.928	46.71
647.117	46.9
647.306	47.13
647.495	46.82
647.684	46.73
647.873	47.41
648.062	47.51
648.251	47.08
648.44	47.02
648.629	46.5
648.818	46.53
649.007	46.13
649.196	46.01
649.384	45.78
649.573	45.94
649.762	46.01
649.951	45.6
650.14	45.54
650.328	45.64
650.517	45.74
650.706	46.19
650.895	46.36
651.083	47.33
651.272	47.28
651.461	47.03
651.65	46.88
651.838	47.02
652.027	46.94
652.216	46.87
652.404	46.79
652.593	46.4
652.781	46.05
652.97	45.72
653.158	44.88
653.347	44.96
653.535	45.16
653.724	45.62
653.912	46
654.101	45.8
654.289	45.92
654.478	46.34
654.666	46.8
654.855	46.81
655.043	46.63
655.231	46.17
655.42	45.99
655.608	46.26
655.796	46.26
655.985	45.77
656.173	45.84
656.361	45.89
656.55	45.82
656.738	45.67
656.926	45.69
657.114	45.74
657.302	46.39
657.491	46.59
657.679	46.61
657.867	46.44
658.055	46.74
658.243	46.66
658.431	46.7
658.619	46.63
658.807	46.92
658.996	46.8
659.184	47.08
659.372	47.12
659.56	46.79
659.748	46.59
659.936	46.53
660.124	46.54
660.311	46.73
660.499	46.68
660.687	46.69
660.875	46.27
661.063	46.46
661.251	45.97
661.439	45.85
661.627	46.39
661.814	46.25
662.002	46.07
662.19	46.05
662.378	45.89
662.565	46
662.753	45.85
662.941	46.48
663.129	46.08
663.316	46.44
663.504	46.36
663.692	45.51
663.879	45.69
664.067	45.78
664.254	45.54
664.442	45.6
664.63	45.42
664.817	45.57
665.005	45.18
665.192	45.94
665.38	45.85
665.567	45.85
665.755	46.34
665.942	46.23
666.13	46.39
666.317	46.63
666.504	46.75
666.692	46.88
666.879	46.99
667.067	47.11
667.254	47.24
667.441	46.89
667.629	47.06
667.816	46.81
668.003	47.02
668.19	46.97
668.378	46.71
668.565	47.06
668.752	47.09
668.939	46.91
669.127	46.74
669.314	46.08
669.501	46.45
669.688	46.46
669.875	46.61
670.062	46.72
670.249	46.81
670.436	46.95
670.623	46.78
670.81	46.83
670.997	46.87
671.184	46.78
671.371	47.56
671.558	47.22
671.745	47.09
671.932	46.92
672.119	46.72
672.306	47.05
672.493	47.16
672.68	46.88
672.867	47.04
673.054	47.28
673.24	47.23
673.427	46.3
673.614	47.06
673.801	47.22
673.988	47.31
674.174	48.04
674.361	47.85
674.548	47.06
674.734	47.37
674.921	46.96
675.108	46.8
675.294	47.17
675.481	47.2
675.668	47.35
675.854	47.33
676.041	47.71
676.227	47.08
676.414	47.3
676.601	48.46
676.787	47.8
676.974	48.02
677.16	47.89
677.347	48.23
677.533	48.88
677.719	48.51
677.906	48.46
678.092	48.59
678.279	48.6
678.465	48.46
678.651	48.03
678.838	48.26
679.024	47.97
679.21	47.56
679.397	47.42
679.583	47.26
679.769	47.07
679.955	46.94
680.142	46.75
680.328	46.89
680.514	46.73
680.7	46.91
680.886	47.22
681.073	47.44
681.259	47.61
681.445	47.08
681.631	47
681.817	47.16
682.003	47.55
682.189	47.52
682.375	47.68
682.561	47.94
682.747	47.54
682.933	47.38
683.119	47.57
683.305	47.73
683.491	47.93
683.677	47.74
683.863	47.65
684.049	47.63
684.235	48.06
684.42	47.84
684.606	46.97
684.792	47.42
684.978	47.71
685.164	47.48
685.349	47.92
685.535	48.26
685.721	48.3
685.907	47.98
686.092	47.69
686.278	47.51
686.464	47.43
686.649	48.07
686.835	47.68
687.021	47.7
687.206	47.54
687.392	47.2
687.577	47.01
687.763	47.63
687.948	48.26
688.134	48.2
688.319	48.12
688.505	47.91
688.69	47.37
688.876	47.48
689.061	47.11
689.247	47.31
689.432	47.45
689.618	47.21
689.803	46.41
689.988	46.55
690.174	46.77
690.359	46.21
690.544	47.13
690.73	47.84
690.915	48.05
691.1	48
691.285	48.74
691.471	48.61
691.656	48.4
691.841	48.7
692.026	48.19
692.211	48.45
692.396	48.75
692.582	48.67
692.767	48.44
692.952	48.17
693.137	48.04
693.322	47.88
693.507	48.21
693.692	48.44
693.877	48.45
694.062	48.62
694.247	48.75
694.432	48.69
694.617	47.98
694.802	47.96
694.987	48
695.172	48.86
695.357	48.22
695.541	47.99
695.726	48.74
695.911	49.27
696.096	49.29
696.281	49
696.466	49.53
696.65	49.73
696.835	49.43
697.02	49.13
697.204	49.01
697.389	49.01
697.574	49.09
697.759	48.32
697.943	47.94
698.128	48.02
698.312	47.97
698.497	47.84
698.682	47.53
698.866	47.59
699.051	47.94
699.235	47.82
699.42	47.98
699.604	47.93
699.789	48.57
699.973	48.55
700.158	48.25
700.342	48.19
700.527	48.57
700.711	48.97
700.895	49.51
701.08	49.51
701.264	49.36
701.448	48.83
701.633	48.97
701.817	48.81
702.001	49.09
702.186	49.56
702.37	49.34
702.554	48.41
702.738	48.27
702.923	47.8
703.107	47.72
703.291	48.19
703.475	49.75
703.659	49.19
703.843	49.27
704.027	48.88
704.212	47.97
704.396	49.02
704.58	50.01
704.764	49.66
704.948	49.61
705.132	49.71
705.316	49.63
705.5	48.74
705.684	49.28
705.868	49.3
706.052	49.93
706.235	51.29
706.419	50.73
706.603	50.16
706.787	49.66
706.971	50.41
707.155	50.31
707.339	49.82
707.522	49.84
707.706	49.74
707.89	48.72
708.074	48.68
708.257	48.43
708.441	48.51
708.625	48.7
708.808	49.18
708.992	49.09
709.176	48.79
709.359	48.98
709.543	48.52
709.727	48.51
709.91	49.26
710.094	49.09
710.277	49.54
710.461	49.18
710.644	48.99
710.828	49.88
711.011	49.32
711.195	49.4
711.378	49.54
711.562	49.9
711.745	49.68
711.928	49.4
712.112	49.03
712.295	47.84
712.478	48.17
712.662	48.62
712.845	48.04
713.028	47.57
713.212	47.98
713.395	47.5
713.578	47.19
713.761	47.67
713.945	48.14
714.128	48.73
714.311	48.64
714.494	48.54
714.677	48.41
714.86	48.32
715.043	49.12
715.227	49.06
715.41	49.81
715.593	49.72
715.776	49.71
715.959	49.14
716.142	48.97
716.325	49.91
716.508	50.4
716.691	49.86
716.874	49.86
717.057	49.4
717.239	49.61
717.422	48.89
717.605	48.43
717.788	48.28
717.971	49.19
718.154	48.77
718.337	48.77
718.519	47.69
718.702	48.29
718.885	48.45
719.068	49.16
719.25	49.04
719.433	49.78
719.616	50.75
719.798	51.12
719.981	50.83
720.164	50.71
720.346	51.06
720.529	52.04
720.712	51.62
720.894	51.69
721.077	51.04
721.259	51.36
721.442	51.27
721.624	51.91
721.807	50.71
721.989	50.69
722.172	50.04
722.354	49.95
722.537	49.86
722.719	49.83
722.901	51.43
723.084	51.36
723.266	51.25
723.448	51.5
723.631	51.05
723.813	51.93
723.995	52.32
724.178	53.87
724.36	52.48
724.542	52
724.724	51.98
724.907	51.28
725.089	52.66
725.271	52.43
725.453	51.97
725.635	51.51
725.817	50.99
725.999	50.84
726.181	50.77
726.364	51.07
726.546	50.51
726.728	50.42
726.91	48.91
727.092	47.56
727.274	47.39
727.456	47.65
727.638	47.01
727.819	47.74
728.001	46.84
728.183	46.49
728.365	47.36
728.547	48.66
728.729	49.33
728.911	50.27
729.093	50.93
729.274	50.44
729.456	49.48
729.638	50.29
729.82	49.89
730.001	49.98
730.183	50.31
730.365	49.51
730.546	48.72
730.728	48.43
730.91	47.56
731.091	47.83
731.273	48.09
731.455	49.09
731.636	49.53
731.818	49.9
731.999	49.92
732.181	49.39
732.362	50.01
732.544	50.89
732.725	50.59
732.907	51.15
733.088	50.54
733.27	51.16
733.451	50.84
733.633	51.11
733.814	51.09
733.995	51.16
734.177	51.86
734.358	51.66
734.539	51.12
734.721	51.98
734.902	52.03
735.083	53.06
735.264	52.64
735.446	53.07
735.627	51.45
735.808	51.37
735.989	52.32
736.17	52.17
736.351	52.98
736.533	52.08
736.714	51.03
736.895	50.65
737.076	49.15
737.257	49.67
737.438	48.89
737.619	50.01
737.8	50.02
737.981	50.03
738.162	50.14
738.343	49.27
738.524	50.06
738.705	50.47
738.886	50.81
739.067	51.32
739.247	51.09
739.428	51.77
739.609	50.92
739.79	51.17
739.971	50.94
740.151	50.19
740.332	50.06
740.513	50.12
740.694	49.94
740.874	49.17
741.055	49.65
741.236	49.47
741.417	49.06
741.597	50.25
741.778	49.93
741.958	49.2
742.139	48.48
742.32	47.77
742.5	47.4
742.681	47.32
742.861	47.95
743.042	47.26
743.222	47.24
743.403	46.95
743.583	47.4
743.764	47.28
743.944	47.54
744.124	49.18
744.305	49.88
744.485	50.03
744.666	51.09
744.846	52.32
745.026	53
745.207	53.42
745.387	53.9
745.567	51.85
745.747	52.2
745.928	51.44
746.108	51.02
746.288	51.37
746.468	51.51
746.648	51.54
746.829	50.11
747.009	49.71
747.189	48.74
747.369	48.61
747.549	48.92
747.729	48.22
747.909	49.69
748.089	49.95
748.269	50
748.449	50.42
748.629	50.15
748.809	49.96
748.989	50.64
749.169	52.25
749.349	52.84
749.529	53.28
749.709	53.69
749.889	53.52
750.068	53.28
750.248	53.65
750.428	53.78
750.608	52.59
750.788	53.23
750.967	52.58
751.147	51.56
751.327	50.5
751.507	50.57
751.686	50.47
751.866	50.41
752.046	50.81
752.225	50.43
752.405	50.37
752.585	49.91
752.764	50.07
752.944	49.09
753.123	49.39
753.303	50.09
753.482	50.1
753.662	50.01
753.841	49.25
754.021	48.68
754.2	49.39
754.38	49.58
754.559	50.6
754.739	51.18
754.918	52.22
755.097	51.62
755.277	51.79
755.456	51.4
755.635	51.32
755.815	52.07
755.994	53.25
756.173	51.94
756.352	50.53
756.532	50.17
756.711	49.03
756.89	48.82
757.069	50.1
757.248	49.12
757.427	49.47
757.607	49.72
757.786	48.78
757.965	47.17
758.144	47.62
758.323	49.22
758.502	49.98
758.681	49.96
758.86	50.24
759.039	49.65
759.218	50.62
759.397	51.45
759.576	51.3
759.755	51.46
759.934	52.62
760.113	53.32
760.291	52.7
760.47	53.27
760.649	53.33
760.828	53.02
761.007	52.07
761.186	51.01
761.364	50.39
761.543	50.27
761.722	50.94
761.901	50.59
762.079	50.25
762.258	50.25
762.437	48.82
762.615	49.13
762.794	48.56
762.972	49.67
763.151	49.66
763.33	49.4
763.508	49.21
763.687	49.14
763.865	48.91
764.044	48.45
764.222	47.69
764.401	48.02
764.579	48.07
764.758	48.27
764.936	47.84
765.114	48.45
765.293	48.76
765.471	49.5
765.65	49.14
765.828	49.49
766.006	50.08
766.184	50.76
766.363	50.96
766.541	50.07
766.719	50.27
766.898	51.51
767.076	50.59
767.254	50.92
767.432	50.82
767.61	51.49
767.788	51.47
767.967	50.56
768.145	51.08
768.323	51.28
768.501	51.61
768.679	52.19
768.857	50.69
769.035	52.58
769.213	52.49
769.391	52.01
769.569	50.69
769.747	51.08
769.925	50.88
770.103	50.43
770.281	49.82
770.459	49.77
770.636	49.42
770.814	49.71
770.992	48.42
771.17	48.8
771.348	48.79
771.525	49.84
771.703	49.65
771.881	51.35
772.059	53.08
772.236	52.89
772.414	54.57
772.592	55.52
772.769	54.27
772.947	53.47
773.125	52.9
773.302	54.05
773.48	55.34
773.657	55
773.835	54.1
774.013	53.99
774.19	54.41
774.368	53.39
774.545	52.18
774.723	53.08
774.9	54.45
775.077	53.57
775.255	53.43
775.432	52.76
775.61	51.38
775.787	51.13
775.964	50.49
776.142	49.58
776.319	48.74
776.496	50.38
776.674	51.37
776.851	52.78
777.028	53.59
777.205	53.34
777.382	53.52
777.56	55.48
777.737	57.54
777.914	57.38
778.091	57.3
778.268	57.56
778.445	57.58
778.622	56.43
778.8	54.39
778.977	55.35
779.154	58.61
779.331	56.68
779.508	54.77
779.685	52.92
779.862	53.52
780.038	54.76
780.215	57.43
780.392	57.03
780.569	56.58
780.746	56.91
780.923	56.3
781.1	52.42
781.277	52.76
781.453	53.15
781.63	52.73
781.807	51.99
781.984	51.72
782.16	50.22
782.337	49.61
782.514	51.8
782.691	50.94
782.867	50.13
783.044	50.49
783.221	52.09
783.397	53.35
783.574	54.5
783.75	52.72
783.927	54.09
784.103	53.57
784.28	52.83
784.456	52.28
784.633	53.64
784.809	54.39
784.986	53.02
785.162	54.78
785.339	52.93
785.515	51.89
785.692	51.68
785.868	53.03
786.044	55.34
786.221	57.85
786.397	58.7
786.573	57.21
786.749	57.99
786.926	59.94
787.102	58.89
787.278	61
787.454	64.45
787.631	67.28
787.807	64.4
787.983	62.87
788.159	61.54
788.335	58.88
788.511	60.89
788.687	59.58
788.863	59.65
789.039	58.39
789.216	56.33
789.392	53.95
789.568	52.06
789.744	53.77
789.919	55.05
790.095	54.91
790.271	56.05
790.447	55.49
790.623	55.03
790.799	54.45
790.975	54.04
791.151	57.91
791.327	58.2
791.502	56.2
791.678	55.41
791.854	54.88
792.03	54.47
792.205	55.22
792.381	54.47
792.557	54.54
792.733	53.52
792.908	54.05
793.084	52.26
793.259	49.06
793.435	50.74
793.611	50.61
793.786	48.13
793.962	47.97
794.137	47.87
794.313	48.24
794.488	50.89
794.664	52.54
794.839	51.88
795.015	51.49
795.19	53.03
795.366	54.95
795.541	56.08
795.716	56.22
795.892	55.99
796.067	57.36
796.242	57.05
796.418	54.44
796.593	54.37
796.768	55.89
796.944	55.12
797.119	54.82
797.294	55.44
797.469	55.28
797.644	55.19
797.82	57.7
797.995	57.32
798.17	58.87
798.345	58.77
798.52	58.34
798.695	55.82
798.87	55.28
799.045	56.32
799.22	55.22
799.395	52.93
799.57	54.88
799.745	53.26
799.92	53.06
800.095	51.93
800.27	53.13
800.445	51.73
800.62	51.04
800.795	52.14
800.97	54.05
801.145	52.87
801.319	53.24
801.494	53.75
801.669	57.17
801.844	56.53
802.018	54.69
802.193	53.84
802.368	53.94
802.543	58.04
802.717	60.82
802.892	59.81
803.067	62.8
803.241	63.92
803.416	61
803.59	59.78
803.765	58.51
803.94	61.68
804.114	60.14
804.289	60.84
804.463	60.19
804.638	56
804.812	56.2
804.986	53.58
805.161	55.45
805.335	58.49
805.51	55.2
805.684	58.03
805.858	55.43
806.033	55.97
806.207	55.09
806.381	57.17
806.556	58.21
806.73	56.97
806.904	59.08
807.078	58.89
807.253	58.27
807.427	58.85
807.601	57.29
807.775	62.15
807.949	64.87
808.123	64.79
808.298	62.45
808.472	62.5
808.646	63.82
808.82	61.39
808.994	56.69
809.168	54.54
809.342	58.55
809.516	61.35
809.69	58.81
809.864	56.26
810.038	57.57
810.212	57.37
810.385	57.37
810.559	57.01
810.733	59.22
810.907	64.97
811.081	66.58
811.255	61.42
811.428	55.8
811.602	54.59
811.776	58.5
811.95	59.3
812.123	58.77
812.297	59.12
812.471	58.65
812.644	57.56
812.818	54.75
812.992	56.79
813.165	58.52
813.339	60.06
813.512	61.12
813.686	60
813.86	59.21
814.033	58.53
814.207	60.95
814.38	60.01
814.554	60.32
814.727	62.96
814.9	62.98
815.074	62.11
815.247	60.31
815.421	58.08
815.594	59.22
815.767	60.07
815.941	60.49
816.114	61.03
816.287	61.49
816.46	60.34
816.634	56.9
816.807	58.24
816.98	59.82
817.153	61.91
817.327	65.19
817.5	62.24
817.673	63.07
817.846	64.36
818.019	64.35
818.192	66.13
818.365	66.6
818.538	70.09
818.711	66.58
818.884	62.95
819.057	62.38
819.23	60.03
819.403	61.09
819.576	62.02
819.749	62.93
819.922	58.1
820.095	56.09
820.268	55.23
820.441	54.55
820.614	54.32
820.786	55.21
820.959	55.77
821.132	52.55
821.305	51.45
821.477	50.08
821.65	49.27
821.823	50.14
821.996	50.06
822.168	49.45
822.341	48.69
822.514	49.25
822.686	49.05
822.859	48.91
823.031	49.18
823.204	48.71
823.376	48.27
823.549	47.86
823.722	47.58
823.894	48
824.067	47.93
824.239	48.22
824.411	47.57
824.584	47.69
824.756	47.3
824.929	47.53
825.101	47.88
825.273	47.95
825.446	47.8
825.618	47.63
825.79	47.12
825.963	47.46
826.135	47.74
826.307	49.05
826.479	49.41
826.652	49.78
826.824	50.97
826.996	50.59
827.168	51.16
827.34	51.72
827.512	53.47
827.684	53.5
827.856	53.62
828.029	53.81
828.201	52.06
828.373	51.81
828.545	51.17
828.717	50.05
828.889	51.69
829.061	52.57
829.232	52.38
829.404	50.76
829.576	51.01
829.748	51.11
829.92	51.77
830.092	53.37
830.264	52.35
830.436	52.35
830.607	53.47
830.779	53.37
830.951	51.72
831.123	52.97
831.294	53.1
831.466	52.6
831.638	54.1
831.809	51.19
831.981	50.77
832.153	52.38
832.324	50.76
832.496	50.48
832.667	53.17
832.839	55.88
833.011	53.76
833.182	57.08
833.354	56.19
833.525	54.34
833.697	53.54
833.868	51.92
834.039	51.16
834.211	51.8
834.382	51.78
834.554	48.91
834.725	48.08
834.896	46.52
835.068	45.57
835.239	45.78
835.41	48.57
835.581	49.42
835.753	49.82
835.924	49.66
836.095	52.19
836.266	52.56
836.438	50.65
836.609	52.69
836.78	55.89
836.951	56.66
837.122	58.14
837.293	55.37
837.464	57.29
837.635	59.81
837.806	59.35
837.977	58.64
838.148	58.74
838.319	62.31
838.49	60.97
838.661	59.83
838.832	61.25
839.003	62.26
839.174	64.89
839.345	65.17
839.516	65.58
839.687	72.72
839.857	68.33
840.028	66.21
840.199	63.78
840.37	63.67
840.54	67.66
840.711	66.94
840.882	67.9
841.053	67.24
841.223	63.94
841.394	65.59
841.564	69.73
841.735	77.47
841.906	82.46
842.076	87.29
842.247	80.64
842.417	78.63
842.588	74.11
842.758	74.63
842.929	76.41
843.099	79.8
843.27	76.32
843.44	73.44
843.611	76.21
843.781	77.97
843.951	81.87
844.122	89.84
844.292	87.26
844.462	88.74
844.633	88.27
844.803	79.43
844.973	80.85
845.144	79.71
845.314	75.1
845.484	76.98
845.654	70.64
845.824	69.6
845.995	64.76
846.165	73.25
846.335	80.87
846.505	83.41
846.675	91.14
846.845	92.41
847.015	110.75
847.185	118.67
847.355	106.12
847.525	110.65
847.695	107.93
847.865	118.05
848.035	99.28
848.205	91.69
848.375	90.59
848.545	94.77
848.715	88.8
848.884	74.79
849.054	68.09
849.224	73.3
849.394	69.96
849.564	68.81
849.733	71.95
849.903	77.26
850.073	80.26
850.243	81.84
850.412	91.6
850.582	104.56
850.752	108.56
850.921	100.96
851.091	105.58
851.26	120.94
851.43	116.2
851.599	113.96
851.769	109.88
851.939	104.62
852.108	97.62
852.278	89
852.447	87.78
852.616	88.58
852.786	96.01
852.955	94.8
853.125	85.49
853.294	89.63
853.463	83.22
853.633	82.48
853.802	98.63
853.971	113.24
854.141	105.39
854.31	93.26
854.479	91.25
854.648	96.02
854.818	83.95
854.987	83.3
855.156	70.87
855.325	61.41
855.494	78.6
855.663	56.49
855.832	52.31
856.001	61.94
856.171	57
856.34	64.16
856.509	67.6
856.678	73.96
856.847	69.74
857.016	80.48
857.185	85.28
857.353	84.82
857.522	94.66
857.691	87.13
857.86	80.28
858.029	86.89
858.198	92.17
858.367	87.94
858.535	79.16
858.704	85.91
858.873	84.51
859.042	94.7
859.21	83.45
859.379	75.38
859.548	76.02
859.717	74.56
859.885	80.99
860.054	64.2
860.222	61.57
860.391	62.07
860.56	65.94
860.728	71.2
860.897	68.78
861.065	73.39
861.234	71.94
861.402	66.28
861.571	61.6
861.739	62.81
861.908	63.11
862.076	77.55
862.244	80.29
862.413	79.15
862.581	72.99
862.749	74.68
862.918	71.29
863.086	74.23
863.254	80.73
863.423	109.79
863.591	93.64
863.759	94.36
863.927	86.46
864.096	84.38
864.264	81.85
864.432	85.82
864.6	92.62
864.768	100.29
864.936	107.37
865.104	105
865.272	79.54
865.44	86.97
865.608	87.36
865.776	88.45
865.944	93.63
866.112	99.92
866.28	97.03
866.448	91.74
866.616	98.38
866.784	86.5
866.952	76
867.12	83.16
867.288	78.52
867.455	94.33
867.623	96.03
867.791	92.11
867.959	89.96
868.127	89.96
868.294	81.89
868.462	75.07
868.63	88.8
868.797	100.53
868.965	107.01
869.133	103.86
869.3	88.01
869.468	94.52
869.636	87.5
869.803	75.05
869.971	64.91
870.138	70.12
870.306	76.28
870.473	77.73
870.641	79.78
870.808	78.31
870.975	78.84
871.143	78.24
871.31	73.75
871.478	68.9
871.645	78.62
871.812	95.64
871.98	103.44
872.147	82.47
872.314	70.56
872.482	63.18
872.649	59.78
872.816	59.95
872.983	67.85
873.15	68.83
873.318	82.57
873.485	91.51
873.652	91.32
873.819	83.43
873.986	103.12
874.153	113.72
874.32	124.39
874.487	156.26
874.654	169.76
874.821	175.52
874.988	174.54
875.155	166.36
875.322	128.26
875.489	133.26
875.656	136.03
875.823	114.98
875.99	101.23
876.157	84.6
876.324	72.71
876.49	74.02
876.657	74.71
876.824	66.67
876.991	68.99
877.157	66.71
877.324	60.93
877.491	63.2
877.658	64.7
877.824	57.52
877.991	57.12
878.157	59.4
878.324	58.26
878.491	58.25
878.657	60.43
878.824	64.68
878.99	71.96
879.157	76.2
879.323	69.88
879.49	73.74
879.656	83.4
879.823	91.01
879.989	83.09
880.156	86.03
880.322	79.74
880.488	78.73
880.655	71.26
880.821	70.78
880.987	76.26
881.154	81.14
881.32	75.56
881.486	71.35
881.652	72
881.819	71.6
881.985	70.66
882.151	70.8
882.317	67
882.483	70.48
882.649	65.63
882.816	61.32
882.982	59.36
883.148	58.31
883.314	55.42
883.48	54.06
883.646	53.05
883.812	51.39
883.978	51.23
884.144	52.42
884.31	51.89
884.476	51.92
884.642	53.07
884.807	53.14
884.973	51.91
885.139	55.86
885.305	56.5
885.471	56.76
885.637	58.76
885.802	59.52
885.968	59.93
886.134	60.16
886.3	63.57
886.465	62.44
886.631	61.93
886.797	66.85
886.962	62.74
887.128	62.22
887.293	66.78
887.459	61.25
887.625	62.15
887.79	60.69
887.956	56.47
888.121	52.33
888.287	52.5
888.452	55.95
888.618	49.64
888.783	53.21
