Data from CB_074_Reflection_2.txt Node
Date: Sat Nov 14 11:21:29 EST 2015
User: robert
Spectrometer: USB4E03001
Autoset integration time: false
Trigger mode: 4
Integration Time (sec): 1.000000E-1
Scans to average: 15
Electric dark correction enabled: true
Nonlinearity correction enabled: false
Boxcar width: 5
Stray light correction enabled: false
XAxis mode: Wavelengths
Stop averaging: false
Number of Pixels in Spectrum: 3648
>>>>>Begin Spectral Data<<<<<
177.566	-202.19
177.785	-310.97
178.005	-1451.94
178.225	-225.99
178.445	-167.83
178.665	-430.11
178.885	36.72
179.105	-128.81
179.324	-211.92
179.544	-326.03
179.764	-102.71
179.984	-122.23
180.204	-131.56
180.423	-552.81
180.643	-173.48
180.863	-196.56
181.083	-966.54
181.302	-4769.84
181.522	525.91
181.742	631.32
181.961	620.3
182.181	106.18
182.401	73.12
182.621	155.6
182.84	708.39
183.06	-2191.53
183.279	-353.62
183.499	-309.55
183.719	-369.61
183.938	-243.37
184.158	-170.33
184.377	-183.15
184.597	-86.87
184.816	-57.88
185.036	-71.58
185.256	-95.69
185.475	-239.83
185.695	-92.71
185.914	11.46
186.134	66.22
186.353	132.09
186.572	112.42
186.792	431.2
187.011	-1778.99
187.231	1598.38
187.45	221.7
187.67	765.12
187.889	-15.08
188.108	58.14
188.328	84.76
188.547	68.81
188.766	68.02
188.986	67.87
189.205	85.68
189.424	100.84
189.644	123.35
189.863	168.11
190.082	186.58
190.302	240.27
190.521	215.39
190.74	216.49
190.959	953.09
191.178	735.18
191.398	534.67
191.617	1384.71
191.836	4538.17
192.055	689.85
192.274	169.84
192.494	272.73
192.713	5532.14
192.932	-877.37
193.151	168125
193.37	258.23
193.589	-7792.04
193.808	-709.79
194.027	-1025.72
194.246	2259.21
194.465	-1273.24
194.685	225.48
194.904	141.91
195.123	211.24
195.342	138.47
195.561	165.31
195.78	371.58
195.999	916.22
196.218	420.53
196.436	270.29
196.655	151.68
196.874	110.17
197.093	279.56
197.312	223.46
197.531	289.15
197.75	382.85
197.969	425.64
198.188	135.55
198.407	78.81
198.625	93.57
198.844	139.96
199.063	164.81
199.282	324.03
199.501	-1514.84
199.719	-727.04
199.938	442.37
200.157	339.78
200.376	-2317.07
200.594	-127.79
200.813	-364.45
201.032	-764.73
201.251	-387.11
201.469	-402.18
201.688	-784.51
201.907	1760.93
202.125	659.31
202.344	2328.57
202.563	11027.54
202.781	567.85
203	227.21
203.218	143.33
203.437	214.87
203.656	199.07
203.874	538.84
204.093	490.14
204.311	274.36
204.53	383.81
204.748	135.62
204.967	172.91
205.185	91.99
205.404	-25.44
205.622	100.66
205.841	98.45
206.059	70.05
206.278	64.56
206.496	134.09
206.715	183.51
206.933	168.63
207.151	231.64
207.37	147.38
207.588	219.78
207.806	308.51
208.025	429.05
208.243	642.12
208.461	-44750
208.68	1298.81
208.898	379.21
209.116	208.3
209.335	196.12
209.553	155.02
209.771	138.27
209.989	121.5
210.208	120.61
210.426	105.34
210.644	114.73
210.862	98.57
211.081	97.49
211.299	98.13
211.517	118.47
211.735	85.86
211.953	88.18
212.171	95.44
212.39	108.12
212.608	90.87
212.826	68.82
213.044	61.02
213.262	72.67
213.48	73.65
213.698	133.14
213.916	86.49
214.134	143.19
214.352	196.3
214.57	126.73
214.788	119.46
215.006	139.84
215.224	278.94
215.442	596.72
215.66	1255.26
215.878	288.52
216.096	124.2
216.314	502.42
216.532	2264.47
216.75	-668.29
216.968	-898.69
217.185	-5882.3
217.403	1542.83
217.621	-92344.44
217.839	-481.79
218.057	-13793.75
218.275	-451.21
218.492	-24.67
218.71	-1273.19
218.928	968.54
219.146	569.56
219.363	308.13
219.581	380.47
219.799	-1471.34
220.017	204.98
220.234	331.95
220.452	352.75
220.67	532.86
220.887	247.59
221.105	329.87
221.323	178.82
221.54	154.87
221.758	146.63
221.976	145.28
222.193	105.89
222.411	104.79
222.629	84.33
222.846	78.24
223.064	72.77
223.281	85.84
223.499	69.43
223.716	71.3
223.934	53.14
224.151	59.6
224.369	68.8
224.586	76.87
224.804	99.77
225.021	126.88
225.239	119.63
225.456	120.99
225.674	104.54
225.891	118.02
226.108	106.79
226.326	101.85
226.543	101.24
226.76	71.58
226.978	69.81
227.195	68.35
227.413	51.73
227.63	53.92
227.847	49.56
228.064	45.35
228.282	42.05
228.499	42.93
228.716	39.54
228.934	39.28
229.151	42.23
229.368	37.65
229.585	34.86
229.802	35.75
230.02	34.96
230.237	34.52
230.454	35.48
230.671	35.47
230.888	35.64
231.105	37.38
231.323	36.04
231.54	38.34
231.757	38.62
231.974	39.11
232.191	41.62
232.408	42.24
232.625	43.62
232.842	37.84
233.059	36.02
233.276	30.94
233.493	30.96
233.71	35.33
233.927	27.44
234.144	28.92
234.361	28.66
234.578	23.28
234.795	16.99
235.012	14.88
235.229	10.07
235.446	16.34
235.663	19.4
235.879	20.58
236.096	19.91
236.313	28.98
236.53	25.28
236.747	28.52
236.964	30.4
237.181	41.63
237.397	45.8
237.614	54.34
237.831	61.04
238.048	66.08
238.264	64.71
238.481	62.96
238.698	57.64
238.915	60.13
239.131	47.11
239.348	44.57
239.565	37.81
239.781	38.99
239.998	34.66
240.215	25.33
240.431	24.21
240.648	25.98
240.865	25.42
241.081	23.33
241.298	20.76
241.514	27.15
241.731	26.85
241.947	27.68
242.164	26.09
242.38	24.56
242.597	24
242.814	23.56
243.03	25.1
243.246	25.73
243.463	27.62
243.679	28.52
243.896	25.69
244.112	25.55
244.329	25.33
244.545	25.78
244.762	29.14
244.978	31.92
245.194	29.47
245.411	26.22
245.627	24.86
245.843	24.15
246.06	22.2
246.276	21.74
246.492	23.34
246.709	22.59
246.925	22.76
247.141	22.81
247.357	21.22
247.574	21.37
247.79	21.28
248.006	19.77
248.222	19.05
248.439	18.07
248.655	18.66
248.871	16.56
249.087	16.56
249.303	15.27
249.519	14.31
249.736	14.8
249.952	15.12
250.168	16.66
250.384	17.86
250.6	17.46
250.816	21.98
251.032	21.06
251.248	24.28
251.464	24.43
251.68	23.9
251.896	22.41
252.112	24.88
252.328	26.05
252.544	24.88
252.76	24.3
252.976	24.12
253.192	22.86
253.408	22.65
253.624	20.14
253.84	20.37
254.056	22.32
254.272	22.71
254.487	19.18
254.703	13.79
254.919	11.13
255.135	14.65
255.351	16.97
255.567	17.48
255.782	18.94
255.998	21.7
256.214	19.66
256.43	17.71
256.646	20
256.861	22.35
257.077	23.86
257.293	25.15
257.508	23.64
257.724	22.73
257.94	21.79
258.155	21.38
258.371	20.35
258.587	20.48
258.802	20.6
259.018	19.3
259.234	18.39
259.449	18.29
259.665	17.6
259.88	17.51
260.096	16.91
260.312	16.79
260.527	16.19
260.743	16.35
260.958	16
261.174	16.32
261.389	16.75
261.605	16.21
261.82	15.32
262.036	15.24
262.251	15.79
262.466	17.44
262.682	17.17
262.897	17.15
263.113	16.42
263.328	16.05
263.543	16.56
263.759	17.31
263.974	18.04
264.189	17.72
264.405	17.08
264.62	16.25
264.835	13.89
265.051	16.35
265.266	15
265.481	15.91
265.696	18.68
265.912	16.02
266.127	13.65
266.342	12.18
266.557	14.72
266.773	16.4
266.988	14.87
267.203	16.28
267.418	14.47
267.633	16.27
267.848	15.27
268.064	11.61
268.279	13.23
268.494	13.86
268.709	16.26
268.924	15.84
269.139	13.41
269.354	13.4
269.569	11.39
269.784	11.96
269.999	11.6
270.214	12.62
270.429	15.27
270.644	15.59
270.859	14.91
271.074	13.91
271.289	14.92
271.504	15.71
271.719	16.49
271.934	17.37
272.149	17.23
272.363	18.24
272.578	16.99
272.793	16.65
273.008	15.05
273.223	14.87
273.438	14.81
273.653	13.75
273.867	14.44
274.082	14.69
274.297	15.13
274.512	16.01
274.726	15.21
274.941	16.56
275.156	17.02
275.371	17.48
275.585	17.78
275.8	18.46
276.015	18.39
276.229	19.3
276.444	18.91
276.659	17.97
276.873	16.08
277.088	16.23
277.302	17.79
277.517	17.15
277.732	17.67
277.946	19.29
278.161	20.43
278.375	20.39
278.59	17.99
278.804	18.29
279.019	19.72
279.233	20.32
279.448	19.09
279.662	16.75
279.877	16.23
280.091	13.18
280.306	12.71
280.52	9.87
280.735	9.88
280.949	10.97
281.163	11.09
281.378	8.95
281.592	9.47
281.806	10.08
282.021	9.54
282.235	10.19
282.449	11.87
282.664	11.49
282.878	12.1
283.092	11.4
283.307	10.91
283.521	11.17
283.735	11.74
283.949	12.29
284.164	12.05
284.378	12.56
284.592	12.87
284.806	13.21
285.02	12.8
285.234	11.6
285.449	12.29
285.663	13.58
285.877	12.69
286.091	13.05
286.305	13.72
286.519	14.33
286.733	15.02
286.947	14.39
287.161	13.94
287.375	14.1
287.589	15.83
287.803	16.86
288.017	15.53
288.231	16.21
288.445	16.35
288.659	15.12
288.873	15.25
289.087	14.26
289.301	14.5
289.515	14.83
289.729	14.72
289.943	15.72
290.157	15.2
290.371	16.28
290.584	15.84
290.798	15.94
291.012	16.21
291.226	15.61
291.44	15.97
291.654	15.96
291.867	15.31
292.081	14.95
292.295	14.97
292.509	14.75
292.722	13.9
292.936	13.11
293.15	13.13
293.364	12.27
293.577	12.61
293.791	13.17
294.005	13.38
294.218	16.11
294.432	16.37
294.645	16.53
294.859	16.25
295.073	16.89
295.286	17.42
295.5	16.9
295.713	17.24
295.927	16.89
296.14	17.04
296.354	17.25
296.568	16.35
296.781	16.42
296.994	15.62
297.208	15.08
297.421	14.33
297.635	14.57
297.848	14.01
298.062	13.08
298.275	13.42
298.489	13.21
298.702	13.21
298.915	12.44
299.129	12.8
299.342	12.06
299.555	13.22
299.769	13.72
299.982	14.24
300.195	15.6
300.409	16.68
300.622	16.07
300.835	15.79
301.048	15.72
301.262	17.34
301.475	18.16
301.688	18.88
301.901	18.34
302.115	18.84
302.328	18.69
302.541	18.57
302.754	19.91
302.967	20.66
303.18	22.02
303.393	22.79
303.607	22.3
303.82	22.87
304.033	23.64
304.246	24.13
304.459	23.72
304.672	24.25
304.885	24.71
305.098	24.01
305.311	23.55
305.524	21.29
305.737	20.39
305.95	22.1
306.163	20.15
306.376	19.69
306.589	19.97
306.802	20.24
307.015	19.25
307.228	20.08
307.44	19.84
307.653	20.97
307.866	22.18
308.079	22.83
308.292	19.49
308.505	20.77
308.718	20.89
308.93	20.9
309.143	21.65
309.356	23.07
309.569	21.64
309.781	21.02
309.994	21.25
310.207	20.74
310.42	19.84
310.632	20.77
310.845	20.81
311.058	20.1
311.27	19.14
311.483	18.79
311.696	17.68
311.908	17.58
312.121	18.44
312.333	19.03
312.546	19.31
312.759	19.27
312.971	18.78
313.184	19.14
313.396	19.72
313.609	20.08
313.821	20.48
314.034	20.83
314.246	21.53
314.459	21.31
314.671	19.99
314.884	20.38
315.096	20.95
315.309	22.48
315.521	22.48
315.733	21.39
315.946	21.61
316.158	20.65
316.371	21.55
316.583	21.89
316.795	21.3
317.008	21.48
317.22	23.23
317.432	25.32
317.644	25.38
317.857	25.31
318.069	26.08
318.281	26.24
318.494	26.97
318.706	26.51
318.918	26.33
319.13	25.87
319.342	25.04
319.555	23.08
319.767	22.26
319.979	20.37
320.191	19.52
320.403	20.23
320.615	21.65
320.827	21.65
321.039	21.51
321.252	22.28
321.464	24.14
321.676	24.03
321.888	24.13
322.1	23.02
322.312	23.31
322.524	23.86
322.736	23.44
322.948	23.05
323.16	23.23
323.372	23.61
323.584	22.74
323.796	21.9
324.007	21.74
324.219	22.13
324.431	22.54
324.643	23.72
324.855	24.08
325.067	23.94
325.279	22.33
325.491	23.24
325.702	23.12
325.914	22.93
326.126	23.55
326.338	23.11
326.55	23.68
326.761	23.35
326.973	23.81
327.185	22.69
327.396	23.11
327.608	24.36
327.82	22.7
328.032	22.98
328.243	22.81
328.455	22.63
328.666	24.56
328.878	25.5
329.09	26.73
329.301	26.41
329.513	27.07
329.725	26.92
329.936	27.46
330.148	27.53
330.359	28.2
330.571	28.81
330.782	28.82
330.994	29.52
331.205	28.34
331.417	28.01
331.628	28.84
331.84	30.38
332.051	31.97
332.262	32.34
332.474	31.84
332.685	32.12
332.897	32.58
333.108	33.53
333.319	33.13
333.531	33.5
333.742	32.89
333.953	31.84
334.165	30.32
334.376	30.87
334.587	30.75
334.799	30.82
335.01	29.79
335.221	29.5
335.432	27.31
335.644	27.15
335.855	26.68
336.066	27.14
336.277	27.77
336.488	27.88
336.7	26.22
336.911	25.95
337.122	27.12
337.333	27.04
337.544	27.53
337.755	29.23
337.966	28.77
338.177	28.71
338.388	28.85
338.599	28.43
338.811	27.85
339.022	27.78
339.233	27.65
339.444	26.87
339.655	26.85
339.866	26.07
340.076	25.48
340.287	25.78
340.498	25.85
340.709	25.45
340.92	25.28
341.131	25.99
341.342	27.41
341.553	27.37
341.764	28.31
341.975	29.21
342.185	29
342.396	28.94
342.607	28.86
342.818	29.11
343.029	28.97
343.239	28.95
343.45	28.68
343.661	27.66
343.872	27.6
344.082	26.41
344.293	26.12
344.504	27.11
344.714	27.24
344.925	27.19
345.136	26.33
345.346	25.4
345.557	25.57
345.768	25.29
345.978	26.2
346.189	25.65
346.399	25.23
346.61	24.56
346.821	24.54
347.031	24.76
347.242	24.62
347.452	24.32
347.663	25.32
347.873	26.15
348.084	27.12
348.294	25.34
348.504	25.79
348.715	27.56
348.925	27.31
349.136	26.22
349.346	25.63
349.557	25.58
349.767	27.6
349.977	27.74
350.188	26.93
350.398	26.35
350.608	26.15
350.819	26.85
351.029	25.24
351.239	27.02
351.449	27.65
351.66	27.99
351.87	28.06
352.08	26.98
352.29	26.67
352.501	27.34
352.711	27.63
352.921	27.9
353.131	27.66
353.341	28.24
353.552	27.15
353.762	26.01
353.972	26.26
354.182	26.37
354.392	25.46
354.602	25.81
354.812	24.61
355.022	24.32
355.232	25.56
355.442	24.98
355.652	25.27
355.862	24.58
356.072	25.47
356.282	24.85
356.492	24.61
356.702	24.85
356.912	25.14
357.122	26.01
357.332	25.62
357.542	24.93
357.752	24.76
357.962	24.62
358.171	25.02
358.381	25.24
358.591	26
358.801	26.14
359.011	26.81
359.221	26.03
359.43	25.12
359.64	24.36
359.85	24.51
360.06	24.85
360.269	24.9
360.479	24.75
360.689	24.39
360.899	24.32
361.108	24.45
361.318	23.36
361.528	23.53
361.737	23.65
361.947	24.23
362.156	23.84
362.366	23.07
362.576	22.65
362.785	22.69
362.995	22.53
363.204	22.11
363.414	22.26
363.623	22.42
363.833	22.81
364.042	23.02
364.252	23.37
364.461	23.29
364.671	23.84
364.88	23.87
365.09	24.08
365.299	24.06
365.509	24.12
365.718	22.8
365.927	22.95
366.137	22.23
366.346	21.7
366.555	21.03
366.765	21.81
366.974	21.8
367.183	20.62
367.393	19.54
367.602	19.24
367.811	19.09
368.021	20.03
368.23	20.31
368.439	19.9
368.648	19.81
368.857	19.54
369.067	19.34
369.276	20.1
369.485	21.64
369.694	23.03
369.903	23.09
370.112	22.88
370.321	22.06
370.531	21.37
370.74	22.5
370.949	22.57
371.158	22.85
371.367	22.45
371.576	21.23
371.785	20.74
371.994	20.04
372.203	19.97
372.412	19.91
372.621	20.66
372.83	21.55
373.039	20.72
373.248	20.29
373.457	20.49
373.666	19.97
373.874	20.22
374.083	20.38
374.292	20.51
374.501	20.43
374.71	20.46
374.919	19.91
375.128	18.93
375.336	19.56
375.545	20.31
375.754	20.26
375.963	20.1
376.171	19.75
376.38	20.01
376.589	19.45
376.798	19
377.006	18.96
377.215	19.54
377.424	19.8
377.632	19.15
377.841	18.94
378.05	19.08
378.258	19.26
378.467	19.3
378.675	18.92
378.884	19.12
379.093	19.4
379.301	19.71
379.51	19.31
379.718	19.45
379.927	19.49
380.135	19.44
380.344	18.79
380.552	19.64
380.761	19.66
380.969	19.55
381.177	19.23
381.386	19.88
381.594	19.29
381.803	18.72
382.011	18.6
382.219	18.86
382.428	18.65
382.636	18.99
382.845	17.64
383.053	17.93
383.261	17.84
383.469	17.7
383.678	17.54
383.886	17.32
384.094	17.78
384.302	17.96
384.511	18.05
384.719	18.3
384.927	18.13
385.135	18.98
385.343	18.7
385.552	18.59
385.76	18.71
385.968	18.54
386.176	18.33
386.384	17.72
386.592	17.32
386.8	16.89
387.008	16.72
387.216	16.64
387.424	16.12
387.633	15.9
387.841	16.15
388.049	16.65
388.257	16.33
388.465	16.43
388.672	16.65
388.88	16.98
389.088	16.89
389.296	16.62
389.504	16.41
389.712	16.51
389.92	16.68
390.128	16.32
390.336	15.94
390.544	15.53
390.751	15.57
390.959	15.43
391.167	14.91
391.375	15.13
391.583	15.18
391.79	15.07
391.998	15.08
392.206	15.11
392.414	15
392.621	15.17
392.829	15.6
393.037	15.73
393.244	15.79
393.452	16.21
393.66	16.27
393.867	16.3
394.075	16.39
394.283	16.28
394.49	16.04
394.698	16.26
394.905	16.01
395.113	15.92
395.32	15.88
395.528	16.14
395.735	15.74
395.943	15.46
396.15	15.31
396.358	15.33
396.565	15.37
396.773	15.14
396.98	15.38
397.188	15.3
397.395	15.25
397.602	15.03
397.81	14.48
398.017	14.82
398.225	14.74
398.432	14.65
398.639	14.57
398.847	14.38
399.054	14.73
399.261	14.4
399.468	14.19
399.676	14.32
399.883	14.34
400.09	14.78
400.297	14.7
400.505	14.48
400.712	14.72
400.919	15.08
401.126	15.18
401.333	15.17
401.54	15.03
401.748	15.21
401.955	14.68
402.162	14.91
402.369	14.62
402.576	14.27
402.783	14.17
402.99	14.12
403.197	13.74
403.404	13.43
403.611	13.08
403.818	13.1
404.025	13.12
404.232	13.49
404.439	13.21
404.646	12.98
404.853	12.86
405.06	13.03
405.267	12.97
405.474	13.09
405.681	13.29
405.887	13.53
406.094	13.89
406.301	13.68
406.508	13.62
406.715	13.86
406.922	13.96
407.128	14.23
407.335	14.2
407.542	14.02
407.749	13.85
407.955	13.9
408.162	13.72
408.369	13.21
408.575	13.72
408.782	13.64
408.989	13.32
409.195	13.17
409.402	13.04
409.609	12.81
409.815	12.95
410.022	13.21
410.228	13.13
410.435	13.42
410.642	13.49
410.848	13.03
411.055	13.16
411.261	13.27
411.468	13.82
411.674	13.74
411.881	14.18
412.087	14.22
412.294	14.06
412.5	14.11
412.706	13.83
412.913	14.1
413.119	14.21
413.326	14.08
413.532	14.09
413.738	13.77
413.945	13.47
414.151	13.36
414.357	13.31
414.564	13.45
414.77	13.35
414.976	13.25
415.182	13.18
415.389	13.12
415.595	12.87
415.801	12.68
416.007	12.83
416.214	13.05
416.42	12.76
416.626	12.37
416.832	12.39
417.038	12.56
417.244	12.6
417.45	12.34
417.657	12.33
417.863	12.23
418.069	12.59
418.275	12.5
418.481	12.37
418.687	12.64
418.893	12.82
419.099	12.64
419.305	12.47
419.511	12.5
419.717	12.6
419.923	12.58
420.129	12.76
420.335	12.63
420.541	12.67
420.746	12.66
420.952	12.61
421.158	12.54
421.364	12.57
421.57	12.54
421.776	12.56
421.982	12.57
422.187	12.52
422.393	12.44
422.599	12.39
422.805	12.27
423.01	12.4
423.216	12.27
423.422	12.39
423.628	12.47
423.833	12.44
424.039	12.39
424.245	12.37
424.45	12.38
424.656	12.44
424.862	12.42
425.067	12.29
425.273	12.35
425.478	12.38
425.684	12.33
425.889	12.29
426.095	12.35
426.301	12.2
426.506	12.14
426.712	12.25
426.917	12.26
427.123	12.05
427.328	12.25
427.533	12.17
427.739	12.39
427.944	12.46
428.15	12.37
428.355	12.41
428.561	12.82
428.766	12.9
428.971	12.68
429.177	12.42
429.382	12.68
429.587	12.65
429.793	12.68
429.998	12.34
430.203	12.08
430.408	12.04
430.614	11.91
430.819	11.76
431.024	11.65
431.229	11.64
431.434	11.86
431.64	11.76
431.845	11.98
432.05	12.01
432.255	12.09
432.46	12.33
432.665	12.3
432.87	12.3
433.076	12.3
433.281	12.42
433.486	12.5
433.691	12.42
433.896	12.5
434.101	12.17
434.306	12.05
434.511	12.08
434.716	11.93
434.921	12.13
435.126	12.2
435.331	12.24
435.535	12.1
435.74	12
435.945	11.85
436.15	11.79
436.355	12.06
436.56	12.05
436.765	12.12
436.97	12.05
437.174	12.02
437.379	12.01
437.584	12.17
437.789	12.22
437.993	12.36
438.198	12.49
438.403	12.64
438.608	12.58
438.812	12.52
439.017	12.33
439.222	12.33
439.426	12.26
439.631	12.19
439.836	11.97
440.04	12
440.245	12
440.45	12.05
440.654	11.98
440.859	11.83
441.063	11.94
441.268	12.04
441.472	12.08
441.677	11.92
441.881	11.84
442.086	11.76
442.29	11.72
442.495	11.7
442.699	11.63
442.904	11.53
443.108	11.84
443.312	11.82
443.517	11.71
443.721	11.7
443.925	11.77
444.13	11.89
444.334	11.85
444.538	11.85
444.743	11.77
444.947	11.89
445.151	11.95
445.356	11.67
445.56	11.65
445.764	11.58
445.968	11.59
446.173	11.57
446.377	11.61
446.581	11.72
446.785	11.73
446.989	11.8
447.193	11.72
447.398	11.78
447.602	11.7
447.806	11.72
448.01	11.85
448.214	11.85
448.418	11.84
448.622	11.83
448.826	11.87
449.03	11.82
449.234	11.79
449.438	11.75
449.642	11.74
449.846	12.07
450.05	12.15
450.254	12
450.458	11.97
450.662	12.03
450.866	11.9
451.069	11.96
451.273	11.94
451.477	11.88
451.681	11.9
451.885	11.79
452.089	11.74
452.292	11.38
452.496	11.42
452.7	11.56
452.904	11.56
453.107	11.61
453.311	11.25
453.515	11.26
453.719	11.26
453.922	11.34
454.126	11.26
454.33	11.07
454.533	11.23
454.737	11.37
454.94	11.15
455.144	11.35
455.348	11.41
455.551	11.59
455.755	11.51
455.958	11.67
456.162	11.61
456.365	11.65
456.569	11.76
456.772	11.82
456.976	11.73
457.179	11.89
457.383	11.74
457.586	11.76
457.79	11.88
457.993	11.99
458.196	12.01
458.4	12.08
458.603	12.05
458.807	12.04
459.01	12.01
459.213	11.95
459.417	11.94
459.62	11.84
459.823	11.88
460.026	11.88
460.23	11.72
460.433	11.57
460.636	11.61
460.839	11.48
461.042	11.38
461.246	11.37
461.449	11.39
461.652	11.42
461.855	11.42
462.058	11.47
462.261	11.46
462.464	11.42
462.668	11.36
462.871	11.35
463.074	11.52
463.277	11.51
463.48	11.64
463.683	11.87
463.886	11.6
464.089	11.75
464.292	11.41
464.495	11.33
464.698	11.4
464.901	11.47
465.104	11.22
465.306	11.21
465.509	11.3
465.712	11.35
465.915	11.27
466.118	11.35
466.321	11.27
466.524	11.22
466.726	11.18
466.929	11.2
467.132	11.19
467.335	11.56
467.538	11.43
467.74	11.49
467.943	11.33
468.146	11.2
468.348	11.26
468.551	11.21
468.754	11.31
468.956	11.34
469.159	11.38
469.362	11.5
469.564	11.26
469.767	11.48
469.969	11.62
470.172	11.59
470.375	11.6
470.577	11.68
470.78	11.86
470.982	11.97
471.185	12.16
471.387	12.15
471.59	11.96
471.792	11.94
471.995	12.09
472.197	11.9
472.399	11.92
472.602	11.93
472.804	11.84
473.007	11.66
473.209	11.69
473.411	11.56
473.614	11.64
473.816	11.68
474.018	11.67
474.22	11.62
474.423	11.64
474.625	11.79
474.827	11.95
475.03	12.01
475.232	12.02
475.434	11.88
475.636	11.74
475.838	11.68
476.04	11.78
476.243	11.79
476.445	11.68
476.647	11.59
476.849	11.5
477.051	11.32
477.253	11.55
477.455	11.45
477.657	11.46
477.859	11.53
478.061	11.42
478.263	11.46
478.465	11.4
478.667	11.31
478.869	11.19
479.071	11.19
479.273	11.11
479.475	10.86
479.677	10.99
479.879	11.08
480.081	11.05
480.283	11.24
480.485	11.1
480.686	11.23
480.888	11.33
481.09	11.48
481.292	11.43
481.494	11.58
481.695	11.65
481.897	11.58
482.099	11.58
482.301	11.6
482.502	11.48
482.704	11.51
482.906	11.44
483.107	11.42
483.309	11.33
483.511	11.28
483.712	11.23
483.914	11.19
484.115	11.18
484.317	11.16
484.519	11.17
484.72	11.22
484.922	11.21
485.123	11.19
485.325	11.16
485.526	11.25
485.728	11.25
485.929	11.28
486.131	11.24
486.332	11.28
486.534	11.31
486.735	11.26
486.936	11.3
487.138	11.2
487.339	11.22
487.541	11.21
487.742	11.2
487.943	11.2
488.144	11.16
488.346	11.18
488.547	11.11
488.748	11.03
488.95	11
489.151	10.97
489.352	11.11
489.553	11.12
489.755	11.16
489.956	11.14
490.157	11.24
490.358	11.26
490.559	11.29
490.76	11.44
490.961	11.4
491.163	11.51
491.364	11.44
491.565	11.37
491.766	11.31
491.967	11.29
492.168	11.25
492.369	11.15
492.57	11.14
492.771	11.15
492.972	11.12
493.173	11.18
493.374	11.23
493.575	11.29
493.776	11.23
493.976	11.43
494.177	11.54
494.378	11.63
494.579	11.88
494.78	11.96
494.981	12.04
495.182	12.03
495.382	12.11
495.583	11.87
495.784	11.82
495.985	12.03
496.185	11.87
496.386	11.73
496.587	11.8
496.788	11.56
496.988	11.47
497.189	11.42
497.39	11.44
497.59	11.38
497.791	11.32
497.992	11.3
498.192	11.18
498.393	11.29
498.593	11.44
498.794	11.36
498.994	11.5
499.195	11.55
499.395	11.44
499.596	11.53
499.796	11.48
499.997	11.72
500.197	11.78
500.398	11.7
500.598	11.39
500.799	11.4
500.999	11.39
501.199	11.39
501.4	11.47
501.6	11.6
501.801	11.52
502.001	11.89
502.201	11.84
502.402	11.85
502.602	11.97
502.802	12.18
503.002	12.12
503.203	12.21
503.403	12.33
503.603	12.25
503.803	12.4
504.003	12.37
504.204	12.23
504.404	12.14
504.604	12.16
504.804	12.23
505.004	12.26
505.204	12.3
505.404	12.3
505.604	12.24
505.804	12.25
506.005	12.19
506.205	12.21
506.405	12.31
506.605	12.48
506.805	12.55
507.005	12.55
507.204	12.45
507.404	12.45
507.604	12.51
507.804	12.65
508.004	12.66
508.204	12.59
508.404	12.59
508.604	12.46
508.804	12.37
509.003	12.37
509.203	12.37
509.403	12.46
509.603	12.46
509.803	12.5
510.002	12.45
510.202	12.5
510.402	12.69
510.602	12.65
510.801	12.56
511.001	12.63
511.201	12.52
511.4	12.52
511.6	12.56
511.8	12.63
511.999	12.66
512.199	12.49
512.398	12.59
512.598	12.51
512.797	12.86
512.997	13.07
513.197	13.14
513.396	13.37
513.596	13.52
513.795	13.56
513.994	13.72
514.194	13.72
514.393	13.88
514.593	13.98
514.792	14.03
514.992	13.94
515.191	14.02
515.39	14.02
515.59	13.92
515.789	14.02
515.988	13.98
516.188	13.82
516.387	13.96
516.586	14.18
516.786	14.04
516.985	14.17
517.184	14.12
517.383	14.07
517.582	14.08
517.782	13.98
517.981	13.99
518.18	13.97
518.379	14.03
518.578	13.88
518.777	13.86
518.976	14.02
519.176	13.89
519.375	13.8
519.574	13.9
519.773	13.98
519.972	14.26
520.171	14.21
520.37	14.32
520.569	14.41
520.768	14.51
520.967	14.46
521.166	14.42
521.365	14.55
521.564	14.74
521.762	14.79
521.961	14.84
522.16	14.55
522.359	14.59
522.558	14.52
522.757	14.42
522.956	14.43
523.154	14.46
523.353	14.58
523.552	14.65
523.751	14.67
523.949	14.67
524.148	14.64
524.347	14.92
524.546	14.99
524.744	15.17
524.943	15.27
525.142	15.33
525.34	15.38
525.539	15.4
525.737	15.48
525.936	15.46
526.135	15.5
526.333	15.57
526.532	15.46
526.73	15.49
526.929	15.51
527.127	15.49
527.326	15.52
527.524	15.56
527.723	15.62
527.921	15.58
528.12	15.68
528.318	15.63
528.516	15.66
528.715	15.76
528.913	15.74
529.112	15.78
529.31	15.8
529.508	15.85
529.707	15.88
529.905	15.87
530.103	15.88
530.301	15.82
530.5	15.95
530.698	15.94
530.896	16.02
531.094	16.08
531.293	16.12
531.491	16.26
531.689	16.26
531.887	16.29
532.085	16.31
532.283	16.3
532.481	16.44
532.68	16.46
532.878	16.52
533.076	16.48
533.274	16.54
533.472	16.55
533.67	16.48
533.868	16.53
534.066	16.54
534.264	16.53
534.462	16.66
534.66	16.73
534.858	16.78
535.056	16.98
535.253	16.94
535.451	16.95
535.649	17
535.847	17.06
536.045	17.22
536.243	17.32
536.441	17.53
536.638	17.67
536.836	17.62
537.034	17.68
537.232	17.6
537.43	17.7
537.627	17.76
537.825	17.9
538.023	18.02
538.22	18.09
538.418	18.13
538.616	18.07
538.813	18
539.011	18.25
539.209	18.29
539.406	18.29
539.604	18.46
539.801	18.58
539.999	18.62
540.196	18.71
540.394	18.75
540.591	18.74
540.789	18.84
540.986	18.87
541.184	18.91
541.381	18.98
541.579	19
541.776	19.1
541.974	19.14
542.171	19.22
542.368	19.23
542.566	19.2
542.763	19.29
542.96	19.25
543.158	19.45
543.355	19.45
543.552	19.54
543.75	19.79
543.947	19.84
544.144	19.93
544.341	20
544.539	20.2
544.736	20.41
544.933	20.5
545.13	20.62
545.327	20.59
545.524	20.68
545.722	20.63
545.919	20.52
546.116	20.56
546.313	20.59
546.51	20.63
546.707	20.69
546.904	20.77
547.101	20.84
547.298	21.03
547.495	21.11
547.692	21.24
547.889	21.26
548.086	21.44
548.283	21.58
548.48	21.68
548.677	21.69
548.874	21.83
549.07	21.96
549.267	22.15
549.464	22.16
549.661	22.12
549.858	22.14
550.055	22.26
550.251	22.38
550.448	22.34
550.645	22.3
550.842	22.56
551.038	22.42
551.235	22.4
551.432	22.39
551.628	22.65
551.825	23.02
552.022	23.21
552.218	23.37
552.415	23.56
552.612	23.7
552.808	23.96
553.005	23.93
553.201	24.05
553.398	24.21
553.594	24.45
553.791	24.56
553.987	24.48
554.184	24.46
554.38	24.65
554.577	24.56
554.773	24.94
554.97	25.1
555.166	25.4
555.362	25.55
555.559	25.59
555.755	25.64
555.952	25.57
556.148	25.89
556.344	26.09
556.541	26.19
556.737	26.3
556.933	26.29
557.129	26.28
557.326	26.18
557.522	26.17
557.718	26.41
557.914	26.45
558.11	26.5
558.307	26.32
558.503	26.44
558.699	26.68
558.895	26.98
559.091	27.08
559.287	27.52
559.483	27.62
559.679	27.96
559.876	27.78
560.072	27.9
560.268	28.04
560.464	28.24
560.66	28.2
560.856	28.19
561.052	28.13
561.247	27.91
561.443	27.58
561.639	27.82
561.835	27.85
562.031	28.12
562.227	28.19
562.423	28.4
562.619	28.48
562.815	28.46
563.01	28.75
563.206	28.95
563.402	29.11
563.598	29.4
563.793	29.63
563.989	29.69
564.185	29.73
564.381	29.75
564.576	29.97
564.772	29.83
564.968	30.31
565.163	30.21
565.359	30.15
565.555	30.29
565.75	30.32
565.946	30.18
566.141	30.3
566.337	30.41
566.532	30.77
566.728	30.83
566.923	31.05
567.119	30.94
567.314	31.09
567.51	31.25
567.705	31.42
567.901	31.66
568.096	31.77
568.292	32.01
568.487	32.08
568.682	32.08
568.878	31.96
569.073	31.95
569.268	31.92
569.464	31.87
569.659	32.04
569.854	32.15
570.05	31.91
570.245	32.12
570.44	32.15
570.635	32.23
570.831	32.41
571.026	32.74
571.221	33.07
571.416	33.27
571.611	33.31
571.806	33.3
572.002	33.42
572.197	33.67
572.392	33.61
572.587	33.69
572.782	33.87
572.977	33.66
573.172	33.7
573.367	33.55
573.562	33.71
573.757	33.95
573.952	33.91
574.147	33.96
574.342	34.13
574.537	34.21
574.732	34
574.927	34.07
575.121	34.13
575.316	34.11
575.511	34.29
575.706	34.27
575.901	34.21
576.096	34.51
576.29	34.61
576.485	34.53
576.68	34.67
576.875	34.85
577.069	34.69
577.264	34.96
577.459	35.09
577.654	35.18
577.848	35.21
578.043	35.58
578.238	35.53
578.432	35.56
578.627	35.64
578.821	35.73
579.016	35.77
579.21	35.98
579.405	36.01
579.6	35.96
579.794	36.07
579.989	36.14
580.183	36.09
580.378	36.12
580.572	36.27
580.766	36.46
580.961	36.23
581.155	36.33
581.35	36.67
581.544	36.65
581.738	36.87
581.933	36.97
582.127	37.21
582.321	37.02
582.516	37.18
582.71	36.96
582.904	37.02
583.099	37.37
583.293	37.37
583.487	37.18
583.681	37.55
583.875	37.38
584.07	37.57
584.264	37.73
584.458	37.81
584.652	37.65
584.846	38.04
585.04	37.82
585.234	38.04
585.428	38.09
585.623	38.35
585.817	38.22
586.011	38.37
586.205	38.17
586.399	38.17
586.593	38.25
586.787	38.54
586.981	38.27
587.174	38.6
587.368	38.78
587.562	38.97
587.756	38.81
587.95	39.1
588.144	39.15
588.338	39.36
588.532	39.12
588.725	39.31
588.919	39.33
589.113	39.68
589.307	39.73
589.501	39.37
589.694	39.59
589.888	39.77
590.082	39.55
590.275	39.65
590.469	39.6
590.663	39.98
590.856	39.98
591.05	40.19
591.244	40.04
591.437	40.28
591.631	40.62
591.824	40.6
592.018	40.63
592.212	40.78
592.405	40.74
592.599	40.91
592.792	40.74
592.986	40.81
593.179	40.72
593.372	40.73
593.566	40.55
593.759	40.56
593.953	40.55
594.146	40.52
594.339	40.61
594.533	40.87
594.726	40.79
594.92	40.9
595.113	40.8
595.306	40.81
595.499	40.82
595.693	40.94
595.886	41
596.079	41.15
596.272	41.33
596.466	41.14
596.659	41.1
596.852	41.16
597.045	41.06
597.238	41.15
597.431	41.37
597.624	41.5
597.818	41.24
598.011	41.17
598.204	41.09
598.397	40.98
598.59	40.98
598.783	40.88
598.976	41.06
599.169	41.05
599.362	40.85
599.555	40.23
599.748	40.34
599.941	40.72
600.134	40.76
600.326	40.82
600.519	41.15
600.712	41.57
600.905	41.88
601.098	41.66
601.291	41.86
601.483	42.09
601.676	42.52
601.869	42.4
602.062	42.22
602.255	42.32
602.447	42.16
602.64	41.86
602.833	41.64
603.025	41.63
603.218	41.78
603.411	41.56
603.603	41.47
603.796	41.42
603.989	41.32
604.181	41.52
604.374	41.51
604.566	41.67
604.759	41.73
604.951	41.78
605.144	41.68
605.336	41.85
605.529	41.95
605.721	42.09
605.914	42.46
606.106	42.83
606.299	42.8
606.491	42.62
606.683	42.6
606.876	42.53
607.068	42.65
607.26	42.59
607.453	42.43
607.645	42.41
607.837	42.52
608.03	42.26
608.222	42.08
608.414	42.12
608.606	42.36
608.799	42.55
608.991	42.78
609.183	43.08
609.375	43.38
609.567	43.24
609.759	43.78
609.952	43.78
610.144	43.87
610.336	44.1
610.528	44.28
610.72	44.38
610.912	44.64
611.104	45.05
611.296	44.98
611.488	45.09
611.68	45.73
611.872	45.34
612.064	45.77
612.256	45.84
612.448	45.96
612.64	45.92
612.832	46.12
613.023	45.92
613.215	45.47
613.407	45.03
613.599	44.9
613.791	44.5
613.983	44.65
614.174	44.34
614.366	44.17
614.558	43.98
614.75	44.19
614.941	43.94
615.133	43.95
615.325	44.19
615.516	44.59
615.708	44.19
615.9	44.14
616.091	44
616.283	43.84
616.475	43.92
616.666	43.9
616.858	43.77
617.049	43.72
617.241	43.72
617.432	43.57
617.624	43.71
617.815	43.9
618.007	44.01
618.198	44.22
618.39	44.58
618.581	44.89
618.773	44.45
618.964	44.28
619.155	44.37
619.347	43.87
619.538	44.05
619.729	43.84
619.921	43.86
620.112	44.02
620.303	43.82
620.494	43.78
620.686	43.49
620.877	43.86
621.068	43.76
621.259	43.56
621.451	43.93
621.642	43.42
621.833	43.52
622.024	43.69
622.215	43.53
622.406	43.57
622.597	43.29
622.788	43.1
622.98	43.18
623.171	43.24
623.362	43.58
623.553	44.13
623.744	44.69
623.935	44.44
624.126	44.39
624.317	44.56
624.508	44.28
624.698	44.28
624.889	44.57
625.08	45.09
625.271	45.39
625.462	45.23
625.653	44.93
625.844	44.7
626.034	44.92
626.225	45.15
626.416	44.87
626.607	45.37
626.798	45.42
626.988	45.36
627.179	45.02
627.37	44.79
627.56	45.12
627.751	45.28
627.942	45.45
628.132	45.44
628.323	45.09
628.514	45.22
628.704	44.96
628.895	45.14
629.085	45.16
629.276	45
629.466	45.07
629.657	44.71
629.847	44.34
630.038	44.19
630.228	44.33
630.419	44.97
630.609	44.96
630.8	45.01
630.99	45.23
631.181	45.26
631.371	45.34
631.561	45.41
631.752	45.5
631.942	45.68
632.132	45.4
632.323	45.13
632.513	44.77
632.703	44.38
632.893	44.84
633.084	44.51
633.274	44.63
633.464	44.17
633.654	44.25
633.844	44.39
634.034	44.3
634.225	44.37
634.415	44.43
634.605	44.37
634.795	44.55
634.985	44.64
635.175	44.88
635.365	45.08
635.555	45.49
635.745	45.05
635.935	45.11
636.125	44.99
636.315	45.3
636.505	45.39
636.695	45.63
636.885	45.76
637.075	45.23
637.265	45.02
637.455	44.88
637.644	45.03
637.834	45.3
638.024	44.94
638.214	45.18
638.404	45.2
638.593	45.08
638.783	44.91
638.973	44.81
639.163	44.86
639.352	44.79
639.542	44.53
639.732	44.79
639.921	45.14
640.111	45.85
640.301	45.92
640.49	45.52
640.68	45.55
640.87	45.66
641.059	45.68
641.249	45.9
641.438	45.8
641.628	45.97
641.817	46.07
642.007	45.9
642.196	45.37
642.386	45.69
642.575	46.27
642.764	46.2
642.954	46.2
643.143	46.42
643.333	46.41
643.522	46.85
643.711	46.61
643.901	46.44
644.09	46.32
644.279	46.85
644.469	46.4
644.658	46.08
644.847	46.21
645.036	46.01
645.226	46.09
645.415	45.94
645.604	45.31
645.793	45.59
645.982	45.07
646.171	45.16
646.361	45.05
646.55	45.24
646.739	45.61
646.928	45.94
647.117	45.91
647.306	45.96
647.495	45.7
647.684	46.13
647.873	46.22
648.062	46.69
648.251	46.46
648.44	46.1
648.629	45.93
648.818	45.66
649.007	45.24
649.196	45.4
649.384	45.16
649.573	45.28
649.762	45.36
649.951	45.41
650.14	45.35
650.328	45.5
650.517	45.72
650.706	46.02
650.895	45.88
651.083	46.67
651.272	47.03
651.461	47.05
651.65	47.09
651.838	46.98
652.027	46.75
652.216	46.87
652.404	46.63
652.593	46.59
652.781	46.28
652.97	46.55
653.158	45.82
653.347	45.35
653.535	45.47
653.724	45.42
653.912	46.09
654.101	46.1
654.289	46.12
654.478	46.63
654.666	46.74
654.855	46.87
655.043	47.27
655.231	47.82
655.42	48.38
655.608	49.05
655.796	49.62
655.985	49.1
656.173	49.14
656.361	48.65
656.55	48.53
656.738	48.17
656.926	48.39
657.114	47.58
657.302	47.66
657.491	47.26
657.679	46.81
657.867	46.73
658.055	46.74
658.243	46.9
658.431	47.25
658.619	47.26
658.807	48.01
658.996	47.71
659.184	48.03
659.372	47.81
659.56	48.05
659.748	47.76
659.936	47.69
660.124	47.71
660.311	47.3
660.499	47.07
660.687	47.04
660.875	46.73
661.063	46.75
661.251	46.5
661.439	46.62
661.627	46.41
661.814	46.56
662.002	46.52
662.19	46.84
662.378	46.89
662.565	47.14
662.753	47.42
662.941	47.88
663.129	47.84
663.316	48.56
663.504	48.37
663.692	48.08
663.879	48.04
664.067	48.15
664.254	47.32
664.442	47.72
664.63	47.98
664.817	47.91
665.005	47.09
665.192	47.53
665.38	47.33
665.567	47.17
665.755	47.87
665.942	47.88
666.13	47.84
666.317	48.47
666.504	48.25
666.692	48.29
666.879	48.28
667.067	48.85
667.254	49.15
667.441	49.04
667.629	48.86
667.816	48.33
668.003	48.94
668.19	48.88
668.378	48.83
668.565	49.51
668.752	48.95
668.939	48.8
669.127	48.53
669.314	47.91
669.501	47.95
669.688	48.58
669.875	48.49
670.062	48.23
670.249	47.88
670.436	47.89
670.623	47.54
670.81	48
670.997	47.72
671.184	47.54
671.371	48.08
671.558	47.66
671.745	47.32
671.932	47.3
672.119	47.24
672.306	47.36
672.493	47.22
672.68	47.59
672.867	47.83
673.054	48.31
673.24	48.28
673.427	48
673.614	48.39
673.801	48.63
673.988	49.01
674.174	49.3
674.361	49.57
674.548	49.37
674.734	49.17
674.921	48.48
675.108	48.25
675.294	48.14
675.481	47.73
675.668	47.6
675.854	47.66
676.041	47.69
676.227	47.8
676.414	48.24
676.601	48.87
676.787	48.25
676.974	48.39
677.16	48.23
677.347	49.02
677.533	49.72
677.719	49.74
677.906	49.78
678.092	49.81
678.279	49.61
678.465	49.25
678.651	48.64
678.838	49.39
679.024	49.39
679.21	49.42
679.397	48.82
679.583	48.61
679.769	48.39
679.955	48.16
680.142	48.12
680.328	47.97
680.514	47.68
680.7	47.93
680.886	47.61
681.073	47.86
681.259	48.14
681.445	48.2
681.631	48.5
681.817	48.81
682.003	48.91
682.189	48.69
682.375	48.56
682.561	49.04
682.747	48.63
682.933	48.67
683.119	48.45
683.305	48.29
683.491	48.39
683.677	48.33
683.863	48.42
684.049	48.42
684.235	48.79
684.42	48.84
684.606	48.44
684.792	49.51
684.978	49.8
685.164	50.01
685.349	50.13
685.535	50.11
685.721	49.5
685.907	49.43
686.092	49.38
686.278	49.27
686.464	49.47
686.649	49.95
686.835	49.72
687.021	49.96
687.206	49.78
687.392	49.78
687.577	49.98
687.763	50.33
687.948	49.93
688.134	49.81
688.319	50.41
688.505	50.47
688.69	50.3
688.876	49.77
689.061	48.97
689.247	49.12
689.432	49.17
689.618	48.75
689.803	48.57
689.988	49.15
690.174	49.39
690.359	48.2
690.544	48.21
690.73	48.21
690.915	48
691.1	47.76
691.285	47.93
691.471	47.6
691.656	47.74
691.841	47.63
692.026	47.6
692.211	47.25
692.396	47.94
692.582	48.13
692.767	47.85
692.952	48.4
693.137	49.26
693.322	49.22
693.507	49.6
693.692	49.57
693.877	49.95
694.062	49.57
694.247	50.61
694.432	50.49
694.617	50.08
694.802	50.32
694.987	50.03
695.172	49.91
695.357	49.81
695.541	49.74
695.726	50.08
695.911	50.57
696.096	50.76
696.281	50.37
696.466	50.52
696.65	50.72
696.835	50.39
697.02	50.37
697.204	50.4
697.389	50.64
697.574	50.31
697.759	49.7
697.943	49.18
698.128	49.26
698.312	48.97
698.497	48.95
698.682	49.05
698.866	49.12
699.051	49.06
699.235	49.05
699.42	48.83
699.604	49.04
699.789	49.24
699.973	49.22
700.158	49.22
700.342	49.04
700.527	48.91
700.711	48.93
700.895	49.46
701.08	50
701.264	50.07
701.448	49.92
701.633	50.31
701.817	50.91
702.001	51
702.186	50.56
702.37	50.61
702.554	51.24
702.738	51.4
702.923	51.19
703.107	50.9
703.291	51.13
703.475	51.5
703.659	50.92
703.843	49.77
704.027	50.2
704.212	50.05
704.396	51.44
704.58	51.22
704.764	50.47
704.948	49.73
705.132	49.54
705.316	48.98
705.5	49.53
705.684	49.09
705.868	50.23
706.052	50.67
706.235	52.11
706.419	51.14
706.603	51.04
706.787	50.87
706.971	51.41
707.155	51.43
707.339	50.99
707.522	50.61
707.706	51.53
707.89	51.06
708.074	50.48
708.257	49.23
708.441	49.45
708.625	48.72
708.808	49.18
708.992	49.66
709.176	49.9
709.359	50.05
709.543	49.87
709.727	49.74
709.91	50.1
710.094	50.2
710.277	51.09
710.461	51.16
710.644	52.02
710.828	52.28
711.011	51.28
711.195	51.74
711.378	52.52
711.562	52.12
711.745	51.92
711.928	51.02
712.112	50.7
712.295	50.45
712.478	50.16
712.662	50.57
712.845	50.54
713.028	50.68
713.212	49.9
713.395	48.85
713.578	48.75
713.761	48.72
713.945	49.2
714.128	49.64
714.311	48.86
714.494	48.54
714.677	48.43
714.86	48.25
715.043	49.04
715.227	49.16
715.41	50.04
715.593	50.42
715.776	50.72
715.959	50.32
716.142	50.11
716.325	50.52
716.508	51.58
716.691	50.44
716.874	50.14
717.057	49.26
717.239	49.5
717.422	49.23
717.605	48.73
717.788	48.14
717.971	49.5
718.154	49.59
718.337	49.71
718.519	48.72
718.702	49.19
718.885	49.17
719.068	50.06
719.25	51.22
719.433	51.53
719.616	52.05
719.798	53.21
719.981	52.72
720.164	51.97
720.346	52.15
720.529	52.74
720.712	52.94
720.894	53
721.077	52
721.259	50.89
721.442	51.12
721.624	51.51
721.807	50.67
721.989	50.13
722.172	50.01
722.354	50.59
722.537	50.23
722.719	49.07
722.901	48.8
723.084	49.19
723.266	49.41
723.448	50.03
723.631	49.42
723.813	48.7
723.995	48.53
724.178	48.92
724.36	48.62
724.542	48.65
724.724	50.06
724.907	51.14
725.089	52.29
725.271	51.91
725.453	51.35
725.635	51.53
725.817	52.91
725.999	53.74
726.181	54.87
726.364	54.98
726.546	55
726.728	54.51
726.91	53.71
727.092	52.89
727.274	53.03
727.456	53.32
727.638	53.32
727.819	53.05
728.001	52.6
728.183	51.62
728.365	52.37
728.547	52.24
728.729	52.38
728.911	53.34
729.093	53.6
729.274	52.05
729.456	51.22
729.638	51.35
729.82	51.22
730.001	50.7
730.183	51.43
730.365	50.4
730.546	50.17
730.728	50.21
730.91	49.35
731.091	49.16
731.273	50.64
731.455	50.84
731.636	51.77
731.818	52.69
731.999	53.29
732.181	52.52
732.362	52.22
732.544	53.49
732.725	53.51
732.907	53.83
733.088	53.33
733.27	53.41
733.451	53.82
733.633	53.41
733.814	53.02
733.995	52.7
734.177	53.36
734.358	53.67
734.539	52.27
734.721	52.53
734.902	51.89
735.083	52.95
735.264	51.96
735.446	52.68
735.627	51.77
735.808	51.02
735.989	51.86
736.17	51.65
736.351	51.94
736.533	52.6
736.714	52.01
736.895	53.62
737.076	52.47
737.257	53.33
737.438	51.74
737.619	52.54
737.8	52.18
737.981	52.66
738.162	51.99
738.343	51.45
738.524	51.41
738.705	51.92
738.886	50.13
739.067	50.42
739.247	50.46
739.428	50.13
739.609	49.68
739.79	50.76
739.971	49.85
740.151	50.82
740.332	51.1
740.513	51.34
740.694	51.1
740.874	51.59
741.055	52
741.236	51.31
741.417	51.16
741.597	52.09
741.778	52.06
741.958	51.79
742.139	50.78
742.32	49.47
742.5	49.82
742.681	49.87
742.861	50.5
743.042	49.63
743.222	50.03
743.403	51.57
743.583	51.05
743.764	50.31
743.944	50.52
744.124	51.03
744.305	52.36
744.485	51.28
744.666	51.23
744.846	51.11
745.026	52.14
745.207	53.36
745.387	52.1
745.567	52.07
745.747	52.4
745.928	51.63
746.108	51.58
746.288	50.63
746.468	51.38
746.648	52.58
746.829	51.9
747.009	52.45
747.189	51.48
747.369	52.33
747.549	52.08
747.729	52.32
747.909	53.17
748.089	52.53
748.269	53.63
748.449	52.79
748.629	52.24
748.809	52.18
748.989	50.77
749.169	51.03
749.349	51.16
749.529	51.28
749.709	50.7
749.889	50.91
750.068	50.87
750.248	50.39
750.428	51.19
750.608	50.01
750.788	50.47
750.967	50.51
751.147	49.08
751.327	49.42
751.507	48.95
751.686	49.18
751.866	49.26
752.046	49.35
752.225	49.7
752.405	48.81
752.585	49.04
752.764	48.91
752.944	49.11
753.123	50.57
753.303	49.83
753.482	50.77
753.662	49.58
753.841	49.54
754.021	49.67
754.2	49.92
754.38	50.52
754.559	51
754.739	52.56
754.918	53.18
755.097	52.09
755.277	51.28
755.456	50.05
755.635	51.99
755.815	51.23
755.994	51.75
756.173	51.55
756.352	51.71
756.532	52.29
756.711	50.19
756.89	49.38
757.069	50.64
757.248	50.66
757.427	50.35
757.607	48.84
757.786	48.74
757.965	48.15
758.144	46.99
758.323	47.85
758.502	47.64
758.681	47.97
758.86	48.58
759.039	47.06
759.218	48.28
759.397	48.77
759.576	49.2
759.755	49.36
759.934	48.81
760.113	50.89
760.291	49.97
760.47	49.91
760.649	51.37
760.828	50.72
761.007	50.1
761.186	49.54
761.364	48.86
761.543	49.22
761.722	50.17
761.901	51
762.079	50.88
762.258	51.05
762.437	50.43
762.615	49.41
762.794	50.51
762.972	51.51
763.151	50.61
763.33	50.91
763.508	51.01
763.687	51.02
763.865	50.87
764.044	50.36
764.222	49.88
764.401	50.05
764.579	49.85
764.758	48.38
764.936	48.74
765.114	49.72
765.293	50.22
765.471	49.62
765.65	49.16
765.828	49.74
766.006	50.05
766.184	50.18
766.363	49.88
766.541	48.82
766.719	50.08
766.898	49.53
767.076	49.37
767.254	48.76
767.432	49.02
767.61	48.38
767.788	48.64
767.967	46.91
768.145	46.54
768.323	48.16
768.501	49.35
768.679	49.04
768.857	49.75
769.035	49.88
769.213	51.24
769.391	51.29
769.569	51.13
769.747	50.18
769.925	50.75
770.103	52.13
770.281	50.93
770.459	50.78
770.636	51.37
770.814	51.17
770.992	51.36
771.17	51.89
771.348	52.33
771.525	55.07
771.703	55.76
771.881	56.95
772.059	57.4
772.236	55.91
772.414	57.51
772.592	58.08
772.769	58.59
772.947	57.05
773.125	55.45
773.302	55.04
773.48	53.36
773.657	51.21
773.835	51.13
774.013	51.77
774.19	53.86
774.368	52.7
774.545	51.03
774.723	51.34
774.9	54.65
775.077	54.31
775.255	53.77
775.432	53.8
775.61	55.54
775.787	54.84
775.964	52.88
776.142	51.58
776.319	51.99
776.496	52.34
776.674	52.48
776.851	50.8
777.028	50.27
777.205	51.64
777.382	52.7
777.56	52.84
777.737	56.15
777.914	57.01
778.091	57.34
778.268	56.15
778.445	59.28
778.622	58.13
778.8	58.84
778.977	60.19
779.154	56.76
779.331	54.85
779.508	54.52
779.685	51.78
779.862	50.32
780.038	49.9
780.215	53.26
780.392	51.23
780.569	53.32
780.746	50.42
780.923	51.45
781.1	53.46
781.277	51.33
781.453	50.51
781.63	49.49
781.807	51.01
781.984	49.78
782.16	47.11
782.337	46.84
782.514	44.47
782.691	46.51
782.867	45.09
783.044	46.83
783.221	49.74
783.397	50.83
783.574	52.37
783.75	51.75
783.927	55.7
784.103	56.06
784.28	56.69
784.456	56.08
784.633	57.31
784.809	59.24
784.986	55.7
785.162	56.5
785.339	56.07
785.515	55.09
785.692	55.92
785.868	53.21
786.044	55.2
786.221	54.81
786.397	56.44
786.573	54.02
786.749	52.63
786.926	54.14
787.102	54.08
787.278	54.11
787.454	56.76
787.631	55.71
787.807	55.38
787.983	53.84
788.159	53.54
788.335	52.74
788.511	54.96
788.687	54
788.863	55.37
789.039	54.56
789.216	53.2
789.392	51.92
789.568	51.13
789.744	53.01
789.919	52.36
790.095	52.53
790.271	51.43
790.447	50.97
790.623	51.65
790.799	50.87
790.975	51.02
791.151	53.54
791.327	51.18
791.502	52.16
791.678	51.2
791.854	52.76
792.03	49.68
792.205	50.26
792.381	48.06
792.557	47.06
792.733	48.2
792.908	46.17
793.084	45.73
793.259	47.98
793.435	47.5
793.611	47.63
793.786	45.76
793.962	48.39
794.137	47.91
794.313	48.03
794.488	47.87
794.664	46.63
794.839	49.42
795.015	49.25
795.19	46.2
795.366	48.31
795.541	49.29
795.716	51.37
795.892	52.17
796.067	54.66
796.242	55.99
796.418	57.81
796.593	59.37
796.768	59.91
796.944	61.19
797.119	63.35
797.294	62.59
797.469	59.74
797.644	58.52
797.82	58.74
797.995	57.91
798.17	57.53
798.345	55.09
798.52	52.39
798.695	50.79
798.87	47.17
799.045	48.75
799.22	48.5
799.395	50.56
799.57	49.98
799.745	48.74
799.92	48.55
800.095	48.69
800.27	49.31
800.445	49.98
800.62	48.66
800.795	48.85
800.97	49.72
801.145	50.1
801.319	46.18
801.494	47.92
801.669	50.26
801.844	48.21
802.018	45.26
802.193	44.56
802.368	43.51
802.543	46.65
802.717	50.96
802.892	48.46
803.067	51.08
803.241	53.84
803.416	50.56
803.59	51.87
803.765	53.31
803.94	58.46
804.114	58.75
804.289	60.1
804.463	59.33
804.638	55.89
804.812	55.09
804.986	53.34
805.161	54.41
805.335	57.92
805.51	54.18
805.684	54.92
805.858	51.93
806.033	52.04
806.207	50.04
806.381	52.34
806.556	55.79
806.73	55.76
806.904	55.61
807.078	54.93
807.253	53.34
807.427	53.03
807.601	53.52
807.775	52.68
807.949	53.92
808.123	54.74
808.298	52.98
808.472	51.92
808.646	51.16
808.82	48.57
808.994	46.51
809.168	46.51
809.342	48.48
809.516	45.51
809.69	48.38
809.864	46.28
810.038	48.47
810.212	49.44
810.385	48.68
810.559	49.43
810.733	49.78
810.907	52.92
811.081	50.63
811.255	50.89
811.428	51.19
811.602	50.38
811.776	52.83
811.95	51.84
812.123	45.66
812.297	43.57
812.471	44.59
812.644	47.55
812.818	47.6
812.992	51.43
813.165	50.18
813.339	50.92
813.512	51.25
813.686	49.6
813.86	50.25
814.033	54.48
814.207	55.68
814.38	54.83
814.554	53.36
814.727	53.14
814.9	55.75
815.074	55.5
815.247	54.91
815.421	52.85
815.594	53.1
815.767	53.43
815.941	49.98
816.114	50.89
816.287	53.16
816.46	54.08
816.634	50.87
816.807	49.41
816.98	51.25
817.153	53.9
817.327	56.48
817.5	57.78
817.673	58.74
817.846	60.08
818.019	61.86
818.192	62.03
818.365	59.92
818.538	62.68
818.711	60.34
818.884	57.88
819.057	57
819.23	56.27
819.403	56.42
819.576	56.49
819.749	59.86
819.922	58.19
820.095	60.24
820.268	60.95
820.441	61.18
820.614	63.06
820.786	62.02
820.959	61.8
821.132	60.4
821.305	57.1
821.477	54.57
821.65	51.84
821.823	51.59
821.996	50.8
822.168	51.05
822.341	50.46
822.514	49
822.686	49.7
822.859	49.52
823.031	49.04
823.204	49.71
823.376	49.89
823.549	50.24
823.722	50.28
823.894	50.25
824.067	50.1
824.239	50.2
824.411	49.66
824.584	50.21
824.756	50.29
824.929	50.64
825.101	50.69
825.273	51.14
825.446	50.82
825.618	50.77
825.79	50.08
825.963	49.68
826.135	49.79
826.307	52.09
826.479	51.1
826.652	50.61
826.824	51
826.996	50.55
827.168	51.98
827.34	52.88
827.512	53.27
827.684	53.27
827.856	53.17
828.029	52.52
828.201	51.05
828.373	50.54
828.545	50.96
828.717	50.83
828.889	51.11
829.061	49.85
829.232	49.87
829.404	49.48
829.576	50.02
829.748	50.9
829.92	53.31
830.092	55.11
830.264	55.38
830.436	55.9
830.607	58.13
830.779	57.58
830.951	56.54
831.123	55.85
831.294	55.93
831.466	53.41
831.638	53.3
831.809	49.82
831.981	48.66
832.153	47.23
832.324	47.38
832.496	46.32
832.667	51.73
832.839	55.68
833.011	54.89
833.182	54.95
833.354	57.69
833.525	55.11
833.697	54.99
833.868	53.87
834.039	55.88
834.211	55.01
834.382	53.75
834.554	51.59
834.725	50.19
834.896	49.88
835.068	49.72
835.239	50.21
835.41	52.42
835.581	52.45
835.753	53.48
835.924	54.27
836.095	54.46
836.266	53.93
836.438	55.85
836.609	54.26
836.78	55.54
836.951	55.15
837.122	53.6
837.293	52.52
837.464	52.59
837.635	52.39
837.806	49.11
837.977	47.38
838.148	48.12
838.319	44.99
838.49	46.54
838.661	45.68
838.832	49.71
839.003	50.65
839.174	53.84
839.345	57.76
839.516	58.18
839.687	63.26
839.857	63.49
840.028	63.34
840.199	60.11
840.37	62.92
840.54	66.09
840.711	61.28
840.882	63.35
841.053	62.1
841.223	61.17
841.394	65.15
841.564	68.04
841.735	74.2
841.906	74.33
842.076	79.36
842.247	75.47
842.417	75
842.588	78.9
842.758	85.99
842.929	84.27
843.099	83.37
843.27	77.73
843.44	76.08
843.611	73.87
843.781	78.04
843.951	73.79
844.122	76.67
844.292	70.09
844.462	73.91
844.633	65.2
844.803	62.29
844.973	59.87
845.144	58.51
845.314	53.42
845.484	48.45
845.654	42.07
845.824	48.35
845.995	44.67
846.165	54.08
846.335	47.52
846.505	56.94
846.675	64.16
846.845	63.65
847.015	79.76
847.185	84.77
847.355	90.39
847.525	96.95
847.695	98.5
847.865	106.24
848.035	89.2
848.205	92.21
848.375	74.99
848.545	61.32
848.715	60.78
848.884	49.11
849.054	50.35
849.224	53.19
849.394	60.22
849.564	57.87
849.733	67.25
849.903	68.31
850.073	70.49
850.243	74.51
850.412	87.47
850.582	94.53
850.752	106.28
850.921	100.92
851.091	110.46
851.26	112.33
851.43	99.76
851.599	87.43
851.769	79.97
851.939	73.48
852.108	70.11
852.278	70.46
852.447	70.24
852.616	70.38
852.786	69.68
852.955	68.56
853.125	62
853.294	68.72
853.463	67.7
853.633	75.5
853.802	94.84
853.971	102.42
854.141	102.44
854.31	102.95
854.479	93.33
854.648	105.14
854.818	98.45
854.987	90.44
855.156	72.26
855.325	69.5
855.494	76.97
855.663	44.2
855.832	60.08
856.001	54.04
856.171	46.93
856.34	45.45
856.509	49.48
856.678	49.42
856.847	73.35
857.016	93.77
857.185	97.71
857.353	100.13
857.522	110.37
857.691	95.67
857.86	88.74
858.029	97.06
858.198	98.53
858.367	100.6
858.535	87.53
858.704	87.46
858.873	81.98
859.042	73.8
859.21	70.1
859.379	58.64
859.548	55.2
859.717	62.16
859.885	70.49
860.054	63.16
860.222	43.3
860.391	51.21
860.56	54.73
860.728	52.75
860.897	57.66
861.065	59.92
861.234	60.23
861.402	52
861.571	52.81
861.739	50.5
861.908	52.07
862.076	72.18
862.244	66.58
862.413	65.13
862.581	73.92
862.749	66.26
862.918	61.74
863.086	73.29
863.254	81.69
863.423	81.34
863.591	54.07
863.759	57.05
863.927	45.51
864.096	52.59
864.264	45.19
864.432	39.38
864.6	50.62
864.768	58.22
864.936	49.25
865.104	61.06
865.272	69.21
865.44	80.77
865.608	85.1
865.776	91.59
865.944	97.5
866.112	94.33
866.28	90.83
866.448	88.49
866.616	92.56
866.784	86.28
866.952	63.23
867.12	58.45
867.288	55.48
867.455	58.37
867.623	38.6
867.791	32.47
867.959	42.1
868.127	55.63
868.294	52.93
868.462	32.19
868.63	32.19
868.797	53.15
868.965	43.19
869.133	51.32
869.3	49.98
869.468	64.57
869.636	59.85
869.803	66.52
869.971	59.59
870.138	58.49
870.306	65.47
870.473	71.93
870.641	64.99
870.808	68.37
870.975	71.64
871.143	66.31
871.31	58.52
871.478	50.3
871.645	39.91
871.812	52.3
871.98	53.19
872.147	41.51
872.314	33.24
872.482	39.05
872.649	34.81
872.816	36.21
872.983	49.34
873.15	52.69
873.318	67.22
873.485	75.15
873.652	65.51
873.819	72.47
873.986	89.44
874.153	96.6
874.32	105.77
874.487	122.6
874.654	131.93
874.821	116.07
874.988	123.16
875.155	107.32
875.322	85.07
875.489	86.91
875.656	76.37
875.823	73.55
875.99	58.89
876.157	53.86
876.324	50.49
876.49	52.14
876.657	58.62
876.824	63.56
876.991	65.17
877.157	66.48
877.324	73.04
877.491	73.72
877.658	71.32
877.824	70.75
877.991	76.52
878.157	80.68
878.324	86.7
878.491	81.01
878.657	72.12
878.824	72.32
878.99	69.24
879.157	70.53
879.323	68.43
879.49	69.71
879.656	74.64
879.823	77.89
879.989	78.36
880.156	73.15
880.322	72.76
880.488	70.72
880.655	69.64
880.821	74.94
880.987	74.78
881.154	71.19
881.32	71.58
881.486	73.14
881.652	69.3
881.819	65.42
881.985	64
882.151	64.1
882.317	62.2
882.483	64.78
882.649	66.7
882.816	61.91
882.982	62.68
883.148	58.84
883.314	56.42
883.48	55.82
883.646	53.63
883.812	53
883.978	53.16
884.144	53.41
884.31	52.55
884.476	50.09
884.642	50.9
884.807	48.97
884.973	48.65
885.139	49.13
885.305	50.41
885.471	51.03
885.637	51.62
885.802	52.35
885.968	52.98
886.134	53.74
886.3	55.43
886.465	56.61
886.631	59.7
886.797	64.13
886.962	63.86
887.128	65
887.293	67.1
887.459	64.27
887.625	57.18
887.79	59.57
887.956	56.13
888.121	54.32
888.287	51.35
888.452	48.72
888.618	41.43
888.783	44.47
