Data from CB_098_Reflection_2.txt Node
Date: Sat Nov 14 17:39:03 EST 2015
User: robert
Spectrometer: USB4E03001
Autoset integration time: false
Trigger mode: 4
Integration Time (sec): 1.000000E-1
Scans to average: 15
Electric dark correction enabled: true
Nonlinearity correction enabled: false
Boxcar width: 5
Stray light correction enabled: false
XAxis mode: Wavelengths
Stop averaging: false
Number of Pixels in Spectrum: 3648
>>>>>Begin Spectral Data<<<<<
177.566	48.46
177.785	318.72
178.005	-160.82
178.225	63.34
178.445	1551.58
178.665	-30.43
178.885	-267.01
179.105	53.49
179.324	70.8
179.544	52.14
179.764	44.68
179.984	42.25
180.204	7.22
180.423	20.03
180.643	57.72
180.863	42.44
181.083	57.8
181.302	69.71
181.522	100.22
181.742	73.32
181.961	84.62
182.181	69.83
182.401	42.73
182.621	100.65
182.84	3.45
183.06	-46.08
183.279	-36.05
183.499	-113.28
183.719	-166.46
183.938	-127.41
184.158	-79.28
184.377	-52.33
184.597	-71.08
184.816	5.97
185.036	15.91
185.256	17.88
185.475	38.2
185.695	41.4
185.914	50.06
186.134	51.48
186.353	60.54
186.572	62.27
186.792	66.96
187.011	65.57
187.231	66.57
187.45	65.7
187.67	68.52
187.889	58.57
188.108	66.41
188.328	52.69
188.547	47.88
188.766	37.38
188.986	38.98
189.205	18.66
189.424	27.91
189.644	15.07
189.863	19.37
190.082	18.46
190.302	26.09
190.521	16.28
190.74	13.76
190.959	-18.46
191.178	-0.01
191.398	-34.12
191.617	-5
191.836	-15.67
192.055	4.24
192.274	-44.13
192.494	-28.31
192.713	-93.85
192.932	-83.06
193.151	-129.28
193.37	-4.01
193.589	-70.82
193.808	-57.04
194.027	-392.05
194.246	1242.62
194.465	-1988.56
194.685	-84.03
194.904	-159.06
195.123	-117.51
195.342	-145.39
195.561	-61.51
195.78	-47.06
195.999	-26.98
196.218	-11.95
196.436	22
196.655	31.51
196.874	41.43
197.093	43.27
197.312	33.13
197.531	50.2
197.75	47.36
197.969	50.05
198.188	48.24
198.407	48.15
198.625	37.2
198.844	45.42
199.063	41.56
199.282	54.91
199.501	49.06
199.719	79.33
199.938	84.16
200.157	69.06
200.376	73.93
200.594	76.25
200.813	68.7
201.032	62.28
201.251	57.33
201.469	49.35
201.688	24.48
201.907	17.85
202.125	-1.41
202.344	-25.78
202.563	-52.13
202.781	-81.2
203	-118.42
203.218	-42.82
203.437	-23.76
203.656	-30.94
203.874	9.26
204.093	21.64
204.311	32.5
204.53	39.4
204.748	36.07
204.967	53.05
205.185	88.89
205.404	78.71
205.622	64.51
205.841	66.01
206.059	42.04
206.278	15.23
206.496	1.08
206.715	9.83
206.933	32.43
207.151	44.4
207.37	35.48
207.588	39.5
207.806	42.23
208.025	34.52
208.243	31.62
208.461	56.59
208.68	71.77
208.898	81.83
209.116	79.39
209.335	60.09
209.553	45.18
209.771	48.46
209.989	39.65
210.208	19.49
210.426	17.02
210.644	28.45
210.862	21.87
211.081	20.53
211.299	29.1
211.517	29.15
211.735	32.7
211.953	47.36
212.171	58.61
212.39	50.58
212.608	65.89
212.826	72.13
213.044	72.14
213.262	66.22
213.48	60.21
213.698	54.88
213.916	60.84
214.134	53.79
214.352	53.67
214.57	38.86
214.788	35.65
215.006	35.03
215.224	50.71
215.442	74.66
215.66	61.83
215.878	40.27
216.096	28.71
216.314	25.87
216.532	47.47
216.75	37.13
216.968	60.16
217.185	84.59
217.403	52.46
217.621	-8.85
217.839	-34.31
218.057	-51.59
218.275	12.98
218.492	25.01
218.71	43.63
218.928	37.27
219.146	25.24
219.363	29.19
219.581	34.51
219.799	68.23
220.017	67.05
220.234	74.79
220.452	66.71
220.67	91.85
220.887	153.92
221.105	188.65
221.323	1594.48
221.54	130.37
221.758	1202.14
221.976	52.24
222.193	15.33
222.411	51.83
222.629	25.84
222.846	191.97
223.064	-14.02
223.281	10.97
223.499	-54.99
223.716	16.88
223.934	-74.26
224.151	47.55
224.369	-6.53
224.586	-6.61
224.804	16.7
225.021	23.15
225.239	31.64
225.456	15.25
225.674	5.51
225.891	-4.12
226.108	-17.66
226.326	-5.79
226.543	7.21
226.76	16.7
226.978	27.08
227.195	5.56
227.413	-12.58
227.63	-14.77
227.847	-9.74
228.064	4.38
228.282	7.22
228.499	8.81
228.716	9.23
228.934	7.45
229.151	6.9
229.368	5.27
229.585	6.09
229.802	8.46
230.02	10.07
230.237	12.85
230.454	10.25
230.671	8.57
230.888	8.93
231.105	8.44
231.323	6.49
231.54	-0.92
231.757	-4.36
231.974	-1.17
232.191	-2.44
232.408	2.31
232.625	-0.13
232.842	8.3
233.059	12.5
233.276	13.92
233.493	19.39
233.71	28.71
233.927	41.36
234.144	49.45
234.361	40.21
234.578	37.87
234.795	37.31
235.012	35.44
235.229	28.9
235.446	27.91
235.663	24.84
235.879	12.28
236.096	3.45
236.313	-4.51
236.53	-6.26
236.747	-0.48
236.964	0.53
237.181	-13.17
237.397	-13.47
237.614	-10.75
237.831	-4.21
238.048	-1.34
238.264	-0.91
238.481	-2.09
238.698	6.36
238.915	5.22
239.131	8.17
239.348	5.18
239.565	11.78
239.781	11.62
239.998	11.65
240.215	6.89
240.431	2.99
240.648	11.04
240.865	15.95
241.081	13.53
241.298	13.11
241.514	12.64
241.731	15.37
241.947	13.96
242.164	12.17
242.38	13.68
242.597	13.85
242.814	15.51
243.03	13.86
243.246	14.38
243.463	15.36
243.679	14.83
243.896	15.56
244.112	13.92
244.329	13.86
244.545	17.95
244.762	16.97
244.978	20.97
245.194	19.57
245.411	17.44
245.627	14.86
245.843	14.06
246.06	12.94
246.276	12.97
246.492	13.87
246.709	13.05
246.925	11.2
247.141	11.61
247.357	11.16
247.574	11.32
247.79	12.4
248.006	13.34
248.222	13.25
248.439	13.65
248.655	12.92
248.871	12.12
249.087	13.32
249.303	15.05
249.519	14.62
249.736	13.49
249.952	15.31
250.168	17.02
250.384	15.36
250.6	16.07
250.816	16.8
251.032	16.52
251.248	17.38
251.464	13.97
251.68	10.51
251.896	9.38
252.112	8.76
252.328	7
252.544	4.67
252.76	3.77
252.976	1.28
253.192	0.91
253.408	1.1
253.624	-0.02
253.84	2.42
254.056	5.15
254.272	6.45
254.487	6.67
254.703	5.8
254.919	3.91
255.135	5.99
255.351	4.87
255.567	8.19
255.782	8.6
255.998	11.27
256.214	10.9
256.43	12.11
256.646	12.27
256.861	13.66
257.077	13.45
257.293	15.62
257.508	16.12
257.724	18.73
257.94	18.23
258.155	18.12
258.371	15.94
258.587	13.95
258.802	12.01
259.018	12.16
259.234	11.4
259.449	11.18
259.665	10.73
259.88	10.7
260.096	10.26
260.312	9.23
260.527	9.37
260.743	9.09
260.958	10
261.174	10.57
261.389	10.75
261.605	11.1
261.82	11.03
262.036	10.44
262.251	9.93
262.466	9.75
262.682	10.02
262.897	8.55
263.113	9.62
263.328	10.68
263.543	10.02
263.759	7.59
263.974	6.29
264.189	6.76
264.405	6.21
264.62	5.86
264.835	7.16
265.051	9.36
265.266	9.76
265.481	8.92
265.696	7.26
265.912	6.46
266.127	7.7
266.342	10.9
266.557	10.79
266.773	10.55
266.988	9.05
267.203	7.83
267.418	6.94
267.633	8.48
267.848	9.26
268.064	9.82
268.279	10.16
268.494	10.67
268.709	10.12
268.924	11.72
269.139	12.49
269.354	14.8
269.569	15.4
269.784	15.23
269.999	13.05
270.214	11.97
270.429	9.66
270.644	8.9
270.859	8.17
271.074	7.15
271.289	5.66
271.504	6.9
271.719	6.58
271.934	5.62
272.149	6.53
272.363	6.79
272.578	7.49
272.793	8.38
273.008	7.8
273.223	8.4
273.438	8.78
273.653	9.69
273.867	9.53
274.082	9.31
274.297	10.33
274.512	8.56
274.726	7.74
274.941	7.32
275.156	8.67
275.371	9.73
275.585	8.84
275.8	9.54
276.015	8.5
276.229	7.99
276.444	7.69
276.659	7.51
276.873	8.96
277.088	10.73
277.302	11.52
277.517	11.46
277.732	11.63
277.946	11.69
278.161	10.38
278.375	11.02
278.59	12.19
278.804	12.33
279.019	12.91
279.233	12.69
279.448	11.24
279.662	12.93
279.877	12.48
280.091	13.29
280.306	13.17
280.52	13.22
280.735	13.23
280.949	12.48
281.163	12.18
281.378	11.84
281.592	11.41
281.806	12.69
282.021	9.84
282.235	10.53
282.449	10.67
282.664	10.9
282.878	10.17
283.092	9.91
283.307	9.77
283.521	10.99
283.735	10.73
283.949	11.34
284.164	11.16
284.378	12.36
284.592	11.15
284.806	11.1
285.02	12.15
285.234	12.89
285.449	12.99
285.663	13.24
285.877	12.45
286.091	13.04
286.305	12.01
286.519	12.68
286.733	12.06
286.947	12.95
287.161	12.54
287.375	11.71
287.589	11.67
287.803	11.67
288.017	11.01
288.231	11.73
288.445	11.4
288.659	11.67
288.873	10.56
289.087	11.72
289.301	10.55
289.515	10.31
289.729	9.53
289.943	8.52
290.157	7.37
290.371	7.6
290.584	7.79
290.798	7.58
291.012	8.83
291.226	9.81
291.44	8.3
291.654	8.1
291.867	8.91
292.081	9.98
292.295	10.97
292.509	11.64
292.722	11.97
292.936	11.52
293.15	12.11
293.364	12.24
293.577	11.18
293.791	12.84
294.005	14.4
294.218	13.11
294.432	12.08
294.645	12.41
294.859	13.74
295.073	14.18
295.286	13.25
295.5	13.17
295.713	12.87
295.927	13.63
296.14	12.85
296.354	12.38
296.568	13.11
296.781	14.08
296.994	13.75
297.208	12.28
297.421	12.65
297.635	12.69
297.848	12.22
298.062	12.08
298.275	12.02
298.489	12.85
298.702	13.03
298.915	12.13
299.129	11.59
299.342	11.8
299.555	11.42
299.769	10.93
299.982	11.52
300.195	12
300.409	12.39
300.622	11.85
300.835	11.08
301.048	11.34
301.262	12
301.475	11.97
301.688	11.91
301.901	14.01
302.115	13.38
302.328	13.59
302.541	14.02
302.754	13.77
302.967	13.19
303.18	12.68
303.393	13.29
303.607	13.19
303.82	13.72
304.033	15.09
304.246	14.97
304.459	15.7
304.672	15.52
304.885	15.12
305.098	15.73
305.311	16.05
305.524	16.75
305.737	14.83
305.95	15.57
306.163	15.08
306.376	12.68
306.589	11.76
306.802	9.96
307.015	9.21
307.228	9.69
307.44	9.73
307.653	10.96
307.866	11.3
308.079	12.25
308.292	12.95
308.505	13.44
308.718	14.44
308.93	15.4
309.143	16.72
309.356	17.38
309.569	17.24
309.781	17.4
309.994	16.26
310.207	15.42
310.42	15
310.632	13.76
310.845	13.12
311.058	14.09
311.27	13.33
311.483	13.98
311.696	14.26
311.908	14.43
312.121	13.89
312.333	14.76
312.546	15.12
312.759	15.32
312.971	16.07
313.184	17.11
313.396	15.94
313.609	16.37
313.821	15.13
314.034	14.02
314.246	13.51
314.459	13.46
314.671	11.99
314.884	12.66
315.096	13.03
315.309	12.11
315.521	11.29
315.733	11.27
315.946	11.06
316.158	11.84
316.371	13.58
316.583	13.31
316.795	13.57
317.008	14.36
317.22	13.84
317.432	12.94
317.644	11.91
317.857	12.68
318.069	13.51
318.281	13.79
318.494	13.34
318.706	11.69
318.918	11.65
319.13	12.34
319.342	12.37
319.555	12.08
319.767	13.54
319.979	14.36
320.191	15.53
320.403	14.57
320.615	14.61
320.827	14
321.039	14.65
321.252	15.25
321.464	14.93
321.676	16.01
321.888	17.54
322.1	16.77
322.312	18.59
322.524	16.83
322.736	17.29
322.948	17.59
323.16	18.98
323.372	18.25
323.584	16.8
323.796	17.52
324.007	16.83
324.219	15.81
324.431	16.43
324.643	15.04
324.855	14.81
325.067	15.01
325.279	14.68
325.491	15.09
325.702	15.56
325.914	16.15
326.126	14.72
326.338	15.67
326.55	16.74
326.761	17.32
326.973	18.66
327.185	20.05
327.396	19.77
327.608	20.03
327.82	18.99
328.032	19.68
328.243	19.96
328.455	21.64
328.666	20.5
328.878	20.05
329.09	19.61
329.301	19.82
329.513	18.91
329.725	19.51
329.936	19.81
330.148	20.74
330.359	20.65
330.571	21.91
330.782	21.52
330.994	22.77
331.205	22.67
331.417	22.17
331.628	21.72
331.84	21.8
332.051	22.66
332.262	22.54
332.474	21.85
332.685	22.07
332.897	21.88
333.108	21.39
333.319	21.26
333.531	20.61
333.742	21.13
333.953	22.42
334.165	22.72
334.376	22.03
334.587	23
334.799	23.55
335.01	22.8
335.221	23.1
335.432	23.52
335.644	24.2
335.855	25.67
336.066	25.65
336.277	25.35
336.488	25.44
336.7	24.86
336.911	24.7
337.122	25.01
337.333	26.61
337.544	26.24
337.755	25.51
337.966	24.57
338.177	24.61
338.388	24.36
338.599	23.95
338.811	23.72
339.022	24.86
339.233	24.26
339.444	23.01
339.655	21.62
339.866	22.08
340.076	21.98
340.287	22.45
340.498	21.79
340.709	22.1
340.92	22.03
341.131	22.29
341.342	22.34
341.553	22.47
341.764	23.59
341.975	23.78
342.185	23.17
342.396	24.46
342.607	24.38
342.818	24.31
343.029	24.55
343.239	24.37
343.45	24.39
343.661	23.75
343.872	23.45
344.082	23.28
344.293	23.62
344.504	23.84
344.714	23.01
344.925	22.83
345.136	23.87
345.346	23.69
345.557	23.13
345.768	22.99
345.978	22.59
346.189	23.44
346.399	23.9
346.61	24.12
346.821	23.96
347.031	25.05
347.242	25.3
347.452	24.12
347.663	24.33
347.873	24.71
348.084	24.69
348.294	25.98
348.504	25.29
348.715	24.85
348.925	23.96
349.136	23.81
349.346	22.78
349.557	22.51
349.767	22.39
349.977	23.03
350.188	22.6
350.398	22.55
350.608	21.35
350.819	21.75
351.029	21.93
351.239	21.97
351.449	21.9
351.66	21.21
351.87	21.89
352.08	22.36
352.29	21.27
352.501	21.83
352.711	22.8
352.921	22.61
353.131	22.53
353.341	21.62
353.552	21.87
353.762	21.78
353.972	22.32
354.182	22.21
354.392	22.33
354.602	21.96
354.812	22.42
355.022	21.97
355.232	21.88
355.442	21.59
355.652	21.97
355.862	21.95
356.072	22.51
356.282	22.45
356.492	22.34
356.702	21.84
356.912	22.32
357.122	22.16
357.332	21.41
357.542	21.81
357.752	22.3
357.962	22.61
358.171	22.63
358.381	22.81
358.591	22.94
358.801	23.14
359.011	23.77
359.221	24.18
359.43	23.62
359.64	23.58
359.85	23.56
360.06	22.91
360.269	22.19
360.479	22.52
360.689	22.1
360.899	22.31
361.108	22.25
361.318	21.66
361.528	20.92
361.737	20.99
361.947	21.15
362.156	21.48
362.366	21.53
362.576	21.79
362.785	21.92
362.995	22.26
363.204	21.44
363.414	20.86
363.623	20.71
363.833	20.78
364.042	20.76
364.252	21.18
364.461	20.95
364.671	21.36
364.88	21.32
365.09	20.91
365.299	20.34
365.509	21.1
365.718	21.31
365.927	21.34
366.137	21.56
366.346	21.61
366.555	21.25
366.765	20.53
366.974	20.14
367.183	20.41
367.393	20
367.602	20.05
367.811	20.44
368.021	20.04
368.23	19.6
368.439	19.39
368.648	19.17
368.857	18.95
369.067	18.82
369.276	18.46
369.485	17.95
369.694	18.04
369.903	18.28
370.112	17.64
370.321	18.3
370.531	19
370.74	18.88
370.949	19.22
371.158	19.18
371.367	19.69
371.576	19.92
371.785	19.87
371.994	20.23
372.203	19.75
372.412	19.86
372.621	19.68
372.83	19.34
373.039	19.56
373.248	19.39
373.457	19.36
373.666	19.34
373.874	18.97
374.083	19.04
374.292	18.25
374.501	18.14
374.71	17.43
374.919	16.89
375.128	17.42
375.336	18.03
375.545	17.54
375.754	17.62
375.963	17.4
376.171	17.54
376.38	17.82
376.589	18.02
376.798	17.89
377.006	18.23
377.215	18.25
377.424	17.69
377.632	16.91
377.841	17.31
378.05	17.29
378.258	17.59
378.467	17.49
378.675	17.28
378.884	17.16
379.093	17.16
379.301	17.32
379.51	17.28
379.718	16.95
379.927	17.12
380.135	17.2
380.344	17.13
380.552	16.78
380.761	16.92
380.969	16.81
381.177	16.88
381.386	17.07
381.594	17.36
381.803	17.39
382.011	17.49
382.219	17.46
382.428	17.35
382.636	17.49
382.845	17.18
383.053	17.22
383.261	17.09
383.469	17.17
383.678	17.28
383.886	17.08
384.094	16.95
384.302	16.71
384.511	16.48
384.719	16.33
384.927	15.67
385.135	15.5
385.343	15.28
385.552	15.18
385.76	14.74
385.968	14.04
386.176	13.51
386.384	13.54
386.592	13.71
386.8	13.66
387.008	13.92
387.216	14.47
387.424	14.59
387.633	14.48
387.841	14.33
388.049	14.85
388.257	15.2
388.465	15.42
388.672	14.93
388.88	14.96
389.088	14.76
389.296	14.35
389.504	13.78
389.712	14.01
389.92	14.04
390.128	14.08
390.336	13.57
390.544	13.7
390.751	13.35
390.959	13.54
391.167	13.59
391.375	13.64
391.583	13.31
391.79	13.39
391.998	13.34
392.206	13.48
392.414	13.43
392.621	13.4
392.829	13.03
393.037	13.12
393.244	13.13
393.452	12.79
393.66	12.96
393.867	13.05
394.075	13.35
394.283	13.12
394.49	12.71
394.698	12.58
394.905	12.7
395.113	12.74
395.32	12.67
395.528	12.85
395.735	13.22
395.943	13.13
396.15	13.26
396.358	12.94
396.565	12.98
396.773	13.27
396.98	13.13
397.188	13.11
397.395	12.95
397.602	12.87
397.81	12.43
398.017	12.18
398.225	12.01
398.432	11.99
398.639	11.85
398.847	12.04
399.054	11.83
399.261	12.12
399.468	12.09
399.676	12.66
399.883	12.49
400.09	12.58
400.297	12.7
400.505	12.64
400.712	12.26
400.919	12.29
401.126	11.91
401.333	11.85
401.54	11.91
401.748	11.97
401.955	11.35
402.162	11.73
402.369	11.85
402.576	11.83
402.783	11.82
402.99	12.04
403.197	12.14
403.404	12.36
403.611	12.38
403.818	12.23
404.025	12.09
404.232	12.24
404.439	11.86
404.646	11.81
404.853	11.6
405.06	11.63
405.267	11.66
405.474	11.47
405.681	11.4
405.887	11.28
406.094	11.27
406.301	11.36
406.508	11.38
406.715	11.52
406.922	11.4
407.128	11.65
407.335	11.75
407.542	11.64
407.749	12.02
407.955	11.77
408.162	11.99
408.369	11.92
408.575	12.02
408.782	12.02
408.989	11.93
409.195	12.07
409.402	11.85
409.609	11.7
409.815	11.83
410.022	11.59
410.228	11.93
410.435	11.82
410.642	12
410.848	11.73
411.055	11.56
411.261	11.63
411.468	11.55
411.674	11.53
411.881	11.51
412.087	11.24
412.294	11.42
412.5	11.31
412.706	11.49
412.913	11.2
413.119	11.19
413.326	11.17
413.532	11.39
413.738	11.44
413.945	11.38
414.151	11.4
414.357	11.59
414.564	11.37
414.77	11.13
414.976	11.14
415.182	11.36
415.389	11.49
415.595	11.71
415.801	11.45
416.007	11.46
416.214	11.44
416.42	11.47
416.626	11.55
416.832	11.5
417.038	11.62
417.244	11.58
417.45	11.58
417.657	11.4
417.863	11.34
418.069	11.3
418.275	11.2
418.481	11.36
418.687	11.33
418.893	11.34
419.099	11.45
419.305	11.26
419.511	11.22
419.717	11.18
419.923	11.22
420.129	11.08
420.335	11.09
420.541	11.35
420.746	11.19
420.952	11.29
421.158	11.28
421.364	11.18
421.57	11.24
421.776	11.15
421.982	10.99
422.187	10.99
422.393	11.06
422.599	11.16
422.805	10.96
423.01	11.07
423.216	10.93
423.422	10.92
423.628	10.91
423.833	10.95
424.039	11.17
424.245	11.38
424.45	11.45
424.656	11.54
424.862	11.47
425.067	11.49
425.273	11.56
425.478	11.59
425.684	11.53
425.889	11.54
426.095	11.63
426.301	11.31
426.506	11.25
426.712	11.09
426.917	11.14
427.123	11.14
427.328	11.28
427.533	11.19
427.739	11.39
427.944	11.42
428.15	11.3
428.355	11.19
428.561	11.54
428.766	11.55
428.971	11.61
429.177	11.54
429.382	11.49
429.587	11.28
429.793	11.21
429.998	11.12
430.203	11.07
430.408	11.3
430.614	11.33
430.819	11.13
431.024	11.28
431.229	11.36
431.434	11.24
431.64	11.32
431.845	11.36
432.05	11.39
432.255	11.16
432.46	11.21
432.665	11.18
432.87	11.24
433.076	11.31
433.281	11.09
433.486	11.04
433.691	10.99
433.896	10.93
434.101	10.85
434.306	10.82
434.511	10.91
434.716	10.86
434.921	10.88
435.126	10.78
435.331	10.74
435.535	10.87
435.74	10.91
435.945	10.92
436.15	10.97
436.355	11.1
436.56	11.16
436.765	11.11
436.97	11.12
437.174	11.14
437.379	11.29
437.584	11.41
437.789	11.26
437.993	11.29
438.198	11.31
438.403	11.4
438.608	11.25
438.812	11.34
439.017	11.38
439.222	11.45
439.426	11.45
439.631	11.26
439.836	11.1
440.04	11.29
440.245	11.27
440.45	11.2
440.654	11.09
440.859	11.23
441.063	11.16
441.268	11.14
441.472	10.96
441.677	11.14
441.881	11.08
442.086	11.24
442.29	11.17
442.495	11.1
442.699	11.17
442.904	11.3
443.108	11.16
443.312	11.04
443.517	10.92
443.721	11.13
443.925	10.88
444.13	11.06
444.334	11.06
444.538	11.04
444.743	10.99
444.947	11.05
445.151	11.09
445.356	11.23
445.56	11.33
445.764	11.49
445.968	11.39
446.173	11.41
446.377	11.38
446.581	11.21
446.785	11.11
446.989	11.12
447.193	11.1
447.398	11.12
447.602	11.09
447.806	11.14
448.01	11.05
448.214	11.11
448.418	10.96
448.622	10.89
448.826	10.88
449.03	11.02
449.234	11.08
449.438	11.05
449.642	10.83
449.846	10.88
450.05	10.79
450.254	10.82
450.458	10.79
450.662	10.97
450.866	10.89
451.069	11.14
451.273	10.96
451.477	11.07
451.681	10.96
451.885	11.15
452.089	10.94
452.292	10.86
452.496	10.79
452.7	10.79
452.904	10.81
453.107	10.8
453.311	10.75
453.515	10.85
453.719	10.72
453.922	10.9
454.126	10.56
454.33	10.44
454.533	10.49
454.737	10.51
454.94	10.5
455.144	10.46
455.348	10.72
455.551	10.59
455.755	10.6
455.958	10.61
456.162	10.62
456.365	10.95
456.569	11.08
456.772	11.17
456.976	11.33
457.179	11.43
457.383	11.34
457.586	11.29
457.79	11.33
457.993	11.37
458.196	11.35
458.4	11.3
458.603	11.09
458.807	11.21
459.01	11.03
459.213	11.01
459.417	11
459.62	10.99
459.823	10.97
460.026	10.98
460.23	10.94
460.433	10.87
460.636	10.98
460.839	11.09
461.042	11.04
461.246	11.16
461.449	10.95
461.652	10.86
461.855	10.92
462.058	10.84
462.261	10.91
462.464	10.9
462.668	10.95
462.871	10.88
463.074	10.77
463.277	10.75
463.48	10.62
463.683	10.71
463.886	10.81
464.089	10.65
464.292	10.79
464.495	10.81
464.698	10.87
464.901	10.92
465.104	10.95
465.306	11.06
465.509	10.98
465.712	11.05
465.915	11.13
466.118	11.02
466.321	11.23
466.524	11.21
466.726	11.21
466.929	11.11
467.132	11.15
467.335	11
467.538	11.05
467.74	10.99
467.943	10.93
468.146	11.09
468.348	11.32
468.551	11.3
468.754	11.35
468.956	11.36
469.159	11.42
469.362	11.53
469.564	11.53
469.767	11.46
469.969	11.63
470.172	11.95
470.375	11.72
470.577	11.66
470.78	11.5
470.982	11.57
471.185	11.42
471.387	11.39
471.59	11.25
471.792	11.23
471.995	11.21
472.197	11.12
472.399	10.75
472.602	10.83
472.804	10.69
473.007	10.87
473.209	10.79
473.411	10.73
473.614	10.66
473.816	10.66
474.018	10.67
474.22	10.74
474.423	10.73
474.625	10.93
474.827	10.85
475.03	10.75
475.232	10.62
475.434	10.67
475.636	10.63
475.838	10.74
476.04	10.82
476.243	10.78
476.445	10.71
476.647	10.8
476.849	10.79
477.051	10.96
477.253	10.97
477.455	10.84
477.657	10.69
477.859	10.63
478.061	10.56
478.263	10.53
478.465	10.56
478.667	10.59
478.869	10.53
479.071	10.48
479.273	10.32
479.475	10.45
479.677	10.53
479.879	10.6
480.081	10.67
480.283	10.67
480.485	10.6
480.686	10.7
480.888	10.68
481.09	10.74
481.292	10.83
481.494	10.95
481.695	11.01
481.897	11.11
482.099	11.06
482.301	11.08
482.502	11.12
482.704	11.1
482.906	11.04
483.107	11.08
483.309	11.05
483.511	11
483.712	10.94
483.914	10.85
484.115	10.81
484.317	10.83
484.519	10.8
484.72	10.77
484.922	10.74
485.123	10.72
485.325	10.64
485.526	10.64
485.728	10.61
485.929	10.63
486.131	10.66
486.332	10.69
486.534	10.63
486.735	10.64
486.936	10.69
487.138	10.77
487.339	10.81
487.541	10.97
487.742	10.94
487.943	10.97
488.144	11.06
488.346	11.04
488.547	11.01
488.748	11.03
488.95	11.11
489.151	11.05
489.352	10.97
489.553	10.96
489.755	10.92
489.956	10.88
490.157	10.88
490.358	10.71
490.559	10.79
490.76	10.76
490.961	10.87
491.163	10.89
491.364	10.85
491.565	10.86
491.766	10.83
491.967	10.75
492.168	10.86
492.369	10.91
492.57	10.92
492.771	10.91
492.972	10.96
493.173	10.9
493.374	10.87
493.575	10.94
493.776	11.01
493.976	11.05
494.177	10.94
494.378	10.96
494.579	10.97
494.78	11.1
494.981	11.14
495.182	11.15
495.382	11.12
495.583	11.1
495.784	11.18
495.985	11.2
496.185	11.27
496.386	11.33
496.587	11.19
496.788	11.22
496.988	11.16
497.189	11.23
497.39	11.32
497.59	11.27
497.791	11.2
497.992	11.29
498.192	11.19
498.393	11.18
498.593	11.31
498.794	11.23
498.994	11.22
499.195	11.1
499.395	10.96
499.596	10.97
499.796	11.07
499.997	11.21
500.197	11.14
500.398	11.35
500.598	11.27
500.799	11.33
500.999	11.51
501.199	11.3
501.4	11.52
501.6	11.69
501.801	11.58
502.001	11.65
502.201	11.6
502.402	11.51
502.602	11.32
502.802	11.37
503.002	11.25
503.203	11.37
503.403	11.4
503.603	11.41
503.803	11.43
504.003	11.47
504.204	11.48
504.404	11.68
504.604	11.87
504.804	11.92
505.004	12.06
505.204	12.09
505.404	12.07
505.604	12.26
505.804	12.3
506.005	12.2
506.205	12.24
506.405	12.28
506.605	12.17
506.805	12.04
507.005	12.06
507.204	12.04
507.404	12.19
507.604	12.09
507.804	12.08
508.004	12.06
508.204	12.14
508.404	12.15
508.604	12.31
508.804	12.3
509.003	12.56
509.203	12.69
509.403	12.75
509.603	12.75
509.803	12.8
510.002	12.88
510.202	12.91
510.402	12.9
510.602	12.94
510.801	12.85
511.001	12.84
511.201	12.78
511.4	12.74
511.6	12.72
511.8	12.73
511.999	12.91
512.199	12.85
512.398	12.84
512.598	12.94
512.797	12.92
512.997	12.94
513.197	12.97
513.396	13.02
513.596	13.15
513.795	13.4
513.994	13.26
514.194	13.14
514.393	13.35
514.593	13.56
514.792	13.61
514.992	13.8
515.191	13.77
515.39	13.92
515.59	13.92
515.789	13.95
515.988	13.94
516.188	14.3
516.387	14.57
516.586	14.58
516.786	14.48
516.985	14.59
517.184	14.59
517.383	14.56
517.582	14.51
517.782	14.57
517.981	14.53
518.18	14.54
518.379	14.53
518.578	14.35
518.777	14.29
518.976	14.42
519.176	14.41
519.375	14.45
519.574	14.65
519.773	14.66
519.972	14.76
520.171	14.78
520.37	14.69
520.569	14.86
520.768	15.07
520.967	15.21
521.166	15.17
521.365	15.2
521.564	15.33
521.762	15.35
521.961	15.56
522.16	15.48
522.359	15.65
522.558	15.71
522.757	15.59
522.956	15.59
523.154	15.72
523.353	15.79
523.552	15.88
523.751	15.91
523.949	16.08
524.148	16.14
524.347	16.21
524.546	16.34
524.744	16.5
524.943	16.46
525.142	16.46
525.34	16.5
525.539	16.53
525.737	16.59
525.936	16.66
526.135	16.69
526.333	16.71
526.532	16.78
526.73	16.86
526.929	16.87
527.127	17
527.326	17.08
527.524	17
527.723	17.15
527.921	17.15
528.12	17.21
528.318	17.23
528.516	17.29
528.715	17.29
528.913	17.32
529.112	17.38
529.31	17.45
529.508	17.51
529.707	17.66
529.905	17.66
530.103	17.74
530.301	17.73
530.5	17.8
530.698	17.83
530.896	17.97
531.094	18.01
531.293	18.08
531.491	18.05
531.689	18.1
531.887	18.09
532.085	18.16
532.283	18.22
532.481	18.41
532.68	18.46
532.878	18.58
533.076	18.65
533.274	18.6
533.472	18.65
533.67	18.7
533.868	18.76
534.066	18.88
534.264	18.86
534.462	18.91
534.66	18.85
534.858	18.9
535.056	18.87
535.253	18.87
535.451	19.08
535.649	19.2
535.847	19.3
536.045	19.34
536.243	19.4
536.441	19.67
536.638	19.72
536.836	19.81
537.034	19.85
537.232	19.9
537.43	19.93
537.627	19.83
537.825	19.86
538.023	19.92
538.22	20.04
538.418	19.96
538.616	19.88
538.813	19.92
539.011	19.98
539.209	20.04
539.406	20.21
539.604	20.41
539.801	20.6
539.999	20.77
540.196	20.82
540.394	20.91
540.591	21.04
540.789	21.1
540.986	21.24
541.184	21.33
541.381	21.43
541.579	21.44
541.776	21.46
541.974	21.53
542.171	21.51
542.368	21.64
542.566	21.65
542.763	21.78
542.96	21.87
543.158	22.02
543.355	22.12
543.552	22.21
543.75	22.25
543.947	22.27
544.144	22.41
544.341	22.46
544.539	22.62
544.736	22.82
544.933	22.88
545.13	22.89
545.327	22.77
545.524	22.7
545.722	22.65
545.919	22.72
546.116	22.88
546.313	22.7
546.51	22.8
546.707	22.75
546.904	22.63
547.101	22.68
547.298	22.81
547.495	22.89
547.692	23.01
547.889	23.26
548.086	23.36
548.283	23.44
548.48	23.73
548.677	23.72
548.874	23.72
549.07	23.8
549.267	23.85
549.464	24.02
549.661	24.06
549.858	24.24
550.055	24.33
550.251	24.49
550.448	24.58
550.645	24.67
550.842	24.89
551.038	25.03
551.235	25.26
551.432	25.24
551.628	25.25
551.825	25.51
552.022	25.4
552.218	25.32
552.415	25.4
552.612	25.37
552.808	25.19
553.005	25.24
553.201	25.3
553.398	25.29
553.594	25.38
553.791	25.44
553.987	25.3
554.184	25.47
554.38	25.46
554.577	25.63
554.773	25.88
554.97	26.21
555.166	26.23
555.362	26.35
555.559	26.53
555.755	26.84
555.952	26.9
556.148	27.08
556.344	27.37
556.541	27.55
556.737	27.32
556.933	27.36
557.129	27.43
557.326	27.71
557.522	28.1
557.718	28.21
557.914	28.3
558.11	28.5
558.307	28.61
558.503	28.46
558.699	28.8
558.895	28.84
559.091	28.82
559.287	29.04
559.483	29.04
559.679	28.84
559.876	29.01
560.072	28.95
560.268	28.95
560.464	29.27
560.66	29.39
560.856	29.25
561.052	29.63
561.247	29.87
561.443	29.77
561.639	29.78
561.835	29.78
562.031	29.91
562.227	29.99
562.423	29.85
562.619	29.81
562.815	29.94
563.01	30.02
563.206	30.02
563.402	30.06
563.598	30.08
563.793	30.03
563.989	30.1
564.185	29.94
564.381	29.91
564.576	30.26
564.772	30.26
564.968	30.24
565.163	30.29
565.359	30.4
565.555	30.47
565.75	30.65
565.946	30.79
566.141	30.82
566.337	31.1
566.532	31.18
566.728	31.27
566.923	31.21
567.119	31.28
567.314	31.3
567.51	31.28
567.705	31.24
567.901	31.28
568.096	31.38
568.292	31.48
568.487	31.34
568.682	31.39
568.878	31.3
569.073	31.44
569.268	31.61
569.464	31.78
569.659	31.98
569.854	32.24
570.05	32.32
570.245	32.62
570.44	32.5
570.635	32.51
570.831	32.43
571.026	32.42
571.221	32.5
571.416	32.49
571.611	32.5
571.806	32.46
572.002	32.31
572.197	32.37
572.392	32.17
572.587	32.31
572.782	32.5
572.977	32.68
573.172	32.89
573.367	32.84
573.562	32.88
573.757	32.9
573.952	32.81
574.147	32.79
574.342	32.82
574.537	32.9
574.732	33.01
574.927	32.94
575.121	32.8
575.316	32.74
575.511	32.91
575.706	32.99
575.901	32.98
576.096	33.23
576.29	33.47
576.485	33.46
576.68	33.54
576.875	33.68
577.069	33.66
577.264	34.16
577.459	34.29
577.654	34.42
577.848	34.27
578.043	34.61
578.238	34.71
578.432	34.58
578.627	34.69
578.821	34.66
579.016	34.33
579.21	34.47
579.405	34.2
579.6	34.19
579.794	34.07
579.989	34.37
580.183	34.15
580.378	34.02
580.572	34.28
580.766	34.27
580.961	34.32
581.155	34.7
581.35	34.66
581.544	34.72
581.738	34.61
581.933	34.7
582.127	34.54
582.321	34.68
582.516	34.6
582.71	34.54
582.904	34.44
583.099	34.57
583.293	34.6
583.487	34.53
583.681	34.59
583.875	34.69
584.07	34.47
584.264	34.81
584.458	34.69
584.652	34.95
584.846	34.99
585.04	34.77
585.234	34.74
585.428	34.55
585.623	34.83
585.817	34.72
586.011	34.96
586.205	35.05
586.399	34.95
586.593	34.94
586.787	34.85
586.981	34.98
587.174	35.25
587.368	35.32
587.562	35.5
587.756	35.22
587.95	35.6
588.144	35.48
588.338	35.68
588.532	35.35
588.725	35.44
588.919	35.62
589.113	35.6
589.307	35.59
589.501	35.56
589.694	35.57
589.888	35.91
590.082	35.72
590.275	35.76
590.469	35.83
590.663	35.98
590.856	35.81
591.05	35.74
591.244	35.71
591.437	36.06
591.631	36.12
591.824	36.14
592.018	36.06
592.212	35.93
592.405	36.05
592.599	35.95
592.792	35.85
592.986	36.09
593.179	36
593.372	36.13
593.566	36.28
593.759	36.32
593.953	36.43
594.146	36.48
594.339	36.71
594.533	36.71
594.726	36.74
594.92	36.87
595.113	36.85
595.306	36.93
595.499	36.78
595.693	36.62
595.886	36.77
596.079	36.71
596.272	36.83
596.466	36.78
596.659	36.84
596.852	36.81
597.045	37.04
597.238	37.13
597.431	37.36
597.624	37.4
597.818	37.49
598.011	37.42
598.204	37.45
598.397	37.49
598.59	37.53
598.783	37.54
598.976	37.77
599.169	38.1
599.362	38.11
599.555	37.95
599.748	38.08
599.941	37.82
600.134	37.86
600.326	38.09
600.519	37.79
600.712	37.81
600.905	37.53
601.098	37.09
601.291	36.66
601.483	36.52
601.676	36.31
601.869	36.27
602.062	36.52
602.255	36.52
602.447	36.41
602.64	36.82
602.833	36.84
603.025	37.03
603.218	37.28
603.411	37.56
603.603	37.74
603.796	38.04
603.989	37.91
604.181	37.88
604.374	38.16
604.566	38.21
604.759	37.92
604.951	38.13
605.144	38.15
605.336	38.08
605.529	38.02
605.721	38.07
605.914	38.04
606.106	38.34
606.299	38.3
606.491	37.99
606.683	37.88
606.876	37.99
607.068	37.8
607.26	37.72
607.453	37.95
607.645	37.73
607.837	37.5
608.03	37.51
608.222	37.25
608.414	37.47
608.606	37.71
608.799	37.64
608.991	37.96
609.183	38.13
609.375	38.39
609.567	38.56
609.759	38.72
609.952	38.91
610.144	39.03
610.336	39.44
610.528	39.47
610.72	39.39
610.912	39.68
611.104	39.65
611.296	39.59
611.488	39.62
611.68	39.41
611.872	39.21
612.064	39.26
612.256	39.27
612.448	38.99
612.64	38.76
612.832	38.66
613.023	38.91
613.215	38.52
613.407	38.31
613.599	38.04
613.791	38.09
613.983	38.25
614.174	38.4
614.366	38.04
614.558	38.22
614.75	38.55
614.941	38.76
615.133	38.3
615.325	38.46
615.516	38.63
615.708	38.86
615.9	38.78
616.091	38.91
616.283	38.91
616.475	39.31
616.666	39.32
616.858	39.03
617.049	38.9
617.241	38.9
617.432	39.06
617.624	38.95
617.815	38.84
618.007	38.93
618.198	39.09
618.39	38.53
618.581	38.45
618.773	38.08
618.964	38.04
619.155	38.45
619.347	38.57
619.538	38.53
619.729	39.09
619.921	39.38
620.112	39.33
620.303	38.92
620.494	39.26
620.686	39.25
620.877	39.7
621.068	39.94
621.259	39.65
621.451	39.77
621.642	39.73
621.833	39.43
622.024	39.14
622.215	39.4
622.406	39.63
622.597	39.6
622.788	39.64
622.98	39.48
623.171	39.62
623.362	39.69
623.553	39.56
623.744	39.66
623.935	39.53
624.126	39.64
624.317	39.16
624.508	39.27
624.698	39.5
624.889	39.12
625.08	39.08
625.271	39.07
625.462	38.95
625.653	39.01
625.844	39.05
626.034	39.41
626.225	39.44
626.416	39.66
626.607	39.64
626.798	39.13
626.988	39.66
627.179	39.77
627.37	39.8
627.56	40.08
627.751	40.16
627.942	40.24
628.132	39.99
628.323	39.92
628.514	40.02
628.704	40.13
628.895	40.52
629.085	40.3
629.276	40.14
629.466	40.2
629.657	39.86
629.847	39.88
630.038	39.83
630.228	39.82
630.419	40.03
630.609	40.38
630.8	40.08
630.99	40.09
631.181	40.14
631.371	40.25
631.561	40.23
631.752	40.31
631.942	40.14
632.132	39.88
632.323	39.66
632.513	39.48
632.703	39.29
632.893	39.48
633.084	39.51
633.274	39.37
633.464	39.54
633.654	39.67
633.844	39.77
634.034	39.87
634.225	39.95
634.415	40.32
634.605	40.4
634.795	40.26
634.985	40.33
635.175	40.31
635.365	40.38
635.555	40.34
635.745	39.78
635.935	39.78
636.125	40.12
636.315	40.27
636.505	40.42
636.695	40.44
636.885	40.5
637.075	40.42
637.265	40.63
637.455	40.65
637.644	40.6
637.834	40.8
638.024	40.62
638.214	40.34
638.404	40.34
638.593	40.11
638.783	39.9
638.973	40.05
639.163	40.08
639.352	39.9
639.542	39.88
639.732	39.77
639.921	39.72
640.111	39.58
640.301	39.4
640.49	39.46
640.68	39.65
640.87	39.62
641.059	39.08
641.249	39.21
641.438	39.4
641.628	39.19
641.817	39.33
642.007	39.53
642.196	40.07
642.386	40.49
642.575	40.21
642.764	40.17
642.954	40.6
643.143	41.19
643.333	41.52
643.522	41.28
643.711	41.71
643.901	41.5
644.09	41.52
644.279	41.22
644.469	41.13
644.658	41.06
644.847	40.98
645.036	40.57
645.226	40.31
645.415	39.94
645.604	40.1
645.793	39.85
645.982	39.79
646.171	39.77
646.361	40.23
646.55	40.09
646.739	40.13
646.928	40.15
647.117	40.52
647.306	40.69
647.495	40.29
647.684	40.07
647.873	40.36
648.062	40.61
648.251	40.66
648.44	40.13
648.629	40.3
648.818	40.58
649.007	40.48
649.196	40.44
649.384	40.23
649.573	40.76
649.762	41.03
649.951	40.76
650.14	40.8
650.328	40.74
650.517	40.96
650.706	40.79
650.895	40.5
651.083	40.54
651.272	40.36
651.461	40.4
651.65	40.05
651.838	39.93
652.027	39.92
652.216	40.34
652.404	40.76
652.593	40.95
652.781	41.07
652.97	41.07
653.158	41.26
653.347	41.52
653.535	41.67
653.724	41.99
653.912	41.9
654.101	42.27
654.289	41.73
654.478	41.49
654.666	41.22
654.855	41.53
655.043	41.72
655.231	41.37
655.42	41.19
655.608	41.15
655.796	41.28
655.985	41.63
656.173	41.67
656.361	41.96
656.55	42.15
656.738	42.28
656.926	41.97
657.114	41.78
657.302	41.73
657.491	41.58
657.679	41.66
657.867	41.94
658.055	41.8
658.243	41.36
658.431	41.02
658.619	41.29
658.807	41.43
658.996	41.22
659.184	41.59
659.372	41.75
659.56	41.67
659.748	41.48
659.936	41.16
660.124	41.34
660.311	41.57
660.499	41.81
660.687	41.63
660.875	41.42
661.063	41.54
661.251	41.72
661.439	41.72
661.627	42.22
661.814	42.75
662.002	42.82
662.19	42.63
662.378	42.64
662.565	42.35
662.753	41.9
662.941	42.27
663.129	42.04
663.316	41.97
663.504	41.92
663.692	41.57
663.879	41.3
664.067	41.37
664.254	41.18
664.442	41.15
664.63	41.32
664.817	41.66
665.005	41.54
665.192	41.64
665.38	41.46
665.567	41.71
665.755	42.26
665.942	42.07
666.13	41.63
666.317	41.59
666.504	41.48
666.692	41.37
666.879	41.4
667.067	41.25
667.254	41.27
667.441	41.54
667.629	41.43
667.816	41.4
668.003	41.59
668.19	41.73
668.378	41.7
668.565	42.3
668.752	42.41
668.939	42.26
669.127	42.11
669.314	41.96
669.501	41.29
669.688	41.45
669.875	41.12
670.062	40.91
670.249	40.87
670.436	41.25
670.623	40.73
670.81	40.86
670.997	41.12
671.184	41.08
671.371	41.65
671.558	42.22
671.745	42.02
671.932	42.13
672.119	41.97
672.306	42.14
672.493	42.13
672.68	42.45
672.867	42.21
673.054	42.04
673.24	41.79
673.427	41.33
673.614	41.5
673.801	41.46
673.988	41.25
674.174	41.53
674.361	41.34
674.548	41.32
674.734	41.3
674.921	41.33
675.108	41.44
675.294	42.01
675.481	41.82
675.668	41.61
675.854	42.13
676.041	42.28
676.227	42.59
676.414	42.92
676.601	42.77
676.787	42.73
676.974	42.49
677.16	42.24
677.347	42.49
677.533	42.96
677.719	42.85
677.906	42.36
678.092	42.47
678.279	42.65
678.465	42.38
678.651	42.22
678.838	41.89
679.024	42.57
679.21	42.75
679.397	42.48
679.583	42.01
679.769	41.98
679.955	42.15
680.142	41.94
680.328	41.42
680.514	41.5
680.7	41.49
680.886	41.85
681.073	41.36
681.259	40.95
681.445	40.56
681.631	41.12
681.817	41.2
682.003	40.91
682.189	40.87
682.375	40.85
682.561	41
682.747	41.29
682.933	40.71
683.119	41.03
683.305	41.27
683.491	41.53
683.677	41.55
683.863	41.96
684.049	42.22
684.235	42.47
684.42	42.52
684.606	42.77
684.792	42.65
684.978	42.88
685.164	43.02
685.349	43.04
685.535	43.22
685.721	43.28
685.907	42.62
686.092	42.95
686.278	42.78
686.464	42.84
686.649	42.21
686.835	42.54
687.021	42.57
687.206	42.82
687.392	42.78
687.577	42.74
687.763	42.57
687.948	42.5
688.134	42.59
688.319	42.73
688.505	42.75
688.69	42.71
688.876	42.29
689.061	42.99
689.247	42.46
689.432	42.49
689.618	42.32
689.803	42.45
689.988	43.23
690.174	43.11
690.359	43.17
690.544	43.06
690.73	43.21
690.915	43.12
691.1	42.87
691.285	42.97
691.471	43.06
691.656	43.26
691.841	43.23
692.026	42.63
692.211	41.8
692.396	41.28
692.582	41.81
692.767	41.78
692.952	42.53
693.137	42.16
693.322	42.35
693.507	42.4
693.692	42.24
693.877	42.02
694.062	41.89
694.247	42.85
694.432	44.28
694.617	43.7
694.802	43.42
694.987	43.59
695.172	44.13
695.357	44.12
695.541	44.33
695.726	44.59
695.911	44.77
696.096	45.1
696.281	44.78
696.466	43.79
696.65	44.48
696.835	44.74
697.02	44.31
697.204	43.83
697.389	43.35
697.574	43.33
697.759	43.32
697.943	43.37
698.128	43.13
698.312	43.13
698.497	42.79
698.682	42.62
698.866	42.51
699.051	42.1
699.235	41.89
699.42	42.5
699.604	42.31
699.789	42.11
699.973	41.91
700.158	42.07
700.342	41.91
700.527	42.22
700.711	41.99
700.895	42.02
701.08	42.24
701.264	42.62
701.448	42.22
701.633	42.14
701.817	42.29
702.001	42.14
702.186	41.72
702.37	42.23
702.554	42
702.738	42.13
702.923	42.1
703.107	42
703.291	42.09
703.475	42.01
703.659	42.38
703.843	42.77
704.027	43.79
704.212	43.56
704.396	43.41
704.58	43.35
704.764	42.9
704.948	42.9
705.132	43.3
705.316	43.54
705.5	43.82
705.684	43.79
705.868	44.39
706.052	43.97
706.235	44.47
706.419	44
706.603	44.65
706.787	44.24
706.971	44.75
707.155	44.74
707.339	44.21
707.522	44.26
707.706	43.74
707.89	42.41
708.074	42.42
708.257	43.16
708.441	43.52
708.625	43.52
708.808	45.06
708.992	45.33
709.176	45.15
709.359	45.51
709.543	45.42
709.727	45.87
709.91	46.32
710.094	45.99
710.277	45.89
710.461	45.23
710.644	44.8
710.828	44.29
711.011	43.8
711.195	43.76
711.378	43.55
711.562	43.05
711.745	43.29
711.928	44.11
712.112	44.13
712.295	43.19
712.478	44.26
712.662	44.21
712.845	43.96
713.028	43.81
713.212	44.42
713.395	44.35
713.578	44.57
713.761	43.93
713.945	43.39
714.128	43.17
714.311	44.16
714.494	43.39
714.677	42.82
714.86	43.01
715.043	43.37
715.227	42.92
715.41	42.59
715.593	42.57
715.776	42.91
715.959	43.02
716.142	43.08
716.325	42.72
716.508	42.68
716.691	43.06
716.874	43.46
717.057	43.24
717.239	43.56
717.422	44.22
717.605	44.36
717.788	43.61
717.971	43.2
718.154	42.96
718.337	42.24
718.519	42.61
718.702	43.15
718.885	42.45
719.068	43.09
719.25	42.68
719.433	42.84
719.616	42.1
719.798	43.3
719.981	42.47
720.164	41.93
720.346	42.9
720.529	42.79
720.712	42.29
720.894	42.16
721.077	41.5
721.259	41.29
721.442	40.66
721.624	41.49
721.807	41.23
721.989	42.41
722.172	43.66
722.354	44.56
722.537	44.2
722.719	45.53
722.901	46.41
723.084	46.76
723.266	47.55
723.448	47.16
723.631	48.21
723.813	48.36
723.995	47.86
724.178	47.78
724.36	47.68
724.542	48.56
724.724	47.87
724.907	47.06
725.089	47.08
725.271	46.45
725.453	46.72
725.635	45.48
725.817	45.43
725.999	45.23
726.181	46.02
726.364	44.58
726.546	44.28
726.728	44.05
726.91	44
727.092	43.7
727.274	44.25
727.456	43.83
727.638	44.25
727.819	44.35
728.001	45
728.183	43.72
728.365	43.87
728.547	44.05
728.729	44.33
728.911	43.86
729.093	44.32
729.274	43.82
729.456	44.55
729.638	43.97
729.82	44.09
730.001	44.5
730.183	45.83
730.365	45.99
730.546	45.65
730.728	44.97
730.91	45.89
731.091	44.9
731.273	44.68
731.455	44.48
731.636	44.4
731.818	44.35
731.999	43.07
732.181	42.06
732.362	41.63
732.544	41.87
732.725	42.03
732.907	41.33
733.088	41.17
733.27	41.62
733.451	41.98
733.633	41.56
733.814	40.58
733.995	41.25
734.177	40.72
734.358	41.48
734.539	40.85
734.721	40.94
734.902	41.46
735.083	42.57
735.264	43.03
735.446	42.93
735.627	44.18
735.808	45.31
735.989	44.28
736.17	45.4
736.351	44.23
736.533	43.91
736.714	43.32
736.895	42.54
737.076	41.82
737.257	40.93
737.438	40.68
737.619	39.97
737.8	39.9
737.981	40.99
738.162	40.97
738.343	42.09
738.524	43.46
738.705	43.57
738.886	44.19
739.067	44.61
739.247	44.49
739.428	43.5
739.609	43.01
739.79	43.26
739.971	44.07
740.151	43.38
740.332	43.24
740.513	42.86
740.694	43.87
740.874	43.59
741.055	42.61
741.236	43.4
741.417	45.16
741.597	45.87
741.778	44.97
741.958	43.34
742.139	43.15
742.32	43.01
742.5	42.21
742.681	41.95
742.861	42.57
743.042	43.27
743.222	43.32
743.403	43.14
743.583	43.02
743.764	42.99
743.944	43.75
744.124	44.44
744.305	44.71
744.485	45.14
744.666	45.93
744.846	46.16
745.026	46.18
745.207	46.14
745.387	46.06
745.567	46.18
745.747	45.98
745.928	46.29
746.108	45.38
746.288	45.93
746.468	45.72
746.648	45.58
746.829	45.4
747.009	46.27
747.189	45.96
747.369	44.93
747.549	45.53
747.729	47.46
747.909	46.82
748.089	46.75
748.269	46.02
748.449	47.33
748.629	46.88
748.809	46.75
748.989	47.85
749.169	47.82
749.349	48.72
749.529	48.53
749.709	47.78
749.889	48.67
750.068	49.46
750.248	49.24
750.428	47.15
750.608	46.69
750.788	48.52
750.967	46.62
751.147	46.88
751.327	48.06
751.507	47.5
751.686	47.5
751.866	47.07
752.046	46.72
752.225	46.17
752.405	47.01
752.585	47.74
752.764	45.97
752.944	46.34
753.123	46.01
753.303	43.28
753.482	41.97
753.662	41.72
753.841	41.79
754.021	41.31
754.2	42.86
754.38	43.13
754.559	42.78
754.739	42.68
754.918	42.86
755.097	42.59
755.277	44.2
755.456	46.31
755.635	46.28
755.815	46.08
755.994	46.72
756.173	45.81
756.352	45.1
756.532	44.54
756.711	44.66
756.89	44.63
757.069	45.17
757.248	43.7
757.427	43.7
757.607	44.17
757.786	44.88
757.965	46.13
758.144	47.07
758.323	48.04
758.502	48.97
758.681	48.48
758.86	47.62
759.039	46.91
759.218	48.58
759.397	48.06
759.576	47.73
759.755	46.25
759.934	45.33
760.113	44.14
760.291	43.49
760.47	42.88
760.649	43.38
760.828	43.58
761.007	43.2
761.186	43.69
761.364	43.88
761.543	44.26
761.722	45.43
761.901	45.39
762.079	46.3
762.258	46.03
762.437	46.47
762.615	45.51
762.794	46.55
762.972	46.91
763.151	46.08
763.33	45.74
763.508	45.42
763.687	45.02
763.865	44.6
764.044	43.81
764.222	43.5
764.401	42.71
764.579	43.97
764.758	43.4
764.936	42.93
765.114	42.89
765.293	43.6
765.471	43.67
765.65	42.93
765.828	43.02
766.006	43.2
766.184	44.53
766.363	45.04
766.541	44.75
766.719	44.95
766.898	45.49
767.076	45.68
767.254	44.24
767.432	44.92
767.61	46.56
767.788	46.6
767.967	47.11
768.145	46.52
768.323	45.64
768.501	45.8
768.679	46.67
768.857	47.03
769.035	46.55
769.213	48.03
769.391	45.42
769.569	44.39
769.747	43.82
769.925	44.28
770.103	44.56
770.281	45.25
770.459	44.27
770.636	44.3
770.814	45.79
770.992	45.08
771.17	43.63
771.348	45.25
771.525	45.83
771.703	47.71
771.881	48.51
772.059	49.6
772.236	49.08
772.414	48.68
772.592	49.65
772.769	46.95
772.947	48.16
773.125	50.23
773.302	49.9
773.48	48.46
773.657	48.8
773.835	47.08
774.013	44.75
774.19	43.67
774.368	44.59
774.545	41.36
774.723	41.2
774.9	40.97
775.077	40.46
775.255	41.91
775.432	42.76
775.61	42.15
775.787	40.77
775.964	40.63
776.142	42.93
776.319	44.31
776.496	43.24
776.674	45.89
776.851	45.96
777.028	43.17
777.205	42.18
777.382	41.45
777.56	40.24
777.737	40.74
777.914	39.57
778.091	39.49
778.268	36.41
778.445	38.96
778.622	36.87
778.8	37.13
778.977	40.79
779.154	37.26
779.331	40.23
779.508	41.82
779.685	42.13
779.862	43.93
780.038	43.13
780.215	44.68
780.392	42
780.569	40.13
780.746	41.85
780.923	39.98
781.1	43.75
781.277	42.51
781.453	42.4
781.63	43.77
781.807	43.31
781.984	43.66
782.16	43.47
782.337	45.83
782.514	47.74
782.691	45.3
782.867	45.06
783.044	44.31
783.221	44.23
783.397	42.83
783.574	38.28
783.75	39.87
783.927	42.55
784.103	43.86
784.28	42.79
784.456	44.1
784.633	42.92
784.809	45.25
784.986	45.9
785.162	42.18
785.339	42.87
785.515	44.28
785.692	44.78
785.868	42.21
786.044	39.98
786.221	39.95
786.397	38.86
786.573	41.61
786.749	39.39
786.926	41.1
787.102	43.35
787.278	45.63
787.454	48.14
787.631	44.72
787.807	44.14
787.983	44.5
788.159	43.54
788.335	42.58
788.511	42.46
788.687	43.59
788.863	44.66
789.039	46.36
789.216	43.04
789.392	41.69
789.568	44.11
789.744	46.32
789.919	45.33
790.095	47.59
790.271	48.1
790.447	46.95
790.623	49.93
790.799	48.81
790.975	44.98
791.151	47.07
791.327	50.4
791.502	46.06
791.678	43.27
791.854	45.17
792.03	43.8
792.205	44.65
792.381	46.23
792.557	44.69
792.733	43.2
792.908	47.24
793.084	46.9
793.259	46.39
793.435	50.24
793.611	52.86
793.786	51.39
793.962	51.1
794.137	51.65
794.313	52.1
794.488	49.25
794.664	49.46
794.839	44.59
795.015	44.4
795.19	43.18
795.366	42.67
795.541	41.23
795.716	44.19
795.892	44.88
796.067	44.19
796.242	44.09
796.418	45.72
796.593	46.4
796.768	50.43
796.944	48.91
797.119	48.35
797.294	48.79
797.469	50.83
797.644	49.89
797.82	49.54
797.995	50.62
798.17	49.23
798.345	45.86
798.52	44.46
798.695	43.5
798.87	46.19
799.045	46.44
799.22	49.01
799.395	47.39
799.57	45.98
799.745	45.39
799.92	45.52
800.095	47.19
800.27	47.47
800.445	48.78
800.62	48.1
800.795	45.28
800.97	45.44
801.145	43.21
801.319	40.8
801.494	42.09
801.669	43.38
801.844	44.13
802.018	43.64
802.193	46.55
802.368	46.07
802.543	47.32
802.717	49.08
802.892	49.61
803.067	49.64
803.241	51.9
803.416	52.68
803.59	52.46
803.765	54.29
803.94	52.53
804.114	52.62
804.289	51.26
804.463	48.94
804.638	49.48
804.812	49.88
804.986	52.63
805.161	52.92
805.335	51.89
805.51	48.45
805.684	45.64
805.858	48.15
806.033	46.31
806.207	45.45
806.381	47.45
806.556	47.96
806.73	49.17
806.904	46.85
807.078	45.93
807.253	47.05
807.427	50.15
807.601	49.48
807.775	49.68
807.949	51.04
808.123	53.24
808.298	53.18
808.472	52.11
808.646	49.72
808.82	50.08
808.994	48.58
809.168	47.87
809.342	47.88
809.516	49.21
809.69	49.72
809.864	48.11
810.038	48.34
810.212	47.7
810.385	46.35
810.559	47.65
810.733	42.58
810.907	43.91
811.081	41.13
811.255	41.23
811.428	40.07
811.602	37.66
811.776	40.22
811.95	39.77
812.123	37.65
812.297	38.82
812.471	38.99
812.644	45.2
812.818	47.95
812.992	51.04
813.165	49.05
813.339	52.42
813.512	50.14
813.686	54.87
813.86	54.38
814.033	54.58
814.207	57.5
814.38	57.21
814.554	56.32
814.727	56.8
814.9	56.32
815.074	58.55
815.247	53.94
815.421	55.81
815.594	49.18
815.767	48.11
815.941	50.23
816.114	47.85
816.287	47.28
816.46	45.73
816.634	39.55
816.807	39.2
816.98	42.42
817.153	46.02
817.327	45.03
817.5	44.97
817.673	44.8
817.846	43.03
818.019	42.75
818.192	42.33
818.365	41.38
818.538	46.6
818.711	44.94
818.884	35.09
819.057	31.03
819.23	31.21
819.403	30.26
819.576	29.28
819.749	31.18
819.922	34.56
820.095	35.37
820.268	38.7
820.441	36.53
820.614	37.61
820.786	42.11
820.959	43.9
821.132	43.78
821.305	44.57
821.477	45.51
821.65	45.78
821.823	44.95
821.996	45.16
822.168	44.17
822.341	44.02
822.514	44.16
822.686	44.62
822.859	43.89
823.031	43.98
823.204	43.52
823.376	43.48
823.549	43.66
823.722	43.13
823.894	43.35
824.067	43.72
824.239	43.67
824.411	43.71
824.584	43.65
824.756	44.23
824.929	44.66
825.101	45.18
825.273	44.53
825.446	44.52
825.618	46.06
825.79	45.61
825.963	45.21
826.135	46.32
826.307	45.85
826.479	44.49
826.652	44.2
826.824	43.88
826.996	43.78
827.168	44.49
827.34	44.28
827.512	43.53
827.684	42.85
827.856	42.81
828.029	42.04
828.201	42.19
828.373	41.83
828.545	42.43
828.717	41.69
828.889	42.07
829.061	43.34
829.232	42.85
829.404	42.31
829.576	42.3
829.748	41.42
829.92	41.91
830.092	44.61
830.264	45.31
830.436	45.52
830.607	45.33
830.779	45.52
830.951	44.36
831.123	46.74
831.294	45.92
831.466	47.84
831.638	48.2
831.809	47.03
831.981	41.53
832.153	44.74
832.324	43.47
832.496	44.67
832.667	43.29
832.839	41.92
833.011	40.52
833.182	43.63
833.354	41.13
833.525	44.48
833.697	46.75
833.868	48.6
834.039	49.47
834.211	51.15
834.382	50.33
834.554	51.5
834.725	50.8
834.896	49.47
835.068	48.95
835.239	49.91
835.41	49.53
835.581	49.39
835.753	48.98
835.924	47.11
836.095	45.22
836.266	45.53
836.438	44.2
836.609	45.34
836.78	46.12
836.951	46.51
837.122	47.57
837.293	47.19
837.464	46.15
837.635	46.68
837.806	48.45
837.977	47.21
838.148	46.96
838.319	50.01
838.49	53.56
838.661	52.86
838.832	54.7
839.003	53.47
839.174	52.29
839.345	49.62
839.516	51.19
839.687	45.59
839.857	51.79
840.028	54.45
840.199	50.72
840.37	47.86
840.54	51.87
840.711	46.87
840.882	46.06
841.053	42.76
841.223	45.65
841.394	46.67
841.564	44.82
841.735	43
841.906	41.98
842.076	42.01
842.247	37.3
842.417	34.32
842.588	37.41
842.758	39.22
842.929	40.46
843.099	34.66
843.27	33.85
843.44	40.47
843.611	36
843.781	34.98
843.951	36.25
844.122	43.97
844.292	42.98
844.462	34.83
844.633	35.16
844.803	46.01
844.973	54.97
845.144	50.7
845.314	49.65
845.484	63.69
845.654	74.92
845.824	74.44
845.995	68.57
846.165	71.34
846.335	80.06
846.505	82.7
846.675	67.7
846.845	72.85
847.015	73.42
847.185	74.41
847.355	57.48
847.525	48.34
847.695	58.41
847.865	62.06
848.035	73.54
848.205	73.7
848.375	70.08
848.545	82.28
848.715	65.57
848.884	80.4
849.054	72.26
849.224	83.46
849.394	117.03
849.564	99.12
849.733	89.41
849.903	54.46
850.073	53.39
850.243	53.67
850.412	44.89
850.582	40.6
850.752	1.53
850.921	23.83
851.091	15.41
851.26	2.65
851.43	-0.47
851.599	-10.92
851.769	4.04
851.939	8.76
852.108	-9.46
852.278	11.35
852.447	-7.84
852.616	38
852.786	18.77
852.955	21.14
853.125	8.1
853.294	26.8
853.463	12.16
853.633	21.11
853.802	-2.24
853.971	1.4
854.141	-27.88
854.31	-13.57
854.479	-9.98
854.648	12.1
854.818	22.66
854.987	36.18
855.156	16.57
855.325	41.81
855.494	18.5
855.663	21.42
855.832	17.39
856.001	36.32
856.171	23.29
856.34	-5.79
856.509	-29.62
856.678	-23.72
856.847	-20.19
857.016	-42.66
857.185	-40.92
857.353	1.84
857.522	3.17
857.691	24.44
857.86	17.76
858.029	28.03
858.198	31.84
858.367	46.73
858.535	49.95
858.704	49.17
858.873	47.4
859.042	42.04
859.21	30.22
859.379	30.06
859.548	28.91
859.717	32.19
859.885	51.89
860.054	46.65
860.222	22.04
860.391	15
860.56	15.84
860.728	40.51
860.897	48.99
861.065	47.32
861.234	41.36
861.402	43.44
861.571	49.28
861.739	37.7
861.908	53.81
862.076	59.66
862.244	72.36
862.413	88.7
862.581	78.57
862.749	84.44
862.918	86.84
863.086	90.47
863.254	128.5
863.423	227.99
863.591	239.08
863.759	215.53
863.927	396.74
864.096	853.79
864.264	-53.63
864.432	-8.49
864.6	120.33
864.768	247.51
864.936	161.48
865.104	78.67
865.272	72.6
865.44	33.98
865.608	49.22
865.776	13.18
865.944	32.92
866.112	71.94
866.28	69.29
866.448	57.42
866.616	61.56
866.784	52.24
866.952	44.01
867.12	39.46
867.288	47.86
867.455	39
867.623	61.76
867.791	68.4
867.959	47.79
868.127	60.38
868.294	65.63
868.462	40.39
868.63	58.34
868.797	91.81
868.965	62.51
869.133	56.01
869.3	105.95
869.468	34.68
869.636	58.5
869.803	47.68
869.971	49.73
870.138	55.03
870.306	78.3
870.473	58.3
870.641	34.36
870.808	46.18
870.975	44.07
871.143	47.67
871.31	67.16
871.478	11.94
871.645	49.49
871.812	28.64
871.98	32.51
872.147	50.47
872.314	103.47
872.482	154.73
872.649	226.03
872.816	159.94
872.983	212.25
873.15	132.62
873.318	134.64
873.485	176.41
873.652	273.25
873.819	177
873.986	112.76
874.153	108.15
874.32	86.22
874.487	78.23
874.654	83.2
874.821	83.57
874.988	77
875.155	52.92
875.322	50.88
875.489	33.14
875.656	16.06
875.823	16.3
875.99	13.28
876.157	26.79
876.324	39.53
876.49	35.99
876.657	17.58
876.824	20.2
876.991	39.25
877.157	53.58
877.324	57.15
877.491	59.62
877.658	55.28
877.824	58.18
877.991	65.37
878.157	56.54
878.324	60.44
878.491	72.3
878.657	69.25
878.824	55.01
878.99	61.81
879.157	69.69
879.323	66.24
879.49	70.79
879.656	54.87
879.823	31.42
879.989	27.02
880.156	25.45
880.322	13.51
880.488	24.06
880.655	33.8
880.821	28.29
880.987	50.72
881.154	54.7
881.32	55.75
881.486	52.72
881.652	60.81
881.819	60.2
881.985	55.8
882.151	57.02
882.317	54.35
882.483	51.01
882.649	49.54
882.816	43.85
882.982	43.5
883.148	43.11
883.314	43.48
883.48	41.23
883.646	40.66
883.812	41.55
883.978	40.46
884.144	39.08
884.31	38.72
884.476	38.11
884.642	39.47
884.807	42.54
884.973	43.62
885.139	46.14
885.305	49.17
885.471	50.85
885.637	49.26
885.802	50.57
885.968	52.49
886.134	54.71
886.3	54.2
886.465	54.43
886.631	49.25
886.797	49.79
886.962	48.58
887.128	42.16
887.293	38.33
887.459	39.24
887.625	38.04
887.79	37.1
887.956	30.85
888.121	32.99
888.287	27.68
888.452	25.3
888.618	7.07
888.783	-21.83
