Data from CB_016_Reflection_3.txt Node
Date: Wed Nov 11 19:06:17 EST 2015
User: robert
Spectrometer: USB4E03001
Autoset integration time: false
Trigger mode: 4
Integration Time (sec): 1.000000E-1
Scans to average: 15
Electric dark correction enabled: true
Nonlinearity correction enabled: false
Boxcar width: 5
Stray light correction enabled: false
XAxis mode: Wavelengths
Stop averaging: false
Number of Pixels in Spectrum: 3648
>>>>>Begin Spectral Data<<<<<
177.566	-176.13
177.785	-413.34
178.005	-177.93
178.225	-1539.07
178.445	154.91
178.665	415.04
178.885	22.09
179.105	418.88
179.324	242.86
179.544	-118.56
179.764	-168.01
179.984	-216.48
180.204	444.13
180.423	-238.2
180.643	-414.33
180.863	1255.48
181.083	4905.79
181.302	473.09
181.522	-987.13
181.742	-465.31
181.961	509.63
182.181	203.63
182.401	228.42
182.621	1397.05
182.84	272.27
183.06	290.73
183.279	327.15
183.499	926.44
183.719	882.98
183.938	500.04
184.158	944.66
184.377	-999.33
184.597	-260.98
184.816	-244.88
185.036	-572.55
185.256	-183.07
185.475	660.8
185.695	-8526.44
185.914	312.63
186.134	196.29
186.353	327.59
186.572	471.98
186.792	311.18
187.011	256.55
187.231	238.38
187.45	308.2
187.67	278.68
187.889	2758.86
188.108	709.34
188.328	1122.13
188.547	-1019.41
188.766	-1316.67
188.986	470.53
189.205	-33600
189.424	822.98
189.644	4948.76
189.863	283.77
190.082	319.02
190.302	249.96
190.521	177.88
190.74	139.13
190.959	106.96
191.178	128.54
191.398	119.51
191.617	79.85
191.836	82.13
192.055	96.98
192.274	100.83
192.494	84.87
192.713	80.63
192.932	92.32
193.151	107.73
193.37	124.02
193.589	93.42
193.808	122.15
194.027	131.5
194.246	162.01
194.465	141.81
194.685	104.01
194.904	121.33
195.123	294.66
195.342	820.85
195.561	91.39
195.78	88.41
195.999	100.41
196.218	19.44
196.436	-67.14
196.655	-433.14
196.874	278.05
197.093	428.07
197.312	626.08
197.531	-71.42
197.75	-113.74
197.969	-54.32
198.188	-31.81
198.407	-64.72
198.625	-268.03
198.844	-225.04
199.063	-188.93
199.282	-155.26
199.501	-44.01
199.719	-47.15
199.938	-1582.42
200.157	269.24
200.376	139.47
200.594	221.27
200.813	-6522.86
201.032	467.09
201.251	258.66
201.469	265.02
201.688	246.61
201.907	195.87
202.125	119.24
202.344	101.96
202.563	118.56
202.781	151.35
203	101.86
203.218	72.51
203.437	71.67
203.656	5.27
203.874	12.7
204.093	36.33
204.311	51.32
204.53	45.11
204.748	4.17
204.967	-23.2
205.185	19.22
205.404	61.83
205.622	69.51
205.841	81.95
206.059	141.33
206.278	196.46
206.496	108.53
206.715	177.71
206.933	337.72
207.151	319.41
207.37	376.63
207.588	302.55
207.806	415.33
208.025	531.87
208.243	480.79
208.461	213.69
208.68	150.79
208.898	166.59
209.116	146.44
209.335	111.78
209.553	-121.51
209.771	147.91
209.989	-286.09
210.208	-93.01
210.426	-123.86
210.644	-38.65
210.862	-31.28
211.081	-96.61
211.299	-154.94
211.517	-359.03
211.735	-262.46
211.953	-481.82
212.171	-96.41
212.39	-1057.17
212.608	-2933.2
212.826	476.78
213.044	366.73
213.262	262.05
213.48	230.94
213.698	359.74
213.916	-1049.54
214.134	-362.73
214.352	-450
214.57	497.45
214.788	173.86
215.006	163.14
215.224	115.73
215.442	44.69
215.66	49.03
215.878	49.18
216.096	37.44
216.314	52.65
216.532	47.32
216.75	61.1
216.968	59.36
217.185	66.19
217.403	115.51
217.621	89.54
217.839	129.09
218.057	1820.1
218.275	-601.29
218.492	-5.74
218.71	43.07
218.928	55.44
219.146	43.11
219.363	26.52
219.581	8.06
219.799	56.63
220.017	15.02
220.234	-2.2
220.452	-4.5
220.67	-11.26
220.887	-83.46
221.105	-108.99
221.323	-124.63
221.54	-24.26
221.758	1.59
221.976	24.32
222.193	21.31
222.411	6.22
222.629	16.8
222.846	9.86
223.064	37.07
223.281	28.84
223.499	58.75
223.716	34.02
223.934	-114.15
224.151	-378.56
224.369	-270.35
224.586	138325
224.804	-533.76
225.021	-109.49
225.239	-154.97
225.456	-168.11
225.674	-169.08
225.891	-71.75
226.108	-90.43
226.326	-65.42
226.543	-50.46
226.76	-30.56
226.978	-8.3
227.195	-9.61
227.413	-17.28
227.63	-9.38
227.847	-5.52
228.064	-2.15
228.282	5.23
228.499	10.72
228.716	7.91
228.934	7.18
229.151	3.79
229.368	1.12
229.585	0.23
229.802	4.11
230.02	3.36
230.237	0.42
230.454	2.3
230.671	-0.46
230.888	-6.41
231.105	-2.27
231.323	-1.66
231.54	-0.13
231.757	-3.56
231.974	-2.62
232.191	-8.88
232.408	-6.8
232.625	-9.23
232.842	-12.61
233.059	-12.6
233.276	-4.49
233.493	-11.13
233.71	-6.79
233.927	-11.2
234.144	-2.25
234.361	-1.53
234.578	-0.33
234.795	-6.05
235.012	-9.38
235.229	-13.04
235.446	-16.79
235.663	-22.2
235.879	-12.87
236.096	-18.86
236.313	-18.31
236.53	-19.59
236.747	-15.2
236.964	-14.07
237.181	-18.19
237.397	-2.12
237.614	2.68
237.831	-1.69
238.048	-5.36
238.264	-16.7
238.481	-18.9
238.698	-15.97
238.915	-24.6
239.131	-35
239.348	-39.37
239.565	-27.74
239.781	-27.69
239.998	-23.86
240.215	-18.04
240.431	-8.91
240.648	-1.98
240.865	2.54
241.081	-0.01
241.298	3.07
241.514	4.94
241.731	5.83
241.947	3.98
242.164	3.74
242.38	3.59
242.597	2.55
242.814	1.34
243.03	0.09
243.246	1.33
243.463	4.15
243.679	3.83
243.896	5.28
244.112	3.81
244.329	4.31
244.545	4.39
244.762	3.9
244.978	6.79
245.194	3.72
245.411	4.12
245.627	-0.25
245.843	-0.82
246.06	3.47
246.276	4.69
246.492	5.85
246.709	6.51
246.925	5.58
247.141	5.68
247.357	5.26
247.574	6.86
247.79	7.2
248.006	8.21
248.222	8.39
248.439	6.75
248.655	6.3
248.871	6.32
249.087	7.14
249.303	7.28
249.519	7.61
249.736	5.39
249.952	4.03
250.168	1.08
250.384	-0.41
250.6	-1.36
250.816	-2.06
251.032	-3.18
251.248	-3.41
251.464	-5.98
251.68	-7.6
251.896	-5.91
252.112	-4.04
252.328	-1.51
252.544	-0.09
252.76	0.26
252.976	1.42
253.192	2.64
253.408	2.07
253.624	2.77
253.84	0.66
254.056	3.22
254.272	0.44
254.487	3.39
254.703	3.31
254.919	6.09
255.135	5.24
255.351	2.52
255.567	2.56
255.782	2.24
255.998	2.1
256.214	3.24
256.43	4.75
256.646	6.27
256.861	2.72
257.077	1.5
257.293	-1.56
257.508	1.73
257.724	3.08
257.94	2.62
258.155	3.13
258.371	3.64
258.587	4.31
258.802	1.39
259.018	1.72
259.234	2.76
259.449	2.54
259.665	2.43
259.88	1.33
260.096	0.88
260.312	1.42
260.527	1.74
260.743	1.28
260.958	1.26
261.174	2.69
261.389	2.24
261.605	1.91
261.82	2.68
262.036	2.75
262.251	3.14
262.466	3.51
262.682	0.27
262.897	-0.44
263.113	-0.73
263.328	-1.06
263.543	-2.46
263.759	-4.18
263.974	-5.05
264.189	-8.06
264.405	-7.38
264.62	-7.4
264.835	-8.24
265.051	-3.85
265.266	-4.62
265.481	-3.09
265.696	-4.65
265.912	-6.07
266.127	-4.6
266.342	-3.77
266.557	-4.25
266.773	-2.46
266.988	-3.08
267.203	-3.94
267.418	-4.87
267.633	-5.42
267.848	-7.34
268.064	-5.43
268.279	-4.15
268.494	-4.65
268.709	-4.44
268.924	-3.67
269.139	-5.3
269.354	-5.89
269.569	-2.3
269.784	-1.43
269.999	-0.54
270.214	1.19
270.429	-0.27
270.644	-0.88
270.859	-1.44
271.074	-0.72
271.289	0.18
271.504	1.44
271.719	1.35
271.934	0.27
272.149	-0.16
272.363	-0.19
272.578	0.24
272.793	2.22
273.008	3.39
273.223	5.22
273.438	5.43
273.653	5.5
273.867	4.98
274.082	4.81
274.297	4.94
274.512	5.18
274.726	6.45
274.941	4.91
275.156	3.9
275.371	1.87
275.585	0.12
275.8	-1.72
276.015	-2.59
276.229	-3.29
276.444	-1.17
276.659	-2.75
276.873	-3.63
277.088	-4.01
277.302	-2.82
277.517	-3.57
277.732	-3.75
277.946	-4.95
278.161	-5.52
278.375	-5.53
278.59	-4.17
278.804	-4.55
279.019	-2.42
279.233	0.29
279.448	-0.6
279.662	-0.69
279.877	0.16
280.091	0.8
280.306	3.26
280.52	4.89
280.735	4.07
280.949	4.06
281.163	4.77
281.378	3.53
281.592	3.88
281.806	3.19
282.021	2.43
282.235	1.89
282.449	3.48
282.664	3.23
282.878	2.64
283.092	4.5
283.307	3.12
283.521	2.93
283.735	5.23
283.949	3.4
284.164	3.73
284.378	4.3
284.592	4.8
284.806	4.59
285.02	4.49
285.234	4.7
285.449	4.79
285.663	4.8
285.877	4.28
286.091	3.51
286.305	3.7
286.519	4.48
286.733	4.96
286.947	4.33
287.161	4.2
287.375	3.83
287.589	3.93
287.803	3.78
288.017	4.3
288.231	4.59
288.445	4.67
288.659	4.04
288.873	4.23
289.087	3.35
289.301	4.37
289.515	4.46
289.729	3.63
289.943	3.34
290.157	2.71
290.371	2.21
290.584	3.15
290.798	2.31
291.012	3.17
291.226	3.85
291.44	3.31
291.654	3.07
291.867	3.56
292.081	3.88
292.295	5.52
292.509	6.05
292.722	7.4
292.936	5.58
293.15	6.39
293.364	6.59
293.577	4.76
293.791	5.54
294.005	5.14
294.218	5.85
294.432	6.89
294.645	6.15
294.859	5.43
295.073	5.14
295.286	5.87
295.5	5.85
295.713	5.76
295.927	6.53
296.14	6.53
296.354	6.1
296.568	4.03
296.781	4.31
296.994	3.31
297.208	2.93
297.421	4.25
297.635	4.59
297.848	4.69
298.062	5.26
298.275	4.08
298.489	3.86
298.702	5.15
298.915	6.7
299.129	5.57
299.342	6.62
299.555	7.34
299.769	5.93
299.982	5.35
300.195	6.34
300.409	5.17
300.622	5.94
300.835	6.32
301.048	5.26
301.262	5.17
301.475	7.04
301.688	6.47
301.901	7.47
302.115	6.88
302.328	7.44
302.541	5.44
302.754	5.73
302.967	5.13
303.18	5.33
303.393	6.29
303.607	5.69
303.82	5.03
304.033	5.92
304.246	5.2
304.459	5.24
304.672	4.6
304.885	5.24
305.098	5.24
305.311	6.9
305.524	6.01
305.737	4.3
305.95	5.17
306.163	6.75
306.376	7.32
306.589	6.4
306.802	7.1
307.015	6.82
307.228	5.49
307.44	6.88
307.653	6.78
307.866	8.2
308.079	9.16
308.292	8.67
308.505	8.28
308.718	8.03
308.93	8.38
309.143	9.51
309.356	9.83
309.569	10.42
309.781	9.92
309.994	8.52
310.207	9.01
310.42	9.14
310.632	8.58
310.845	8.32
311.058	7.62
311.27	7.96
311.483	7.25
311.696	7.25
311.908	7.49
312.121	6.85
312.333	7.38
312.546	6.91
312.759	6.23
312.971	5.62
313.184	4.23
313.396	4.41
313.609	5.46
313.821	5.02
314.034	6.43
314.246	6.93
314.459	6.74
314.671	7.09
314.884	7.43
315.096	8.54
315.309	9.46
315.521	9.36
315.733	8.61
315.946	8.27
316.158	8.48
316.371	6.65
316.583	6
316.795	6.76
317.008	6.9
317.22	6.87
317.432	6.2
317.644	5.16
317.857	6.38
318.069	7.12
318.281	5.52
318.494	5.07
318.706	5.62
318.918	6.02
319.13	5.39
319.342	5.69
319.555	4.79
319.767	3.99
319.979	5.35
320.191	5.29
320.403	4.51
320.615	4.95
320.827	6.38
321.039	6.49
321.252	6.69
321.464	8.18
321.676	7.87
321.888	7.52
322.1	8.83
322.312	9.76
322.524	10.87
322.736	12.65
322.948	12.21
323.16	12.01
323.372	12.48
323.584	12.01
323.796	11.14
324.007	10.83
324.219	10.89
324.431	11.03
324.643	10.03
324.855	9.56
325.067	8.64
325.279	9.52
325.491	9.27
325.702	9.28
325.914	10.29
326.126	10.72
326.338	11.41
326.55	13.24
326.761	14.04
326.973	15.47
327.185	15.04
327.396	15.06
327.608	16.56
327.82	18.26
328.032	18.4
328.243	18.09
328.455	18.71
328.666	19.62
328.878	19.16
329.09	18.19
329.301	17.08
329.513	18.1
329.725	19.89
329.936	18.99
330.148	17.42
330.359	17.94
330.571	18.29
330.782	19.09
330.994	19.5
331.205	19.41
331.417	20.52
331.628	21.38
331.84	23.41
332.051	23.16
332.262	23.18
332.474	23.8
332.685	25.09
332.897	26.12
333.108	25.66
333.319	25.77
333.531	26.17
333.742	26.23
333.953	27.46
334.165	25.99
334.376	25.52
334.587	26.42
334.799	27
335.01	26.24
335.221	26.8
335.432	28.01
335.644	27.89
335.855	28.53
336.066	28.95
336.277	28.64
336.488	29.65
336.7	29.99
336.911	30.89
337.122	31.87
337.333	32.37
337.544	32.68
337.755	32.24
337.966	32.42
338.177	32.38
338.388	32.67
338.599	33.25
338.811	33.3
339.022	33.71
339.233	32.22
339.444	31.85
339.655	33.03
339.866	32.69
340.076	32.8
340.287	33.83
340.498	35.46
340.709	34.81
340.92	34.72
341.131	34.08
341.342	34.74
341.553	34.58
341.764	33.92
341.975	32.58
342.185	32.37
342.396	32.35
342.607	31.83
342.818	29.48
343.029	30.36
343.239	30.04
343.45	31.12
343.661	30.95
343.872	32.03
344.082	31.36
344.293	31.49
344.504	31.92
344.714	31.81
344.925	31.78
345.136	32.11
345.346	32.51
345.557	32.89
345.768	32.28
345.978	32.77
346.189	32.77
346.399	34.36
346.61	34.95
346.821	34.45
347.031	34.24
347.242	34.01
347.452	34.41
347.663	33.51
347.873	32.74
348.084	32.39
348.294	31.31
348.504	30.77
348.715	30.12
348.925	30.21
349.136	29.5
349.346	30.34
349.557	30.21
349.767	30.25
349.977	30.47
350.188	30.97
350.398	31.56
350.608	31.71
350.819	32.3
351.029	31.8
351.239	31.5
351.449	32.25
351.66	31.55
351.87	31.6
352.08	31.58
352.29	31.83
352.501	31.59
352.711	31.21
352.921	30.81
353.131	30.69
353.341	31.58
353.552	31.28
353.762	31.56
353.972	32.16
354.182	33.28
354.392	33.26
354.602	33.33
354.812	32.75
355.022	33.12
355.232	32.95
355.442	32.9
355.652	32.51
355.862	33.36
356.072	32.79
356.282	32.01
356.492	30.94
356.702	31.08
356.912	30.67
357.122	30.44
357.332	30.14
357.542	30.62
357.752	30.55
357.962	30.75
358.171	30
358.381	30.12
358.591	31.52
358.801	31.32
359.011	31.23
359.221	31.08
359.43	31.56
359.64	32.07
359.85	32.87
360.06	32.88
360.269	32.82
360.479	33.07
360.689	33.33
360.899	32.31
361.108	32.74
361.318	32.68
361.528	33.29
361.737	33.13
361.947	32.68
362.156	31.69
362.366	31.76
362.576	31.64
362.785	31.39
362.995	31.71
363.204	31.58
363.414	31.36
363.623	31.47
363.833	31.12
364.042	31.17
364.252	31.56
364.461	32.45
364.671	32.13
364.88	31.9
365.09	31.5
365.299	30.82
365.509	31.04
365.718	31.03
365.927	30.69
366.137	30.38
366.346	30.28
366.555	29.62
366.765	28.85
366.974	28.76
367.183	28.31
367.393	28.46
367.602	28.66
367.811	28.47
368.021	28.06
368.23	28.36
368.439	28.36
368.648	28.34
368.857	28.09
369.067	27.62
369.276	27.8
369.485	28.12
369.694	27.51
369.903	27.12
370.112	27.03
370.321	26.69
370.531	25.75
370.74	24.85
370.949	24.58
371.158	24.61
371.367	24.82
371.576	24.84
371.785	24.74
371.994	24.81
372.203	24.52
372.412	24.34
372.621	24.86
372.83	25.36
373.039	25.6
373.248	25.86
373.457	25.91
373.666	26.33
373.874	26.29
374.083	26.47
374.292	27.18
374.501	27.06
374.71	26.57
374.919	26.35
375.128	26.15
375.336	26.45
375.545	25.92
375.754	26.09
375.963	25.28
376.171	24.75
376.38	24.36
376.589	24.15
376.798	24.16
377.006	24.23
377.215	23.98
377.424	24.13
377.632	23.95
377.841	24.34
378.05	23.47
378.258	23.47
378.467	23.47
378.675	22.94
378.884	22.43
379.093	22.32
379.301	22.58
379.51	22.66
379.718	22.41
379.927	22.34
380.135	22.06
380.344	22.68
380.552	23.25
380.761	23.23
380.969	23.47
381.177	23.75
381.386	23.77
381.594	23.23
381.803	23.03
382.011	22.86
382.219	22.79
382.428	22.58
382.636	22.78
382.845	22.06
383.053	21.78
383.261	21.61
383.469	21.61
383.678	21.91
383.886	21.93
384.094	22.19
384.302	22.18
384.511	21.99
384.719	22.04
384.927	22.03
385.135	22.26
385.343	21.9
385.552	22.07
385.76	21.69
385.968	21.35
386.176	21.64
386.384	20.98
386.592	20.73
386.8	20.53
387.008	20.16
387.216	19.75
387.424	19.58
387.633	20.08
387.841	19.79
388.049	19.29
388.257	19.33
388.465	18.88
388.672	19.21
388.88	19.34
389.088	19.36
389.296	19.8
389.504	19.73
389.712	19.55
389.92	19.36
390.128	19.27
390.336	19.32
390.544	19.07
390.751	18.76
390.959	17.99
391.167	18.21
391.375	18.14
391.583	17.85
391.79	17.44
391.998	17.44
392.206	17.1
392.414	17.17
392.621	17.4
392.829	17.69
393.037	17.64
393.244	17.97
393.452	17.46
393.66	17.73
393.867	17.55
394.075	17.97
394.283	17.71
394.49	17.87
394.698	17.98
394.905	17.75
395.113	17.34
395.32	17.56
395.528	17.49
395.735	17.91
395.943	17.35
396.15	17.4
396.358	17.19
396.565	17.49
396.773	17.49
396.98	17.26
397.188	17.45
397.395	17.47
397.602	17.25
397.81	17.14
398.017	16.86
398.225	16.98
398.432	16.92
398.639	17.1
398.847	17.15
399.054	16.68
399.261	16.51
399.468	16.54
399.676	16.53
399.883	16.5
400.09	16.82
400.297	16.57
400.505	16.56
400.712	16.64
400.919	16.45
401.126	16.12
401.333	16.49
401.54	16.83
401.748	16.58
401.955	16.33
402.162	16.63
402.369	16.57
402.576	16.66
402.783	16.96
402.99	16.97
403.197	17.07
403.404	16.85
403.611	16.7
403.818	16.52
404.025	16.56
404.232	16.71
404.439	16.71
404.646	16.45
404.853	16.4
405.06	16.2
405.267	16.25
405.474	16.07
405.681	16.32
405.887	16.2
406.094	16.27
406.301	16.29
406.508	16.34
406.715	16.24
406.922	16.34
407.128	16.17
407.335	15.97
407.542	15.82
407.749	15.84
407.955	15.86
408.162	16.34
408.369	16.27
408.575	16.22
408.782	16.09
408.989	16.21
409.195	16.47
409.402	16.59
409.609	16.74
409.815	16.67
410.022	16.52
410.228	16.31
410.435	16.04
410.642	15.94
410.848	15.7
411.055	15.64
411.261	15.32
411.468	15.38
411.674	15.32
411.881	15.42
412.087	15.62
412.294	15.95
412.5	15.94
412.706	15.96
412.913	15.67
413.119	15.99
413.326	16.03
413.532	16.17
413.738	16.13
413.945	16.07
414.151	15.82
414.357	15.46
414.564	15.4
414.77	15.51
414.976	15.4
415.182	15.53
415.389	15.38
415.595	15.42
415.801	15.62
416.007	15.33
416.214	15.21
416.42	15.18
416.626	15.32
416.832	15.12
417.038	14.89
417.244	14.97
417.45	14.99
417.657	14.95
417.863	14.96
418.069	14.61
418.275	14.63
418.481	14.66
418.687	14.69
418.893	14.68
419.099	14.76
419.305	14.86
419.511	14.86
419.717	15.13
419.923	15.17
420.129	15.1
420.335	15.1
420.541	14.99
420.746	15.13
420.952	15.05
421.158	15.04
421.364	14.86
421.57	14.78
421.776	14.65
421.982	14.44
422.187	14.38
422.393	14.29
422.599	14.34
422.805	14.4
423.01	14.36
423.216	14.37
423.422	14.19
423.628	14.42
423.833	14.52
424.039	14.67
424.245	14.63
424.45	14.79
424.656	14.74
424.862	14.69
425.067	14.76
425.273	14.74
425.478	14.87
425.684	14.94
425.889	14.82
426.095	14.78
426.301	14.65
426.506	14.71
426.712	14.56
426.917	14.92
427.123	15.08
427.328	14.85
427.533	14.86
427.739	14.72
427.944	14.65
428.15	14.49
428.355	14.65
428.561	14.73
428.766	14.6
428.971	14.51
429.177	14.43
429.382	14.33
429.587	14.47
429.793	14.18
429.998	14.25
430.203	14.45
430.408	14.43
430.614	14.33
430.819	14.39
431.024	14.34
431.229	14.43
431.434	14.1
431.64	13.91
431.845	13.96
432.05	14.34
432.255	14.1
432.46	14.1
432.665	14.12
432.87	14.23
433.076	14.41
433.281	14.41
433.486	14.34
433.691	14.5
433.896	14.51
434.101	14.55
434.306	14.51
434.511	14.44
434.716	14.33
434.921	14.42
435.126	14.14
435.331	13.71
435.535	13.71
435.74	13.8
435.945	13.79
436.15	14.03
436.355	13.96
436.56	13.8
436.765	13.86
436.97	13.99
437.174	14.03
437.379	14.2
437.584	14.27
437.789	14.25
437.993	14.2
438.198	14.24
438.403	14.31
438.608	14.32
438.812	14.35
439.017	14.45
439.222	14.55
439.426	14.61
439.631	14.59
439.836	14.67
440.04	14.84
440.245	14.85
440.45	14.74
440.654	14.73
440.859	14.73
441.063	14.55
441.268	14.46
441.472	14.32
441.677	14.17
441.881	14.04
442.086	13.98
442.29	14
442.495	13.97
442.699	13.87
442.904	13.7
443.108	13.6
443.312	13.88
443.517	13.95
443.721	14.06
443.925	14.12
444.13	14.4
444.334	14.54
444.538	14.41
444.743	14.34
444.947	14.4
445.151	14.39
445.356	14.55
445.56	14.47
445.764	14.48
445.968	14.41
446.173	14.3
446.377	14.12
446.581	14.14
446.785	14.15
446.989	14.25
447.193	14.21
447.398	14.32
447.602	14.25
447.806	14.34
448.01	14.32
448.214	14.29
448.418	14.41
448.622	14.52
448.826	14.4
449.03	14.44
449.234	14.39
449.438	14.41
449.642	14.3
449.846	14.29
450.05	14.07
450.254	14.13
450.458	14.15
450.662	14.16
450.866	14.02
451.069	13.97
451.273	13.98
451.477	14.04
451.681	14
451.885	14.02
452.089	13.91
452.292	14.04
452.496	14.12
452.7	14.08
452.904	14.08
453.107	14.14
453.311	14.09
453.515	14.05
453.719	13.9
453.922	13.73
454.126	13.74
454.33	13.93
454.533	13.88
454.737	13.78
454.94	13.69
455.144	13.61
455.348	13.57
455.551	13.58
455.755	13.49
455.958	13.53
456.162	13.68
456.365	13.46
456.569	13.33
456.772	13.28
456.976	13.14
457.179	13.31
457.383	13.43
457.586	13.36
457.79	13.53
457.993	13.54
458.196	13.39
458.4	13.35
458.603	13.48
458.807	13.58
459.01	13.6
459.213	13.66
459.417	13.55
459.62	13.57
459.823	13.61
460.026	13.5
460.23	13.49
460.433	13.66
460.636	13.73
460.839	13.77
461.042	13.65
461.246	13.68
461.449	13.72
461.652	13.69
461.855	13.57
462.058	13.49
462.261	13.49
462.464	13.69
462.668	13.78
462.871	13.74
463.074	13.65
463.277	13.86
463.48	13.77
463.683	13.81
463.886	14.02
464.089	14.02
464.292	14.1
464.495	14.05
464.698	13.96
464.901	13.78
465.104	13.9
465.306	13.87
465.509	13.68
465.712	13.67
465.915	13.59
466.118	13.59
466.321	13.55
466.524	13.57
466.726	13.8
466.929	13.58
467.132	13.52
467.335	13.57
467.538	13.5
467.74	13.54
467.943	13.79
468.146	13.9
468.348	13.84
468.551	13.99
468.754	14.26
468.956	14.13
469.159	14.3
469.362	14.34
469.564	14.35
469.767	14.47
469.969	14.57
470.172	14.43
470.375	14.36
470.577	14.19
470.78	13.99
470.982	13.81
471.185	13.81
471.387	13.85
471.59	13.95
471.792	13.86
471.995	13.87
472.197	13.89
472.399	13.86
472.602	13.88
472.804	14.1
473.007	14.22
473.209	14.15
473.411	14.11
473.614	13.94
473.816	13.82
474.018	14.04
474.22	14.08
474.423	14.09
474.625	14.05
474.827	14.14
475.03	13.96
475.232	13.87
475.434	13.87
475.636	14.02
475.838	14.18
476.04	14.37
476.243	14.34
476.445	14.34
476.647	14.23
476.849	14.31
477.051	14.2
477.253	14.38
477.455	14.48
477.657	14.6
477.859	14.61
478.061	14.53
478.263	14.49
478.465	14.25
478.667	14.28
478.869	14.37
479.071	14.39
479.273	14.43
479.475	14.34
479.677	14.25
479.879	14.17
480.081	14.13
480.283	14.11
480.485	14.26
480.686	14.19
480.888	14.15
481.09	14.09
481.292	14.11
481.494	14.11
481.695	14.01
481.897	14.14
482.099	14.15
482.301	14.15
482.502	14.17
482.704	13.96
482.906	14.08
483.107	14.04
483.309	14.08
483.511	14.02
483.712	14.04
483.914	14.03
484.115	14
484.317	13.94
484.519	13.89
484.72	13.85
484.922	13.89
485.123	13.87
485.325	13.9
485.526	13.86
485.728	13.89
485.929	13.9
486.131	13.96
486.332	13.89
486.534	13.98
486.735	14.01
486.936	14.08
487.138	14.08
487.339	14.08
487.541	14
487.742	14.01
487.943	13.97
488.144	13.93
488.346	13.99
488.547	14.1
488.748	14.11
488.95	14.03
489.151	14.01
489.352	13.99
489.553	13.98
489.755	14.1
489.956	14.06
490.157	14.15
490.358	14.22
490.559	14.15
490.76	14.09
490.961	14.04
491.163	14.11
491.364	14.16
491.565	14.16
491.766	14.2
491.967	14.13
492.168	14.21
492.369	14.16
492.57	14.07
492.771	14.02
492.972	14.03
493.173	14.04
493.374	14.15
493.575	14.06
493.776	14.04
493.976	13.98
494.177	13.98
494.378	14.04
494.579	13.93
494.78	14.17
494.981	14.29
495.182	14.3
495.382	14.23
495.583	14.23
495.784	14.44
495.985	14.61
496.185	14.73
496.386	14.59
496.587	14.42
496.788	14.34
496.988	14.22
497.189	14.26
497.39	14.19
497.59	14.31
497.791	14.19
497.992	14.13
498.192	14.13
498.393	14.15
498.593	14.35
498.794	14.47
498.994	14.7
499.195	14.77
499.395	14.81
499.596	14.96
499.796	14.95
499.997	14.97
500.197	14.89
500.398	14.82
500.598	14.87
500.799	14.76
500.999	14.69
501.199	14.97
501.4	14.79
501.6	14.84
501.801	14.88
502.001	14.81
502.201	14.85
502.402	15.01
502.602	15.02
502.802	15.05
503.002	15.2
503.203	15.26
503.403	15.02
503.603	15.27
503.803	15.27
504.003	15.26
504.204	15.42
504.404	15.68
504.604	15.72
504.804	15.69
505.004	15.56
505.204	15.6
505.404	15.6
505.604	15.58
505.804	15.64
506.005	15.5
506.205	15.47
506.405	15.44
506.605	15.39
506.805	15.44
507.005	15.38
507.204	15.52
507.404	15.52
507.604	15.59
507.804	15.72
508.004	15.91
508.204	15.93
508.404	16
508.604	15.97
508.804	15.88
509.003	15.91
509.203	16.16
509.403	16.17
509.603	16.37
509.803	16.48
510.002	16.65
510.202	16.57
510.402	16.81
510.602	16.91
510.801	17.13
511.001	17.3
511.201	17.28
511.4	17.27
511.6	17.41
511.8	17.32
511.999	17.1
512.199	17.06
512.398	17.18
512.598	17.04
512.797	17.09
512.997	16.97
513.197	16.99
513.396	17.21
513.596	17.38
513.795	17.42
513.994	17.45
514.194	17.83
514.393	18.09
514.593	18.01
514.792	18.23
514.992	18.53
515.191	18.84
515.39	18.88
515.59	18.96
515.789	19.08
515.988	19.12
516.188	19.34
516.387	19.25
516.586	19.14
516.786	19.25
516.985	19.43
517.184	19.29
517.383	19.27
517.582	19.41
517.782	19.43
517.981	19.59
518.18	19.61
518.379	19.61
518.578	19.77
518.777	19.88
518.976	20.04
519.176	20.07
519.375	20.15
519.574	20.2
519.773	20.33
519.972	20.36
520.171	20.35
520.37	20.51
520.569	20.6
520.768	20.7
520.967	20.71
521.166	20.78
521.365	20.87
521.564	21
521.762	21.04
521.961	21.05
522.16	21.24
522.359	21.34
522.558	21.54
522.757	21.77
522.956	21.81
523.154	21.95
523.353	22.1
523.552	22.13
523.751	22.32
523.949	22.55
524.148	22.83
524.347	23
524.546	23.15
524.744	23.19
524.943	23.29
525.142	23.42
525.34	23.64
525.539	23.61
525.737	23.76
525.936	23.88
526.135	23.86
526.333	23.92
526.532	24.02
526.73	24
526.929	24.05
527.127	24.18
527.326	24.33
527.524	24.3
527.723	24.5
527.921	24.6
528.12	24.66
528.318	24.81
528.516	24.94
528.715	25.01
528.913	25.05
529.112	25.08
529.31	25.13
529.508	25.13
529.707	25.2
529.905	25.19
530.103	25.23
530.301	25.21
530.5	25.27
530.698	25.24
530.896	25.17
531.094	25.35
531.293	25.6
531.491	25.59
531.689	25.7
531.887	25.93
532.085	26.18
532.283	26.3
532.481	26.53
532.68	26.62
532.878	26.64
533.076	26.85
533.274	26.9
533.472	26.92
533.67	27.04
533.868	27.17
534.066	27.15
534.264	27.14
534.462	27.25
534.66	27.33
534.858	27.37
535.056	27.54
535.253	27.57
535.451	27.68
535.649	27.85
535.847	28.05
536.045	28.13
536.243	28.32
536.441	28.43
536.638	28.44
536.836	28.45
537.034	28.59
537.232	28.65
537.43	28.68
537.627	28.7
537.825	28.75
538.023	28.82
538.22	29.02
538.418	28.99
538.616	29.03
538.813	29.19
539.011	29.34
539.209	29.42
539.406	29.57
539.604	29.84
539.801	29.95
539.999	29.89
540.196	29.87
540.394	29.9
540.591	30.05
540.789	30.07
540.986	30.14
541.184	30.22
541.381	30.31
541.579	30.24
541.776	30.21
541.974	30.28
542.171	30.37
542.368	30.51
542.566	30.5
542.763	30.59
542.96	30.7
543.158	30.69
543.355	30.62
543.552	30.61
543.75	30.68
543.947	30.78
544.144	30.77
544.341	30.77
544.539	30.79
544.736	30.85
544.933	30.71
545.13	30.8
545.327	30.75
545.524	30.8
545.722	30.79
545.919	30.99
546.116	31.07
546.313	31.25
546.51	31.34
546.707	31.41
546.904	31.59
547.101	31.82
547.298	31.7
547.495	31.99
547.692	32.16
547.889	32.31
548.086	32.37
548.283	32.51
548.48	32.58
548.677	32.58
548.874	32.63
549.07	32.55
549.267	32.58
549.464	32.74
549.661	32.61
549.858	32.71
550.055	32.76
550.251	32.71
550.448	32.68
550.645	32.71
550.842	32.81
551.038	32.88
551.235	32.9
551.432	33.01
551.628	33.12
551.825	33.27
552.022	33.53
552.218	33.67
552.415	33.88
552.612	33.78
552.808	33.96
553.005	34.01
553.201	33.94
553.398	34.07
553.594	34.02
553.791	34.15
553.987	34.26
554.184	34.26
554.38	34.36
554.577	34.23
554.773	34.4
554.97	34.22
555.166	34.35
555.362	34.43
555.559	34.68
555.755	34.67
555.952	34.86
556.148	34.98
556.344	34.84
556.541	34.83
556.737	34.99
556.933	34.73
557.129	34.76
557.326	34.87
557.522	34.72
557.718	34.55
557.914	34.73
558.11	34.65
558.307	34.64
558.503	34.8
558.699	34.77
558.895	34.87
559.091	35.13
559.287	35.49
559.483	35.41
559.679	35.72
559.876	35.64
560.072	35.69
560.268	35.62
560.464	35.47
560.66	35.54
560.856	35.68
561.052	35.92
561.247	36.3
561.443	36.12
561.639	36.26
561.835	36.38
562.031	36.56
562.227	36.57
562.423	36.56
562.619	36.73
562.815	36.75
563.01	36.78
563.206	36.68
563.402	36.38
563.598	36.46
563.793	36.44
563.989	36.37
564.185	36.53
564.381	36.49
564.576	36.9
564.772	37.13
564.968	37.04
565.163	37.07
565.359	36.99
565.555	37.16
565.75	37.33
565.946	37.38
566.141	37.47
566.337	37.44
566.532	37.51
566.728	37.3
566.923	37.19
567.119	37.19
567.314	37.23
567.51	37.37
567.705	37.28
567.901	37.23
568.096	37.41
568.292	37.39
568.487	37.57
568.682	37.72
568.878	37.92
569.073	37.87
569.268	37.94
569.464	38
569.659	38.01
569.854	38.1
570.05	38.15
570.245	37.95
570.44	38
570.635	37.91
570.831	37.88
571.026	37.99
571.221	38.06
571.416	38.1
571.611	38.2
571.806	38.26
572.002	38.4
572.197	38.36
572.392	38.47
572.587	38.47
572.782	38.46
572.977	38.68
573.172	38.5
573.367	38.61
573.562	38.8
573.757	38.66
573.952	38.71
574.147	38.53
574.342	38.64
574.537	38.68
574.732	38.77
574.927	38.67
575.121	38.56
575.316	38.86
575.511	38.92
575.706	38.68
575.901	38.73
576.096	38.64
576.29	38.72
576.485	38.71
576.68	38.58
576.875	38.39
577.069	38.58
577.264	38.37
577.459	37.88
577.654	38.02
577.848	38.34
578.043	38.38
578.238	38.43
578.432	38.46
578.627	38.59
578.821	38.79
579.016	39.19
579.21	39.02
579.405	39.17
579.6	39.46
579.794	39.3
579.989	38.89
580.183	38.9
580.378	39.1
580.572	39.26
580.766	39.21
580.961	39.27
581.155	39.15
581.35	38.97
581.544	39.02
581.738	39.14
581.933	38.91
582.127	39.17
582.321	39.52
582.516	39.33
582.71	39.19
582.904	39.19
583.099	39.27
583.293	39.36
583.487	39.77
583.681	39.48
583.875	39.42
584.07	39.43
584.264	39.45
584.458	39.58
584.652	39.81
584.846	39.76
585.04	39.68
585.234	39.29
585.428	39.32
585.623	39.24
585.817	39.62
586.011	39.73
586.205	39.79
586.399	39.92
586.593	39.64
586.787	39.32
586.981	39.39
587.174	39.62
587.368	39.88
587.562	39.82
587.756	39.95
587.95	40.18
588.144	39.97
588.338	40.12
588.532	40.27
588.725	40.31
588.919	40.61
589.113	40.74
589.307	40.4
589.501	40.44
589.694	40.41
589.888	40.53
590.082	40.21
590.275	40.3
590.469	40.36
590.663	40.61
590.856	40.24
591.05	40.24
591.244	40.16
591.437	40.46
591.631	40.52
591.824	40.5
592.018	40.43
592.212	40.63
592.405	40.55
592.599	40.76
592.792	40.26
592.986	40.7
593.179	40.59
593.372	40.83
593.566	40.78
593.759	40.9
593.953	41.01
594.146	41.24
594.339	41.25
594.533	41.36
594.726	41.31
594.92	41.78
595.113	41.56
595.306	41.84
595.499	41.73
595.693	41.7
595.886	41.68
596.079	41.96
596.272	41.91
596.466	42.1
596.659	42.15
596.852	42
597.045	41.82
597.238	41.87
597.431	41.48
597.624	41.51
597.818	41.54
598.011	41.4
598.204	41.18
598.397	41.01
598.59	40.88
598.783	40.83
598.976	40.88
599.169	40.83
599.362	41.1
599.555	41.55
599.748	41.79
599.941	41.76
600.134	41.92
600.326	41.87
600.519	42.03
600.712	41.9
600.905	41.96
601.098	41.89
601.291	41.76
601.483	41.58
601.676	41.55
601.869	41.5
602.062	41.36
602.255	41.49
602.447	41.44
602.64	41.37
602.833	41.56
603.025	41.76
603.218	42.13
603.411	42.21
603.603	42.21
603.796	42.08
603.989	42.19
604.181	42.47
604.374	42.54
604.566	42.74
604.759	42.77
604.951	42.77
605.144	42.65
605.336	42.38
605.529	42.58
605.721	42.66
605.914	42.69
606.106	42.58
606.299	42.61
606.491	42.53
606.683	42.39
606.876	42.29
607.068	42.18
607.26	42.3
607.453	42.45
607.645	42.23
607.837	41.94
608.03	42.26
608.222	42.37
608.414	42.15
608.606	41.89
608.799	42.1
608.991	42.25
609.183	42.13
609.375	42.09
609.567	41.98
609.759	41.96
609.952	42.08
610.144	41.68
610.336	41.18
610.528	41.28
610.72	41.36
610.912	41.02
611.104	40.85
611.296	41.01
611.488	40.61
611.68	40.82
611.872	40.84
612.064	40.72
612.256	40.9
612.448	41.24
612.64	41.12
612.832	40.91
613.023	41.2
613.215	40.89
613.407	40.66
613.599	40.78
613.791	40.53
613.983	40.65
614.174	40.71
614.366	40.56
614.558	40.78
614.75	40.78
614.941	41.55
615.133	41.42
615.325	41.86
615.516	42.02
615.708	42.08
615.9	42.17
616.091	41.97
616.283	42.15
616.475	41.93
616.666	41.82
616.858	41.83
617.049	41.47
617.241	41.32
617.432	41.49
617.624	41.45
617.815	41.74
618.007	41.83
618.198	42.26
618.39	42.29
618.581	42.85
618.773	42.71
618.964	42.93
619.155	42.96
619.347	43.43
619.538	43.41
619.729	43.76
619.921	43.76
620.112	43.46
620.303	43.39
620.494	43.35
620.686	42.97
620.877	43.19
621.068	42.97
621.259	43.03
621.451	42.75
621.642	42.53
621.833	42.3
622.024	42.54
622.215	42.51
622.406	42.02
622.597	42.23
622.788	42.46
622.98	42.13
623.171	42.16
623.362	42.05
623.553	42.32
623.744	42.41
623.935	42.38
624.126	42.2
624.317	42.35
624.508	42.58
624.698	42.65
624.889	42.89
625.08	42.98
625.271	43.31
625.462	42.97
625.653	42.67
625.844	42.6
626.034	42.63
626.225	42.64
626.416	42.66
626.607	42.81
626.798	42.7
626.988	42.65
627.179	42.68
627.37	42.77
627.56	42.95
627.751	43.1
627.942	43.26
628.132	43.42
628.323	43.2
628.514	43.37
628.704	43.2
628.895	43.13
629.085	43
629.276	43.04
629.466	42.63
629.657	42.66
629.847	42.65
630.038	42.75
630.228	42.44
630.419	42.51
630.609	42.27
630.8	42.24
630.99	42.53
631.181	42.77
631.371	43.06
631.561	43.12
631.752	43.21
631.942	43.11
632.132	43.11
632.323	43.72
632.513	43.91
632.703	44.15
632.893	44.06
633.084	43.83
633.274	43.71
633.464	43.29
633.654	43.21
633.844	43.28
634.034	43.25
634.225	43.22
634.415	42.74
634.605	42.91
634.795	42.82
634.985	43.27
635.175	43.47
635.365	43.43
635.555	43.66
635.745	43.83
635.935	43.57
636.125	43.67
636.315	43.64
636.505	43.8
636.695	43.69
636.885	43.8
637.075	43.22
637.265	42.9
637.455	42.87
637.644	42.68
637.834	42.58
638.024	43.02
638.214	42.93
638.404	43.13
638.593	42.82
638.783	42.85
638.973	42.73
639.163	43.23
639.352	43.43
639.542	43.55
639.732	43.54
639.921	43.98
640.111	44.01
640.301	44.22
640.49	43.92
640.68	44.05
640.87	43.97
641.059	44.62
641.249	44.33
641.438	44.31
641.628	44.34
641.817	44.48
642.007	44.15
642.196	44.08
642.386	43.88
642.575	44.1
642.764	44.46
642.954	44.69
643.143	44.19
643.333	44.18
643.522	43.91
643.711	43.47
643.901	43.74
644.09	43.9
644.279	43.74
644.469	44.07
644.658	44.22
644.847	43.62
645.036	43.52
645.226	43.47
645.415	43.69
645.604	44.07
645.793	44.53
645.982	44.49
646.171	44.33
646.361	44.36
646.55	43.94
646.739	43.28
646.928	43.86
647.117	43.78
647.306	43.92
647.495	44.25
647.684	44.02
647.873	44.1
648.062	43.91
648.251	43.86
648.44	43.63
648.629	43.97
648.818	44.14
649.007	43.92
649.196	43.6
649.384	43.7
649.573	43.24
649.762	43.48
649.951	43.11
650.14	43.06
650.328	43.23
650.517	43.57
650.706	43.44
650.895	43.55
651.083	43.44
651.272	44
651.461	43.86
651.65	43.76
651.838	43.63
652.027	43.84
652.216	44.17
652.404	44.31
652.593	44.36
652.781	44.64
652.97	44.29
653.158	44.23
653.347	43.86
653.535	43.94
653.724	43.97
653.912	43.94
654.101	44.12
654.289	43.92
654.478	43.93
654.666	43.42
654.855	43.25
655.043	43.86
655.231	44.56
655.42	44.57
655.608	44.1
655.796	43.97
655.985	44.04
656.173	43.93
656.361	43.72
656.55	43.67
656.738	43.83
656.926	43.97
657.114	43.79
657.302	43.52
657.491	43.5
657.679	43.67
657.867	44.03
658.055	44.1
658.243	44.27
658.431	44.25
658.619	44.22
658.807	44.15
658.996	43.79
659.184	43.68
659.372	43.67
659.56	44.12
659.748	44.5
659.936	44.33
660.124	44.06
660.311	44.04
660.499	44.33
660.687	44.53
660.875	44.8
661.063	45.07
661.251	44.93
661.439	44.75
661.627	44.31
661.814	43.84
662.002	43.57
662.19	43.63
662.378	43.55
662.565	43.36
662.753	43.04
662.941	43.1
663.129	43.21
663.316	43.38
663.504	43.56
663.692	43.4
663.879	43.62
664.067	44.24
664.254	44.91
664.442	45.02
664.63	44.64
664.817	44.67
665.005	44.69
665.192	44.42
665.38	44.71
665.567	44.76
665.755	44.7
665.942	45.12
666.13	45.11
666.317	44.76
666.504	44.74
666.692	45
666.879	45.36
667.067	45.39
667.254	45.64
667.441	45.3
667.629	45.23
667.816	45.5
668.003	44.84
668.19	44.63
668.378	44.72
668.565	44.52
668.752	44.87
668.939	45.13
669.127	45.05
669.314	44.9
669.501	44.99
669.688	44.55
669.875	44.58
670.062	44.94
670.249	44.69
670.436	44.59
670.623	44.59
670.81	44.29
670.997	43.7
671.184	43.9
671.371	43.61
671.558	43.86
671.745	44.41
671.932	44.45
672.119	44.5
672.306	45.15
672.493	45.03
672.68	44.97
672.867	45.15
673.054	45.12
673.24	44.64
673.427	44.97
673.614	44.45
673.801	44.72
673.988	44.28
674.174	44.08
674.361	43.95
674.548	44.02
674.734	43.98
674.921	43.68
675.108	43.86
675.294	44.23
675.481	44.23
675.668	44.97
675.854	44.37
676.041	44.24
676.227	44.19
676.414	43.86
676.601	43.51
676.787	43.51
676.974	43.98
677.16	43.46
677.347	43.21
677.533	43.09
677.719	43.11
677.906	43.78
678.092	44.4
678.279	44.3
678.465	44.36
678.651	44.98
678.838	45.28
679.024	45.21
679.21	45.61
679.397	45.36
679.583	45.37
679.769	45.05
679.955	44.38
680.142	44.13
680.328	44.06
680.514	43.89
680.7	43.6
680.886	43.46
681.073	43.58
681.259	43.32
681.445	43.61
681.631	43.53
681.817	43.56
682.003	44.08
682.189	44.39
682.375	45.04
682.561	44.73
682.747	44.95
682.933	44.81
683.119	44.29
683.305	44.3
683.491	44.29
683.677	44.66
683.863	45.23
684.049	45.08
684.235	44.7
684.42	44.86
684.606	45.22
684.792	44.65
684.978	44.99
685.164	44.99
685.349	45.63
685.535	45.58
685.721	45.23
685.907	44.72
686.092	44.91
686.278	45.33
686.464	44.24
686.649	44.43
686.835	44.42
687.021	44.18
687.206	44.2
687.392	43.79
687.577	44.02
687.763	44.38
687.948	44.64
688.134	44.12
688.319	43.94
688.505	44.25
688.69	44.3
688.876	44.79
689.061	45.01
689.247	45.69
689.432	45.44
689.618	45.58
689.803	44.96
689.988	44.63
690.174	45.02
690.359	45.25
690.544	45.19
690.73	45.13
690.915	44.87
691.1	44.36
691.285	43.99
691.471	44.34
691.656	44.02
691.841	44.59
692.026	44.74
692.211	44.64
692.396	43.51
692.582	44.23
692.767	44.53
692.952	44.43
693.137	44.97
693.322	44.96
693.507	44.86
693.692	44.87
693.877	44.9
694.062	44.7
694.247	44.8
694.432	45.98
694.617	46.21
694.802	45.77
694.987	45.75
695.172	45.63
695.357	45.59
695.541	45.5
695.726	45.51
695.911	45.01
696.096	45.57
696.281	45.42
696.466	45.28
696.65	44.61
696.835	45.07
697.02	45.04
697.204	45.22
697.389	44.78
697.574	45.01
697.759	45.14
697.943	45.34
698.128	44.86
698.312	45.1
698.497	45.13
698.682	45.05
698.866	44.95
699.051	45.29
699.235	45.09
699.42	45.52
699.604	45.18
699.789	44.99
699.973	44.8
700.158	44.84
700.342	44.53
700.527	44.32
700.711	44.35
700.895	44.2
701.08	43.66
701.264	43.84
701.448	43.56
701.633	44.07
701.817	44.3
702.001	44.17
702.186	44.11
702.37	44.21
702.554	44.01
702.738	44.02
702.923	43.96
703.107	44.21
703.291	44.01
703.475	44.56
703.659	45.06
703.843	44.29
704.027	44.94
704.212	45.21
704.396	45.03
704.58	44.93
704.764	44.72
704.948	45.62
705.132	46.04
705.316	46.02
705.5	44.89
705.684	43.95
705.868	44.15
706.052	43.95
706.235	43.61
706.419	44.16
706.603	44.43
706.787	45.05
706.971	44.52
707.155	44.1
707.339	43.73
707.522	44
707.706	43.95
707.89	43.98
708.074	44.29
708.257	44.06
708.441	44.09
708.625	43.58
708.808	43.31
708.992	43.3
709.176	43.71
709.359	44.2
709.543	44.69
709.727	44.35
709.91	44.54
710.094	44.14
710.277	44.28
710.461	44.58
710.644	45
710.828	45.05
711.011	44.76
711.195	44.78
711.378	44.55
711.562	44.5
711.745	45.14
711.928	44.91
712.112	45.65
712.295	45.93
712.478	45.84
712.662	45.65
712.845	45.46
713.028	46.25
713.212	45.6
713.395	46.43
713.578	46.72
713.761	46.39
713.945	46.54
714.128	45.62
714.311	45.89
714.494	45.28
714.677	45.5
714.86	45.71
715.043	45.13
715.227	45.57
715.41	44.96
715.593	44.15
715.776	44.47
715.959	44.24
716.142	44.72
716.325	44.85
716.508	44.43
716.691	45.38
716.874	45.69
717.057	45
717.239	44.7
717.422	44.81
717.605	44.81
717.788	44.39
717.971	44.54
718.154	45.27
718.337	44.34
718.519	45.14
718.702	43.9
718.885	43.48
719.068	43.69
719.25	43.13
719.433	42.22
719.616	42.56
719.798	42.81
719.981	43.36
720.164	42.13
720.346	42.48
720.529	42.74
720.712	43.72
720.894	43.51
721.077	43.99
721.259	44.59
721.442	46.25
721.624	46.07
721.807	46.92
721.989	46.58
722.172	46.7
722.354	46.77
722.537	46.31
722.719	45.67
722.901	45.12
723.084	44.58
723.266	44.81
723.448	43.36
723.631	43.66
723.813	43.1
723.995	43.94
724.178	43.9
724.36	43.67
724.542	43.53
724.724	43.05
724.907	43.82
725.089	44.52
725.271	43.61
725.453	43.86
725.635	44.48
725.817	43.78
725.999	43.23
726.181	43.61
726.364	44.27
726.546	44.45
726.728	44.6
726.91	44.56
727.092	44.42
727.274	44.8
727.456	45.48
727.638	44.96
727.819	45.63
728.001	45.95
728.183	46.33
728.365	45.6
728.547	45.28
728.729	44.89
728.911	45.58
729.093	45.26
729.274	45.81
729.456	45.58
729.638	46.02
729.82	45.09
730.001	44.29
730.183	43.08
730.365	43.15
730.546	43.9
730.728	44.16
730.91	43.39
731.091	44.21
731.273	43.68
731.455	43.15
731.636	42.09
731.818	42.68
731.999	41.95
732.181	43.7
732.362	44.18
732.544	43.76
732.725	44
732.907	44.01
733.088	44
733.27	44.6
733.451	44.84
733.633	45.4
733.814	45.92
733.995	47.3
734.177	46.39
734.358	46.9
734.539	46.59
734.721	46.82
734.902	46.85
735.083	46.74
735.264	45.57
735.446	45.37
735.627	45.21
735.808	44.44
735.989	44.06
736.17	43.85
736.351	42.3
736.533	42.87
736.714	42.9
736.895	43.36
737.076	42.97
737.257	43.38
737.438	42.8
737.619	42.83
737.8	43.06
737.981	44.13
738.162	43.97
738.343	44.71
738.524	42.94
738.705	42.62
738.886	42.17
739.067	40.88
739.247	41.3
739.428	42.01
739.609	42.64
739.79	42.63
739.971	41.53
740.151	41.35
740.332	41.16
740.513	43
740.694	42.14
740.874	41.07
741.055	42.59
741.236	43.16
741.417	43.25
741.597	42.29
741.778	42.26
741.958	42.97
742.139	42.86
742.32	43.25
742.5	42.94
742.681	44.63
742.861	45.26
743.042	44.36
743.222	44.31
743.403	44.25
743.583	44.76
743.764	45.52
743.944	46.08
744.124	46.37
744.305	45.69
744.485	46.08
744.666	44.87
744.846	44.85
745.026	45.41
745.207	45.21
745.387	44.99
745.567	44.22
745.747	43.18
745.928	41.76
746.108	42.33
746.288	42.92
746.468	42.81
746.648	43.69
746.829	44.32
747.009	45.03
747.189	46.03
747.369	46.82
747.549	47.51
747.729	46.68
747.909	47.55
748.089	47.54
748.269	47.62
748.449	47.1
748.629	47.02
748.809	46.38
748.989	45.63
749.169	44.65
749.349	43.04
749.529	43.05
749.709	44.11
749.889	43.59
750.068	42.62
750.248	42.09
750.428	42.41
750.608	42.14
750.788	43.29
750.967	43.32
751.147	43.44
751.327	44.47
751.507	44.86
751.686	43.55
751.866	43.07
752.046	43.08
752.225	43.06
752.405	42.94
752.585	43.64
752.764	42.1
752.944	42.46
753.123	41.41
753.303	41.54
753.482	40.86
753.662	42.62
753.841	42.96
754.021	43.5
754.2	44.16
754.38	43.31
754.559	43.1
754.739	44.38
754.918	43.41
755.097	44.88
755.277	43.76
755.456	44.9
755.635	44.37
755.815	44.2
755.994	44.63
756.173	43.96
756.352	44.58
756.532	44.74
756.711	44.53
756.89	45.34
757.069	45.49
757.248	46.13
757.427	45.29
757.607	44.43
757.786	44.45
757.965	44.45
758.144	45.26
758.323	45.03
758.502	44.49
758.681	44.16
758.86	44.51
759.039	44.92
759.218	44.89
759.397	45.49
759.576	46.15
759.755	45.06
759.934	45.09
760.113	44.41
760.291	44.87
760.47	45.33
760.649	46.09
760.828	45.7
761.007	45.97
761.186	46.05
761.364	45.24
761.543	44.97
761.722	45.73
761.901	45.74
762.079	45.79
762.258	45.81
762.437	46
762.615	45.71
762.794	45.39
762.972	43.79
763.151	43.83
763.33	44.43
763.508	44.79
763.687	45.68
763.865	44.78
764.044	44.86
764.222	44.38
764.401	43.89
764.579	43.64
764.758	44.36
764.936	44.64
765.114	44.74
765.293	44.51
765.471	44.01
765.65	42.89
765.828	43.5
766.006	43.23
766.184	43.16
766.363	42.66
766.541	42.44
766.719	41.81
766.898	41.7
767.076	42.56
767.254	42.72
767.432	42.47
767.61	43.57
767.788	42.56
767.967	41.93
768.145	41.92
768.323	42.42
768.501	42.29
768.679	43.2
768.857	42.53
769.035	40.63
769.213	39.24
769.391	38.64
769.569	37.84
769.747	37.98
769.925	39.43
770.103	39.01
770.281	39.14
770.459	38.74
770.636	38.05
770.814	40
770.992	39.28
771.17	41.01
771.348	42.76
771.525	42.17
771.703	42.87
771.881	41.53
772.059	42.43
772.236	42.64
772.414	43.44
772.592	42.21
772.769	41.17
772.947	43.18
773.125	41.45
773.302	41.01
773.48	41.18
773.657	41.17
773.835	42.13
774.013	43.74
774.19	41.11
774.368	40.47
774.545	40.63
774.723	41.65
774.9	40.37
775.077	40.32
775.255	40.81
775.432	41.2
775.61	43.37
775.787	42.19
775.964	41
776.142	43.37
776.319	42.81
776.496	43.34
776.674	43.66
776.851	44.55
777.028	45.64
777.205	44.64
777.382	45.4
777.56	43.36
777.737	44.28
777.914	44.2
778.091	43.75
778.268	43.58
778.445	44.02
778.622	43.04
778.8	41.93
778.977	43.5
779.154	61.14
779.331	60.43
779.508	60.32
779.685	59.56
779.862	60.7
780.038	61.24
780.215	61.27
780.392	59.86
780.569	59.23
780.746	61.04
780.923	58.34
781.1	39.45
781.277	40.53
781.453	41.95
781.63	43.58
781.807	39.55
781.984	39.78
782.16	39.95
782.337	41.38
782.514	41.45
782.691	42.01
782.867	40.17
783.044	40.02
783.221	39.71
783.397	38.36
783.574	39.15
783.75	41.64
783.927	40.11
784.103	40.59
784.28	40.17
784.456	40.27
784.633	41.86
784.809	46.5
784.986	45.66
785.162	46.11
785.339	46.08
785.515	43.26
785.692	43.94
785.868	45.11
786.044	46.52
786.221	45.1
786.397	44.89
786.573	43.53
786.749	40.67
786.926	40.02
787.102	37.94
787.278	38.7
787.454	43.35
787.631	42.84
787.807	43.33
787.983	42.43
788.159	43.31
788.335	43.64
788.511	44.32
788.687	45.43
788.863	47.37
789.039	46.95
789.216	47.08
789.392	44.71
789.568	43.11
789.744	41.6
789.919	41.93
790.095	41.87
790.271	43.32
790.447	43.4
790.623	41.89
790.799	44.37
790.975	44.64
791.151	42.43
791.327	42.23
791.502	44.22
791.678	46.87
791.854	45.46
792.03	45.34
792.205	43.42
792.381	41.81
792.557	44.85
792.733	41.77
792.908	43.22
793.084	44.33
793.259	44.89
793.435	43.61
793.611	42.06
793.786	43.75
793.962	43.61
794.137	43.72
794.313	42.88
794.488	40.55
794.664	41.77
794.839	42.21
795.015	42.04
795.19	40.46
795.366	39.81
795.541	39.97
795.716	38.3
795.892	39.43
796.067	39.9
796.242	40.72
796.418	41.11
796.593	40.45
796.768	38.53
796.944	39.82
797.119	39.82
797.294	41.31
797.469	42.47
797.644	42.64
797.82	42.23
797.995	42.73
798.17	43.44
798.345	42.75
798.52	43.33
798.695	43.86
798.87	44.65
799.045	44.04
799.22	42.36
799.395	40.05
799.57	39.32
799.745	39.44
799.92	40.78
800.095	41.11
800.27	42.03
800.445	39.97
800.62	41.32
800.795	39.34
800.97	41.32
801.145	41.92
801.319	43.23
801.494	43.7
801.669	42.93
801.844	41.64
802.018	41.5
802.193	40.71
802.368	42.9
802.543	41.77
802.717	42.63
802.892	42.29
803.067	42.42
803.241	42.16
803.416	43.08
803.59	41.98
803.765	40.52
803.94	40.98
804.114	41.08
804.289	39.5
804.463	39.73
804.638	40.46
804.812	41.2
804.986	40.87
805.161	41.29
805.335	40.67
805.51	43.11
805.684	42.71
805.858	41.14
806.033	41.92
806.207	41.48
806.381	39.64
806.556	37.5
806.73	34.35
806.904	32.93
807.078	32.5
807.253	32.97
807.427	30.2
807.601	30.23
807.775	29.96
807.949	29.5
808.123	29.6
808.298	30.66
808.472	31.68
808.646	35.67
808.82	37.88
808.994	38.26
809.168	39.33
809.342	43.68
809.516	44.45
809.69	41.6
809.864	42.03
810.038	40.07
810.212	43.98
810.385	41.41
810.559	38.41
810.733	38.27
810.907	35.47
811.081	34.76
811.255	30.77
811.428	30.87
811.602	35.86
811.776	34.72
811.95	38.23
812.123	37.1
812.297	39.7
812.471	40.99
812.644	42.16
812.818	44.57
812.992	44.61
813.165	46.66
813.339	48.83
813.512	49.08
813.686	54.41
813.86	52.2
814.033	49.13
814.207	50.43
814.38	49.57
814.554	49.77
814.727	47.93
814.9	48.64
815.074	51.26
815.247	50.29
815.421	48.36
815.594	44.86
815.767	47.93
815.941	45.96
816.114	47.52
816.287	45.08
816.46	44.83
816.634	48.14
816.807	47.69
816.98	47.88
817.153	46.09
817.327	42.77
817.5	43.76
817.673	39.66
817.846	41.45
818.019	41.79
818.192	45.39
818.365	45.39
818.538	45.59
818.711	45.81
818.884	43.21
819.057	43.17
819.23	43.1
819.403	44.11
819.576	42.49
819.749	43.96
819.922	40.9
820.095	38.11
820.268	37.45
820.441	38.26
820.614	38.13
820.786	39.15
820.959	39.37
821.132	41.39
821.305	39.71
821.477	41.3
821.65	40.62
821.823	40.77
821.996	41.57
822.168	42.13
822.341	43.15
822.514	43.85
822.686	43.1
822.859	42.63
823.031	43.52
823.204	43.81
823.376	44.31
823.549	44.38
823.722	44.88
823.894	45.31
824.067	45.06
824.239	44.27
824.411	43.87
824.584	44.25
824.756	45.23
824.929	44.31
825.101	43.93
825.273	44.19
825.446	44.17
825.618	44.35
825.79	43.52
825.963	42.92
826.135	42.62
826.307	42.95
826.479	43.84
826.652	43.41
826.824	43.4
826.996	43.4
827.168	42.58
827.34	43.33
827.512	43.76
827.684	44.6
827.856	45.44
828.029	45.93
828.201	44.44
828.373	42.54
828.545	42.78
828.717	42.91
828.889	44.45
829.061	45.31
829.232	44.54
829.404	42.31
829.576	40.2
829.748	39.08
829.92	36.11
830.092	36.99
830.264	38.21
830.436	36.72
830.607	37.88
830.779	36.14
830.951	36.12
831.123	34.9
831.294	36.97
831.466	39.51
831.638	40.2
831.809	42.74
831.981	42.79
832.153	43.31
832.324	45.43
832.496	44.74
832.667	43.83
832.839	41.07
833.011	42.18
833.182	41.12
833.354	42.38
833.525	41.9
833.697	44.14
833.868	43.73
834.039	42.02
834.211	43.57
834.382	41.99
834.554	42.7
834.725	44.14
834.896	43.27
835.068	44.78
835.239	42.9
835.41	44.53
835.581	45.04
835.753	42.85
835.924	43.54
836.095	41.26
836.266	41.64
836.438	41.68
836.609	41.55
836.78	43
836.951	38.67
837.122	39.28
837.293	38.56
837.464	34.06
837.635	37.6
837.806	39.22
837.977	37.17
838.148	37.01
838.319	36.77
838.49	35.23
838.661	35.62
838.832	39.94
839.003	39.52
839.174	36.67
839.345	37.74
839.516	35.67
839.687	30.49
839.857	35.22
840.028	31.18
840.199	35.63
840.37	33.76
840.54	35.14
840.711	35
840.882	35.79
841.053	33.04
841.223	32.2
841.394	30.81
841.564	33.41
841.735	32.75
841.906	35.63
842.076	27.9
842.247	28
842.417	25.01
842.588	21.87
842.758	19.95
842.929	29.9
843.099	33.77
843.27	38.21
843.44	32.27
843.611	28.33
843.781	28.26
843.951	38.04
844.122	36.66
844.292	33.39
844.462	31.52
844.633	31.62
844.803	25.19
844.973	22.99
845.144	20.44
845.314	26.28
845.484	26.17
845.654	22.33
845.824	3.91
845.995	7.53
846.165	10.76
846.335	28.82
846.505	34.29
846.675	30.15
846.845	38.18
847.015	41.78
847.185	51.44
847.355	52.45
847.525	65.63
847.695	70.32
847.865	65.47
848.035	59.53
848.205	47.98
848.375	45.96
848.545	52.13
848.715	48.31
848.884	45.62
849.054	28.57
849.224	27.01
849.394	25.01
849.564	31.36
849.733	22.59
849.903	35.74
850.073	33.86
850.243	45
850.412	48.85
850.582	54.12
850.752	61.76
850.921	74.75
851.091	80.99
851.26	88.47
851.43	101.27
851.599	85.23
851.769	63.45
851.939	52.35
852.108	33.74
852.278	36.5
852.447	18.52
852.616	31.85
852.786	18.34
852.955	22.08
853.125	23.16
853.294	25.48
853.463	29.13
853.633	26.4
853.802	34.73
853.971	39.53
854.141	37.11
854.31	53.16
854.479	43.74
854.648	54.24
854.818	50.61
854.987	50.76
855.156	42.96
855.325	48.53
855.494	52.43
855.663	49.56
855.832	51.74
856.001	51.3
856.171	47.81
856.34	48.14
856.509	28.78
856.678	32.45
856.847	40.01
857.016	59.92
857.185	56.25
857.353	65.37
857.522	66.63
857.691	55.37
857.86	57.44
858.029	62.61
858.198	63.88
858.367	72.31
858.535	75.69
858.704	66.57
858.873	40.57
859.042	14.64
859.21	-8.01
859.379	-6.26
859.548	-14.85
859.717	-21.17
859.885	-25.05
860.054	-25.86
860.222	-8.73
860.391	-10.97
860.56	-21.96
860.728	13.16
860.897	43.57
861.065	41.49
861.234	36.38
861.402	49.09
861.571	45.09
861.739	41.84
861.908	44.09
862.076	28.66
862.244	40.82
862.413	46.5
862.581	36.37
862.749	3.16
862.918	2.58
863.086	17.3
863.254	11.91
863.423	11.76
863.591	18.38
863.759	35.31
863.927	52.48
864.096	46.1
864.264	0.83
864.432	12.37
864.6	44.88
864.768	52.98
864.936	34.67
865.104	31.97
865.272	36.3
865.44	27.5
865.608	20.61
865.776	9.56
865.944	-8.42
866.112	12.55
866.28	25.99
866.448	32.97
866.616	40.65
866.784	61.27
866.952	57.04
867.12	46.39
867.288	61.92
867.455	48.34
867.623	64.65
867.791	81.84
867.959	70.17
868.127	56.7
868.294	38.21
868.462	36.47
868.63	12.96
868.797	24.6
868.965	35.33
869.133	27.29
869.3	30.55
869.468	28.11
869.636	17.51
869.803	24.69
869.971	39.69
870.138	40.86
870.306	33.43
870.473	37.76
870.641	30.99
870.808	43.87
870.975	58.7
871.143	54.41
871.31	35.84
871.478	32.72
871.645	29.54
871.812	19.99
871.98	22.07
872.147	26.4
872.314	31.45
872.482	25.83
872.649	3.45
872.816	15.84
872.983	24.95
873.15	41.89
873.318	48.18
873.485	42.47
873.652	46.66
873.819	47.56
873.986	40.82
874.153	39.06
874.32	30.61
874.487	25.87
874.654	18.63
874.821	14.64
874.988	21.99
875.155	32.89
875.322	35.06
875.489	25.5
875.656	25.19
875.823	35.78
875.99	37.73
876.157	47.24
876.324	58.73
876.49	38.15
876.657	39.75
876.824	39.62
876.991	21.04
877.157	32.29
877.324	43.43
877.491	46.35
877.658	43.23
877.824	44.39
877.991	52.49
878.157	38.29
878.324	70.49
878.491	66.18
878.657	64.96
878.824	78.88
878.99	67.96
879.157	39.51
879.323	40.89
879.49	39.72
879.656	44.68
879.823	38.66
879.989	45.44
880.156	37.87
880.322	37.83
880.488	33.7
880.655	39.46
880.821	40.22
880.987	45.41
881.154	38.53
881.32	44.55
881.486	41.16
881.652	42.61
881.819	40.49
881.985	42.22
882.151	41.5
882.317	42.08
882.483	42.32
882.649	42.06
882.816	39.89
882.982	41.35
883.148	39.49
883.314	39.03
883.48	38.29
883.646	38.61
883.812	37.54
883.978	35.81
884.144	35.47
884.31	33.87
884.476	34.71
884.642	36.54
884.807	36.24
884.973	36.09
885.139	36.07
885.305	36.86
885.471	36.77
885.637	37.88
885.802	38.82
885.968	38.1
886.134	38.19
886.3	38.24
886.465	36.98
886.631	37.32
886.797	36.72
886.962	36.25
887.128	35.29
887.293	33.67
887.459	30.93
887.625	31.57
887.79	25.51
887.956	23.93
888.121	17.94
888.287	15.78
888.452	13.25
888.618	6.65
888.783	3.74
