Data from CB_042_Reflection_00002.txt Node
Date: Wed Nov 11 22:05:12 EST 2015
User: robert
Spectrometer: USB4E03001
Autoset integration time: false
Trigger mode: 4
Integration Time (sec): 1.000000E-1
Scans to average: 15
Electric dark correction enabled: true
Nonlinearity correction enabled: false
Boxcar width: 5
Stray light correction enabled: false
XAxis mode: Wavelengths
Stop averaging: false
Number of Pixels in Spectrum: 3648
>>>>>Begin Spectral Data<<<<<
177.566	194.89
177.785	339.47
178.005	-71.64
178.225	330.72
178.445	38.82
178.665	52.52
178.885	241.69
179.105	28.35
179.324	38.47
179.544	123.18
179.764	157.73
179.984	92.95
180.204	46.79
180.423	68.65
180.643	43.72
180.863	50.42
181.083	57.36
181.302	58.47
181.522	57.43
181.742	60.71
181.961	53.51
182.181	55.71
182.401	61.63
182.621	76.05
182.84	74.54
183.06	82.88
183.279	83.64
183.499	98.87
183.719	102.49
183.938	127.54
184.158	158.85
184.377	158.66
184.597	173.58
184.816	196.88
185.036	162.13
185.256	167.28
185.475	156.35
185.695	177.86
185.914	194.74
186.134	212.76
186.353	165.03
186.572	88.98
186.792	74.03
187.011	42.99
187.231	47.88
187.45	38.27
187.67	5.86
187.889	21.53
188.108	51.29
188.328	37.61
188.547	26.34
188.766	39.13
188.986	50.89
189.205	44.91
189.424	46.57
189.644	58.99
189.863	73.41
190.082	100.78
190.302	102.56
190.521	102.93
190.74	130.38
190.959	121.91
191.178	98.04
191.398	94.72
191.617	113.19
191.836	127.68
192.055	115.11
192.274	101.85
192.494	97.91
192.713	119.18
192.932	113.46
193.151	97.91
193.37	114.85
193.589	120.06
193.808	130.77
194.027	117.88
194.246	115.19
194.465	117.81
194.685	128.99
194.904	120.94
195.123	116.87
195.342	109.08
195.561	123.72
195.78	114.51
195.999	136.17
196.218	137.51
196.436	135.06
196.655	161.23
196.874	138.8
197.093	117.72
197.312	98.46
197.531	105.5
197.75	112.91
197.969	121.32
198.188	101.15
198.407	94.47
198.625	80.38
198.844	47.9
199.063	41.44
199.282	44.93
199.501	42.05
199.719	25.98
199.938	45.96
200.157	31.24
200.376	38.7
200.594	100.84
200.813	103.02
201.032	110.22
201.251	207.31
201.469	172.3
201.688	162.91
201.907	127.39
202.125	116.01
202.344	108.57
202.563	129.37
202.781	113.59
203	76.96
203.218	76.83
203.437	79.6
203.656	63.25
203.874	73.26
204.093	64.79
204.311	68.99
204.53	78.14
204.748	65.22
204.967	55.44
205.185	56.05
205.404	63.13
205.622	65.84
205.841	67.09
206.059	52.45
206.278	49.03
206.496	58.25
206.715	63.81
206.933	70.64
207.151	73.94
207.37	71.4
207.588	74.5
207.806	65.9
208.025	61.16
208.243	59.06
208.461	74.28
208.68	77.13
208.898	77.06
209.116	68.21
209.335	56.98
209.553	45.23
209.771	52.71
209.989	43.7
210.208	65.04
210.426	68.9
210.644	99.72
210.862	100.65
211.081	79.39
211.299	105.86
211.517	142.56
211.735	139.81
211.953	144.83
212.171	152.19
212.39	170.5
212.608	141.96
212.826	133.11
213.044	120.81
213.262	118.72
213.48	146.5
213.698	116.97
213.916	95.12
214.134	76.22
214.352	92.42
214.57	61.91
214.788	52.61
215.006	44.63
215.224	24.72
215.442	-23.25
215.66	-49.65
215.878	7.82
216.096	40.36
216.314	50.11
216.532	58.65
216.75	54.8
216.968	66.39
217.185	58.83
217.403	75.6
217.621	77.18
217.839	84.05
218.057	76.52
218.275	90.2
218.492	97.81
218.71	85.07
218.928	87.89
219.146	92.61
219.363	82.75
219.581	105
219.799	84.08
220.017	112.17
220.234	95.79
220.452	129.05
220.67	78.43
220.887	47.32
221.105	48.25
221.323	24.8
221.54	24.52
221.758	51.26
221.976	46.9
222.193	43.96
222.411	27.67
222.629	26.11
222.846	14.79
223.064	13.26
223.281	25.64
223.499	34.16
223.716	43.04
223.934	45.4
224.151	42.37
224.369	37.79
224.586	36.57
224.804	47.23
225.021	55.76
225.239	56.42
225.456	67.85
225.674	64.73
225.891	61.87
226.108	56.84
226.326	43.18
226.543	40.78
226.76	39.77
226.978	30.35
227.195	21.87
227.413	19.88
227.63	28.61
227.847	21.69
228.064	24.03
228.282	20
228.499	21.85
228.716	22.54
228.934	21.41
229.151	20.01
229.368	23.53
229.585	24.81
229.802	21.72
230.02	17.08
230.237	16.95
230.454	16.57
230.671	15.91
230.888	14.51
231.105	13.13
231.323	15.8
231.54	17.71
231.757	11.89
231.974	8.62
232.191	8.71
232.408	9.5
232.625	9.23
232.842	10.16
233.059	12.37
233.276	12.17
233.493	19.56
233.71	17.62
233.927	19.05
234.144	25.05
234.361	28.11
234.578	32.53
234.795	33.77
235.012	35.3
235.229	34.52
235.446	37.6
235.663	35.34
235.879	34.63
236.096	35.16
236.313	28.97
236.53	29.72
236.747	29.94
236.964	32.32
237.181	35.24
237.397	32.5
237.614	29.5
237.831	25.51
238.048	31.23
238.264	28.11
238.481	28.61
238.698	30.95
238.915	29.73
239.131	27.91
239.348	25.63
239.565	23.06
239.781	20.89
239.998	20.32
240.215	21.53
240.431	19.63
240.648	18.79
240.865	14.7
241.081	18.5
241.298	20.24
241.514	19.58
241.731	20.8
241.947	19.86
242.164	22.06
242.38	19.56
242.597	17.98
242.814	18.14
243.03	17.97
243.246	19.01
243.463	17.65
243.679	16.92
243.896	18.27
244.112	18.26
244.329	21.14
244.545	19.91
244.762	23.71
244.978	25.65
245.194	25.51
245.411	26.26
245.627	25.72
245.843	26.1
246.06	23.6
246.276	21.69
246.492	19.91
246.709	17.11
246.925	17.83
247.141	17.35
247.357	15.99
247.574	16
247.79	15.66
248.006	15.84
248.222	14.44
248.439	14.68
248.655	15.53
248.871	14.95
249.087	16.16
249.303	15.43
249.519	15.15
249.736	15.57
249.952	15.28
250.168	15.4
250.384	15.17
250.6	16.06
250.816	18.29
251.032	15.12
251.248	17.25
251.464	13.82
251.68	14.36
251.896	14.39
252.112	14.21
252.328	14.45
252.544	14.36
252.76	15.16
252.976	15.89
253.192	14.05
253.408	14.43
253.624	13.63
253.84	17.18
254.056	15.4
254.272	17.43
254.487	18.53
254.703	18.21
254.919	21.2
255.135	20.82
255.351	20.25
255.567	22.5
255.782	25.01
255.998	23.78
256.214	22.31
256.43	24.3
256.646	21.22
256.861	19.79
257.077	19.38
257.293	16.44
257.508	16.05
257.724	17.4
257.94	16.48
258.155	15.79
258.371	15.22
258.587	14.44
258.802	14.01
259.018	13.58
259.234	13.35
259.449	14.19
259.665	13.9
259.88	13.5
260.096	12.85
260.312	12.56
260.527	12.06
260.743	12.36
260.958	12.69
261.174	12.92
261.389	13.42
261.605	14.23
261.82	14.19
262.036	15.67
262.251	17.39
262.466	17.95
262.682	17.73
262.897	20.06
263.113	19.59
263.328	18.75
263.543	19.19
263.759	19.37
263.974	20.53
264.189	18.86
264.405	16.23
264.62	14.44
264.835	14.65
265.051	14.82
265.266	12.68
265.481	14.59
265.696	15.87
265.912	14.25
266.127	15.02
266.342	15.19
266.557	15.99
266.773	15.16
266.988	16.01
267.203	14.09
267.418	14.84
267.633	16.53
267.848	16.12
268.064	15.01
268.279	16.03
268.494	14.66
268.709	13.92
268.924	14.85
269.139	16.18
269.354	16.41
269.569	17.15
269.784	17.7
269.999	15.28
270.214	15.37
270.429	16.92
270.644	16.86
270.859	17.71
271.074	17.16
271.289	16.87
271.504	17.27
271.719	16.51
271.934	16.02
272.149	15.9
272.363	17.02
272.578	17.1
272.793	16.58
273.008	16.07
273.223	15.9
273.438	16.18
273.653	15.97
273.867	15.56
274.082	14.94
274.297	15.65
274.512	14.77
274.726	12.32
274.941	12.11
275.156	12.13
275.371	11.27
275.585	10.61
275.8	11.08
276.015	11.01
276.229	11.51
276.444	12.17
276.659	13.53
276.873	14.82
277.088	16.86
277.302	16.69
277.517	16.61
277.732	17.38
277.946	17.93
278.161	18.37
278.375	17.94
278.59	16.1
278.804	15.22
279.019	14.49
279.233	13.2
279.448	13.36
279.662	13.83
279.877	13.89
280.091	13.66
280.306	15.87
280.52	13.63
280.735	14.22
280.949	14.96
281.163	16.07
281.378	16.07
281.592	15.7
281.806	15.46
282.021	13.51
282.235	13.79
282.449	14.01
282.664	11.38
282.878	11.99
283.092	12.4
283.307	13.28
283.521	11.56
283.735	11.6
283.949	11.91
284.164	12.19
284.378	13.86
284.592	13.48
284.806	14.02
285.02	13.92
285.234	13.69
285.449	13.03
285.663	12.27
285.877	13.64
286.091	13.53
286.305	13.59
286.519	13.42
286.733	13.8
286.947	13.61
287.161	12.72
287.375	13.55
287.589	14.69
287.803	14.47
288.017	14.56
288.231	14.14
288.445	14.54
288.659	14.97
288.873	15.8
289.087	15.31
289.301	15.64
289.515	16.97
289.729	17.51
289.943	16.83
290.157	16.84
290.371	16.86
290.584	16.94
290.798	16.38
291.012	16.82
291.226	16.75
291.44	17.09
291.654	17.26
291.867	16.32
292.081	14.83
292.295	15.46
292.509	15.78
292.722	16.02
292.936	15.72
293.15	14.9
293.364	14.67
293.577	14.17
293.791	13
294.005	11.98
294.218	13.22
294.432	14.37
294.645	13.41
294.859	12.41
295.073	12.47
295.286	12.4
295.5	13.1
295.713	11.84
295.927	10.98
296.14	12.19
296.354	13.32
296.568	12.31
296.781	11.87
296.994	12.22
297.208	13.31
297.421	13.06
297.635	13.53
297.848	14.01
298.062	14.34
298.275	15.23
298.489	14.57
298.702	13.89
298.915	14.98
299.129	15.7
299.342	15.71
299.555	16.05
299.769	17.21
299.982	17.11
300.195	16.63
300.409	16.94
300.622	16.16
300.835	15.64
301.048	15.66
301.262	15.17
301.475	15.5
301.688	16.42
301.901	15.92
302.115	14.86
302.328	15.12
302.541	14.87
302.754	13.48
302.967	14.1
303.18	14.99
303.393	16.09
303.607	15.47
303.82	15.45
304.033	14
304.246	13.22
304.459	13.84
304.672	14.12
304.885	15.09
305.098	16.9
305.311	16.8
305.524	17.18
305.737	16.09
305.95	17.04
306.163	16.58
306.376	17.49
306.589	17.9
306.802	16.55
307.015	16.17
307.228	15.67
307.44	14.96
307.653	15.71
307.866	15.48
308.079	16.47
308.292	15.47
308.505	15.12
308.718	15.54
308.93	16.6
309.143	16.86
309.356	16.5
309.569	15.49
309.781	14.9
309.994	14.34
310.207	14.25
310.42	13.16
310.632	14.43
310.845	15.09
311.058	14.69
311.27	14.53
311.483	14.6
311.696	14.13
311.908	14.68
312.121	15.29
312.333	15.28
312.546	14.94
312.759	15.74
312.971	14.13
313.184	13.68
313.396	12.72
313.609	12.09
313.821	11.65
314.034	12.3
314.246	12.49
314.459	12.22
314.671	12.2
314.884	13.23
315.096	12.72
315.309	12.93
315.521	12.18
315.733	13.36
315.946	13.08
316.158	13.2
316.371	12.45
316.583	11.65
316.795	12.87
317.008	13.73
317.22	13.58
317.432	14.09
317.644	14.68
317.857	16
318.069	14.96
318.281	14.32
318.494	15.26
318.706	16.79
318.918	17.01
319.13	17.34
319.342	16.32
319.555	15.91
319.767	15.95
319.979	15.71
320.191	15.06
320.403	15.61
320.615	16.57
320.827	16.26
321.039	15.99
321.252	16.62
321.464	15.28
321.676	15.5
321.888	15.84
322.1	15.04
322.312	14.38
322.524	13.86
322.736	13.87
322.948	13.22
323.16	12.97
323.372	12.25
323.584	11.86
323.796	11.92
324.007	12.55
324.219	12.64
324.431	11.81
324.643	12.69
324.855	13.57
325.067	13.48
325.279	13.08
325.491	14.05
325.702	14
325.914	13.98
326.126	13.93
326.338	12.23
326.55	12.1
326.761	13.76
326.973	13.95
327.185	13.92
327.396	14.37
327.608	14.73
327.82	14.16
328.032	14.48
328.243	14.66
328.455	14.6
328.666	15.58
328.878	15.21
329.09	14.05
329.301	12.16
329.513	11.8
329.725	10.86
329.936	11.45
330.148	10.7
330.359	10.66
330.571	10.12
330.782	10.35
330.994	10.36
331.205	10.37
331.417	11.6
331.628	12.66
331.84	12.19
332.051	12.06
332.262	12.36
332.474	13.67
332.685	13.16
332.897	13.61
333.108	14.7
333.319	15.13
333.531	14.82
333.742	14.76
333.953	14.9
334.165	14.55
334.376	15.05
334.587	14.24
334.799	13.12
335.01	13.44
335.221	13.67
335.432	12.78
335.644	12.72
335.855	13.61
336.066	14.18
336.277	14.54
336.488	15.66
336.7	15.11
336.911	15.16
337.122	15.58
337.333	15.86
337.544	15.44
337.755	15.72
337.966	16.06
338.177	14.89
338.388	13.08
338.599	12.63
338.811	11.42
339.022	11.46
339.233	11.61
339.444	11.88
339.655	11.69
339.866	12.33
340.076	11.46
340.287	11.34
340.498	12.28
340.709	13.53
340.92	14.16
341.131	14.8
341.342	15.88
341.553	16.32
341.764	15.68
341.975	15.58
342.185	16.01
342.396	16.5
342.607	16.42
342.818	15.36
343.029	14.8
343.239	14.73
343.45	14.73
343.661	13.85
343.872	13.18
344.082	13.29
344.293	13.57
344.504	12.92
344.714	12.77
344.925	11.83
345.136	12.48
345.346	13.03
345.557	11.86
345.768	11.03
345.978	11.35
346.189	11.99
346.399	12.17
346.61	12.18
346.821	12.01
347.031	11.43
347.242	12.05
347.452	12.27
347.663	11.81
347.873	12.03
348.084	12.91
348.294	12.84
348.504	11.76
348.715	11.76
348.925	11.47
349.136	10.47
349.346	10.57
349.557	10.41
349.767	10
349.977	10.6
350.188	10.99
350.398	11.08
350.608	11.01
350.819	11.13
351.029	11.05
351.239	10.4
351.449	12.68
351.66	11.75
351.87	12.59
352.08	13.8
352.29	13.58
352.501	14.03
352.711	13.6
352.921	13.93
353.131	14.46
353.341	14.4
353.552	15.02
353.762	13.03
353.972	14.49
354.182	13.47
354.392	12.72
354.602	12.55
354.812	12.35
355.022	12.37
355.232	12.32
355.442	12.99
355.652	13.12
355.862	13.18
356.072	13.69
356.282	13.45
356.492	14.13
356.702	13.95
356.912	13.87
357.122	13.67
357.332	14.52
357.542	14.6
357.752	13.74
357.962	13.26
358.171	13.2
358.381	13.59
358.591	13.3
358.801	13.08
359.011	12.76
359.221	12.95
359.43	12.93
359.64	11.91
359.85	11.21
360.06	11.58
360.269	12.13
360.479	12.19
360.689	12.19
360.899	12.56
361.108	12.44
361.318	12.47
361.528	12.22
361.737	11.94
361.947	11.89
362.156	11.87
362.366	11.72
362.576	11.36
362.785	11.06
362.995	10.83
363.204	10.88
363.414	10.78
363.623	10.98
363.833	10.99
364.042	10.95
364.252	11.63
364.461	11.6
364.671	11.46
364.88	11.62
365.09	11.52
365.299	11.5
365.509	11.49
365.718	11.59
365.927	11.4
366.137	10.78
366.346	11.01
366.555	10.54
366.765	10.47
366.974	10.63
367.183	10.13
367.393	10.35
367.602	10.17
367.811	9.87
368.021	10.02
368.23	9.89
368.439	10.65
368.648	10.54
368.857	10.18
369.067	10.52
369.276	10.34
369.485	11.02
369.694	11.23
369.903	11.39
370.112	11.21
370.321	10.61
370.531	10.64
370.74	10.33
370.949	10.14
371.158	10.01
371.367	10.19
371.576	10.4
371.785	10.26
371.994	10.07
372.203	9.46
372.412	10.1
372.621	10.41
372.83	10.04
373.039	10.03
373.248	10.25
373.457	10.8
373.666	11.05
373.874	10.34
374.083	9.56
374.292	9.08
374.501	9.6
374.71	8.91
374.919	9.06
375.128	9.84
375.336	9.66
375.545	9.56
375.754	9.51
375.963	8.64
376.171	8.99
376.38	9.07
376.589	9.25
376.798	9.26
377.006	8.98
377.215	9.13
377.424	9.04
377.632	8.71
377.841	8.81
378.05	8.45
378.258	8.61
378.467	8.58
378.675	8.99
378.884	8.68
379.093	8.32
379.301	8.42
379.51	7.82
379.718	7.56
379.927	7.85
380.135	7.45
380.344	7.29
380.552	6.94
380.761	6.81
380.969	6.49
381.177	6.76
381.386	6.61
381.594	6.6
381.803	6.51
382.011	6.31
382.219	6.49
382.428	6.95
382.636	6.99
382.845	7.83
383.053	7.55
383.261	7.71
383.469	7.76
383.678	7.55
383.886	7.45
384.094	7.37
384.302	7.62
384.511	7.66
384.719	7.42
384.927	7.68
385.135	7.51
385.343	7.66
385.552	7.69
385.76	7.95
385.968	8.3
386.176	8.41
386.384	8.73
386.592	8.87
386.8	8.72
387.008	9.08
387.216	9.02
387.424	8.72
387.633	8.39
387.841	8.32
388.049	7.9
388.257	7.98
388.465	7.97
388.672	7.72
388.88	7.57
389.088	7.46
389.296	6.82
389.504	6.77
389.712	6.85
389.92	7.05
390.128	6.9
390.336	6.7
390.544	6.73
390.751	6.87
390.959	7.17
391.167	6.78
391.375	6.46
391.583	6.86
391.79	6.69
391.998	6.52
392.206	6.56
392.414	6.58
392.621	6.33
392.829	6.35
393.037	6.01
393.244	5.73
393.452	5.89
393.66	5.95
393.867	5.91
394.075	6.03
394.283	6.09
394.49	6.44
394.698	6.39
394.905	6.81
395.113	6.45
395.32	6.54
395.528	6.71
395.735	6.57
395.943	6.66
396.15	6.46
396.358	6.58
396.565	6.72
396.773	6.29
396.98	6.34
397.188	6.25
397.395	6.56
397.602	6.51
397.81	6.34
398.017	6.35
398.225	6.03
398.432	5.99
398.639	5.76
398.847	5.48
399.054	5.38
399.261	5.26
399.468	5.25
399.676	5.33
399.883	5.3
400.09	5.21
400.297	5.08
400.505	5.22
400.712	5.27
400.919	5.08
401.126	5.06
401.333	5.2
401.54	5.21
401.748	5.27
401.955	5.34
402.162	5.47
402.369	5.4
402.576	5.9
402.783	6.25
402.99	5.72
403.197	5.91
403.404	5.9
403.611	5.99
403.818	5.94
404.025	5.95
404.232	5.68
404.439	5.44
404.646	5.15
404.853	4.61
405.06	4.53
405.267	4.79
405.474	4.6
405.681	4.41
405.887	4.5
406.094	4.59
406.301	4.53
406.508	4.63
406.715	4.84
406.922	5.22
407.128	5.52
407.335	5.26
407.542	5.17
407.749	5.42
407.955	5.92
408.162	5.61
408.369	5.41
408.575	5.5
408.782	5.55
408.989	5.54
409.195	5.49
409.402	5.18
409.609	5.27
409.815	5.44
410.022	5.67
410.228	5.32
410.435	5.44
410.642	5.51
410.848	5.15
411.055	4.93
411.261	4.92
411.468	4.71
411.674	5.02
411.881	4.98
412.087	4.97
412.294	4.9
412.5	5.03
412.706	4.72
412.913	4.66
413.119	4.75
413.326	4.68
413.532	4.54
413.738	4.96
413.945	4.97
414.151	5.23
414.357	5.14
414.564	4.91
414.77	4.94
414.976	5.28
415.182	5.47
415.389	5.25
415.595	5.08
415.801	5.08
416.007	4.87
416.214	4.45
416.42	4.37
416.626	4.48
416.832	4.31
417.038	4.35
417.244	4.28
417.45	4.09
417.657	4.39
417.863	4.59
418.069	4.58
418.275	4.63
418.481	4.75
418.687	4.72
418.893	4.59
419.099	4.81
419.305	4.6
419.511	4.6
419.717	4.75
419.923	4.53
420.129	4.37
420.335	4.51
420.541	4.43
420.746	4.33
420.952	4.2
421.158	4.18
421.364	3.91
421.57	3.96
421.776	3.92
421.982	3.72
422.187	3.73
422.393	3.74
422.599	3.48
422.805	3.5
423.01	3.64
423.216	3.7
423.422	3.65
423.628	3.7
423.833	3.56
424.039	3.6
424.245	3.78
424.45	3.96
424.656	4.07
424.862	4.08
425.067	4.22
425.273	4.25
425.478	4.15
425.684	4.14
425.889	4.05
426.095	4.29
426.301	4.18
426.506	4.19
426.712	3.99
426.917	3.95
427.123	4.03
427.328	3.61
427.533	3.31
427.739	3.28
427.944	3.31
428.15	3.45
428.355	3.26
428.561	3.4
428.766	3.25
428.971	3.44
429.177	3.48
429.382	3.37
429.587	3.76
429.793	3.85
429.998	4.07
430.203	4.13
430.408	4.22
430.614	4.43
430.819	4.25
431.024	4.24
431.229	4.24
431.434	4.12
431.64	4.31
431.845	4.32
432.05	4.38
432.255	4.28
432.46	4.2
432.665	3.86
432.87	3.79
433.076	3.97
433.281	3.96
433.486	3.87
433.691	3.74
433.896	3.54
434.101	3.38
434.306	3.51
434.511	3.4
434.716	3.39
434.921	3.73
435.126	3.67
435.331	3.35
435.535	3.34
435.74	3.22
435.945	3.31
436.15	3.73
436.355	3.74
436.56	3.6
436.765	3.72
436.97	3.8
437.174	3.66
437.379	3.74
437.584	4.12
437.789	4.05
437.993	4.09
438.198	4.16
438.403	3.9
438.608	3.95
438.812	4.03
439.017	4.12
439.222	4.07
439.426	4.07
439.631	3.92
439.836	3.72
440.04	3.61
440.245	3.55
440.45	3.53
440.654	3.7
440.859	3.59
441.063	3.54
441.268	3.51
441.472	3.59
441.677	3.63
441.881	3.76
442.086	3.86
442.29	4.05
442.495	4.23
442.699	4.17
442.904	3.96
443.108	4.03
443.312	3.93
443.517	3.89
443.721	3.87
443.925	3.78
444.13	3.67
444.334	3.54
444.538	3.39
444.743	3.28
444.947	3.28
445.151	3.17
445.356	3.2
445.56	3.23
445.764	3.34
445.968	3.31
446.173	3.45
446.377	3.42
446.581	3.48
446.785	3.55
446.989	3.5
447.193	3.61
447.398	3.6
447.602	3.54
447.806	3.46
448.01	3.48
448.214	3.41
448.418	3.25
448.622	3.24
448.826	3.13
449.03	3.15
449.234	3.22
449.438	3.2
449.642	3.35
449.846	3.34
450.05	3.57
450.254	3.19
450.458	3.31
450.662	3.41
450.866	3.48
451.069	3.57
451.273	3.39
451.477	3.32
451.681	3.34
451.885	3.2
452.089	2.99
452.292	2.95
452.496	3.1
452.7	3
452.904	3.03
453.107	3.17
453.311	3.22
453.515	3.3
453.719	3.35
453.922	3.14
454.126	3.27
454.33	3.63
454.533	3.57
454.737	3.77
454.94	3.81
455.144	3.64
455.348	3.65
455.551	3.68
455.755	3.62
455.958	3.72
456.162	3.81
456.365	3.82
456.569	3.78
456.772	3.91
456.976	3.64
457.179	3.69
457.383	3.74
457.586	3.61
457.79	3.52
457.993	3.47
458.196	3.5
458.4	3.48
458.603	3.45
458.807	3.4
459.01	3.36
459.213	3.46
459.417	3.49
459.62	3.57
459.823	3.48
460.026	3.4
460.23	3.42
460.433	3.33
460.636	3.28
460.839	3.37
461.042	3.45
461.246	3.51
461.449	3.44
461.652	3.4
461.855	3.4
462.058	3.55
462.261	3.62
462.464	3.6
462.668	3.59
462.871	3.74
463.074	3.6
463.277	3.55
463.48	3.45
463.683	3.69
463.886	3.64
464.089	3.59
464.292	3.64
464.495	3.55
464.698	3.79
464.901	3.84
465.104	3.84
465.306	3.65
465.509	3.71
465.712	3.66
465.915	3.45
466.118	3.41
466.321	3.35
466.524	3.05
466.726	3.18
466.929	3.06
467.132	3
467.335	3
467.538	3.28
467.74	3.34
467.943	3.39
468.146	3.48
468.348	3.6
468.551	3.64
468.754	3.91
468.956	3.84
469.159	3.72
469.362	3.79
469.564	3.86
469.767	3.68
469.969	3.61
470.172	3.53
470.375	3.45
470.577	3.49
470.78	3.55
470.982	3.51
471.185	3.63
471.387	3.71
471.59	3.84
471.792	3.6
471.995	3.64
472.197	3.68
472.399	3.51
472.602	3.57
472.804	3.49
473.007	3.5
473.209	3.4
473.411	3.37
473.614	3.29
473.816	2.92
474.018	3.06
474.22	3.25
474.423	3.16
474.625	3.29
474.827	3.45
475.03	3.51
475.232	3.35
475.434	3.52
475.636	3.34
475.838	3.4
476.04	3.42
476.243	3.42
476.445	3.15
476.647	3.19
476.849	3.43
477.051	3.19
477.253	3.13
477.455	3.17
477.657	2.96
477.859	3.11
478.061	3.33
478.263	3.49
478.465	3.44
478.667	3.49
478.869	3.53
479.071	3.34
479.273	3.52
479.475	3.58
479.677	3.68
479.879	3.77
480.081	3.83
480.283	3.52
480.485	3.65
480.686	3.59
480.888	3.69
481.09	3.63
481.292	3.68
481.494	3.62
481.695	3.53
481.897	3.47
482.099	3.45
482.301	3.32
482.502	3.36
482.704	3.31
482.906	3.32
483.107	3.26
483.309	3.18
483.511	3.11
483.712	3.07
483.914	3.06
484.115	3.06
484.317	3.03
484.519	3.08
484.72	3.12
484.922	3.06
485.123	3.11
485.325	3.11
485.526	3.14
485.728	3.26
485.929	3.25
486.131	3.25
486.332	3.29
486.534	3.29
486.735	3.22
486.936	3.2
487.138	3.22
487.339	3.14
487.541	3.18
487.742	3.22
487.943	3.14
488.144	3.21
488.346	3.2
488.547	3.2
488.748	3.16
488.95	3.2
489.151	3.16
489.352	3.19
489.553	3.21
489.755	3.12
489.956	3.02
490.157	3.02
490.358	2.95
490.559	2.9
490.76	2.81
490.961	2.88
491.163	2.87
491.364	2.96
491.565	2.98
491.766	3.01
491.967	3.18
492.168	3.2
492.369	3.18
492.57	3.1
492.771	3.24
492.972	3.34
493.173	3.28
493.374	3.28
493.575	3.19
493.776	3.13
493.976	3.13
494.177	3.01
494.378	3.14
494.579	3.18
494.78	3.35
494.981	3.26
495.182	3.2
495.382	3.48
495.583	3.58
495.784	3.61
495.985	3.7
496.185	3.64
496.386	3.59
496.587	3.51
496.788	3.57
496.988	3.48
497.189	3.44
497.39	3.46
497.59	3.31
497.791	3.32
497.992	3.44
498.192	3.44
498.393	3.48
498.593	3.63
498.794	3.48
498.994	3.39
499.195	3.46
499.395	3.55
499.596	3.52
499.796	3.57
499.997	3.75
500.197	3.72
500.398	3.85
500.598	3.81
500.799	3.64
500.999	3.71
501.199	3.85
501.4	3.75
501.6	3.77
501.801	3.74
502.001	3.68
502.201	3.5
502.402	3.34
502.602	3.29
502.802	3.2
503.002	3.17
503.203	3.15
503.403	3.09
503.603	3.27
503.803	3.4
504.003	3.44
504.204	3.56
504.404	3.67
504.604	3.67
504.804	3.77
505.004	4.07
505.204	4.15
505.404	4.33
505.604	4.31
505.804	4.41
506.005	4.39
506.205	4.46
506.405	4.4
506.605	4.32
506.805	4.49
507.005	4.42
507.204	4.29
507.404	4.41
507.604	4.5
507.804	4.59
508.004	4.47
508.204	4.27
508.404	4.34
508.604	4.39
508.804	4.34
509.003	4.38
509.203	4.38
509.403	4.37
509.603	4.39
509.803	4.3
510.002	4.26
510.202	4.3
510.402	4.47
510.602	4.51
510.801	4.49
511.001	4.68
511.201	4.61
511.4	4.64
511.6	4.79
511.8	4.8
511.999	4.79
512.199	4.86
512.398	4.92
512.598	5.09
512.797	5.06
512.997	5.24
513.197	5.18
513.396	5.1
513.596	5.1
513.795	5.11
513.994	5.2
514.194	5.21
514.393	5.15
514.593	5.2
514.792	5.13
514.992	5.23
515.191	5.13
515.39	5.24
515.59	5.54
515.789	5.58
515.988	5.58
516.188	5.37
516.387	5.32
516.586	5.51
516.786	5.57
516.985	5.72
517.184	5.59
517.383	5.72
517.582	5.67
517.782	5.53
517.981	5.61
518.18	5.58
518.379	5.76
518.578	5.93
518.777	5.88
518.976	5.88
519.176	5.61
519.375	5.74
519.574	5.68
519.773	5.69
519.972	5.78
520.171	5.71
520.37	5.81
520.569	5.81
520.768	5.67
520.967	5.81
521.166	5.76
521.365	6.06
521.564	6.25
521.762	6.23
521.961	6.36
522.16	6.35
522.359	6.34
522.558	6.31
522.757	6.18
522.956	6.37
523.154	6.28
523.353	6.29
523.552	6.39
523.751	6.24
523.949	6.44
524.148	6.51
524.347	6.63
524.546	6.83
524.744	6.75
524.943	6.95
525.142	6.95
525.34	6.98
525.539	7.07
525.737	6.94
525.936	6.86
526.135	6.91
526.333	6.89
526.532	6.88
526.73	6.76
526.929	6.86
527.127	6.94
527.326	6.93
527.524	6.96
527.723	7.02
527.921	7.07
528.12	7.2
528.318	7.16
528.516	7.13
528.715	7.17
528.913	7.24
529.112	7.29
529.31	7.18
529.508	7.2
529.707	7.27
529.905	7.26
530.103	7.24
530.301	7.17
530.5	7.26
530.698	7.33
530.896	7.43
531.094	7.48
531.293	7.5
531.491	7.77
531.689	7.91
531.887	7.83
532.085	7.94
532.283	8.03
532.481	8.11
532.68	8.01
532.878	8.03
533.076	8
533.274	8.06
533.472	8.09
533.67	8.03
533.868	8.05
534.066	8.23
534.264	8.24
534.462	8.28
534.66	8.31
534.858	8.48
535.056	8.65
535.253	8.77
535.451	8.82
535.649	8.79
535.847	8.89
536.045	8.93
536.243	8.83
536.441	8.76
536.638	8.77
536.836	8.84
537.034	8.79
537.232	8.66
537.43	8.56
537.627	8.57
537.825	8.75
538.023	8.78
538.22	8.84
538.418	8.95
538.616	9.04
538.813	9.27
539.011	9.46
539.209	9.59
539.406	9.72
539.604	9.88
539.801	9.91
539.999	9.87
540.196	9.97
540.394	9.92
540.591	9.96
540.789	10.05
540.986	9.92
541.184	9.79
541.381	9.82
541.579	9.9
541.776	9.82
541.974	9.84
542.171	9.85
542.368	9.78
542.566	9.87
542.763	9.87
542.96	9.85
543.158	9.93
543.355	10.08
543.552	10.07
543.75	10.12
543.947	10.18
544.144	10.3
544.341	10.4
544.539	10.53
544.736	10.52
544.933	10.58
545.13	10.73
545.327	10.82
545.524	10.87
545.722	10.89
545.919	10.9
546.116	11
546.313	11.05
546.51	11.13
546.707	11.22
546.904	11.32
547.101	11.39
547.298	11.42
547.495	11.28
547.692	11.2
547.889	11.26
548.086	11.47
548.283	11.57
548.48	11.61
548.677	11.68
548.874	11.72
549.07	11.79
549.267	11.82
549.464	11.85
549.661	12.21
549.858	12.26
550.055	12.26
550.251	12.07
550.448	12.08
550.645	12.22
550.842	12.2
551.038	12.19
551.235	12.22
551.432	12.35
551.628	12.44
551.825	12.53
552.022	12.58
552.218	12.76
552.415	12.92
552.612	13.16
552.808	13.25
553.005	13.4
553.201	13.51
553.398	13.49
553.594	13.53
553.791	13.51
553.987	13.45
554.184	13.68
554.38	13.74
554.577	13.8
554.773	13.81
554.97	13.66
555.166	13.51
555.362	13.6
555.559	13.81
555.755	13.74
555.952	13.93
556.148	14.23
556.344	14.24
556.541	14.27
556.737	14.22
556.933	14.23
557.129	14.38
557.326	14.54
557.522	14.63
557.718	14.56
557.914	14.68
558.11	14.73
558.307	14.68
558.503	14.7
558.699	14.86
558.895	15
559.091	14.99
559.287	15.13
559.483	15.27
559.679	15.25
559.876	15.57
560.072	15.57
560.268	15.44
560.464	15.47
560.66	15.55
560.856	15.58
561.052	15.61
561.247	15.39
561.443	15.42
561.639	15.48
561.835	15.67
562.031	15.47
562.227	15.57
562.423	15.45
562.619	15.42
562.815	15.5
563.01	15.51
563.206	15.61
563.402	16.02
563.598	16.2
563.793	16.17
563.989	15.96
564.185	16.11
564.381	16.3
564.576	16.76
564.772	16.72
564.968	16.77
565.163	16.85
565.359	16.82
565.555	16.79
565.75	16.52
565.946	16.4
566.141	16.53
566.337	16.43
566.532	16.5
566.728	16.3
566.923	16.4
567.119	16.41
567.314	16.43
567.51	16.35
567.705	16.37
567.901	16.5
568.096	16.66
568.292	16.77
568.487	16.71
568.682	16.64
568.878	16.73
569.073	16.98
569.268	17.01
569.464	16.94
569.659	17.19
569.854	17.17
570.05	17.38
570.245	17.38
570.44	17.46
570.635	17.64
570.831	17.73
571.026	17.97
571.221	17.82
571.416	17.85
571.611	17.92
571.806	18.02
572.002	18.14
572.197	18.13
572.392	18.3
572.587	18.06
572.782	18.13
572.977	18.21
573.172	18.09
573.367	18.04
573.562	17.93
573.757	18
573.952	17.84
574.147	17.86
574.342	17.8
574.537	17.76
574.732	17.88
574.927	17.97
575.121	18.05
575.316	18.18
575.511	18.37
575.706	18.58
575.901	18.58
576.096	18.57
576.29	18.68
576.485	18.85
576.68	18.8
576.875	19
577.069	18.83
577.264	18.64
577.459	18.77
577.654	18.73
577.848	18.7
578.043	18.73
578.238	19.03
578.432	18.86
578.627	18.86
578.821	19.29
579.016	19.65
579.21	19.78
579.405	19.79
579.6	19.72
579.794	19.66
579.989	19.76
580.183	19.82
580.378	19.89
580.572	19.88
580.766	20.02
580.961	20.05
581.155	19.62
581.35	19.72
581.544	19.95
581.738	19.97
581.933	20.35
582.127	20.63
582.321	20.55
582.516	20.42
582.71	20.56
582.904	20.29
583.099	19.86
583.293	20.18
583.487	20.43
583.681	20.33
583.875	20.24
584.07	20.07
584.264	20.12
584.458	19.97
584.652	19.79
584.846	19.74
585.04	19.88
585.234	20.02
585.428	20.01
585.623	19.75
585.817	19.8
586.011	19.67
586.205	19.43
586.399	19.28
586.593	19.91
586.787	19.9
586.981	19.95
587.174	20
587.368	20.11
587.562	20.15
587.756	20.66
587.95	20.66
588.144	21.11
588.338	21.39
588.532	21.39
588.725	21.29
588.919	21.54
589.113	21.64
589.307	21.49
589.501	21.47
589.694	21.42
589.888	21.08
590.082	21.04
590.275	20.83
590.469	20.75
590.663	20.8
590.856	20.96
591.05	20.98
591.244	21.23
591.437	21.33
591.631	21.52
591.824	21.5
592.018	21.65
592.212	21.76
592.405	21.85
592.599	22
592.792	21.85
592.986	21.7
593.179	21.96
593.372	21.75
593.566	21.95
593.759	21.61
593.953	21.75
594.146	21.57
594.339	21.35
594.533	21.34
594.726	21.26
594.92	21.36
595.113	21.39
595.306	20.96
595.499	20.98
595.693	20.97
595.886	21.3
596.079	21.19
596.272	21.17
596.466	21.4
596.659	21.26
596.852	21.39
597.045	21.4
597.238	21.26
597.431	21.31
597.624	21.51
597.818	21.5
598.011	21.24
598.204	21.35
598.397	21.34
598.59	21.28
598.783	21.38
598.976	21.2
599.169	21.13
599.362	21.28
599.555	21.76
599.748	21.67
599.941	22
600.134	22.41
600.326	22.37
600.519	22.64
600.712	22.72
600.905	22.74
601.098	23.19
601.291	23.56
601.483	23.68
601.676	23.41
601.869	23.31
602.062	23.03
602.255	22.76
602.447	22.57
602.64	22.82
602.833	23.08
603.025	23.24
603.218	22.93
603.411	22.83
603.603	22.82
603.796	22.95
603.989	23.04
604.181	23.19
604.374	23.14
604.566	23.12
604.759	23.05
604.951	22.97
605.144	22.86
605.336	23.04
605.529	22.86
605.721	22.89
605.914	22.66
606.106	22.57
606.299	22.61
606.491	22.8
606.683	22.99
606.876	22.73
607.068	22.73
607.26	22.96
607.453	22.96
607.645	23.17
607.837	23.26
608.03	23.32
608.222	23.44
608.414	23.27
608.606	23.1
608.799	23.16
608.991	23.27
609.183	23.11
609.375	22.8
609.567	22.57
609.759	22.56
609.952	22.35
610.144	22.48
610.336	22.26
610.528	22.17
610.72	22.34
610.912	22.3
611.104	22.32
611.296	22.28
611.488	22.3
611.68	22.6
611.872	22.63
612.064	22.77
612.256	22.83
612.448	23.16
612.64	23.26
612.832	23.16
613.023	23.16
613.215	22.83
613.407	23.08
613.599	23.44
613.791	23.2
613.983	23.36
614.174	23.17
614.366	23.27
614.558	23.1
614.75	23
614.941	23.29
615.133	23.21
615.325	23.68
615.516	23.77
615.708	23.54
615.9	23.82
616.091	23.65
616.283	23.86
616.475	23.6
616.666	23.55
616.858	23.47
617.049	23.47
617.241	23.48
617.432	23.36
617.624	23.38
617.815	23.66
618.007	23.49
618.198	23.56
618.39	23.27
618.581	23.33
618.773	23.57
618.964	23.78
619.155	23.49
619.347	23.72
619.538	23.81
619.729	23.65
619.921	23.55
620.112	23.98
620.303	23.96
620.494	24.09
620.686	24.37
620.877	24.45
621.068	24.81
621.259	25.3
621.451	25.34
621.642	25.5
621.833	25.91
622.024	26.07
622.215	25.39
622.406	25.48
622.597	25.7
622.788	25.4
622.98	25.49
623.171	25.02
623.362	24.56
623.553	24.6
623.744	24.47
623.935	23.94
624.126	23.75
624.317	24.02
624.508	24.07
624.698	23.91
624.889	24.11
625.08	23.61
625.271	23.94
625.462	24.03
625.653	23.84
625.844	23.89
626.034	24.23
626.225	24.4
626.416	24.5
626.607	24.55
626.798	24.48
626.988	24.36
627.179	24.59
627.37	24.5
627.56	24.44
627.751	24.32
627.942	24.16
628.132	24.15
628.323	24.02
628.514	23.99
628.704	23.9
628.895	24.14
629.085	24.17
629.276	24.07
629.466	23.97
629.657	24.22
629.847	24.58
630.038	24.63
630.228	24.55
630.419	24.44
630.609	24.45
630.8	24.36
630.99	24.36
631.181	24.32
631.371	24.44
631.561	24.48
631.752	24.56
631.942	24.67
632.132	24.86
632.323	24.73
632.513	25.14
632.703	25.13
632.893	25.1
633.084	24.99
633.274	25.41
633.464	25.26
633.654	25.44
633.844	25
634.034	24.62
634.225	24.46
634.415	24.62
634.605	24.52
634.795	24.72
634.985	25.04
635.175	25.23
635.365	25.02
635.555	25.28
635.745	25.36
635.935	25.46
636.125	25.61
636.315	25.77
636.505	26
636.695	25.94
636.885	25.74
637.075	25.42
637.265	25.35
637.455	25.35
637.644	25.34
637.834	25.1
638.024	25.51
638.214	25.4
638.404	25.5
638.593	25.64
638.783	25.6
638.973	25.79
639.163	26.01
639.352	26.27
639.542	26.4
639.732	26.03
639.921	26.2
640.111	26.19
640.301	26.25
640.49	26.22
640.68	26.24
640.87	25.83
641.059	25.78
641.249	25.77
641.438	25.36
641.628	25.23
641.817	25.67
642.007	25.6
642.196	25.36
642.386	25.22
642.575	25.54
642.764	25
642.954	25.73
643.143	26.07
643.333	26.27
643.522	26.95
643.711	26.92
643.901	27.07
644.09	27.23
644.279	27.55
644.469	27.8
644.658	27.15
644.847	27.37
645.036	27.44
645.226	27.45
645.415	27.02
645.604	26.53
645.793	26.43
645.982	26.4
646.171	26.62
646.361	26.4
646.55	26.57
646.739	26.73
646.928	26.59
647.117	26.11
647.306	25.74
647.495	26.07
647.684	26.05
647.873	26.45
648.062	26.42
648.251	25.94
648.44	25.95
648.629	25.96
648.818	26.18
649.007	26.55
649.196	26.94
649.384	27.33
649.573	27.3
649.762	27.24
649.951	27.08
650.14	26.87
650.328	27.22
650.517	27.43
650.706	27.35
650.895	27.69
651.083	27.33
651.272	27.1
651.461	26.66
651.65	26.56
651.838	26.63
652.027	26.18
652.216	26.37
652.404	26.48
652.593	26.47
652.781	26.59
652.97	26.03
653.158	26.15
653.347	26.23
653.535	26.18
653.724	26.43
653.912	26.3
654.101	27.04
654.289	27.5
654.478	27.59
654.666	27.29
654.855	27.36
655.043	26.97
655.231	27
655.42	27.53
655.608	27.96
655.796	28.12
655.985	27.95
656.173	27.36
656.361	26.86
656.55	26.38
656.738	26.74
656.926	26.51
657.114	26.87
657.302	26.73
657.491	26.55
657.679	26.41
657.867	26.1
658.055	26.38
658.243	27.17
658.431	27.13
658.619	27.26
658.807	26.94
658.996	26.71
659.184	26.88
659.372	27.13
659.56	27.1
659.748	27.13
659.936	26.85
660.124	26.91
660.311	26.28
660.499	25.97
660.687	25.77
660.875	25.99
661.063	26.17
661.251	26.21
661.439	25.95
661.627	25.68
661.814	25.78
662.002	26.64
662.19	27.13
662.378	27.48
662.565	27.83
662.753	28.28
662.941	28.17
663.129	28.16
663.316	28.38
663.504	28.13
663.692	28.42
663.879	28.36
664.067	27.74
664.254	27.24
664.442	27.57
664.63	27.89
664.817	27.78
665.005	27.94
665.192	28.18
665.38	27.92
665.567	28.34
665.755	28.12
665.942	28.37
666.13	28.71
666.317	28.7
666.504	28.29
666.692	28.59
666.879	28.49
667.067	28.46
667.254	28.61
667.441	29.13
667.629	29.24
667.816	29.25
668.003	29.05
668.19	28.75
668.378	29.09
668.565	29.25
668.752	28.73
668.939	29.01
669.127	29.21
669.314	29.24
669.501	28.84
669.688	28.82
669.875	29.06
670.062	28.76
670.249	28.76
670.436	28.55
670.623	28.47
670.81	28.64
670.997	28.29
671.184	27.58
671.371	27.38
671.558	27.3
671.745	27.51
671.932	27.59
672.119	27.9
672.306	27.87
672.493	27.33
672.68	27.07
672.867	27.22
673.054	27.13
673.24	27.58
673.427	27.93
673.614	28.36
673.801	28.36
673.988	28.49
674.174	28.14
674.361	28.41
674.548	28.91
674.734	29.31
674.921	29.31
675.108	29.58
675.294	29.84
675.481	29.47
675.668	29.06
675.854	28.78
676.041	28.54
676.227	28.62
676.414	28.26
676.601	28.18
676.787	27.76
676.974	27.8
677.16	27.99
677.347	28.03
677.533	28.71
677.719	28.53
677.906	28.8
678.092	29.14
678.279	29.34
678.465	29.75
678.651	30.11
678.838	30.23
679.024	29.78
679.21	29.5
679.397	29.42
679.583	28.84
679.769	28.93
679.955	28.23
680.142	27.44
680.328	27.25
680.514	27.08
680.7	26.83
680.886	27
681.073	27.05
681.259	27.12
681.445	26.93
681.631	27.06
681.817	27.4
682.003	28.33
682.189	29.09
682.375	29.11
682.561	29.11
682.747	29.24
682.933	29.1
683.119	29.39
683.305	29.66
683.491	29.98
683.677	29.94
683.863	29.4
684.049	29.35
684.235	29.04
684.42	29.07
684.606	29.27
684.792	29.47
684.978	30.06
685.164	30.18
685.349	29.93
685.535	29.69
685.721	29.78
685.907	29.88
686.092	29.42
686.278	28.97
686.464	29.32
686.649	29.06
686.835	28.39
687.021	27.67
687.206	27.81
687.392	27.43
687.577	27.87
687.763	27.51
687.948	28.01
688.134	27.84
688.319	28.28
688.505	28.13
688.69	28.4
688.876	28.62
689.061	28.7
689.247	28.03
689.432	28.01
689.618	27.89
689.803	28.38
689.988	27.93
690.174	28.05
690.359	27.6
690.544	27.62
690.73	27.61
690.915	27.95
691.1	28.08
691.285	29.14
691.471	29.75
691.656	29.5
691.841	29.53
692.026	29.42
692.211	29.86
692.396	30.84
692.582	30.65
692.767	30.54
692.952	30.29
693.137	30.45
693.322	29.38
693.507	28.98
693.692	28.71
693.877	28.49
694.062	29.06
694.247	28.5
694.432	28.18
694.617	28.67
694.802	28.48
694.987	28.66
695.172	28.31
695.357	29.21
695.541	29.64
695.726	30.13
695.911	29.91
696.096	29.9
696.281	29.91
696.466	29.5
696.65	29.1
696.835	29.32
697.02	29.74
697.204	30.13
697.389	29.94
697.574	30.03
697.759	29.48
697.943	29.38
698.128	29.21
698.312	29.67
698.497	29.77
698.682	29.64
698.866	29.67
699.051	29.3
699.235	28.81
699.42	28.35
699.604	28.41
699.789	28.82
699.973	29.53
700.158	29.54
700.342	29.1
700.527	29.16
700.711	29.46
700.895	29.84
701.08	30.07
701.264	30.94
701.448	31.2
701.633	30.8
701.817	30.22
702.001	29.41
702.186	29.73
702.37	29.8
702.554	29.13
702.738	29.36
702.923	29
703.107	28.31
703.291	27.7
703.475	28.32
703.659	28.83
703.843	29.71
704.027	29.7
704.212	29.75
704.396	29.93
704.58	31.01
704.764	30.71
704.948	29.95
705.132	30.55
705.316	30.5
705.5	29.98
705.684	29.43
705.868	29.59
706.052	30.43
706.235	30.21
706.419	30.76
706.603	30.39
706.787	30.06
706.971	30.95
707.155	31.04
707.339	31.29
707.522	31.07
707.706	31.98
707.89	31.93
708.074	31.52
708.257	31.68
708.441	31.36
708.625	31.69
708.808	32.2
708.992	31.92
709.176	31.99
709.359	32.61
709.543	32.56
709.727	31.5
709.91	31.37
710.094	31.48
710.277	31.55
710.461	31.82
710.644	32.01
710.828	32.14
711.011	32.66
711.195	31.99
711.378	31.32
711.562	31.92
711.745	33.24
711.928	32.85
712.112	32.29
712.295	31.89
712.478	31.02
712.662	29.97
712.845	29.35
713.028	28.86
713.212	29.38
713.395	29.96
713.578	29.84
713.761	28.64
713.945	28.82
714.128	29.66
714.311	29.4
714.494	30.07
714.677	30.69
714.86	31.55
715.043	31.51
715.227	32.28
715.41	31.2
715.593	30.95
715.776	30.94
715.959	31.29
716.142	30.92
716.325	31.07
716.508	31.12
716.691	31.44
716.874	31.16
717.057	31.27
717.239	30.49
717.422	31.02
717.605	31.02
717.788	30.33
717.971	29.83
718.154	29.81
718.337	29.61
718.519	29.44
718.702	28.94
718.885	29.09
719.068	29.45
719.25	29.3
719.433	29.23
719.616	29.25
719.798	30.48
719.981	30.51
720.164	30.57
720.346	30.43
720.529	30.09
720.712	30.07
720.894	28.86
721.077	28.81
721.259	28.95
721.442	29.79
721.624	30.2
721.807	29.98
721.989	30.96
722.172	30.31
722.354	31.57
722.537	32.62
722.719	32.79
722.901	33.56
723.084	33.15
723.266	32.69
723.448	32.34
723.631	31.32
723.813	31.73
723.995	30.78
724.178	31.17
724.36	31.59
724.542	31.57
724.724	31.59
724.907	31.75
725.089	31.85
725.271	32.21
725.453	31.49
725.635	32.49
725.817	31.18
725.999	31.39
726.181	30.63
726.364	29.76
726.546	29.14
726.728	29.27
726.91	29.54
727.092	29.38
727.274	29.89
727.456	29.41
727.638	29.18
727.819	30.59
728.001	30.27
728.183	30.95
728.365	31.84
728.547	31.87
728.729	32.27
728.911	32.23
729.093	32.23
729.274	31.96
729.456	32.85
729.638	32.69
729.82	32.35
730.001	32.14
730.183	32.73
730.365	32.62
730.546	32.9
730.728	32.82
730.91	31.96
731.091	32.15
731.273	31.75
731.455	31.3
731.636	31.37
731.818	31.18
731.999	31.35
732.181	31.2
732.362	30.77
732.544	29.93
732.725	29.07
732.907	29.82
733.088	30.39
733.27	30.81
733.451	31.41
733.633	31.84
733.814	31.94
733.995	31.75
734.177	31.88
734.358	31.15
734.539	32.28
734.721	33.08
734.902	33.06
735.083	32.25
735.264	32.82
735.446	33.53
735.627	33.01
735.808	32.73
735.989	33.71
736.17	33.43
736.351	34.23
736.533	34.19
736.714	33.78
736.895	33.45
737.076	33.61
737.257	33.03
737.438	32.02
737.619	32.33
737.8	32.01
737.981	31.84
738.162	31.88
738.343	31.95
738.524	31.81
738.705	32.19
738.886	32.54
739.067	33.89
739.247	34.21
739.428	34.36
739.609	34.62
739.79	36.4
739.971	36
740.151	36.17
740.332	36.84
740.513	37.36
740.694	37.66
740.874	37.87
741.055	36.39
741.236	35.55
741.417	35.59
741.597	36.29
741.778	35.74
741.958	36.2
742.139	35.25
742.32	34.51
742.5	33.42
742.681	33.48
742.861	33.28
743.042	34.55
743.222	35.17
743.403	35.05
743.583	34.61
743.764	34.07
743.944	33.93
744.124	35.48
744.305	34.69
744.485	33.8
744.666	33.24
744.846	33.14
745.026	31.65
745.207	31.97
745.387	31.82
745.567	31.64
745.747	31.34
745.928	31.7
746.108	30.64
746.288	30.92
746.468	32.43
746.648	32.82
746.829	32.65
747.009	32.68
747.189	32.19
747.369	31.98
747.549	31.47
747.729	30.86
747.909	30.35
748.089	30.76
748.269	31.34
748.449	30.07
748.629	30.18
748.809	29.66
748.989	30.06
749.169	29.92
749.349	28.48
749.529	28.28
749.709	29.67
749.889	29.57
750.068	30.31
750.248	31.23
750.428	31.87
750.608	31.34
750.788	31.97
750.967	31.45
751.147	31.25
751.327	34.11
751.507	33.97
751.686	34.17
751.866	34.43
752.046	33.79
752.225	32.58
752.405	33.16
752.585	33.74
752.764	34.3
752.944	35.51
753.123	35.79
753.303	35.13
753.482	35.1
753.662	33.61
753.841	34.56
754.021	33.59
754.2	33.28
754.38	33.11
754.559	32.62
754.739	31.38
754.918	29.79
755.097	30.19
755.277	29.42
755.456	30.34
755.635	31.6
755.815	30.92
755.994	32.02
756.173	32.07
756.352	32.96
756.532	32.85
756.711	33.56
756.89	34.32
757.069	34.32
757.248	35.83
757.427	35.57
757.607	35.48
757.786	35.71
757.965	36.52
758.144	37.06
758.323	35.29
758.502	35.04
758.681	34.42
758.86	34.57
759.039	34.77
759.218	33.58
759.397	33.32
759.576	32.39
759.755	31.53
759.934	30.6
760.113	30.7
760.291	30.59
760.47	32.1
760.649	32.07
760.828	31.58
761.007	32
761.186	31.53
761.364	31.18
761.543	31.43
761.722	31.15
761.901	31.18
762.079	31.1
762.258	32.21
762.437	30.98
762.615	31.73
762.794	31.97
762.972	30.56
763.151	30.98
763.33	31.77
763.508	31.69
763.687	32.25
763.865	32.52
764.044	32.41
764.222	32.1
764.401	32.33
764.579	32.65
764.758	32.01
764.936	32.17
765.114	32.6
765.293	32.01
765.471	32.15
765.65	32.12
765.828	31.86
766.006	31.18
766.184	30.91
766.363	30.93
766.541	30.35
766.719	31.64
766.898	32.2
767.076	31.51
767.254	31.49
767.432	32.13
767.61	32.23
767.788	32.26
767.967	33.17
768.145	33.16
768.323	31.86
768.501	31.76
768.679	29.79
768.857	29.5
769.035	30.26
769.213	30.28
769.391	29.48
769.569	28.33
769.747	27.59
769.925	27.47
770.103	28.84
770.281	30.61
770.459	30.66
770.636	33.25
770.814	33.64
770.992	33.75
771.17	34.08
771.348	34.98
771.525	36.58
771.703	37.52
771.881	37.98
772.059	37.86
772.236	37.68
772.414	38.72
772.592	37.73
772.769	39.56
772.947	39.69
773.125	41.1
773.302	40.56
773.48	39.06
773.657	38.7
773.835	39.51
774.013	40.38
774.19	40.95
774.368	40.84
774.545	42.1
774.723	39.27
774.9	39.51
775.077	39
775.255	39.05
775.432	39.8
775.61	40.8
775.787	40.93
775.964	38.91
776.142	37.76
776.319	37.21
776.496	35.61
776.674	37.5
776.851	37.39
777.028	37.29
777.205	38.85
777.382	41.13
777.56	39.96
777.737	38.55
777.914	39.21
778.091	41.31
778.268	42.27
778.445	41.99
778.622	40.19
778.8	40.66
778.977	38.52
779.154	36.07
779.331	34.33
779.508	35.15
779.685	35.64
779.862	35.13
780.038	34.67
780.215	33.85
780.392	34.03
780.569	34.95
780.746	33.85
780.923	34.54
781.1	36.48
781.277	37.54
781.453	36.65
781.63	34.34
781.807	36.94
781.984	35.43
782.16	35.3
782.337	35.95
782.514	36.85
782.691	35.46
782.867	38
783.044	36.39
783.221	34.31
783.397	35.15
783.574	37.03
783.75	34.11
783.927	34.54
784.103	34.72
784.28	34.43
784.456	34.31
784.633	36.73
784.809	36.01
784.986	36.76
785.162	37.46
785.339	35.21
785.515	35.27
785.692	34.91
785.868	36.55
786.044	38.23
786.221	37
786.397	37.1
786.573	37.73
786.749	35
786.926	34.74
787.102	35.69
787.278	36.06
787.454	36.53
787.631	36.58
787.807	35.1
787.983	32.07
788.159	33.33
788.335	32.26
788.511	31.09
788.687	31.17
788.863	32
789.039	28.43
789.216	27.78
789.392	25.38
789.568	26.79
789.744	28.67
789.919	29.35
790.095	29.26
790.271	31.02
790.447	30.19
790.623	31.84
790.799	31.39
790.975	33.11
791.151	37.19
791.327	38.19
791.502	38.34
791.678	36.43
791.854	37.26
792.03	39.02
792.205	36.7
792.381	39.65
792.557	40.77
792.733	41.04
792.908	41.25
793.084	39.6
793.259	41.62
793.435	39.62
793.611	41.84
793.786	42.68
793.962	40.04
794.137	41.12
794.313	36.98
794.488	37
794.664	38.08
794.839	40.12
795.015	40.57
795.19	40.17
795.366	40.5
795.541	37.79
795.716	36.72
795.892	37.17
796.067	38.08
796.242	40.23
796.418	38.89
796.593	39.48
796.768	38.12
796.944	36.37
797.119	37.11
797.294	38.31
797.469	37.97
797.644	37.87
797.82	39.03
797.995	38.22
798.17	39.07
798.345	38.59
798.52	35.93
798.695	36.24
798.87	34.86
799.045	34.93
799.22	33.31
799.395	35.44
799.57	34.36
799.745	34.39
799.92	36.12
800.095	33.34
800.27	33.77
800.445	36.17
800.62	34.81
800.795	37.7
800.97	36.71
801.145	37.84
801.319	38.56
801.494	38.74
801.669	38.07
801.844	36.24
802.018	38
802.193	37.24
802.368	36.91
802.543	38.1
802.717	38.57
802.892	38.37
803.067	39.27
803.241	37.57
803.416	37.57
803.59	36.87
803.765	35.66
803.94	33.5
804.114	32.29
804.289	33.38
804.463	34.43
804.638	32.78
804.812	33.84
804.986	34.98
805.161	35.56
805.335	38.76
805.51	39.71
805.684	42.76
805.858	44.58
806.033	46.3
806.207	43.77
806.381	45.34
806.556	43.14
806.73	42.03
806.904	41.78
807.078	42.02
807.253	38.76
807.427	37.34
807.601	35.74
807.775	33.3
807.949	35.27
808.123	35.61
808.298	33.39
808.472	34.51
808.646	35.53
808.82	36.97
808.994	37.47
809.168	40.85
809.342	43.31
809.516	42.82
809.69	44.03
809.864	43.03
810.038	40.57
810.212	42.65
810.385	45.59
810.559	46.42
810.733	43.35
810.907	41.53
811.081	41.76
811.255	38.23
811.428	38.34
811.602	38.66
811.776	34.36
811.95	37.14
812.123	35.7
812.297	35.57
812.471	36.32
812.644	36.89
812.818	40.9
812.992	39.72
813.165	42.39
813.339	44.12
813.512	44.62
813.686	48.22
813.86	49.99
814.033	51.47
814.207	49.79
814.38	49.33
814.554	50.97
814.727	48.65
814.9	47.46
815.074	49.43
815.247	49.99
815.421	48.65
815.594	50.58
815.767	50.6
815.941	45.83
816.114	46.67
816.287	44.19
816.46	41.2
816.634	42.75
816.807	42.52
816.98	41.32
817.153	41.64
817.327	43.21
817.5	41.25
817.673	39.42
817.846	40.57
818.019	37.4
818.192	38.76
818.365	39.49
818.538	37.64
818.711	41.68
818.884	40.32
819.057	36.67
819.23	35.24
819.403	36.6
819.576	34.63
819.749	33.97
819.922	35.37
820.095	33.06
820.268	35.36
820.441	35.84
820.614	32.62
820.786	32.17
820.959	32.52
821.132	34.04
821.305	32.77
821.477	33.58
821.65	32.79
821.823	33.52
821.996	34.18
822.168	32.95
822.341	32.36
822.514	32.23
822.686	32.72
822.859	32.93
823.031	32.98
823.204	33.56
823.376	33.53
823.549	34.45
823.722	33.98
823.894	33.64
824.067	34.04
824.239	34.22
824.411	34.05
824.584	33.91
824.756	33.86
824.929	33.9
825.101	33.48
825.273	33.57
825.446	33.22
825.618	33.89
825.79	33.86
825.963	33.93
826.135	34.59
826.307	35.42
826.479	35.26
826.652	35.73
826.824	35.79
826.996	35.9
827.168	36.65
827.34	37.44
827.512	36.67
827.684	36.74
827.856	36.97
828.029	37.96
828.201	37.73
828.373	37.66
828.545	37.42
828.717	37.42
828.889	38.43
829.061	37.76
829.232	38.1
829.404	37.91
829.576	38.76
829.748	38.29
829.92	36.36
830.092	36.88
830.264	37.44
830.436	38.1
830.607	37.55
830.779	35.7
830.951	35.32
831.123	32.91
831.294	32.85
831.466	33.07
831.638	33.46
831.809	36.16
831.981	38.38
832.153	39.22
832.324	40.86
832.496	40.58
832.667	41.56
832.839	42.19
833.011	44.04
833.182	45.59
833.354	45.18
833.525	44.52
833.697	42.3
833.868	40.25
834.039	39.1
834.211	36.57
834.382	37.69
834.554	39.75
834.725	40.37
834.896	41.04
835.068	40.93
835.239	41.83
835.41	42.34
835.581	42.56
835.753	42.2
835.924	41.98
836.095	42.44
836.266	41.26
836.438	39.25
836.609	37.65
836.78	38.24
836.951	37.85
837.122	36.29
837.293	38.69
837.464	39.55
837.635	40.28
837.806	41.56
837.977	42.93
838.148	43.45
838.319	45.07
838.49	47.63
838.661	43.47
838.832	43.5
839.003	42.95
839.174	39.8
839.345	40.48
839.516	39.52
839.687	40.89
839.857	38.69
840.028	40.07
840.199	40.06
840.37	40.68
840.54	44.24
840.711	45.52
840.882	47.88
841.053	47.34
841.223	47.12
841.394	46.13
841.564	41.7
841.735	44.83
841.906	41.95
842.076	42.21
842.247	42.25
842.417	38.24
842.588	42.28
842.758	43.16
842.929	42.6
843.099	40.7
843.27	44.53
843.44	47.86
843.611	43.61
843.781	48.79
843.951	50.35
844.122	53.48
844.292	57.96
844.462	58.72
844.633	58.05
844.803	59.12
844.973	56.62
845.144	53.87
845.314	50.54
845.484	55.03
845.654	50.98
845.824	54.09
845.995	49
846.165	47.82
846.335	42.9
846.505	41.96
846.675	41.32
846.845	49.17
847.015	56.44
847.185	64.88
847.355	62.36
847.525	64.3
847.695	57.07
847.865	54.54
848.035	50.45
848.205	45.1
848.375	53.25
848.545	56.36
848.715	50.61
848.884	49.76
849.054	47.7
849.224	50.38
849.394	52.7
849.564	47.88
849.733	48.7
849.903	56.93
850.073	65.79
850.243	54.09
850.412	49.67
850.582	42.33
850.752	35.05
850.921	33.65
851.091	39.88
851.26	35.53
851.43	38.72
851.599	38.82
851.769	33.09
851.939	34.88
852.108	38.3
852.278	43.79
852.447	51.84
852.616	60.24
852.786	70.45
852.955	62.09
853.125	71.66
853.294	68.27
853.463	69.9
853.633	65.68
853.802	62.15
853.971	70.26
854.141	59.8
854.31	62.83
854.479	60.45
854.648	51.76
854.818	51.71
854.987	48.61
855.156	52.83
855.325	52.3
855.494	59.41
855.663	58.25
855.832	50.15
856.001	54.62
856.171	50.01
856.34	43.16
856.509	41.53
856.678	46.32
856.847	45.21
857.016	45.75
857.185	52.27
857.353	50.56
857.522	55.11
857.691	50.34
857.86	47.97
858.029	53.53
858.198	59.71
858.367	57.03
858.535	45.54
858.704	42.92
858.873	39.1
859.042	32.53
859.21	30.12
859.379	19.38
859.548	29.75
859.717	38.41
859.885	39.03
860.054	44.09
860.222	48.76
860.391	48.12
860.56	53.93
860.728	53.36
860.897	55.24
861.065	53.28
861.234	60.53
861.402	58.22
861.571	59.29
861.739	60.56
861.908	62.74
862.076	52.78
862.244	57.24
862.413	50.08
862.581	53.46
862.749	51.48
862.918	61.44
863.086	64.79
863.254	67.86
863.423	55.24
863.591	47.2
863.759	48.09
863.927	57.85
864.096	60.77
864.264	54.38
864.432	56.59
864.6	54.16
864.768	45.92
864.936	40.28
865.104	38.38
865.272	44.93
865.44	49.78
865.608	45.83
865.776	46.91
865.944	42.84
866.112	48.41
866.28	39.71
866.448	39.93
866.616	42.07
866.784	43.09
866.952	44.91
867.12	37.53
867.288	39.86
867.455	40.88
867.623	37.86
867.791	37.28
867.959	47.66
868.127	51.34
868.294	51.72
868.462	59.35
868.63	73.78
868.797	77.11
868.965	81.58
869.133	77.41
869.3	71.31
869.468	78.77
869.636	77.09
869.803	72.64
869.971	82.82
870.138	73.74
870.306	67.22
870.473	54.72
870.641	49.6
870.808	47.06
870.975	41.74
871.143	45.99
871.31	40.72
871.478	48.37
871.645	44.05
871.812	36.62
871.98	57.49
872.147	48.38
872.314	54.31
872.482	46.88
872.649	43.72
872.816	54.79
872.983	48.06
873.15	52.76
873.318	42.42
873.485	40.31
873.652	36.86
873.819	35.7
873.986	39.95
874.153	35.43
874.32	41.76
874.487	41.83
874.654	41.15
874.821	51.16
874.988	48.94
875.155	48.37
875.322	46.21
875.489	51.65
875.656	49.79
875.823	56.6
875.99	65.8
876.157	59.3
876.324	63.86
876.49	67.17
876.657	69.31
876.824	69.1
876.991	68.13
877.157	74.1
877.324	69.67
877.491	66.71
877.658	54.57
877.824	46.13
877.991	50.55
878.157	52.49
878.324	50.6
878.491	28.75
878.657	35.35
878.824	39.92
878.99	46.82
879.157	50.11
879.323	45.72
879.49	40.51
879.656	42.91
879.823	37.33
879.989	37.87
880.156	39.68
880.322	41.67
880.488	40.59
880.655	41.31
880.821	39.69
880.987	40.81
881.154	41.78
881.32	45.69
881.486	52.24
881.652	54.13
881.819	51.01
881.985	45.93
882.151	46.83
882.317	46.37
882.483	44.99
882.649	44.22
882.816	42.45
882.982	42.64
883.148	40.65
883.314	38.17
883.48	36.61
883.646	35.69
883.812	36.69
883.978	38.71
884.144	39.11
884.31	39.55
884.476	40.2
884.642	41.44
884.807	42.17
884.973	44.29
885.139	45.39
885.305	46.8
885.471	46.21
885.637	47.78
885.802	46.35
885.968	46.06
886.134	46.24
886.3	47.2
886.465	43.02
886.631	43.02
886.797	44.18
886.962	43.09
887.128	43.58
887.293	46.94
887.459	44.45
887.625	47.24
887.79	48.58
887.956	48.43
888.121	45.86
888.287	53.29
888.452	52.21
888.618	48.94
888.783	49.56
