Data from CB_022_Reflection_1.txt Node
Date: Wed Nov 11 20:13:46 EST 2015
User: robert
Spectrometer: USB4E03001
Autoset integration time: false
Trigger mode: 4
Integration Time (sec): 1.000000E-1
Scans to average: 15
Electric dark correction enabled: true
Nonlinearity correction enabled: false
Boxcar width: 5
Stray light correction enabled: false
XAxis mode: Wavelengths
Stop averaging: false
Number of Pixels in Spectrum: 3648
>>>>>Begin Spectral Data<<<<<
177.566	-55.62
177.785	-80.32
178.005	127.78
178.225	13.28
178.445	-82.31
178.665	-96.32
178.885	460.91
179.105	3167.39
179.324	278.65
179.544	287.07
179.764	-228.4
179.984	-403.07
180.204	14987.5
180.423	223.97
180.643	-1044.09
180.863	2628.51
181.083	226.57
181.302	517.55
181.522	838.15
181.742	-1843.35
181.961	-211.18
182.181	-2833.33
182.401	692.74
182.621	81.63
182.84	74.94
183.06	99.46
183.279	78.12
183.499	76.58
183.719	112.77
183.938	92.64
184.158	88.93
184.377	67.02
184.597	115.73
184.816	69.45
185.036	-6
185.256	-15.72
185.475	-3.53
185.695	26.67
185.914	-30.03
186.134	-925.43
186.353	306.56
186.572	76.45
186.792	169.69
187.011	451.39
187.231	523.65
187.45	126.66
187.67	67.07
187.889	31.46
188.108	89.23
188.328	133.49
188.547	193.88
188.766	397.11
188.986	1534.67
189.205	1687.39
189.424	368.12
189.644	220.96
189.863	155.19
190.082	449.44
190.302	92.41
190.521	77.69
190.74	4.87
190.959	-7.66
191.178	-1.74
191.398	24.02
191.617	25.62
191.836	60.57
192.055	-16.75
192.274	71.57
192.494	222.2
192.713	526.78
192.932	743.81
193.151	-138.08
193.37	-101.39
193.589	-152.06
193.808	-180.7
194.027	-177.69
194.246	-297.21
194.465	-66.16
194.685	-393.7
194.904	554.33
195.123	-540.71
195.342	-77.11
195.561	-131.86
195.78	-3990.29
195.999	-23.87
196.218	-72.63
196.436	-205.34
196.655	786.83
196.874	402.2
197.093	290.75
197.312	20.39
197.531	-163.24
197.75	94.59
197.969	305.13
198.188	291.87
198.407	209.52
198.625	224.71
198.844	339.74
199.063	-870.8
199.282	-639.73
199.501	-805.1
199.719	-975.65
199.938	-756.16
200.157	4261.72
200.376	-268.69
200.594	-1319.92
200.813	-596.05
201.032	586.19
201.251	431.73
201.469	433.43
201.688	231.66
201.907	384.63
202.125	269.19
202.344	958.99
202.563	380.96
202.781	524.32
203	197.09
203.218	111.37
203.437	284.42
203.656	429.53
203.874	367.31
204.093	1135.06
204.311	623.26
204.53	169.62
204.748	231.62
204.967	364.52
205.185	5127.62
205.404	-163.26
205.622	-25.14
205.841	1.8
206.059	-24.76
206.278	-31.02
206.496	-31.92
206.715	-143.88
206.933	-83.28
207.151	-172.38
207.37	-197.69
207.588	-294.92
207.806	-200.95
208.025	-291.74
208.243	429.51
208.461	253.18
208.68	185.67
208.898	-1577.13
209.116	-161.66
209.335	-681.72
209.553	-53.71
209.771	-266
209.989	253.7
210.208	62.85
210.426	91.76
210.644	128.78
210.862	76.66
211.081	-47.48
211.299	24.21
211.517	-53.93
211.735	-129.68
211.953	-72.64
212.171	-68
212.39	286.03
212.608	73.82
212.826	123.92
213.044	182.95
213.262	161.86
213.48	117
213.698	132.35
213.916	155.38
214.134	185.2
214.352	57.77
214.57	115.41
214.788	115.62
215.006	223.83
215.224	101.89
215.442	239.5
215.66	254
215.878	418.06
216.096	299.55
216.314	345.66
216.532	497.58
216.75	774.15
216.968	303.64
217.185	162.54
217.403	180.36
217.621	408.97
217.839	157.4
218.057	203.06
218.275	95.03
218.492	122.96
218.71	114.95
218.928	78.79
219.146	137.65
219.363	656.7
219.581	-269.53
219.799	-10.12
220.017	-80.68
220.234	-72.68
220.452	-157.78
220.67	-441.98
220.887	3027.3
221.105	-487.52
221.323	-100.91
221.54	-79.3
221.758	-305.69
221.976	-120.07
222.193	-118.42
222.411	-52.25
222.629	-76.31
222.846	-86.6
223.064	3.36
223.281	18.13
223.499	10.09
223.716	-31.15
223.934	-46.83
224.151	-29.64
224.369	-24.66
224.586	-27.57
224.804	-55.64
225.021	-52.5
225.239	-66.88
225.456	-85.65
225.674	-63.59
225.891	-74.6
226.108	-65.72
226.326	-66.36
226.543	-37.43
226.76	-26.1
226.978	-24.78
227.195	-3.57
227.413	18.66
227.63	12.63
227.847	5.1
228.064	1.95
228.282	6.86
228.499	3.72
228.716	9.4
228.934	10.41
229.151	9.66
229.368	9.99
229.585	10.33
229.802	4.45
230.02	6.45
230.237	7.72
230.454	9.12
230.671	5.33
230.888	8.04
231.105	7.83
231.323	7.74
231.54	8.92
231.757	10.95
231.974	4.71
232.191	-1.21
232.408	-2.74
232.625	1.65
232.842	5.2
233.059	6.25
233.276	10.3
233.493	1.54
233.71	-4.14
233.927	4.62
234.144	-2.03
234.361	2.66
234.578	14.25
234.795	10.4
235.012	11.49
235.229	4.78
235.446	8
235.663	1.58
235.879	5.97
236.096	11.54
236.313	2.07
236.53	2.22
236.747	5.23
236.964	-0.45
237.181	3.57
237.397	-2.77
237.614	3.4
237.831	-0.08
238.048	-4.86
238.264	-6.27
238.481	-7.16
238.698	-14.07
238.915	-4.01
239.131	-10.05
239.348	-4.87
239.565	1.54
239.781	5.98
239.998	0.64
240.215	3.43
240.431	5.21
240.648	3.17
240.865	3.68
241.081	6.64
241.298	2.73
241.514	5.93
241.731	6.17
241.947	3.53
242.164	1.61
242.38	3.17
242.597	2.26
242.814	2.43
243.03	5.71
243.246	5.35
243.463	5.87
243.679	5.1
243.896	5.74
244.112	5.87
244.329	11.17
244.545	10.88
244.762	10.9
244.978	12.5
245.194	15.13
245.411	12.84
245.627	12.41
245.843	11.82
246.06	11.07
246.276	10.75
246.492	8.29
246.709	6.94
246.925	7.93
247.141	7.81
247.357	7.5
247.574	6.86
247.79	7.07
248.006	6.77
248.222	7.35
248.439	7.64
248.655	5.85
248.871	6.43
249.087	4.59
249.303	4.88
249.519	5.02
249.736	4.39
249.952	5.03
250.168	4.15
250.384	3.92
250.6	1.26
250.816	1.14
251.032	4.92
251.248	7.39
251.464	8.97
251.68	8.69
251.896	7.06
252.112	7.38
252.328	6.2
252.544	5.4
252.76	5.06
252.976	8.64
253.192	8.66
253.408	6.14
253.624	4.1
253.84	2.48
254.056	-0.82
254.272	2.35
254.487	1.24
254.703	0.95
254.919	4.61
255.135	4.63
255.351	-1.6
255.567	4.25
255.782	4.47
255.998	4.13
256.214	0.15
256.43	1.85
256.646	-0.11
256.861	3.1
257.077	2.19
257.293	-1.25
257.508	-0.6
257.724	0.74
257.94	-1.18
258.155	1.71
258.371	2.56
258.587	6.35
258.802	6.16
259.018	6.4
259.234	5.28
259.449	5.8
259.665	6.27
259.88	7.19
260.096	7.54
260.312	8.1
260.527	6.84
260.743	7.12
260.958	6.54
261.174	7.81
261.389	7.29
261.605	9.03
261.82	9.95
262.036	11.34
262.251	9.47
262.466	9.91
262.682	10.13
262.897	10.71
263.113	10.76
263.328	12.36
263.543	8.91
263.759	10.87
263.974	8.7
264.189	6.92
264.405	4.14
264.62	5.19
264.835	5.17
265.051	1.63
265.266	3.29
265.481	4.48
265.696	2.56
265.912	3.8
266.127	2.95
266.342	2.92
266.557	3.83
266.773	3.69
266.988	3.12
267.203	1.72
267.418	3.25
267.633	3.56
267.848	3.08
268.064	3.62
268.279	4.81
268.494	4.26
268.709	5.53
268.924	3.91
269.139	4.27
269.354	5.43
269.569	5.28
269.784	5.73
269.999	6.74
270.214	6.87
270.429	5.51
270.644	6.1
270.859	5.98
271.074	6.22
271.289	7.66
271.504	7.86
271.719	7.28
271.934	6.58
272.149	7.01
272.363	5.78
272.578	4.57
272.793	4.47
273.008	3.59
273.223	3.52
273.438	0.84
273.653	-0.13
273.867	-0.35
274.082	-0.76
274.297	0.93
274.512	0.88
274.726	0.7
274.941	-0.03
275.156	0.83
275.371	0.58
275.585	1.37
275.8	2.53
276.015	3.75
276.229	4.91
276.444	7.18
276.659	5.53
276.873	4.92
277.088	4.24
277.302	5.06
277.517	6.85
277.732	5.91
277.946	5.95
278.161	6.09
278.375	4.43
278.59	2.59
278.804	-0.47
279.019	1.42
279.233	-0.78
279.448	0.72
279.662	2.54
279.877	1.28
280.091	3.19
280.306	4.04
280.52	5.33
280.735	6.23
280.949	7.84
281.163	9.15
281.378	9.03
281.592	10.49
281.806	9.37
282.021	9.3
282.235	8.17
282.449	7.12
282.664	7.37
282.878	6.99
283.092	6.21
283.307	4.63
283.521	3.74
283.735	3.3
283.949	2
284.164	3.18
284.378	2.84
284.592	4.2
284.806	3.45
285.02	3.28
285.234	3.24
285.449	3.29
285.663	3.7
285.877	4.88
286.091	4.46
286.305	5.23
286.519	4.94
286.733	5.73
286.947	6.2
287.161	7.43
287.375	6.32
287.589	6.47
287.803	6.03
288.017	6.22
288.231	4.38
288.445	5.92
288.659	6.37
288.873	6.22
289.087	4.83
289.301	3.58
289.515	3.84
289.729	4.76
289.943	4.92
290.157	7.22
290.371	8.01
290.584	8.45
290.798	7.05
291.012	6.26
291.226	5.88
291.44	6.62
291.654	6.42
291.867	6.23
292.081	5.59
292.295	5.13
292.509	4.34
292.722	3.89
292.936	5.91
293.15	6.95
293.364	6.49
293.577	7.8
293.791	7.5
294.005	8.63
294.218	8.65
294.432	9.63
294.645	8.73
294.859	8.81
295.073	9.07
295.286	9.18
295.5	8.47
295.713	9.69
295.927	9.35
296.14	9.03
296.354	8.29
296.568	7.73
296.781	7.86
296.994	8.03
297.208	8.24
297.421	7.63
297.635	7.4
297.848	7.39
298.062	7.4
298.275	8.73
298.489	9.59
298.702	9.92
298.915	10.72
299.129	10.54
299.342	11.35
299.555	11.03
299.769	11.14
299.982	11.1
300.195	11.48
300.409	12.1
300.622	10.09
300.835	9.41
301.048	10.17
301.262	10.1
301.475	10.09
301.688	10.01
301.901	9.92
302.115	10.36
302.328	9.63
302.541	10.99
302.754	10.19
302.967	11.18
303.18	11.22
303.393	9.41
303.607	8.35
303.82	8.64
304.033	8.5
304.246	8.99
304.459	9.78
304.672	10.56
304.885	8.92
305.098	9.81
305.311	9.19
305.524	9.82
305.737	10.74
305.95	12.05
306.163	11.4
306.376	10.94
306.589	9.98
306.802	8.88
307.015	8.13
307.228	9.09
307.44	7.44
307.653	7.36
307.866	6.48
308.079	7.29
308.292	6.17
308.505	5.91
308.718	6.82
308.93	7.72
309.143	7.4
309.356	7.96
309.569	8.17
309.781	8.58
309.994	8.95
310.207	8.67
310.42	9.28
310.632	9.23
310.845	9.45
311.058	10.06
311.27	9.7
311.483	10.44
311.696	10.5
311.908	9.87
312.121	10.05
312.333	9.21
312.546	10.32
312.759	9.94
312.971	10.53
313.184	11.42
313.396	10.98
313.609	12.41
313.821	11.77
314.034	11.85
314.246	11.99
314.459	12.65
314.671	12.91
314.884	11.75
315.096	12.02
315.309	12.96
315.521	12.88
315.733	12.65
315.946	11.41
316.158	12.64
316.371	12.57
316.583	12.32
316.795	12.02
317.008	13.24
317.22	13.31
317.432	12.75
317.644	11.24
317.857	11.19
318.069	11.79
318.281	11.79
318.494	11.28
318.706	11.28
318.918	10.87
319.13	11.25
319.342	11.24
319.555	12.06
319.767	11.63
319.979	12.57
320.191	12.24
320.403	12.41
320.615	12.54
320.827	11.48
321.039	10.66
321.252	12.27
321.464	11.73
321.676	11.52
321.888	12.15
322.1	13.07
322.312	13.68
322.524	13.37
322.736	12.34
322.948	12.39
323.16	13.68
323.372	16.34
323.584	16.23
323.796	17.2
324.007	16.82
324.219	16.31
324.431	16.3
324.643	15.95
324.855	16.68
325.067	17.51
325.279	18.7
325.491	18.68
325.702	16.8
325.914	17.24
326.126	16.45
326.338	17.09
326.55	16.87
326.761	17.32
326.973	17.81
327.185	18.08
327.396	17.91
327.608	16.95
327.82	16.7
328.032	16.62
328.243	15.63
328.455	17.5
328.666	17.62
328.878	18.79
329.09	17.45
329.301	16.74
329.513	16.06
329.725	16.52
329.936	17.03
330.148	17.67
330.359	18.61
330.571	18.26
330.782	15.85
330.994	15.61
331.205	13.81
331.417	16.05
331.628	15.68
331.84	15.06
332.051	15.43
332.262	15.43
332.474	15.75
332.685	15.23
332.897	15.87
333.108	16.29
333.319	15.97
333.531	17.55
333.742	17.14
333.953	17.99
334.165	18.89
334.376	18.37
334.587	16.83
334.799	16.61
335.01	17.24
335.221	18.12
335.432	18.55
335.644	18.27
335.855	17.59
336.066	17.27
336.277	16.44
336.488	15.46
336.7	15.1
336.911	16.56
337.122	15.66
337.333	15.49
337.544	14.02
337.755	13.92
337.966	14.51
338.177	14.35
338.388	15.04
338.599	15.71
338.811	16.32
339.022	16.87
339.233	16.91
339.444	18.04
339.655	17.5
339.866	18.31
340.076	18.11
340.287	17.91
340.498	18.56
340.709	17.49
340.92	17.65
341.131	17.87
341.342	17.83
341.553	17.41
341.764	17.61
341.975	17.38
342.185	17.96
342.396	18.56
342.607	18.78
342.818	18.82
343.029	20.13
343.239	19.79
343.45	20.22
343.661	19.53
343.872	19.14
344.082	18.35
344.293	19
344.504	18.52
344.714	17.68
344.925	17.83
345.136	16.66
345.346	15.55
345.557	16.59
345.768	15.84
345.978	16.34
346.189	15.99
346.399	15.93
346.61	15.64
346.821	15.65
347.031	16.42
347.242	16.33
347.452	16.66
347.663	16.73
347.873	16.35
348.084	16.56
348.294	16.78
348.504	17.25
348.715	17.94
348.925	18.46
349.136	18.4
349.346	17.29
349.557	16.29
349.767	17.25
349.977	17.67
350.188	16.08
350.398	16.43
350.608	16.38
350.819	16.45
351.029	16.18
351.239	15.58
351.449	15.31
351.66	15.4
351.87	16.8
352.08	16.27
352.29	15.31
352.501	15.95
352.711	15.77
352.921	14.95
353.131	15.23
353.341	14.23
353.552	14.98
353.762	15.45
353.972	14.97
354.182	13.41
354.392	12.41
354.602	12.97
354.812	13.29
355.022	12.96
355.232	13.09
355.442	13.64
355.652	14.03
355.862	13.31
356.072	13.59
356.282	14.68
356.492	14.88
356.702	15.26
356.912	14.88
357.122	14.9
357.332	14.87
357.542	15.06
357.752	14.42
357.962	14.42
358.171	14.25
358.381	14.19
358.591	13.89
358.801	14.64
359.011	14.85
359.221	14.18
359.43	13.51
359.64	13.88
359.85	14.59
360.06	14.14
360.269	14.69
360.479	15.07
360.689	14.75
360.899	15
361.108	14.33
361.318	14.67
361.528	15.51
361.737	16.44
361.947	16.57
362.156	16.35
362.366	16.32
362.576	15.82
362.785	16.05
362.995	16.24
363.204	15.96
363.414	16.64
363.623	16.52
363.833	15.62
364.042	14.98
364.252	14.72
364.461	14.03
364.671	14.54
364.88	14.65
365.09	14.52
365.299	14.44
365.509	14.41
365.718	13.95
365.927	13.27
366.137	14.19
366.346	14.66
366.555	14.32
366.765	14.6
366.974	14.33
367.183	13.93
367.393	14.07
367.602	13.87
367.811	13.79
368.021	13.79
368.23	14.35
368.439	14.11
368.648	14.11
368.857	14.41
369.067	14.19
369.276	14.7
369.485	15.2
369.694	14.7
369.903	13.91
370.112	13.45
370.321	13.45
370.531	13.47
370.74	13.42
370.949	13.33
371.158	13.19
371.367	12.56
371.576	12.56
371.785	12.24
371.994	12.09
372.203	12.89
372.412	13.62
372.621	13.86
372.83	13.7
373.039	13.3
373.248	12.73
373.457	12.69
373.666	13.49
373.874	12.84
374.083	12.66
374.292	12.16
374.501	11.67
374.71	11.58
374.919	11.12
375.128	10.39
375.336	11.23
375.545	11.52
375.754	11.32
375.963	10.73
376.171	10.88
376.38	11.19
376.589	11.45
376.798	11.44
377.006	11.3
377.215	11.42
377.424	11.94
377.632	11.51
377.841	11.03
378.05	11.21
378.258	11.49
378.467	11.28
378.675	11.41
378.884	11.41
379.093	11.48
379.301	10.94
379.51	10.79
379.718	10.72
379.927	10.47
380.135	10.36
380.344	10.02
380.552	10.77
380.761	10.9
380.969	10.78
381.177	11.03
381.386	11.31
381.594	11.86
381.803	12.16
382.011	12.42
382.219	12.69
382.428	13.46
382.636	13.36
382.845	12.19
383.053	12.05
383.261	11.9
383.469	11.64
383.678	11.37
383.886	10.77
384.094	10.33
384.302	9.9
384.511	9.53
384.719	9.18
384.927	9.41
385.135	9.39
385.343	9.63
385.552	9.63
385.76	9.69
385.968	9.57
386.176	9.79
386.384	10.01
386.592	9.95
386.8	10.02
387.008	10.18
387.216	9.67
387.424	9.91
387.633	9.45
387.841	9.29
388.049	8.55
388.257	8.71
388.465	8.98
388.672	8.79
388.88	8.91
389.088	9.21
389.296	8.79
389.504	9.38
389.712	9.47
389.92	9.83
390.128	9.93
390.336	10.55
390.544	10.12
390.751	9.98
390.959	9.75
391.167	9.97
391.375	9.66
391.583	9.79
391.79	9.62
391.998	9.59
392.206	9.37
392.414	9.74
392.621	9.87
392.829	10.15
393.037	9.96
393.244	10.31
393.452	9.91
393.66	10.1
393.867	10.41
394.075	10.29
394.283	9.8
394.49	9.82
394.698	9.57
394.905	9.44
395.113	9.54
395.32	9.84
395.528	9.41
395.735	9.35
395.943	9.19
396.15	8.72
396.358	8.7
396.565	9.02
396.773	8.9
396.98	8.6
397.188	8.47
397.395	8.33
397.602	7.79
397.81	8.03
398.017	7.83
398.225	7.95
398.432	8.02
398.639	8.08
398.847	7.84
399.054	8.18
399.261	8.02
399.468	7.91
399.676	7.76
399.883	7.96
400.09	7.79
400.297	8.34
400.505	8.62
400.712	8.47
400.919	8.57
401.126	8.88
401.333	8.47
401.54	8.7
401.748	8.48
401.955	8.4
402.162	8.58
402.369	8.69
402.576	8.35
402.783	7.85
402.99	7.77
403.197	7.86
403.404	7.89
403.611	7.93
403.818	7.91
404.025	8.25
404.232	8.09
404.439	7.96
404.646	7.88
404.853	7.87
405.06	7.9
405.267	8.03
405.474	7.61
405.681	7.37
405.887	7.45
406.094	7.28
406.301	7.33
406.508	7.5
406.715	7.74
406.922	7.77
407.128	7.7
407.335	7.42
407.542	7.06
407.749	7.08
407.955	7.27
408.162	7.23
408.369	7.25
408.575	7.15
408.782	7.14
408.989	6.96
409.195	6.96
409.402	6.94
409.609	6.99
409.815	7.18
410.022	6.96
410.228	7.06
410.435	7.02
410.642	7.1
410.848	6.93
411.055	7
411.261	6.7
411.468	6.73
411.674	6.83
411.881	7.01
412.087	7.01
412.294	7.43
412.5	7.36
412.706	7.3
412.913	6.96
413.119	6.89
413.326	6.9
413.532	6.88
413.738	7.06
413.945	7.06
414.151	7.17
414.357	7.09
414.564	7.04
414.77	7.11
414.976	7.39
415.182	7.56
415.389	7.85
415.595	7.85
415.801	8.11
416.007	7.88
416.214	8.12
416.42	7.91
416.626	8.25
416.832	8.3
417.038	8.01
417.244	8.02
417.45	8.16
417.657	8.07
417.863	8.08
418.069	7.96
418.275	8.09
418.481	7.93
418.687	7.83
418.893	7.79
419.099	7.97
419.305	8.1
419.511	8.05
419.717	8.14
419.923	8.1
420.129	8.19
420.335	8.31
420.541	8.09
420.746	8.1
420.952	8.22
421.158	8.16
421.364	8.06
421.57	8.03
421.776	7.96
421.982	7.77
422.187	7.71
422.393	7.57
422.599	7.48
422.805	7.72
423.01	7.53
423.216	7.55
423.422	7.33
423.628	7.14
423.833	7.25
424.039	7.01
424.245	7.19
424.45	7.34
424.656	7.34
424.862	7.25
425.067	6.95
425.273	7.21
425.478	7.1
425.684	7.28
425.889	7.25
426.095	7.07
426.301	7.25
426.506	7.05
426.712	6.94
426.917	6.9
427.123	7.04
427.328	7.23
427.533	7.23
427.739	7.26
427.944	7.17
428.15	7.43
428.355	7.35
428.561	7.28
428.766	7.36
428.971	7.26
429.177	7.22
429.382	6.88
429.587	6.85
429.793	6.72
429.998	6.54
430.203	6.34
430.408	6.25
430.614	6.48
430.819	6.66
431.024	6.69
431.229	6.93
431.434	7.06
431.64	7.25
431.845	7.26
432.05	7.21
432.255	7.49
432.46	7.73
432.665	7.7
432.87	7.53
433.076	7.47
433.281	7.43
433.486	7.36
433.691	7.49
433.896	7.5
434.101	7.47
434.306	7.52
434.511	7.37
434.716	7.4
434.921	7.39
435.126	7.53
435.331	7.61
435.535	7.47
435.74	7.39
435.945	7.21
436.15	7.23
436.355	7.37
436.56	7.45
436.765	7.5
436.97	7.39
437.174	7.53
437.379	7.62
437.584	7.51
437.789	7.79
437.993	7.97
438.198	8.08
438.403	8.13
438.608	8.06
438.812	8.07
439.017	8.2
439.222	8.13
439.426	8.05
439.631	8.09
439.836	8.27
440.04	8.29
440.245	8.29
440.45	8.24
440.654	8.07
440.859	8.16
441.063	7.98
441.268	7.87
441.472	8.09
441.677	7.93
441.881	7.81
442.086	7.91
442.29	7.78
442.495	7.76
442.699	7.94
442.904	7.94
443.108	7.97
443.312	8.16
443.517	8.35
443.721	8.24
443.925	8.33
444.13	8.2
444.334	7.98
444.538	7.92
444.743	7.71
444.947	7.48
445.151	7.66
445.356	7.52
445.56	7.49
445.764	7.32
445.968	7.34
446.173	7.48
446.377	7.58
446.581	7.6
446.785	7.62
446.989	7.75
447.193	7.84
447.398	7.69
447.602	7.73
447.806	7.62
448.01	7.69
448.214	7.73
448.418	7.66
448.622	7.66
448.826	7.59
449.03	7.6
449.234	7.41
449.438	7.32
449.642	7.68
449.846	7.51
450.05	7.55
450.254	7.48
450.458	7.36
450.662	7.38
450.866	7.48
451.069	7.42
451.273	7.43
451.477	7.49
451.681	7.53
451.885	7.21
452.089	7.3
452.292	7.35
452.496	7.36
452.7	7.47
452.904	7.35
453.107	7.29
453.311	7.37
453.515	7.44
453.719	7.65
453.922	7.56
454.126	7.37
454.33	7.46
454.533	7.55
454.737	7.62
454.94	7.56
455.144	7.31
455.348	7.28
455.551	7.29
455.755	7.26
455.958	6.89
456.162	6.84
456.365	7.19
456.569	7.5
456.772	7.41
456.976	7.46
457.179	7.39
457.383	7.71
457.586	7.81
457.79	7.84
457.993	7.68
458.196	7.94
458.4	8.11
458.603	8.04
458.807	7.97
459.01	7.95
459.213	7.8
459.417	7.89
459.62	7.87
459.823	7.7
460.026	7.62
460.23	7.81
460.433	7.71
460.636	7.65
460.839	7.74
461.042	7.45
461.246	7.57
461.449	7.73
461.652	7.82
461.855	7.87
462.058	7.99
462.261	8.15
462.464	8.03
462.668	8.01
462.871	8.14
463.074	8.02
463.277	8.27
463.48	8.16
463.683	8.13
463.886	8.07
464.089	8.01
464.292	7.84
464.495	7.8
464.698	7.81
464.901	7.83
465.104	7.68
465.306	7.62
465.509	7.62
465.712	7.61
465.915	7.53
466.118	7.42
466.321	7.38
466.524	7.64
466.726	7.77
466.929	7.69
467.132	7.69
467.335	7.67
467.538	7.88
467.74	7.71
467.943	7.75
468.146	7.97
468.348	8.12
468.551	8.26
468.754	8.04
468.956	7.88
469.159	7.93
469.362	7.91
469.564	8
469.767	7.99
469.969	8
470.172	7.95
470.375	7.91
470.577	7.6
470.78	7.47
470.982	7.71
471.185	7.75
471.387	7.84
471.59	8.13
471.792	8.02
471.995	7.86
472.197	7.99
472.399	8.12
472.602	7.87
472.804	8.13
473.007	8.28
473.209	8.17
473.411	8.06
473.614	7.94
473.816	7.84
474.018	7.73
474.22	7.66
474.423	7.7
474.625	7.69
474.827	7.78
475.03	7.6
475.232	7.42
475.434	7.42
475.636	7.45
475.838	7.62
476.04	7.6
476.243	7.73
476.445	7.99
476.647	7.84
476.849	7.74
477.051	7.58
477.253	7.74
477.455	7.76
477.657	7.88
477.859	7.91
478.061	7.75
478.263	7.5
478.465	7.39
478.667	7.29
478.869	7.31
479.071	7.22
479.273	7.37
479.475	7.2
479.677	7.13
479.879	6.81
480.081	6.93
480.283	7.13
480.485	7.35
480.686	7.37
480.888	7.23
481.09	7.37
481.292	7.39
481.494	7.33
481.695	7.43
481.897	7.51
482.099	7.64
482.301	7.63
482.502	7.52
482.704	7.58
482.906	7.66
483.107	7.73
483.309	7.68
483.511	7.67
483.712	7.74
483.914	7.75
484.115	7.78
484.317	7.75
484.519	7.74
484.72	7.77
484.922	7.75
485.123	7.72
485.325	7.7
485.526	7.69
485.728	7.71
485.929	7.71
486.131	7.64
486.332	7.62
486.534	7.72
486.735	7.73
486.936	7.78
487.138	7.81
487.339	7.83
487.541	7.82
487.742	7.81
487.943	7.85
488.144	7.76
488.346	7.77
488.547	7.71
488.748	7.6
488.95	7.56
489.151	7.52
489.352	7.43
489.553	7.45
489.755	7.45
489.956	7.43
490.157	7.38
490.358	7.38
490.559	7.4
490.76	7.46
490.961	7.55
491.163	7.43
491.364	7.41
491.565	7.37
491.766	7.4
491.967	7.5
492.168	7.6
492.369	7.69
492.57	7.68
492.771	7.68
492.972	7.73
493.173	7.69
493.374	7.89
493.575	7.88
493.776	8
493.976	7.94
494.177	7.83
494.378	7.69
494.579	7.58
494.78	7.74
494.981	7.81
495.182	7.72
495.382	7.78
495.583	7.66
495.784	7.69
495.985	7.68
496.185	7.63
496.386	7.56
496.587	7.65
496.788	7.48
496.988	7.46
497.189	7.52
497.39	7.57
497.59	7.56
497.791	7.53
497.992	7.58
498.192	7.6
498.393	7.79
498.593	7.97
498.794	8.02
498.994	8.18
499.195	8.19
499.395	8.21
499.596	8.32
499.796	8.34
499.997	8.31
500.197	8.38
500.398	8.44
500.598	8.26
500.799	8.21
500.999	8.18
501.199	8.19
501.4	8.24
501.6	8.12
501.801	8.01
502.001	8.05
502.201	8.32
502.402	8.37
502.602	8.3
502.802	8.51
503.002	8.66
503.203	8.59
503.403	8.79
503.603	8.72
503.803	8.88
504.003	9
504.204	9.02
504.404	9
504.604	8.89
504.804	9.11
505.004	9.06
505.204	8.95
505.404	9.11
505.604	9.05
505.804	9.02
506.005	8.99
506.205	8.84
506.405	8.92
506.605	8.89
506.805	8.93
507.005	8.72
507.204	8.55
507.404	8.53
507.604	8.6
507.804	8.59
508.004	8.65
508.204	8.74
508.404	8.86
508.604	8.83
508.804	8.97
509.003	8.94
509.203	9.17
509.403	9.27
509.603	9.41
509.803	9.37
510.002	9.36
510.202	9.53
510.402	9.41
510.602	9.71
510.801	9.75
511.001	9.65
511.201	9.84
511.4	9.84
511.6	10.01
511.8	10.06
511.999	10.11
512.199	10.32
512.398	10.21
512.598	10.43
512.797	10.27
512.997	10.38
513.197	10.51
513.396	10.61
513.596	10.65
513.795	10.53
513.994	10.54
514.194	10.59
514.393	10.7
514.593	10.85
514.792	10.71
514.992	10.8
515.191	10.99
515.39	11.04
515.59	11.06
515.789	11.15
515.988	11.23
516.188	11.48
516.387	11.63
516.586	11.58
516.786	11.57
516.985	11.73
517.184	11.88
517.383	11.91
517.582	11.87
517.782	11.85
517.981	11.95
518.18	12.2
518.379	12.1
518.578	12.15
518.777	12.21
518.976	12.36
519.176	12.4
519.375	12.27
519.574	12.15
519.773	12.18
519.972	12.22
520.171	12.17
520.37	12.12
520.569	12.16
520.768	12.17
520.967	12.23
521.166	12.12
521.365	12.2
521.564	12.29
521.762	12.44
521.961	12.61
522.16	12.74
522.359	12.82
522.558	12.8
522.757	12.83
522.956	12.79
523.154	12.75
523.353	12.96
523.552	12.88
523.751	12.99
523.949	13.15
524.148	13.25
524.347	13.22
524.546	13.38
524.744	13.53
524.943	13.55
525.142	13.71
525.34	13.83
525.539	13.86
525.737	13.95
525.936	14.06
526.135	14.15
526.333	14.11
526.532	14.26
526.73	14.37
526.929	14.42
527.127	14.55
527.326	14.64
527.524	14.66
527.723	14.73
527.921	14.75
528.12	14.76
528.318	14.78
528.516	14.88
528.715	14.92
528.913	14.95
529.112	15.01
529.31	15.03
529.508	15.04
529.707	15.03
529.905	15.07
530.103	15.13
530.301	15.18
530.5	15.18
530.698	15.2
530.896	15.25
531.094	15.21
531.293	15.21
531.491	15.32
531.689	15.42
531.887	15.65
532.085	15.68
532.283	15.89
532.481	16.01
532.68	16.07
532.878	16.19
533.076	16.18
533.274	16.3
533.472	16.34
533.67	16.28
533.868	16.24
534.066	16.29
534.264	16.33
534.462	16.29
534.66	16.25
534.858	16.29
535.056	16.35
535.253	16.45
535.451	16.51
535.649	16.69
535.847	16.84
536.045	16.93
536.243	17.03
536.441	17.15
536.638	17.2
536.836	17.2
537.034	17.35
537.232	17.37
537.43	17.38
537.627	17.25
537.825	17.24
538.023	17.26
538.22	17.36
538.418	17.37
538.616	17.33
538.813	17.43
539.011	17.72
539.209	17.73
539.406	17.93
539.604	18.2
539.801	18.38
539.999	18.37
540.196	18.4
540.394	18.51
540.591	18.48
540.789	18.47
540.986	18.52
541.184	18.53
541.381	18.67
541.579	18.56
541.776	18.51
541.974	18.63
542.171	18.65
542.368	18.76
542.566	18.81
542.763	18.87
542.96	19.01
543.158	19.08
543.355	19.17
543.552	19.1
543.75	19.23
543.947	19.32
544.144	19.32
544.341	19.47
544.539	19.58
544.736	19.58
544.933	19.67
545.13	19.95
545.327	20.04
545.524	20.11
545.722	20.11
545.919	20.12
546.116	20.22
546.313	20.4
546.51	20.47
546.707	20.38
546.904	20.45
547.101	20.44
547.298	20.23
547.495	20.28
547.692	20.33
547.889	20.46
548.086	20.68
548.283	20.72
548.48	20.56
548.677	20.54
548.874	20.54
549.07	20.66
549.267	20.77
549.464	20.84
549.661	20.85
549.858	20.9
550.055	20.93
550.251	20.85
550.448	20.89
550.645	20.93
550.842	21.06
551.038	21.21
551.235	21.32
551.432	21.38
551.628	21.43
551.825	21.49
552.022	21.62
552.218	21.82
552.415	22
552.612	21.94
552.808	21.94
553.005	21.93
553.201	21.91
553.398	21.79
553.594	21.75
553.791	21.93
553.987	21.93
554.184	21.93
554.38	21.85
554.577	21.77
554.773	21.79
554.97	21.88
555.166	22.05
555.362	22.26
555.559	22.49
555.755	22.56
555.952	22.46
556.148	22.5
556.344	22.32
556.541	22.25
556.737	22.43
556.933	22.49
557.129	22.78
557.326	22.67
557.522	22.61
557.718	22.44
557.914	22.69
558.11	22.87
558.307	23.13
558.503	23.66
558.699	23.67
558.895	23.58
559.091	23.56
559.287	23.45
559.483	23.51
559.679	23.61
559.876	23.57
560.072	23.58
560.268	23.64
560.464	23.75
560.66	23.51
560.856	23.8
561.052	23.59
561.247	23.73
561.443	24
561.639	24.14
561.835	24.19
562.031	24.28
562.227	24.13
562.423	24.14
562.619	24.19
562.815	24.28
563.01	24.32
563.206	24.78
563.402	24.92
563.598	24.83
563.793	24.93
563.989	25.07
564.185	25.22
564.381	25.45
564.576	25.68
564.772	25.46
564.968	25.43
565.163	25.63
565.359	25.49
565.555	25.4
565.75	25.62
565.946	25.59
566.141	25.46
566.337	25.63
566.532	25.61
566.728	25.49
566.923	25.71
567.119	25.75
567.314	25.73
567.51	25.87
567.705	25.94
567.901	25.74
568.096	25.77
568.292	25.92
568.487	26.03
568.682	26.27
568.878	26.18
569.073	26.26
569.268	26.26
569.464	26.03
569.659	26.1
569.854	26.28
570.05	26.53
570.245	26.56
570.44	26.72
570.635	26.62
570.831	26.42
571.026	26.77
571.221	26.64
571.416	26.97
571.611	27.05
571.806	26.97
572.002	26.97
572.197	26.9
572.392	26.92
572.587	26.89
572.782	26.94
572.977	27.2
573.172	27.13
573.367	27.11
573.562	27.01
573.757	27.13
573.952	27.21
574.147	27.19
574.342	27.32
574.537	27.26
574.732	27.37
574.927	27.27
575.121	27.25
575.316	27.2
575.511	27.36
575.706	27.33
575.901	27.25
576.096	27.32
576.29	27.42
576.485	27.24
576.68	27.43
576.875	27.33
577.069	27.28
577.264	27.4
577.459	27.53
577.654	27.58
577.848	27.39
578.043	27.67
578.238	27.69
578.432	27.78
578.627	28.01
578.821	28.11
579.016	28.15
579.21	28.12
579.405	27.82
579.6	27.69
579.794	27.6
579.989	27.77
580.183	27.25
580.378	27.15
580.572	26.87
580.766	26.78
580.961	26.83
581.155	26.55
581.35	26.75
581.544	26.79
581.738	26.79
581.933	26.85
582.127	26.86
582.321	27.44
582.516	27.75
582.71	27.91
582.904	27.79
583.099	27.8
583.293	27.99
583.487	28.1
583.681	28.3
583.875	28.56
584.07	28.67
584.264	28.75
584.458	28.54
584.652	28.21
584.846	28.24
585.04	28.49
585.234	28.35
585.428	28.29
585.623	28.36
585.817	28.49
586.011	28.5
586.205	28.38
586.399	28.4
586.593	28.53
586.787	28.72
586.981	28.46
587.174	28.22
587.368	28.43
587.562	28.55
587.756	28.5
587.95	28.48
588.144	28.11
588.338	27.96
588.532	27.81
588.725	27.85
588.919	27.87
589.113	28.24
589.307	28.4
589.501	28.01
589.694	28
589.888	28.05
590.082	27.93
590.275	28.37
590.469	28.6
590.663	28.66
590.856	28.82
591.05	28.75
591.244	28.35
591.437	28.42
591.631	28.89
591.824	28.95
592.018	29.03
592.212	29.08
592.405	28.72
592.599	28.64
592.792	28.98
592.986	28.91
593.179	28.89
593.372	29.3
593.566	29.36
593.759	29.29
593.953	29.32
594.146	29.1
594.339	28.86
594.533	29.18
594.726	29.32
594.92	28.94
595.113	28.79
595.306	28.82
595.499	28.79
595.693	28.6
595.886	28.51
596.079	28.56
596.272	28.72
596.466	28.74
596.659	28.69
596.852	28.53
597.045	28.65
597.238	28.84
597.431	28.87
597.624	28.92
597.818	29.08
598.011	29.02
598.204	29.2
598.397	29.23
598.59	29.54
598.783	29.35
598.976	29.49
599.169	29.7
599.362	29.59
599.555	29.65
599.748	29.7
599.941	29.62
600.134	29.84
600.326	29.49
600.519	29.45
600.712	29.04
600.905	29.31
601.098	29.44
601.291	29.18
601.483	29.15
601.676	29.15
601.869	29.13
602.062	29.22
602.255	28.94
602.447	28.93
602.64	29.3
602.833	29.69
603.025	29.71
603.218	29.62
603.411	29.76
603.603	29.88
603.796	29.76
603.989	29.76
604.181	29.86
604.374	30.07
604.566	30.19
604.759	29.91
604.951	29.66
605.144	29.44
605.336	29.41
605.529	29.29
605.721	29.37
605.914	29.58
606.106	29.61
606.299	29.48
606.491	29.3
606.683	29.41
606.876	29.63
607.068	29.98
607.26	30.31
607.453	30.48
607.645	31
607.837	30.92
608.03	30.48
608.222	30.31
608.414	30.3
608.606	30.61
608.799	30.57
608.991	30.51
609.183	30.52
609.375	30.9
609.567	31.09
609.759	30.98
609.952	31.15
610.144	31.88
610.336	32.32
610.528	32.77
610.72	32.99
610.912	33.07
611.104	33.34
611.296	33.46
611.488	33.43
611.68	33.28
611.872	33.33
612.064	33.45
612.256	33.04
612.448	32.71
612.64	32.64
612.832	32.53
613.023	32.74
613.215	32.28
613.407	32.14
613.599	31.74
613.791	31.78
613.983	31.54
614.174	31.33
614.366	31.39
614.558	31.69
614.75	31.38
614.941	31.5
615.133	31.41
615.325	31.66
615.516	31.83
615.708	31.62
615.9	31.63
616.091	31.89
616.283	31.96
616.475	32.07
616.666	31.88
616.858	31.98
617.049	31.2
617.241	31.26
617.432	31.24
617.624	30.96
617.815	31.31
618.007	31.4
618.198	31.28
618.39	31.14
618.581	30.91
618.773	31.02
618.964	30.84
619.155	31.23
619.347	31.22
619.538	31.03
619.729	31.19
619.921	31.25
620.112	31.09
620.303	30.81
620.494	30.95
620.686	30.87
620.877	30.63
621.068	30.84
621.259	31.04
621.451	30.78
621.642	30.95
621.833	30.22
622.024	30.17
622.215	30.19
622.406	30.25
622.597	30.02
622.788	30.06
622.98	30.11
623.171	29.98
623.362	29.89
623.553	30.1
623.744	30.04
623.935	30.84
624.126	30.81
624.317	30.5
624.508	30.33
624.698	30.49
624.889	30.68
625.08	30.87
625.271	31.06
625.462	31.09
625.653	31.09
625.844	30.8
626.034	30.73
626.225	30.58
626.416	30.87
626.607	31.21
626.798	31.03
626.988	31.02
627.179	31
627.37	30.83
627.56	30.74
627.751	30.69
627.942	30.96
628.132	30.89
628.323	31.16
628.514	31.21
628.704	31.18
628.895	31.2
629.085	31.16
629.276	31.14
629.466	31.3
629.657	31.39
629.847	31.5
630.038	31.35
630.228	31.6
630.419	31.53
630.609	31.74
630.8	31.87
630.99	31.79
631.181	31.69
631.371	31.53
631.561	31.21
631.752	31.31
631.942	31.14
632.132	31.64
632.323	31.38
632.513	31.4
632.703	30.92
632.893	30.77
633.084	31.03
633.274	30.92
633.464	30.99
633.654	31.04
633.844	30.82
634.034	30.99
634.225	30.61
634.415	30.86
634.605	30.47
634.795	30.44
634.985	30.24
635.175	30.36
635.365	30.54
635.555	30.71
635.745	30.64
635.935	30.46
636.125	30.45
636.315	30.26
636.505	29.68
636.695	29.89
636.885	30.4
637.075	30.41
637.265	30.07
637.455	30.19
637.644	29.93
637.834	30.04
638.024	30.45
638.214	30.31
638.404	30.59
638.593	31.01
638.783	31.29
638.973	30.78
639.163	31.28
639.352	31.39
639.542	31.59
639.732	31.4
639.921	31.45
640.111	31.27
640.301	31.22
640.49	31.14
640.68	31.19
640.87	31.24
641.059	31.61
641.249	31.35
641.438	30.97
641.628	30.91
641.817	31.46
642.007	31.5
642.196	31.67
642.386	31.79
642.575	31.99
642.764	32.12
642.954	31.87
643.143	31.69
643.333	31.57
643.522	31.68
643.711	31.38
643.901	31.15
644.09	30.97
644.279	30.69
644.469	30.88
644.658	31.03
644.847	30.94
645.036	31.2
645.226	31.5
645.415	31.75
645.604	32.42
645.793	32.74
645.982	33.04
646.171	33.27
646.361	33.43
646.55	33.26
646.739	32.67
646.928	32.55
647.117	32.44
647.306	32.21
647.495	32.15
647.684	32.05
647.873	31.68
648.062	31.46
648.251	31.71
648.44	31.79
648.629	31.85
648.818	31.78
649.007	31.63
649.196	31.5
649.384	31.42
649.573	31.36
649.762	31.23
649.951	31.23
650.14	31.32
650.328	31
650.517	31.13
650.706	30.92
650.895	31.47
651.083	31.55
651.272	31.59
651.461	31.23
651.65	30.95
651.838	30.53
652.027	31.02
652.216	31.12
652.404	31.24
652.593	31.6
652.781	32.09
652.97	31.93
653.158	31.91
653.347	32.09
653.535	32.6
653.724	32.76
653.912	33.16
654.101	33.1
654.289	33.28
654.478	33.47
654.666	32.92
654.855	33.17
655.043	32.89
655.231	32.67
655.42	32.58
655.608	32.59
655.796	32.69
655.985	33.1
656.173	32.71
656.361	32.36
656.55	31.74
656.738	31.58
656.926	30.75
657.114	30.72
657.302	30.92
657.491	30.92
657.679	30.99
657.867	30.85
658.055	30.62
658.243	30.73
658.431	30.55
658.619	30.84
658.807	31.29
658.996	31.43
659.184	31.58
659.372	31.69
659.56	31.82
659.748	32.06
659.936	32.43
660.124	32.19
660.311	32.15
660.499	32.57
660.687	32.65
660.875	32.12
661.063	32.56
661.251	32.57
661.439	32.72
661.627	32.46
661.814	32.17
662.002	32.28
662.19	32.46
662.378	32.62
662.565	32.07
662.753	32.19
662.941	32.4
663.129	32.19
663.316	32.66
663.504	32.78
663.692	32.88
663.879	32.63
664.067	32.14
664.254	32.06
664.442	31.5
664.63	31.82
664.817	31.31
665.005	31.25
665.192	31.19
665.38	31.14
665.567	31.14
665.755	30.89
665.942	30.77
666.13	30.59
666.317	30.8
666.504	30.99
666.692	31.21
666.879	31.48
667.067	31.83
667.254	31.77
667.441	31.74
667.629	31.08
667.816	31.25
668.003	31.63
668.19	31.91
668.378	31.72
668.565	32.25
668.752	31.56
668.939	31.82
669.127	31.88
669.314	31.55
669.501	31.46
669.688	32.22
669.875	32.14
670.062	32.37
670.249	32.38
670.436	32.17
670.623	31.78
670.81	32.17
670.997	31.95
671.184	31.62
671.371	31.82
671.558	31.93
671.745	31.52
671.932	32.09
672.119	31.85
672.306	31.91
672.493	32.23
672.68	31.9
672.867	31.94
673.054	31.51
673.24	31.74
673.427	31.65
673.614	31.09
673.801	31.34
673.988	30.76
674.174	30.69
674.361	30.88
674.548	30.84
674.734	31.16
674.921	31.61
675.108	31.98
675.294	31.9
675.481	32.01
675.668	32.08
675.854	31.93
676.041	31.92
676.227	32.49
676.414	32.1
676.601	32.48
676.787	32.62
676.974	31.63
677.16	31.9
677.347	31.78
677.533	31.6
677.719	32
677.906	31.68
678.092	31.54
678.279	30.86
678.465	30.9
678.651	30.94
678.838	31.08
679.024	31.05
679.21	31.11
679.397	31.35
679.583	31.4
679.769	31.25
679.955	31.17
680.142	31.63
680.328	31.9
680.514	32.27
680.7	32.25
680.886	32.33
681.073	32.88
681.259	32.71
681.445	32.85
681.631	33.09
681.817	33.04
682.003	33.42
682.189	33
682.375	32.88
682.561	32.82
682.747	32.82
682.933	32.57
683.119	32.91
683.305	33.05
683.491	33.02
683.677	32.64
683.863	32.59
684.049	32.42
684.235	32.37
684.42	32.55
684.606	31.95
684.792	31.91
684.978	32.48
685.164	32.19
685.349	31.81
685.535	31.89
685.721	31.82
685.907	31.96
686.092	32.11
686.278	32.54
686.464	32.57
686.649	32.94
686.835	33.06
687.021	32.66
687.206	32.92
687.392	33.85
687.577	33.21
687.763	33.26
687.948	33.53
688.134	33.29
688.319	33.31
688.505	33.27
688.69	32.85
688.876	32.42
689.061	32.46
689.247	32.32
689.432	32.03
689.618	32.42
689.803	33.21
689.988	33.32
690.174	33.72
690.359	33.76
690.544	33.72
690.73	34.63
690.915	34.54
691.1	34.73
691.285	34.56
691.471	34.25
691.656	34.3
691.841	34.01
692.026	33.34
692.211	33.35
692.396	33.42
692.582	33.73
692.767	33.13
692.952	33.86
693.137	33.82
693.322	34.19
693.507	34.3
693.692	34.67
693.877	34.56
694.062	35.25
694.247	35.59
694.432	35.57
694.617	34.87
694.802	35.28
694.987	34.53
695.172	34.31
695.357	33.46
695.541	34.04
695.726	33.42
695.911	33.8
696.096	33.25
696.281	32.38
696.466	32.13
696.65	32.48
696.835	32.8
697.02	33.16
697.204	33.21
697.389	33.8
697.574	33.37
697.759	33.56
697.943	33.12
698.128	33.34
698.312	33.72
698.497	33.52
698.682	33.41
698.866	32.91
699.051	32.83
699.235	32.83
699.42	32.55
699.604	32.32
699.789	32.28
699.973	32.46
700.158	32.47
700.342	32.6
700.527	32.84
700.711	32.76
700.895	33.06
701.08	33.41
701.264	34.03
701.448	33.93
701.633	34.32
701.817	34.38
702.001	34.3
702.186	34.03
702.37	34.12
702.554	34.37
702.738	34.53
702.923	34.33
703.107	34.14
703.291	33.48
703.475	34.01
703.659	34.42
703.843	34.46
704.027	34.26
704.212	34.72
704.396	33.99
704.58	33.13
704.764	33.25
704.948	33.35
705.132	32.98
705.316	33.21
705.5	32.94
705.684	33.17
705.868	33.22
706.052	33.82
706.235	34.33
706.419	34.52
706.603	35.54
706.787	35.46
706.971	35.7
707.155	35.86
707.339	35.56
707.522	36.16
707.706	35.2
707.89	34.9
708.074	34.46
708.257	33.76
708.441	33.95
708.625	33.06
708.808	33.81
708.992	33.43
709.176	33.91
709.359	33.53
709.543	32.99
709.727	32.91
709.91	32.58
710.094	32.97
710.277	32.73
710.461	32.78
710.644	33.53
710.828	32.72
711.011	32.85
711.195	32.92
711.378	33.53
711.562	32.66
711.745	32.92
711.928	33.72
712.112	33.65
712.295	33.43
712.478	33.74
712.662	33.24
712.845	33.28
713.028	33.13
713.212	32.47
713.395	32.36
713.578	33.32
713.761	33.58
713.945	33.27
714.128	32.63
714.311	32.6
714.494	31.94
714.677	32.22
714.86	32.15
715.043	32.14
715.227	32.19
715.41	31.61
715.593	31.82
715.776	31.88
715.959	31.98
716.142	32.76
716.325	33.64
716.508	33.88
716.691	33.49
716.874	33.33
717.057	33.79
717.239	34.9
717.422	35.18
717.605	34.74
717.788	33.5
717.971	33.17
718.154	33.21
718.337	33.27
718.519	32.86
718.702	33.76
718.885	34.84
719.068	34.39
719.25	33.94
719.433	33.81
719.616	34.09
719.798	34.93
719.981	35.28
720.164	34.61
720.346	33.4
720.529	33.15
720.712	32.14
720.894	32.04
721.077	33.24
721.259	33.14
721.442	33.22
721.624	32.98
721.807	32.81
721.989	33.3
722.172	34.74
722.354	34.49
722.537	35.07
722.719	35.14
722.901	34.95
723.084	34.82
723.266	33.83
723.448	34.26
723.631	34.85
723.813	35.13
723.995	34.38
724.178	33.35
724.36	34.61
724.542	34.62
724.724	34.83
724.907	34.63
725.089	33
725.271	33.18
725.453	33.11
725.635	32.98
725.817	33.22
725.999	33.23
726.181	32.92
726.364	32.59
726.546	32.55
726.728	32.74
726.91	32.29
727.092	32.81
727.274	32.85
727.456	32.82
727.638	32.87
727.819	32.61
728.001	33.39
728.183	33.13
728.365	32.95
728.547	33.23
728.729	33.07
728.911	33.22
729.093	34.12
729.274	34.36
729.456	34.03
729.638	33.65
729.82	33.62
730.001	32.87
730.183	33.16
730.365	32.69
730.546	32.69
730.728	32.88
730.91	32.47
731.091	32.19
731.273	32.12
731.455	32.78
731.636	33.05
731.818	33.58
731.999	34.45
732.181	34
732.362	34.89
732.544	34.75
732.725	35.42
732.907	35.55
733.088	34.95
733.27	34.86
733.451	34.53
733.633	34.04
733.814	34.14
733.995	33.54
734.177	33.86
734.358	34.06
734.539	33.61
734.721	32.82
734.902	33.79
735.083	34.32
735.264	34.4
735.446	35.6
735.627	35.72
735.808	36.2
735.989	35.48
736.17	35.32
736.351	35.1
736.533	35.38
736.714	35.9
736.895	34.85
737.076	34.49
737.257	34.82
737.438	33.18
737.619	33.19
737.8	32.31
737.981	33.54
738.162	33.59
738.343	33.35
738.524	33.14
738.705	33.27
738.886	33.65
739.067	33.9
739.247	33.74
739.428	33.86
739.609	34.7
739.79	34.52
739.971	34.65
740.151	34.92
740.332	35.87
740.513	36.92
740.694	36.52
740.874	36.49
741.055	36.8
741.236	36.94
741.417	37.01
741.597	36.39
741.778	36.36
741.958	35.83
742.139	35.65
742.32	34.92
742.5	34.64
742.681	34.81
742.861	34.51
743.042	33.42
743.222	32.83
743.403	33.55
743.583	34.5
743.764	34.41
743.944	34.35
744.124	34.72
744.305	34.85
744.485	34.91
744.666	35.54
744.846	35.54
745.026	35.93
745.207	36.03
745.387	36.2
745.567	35.17
745.747	36.04
745.928	35.51
746.108	36.32
746.288	36.74
746.468	36.14
746.648	35.71
746.829	37.49
747.009	37.47
747.189	37.76
747.369	37.87
747.549	37.4
747.729	37.13
747.909	38.02
748.089	38.37
748.269	37.57
748.449	38.41
748.629	37.17
748.809	35.5
748.989	34.89
749.169	34.73
749.349	34.3
749.529	34.47
749.709	33.77
749.889	32.91
750.068	31.21
750.248	30.33
750.428	29.6
750.608	29.21
750.788	29.59
750.967	29.66
751.147	30.09
751.327	28.73
751.507	30.09
751.686	31.05
751.866	32
752.046	32.04
752.225	33.52
752.405	34.39
752.585	34.13
752.764	33.74
752.944	34.19
753.123	33.26
753.303	33.99
753.482	31.76
753.662	31.01
753.841	30.61
754.021	30.47
754.2	29.47
754.38	28.64
754.559	29.39
754.739	29.49
754.918	28.59
755.097	29.87
755.277	29.83
755.456	31.28
755.635	32.03
755.815	32.33
755.994	32.24
756.173	33.23
756.352	32.39
756.532	33.32
756.711	33.95
756.89	35.76
757.069	35.8
757.248	36.36
757.427	35.82
757.607	35.85
757.786	35.78
757.965	37.21
758.144	36.3
758.323	37.29
758.502	35.88
758.681	35.54
758.86	35.58
759.039	35.13
759.218	34.74
759.397	36.36
759.576	36.73
759.755	35.24
759.934	35.04
760.113	34.95
760.291	35.36
760.47	36.78
760.649	36.38
760.828	34.98
761.007	34.68
761.186	35.11
761.364	33.09
761.543	32.87
761.722	34.26
761.901	33.75
762.079	34.37
762.258	34.37
762.437	33.64
762.615	34.03
762.794	35.41
762.972	35.51
763.151	34.7
763.33	34.55
763.508	33.89
763.687	33.18
763.865	32.91
764.044	32.51
764.222	32.69
764.401	32.68
764.579	32.39
764.758	31.68
764.936	32.07
765.114	33.36
765.293	34.26
765.471	34.14
765.65	34.86
765.828	35.37
766.006	35.69
766.184	34.62
766.363	35.12
766.541	34.84
766.719	34.98
766.898	33.57
767.076	32.64
767.254	32.29
767.432	32.09
767.61	31.62
767.788	31.66
767.967	30.61
768.145	31.97
768.323	31.66
768.501	31.65
768.679	31.88
768.857	33.37
769.035	32.73
769.213	33.32
769.391	34.93
769.569	36.01
769.747	36.36
769.925	37.46
770.103	37.6
770.281	38.17
770.459	40.03
770.636	39.81
770.814	39.02
770.992	41.57
771.17	41.88
771.348	40.62
771.525	39.71
771.703	39.69
771.881	40.99
772.059	40.32
772.236	39.84
772.414	39.19
772.592	39.63
772.769	40.86
772.947	39.67
773.125	38.84
773.302	38.5
773.48	38.01
773.657	36.39
773.835	34.52
774.013	32.29
774.19	34.43
774.368	33.64
774.545	32.45
774.723	31.2
774.9	29.01
775.077	29.16
775.255	28.57
775.432	29.9
775.61	29.8
775.787	31.02
775.964	31.87
776.142	29.46
776.319	30.24
776.496	31.06
776.674	30.16
776.851	31.51
777.028	31.11
777.205	32.54
777.382	30.24
777.56	30.15
777.737	26.69
777.914	30.37
778.091	29.43
778.268	29.46
778.445	29.86
778.622	31.12
778.8	31.14
778.977	30.53
779.154	28.54
779.331	30.12
779.508	31.64
779.685	35.4
779.862	33.7
780.038	34.97
780.215	34.59
780.392	34.1
780.569	33.74
780.746	33.47
780.923	34.47
781.1	37.39
781.277	36.8
781.453	35.67
781.63	33.32
781.807	33.67
781.984	30.79
782.16	30.25
782.337	29.12
782.514	29.2
782.691	28.72
782.867	27.86
783.044	26.69
783.221	27.62
783.397	28.37
783.574	29.75
783.75	28.7
783.927	31.24
784.103	30.79
784.28	29.08
784.456	29.91
784.633	28.72
784.809	27.61
784.986	29.14
785.162	28.8
785.339	28.47
785.515	28.96
785.692	29.28
785.868	29.29
786.044	31.74
786.221	33.43
786.397	35.53
786.573	35.91
786.749	39.24
786.926	38.87
787.102	37.41
787.278	38.66
787.454	37.59
787.631	35.91
787.807	37.69
787.983	35.16
788.159	36.08
788.335	32.34
788.511	34.46
788.687	28.9
788.863	26.76
789.039	28.98
789.216	27.56
789.392	29.13
789.568	29.61
789.744	28.27
789.919	30.71
790.095	30.22
790.271	31.8
790.447	30.44
790.623	34.55
790.799	35.76
790.975	33.91
791.151	35.69
791.327	37.52
791.502	38.7
791.678	40.23
791.854	39.15
792.03	39.15
792.205	39.55
792.381	39.41
792.557	37.56
792.733	37.92
792.908	37.02
793.084	37.24
793.259	33.62
793.435	33.52
793.611	31.48
793.786	30.59
793.962	30.82
794.137	28.31
794.313	27.77
794.488	29.47
794.664	30.32
794.839	30.73
795.015	29.38
795.19	31.69
795.366	32.4
795.541	31.52
795.716	31.84
795.892	31.97
796.067	32.48
796.242	33.98
796.418	34.32
796.593	31.78
796.768	32.44
796.944	32.4
797.119	33.03
797.294	32.14
797.469	31.75
797.644	31.57
797.82	33.15
797.995	35.22
798.17	33.15
798.345	32.91
798.52	34.23
798.695	34.38
798.87	33.71
799.045	30.7
799.22	30
799.395	31.27
799.57	31.94
799.745	28.77
799.92	28.21
800.095	31.1
800.27	28.98
800.445	28.58
800.62	29.07
800.795	30.92
800.97	31.06
801.145	32.09
801.319	30.95
801.494	28.32
801.669	27.9
801.844	29.45
802.018	29.23
802.193	30.96
802.368	31.86
802.543	30.23
802.717	29.78
802.892	30.12
803.067	31.72
803.241	33.97
803.416	35.66
803.59	38.27
803.765	37.55
803.94	37.52
804.114	37.33
804.289	36.38
804.463	39.01
804.638	38.19
804.812	36.72
804.986	33.34
805.161	30.95
805.335	28.91
805.51	28.93
805.684	27.97
805.858	26.26
806.033	26.89
806.207	27.99
806.381	26.71
806.556	25.98
806.73	26.44
806.904	29.11
807.078	27.35
807.253	29.68
807.427	31.75
807.601	29.1
807.775	32.66
807.949	32.72
808.123	28.98
808.298	28.77
808.472	27.8
808.646	28.91
808.82	25.33
808.994	27.54
809.168	28.49
809.342	24.98
809.516	26.05
809.69	25.45
809.864	24.71
810.038	26.31
810.212	24.97
810.385	23.07
810.559	23.1
810.733	25.42
810.907	28.65
811.081	29.31
811.255	32.2
811.428	36.09
811.602	33.29
811.776	32.14
811.95	36.03
812.123	39.18
812.297	40.37
812.471	37.08
812.644	39.58
812.818	38.9
812.992	38.08
813.165	36.5
813.339	33.31
813.512	34.76
813.686	36.54
813.86	34.8
814.033	35
814.207	37.63
814.38	39.78
814.554	35.43
814.727	35.75
814.9	34.61
815.074	33.57
815.247	32.52
815.421	32.79
815.594	30.61
815.767	29.89
815.941	26.26
816.114	23.9
816.287	26.25
816.46	27.46
816.634	25.68
816.807	27.53
816.98	27.14
817.153	30.06
817.327	27.17
817.5	31.72
817.673	32.4
817.846	31.01
818.019	30.86
818.192	27.66
818.365	26.53
818.538	27.84
818.711	28.8
818.884	30.48
819.057	29.77
819.23	30.48
819.403	26.08
819.576	25.23
819.749	28.02
819.922	29.43
820.095	31.2
820.268	34.45
820.441	33.7
820.614	32.09
820.786	32.68
820.959	33.38
821.132	34.32
821.305	36.76
821.477	36.19
821.65	36.01
821.823	35.97
821.996	36.06
822.168	34.71
822.341	35.04
822.514	34.76
822.686	34.37
822.859	34.02
823.031	34.46
823.204	34
823.376	34.09
823.549	33.9
823.722	34.11
823.894	33.41
824.067	33.79
824.239	32.97
824.411	33.01
824.584	33.54
824.756	33.37
824.929	32.61
825.101	33.31
825.273	33.22
825.446	33.66
825.618	33.52
825.79	34.7
825.963	34.78
826.135	35.35
826.307	35.86
826.479	34.6
826.652	35.35
826.824	35.33
826.996	34.38
827.168	33.8
827.34	32.21
827.512	31.18
827.684	29.96
827.856	29
828.029	28.78
828.201	27.49
828.373	27.72
828.545	26.68
828.717	26.73
828.889	25.9
829.061	26.37
829.232	27.27
829.404	27.97
829.576	28.22
829.748	29.41
829.92	29.91
830.092	31.83
830.264	32.48
830.436	32.9
830.607	33.95
830.779	35.74
830.951	34.7
831.123	35.47
831.294	37.13
831.466	37.37
831.638	36.16
831.809	34.83
831.981	33.02
832.153	35.03
832.324	35.07
832.496	33.43
832.667	31.42
832.839	30.5
833.011	29.97
833.182	26.62
833.354	26.11
833.525	28.18
833.697	27.54
833.868	27.51
834.039	25.38
834.211	25.08
834.382	25.21
834.554	26.54
834.725	28.33
834.896	28.66
835.068	29.58
835.239	29.56
835.41	30.2
835.581	30.69
835.753	31.32
835.924	30.46
836.095	29.29
836.266	28.43
836.438	26.47
836.609	25.36
836.78	24.97
836.951	22.78
837.122	21.68
837.293	19.78
837.464	21.21
837.635	21.55
837.806	22.87
837.977	21.81
838.148	22.71
838.319	21.91
838.49	22.71
838.661	24.49
838.832	26.9
839.003	32.12
839.174	35.59
839.345	38.01
839.516	37.22
839.687	36.9
839.857	38.16
840.028	41.19
840.199	40.49
840.37	37.78
840.54	38.59
840.711	40.43
840.882	32.75
841.053	29.04
841.223	24.75
841.394	26.21
841.564	28.69
841.735	32.56
841.906	30.39
842.076	33.28
842.247	40.66
842.417	38.77
842.588	41.54
842.758	46.8
842.929	42.94
843.099	40.79
843.27	39.85
843.44	37.1
843.611	34.25
843.781	32.6
843.951	34.53
844.122	25.67
844.292	30.71
844.462	22.31
844.633	16.4
844.803	28.99
844.973	27.11
845.144	36.02
845.314	36.68
845.484	42.23
845.654	40.27
845.824	36.6
845.995	38.79
846.165	31.87
846.335	32.2
846.505	37.58
846.675	33.9
846.845	36.27
847.015	33.56
847.185	36.43
847.355	31.6
847.525	31.51
847.695	30.65
847.865	33.51
848.035	27
848.205	35.81
848.375	34.43
848.545	29.26
848.715	32.38
848.884	28.69
849.054	25.08
849.224	30.39
849.394	32.59
849.564	37.53
849.733	39.05
849.903	41.59
850.073	36.49
850.243	35.03
850.412	38.79
850.582	37.51
850.752	41.41
850.921	41.79
851.091	38.05
851.26	44.34
851.43	29.15
851.599	15.45
851.769	26.59
851.939	14.66
852.108	22.75
852.278	15.08
852.447	22.06
852.616	15.5
852.786	16.03
852.955	19
853.125	6.25
853.294	15.98
853.463	16.47
853.633	7.19
853.802	11.49
853.971	-0.08
854.141	-9.66
854.31	-27.29
854.479	-31.07
854.648	-33.73
854.818	-23.11
854.987	8.41
855.156	11.04
855.325	20.26
855.494	25.93
855.663	32.99
855.832	37.28
856.001	50.81
856.171	48.67
856.34	48.84
856.509	53.84
856.678	47.64
856.847	42
857.016	43.65
857.185	42.23
857.353	47.81
857.522	42.84
857.691	45.04
857.86	42.93
858.029	52.23
858.198	60.51
858.367	54.22
858.535	53.11
858.704	48.53
858.873	53.58
859.042	45.14
859.21	36.43
859.379	38.75
859.548	26.04
859.717	34.9
859.885	26.65
860.054	27.61
860.222	43.75
860.391	30.31
860.56	30.54
860.728	13.33
860.897	28.39
861.065	42.23
861.234	31.65
861.402	48.26
861.571	53.41
861.739	43.89
861.908	42.07
862.076	29.37
862.244	37.85
862.413	45.4
862.581	37.95
862.749	34.03
862.918	36.55
863.086	35.19
863.254	17.94
863.423	12.71
863.591	11.27
863.759	11.12
863.927	10.11
864.096	15.64
864.264	2.23
864.432	9.85
864.6	7.89
864.768	-22.39
864.936	-6.85
865.104	25.66
865.272	30.34
865.44	40.7
865.608	59.58
865.776	56.58
865.944	57.46
866.112	73.89
866.28	65.81
866.448	62.16
866.616	70.91
866.784	59.07
866.952	36.91
867.12	35.66
867.288	30.82
867.455	10.22
867.623	-7.23
867.791	-54.35
867.959	-51.8
868.127	-0.64
868.294	-7.41
868.462	-24.02
868.63	-10.79
868.797	-0.13
868.965	7.5
869.133	16.28
869.3	13.21
869.468	20.8
869.636	16.99
869.803	10.12
869.971	6.55
870.138	2.9
870.306	10.54
870.473	12.84
870.641	6.24
870.808	-2.89
870.975	-7.51
871.143	-0.01
871.31	9.91
871.478	17.82
871.645	36.86
871.812	16.62
871.98	33.35
872.147	31.32
872.314	49.99
872.482	49.61
872.649	53.16
872.816	66.64
872.983	67.19
873.15	53.67
873.318	46.61
873.485	37.79
873.652	51.05
873.819	44.53
873.986	48.46
874.153	29.05
874.32	37.85
874.487	34.81
874.654	10.99
874.821	-7.49
874.988	9.14
875.155	14.89
875.322	13.15
875.489	10.17
875.656	10.96
875.823	-9.64
875.99	1.72
876.157	-7.95
876.324	-14.18
876.49	-3.55
876.657	1.63
876.824	3.43
876.991	1.06
877.157	-8.25
877.324	-5.16
877.491	-10.31
877.658	-1.18
877.824	-13.75
877.991	6.46
878.157	11.4
878.324	12.28
878.491	18.87
878.657	17.52
878.824	16.06
878.99	27.79
879.157	33.05
879.323	36.64
879.49	42.6
879.656	58.73
879.823	39.21
879.989	45.81
880.156	42.8
880.322	35.01
880.488	27.38
880.655	28.84
880.821	29.78
880.987	29.85
881.154	31.33
881.32	25.34
881.486	21.44
881.652	22.96
881.819	15.37
881.985	19.25
882.151	18.46
882.317	25.27
882.483	22.99
882.649	22.95
882.816	22.48
882.982	24.08
883.148	25.83
883.314	27.04
883.48	30
883.646	30.41
883.812	31.03
883.978	31.83
884.144	30.07
884.31	31.01
884.476	30.46
884.642	30.8
884.807	30.51
884.973	30.68
885.139	29.48
885.305	24.72
885.471	25.21
885.637	25.82
885.802	25.62
885.968	25.93
886.134	25.22
886.3	26.06
886.465	26.59
886.631	26.26
886.797	25.14
886.962	29.19
887.128	33.18
887.293	35.46
887.459	31.01
887.625	36.4
887.79	35.92
887.956	41.79
888.121	42.45
888.287	41.58
888.452	42.02
888.618	47.63
888.783	42.79
