Data from CB_010_Reflection_3.txt Node
Date: Wed Nov 11 18:44:05 EST 2015
User: robert
Spectrometer: USB4E03001
Autoset integration time: false
Trigger mode: 4
Integration Time (sec): 1.000000E-1
Scans to average: 15
Electric dark correction enabled: true
Nonlinearity correction enabled: false
Boxcar width: 5
Stray light correction enabled: false
XAxis mode: Wavelengths
Stop averaging: false
Number of Pixels in Spectrum: 3648
>>>>>Begin Spectral Data<<<<<
177.566	-42.29
177.785	-119.26
178.005	-3.09
178.225	-770.2
178.445	127.51
178.665	349.37
178.885	62.56
179.105	289.8
179.324	194.23
179.544	-90.02
179.764	-191.18
179.984	-239.86
180.204	484.3
180.423	-188.2
180.643	-453.21
180.863	1376.67
181.083	7238.84
181.302	1002.41
181.522	-2669.16
181.742	-743.22
181.961	523.82
182.181	188.7
182.401	247.7
182.621	1037.85
182.84	233.05
183.06	227.6
183.279	268.49
183.499	610.37
183.719	620.05
183.938	401.31
184.158	1024.81
184.377	-1967
184.597	-569.64
184.816	-390.71
185.036	-1129.12
185.256	-361.9
185.475	1268.23
185.695	-15477.01
185.914	468.4
186.134	318.51
186.353	340.5
186.572	504.86
186.792	251.52
187.011	179.83
187.231	195.81
187.45	231.37
187.67	245.03
187.889	2430.38
188.108	775.63
188.328	1503.35
188.547	-1282.52
188.766	-1953.87
188.986	789.2
189.205	-56831.82
189.424	1367.94
189.644	8700
189.863	372.03
190.082	378.23
190.302	274.83
190.521	199.53
190.74	141.32
190.959	85.19
191.178	115.8
191.398	107.07
191.617	77.81
191.836	63.87
192.055	77.15
192.274	90.32
192.494	87.17
192.713	82.18
192.932	88.57
193.151	90.32
193.37	109.48
193.589	86.15
193.808	79.14
194.027	97.27
194.246	129.47
194.465	125.4
194.685	129.06
194.904	166.34
195.123	441.62
195.342	1943.5
195.561	284.19
195.78	246.2
195.999	244.55
196.218	1161.81
196.436	-386.5
196.655	-1737.46
196.874	531.26
197.093	485.87
197.312	152.03
197.531	93.04
197.75	15.42
197.969	69.08
198.188	92.64
198.407	65.62
198.625	-28.94
198.844	-99.36
199.063	-81.39
199.282	-122.99
199.501	7.03
199.719	-103.18
199.938	-3050.78
200.157	312.47
200.376	428.68
200.594	781.31
200.813	-19788.57
201.032	985.09
201.251	183.05
201.469	270.2
201.688	276.44
201.907	307.18
202.125	225.02
202.344	152.99
202.563	193.37
202.781	239.92
203	219.42
203.218	188.65
203.437	184.56
203.656	192.85
203.874	145.21
204.093	133.54
204.311	109.02
204.53	92.24
204.748	48.64
204.967	37.54
205.185	20.33
205.404	51.61
205.622	66.43
205.841	96.55
206.059	142.14
206.278	164.97
206.496	137.52
206.715	280.95
206.933	379.61
207.151	295.75
207.37	380.48
207.588	364.71
207.806	430.54
208.025	537.04
208.243	431.46
208.461	172.37
208.68	165.45
208.898	270.92
209.116	276.18
209.335	290.87
209.553	-1041.74
209.771	359.34
209.989	-3627.39
210.208	-2403.89
210.426	-980.44
210.644	-359.86
210.862	-260.74
211.081	-270.52
211.299	-251.83
211.517	-438
211.735	-388.81
211.953	-696.07
212.171	-289.63
212.39	-1468.7
212.608	-4655.47
212.826	649.55
213.044	519.46
213.262	421.66
213.48	416.33
213.698	568.43
213.916	-2979.22
214.134	-744.06
214.352	-1572.1
214.57	998.26
214.788	345.41
215.006	310.65
215.224	253.33
215.442	133.16
215.66	149.97
215.878	147.51
216.096	160.13
216.314	121.63
216.532	156.11
216.75	140.92
216.968	145.91
217.185	214.75
217.403	237.35
217.621	281.48
217.839	345.96
218.057	5871.36
218.275	-2506.9
218.492	-262.08
218.71	-164.07
218.928	-205.39
219.146	-92.19
219.363	-43.59
219.581	-124.17
219.799	-133.93
220.017	-83.18
220.234	-88.14
220.452	-83.73
220.67	-80.67
220.887	-167.47
221.105	-107.81
221.323	-85.08
221.54	-21.72
221.758	-7.94
221.976	7.5
222.193	-1.3
222.411	-61.7
222.629	-53.95
222.846	-106.61
223.064	-87.56
223.281	-92.68
223.499	-115.96
223.716	-136.8
223.934	-612.33
224.151	-1256.04
224.369	-627.2
224.586	290800
224.804	-964.56
225.021	-607.65
225.239	-344.99
225.456	-298.29
225.674	-278.23
225.891	-120.07
226.108	-118.19
226.326	-87.85
226.543	-62.86
226.76	-54.27
226.978	-36.86
227.195	-23.16
227.413	-6.73
227.63	-13.08
227.847	-19.33
228.064	-11.62
228.282	-9.42
228.499	-2.31
228.716	0.21
228.934	-2.95
229.151	-1.13
229.368	-1.18
229.585	-7.09
229.802	-4.42
230.02	-2.38
230.237	-0.09
230.454	2.78
230.671	4.28
230.888	-0.36
231.105	-4.15
231.323	-0.28
231.54	-5.03
231.757	-10.16
231.974	-9.35
232.191	-20.53
232.408	-19.96
232.625	-27.44
232.842	-39.07
233.059	-34.85
233.276	-27.42
233.493	-22.24
233.71	-21.51
233.927	-21.97
234.144	-9.7
234.361	-8.73
234.578	-9.6
234.795	-9.59
235.012	-8.02
235.229	-8.17
235.446	-18.47
235.663	-28.58
235.879	-25.38
236.096	-30.83
236.313	-38.17
236.53	-44.11
236.747	-33.21
236.964	-26.46
237.181	-31.79
237.397	-19.57
237.614	-19.51
237.831	-25.28
238.048	-21.56
238.264	-32.59
238.481	-32.84
238.698	-27.24
238.915	-37.6
239.131	-43.87
239.348	-50.56
239.565	-45.54
239.781	-42.18
239.998	-31.9
240.215	-24.64
240.431	-21.7
240.648	-14.7
240.865	-10.73
241.081	-8.4
241.298	-3.27
241.514	-2.84
241.731	-2.29
241.947	-1.09
242.164	-1.4
242.38	-3.02
242.597	-1.79
242.814	-0.36
243.03	-0.65
243.246	1.79
243.463	2.42
243.679	1.9
243.896	2.7
244.112	4.25
244.329	4.08
244.545	3.2
244.762	3.76
244.978	5.03
245.194	0.76
245.411	-0.74
245.627	-4.56
245.843	-2.82
246.06	-0.59
246.276	0.64
246.492	1.37
246.709	2.07
246.925	0.89
247.141	1.36
247.357	1.94
247.574	3.42
247.79	3.66
248.006	4.37
248.222	4.57
248.439	4.59
248.655	5.14
248.871	4.49
249.087	4.88
249.303	6
249.519	6.09
249.736	3.01
249.952	2.32
250.168	2.22
250.384	0.63
250.6	-0.01
250.816	0.95
251.032	-1.59
251.248	-1.94
251.464	-3.78
251.68	-3.16
251.896	-1.49
252.112	-0.08
252.328	0.46
252.544	1.06
252.76	1.76
252.976	1.3
253.192	-1.82
253.408	-3.87
253.624	-3
253.84	-5.08
254.056	-6.59
254.272	-8.57
254.487	-6.52
254.703	-5.4
254.919	-4.91
255.135	-5.07
255.351	-6.97
255.567	-6.92
255.782	-2.26
255.998	-3.13
256.214	-1.2
256.43	1.73
256.646	0.08
256.861	-4.96
257.077	-7.95
257.293	-11.33
257.508	-11.08
257.724	-10.56
257.94	-9.56
258.155	-9.27
258.371	-5.96
258.587	-5.66
258.802	-5.53
259.018	-3.93
259.234	-0.49
259.449	0.26
259.665	0.6
259.88	0.65
260.096	1.71
260.312	2.06
260.527	2.6
260.743	2.11
260.958	2.71
261.174	2.35
261.389	1.48
261.605	-0.94
261.82	-0.55
262.036	-0.83
262.251	-0.05
262.466	-0.49
262.682	-1.82
262.897	-3
263.113	-5.75
263.328	-5.82
263.543	-4.49
263.759	-3.8
263.974	-2.51
264.189	-5.06
264.405	-4.48
264.62	-5.66
264.835	-8.27
265.051	-7.15
265.266	-9.06
265.481	-6.39
265.696	-7.12
265.912	-9.54
266.127	-9.42
266.342	-8.49
266.557	-9.04
266.773	-7.59
266.988	-6.73
267.203	-7.99
267.418	-8
267.633	-6.93
267.848	-6.58
268.064	-6.64
268.279	-5.73
268.494	-7.19
268.709	-7.83
268.924	-6.55
269.139	-8.06
269.354	-9.6
269.569	-5.35
269.784	-4.94
269.999	-5.41
270.214	-6.61
270.429	-7.05
270.644	-5.77
270.859	-3.05
271.074	-1.5
271.289	-1.37
271.504	-0.31
271.719	-0.36
271.934	-2.35
272.149	-0.86
272.363	0.3
272.578	1.82
272.793	3.4
273.008	2.63
273.223	1.94
273.438	1.31
273.653	2.52
273.867	3.3
274.082	3.11
274.297	3.34
274.512	2.1
274.726	1.76
274.941	0.31
275.156	-1.06
275.371	-1.29
275.585	-1.78
275.8	-1.44
276.015	-4.26
276.229	-6.43
276.444	-5.58
276.659	-6.88
276.873	-7.23
277.088	-8.05
277.302	-8.66
277.517	-9.76
277.732	-11.04
277.946	-10.94
278.161	-11.93
278.375	-10.99
278.59	-10.28
278.804	-10.12
279.019	-7.82
279.233	-6.43
279.448	-6.25
279.662	-3.92
279.877	-3.77
280.091	-1.15
280.306	-0.56
280.52	-0.31
280.735	-1.22
280.949	0.61
281.163	1.86
281.378	1.37
281.592	1.67
281.806	3.44
282.021	2.2
282.235	2.5
282.449	1.99
282.664	1.97
282.878	2.33
283.092	3.19
283.307	2.07
283.521	1.57
283.735	2.11
283.949	1.56
284.164	0.29
284.378	2.13
284.592	3.15
284.806	3.14
285.02	2.96
285.234	3.35
285.449	3.77
285.663	3.24
285.877	3.46
286.091	3.43
286.305	4.03
286.519	4.7
286.733	4.19
286.947	3.24
287.161	2.83
287.375	3.13
287.589	1.78
287.803	2.11
288.017	2.46
288.231	1.52
288.445	1.73
288.659	0.45
288.873	-0.73
289.087	-2.03
289.301	-0.92
289.515	0.35
289.729	-0.25
289.943	1.33
290.157	0.75
290.371	1.02
290.584	1.94
290.798	1.59
291.012	1.46
291.226	2.33
291.44	2.7
291.654	2.62
291.867	2.07
292.081	2.13
292.295	0.75
292.509	1.62
292.722	1.54
292.936	0.89
293.15	2.27
293.364	2.5
293.577	2.3
293.791	2.62
294.005	2.84
294.218	3.17
294.432	2.96
294.645	3.57
294.859	2.56
295.073	2.41
295.286	2.62
295.5	1.77
295.713	1.31
295.927	1.69
296.14	2
296.354	1.59
296.568	1.34
296.781	0.68
296.994	-0.41
297.208	-0.74
297.421	0.11
297.635	-0.03
297.848	-0.04
298.062	1.27
298.275	0.3
298.489	-0.21
298.702	-0.31
298.915	0.57
299.129	2.09
299.342	3.27
299.555	4.16
299.769	4.54
299.982	5.4
300.195	6.94
300.409	5.05
300.622	6.59
300.835	7.21
301.048	7.12
301.262	6.12
301.475	6.3
301.688	6.38
301.901	6.38
302.115	4.69
302.328	3.69
302.541	2.07
302.754	3
302.967	1.65
303.18	0.71
303.393	1.82
303.607	1.99
303.82	1.45
304.033	0.91
304.246	0.84
304.459	0.86
304.672	1.36
304.885	0.88
305.098	1.1
305.311	2.15
305.524	2.49
305.737	2.23
305.95	3.65
306.163	4.68
306.376	6.79
306.589	6.69
306.802	7.88
307.015	7.81
307.228	6.92
307.44	7.72
307.653	7.51
307.866	7.8
308.079	7.32
308.292	6.7
308.505	6.38
308.718	5.42
308.93	5.04
309.143	4.75
309.356	5.15
309.569	6.78
309.781	6.31
309.994	6.07
310.207	6.41
310.42	6.48
310.632	6.2
310.845	6.45
311.058	6.67
311.27	7.14
311.483	7.69
311.696	6.83
311.908	6.5
312.121	7.06
312.333	6.51
312.546	6.66
312.759	6.42
312.971	5.19
313.184	4.09
313.396	4.84
313.609	6.17
313.821	4.72
314.034	6.66
314.246	6.23
314.459	4.55
314.671	5.86
314.884	5.86
315.096	7.09
315.309	7.48
315.521	6.6
315.733	5.35
315.946	3.57
316.158	4.36
316.371	2.62
316.583	2.51
316.795	3.86
317.008	2.2
317.22	1.21
317.432	0.34
317.644	-0.24
317.857	0.17
318.069	0.67
318.281	-0.43
318.494	-0.9
318.706	-1.98
318.918	-0.53
319.13	-2.16
319.342	-0.7
319.555	0.42
319.767	0.14
319.979	2.72
320.191	3.46
320.403	1.93
320.615	3.69
320.827	3.69
321.039	5.73
321.252	4.87
321.464	5.81
321.676	4.83
321.888	3.9
322.1	3.82
322.312	2.55
322.524	4.5
322.736	6.1
322.948	5.33
323.16	6.64
323.372	5.82
323.584	5.63
323.796	5.26
324.007	5.36
324.219	7.17
324.431	8.08
324.643	7.91
324.855	6.51
325.067	6.45
325.279	7.11
325.491	6.52
325.702	7.55
325.914	7.52
326.126	7.98
326.338	8.63
326.55	8.63
326.761	8.31
326.973	9.96
327.185	9.98
327.396	9.27
327.608	9.42
327.82	10.84
328.032	11.19
328.243	12.99
328.455	13.3
328.666	13.11
328.878	11.73
329.09	12.1
329.301	11.19
329.513	12.32
329.725	12.56
329.936	12.79
330.148	12.05
330.359	11.2
330.571	10.54
330.782	11.49
330.994	11.04
331.205	11.87
331.417	12.15
331.628	11.71
331.84	12.65
332.051	13.37
332.262	13.64
332.474	14.17
332.685	16.67
332.897	16.56
333.108	17.64
333.319	20.08
333.531	19.62
333.742	19.45
333.953	20.5
334.165	19.84
334.376	21.31
334.587	21.55
334.799	20.26
335.01	19.43
335.221	20.31
335.432	19.97
335.644	18.27
335.855	19.16
336.066	19.4
336.277	18.64
336.488	18.95
336.7	18.06
336.911	18.27
337.122	19.77
337.333	19.34
337.544	19.33
337.755	19.39
337.966	19.93
338.177	19.23
338.388	19.12
338.599	20.25
338.811	20.59
339.022	20.71
339.233	20.18
339.444	19.98
339.655	20.83
339.866	21.25
340.076	20.27
340.287	20.68
340.498	22.37
340.709	23.11
340.92	22
341.131	20.91
341.342	20.94
341.553	21.14
341.764	20.54
341.975	20.26
342.185	19.94
342.396	20.3
342.607	19.95
342.818	18.23
343.029	17.49
343.239	18.09
343.45	18.44
343.661	18.63
343.872	19.09
344.082	18.43
344.293	18.22
344.504	17.85
344.714	19.04
344.925	19.66
345.136	20.35
345.346	22.17
345.557	22.34
345.768	22.59
345.978	22.87
346.189	22.86
346.399	23.87
346.61	23.88
346.821	24.29
347.031	23.25
347.242	23.03
347.452	23.62
347.663	21.67
347.873	21.8
348.084	22.25
348.294	21.64
348.504	20.58
348.715	21.16
348.925	21.37
349.136	20.33
349.346	20.4
349.557	20.89
349.767	20.21
349.977	20.74
350.188	21.16
350.398	21.07
350.608	21.46
350.819	23.19
351.029	22.83
351.239	22.52
351.449	23.4
351.66	24.08
351.87	23.59
352.08	24
352.29	24.34
352.501	23.52
352.711	23.58
352.921	23
353.131	22.17
353.341	22.21
353.552	22.14
353.762	22.39
353.972	21.74
354.182	21.91
354.392	21.2
354.602	20.58
354.812	19.77
355.022	19.59
355.232	19.86
355.442	19.27
355.652	18.6
355.862	18.91
356.072	18.2
356.282	18.79
356.492	18.81
356.702	19.64
356.912	19.83
357.122	20.15
357.332	19.59
357.542	20.16
357.752	21.06
357.962	21.66
358.171	21.82
358.381	21.81
358.591	21.41
358.801	21.23
359.011	21.09
359.221	20.9
359.43	20.52
359.64	20.98
359.85	21.53
360.06	21.31
360.269	21.27
360.479	20.56
360.689	20.52
360.899	20.88
361.108	20.71
361.318	20.44
361.528	20.7
361.737	21.41
361.947	21.56
362.156	20.67
362.366	20.24
362.576	19.72
362.785	19.68
362.995	19.95
363.204	19.82
363.414	19.63
363.623	20.21
363.833	20.44
364.042	20.27
364.252	20.42
364.461	20.9
364.671	21.26
364.88	22.19
365.09	22.45
365.299	22.11
365.509	21.1
365.718	21.54
365.927	20.85
366.137	20.32
366.346	20.51
366.555	19.87
366.765	19.19
366.974	19.47
367.183	18.83
367.393	18.7
367.602	18.54
367.811	19.09
368.021	18.66
368.23	18.9
368.439	18.66
368.648	18.62
368.857	18.38
369.067	18.13
369.276	17.82
369.485	17.66
369.694	17.62
369.903	17.55
370.112	17.75
370.321	17.87
370.531	17.31
370.74	17.23
370.949	16.88
371.158	17.28
371.367	17.31
371.576	17.14
371.785	17.1
371.994	16.72
372.203	16.64
372.412	16.3
372.621	16.83
372.83	17.23
373.039	17.32
373.248	17.7
373.457	16.93
373.666	17
373.874	17.07
374.083	17.43
374.292	17.69
374.501	17.46
374.71	17.47
374.919	16.56
375.128	16.68
375.336	16.5
375.545	15.73
375.754	15.58
375.963	15.56
376.171	15.14
376.38	14.64
376.589	14.69
376.798	14.85
377.006	14.36
377.215	14.52
377.424	14.48
377.632	14.53
377.841	14.55
378.05	14.43
378.258	14.26
378.467	14.77
378.675	14.62
378.884	14.13
379.093	13.92
379.301	14.64
379.51	14.58
379.718	14.12
379.927	14.27
380.135	14.44
380.344	14.79
380.552	15.39
380.761	14.97
380.969	14.95
381.177	15.57
381.386	15.56
381.594	15.17
381.803	14.71
382.011	14.83
382.219	13.96
382.428	13.51
382.636	13.86
382.845	12.97
383.053	12.75
383.261	12.35
383.469	12.4
383.678	12.62
383.886	12.61
384.094	12.72
384.302	12.13
384.511	12.29
384.719	12.47
384.927	12.59
385.135	12.69
385.343	12.49
385.552	12.97
385.76	12.51
385.968	12.33
386.176	12.42
386.384	12.45
386.592	12.55
386.8	12.49
387.008	12.44
387.216	11.91
387.424	12.17
387.633	12.33
387.841	12.04
388.049	12.02
388.257	12.11
388.465	12.09
388.672	11.7
388.88	11.55
389.088	11.75
389.296	11.74
389.504	11.81
389.712	11.55
389.92	11.5
390.128	11.6
390.336	11.27
390.544	11.1
390.751	10.82
390.959	10.87
391.167	11.04
391.375	11.33
391.583	11.45
391.79	11.15
391.998	11.2
392.206	11.03
392.414	11.04
392.621	11.31
392.829	11.7
393.037	11.49
393.244	11.7
393.452	11.69
393.66	11.55
393.867	11.32
394.075	11.58
394.283	11.21
394.49	11.31
394.698	11.18
394.905	10.9
395.113	10.28
395.32	10.57
395.528	10.21
395.735	10.16
395.943	9.74
396.15	9.52
396.358	9.42
396.565	9.5
396.773	9.56
396.98	9.56
397.188	9.85
397.395	10.08
397.602	9.83
397.81	10.03
398.017	9.75
398.225	9.91
398.432	10.04
398.639	10.22
398.847	10.26
399.054	9.92
399.261	9.99
399.468	9.81
399.676	9.77
399.883	9.48
400.09	9.48
400.297	9.48
400.505	9.38
400.712	9.53
400.919	9.21
401.126	9.27
401.333	9.28
401.54	9.02
401.748	8.73
401.955	8.64
402.162	8.77
402.369	8.81
402.576	9.13
402.783	9.3
402.99	9.21
403.197	9.41
403.404	9.05
403.611	8.97
403.818	8.93
404.025	9.23
404.232	9.44
404.439	9.58
404.646	9.42
404.853	9.26
405.06	9.12
405.267	9.25
405.474	8.98
405.681	9.48
405.887	9.58
406.094	9.86
406.301	9.77
406.508	9.33
406.715	9.31
406.922	9.64
407.128	9.72
407.335	9.84
407.542	9.57
407.749	9.43
407.955	9.24
408.162	9.54
408.369	9.55
408.575	9.6
408.782	9.82
408.989	9.66
409.195	9.76
409.402	9.61
409.609	9.52
409.815	9.9
410.022	10.16
410.228	9.95
410.435	9.69
410.642	9.25
410.848	9.25
411.055	9.26
411.261	9.29
411.468	8.97
411.674	8.86
411.881	8.54
412.087	8.16
412.294	8.03
412.5	8.15
412.706	8.09
412.913	7.84
413.119	7.81
413.326	7.67
413.532	7.71
413.738	8.06
413.945	7.99
414.151	8.15
414.357	8.33
414.564	8.16
414.77	8.25
414.976	8.21
415.182	8.8
415.389	8.84
415.595	8.97
415.801	8.89
416.007	8.66
416.214	8.77
416.42	8.72
416.626	8.7
416.832	9.06
417.038	8.89
417.244	8.7
417.45	8.72
417.657	8.54
417.863	8.45
418.069	8.38
418.275	8.28
418.481	8.25
418.687	8.24
418.893	8.05
419.099	7.79
419.305	7.98
419.511	8.07
419.717	8.03
419.923	8.02
420.129	8.14
420.335	8.27
420.541	8.31
420.746	8.46
420.952	8.58
421.158	8.69
421.364	8.71
421.57	8.55
421.776	8.45
421.982	8.3
422.187	8.32
422.393	8.34
422.599	8.34
422.805	8.11
423.01	8.07
423.216	7.87
423.422	7.7
423.628	7.8
423.833	7.83
424.039	7.98
424.245	8.01
424.45	8.08
424.656	7.93
424.862	7.81
425.067	8.09
425.273	8.06
425.478	8.18
425.684	8.36
425.889	8.3
426.095	8.23
426.301	8.25
426.506	8.42
426.712	8.45
426.917	8.58
427.123	8.75
427.328	8.47
427.533	8.41
427.739	8.29
427.944	8.23
428.15	8.25
428.355	8.44
428.561	8.4
428.766	8.08
428.971	7.85
429.177	7.85
429.382	7.67
429.587	7.78
429.793	7.6
429.998	7.76
430.203	7.62
430.408	7.34
430.614	7.08
430.819	7.06
431.024	6.93
431.229	7.34
431.434	7.25
431.64	7.16
431.845	7.19
432.05	7.33
432.255	7.22
432.46	7.23
432.665	7.4
432.87	7.59
433.076	7.66
433.281	7.82
433.486	7.56
433.691	7.41
433.896	7.4
434.101	7.45
434.306	7.55
434.511	7.52
434.716	7.47
434.921	7.42
435.126	7.36
435.331	7.14
435.535	7.14
435.74	7.22
435.945	7.35
436.15	7.42
436.355	7.51
436.56	7.22
436.765	7.33
436.97	7.57
437.174	7.67
437.379	7.74
437.584	7.8
437.789	7.78
437.993	7.66
438.198	7.68
438.403	7.86
438.608	7.87
438.812	7.84
439.017	7.81
439.222	7.84
439.426	7.83
439.631	7.71
439.836	7.75
440.04	7.81
440.245	7.83
440.45	7.82
440.654	7.75
440.859	7.75
441.063	7.87
441.268	7.85
441.472	7.74
441.677	7.6
441.881	7.59
442.086	7.55
442.29	7.43
442.495	7.51
442.699	7.39
442.904	7.26
443.108	7.08
443.312	7.11
443.517	7.09
443.721	7.11
443.925	7.25
444.13	7.34
444.334	7.37
444.538	7.54
444.743	7.48
444.947	7.54
445.151	7.62
445.356	7.79
445.56	7.71
445.764	7.76
445.968	7.74
446.173	7.72
446.377	7.71
446.581	7.76
446.785	7.69
446.989	7.65
447.193	7.63
447.398	7.67
447.602	7.49
447.806	7.63
448.01	7.55
448.214	7.55
448.418	7.54
448.622	7.58
448.826	7.52
449.03	7.58
449.234	7.64
449.438	7.59
449.642	7.56
449.846	7.63
450.05	7.38
450.254	7.4
450.458	7.35
450.662	7.43
450.866	7.27
451.069	7.33
451.273	7.22
451.477	7.21
451.681	7.36
451.885	7.21
452.089	7.17
452.292	7.37
452.496	7.48
452.7	7.32
452.904	7.22
453.107	7.22
453.311	7.21
453.515	7.05
453.719	6.93
453.922	6.87
454.126	7.05
454.33	7.01
454.533	6.86
454.737	6.61
454.94	6.53
455.144	6.59
455.348	6.62
455.551	6.46
455.755	6.7
455.958	6.68
456.162	6.57
456.365	6.25
456.569	6.33
456.772	6.47
456.976	6.52
457.179	6.78
457.383	6.61
457.586	6.41
457.79	6.54
457.993	6.4
458.196	6.49
458.4	6.63
458.603	6.8
458.807	6.79
459.01	6.6
459.213	6.7
459.417	6.58
459.62	6.76
459.823	6.82
460.026	6.8
460.23	6.85
460.433	6.88
460.636	6.93
460.839	7.03
461.042	7.12
461.246	7.16
461.449	7.2
461.652	7.21
461.855	7.12
462.058	7.21
462.261	7.14
462.464	7.18
462.668	7.21
462.871	7.12
463.074	6.9
463.277	6.76
463.48	7.05
463.683	7.02
463.886	7.12
464.089	7.19
464.292	7.16
464.495	7.21
464.698	7.32
464.901	7.37
465.104	7.27
465.306	7.41
465.509	7.41
465.712	7.14
465.915	7.26
466.118	7.62
466.321	7.48
466.524	7.43
466.726	7.44
466.929	7.37
467.132	7.18
467.335	7.35
467.538	7.36
467.74	7.33
467.943	7.53
468.146	7.37
468.348	7.14
468.551	7.4
468.754	7.62
468.956	7.61
469.159	7.62
469.362	7.64
469.564	7.57
469.767	7.66
469.969	7.8
470.172	7.75
470.375	7.83
470.577	7.72
470.78	7.56
470.982	7.46
471.185	7.68
471.387	7.72
471.59	7.93
471.792	7.85
471.995	7.76
472.197	7.78
472.399	7.77
472.602	7.76
472.804	7.84
473.007	7.7
473.209	7.7
473.411	7.38
473.614	7.26
473.816	6.98
474.018	7.13
474.22	7.18
474.423	7.1
474.625	7.02
474.827	6.99
475.03	6.95
475.232	6.94
475.434	6.88
475.636	7.11
475.838	6.98
476.04	7.2
476.243	7.19
476.445	7.06
476.647	7.1
476.849	7.32
477.051	7.25
477.253	7.36
477.455	7.39
477.657	7.49
477.859	7.5
478.061	7.7
478.263	7.8
478.465	7.59
478.667	7.66
478.869	7.66
479.071	7.34
479.273	7.38
479.475	7.23
479.677	7.32
479.879	7.31
480.081	7.27
480.283	7.19
480.485	7.17
480.686	7.28
480.888	7.27
481.09	7.15
481.292	7.35
481.494	7.43
481.695	7.47
481.897	7.47
482.099	7.54
482.301	7.52
482.502	7.59
482.704	7.52
482.906	7.55
483.107	7.58
483.309	7.68
483.511	7.66
483.712	7.63
483.914	7.59
484.115	7.62
484.317	7.57
484.519	7.64
484.72	7.55
484.922	7.57
485.123	7.54
485.325	7.5
485.526	7.43
485.728	7.43
485.929	7.48
486.131	7.59
486.332	7.56
486.534	7.59
486.735	7.49
486.936	7.58
487.138	7.54
487.339	7.64
487.541	7.6
487.742	7.69
487.943	7.68
488.144	7.65
488.346	7.62
488.547	7.66
488.748	7.68
488.95	7.66
489.151	7.63
489.352	7.67
489.553	7.52
489.755	7.6
489.956	7.5
490.157	7.42
490.358	7.39
490.559	7.36
490.76	7.35
490.961	7.29
491.163	7.33
491.364	7.43
491.565	7.38
491.766	7.46
491.967	7.46
492.168	7.54
492.369	7.59
492.57	7.58
492.771	7.57
492.972	7.55
493.173	7.6
493.374	7.62
493.575	7.55
493.776	7.59
493.976	7.61
494.177	7.55
494.378	7.43
494.579	7.49
494.78	7.53
494.981	7.52
495.182	7.45
495.382	7.38
495.583	7.52
495.784	7.59
495.985	7.68
496.185	7.55
496.386	7.46
496.587	7.52
496.788	7.4
496.988	7.4
497.189	7.47
497.39	7.49
497.59	7.43
497.791	7.26
497.992	7.32
498.192	7.28
498.393	7.26
498.593	7.47
498.794	7.43
498.994	7.7
499.195	7.89
499.395	7.91
499.596	7.94
499.796	8.12
499.997	8.17
500.197	8
500.398	8.03
500.598	8.3
500.799	8.23
500.999	8.4
501.199	8.4
501.4	8.23
501.6	8.26
501.801	8.45
502.001	8.51
502.201	8.58
502.402	8.77
502.602	8.77
502.802	8.81
503.002	9.02
503.203	9.19
503.403	9.19
503.603	9.28
503.803	9.16
504.003	8.98
504.204	9.02
504.404	9.26
504.604	9.22
504.804	9.29
505.004	9.24
505.204	9.24
505.404	9.02
505.604	8.93
505.804	8.96
506.005	9.07
506.205	9.22
506.405	9.25
506.605	9.3
506.805	9.37
507.005	9.48
507.204	9.69
507.404	9.75
507.604	9.78
507.804	9.99
508.004	10.15
508.204	10.2
508.404	10.21
508.604	10.07
508.804	10.02
509.003	10.18
509.203	10.28
509.403	10.17
509.603	10.28
509.803	10.52
510.002	10.57
510.202	10.62
510.402	10.65
510.602	10.7
510.801	10.92
511.001	11.01
511.201	10.9
511.4	10.95
511.6	11.24
511.8	11.2
511.999	11.07
512.199	11.08
512.398	11.14
512.598	11.41
512.797	11.73
512.997	11.81
513.197	11.87
513.396	12.22
513.596	12.33
513.795	12.18
513.994	12.38
514.194	12.54
514.393	12.61
514.593	12.83
514.792	12.78
514.992	12.85
515.191	13
515.39	13.19
515.59	13.31
515.789	13.42
515.988	13.56
516.188	13.68
516.387	13.82
516.586	13.94
516.786	13.87
516.985	13.97
517.184	13.94
517.383	13.99
517.582	14.04
517.782	14.06
517.981	14.14
518.18	14.21
518.379	14.23
518.578	14.28
518.777	14.33
518.976	14.47
519.176	14.66
519.375	14.87
519.574	14.98
519.773	15.08
519.972	15.07
520.171	15.18
520.37	15.25
520.569	15.38
520.768	15.51
520.967	15.58
521.166	15.65
521.365	15.5
521.564	15.44
521.762	15.5
521.961	15.43
522.16	15.64
522.359	15.77
522.558	16.09
522.757	16.31
522.956	16.38
523.154	16.58
523.353	16.63
523.552	16.87
523.751	17.06
523.949	17.2
524.148	17.42
524.347	17.51
524.546	17.64
524.744	17.66
524.943	17.74
525.142	17.89
525.34	18.07
525.539	18.23
525.737	18.43
525.936	18.52
526.135	18.59
526.333	18.55
526.532	18.69
526.73	18.76
526.929	18.84
527.127	18.89
527.326	19.03
527.524	19.01
527.723	19.02
527.921	19.04
528.12	19.05
528.318	19.17
528.516	19.34
528.715	19.39
528.913	19.4
529.112	19.41
529.31	19.49
529.508	19.47
529.707	19.49
529.905	19.61
530.103	19.65
530.301	19.75
530.5	19.79
530.698	19.84
530.896	19.8
531.094	20
531.293	20.16
531.491	20.18
531.689	20.35
531.887	20.45
532.085	20.5
532.283	20.52
532.481	20.61
532.68	20.73
532.878	20.82
533.076	20.98
533.274	21.01
533.472	21.01
533.67	21.01
533.868	21.12
534.066	21.28
534.264	21.36
534.462	21.58
534.66	21.75
534.858	21.77
535.056	21.92
535.253	22.01
535.451	21.97
535.649	22.15
535.847	22.32
536.045	22.33
536.243	22.42
536.441	22.56
536.638	22.53
536.836	22.48
537.034	22.63
537.232	22.62
537.43	22.68
537.627	22.77
537.825	22.9
538.023	23.09
538.22	23.23
538.418	23.23
538.616	23.26
538.813	23.48
539.011	23.59
539.209	23.47
539.406	23.41
539.604	23.56
539.801	23.6
539.999	23.63
540.196	23.68
540.394	23.73
540.591	23.86
540.789	23.96
540.986	23.96
541.184	24.06
541.381	24.2
541.579	24.33
541.776	24.43
541.974	24.6
542.171	24.69
542.368	24.74
542.566	24.73
542.763	24.75
542.96	24.71
543.158	24.8
543.355	24.77
543.552	24.75
543.75	24.83
543.947	24.92
544.144	24.95
544.341	25.09
544.539	25.18
544.736	25.46
544.933	25.61
545.13	25.95
545.327	26.08
545.524	26.2
545.722	26.4
545.919	26.59
546.116	26.66
546.313	26.66
546.51	26.6
546.707	26.71
546.904	26.65
547.101	26.64
547.298	26.5
547.495	26.65
547.692	26.81
547.889	26.9
548.086	26.87
548.283	26.85
548.48	26.96
548.677	26.88
548.874	26.86
549.07	27.01
549.267	27.1
549.464	27.21
549.661	27.13
549.858	27.01
550.055	26.8
550.251	26.78
550.448	26.77
550.645	26.98
550.842	27.16
551.038	27.18
551.235	27.18
551.432	27.16
551.628	27.07
551.825	27.2
552.022	27.54
552.218	27.75
552.415	27.99
552.612	27.98
552.808	28.02
553.005	28.14
553.201	28.26
553.398	28.27
553.594	28.24
553.791	28.26
553.987	28.25
554.184	28.21
554.38	28.15
554.577	27.89
554.773	27.87
554.97	27.75
555.166	27.66
555.362	27.64
555.559	27.87
555.755	28.05
555.952	28.39
556.148	28.36
556.344	28.41
556.541	28.57
556.737	28.53
556.933	28.53
557.129	28.53
557.326	28.78
557.522	28.71
557.718	28.51
557.914	28.74
558.11	28.8
558.307	28.91
558.503	28.85
558.699	29.05
558.895	29.29
559.091	29.42
559.287	29.52
559.483	29.36
559.679	29.69
559.876	29.85
560.072	29.66
560.268	29.46
560.464	29.4
560.66	29.53
560.856	29.46
561.052	29.64
561.247	29.89
561.443	29.8
561.639	30.05
561.835	29.91
562.031	30.15
562.227	30.33
562.423	30.62
562.619	30.91
562.815	31.06
563.01	31.07
563.206	31.09
563.402	31.19
563.598	31.43
563.793	31.22
563.989	31.3
564.185	31.16
564.381	31.13
564.576	31.16
564.772	30.96
564.968	30.67
565.163	30.84
565.359	30.92
565.555	30.79
565.75	30.84
565.946	31.05
566.141	31.06
566.337	31.09
566.532	31.26
566.728	31.32
566.923	31.39
567.119	31.7
567.314	31.74
567.51	31.79
567.705	31.86
567.901	31.84
568.096	32.02
568.292	32.17
568.487	32.37
568.682	32.41
568.878	32.54
569.073	32.63
569.268	32.66
569.464	32.78
569.659	32.86
569.854	32.89
570.05	32.9
570.245	32.69
570.44	32.56
570.635	32.44
570.831	32.39
571.026	32.36
571.221	32.31
571.416	32.3
571.611	32.27
571.806	32.15
572.002	32.15
572.197	32.07
572.392	32.38
572.587	32.6
572.782	32.63
572.977	32.82
573.172	32.81
573.367	33.09
573.562	33.1
573.757	32.98
573.952	33.24
574.147	33.31
574.342	33.56
574.537	33.32
574.732	33.34
574.927	33.48
575.121	33.41
575.316	33.46
575.511	33.24
575.706	33.18
575.901	33.25
576.096	33.03
576.29	33.2
576.485	33.1
576.68	33.19
576.875	32.98
577.069	32.88
577.264	33.02
577.459	33.14
577.654	33.62
577.848	33.73
578.043	33.82
578.238	33.91
578.432	33.71
578.627	33.9
578.821	33.9
579.016	33.94
579.21	33.91
579.405	34.01
579.6	34.04
579.794	33.6
579.989	33.32
580.183	33.61
580.378	33.85
580.572	33.97
580.766	33.92
580.961	34.17
581.155	34.46
581.35	34.32
581.544	33.93
581.738	33.98
581.933	33.98
582.127	34.3
582.321	34.24
582.516	34.33
582.71	34.37
582.904	34.32
583.099	34.32
583.293	34.14
583.487	34.48
583.681	34.54
583.875	34.44
584.07	34.44
584.264	34.41
584.458	34.64
584.652	34.44
584.846	34.48
585.04	34.65
585.234	34.39
585.428	34.59
585.623	34.6
585.817	34.54
586.011	34.48
586.205	34.42
586.399	34.5
586.593	34.43
586.787	34.49
586.981	34.61
587.174	34.77
587.368	35.12
587.562	35.08
587.756	34.98
587.95	35
588.144	35
588.338	35.31
588.532	35.54
588.725	35.48
588.919	35.6
589.113	35.65
589.307	35.55
589.501	35.42
589.694	35.62
589.888	35.77
590.082	35.83
590.275	36.06
590.469	36.18
590.663	36.21
590.856	35.9
591.05	35.89
591.244	35.98
591.437	36.09
591.631	36.07
591.824	35.74
592.018	35.86
592.212	36.09
592.405	36.06
592.599	35.89
592.792	35.78
592.986	36.18
593.179	36.13
593.372	36.06
593.566	35.71
593.759	35.93
593.953	36.17
594.146	36.13
594.339	36.17
594.533	36.14
594.726	36.2
594.92	36.32
595.113	35.96
595.306	36.1
595.499	35.97
595.693	36.19
595.886	36.11
596.079	36.18
596.272	36.26
596.466	36.27
596.659	36.25
596.852	35.99
597.045	36.02
597.238	36.27
597.431	36.02
597.624	36.01
597.818	36.11
598.011	36.16
598.204	36.05
598.397	36
598.59	35.76
598.783	35.96
598.976	36.26
599.169	36.06
599.362	36.04
599.555	36.14
599.748	36.33
599.941	36.21
600.134	36.03
600.326	36.19
600.519	36.28
600.712	36.5
600.905	36.42
601.098	36.42
601.291	36.34
601.483	36.26
601.676	36.38
601.869	36.39
602.062	36.42
602.255	36.43
602.447	36.3
602.64	36.01
602.833	36.12
603.025	36.07
603.218	36.2
603.411	36.32
603.603	36.33
603.796	36.48
603.989	36.4
604.181	36.38
604.374	36.44
604.566	36.41
604.759	36.63
604.951	36.53
605.144	36.37
605.336	36.13
605.529	36.18
605.721	36.3
605.914	36.03
606.106	36.14
606.299	36.27
606.491	36.16
606.683	36.3
606.876	36.25
607.068	36.12
607.26	36.22
607.453	36.53
607.645	36.34
607.837	36.39
608.03	36.78
608.222	37.03
608.414	36.79
608.606	37.1
608.799	37.24
608.991	37.41
609.183	37.86
609.375	38.29
609.567	38.67
609.759	39.38
609.952	39.67
610.144	39.88
610.336	39.86
610.528	40.46
610.72	40.91
610.912	41.14
611.104	41.33
611.296	41.57
611.488	41.35
611.68	41.31
611.872	41.13
612.064	40.97
612.256	41.18
612.448	41.27
612.64	41.1
612.832	40.89
613.023	40.77
613.215	40.52
613.407	40.15
613.599	40.02
613.791	39.55
613.983	39.51
614.174	39.4
614.366	38.8
614.558	38.96
614.75	38.55
614.941	38.44
615.133	38.44
615.325	38.49
615.516	38.21
615.708	38.49
615.9	38.5
616.091	38.07
616.283	38.01
616.475	37.96
616.666	37.57
616.858	37.29
617.049	37.17
617.241	36.71
617.432	36.56
617.624	36.34
617.815	36.02
618.007	36.2
618.198	36.41
618.39	36.33
618.581	36.03
618.773	36.13
618.964	36.71
619.155	36.71
619.347	36.83
619.538	37.07
619.729	37.53
619.921	37.61
620.112	37.44
620.303	37.36
620.494	37.34
620.686	37.49
620.877	37.34
621.068	37.33
621.259	36.98
621.451	36.97
621.642	36.64
621.833	36.61
622.024	36.82
622.215	37.05
622.406	37
622.597	37.26
622.788	37.45
622.98	37.43
623.171	37.44
623.362	37.77
623.553	37.94
623.744	38.04
623.935	38.1
624.126	38.15
624.317	37.96
624.508	38.2
624.698	37.86
624.889	37.76
625.08	37.97
625.271	37.84
625.462	37.52
625.653	37.39
625.844	37.51
626.034	37.39
626.225	37.42
626.416	37.58
626.607	37.33
626.798	37.5
626.988	37.55
627.179	37.4
627.37	37.63
627.56	37.63
627.751	37.74
627.942	37.52
628.132	37.64
628.323	37.39
628.514	37.46
628.704	37.45
628.895	37.5
629.085	37.47
629.276	37.51
629.466	37.25
629.657	37.24
629.847	37.37
630.038	37.85
630.228	37.93
630.419	37.98
630.609	37.7
630.8	37.76
630.99	37.96
631.181	38.2
631.371	38.55
631.561	38.39
631.752	38.65
631.942	38.45
632.132	38.38
632.323	38.27
632.513	38.28
632.703	38.26
632.893	38.04
633.084	38.03
633.274	37.94
633.464	37.41
633.654	37.39
633.844	37.33
634.034	37.35
634.225	37.06
634.415	37.22
634.605	37.28
634.795	37.37
634.985	37.36
635.175	37.12
635.365	36.82
635.555	36.6
635.745	36.69
635.935	36.59
636.125	36.62
636.315	36.59
636.505	36.35
636.695	36.57
636.885	36.77
637.075	36.95
637.265	36.93
637.455	37.19
637.644	37.32
637.834	37.5
638.024	37.59
638.214	37.35
638.404	37.54
638.593	37.2
638.783	37.09
638.973	36.83
639.163	36.4
639.352	36.5
639.542	36.48
639.732	36.85
639.921	37.08
640.111	37.04
640.301	37.3
640.49	37.27
640.68	37.59
640.87	37.24
641.059	37.36
641.249	37.86
641.438	37.92
641.628	37.87
641.817	37.73
642.007	37.35
642.196	37.55
642.386	37.67
642.575	37.35
642.764	37.7
642.954	38.12
643.143	37.79
643.333	37.96
643.522	37.6
643.711	37.53
643.901	37.29
644.09	37.33
644.279	37.32
644.469	37.36
644.658	37.94
644.847	37.71
645.036	37.45
645.226	37.49
645.415	37.21
645.604	37.69
645.793	37.79
645.982	37.89
646.171	37.94
646.361	37.6
646.55	37.37
646.739	36.85
646.928	36.76
647.117	36.98
647.306	37.11
647.495	37.54
647.684	36.9
647.873	36.83
648.062	36.86
648.251	36.91
648.44	37.01
648.629	37.2
648.818	37.29
649.007	37.42
649.196	37.04
649.384	37.16
649.573	37.29
649.762	37.8
649.951	37.94
650.14	37.83
650.328	37.82
650.517	37.74
650.706	37.36
650.895	37.49
651.083	37.13
651.272	37.67
651.461	37.42
651.65	36.99
651.838	36.52
652.027	36.61
652.216	36.74
652.404	36.64
652.593	37.2
652.781	37.28
652.97	37.03
653.158	37.32
653.347	36.88
653.535	37.05
653.724	36.84
653.912	36.97
654.101	37
654.289	37.06
654.478	36.95
654.666	36.35
654.855	36.43
655.043	36.32
655.231	36.42
655.42	36.33
655.608	36.29
655.796	36.45
655.985	36.99
656.173	36.95
656.361	36.85
656.55	37.03
656.738	37.19
656.926	37.09
657.114	37.64
657.302	37.5
657.491	37.88
657.679	38.26
657.867	38.58
658.055	38.36
658.243	38.64
658.431	38.44
658.619	38.52
658.807	38.12
658.996	38.05
659.184	37.73
659.372	37.68
659.56	37.67
659.748	37.55
659.936	37.38
660.124	37.33
660.311	37.19
660.499	37.41
660.687	37.42
660.875	37.86
661.063	38.21
661.251	38.42
661.439	38.77
661.627	38.49
661.814	38.56
662.002	38.19
662.19	38.29
662.378	37.95
662.565	38.02
662.753	38.13
662.941	38.08
663.129	38.07
663.316	38.18
663.504	37.9
663.692	38.11
663.879	37.98
664.067	38.32
664.254	38.32
664.442	38.26
664.63	38.08
664.817	37.69
665.005	37.94
665.192	37.66
665.38	37.46
665.567	37.26
665.755	37.06
665.942	37.1
666.13	37.55
666.317	37.53
666.504	37.75
666.692	38.12
666.879	38.56
667.067	38.44
667.254	38.38
667.441	38.14
667.629	38.7
667.816	38.83
668.003	38.51
668.19	37.95
668.378	38.11
668.565	38.11
668.752	38.06
668.939	38.25
669.127	38.59
669.314	38.8
669.501	39.15
669.688	38.67
669.875	39.04
670.062	39.23
670.249	39.6
670.436	39.56
670.623	39.44
670.81	39.39
670.997	38.66
671.184	38.26
671.371	38.17
671.558	38.06
671.745	38.19
671.932	37.92
672.119	38.11
672.306	38.17
672.493	38.02
672.68	37.97
672.867	37.8
673.054	38.26
673.24	37.79
673.427	37.76
673.614	37.35
673.801	37.28
673.988	37.18
674.174	36.66
674.361	36.38
674.548	36.43
674.734	36.35
674.921	36.06
675.108	35.75
675.294	36.25
675.481	36.34
675.668	37.25
675.854	36.8
676.041	36.69
676.227	37.18
676.414	36.85
676.601	36.76
676.787	36.93
676.974	37.07
677.16	37
677.347	37.67
677.533	37.49
677.719	37.37
677.906	37.9
678.092	37.61
678.279	37.83
678.465	38.47
678.651	38.81
678.838	38.78
679.024	38.84
679.21	38.89
679.397	38.38
679.583	38.26
679.769	37.92
679.955	38.12
680.142	38.61
680.328	38.32
680.514	37.77
680.7	37.78
680.886	37.52
681.073	37.95
681.259	38.09
681.445	38.37
681.631	38.59
681.817	38.63
682.003	38.32
682.189	38.18
682.375	38.47
682.561	38.49
682.747	37.84
682.933	38.18
683.119	37.47
683.305	37.27
683.491	36.93
683.677	36.84
683.863	37.03
684.049	36.91
684.235	36.54
684.42	36.55
684.606	36.8
684.792	36.99
684.978	36.68
685.164	36.82
685.349	37.12
685.535	36.83
685.721	37.14
685.907	36.58
686.092	36.82
686.278	37.31
686.464	36.75
686.649	37.08
686.835	37.34
687.021	37.96
687.206	38.43
687.392	38.35
687.577	38.44
687.763	38.5
687.948	38.92
688.134	38.78
688.319	38.42
688.505	38.35
688.69	37.99
688.876	38.34
689.061	38
689.247	37.98
689.432	38.1
689.618	38.55
689.803	38.03
689.988	38.11
690.174	38.09
690.359	38.21
690.544	38.38
690.73	38.41
690.915	37.72
691.1	37.36
691.285	37.21
691.471	36.64
691.656	36.53
691.841	36.73
692.026	37
692.211	37.01
692.396	36.68
692.582	37.08
692.767	36.89
692.952	37.49
693.137	38.24
693.322	38.23
693.507	38.86
693.692	38.68
693.877	38.94
694.062	38.18
694.247	38.44
694.432	38.96
694.617	38.89
694.802	39.45
694.987	38.57
695.172	38.44
695.357	37.97
695.541	37.44
695.726	37.23
695.911	37.14
696.096	37.93
696.281	37.98
696.466	37.9
696.65	37.75
696.835	38.01
697.02	38.65
697.204	38.61
697.389	38.95
697.574	38.83
697.759	38.95
697.943	38.6
698.128	38.23
698.312	38.28
698.497	38.54
698.682	38.49
698.866	38.21
699.051	38.14
699.235	38.31
699.42	38.48
699.604	38.53
699.789	38.63
699.973	38.89
700.158	39.19
700.342	39.47
700.527	39.02
700.711	39.07
700.895	39.22
701.08	39.3
701.264	38.48
701.448	38.3
701.633	38.42
701.817	38.05
702.001	37.75
702.186	37.6
702.37	36.93
702.554	37.35
702.738	37.35
702.923	36.8
703.107	36.4
703.291	37.23
703.475	37.58
703.659	38.22
703.843	38.43
704.027	38.87
704.212	38.47
704.396	38.95
704.58	38.54
704.764	38.55
704.948	39.22
705.132	39.68
705.316	39.3
705.5	38.67
705.684	38.11
705.868	37.97
706.052	37.57
706.235	38.06
706.419	38.16
706.603	38.8
706.787	39
706.971	38.23
707.155	37.72
707.339	37.38
707.522	37.05
707.706	37.4
707.89	37.55
708.074	37.95
708.257	37.48
708.441	37.24
708.625	36.87
708.808	37.42
708.992	37.93
709.176	38.63
709.359	39.43
709.543	39.9
709.727	39.32
709.91	39.11
710.094	39.08
710.277	39.12
710.461	39.19
710.644	39.65
710.828	38.73
711.011	38.78
711.195	38.74
711.378	38.02
711.562	37.75
711.745	37.83
711.928	37.85
712.112	37.73
712.295	38.11
712.478	38.06
712.662	37.49
712.845	37.75
713.028	37.18
713.212	36.09
713.395	36.43
713.578	36.73
713.761	36.76
713.945	36.93
714.128	36.89
714.311	37.04
714.494	36.71
714.677	36.83
714.86	36.96
715.043	37.71
715.227	38.48
715.41	38.3
715.593	38.35
715.776	38.34
715.959	38.31
716.142	38.62
716.325	38.56
716.508	38.81
716.691	38.93
716.874	39.15
717.057	38.34
717.239	38.15
717.422	38.73
717.605	38.3
717.788	38
717.971	38.08
718.154	37.75
718.337	37.45
718.519	37.38
718.702	37
718.885	37.47
719.068	36.9
719.25	37.03
719.433	36.6
719.616	37.24
719.798	37.45
719.981	37.35
720.164	37.14
720.346	37.31
720.529	36.57
720.712	37.48
720.894	36
721.077	36.81
721.259	36.96
721.442	38.46
721.624	37.23
721.807	38.31
721.989	38.31
722.172	38.1
722.354	37.78
722.537	38.46
722.719	37.9
722.901	38.98
723.084	38.67
723.266	37.85
723.448	36.45
723.631	37.35
723.813	36.24
723.995	36.93
724.178	37.18
724.36	37.12
724.542	36.72
724.724	36.83
724.907	35.83
725.089	35.8
725.271	34.92
725.453	34.69
725.635	34.85
725.817	35.72
725.999	34.84
726.181	34.86
726.364	35.23
726.546	35.89
726.728	35.35
726.91	35.45
727.092	36.36
727.274	37.1
727.456	37.24
727.638	36.72
727.819	36.46
728.001	36.99
728.183	37.96
728.365	37.31
728.547	37.02
728.729	37.24
728.911	37.35
729.093	37.25
729.274	37.2
729.456	37.24
729.638	37.88
729.82	37.2
730.001	36.36
730.183	35.73
730.365	35.63
730.546	35.85
730.728	35.28
730.91	35.5
731.091	34.76
731.273	35.07
731.455	34.84
731.636	34.52
731.818	34.61
731.999	34.8
732.181	35.37
732.362	36.49
732.544	36.77
732.725	37.23
732.907	36.33
733.088	37.1
733.27	37.09
733.451	37.17
733.633	37.2
733.814	38.07
733.995	39.01
734.177	39.37
734.358	38.43
734.539	37.47
734.721	38.44
734.902	40.1
735.083	39.73
735.264	39.92
735.446	39.99
735.627	39.7
735.808	38.92
735.989	37.57
736.17	36.09
736.351	36.53
736.533	36.91
736.714	34.71
736.895	33.88
737.076	34.73
737.257	34.76
737.438	34.31
737.619	33.52
737.8	34.68
737.981	35.41
738.162	36.6
738.343	36.22
738.524	36.01
738.705	37.45
738.886	37.26
739.067	35.7
739.247	35.12
739.428	35.17
739.609	36.38
739.79	36.21
739.971	36.35
740.151	35.85
740.332	36.24
740.513	36.31
740.694	35.59
740.874	35.28
741.055	34.93
741.236	36
741.417	36.62
741.597	36.82
741.778	35.33
741.958	35.48
742.139	34.99
742.32	34.83
742.5	36.38
742.681	36.89
742.861	36.77
743.042	38.08
743.222	38.05
743.403	38.64
743.583	38.78
743.764	39.19
743.944	38.49
744.124	37.92
744.305	38.16
744.485	37.74
744.666	37.69
744.846	37.86
745.026	37.34
745.207	36.97
745.387	36.21
745.567	35.71
745.747	35.52
745.928	36.34
746.108	37.28
746.288	36.19
746.468	35.57
746.648	35.23
746.829	36.4
747.009	36.93
747.189	36.96
747.369	35.58
747.549	35.74
747.729	36.48
747.909	36.65
748.089	36.42
748.269	37.85
748.449	37.44
748.629	36.97
748.809	36.6
748.989	36.66
749.169	37.24
749.349	36.97
749.529	36.42
749.709	36.88
749.889	35.95
750.068	35.77
750.248	34.32
750.428	33.78
750.608	34.2
750.788	33.98
750.967	34.18
751.147	33.74
751.327	34.42
751.507	35.45
751.686	34.22
751.866	33.76
752.046	32.9
752.225	34.07
752.405	34.37
752.585	34.88
752.764	34.86
752.944	34.64
753.123	33.91
753.303	34.13
753.482	32.48
753.662	33.67
753.841	34.99
754.021	36.63
754.2	37.35
754.38	37.42
754.559	37.26
754.739	37.01
754.918	37.43
755.097	37.99
755.277	37.3
755.456	39.03
755.635	37.74
755.815	37.54
755.994	36.57
756.173	35.7
756.352	36.03
756.532	36.17
756.711	35.92
756.89	35.79
757.069	36.93
757.248	37.43
757.427	36.03
757.607	36.5
757.786	36.35
757.965	36.23
758.144	34.82
758.323	35.31
758.502	35.07
758.681	35.12
758.86	36.47
759.039	36
759.218	37.65
759.397	38.04
759.576	37.08
759.755	36.33
759.934	37.69
760.113	38.62
760.291	39.12
760.47	39.37
760.649	40.12
760.828	38.09
761.007	37.53
761.186	35.92
761.364	36.74
761.543	37.97
761.722	38.43
761.901	37.84
762.079	38.02
762.258	37.48
762.437	37.98
762.615	37.89
762.794	38.51
762.972	38.69
763.151	38.26
763.33	37.47
763.508	37.88
763.687	38.81
763.865	38.52
764.044	38.32
764.222	38.16
764.401	38.27
764.579	37.62
764.758	37.56
764.936	37.22
765.114	38.05
765.293	38.77
765.471	38.28
765.65	36.73
765.828	37.21
766.006	37.62
766.184	37.41
766.363	36.09
766.541	36.27
766.719	35.52
766.898	36.19
767.076	36.32
767.254	35.89
767.432	35.57
767.61	35.91
767.788	34.69
767.967	34.15
768.145	34.35
768.323	34.53
768.501	35.55
768.679	36.78
768.857	35.26
769.035	34.13
769.213	34.39
769.391	33.21
769.569	34.29
769.747	35.25
769.925	36.48
770.103	35.54
770.281	35.24
770.459	34.29
770.636	34.62
770.814	35.45
770.992	35.37
771.17	34.94
771.348	36.53
771.525	34.89
771.703	34.78
771.881	33.21
772.059	33.08
772.236	33.61
772.414	33.79
772.592	32.25
772.769	31.61
772.947	32.33
773.125	31.18
773.302	31.13
773.48	32.69
773.657	30.34
773.835	31.07
774.013	32.7
774.19	31.65
774.368	30.93
774.545	29.94
774.723	32.06
774.9	32.19
775.077	31.62
775.255	30.46
775.432	29.09
775.61	31.34
775.787	31.26
775.964	30.22
776.142	31.18
776.319	31.82
776.496	33.84
776.674	33.05
776.851	34.44
777.028	34.94
777.205	36.18
777.382	37.36
777.56	36.93
777.737	36.04
777.914	35.99
778.091	36.31
778.268	36.69
778.445	36.87
778.622	37.17
778.8	34.75
778.977	36.07
779.154	55.02
779.331	54.45
779.508	54.5
779.685	54.7
779.862	56.14
780.038	55.95
780.215	53.36
780.392	52.98
780.569	50.49
780.746	51.43
780.923	50.26
781.1	28.99
781.277	30.24
781.453	30.53
781.63	29.95
781.807	27.34
781.984	26.58
782.16	29.18
782.337	29.16
782.514	32.14
782.691	35.03
782.867	36.48
783.044	37.37
783.221	37.16
783.397	34.58
783.574	35.68
783.75	36.68
783.927	37.94
784.103	36.7
784.28	35.48
784.456	34.52
784.633	34.4
784.809	35.83
784.986	35.14
785.162	32.49
785.339	35.45
785.515	34.85
785.692	36.36
785.868	34.44
786.044	35.33
786.221	32.68
786.397	32.46
786.573	29.13
786.749	26.74
786.926	26.47
787.102	26.12
787.278	25.66
787.454	25.12
787.631	24.46
787.807	24.3
787.983	24.78
788.159	28.73
788.335	26.67
788.511	27.45
788.687	27.25
788.863	25.18
789.039	27.56
789.216	27.1
789.392	27.31
789.568	24.49
789.744	26.01
789.919	25.75
790.095	26.17
790.271	29.88
790.447	29.21
790.623	28.8
790.799	32.57
790.975	32.48
791.151	32.65
791.327	33.44
791.502	38.75
791.678	40.07
791.854	38.04
792.03	35.36
792.205	33.45
792.381	33.5
792.557	34.39
792.733	33.95
792.908	34.77
793.084	36.09
793.259	37.8
793.435	31.93
793.611	28.39
793.786	30.63
793.962	30.78
794.137	31.94
794.313	30.61
794.488	31.18
794.664	29.67
794.839	28.85
795.015	27.22
795.19	24.83
795.366	25.8
795.541	28.91
795.716	26.11
795.892	29.07
796.067	27.51
796.242	27.35
796.418	26.65
796.593	26.12
796.768	23.83
796.944	23.64
797.119	24.54
797.294	27.45
797.469	25.77
797.644	27.09
797.82	25.37
797.995	27.41
798.17	30.98
798.345	30.1
798.52	31.54
798.695	34.32
798.87	36.09
799.045	35.18
799.22	36.05
799.395	38.47
799.57	36.85
799.745	35.38
799.92	32.63
800.095	31.5
800.27	32.78
800.445	32.23
800.62	30.68
800.795	30.15
800.97	31.06
801.145	26.77
801.319	24.51
801.494	26.48
801.669	26.18
801.844	27.83
802.018	25.84
802.193	25.78
802.368	25.75
802.543	27.71
802.717	27.46
802.892	27.03
803.067	28.96
803.241	30.41
803.416	30.06
803.59	29.61
803.765	29.47
803.94	30.4
804.114	28.44
804.289	26.29
804.463	24.04
804.638	23.28
804.812	22.2
804.986	23.22
805.161	23.75
805.335	23.86
805.51	26.65
805.684	26.36
805.858	27.73
806.033	29.11
806.207	31.93
806.381	31.4
806.556	31.37
806.73	31.55
806.904	29.57
807.078	26.82
807.253	27.12
807.427	24.12
807.601	21.56
807.775	20.61
807.949	20.44
808.123	20.03
808.298	19.3
808.472	19.37
808.646	20.09
808.82	17.82
808.994	20.05
809.168	19.66
809.342	22.03
809.516	23.8
809.69	22.05
809.864	24.31
810.038	21.75
810.212	25.22
810.385	25.05
810.559	22.14
810.733	23.54
810.907	20.71
811.081	20.36
811.255	18.06
811.428	16.23
811.602	17.64
811.776	17.18
811.95	19.33
812.123	19.86
812.297	21.39
812.471	22.16
812.644	24.95
812.818	24.66
812.992	21.88
813.165	26.5
813.339	31.15
813.512	32.26
813.686	31.48
813.86	30.44
814.033	28.04
814.207	30.55
814.38	32.68
814.554	34.16
814.727	31.58
814.9	32.29
815.074	29.23
815.247	27.1
815.421	26.23
815.594	23.16
815.767	22.54
815.941	22.26
816.114	18.96
816.287	17.27
816.46	12.38
816.634	16.52
816.807	16.74
816.98	18.4
817.153	19.86
817.327	15.29
817.5	19.23
817.673	20.33
817.846	23.2
818.019	23.54
818.192	26.97
818.365	31.84
818.538	30.75
818.711	33.08
818.884	30.58
819.057	27.3
819.23	30.42
819.403	29.79
819.576	31.35
819.749	30.02
819.922	30.88
820.095	27.94
820.268	24.33
820.441	25.81
820.614	26.35
820.786	28.57
820.959	31.73
821.132	32.87
821.305	33.03
821.477	33.11
821.65	32.56
821.823	33.36
821.996	34.07
822.168	35.24
822.341	35.93
822.514	36.75
822.686	36.92
822.859	36.52
823.031	36.36
823.204	36.58
823.376	36.87
823.549	37.21
823.722	36.55
823.894	36.74
824.067	36.36
824.239	36.06
824.411	35.82
824.584	35.92
824.756	36.4
824.929	36.33
825.101	35.71
825.273	35.05
825.446	35.06
825.618	35.43
825.79	35.27
825.963	35.35
826.135	35.84
826.307	35.79
826.479	35.38
826.652	35.09
826.824	35.41
826.996	35.88
827.168	35.36
827.34	35.37
827.512	35.37
827.684	35.92
827.856	36.11
828.029	35.56
828.201	35.15
828.373	34.07
828.545	33.55
828.717	33.9
828.889	35.13
829.061	35.81
829.232	34.39
829.404	33.52
829.576	30.91
829.748	30.16
829.92	27.56
830.092	27.39
830.264	28.81
830.436	28.22
830.607	26.54
830.779	24.32
830.951	22.02
831.123	22.2
831.294	23.01
831.466	23.49
831.638	23.88
831.809	26.36
831.981	22.91
832.153	23.62
832.324	25.18
832.496	24.85
832.667	22.32
832.839	25.46
833.011	27.82
833.182	28.57
833.354	34.33
833.525	32.55
833.697	33.88
833.868	35.26
834.039	32.45
834.211	32.73
834.382	30.39
834.554	30.84
834.725	29.79
834.896	28.79
835.068	29.22
835.239	23.99
835.41	25.84
835.581	26
835.753	25.83
835.924	26.98
836.095	27.13
836.266	31.19
836.438	34.15
836.609	35.1
836.78	33.55
836.951	30.86
837.122	35.42
837.293	33.02
837.464	31.1
837.635	31.68
837.806	31.09
837.977	25.87
838.148	23.69
838.319	20.17
838.49	22.07
838.661	24.76
838.832	27.24
839.003	25.93
839.174	23.97
839.345	28.01
839.516	28.54
839.687	32.43
839.857	37.84
840.028	36.76
840.199	35.62
840.37	30.26
840.54	29.62
840.711	29.95
840.882	30.84
841.053	30.92
841.223	24.97
841.394	25.2
841.564	20.79
841.735	19.77
841.906	18.5
842.076	16.21
842.247	21
842.417	21.64
842.588	16.88
842.758	12.31
842.929	21.4
843.099	26.86
843.27	27.09
843.44	19.14
843.611	21.38
843.781	20.53
843.951	21.43
844.122	13.07
844.292	13.79
844.462	17.72
844.633	18.36
844.803	10.09
844.973	5.76
845.144	7.2
845.314	13.9
845.484	6.8
845.654	7.49
845.824	10.56
845.995	20.98
846.165	18.62
846.335	17.22
846.505	18.22
846.675	18.99
846.845	6.2
847.015	-1.32
847.185	5.52
847.355	13.74
847.525	7.33
847.695	-2
847.865	0.84
848.035	-3.62
848.205	-9.88
848.375	-9.73
848.545	-18.19
848.715	-3.87
848.884	-15.51
849.054	-37.76
849.224	-41.34
849.394	-14.48
849.564	-6.9
849.733	-12.38
849.903	2.06
850.073	-6.28
850.243	-4.1
850.412	2.59
850.582	5
850.752	8.03
850.921	23.96
851.091	26.52
851.26	38.06
851.43	20.51
851.599	15.22
851.769	-0.77
851.939	5.17
852.108	1.39
852.278	4.14
852.447	1.57
852.616	19.54
852.786	21.34
852.955	10.53
853.125	-9.03
853.294	-4.5
853.463	-9.16
853.633	-12.11
853.802	-2.12
853.971	1.9
854.141	2.5
854.31	8.59
854.479	-0.11
854.648	6.47
854.818	6
854.987	7.99
855.156	7.13
855.325	8.72
855.494	13.97
855.663	14.29
855.832	6.27
856.001	5.7
856.171	8.04
856.34	0.31
856.509	-24.4
856.678	-26.56
856.847	-23.05
857.016	-7.83
857.185	-0.46
857.353	10.26
857.522	-2.05
857.691	0.88
857.86	10.76
858.029	-2.59
858.198	0.96
858.367	7.43
858.535	4.24
858.704	9.4
858.873	-6.4
859.042	-34.87
859.21	-47.27
859.379	-54.88
859.548	-60.8
859.717	-90.62
859.885	-58.48
860.054	-41.41
860.222	-20.53
860.391	-23.42
860.56	-59.97
860.728	-37.63
860.897	-12.76
861.065	-37.41
861.234	-19.66
861.402	-14.45
861.571	-17.37
861.739	-40.92
861.908	-41.98
862.076	-60.74
862.244	-34.66
862.413	-19.59
862.581	-34.05
862.749	-47.13
862.918	-39.08
863.086	-81.02
863.254	-68.41
863.423	-87.71
863.591	-49.57
863.759	-80.92
863.927	-59.6
864.096	-73.97
864.264	-154.61
864.432	-114.94
864.6	-133.94
864.768	-95.23
864.936	-70.33
865.104	-74.47
865.272	-55.14
865.44	-72.34
865.608	-60.37
865.776	-83.71
865.944	-87.76
866.112	-39.7
866.28	-17.39
866.448	-3.26
866.616	3.38
866.784	19.33
866.952	16.13
867.12	8.85
867.288	20.48
867.455	28.5
867.623	40.08
867.791	77.91
867.959	42.31
868.127	4.69
868.294	-4.83
868.462	5.82
868.63	13.42
868.797	30.69
868.965	22.02
869.133	14.95
869.3	12.83
869.468	13.24
869.636	1.1
869.803	7.43
869.971	19.35
870.138	33.93
870.306	34.17
870.473	33.47
870.641	18.3
870.808	30.72
870.975	21.73
871.143	18.15
871.31	15.14
871.478	-1.17
871.645	-13.95
871.812	-18.95
871.98	-30.89
872.147	-47.28
872.314	-49.85
872.482	-38.34
872.649	-52.18
872.816	-29.63
872.983	-29.36
873.15	-22.35
873.318	-15.55
873.485	-4.64
873.652	-7.7
873.819	-11.56
873.986	-18.87
874.153	-15.76
874.32	-18.48
874.487	-15.63
874.654	0.61
874.821	-3.97
874.988	-3.07
875.155	7.31
875.322	12.77
875.489	19.63
875.656	24.42
875.823	28.3
875.99	19.2
876.157	20.83
876.324	18.7
876.49	1.98
876.657	10.06
876.824	2.42
876.991	-11.28
877.157	-8.91
877.324	-14.24
877.491	-8.05
877.658	-6
877.824	-8.92
877.991	-16.82
878.157	-32.14
878.324	-25.78
878.491	-59.76
878.657	-42.25
878.824	-29.1
878.99	-38.63
879.157	-53.05
879.323	-36.71
879.49	-27.12
879.656	-13.63
879.823	-11.42
879.989	-6.26
880.156	-8.86
880.322	9.13
880.488	7.25
880.655	11.98
880.821	6.99
880.987	16.81
881.154	11.39
881.32	21.32
881.486	21.94
881.652	25.1
881.819	23.13
881.985	23.37
882.151	24.79
882.317	24.39
882.483	26.21
882.649	24.84
882.816	25.62
882.982	28.58
883.148	23.86
883.314	23.54
883.48	25.25
883.646	28.29
883.812	29.2
883.978	28.06
884.144	30.78
884.31	29.03
884.476	30.8
884.642	31.32
884.807	29.17
884.973	29.95
885.139	29.16
885.305	26.7
885.471	25.69
885.637	25.61
885.802	26.14
885.968	24.45
886.134	25.27
886.3	26.06
886.465	22.81
886.631	26.95
886.797	26.63
886.962	25.57
887.128	26.64
887.293	25.09
887.459	26.13
887.625	19.99
887.79	9.85
887.956	1.62
888.121	-4.6
888.287	-4.75
888.452	-16.09
888.618	-25.73
888.783	-30.93
