Data from CB_031_Reflection_3.txt Node
Date: Wed Nov 11 20:53:54 EST 2015
User: robert
Spectrometer: USB4E03001
Autoset integration time: false
Trigger mode: 4
Integration Time (sec): 1.000000E-1
Scans to average: 15
Electric dark correction enabled: true
Nonlinearity correction enabled: false
Boxcar width: 5
Stray light correction enabled: false
XAxis mode: Wavelengths
Stop averaging: false
Number of Pixels in Spectrum: 3648
>>>>>Begin Spectral Data<<<<<
177.566	-88.79
177.785	-222.54
178.005	778.47
178.225	-172.09
178.445	-100.74
178.665	280.88
178.885	281.85
179.105	2447.83
179.324	225.98
179.544	290.91
179.764	-322.87
179.984	-401.36
180.204	17525
180.423	332.64
180.643	-1090.86
180.863	1334.47
181.083	238
181.302	455.05
181.522	562.37
181.742	-1542.82
181.961	-272.58
182.181	-2375.36
182.401	1951.21
182.621	-121.36
182.84	-56.87
183.06	-65.81
183.279	-227.37
183.499	-63.76
183.719	-70.11
183.938	-134.55
184.158	-117.5
184.377	-93.27
184.597	-88.75
184.816	-65.2
185.036	-172.15
185.256	-169.79
185.475	-153.59
185.695	-96.41
185.914	-128.14
186.134	-1401.14
186.353	754.64
186.572	206.43
186.792	346.69
187.011	966.36
187.231	990.46
187.45	343.58
187.67	291.1
187.889	228.54
188.108	213.66
188.328	362.93
188.547	603.92
188.766	865.66
188.986	2687.67
189.205	2115.32
189.424	454.8
189.644	281.73
189.863	291.96
190.082	775.4
190.302	165.52
190.521	287.51
190.74	146.02
190.959	177.21
191.178	162.23
191.398	258.06
191.617	240.86
191.836	545.82
192.055	331.62
192.274	423.78
192.494	786.49
192.713	1260.37
192.932	2478.47
193.151	-301.46
193.37	-196.52
193.589	-294.71
193.808	-393.8
194.027	-412.75
194.246	-1027.62
194.465	-249.97
194.685	-676.99
194.904	619.48
195.123	-283.06
195.342	26.43
195.561	-127.85
195.78	-1504.85
195.999	87.15
196.218	-25.78
196.436	-387.95
196.655	1002.98
196.874	600.91
197.093	880.8
197.312	-473.16
197.531	1593.63
197.75	786.43
197.969	717.54
198.188	1167.05
198.407	703.39
198.625	633.92
198.844	989.38
199.063	-2887.33
199.282	-1328.51
199.501	-903.95
199.719	-938.63
199.938	-599.64
200.157	2968.42
200.376	-198.03
200.594	-924.25
200.813	-134.54
201.032	195.83
201.251	51.71
201.469	212.85
201.688	150.46
201.907	347.58
202.125	258.49
202.344	1213.94
202.563	497.16
202.781	529.84
203	285.47
203.218	149.92
203.437	463.43
203.656	854.03
203.874	633.88
204.093	1369.41
204.311	859.96
204.53	256.9
204.748	293.96
204.967	517.56
205.185	6663.81
205.404	-326.49
205.622	-116.25
205.841	-61.66
206.059	-47.73
206.278	-42.22
206.496	-115.51
206.715	-335
206.933	-168.3
207.151	-366.85
207.37	-363.22
207.588	-697.85
207.806	-275.59
208.025	-466.42
208.243	467.53
208.461	331.91
208.68	290.56
208.898	-2255.05
209.116	-222.81
209.335	-1170.85
209.553	-116.98
209.771	-457.9
209.989	670.89
210.208	207.23
210.426	285.34
210.644	559.16
210.862	1020.3
211.081	511.35
211.299	409.29
211.517	383.01
211.735	1245.34
211.953	438.8
212.171	662.33
212.39	-4226.1
212.608	-515.69
212.826	-263.49
213.044	-193.33
213.262	-211.29
213.48	-105.87
213.698	-93.3
213.916	-195.78
214.134	-117.83
214.352	-141.17
214.57	-84.33
214.788	-254.05
215.006	-398.26
215.224	267.6
215.442	753.08
215.66	344.33
215.878	483.12
216.096	290.72
216.314	388.98
216.532	794.15
216.75	1490.55
216.968	422.58
217.185	243.67
217.403	231.39
217.621	671
217.839	293.62
218.057	502.12
218.275	975.23
218.492	-1606.67
218.71	466.38
218.928	281.7
219.146	280.84
219.363	1474.67
219.581	-743.41
219.799	-151.25
220.017	-331.01
220.234	-244.08
220.452	-306.54
220.67	-574.79
220.887	4048.47
221.105	-627.06
221.323	-105.43
221.54	-134.07
221.758	-501.59
221.976	-184.33
222.193	-156.91
222.411	-99.84
222.629	-77.87
222.846	-141.03
223.064	-101.34
223.281	-64.43
223.499	-77.7
223.716	-157.75
223.934	-164.12
224.151	-102.22
224.369	-158.95
224.586	-155.59
224.804	-159.19
225.021	-152.66
225.239	-205.6
225.456	-170.4
225.674	-135.79
225.891	-153.19
226.108	-141.47
226.326	-102.8
226.543	-83.76
226.76	-47.34
226.978	-42.11
227.195	-19.75
227.413	-4.27
227.63	8.13
227.847	-5.73
228.064	-11.59
228.282	-8.76
228.499	-13.09
228.716	-10.96
228.934	-7.59
229.151	-5.15
229.368	-3.21
229.585	-5.94
229.802	-6.52
230.02	-9
230.237	-6.01
230.454	-2.11
230.671	-4.64
230.888	2.59
231.105	4.74
231.323	7.05
231.54	4.74
231.757	1.33
231.974	0.52
232.191	-7.76
232.408	-8.76
232.625	-6.14
232.842	-5.4
233.059	-2.44
233.276	-2.07
233.493	-12.4
233.71	-24.54
233.927	-18.01
234.144	-19.95
234.361	-17.65
234.578	-11.54
234.795	-19.54
235.012	-15
235.229	-21.54
235.446	-26.85
235.663	-37.39
235.879	-25.74
236.096	-16.4
236.313	-32.38
236.53	-25.32
236.747	-20.79
236.964	-26.54
237.181	-22.21
237.397	-27
237.614	-27.68
237.831	-22.58
238.048	-20.22
238.264	-28.97
238.481	-30.82
238.698	-23.37
238.915	-22.49
239.131	-25.03
239.348	-19.8
239.565	-14.2
239.781	-14.89
239.998	-11.83
240.215	-8.37
240.431	-8.76
240.648	-7.4
240.865	-4.85
241.081	-5.92
241.298	-7.51
241.514	-4.85
241.731	-1.71
241.947	-2.23
242.164	-0.88
242.38	0.84
242.597	-0.2
242.814	-0.74
243.03	0.46
243.246	-1.77
243.463	-0.12
243.679	0.46
243.896	-0.12
244.112	-1.18
244.329	3.55
244.545	1.43
244.762	0.7
244.978	3.44
245.194	6.95
245.411	7.85
245.627	9.73
245.843	9.94
246.06	8.31
246.276	7.27
246.492	6.24
246.709	4.31
246.925	5.2
247.141	6.46
247.357	5.85
247.574	5.49
247.79	4.86
248.006	3.73
248.222	3.51
248.439	3.88
248.655	4.29
248.871	4.86
249.087	4.09
249.303	4.5
249.519	2.53
249.736	1.42
249.952	1.25
250.168	0.58
250.384	2.26
250.6	0.88
250.816	0.59
251.032	3.02
251.248	5
251.464	7.37
251.68	6.36
251.896	6.34
252.112	5.49
252.328	4.97
252.544	4.47
252.76	3.97
252.976	7.42
253.192	7.42
253.408	4.68
253.624	1.78
253.84	-0.15
254.056	-0.57
254.272	0.03
254.487	1.3
254.703	-0.85
254.919	0.92
255.135	-2.13
255.351	-9.86
255.567	-5.79
255.782	-3.91
255.998	-5.23
256.214	-5.44
256.43	-7.49
256.646	-8.23
256.861	-6.4
257.077	-2.19
257.293	-4.65
257.508	0.16
257.724	3.79
257.94	2.67
258.155	4.69
258.371	5.33
258.587	6.5
258.802	5.59
259.018	5.42
259.234	4.65
259.449	4
259.665	4.77
259.88	5.06
260.096	4.35
260.312	5.25
260.527	3.58
260.743	3.58
260.958	2.5
261.174	4.33
261.389	3.72
261.605	4.26
261.82	4.52
262.036	4.04
262.251	1.7
262.466	1.73
262.682	-0.42
262.897	1.58
263.113	1.81
263.328	2.93
263.543	0.88
263.759	2.71
263.974	1.22
264.189	0.11
264.405	0.36
264.62	2.87
264.835	2.99
265.051	2.18
265.266	2.23
265.481	2.36
265.696	1.33
265.912	1.16
266.127	1.6
266.342	1.84
266.557	1.99
266.773	2.35
266.988	1.44
267.203	0.01
267.418	0.7
267.633	0.94
267.848	1.04
268.064	2.19
268.279	2.26
268.494	0.81
268.709	2.27
268.924	1.58
269.139	2.41
269.354	0.8
269.569	0.21
269.784	-0.26
269.999	-0.42
270.214	-0.8
270.429	-1.47
270.644	-0.39
270.859	0.23
271.074	0.62
271.289	1.48
271.504	1.56
271.719	2.08
271.934	2.77
272.149	2.91
272.363	2.18
272.578	2.74
272.793	3.05
273.008	3.12
273.223	2.71
273.438	0.53
273.653	0.71
273.867	-0.23
274.082	0.43
274.297	1.23
274.512	1.97
274.726	2.84
274.941	1.67
275.156	2.04
275.371	0.45
275.585	1.18
275.8	1.63
276.015	1.74
276.229	2.82
276.444	3.1
276.659	2.94
276.873	0.66
277.088	-1.01
277.302	-0.41
277.517	-0.09
277.732	0.53
277.946	0.85
278.161	0.1
278.375	0.33
278.59	-1.26
278.804	-4.09
279.019	-4.11
279.233	-4.32
279.448	-2.87
279.662	-1.7
279.877	-1.58
280.091	-0.27
280.306	1.94
280.52	4.72
280.735	3.04
280.949	3.76
281.163	6.74
281.378	7.25
281.592	8.25
281.806	8.19
282.021	9.51
282.235	8.01
282.449	6.62
282.664	6.06
282.878	6.3
283.092	5.41
283.307	4.12
283.521	3.2
283.735	2.48
283.949	2.03
284.164	1.35
284.378	0.55
284.592	1.42
284.806	1.03
285.02	-0.61
285.234	-2.66
285.449	-1.77
285.663	-0.54
285.877	0.36
286.091	0.02
286.305	0.02
286.519	0.32
286.733	0.71
286.947	1.34
287.161	1.68
287.375	2.71
287.589	3.9
287.803	4.3
288.017	4.77
288.231	4
288.445	5.62
288.659	6.87
288.873	7.34
289.087	6.44
289.301	6.09
289.515	7.6
289.729	6.05
289.943	5.9
290.157	6.88
290.371	6.32
290.584	7.06
290.798	5.92
291.012	5.26
291.226	4.41
291.44	4.36
291.654	2.98
291.867	1.47
292.081	1.96
292.295	1.77
292.509	0.38
292.722	-0.65
292.936	-0.7
293.15	-0.28
293.364	-0.36
293.577	2.05
293.791	2.22
294.005	3.38
294.218	3.81
294.432	4.6
294.645	4.75
294.859	5.72
295.073	7.91
295.286	7.63
295.5	8.13
295.713	8.48
295.927	7.67
296.14	7.47
296.354	7.75
296.568	8.12
296.781	8.18
296.994	8
297.208	8.43
297.421	8.29
297.635	8.29
297.848	7.85
298.062	8.22
298.275	8.77
298.489	8.8
298.702	9.28
298.915	9.03
299.129	8.7
299.342	9.09
299.555	8.33
299.769	7.21
299.982	6.78
300.195	6.05
300.409	5.13
300.622	5.02
300.835	5.25
301.048	5.52
301.262	4.48
301.475	4.28
301.688	3.62
301.901	4.95
302.115	4.74
302.328	5.31
302.541	7.49
302.754	7.81
302.967	8.01
303.18	8.08
303.393	7.7
303.607	9.1
303.82	10.13
304.033	11.19
304.246	10.45
304.459	11.77
304.672	12.02
304.885	11.33
305.098	11.56
305.311	10.59
305.524	10.6
305.737	10.67
305.95	11.24
306.163	10.55
306.376	10.65
306.589	8.65
306.802	8.67
307.015	7.3
307.228	6.68
307.44	6.52
307.653	6.25
307.866	5.19
308.079	5.1
308.292	3.25
308.505	3.04
308.718	2.46
308.93	3.8
309.143	2.32
309.356	4.51
309.569	5.74
309.781	5.08
309.994	5.52
310.207	6.83
310.42	7.38
310.632	7.3
310.845	7.89
311.058	8.04
311.27	8.71
311.483	9.9
311.696	9.33
311.908	8.1
312.121	8.47
312.333	8.54
312.546	7.77
312.759	6.13
312.971	6.8
313.184	6.22
313.396	6.2
313.609	6.76
313.821	5.76
314.034	5.59
314.246	6.69
314.459	7.03
314.671	6.02
314.884	6.71
315.096	8.29
315.309	8.68
315.521	8.9
315.733	8.03
315.946	7.49
316.158	7.51
316.371	6.69
316.583	5.91
316.795	5.29
317.008	7.42
317.22	5.86
317.432	5.28
317.644	4.35
317.857	4.44
318.069	6.2
318.281	5.82
318.494	5.65
318.706	6.52
318.918	5.62
319.13	7.19
319.342	6.44
319.555	7.99
319.767	7.62
319.979	7.57
320.191	6.85
320.403	6.01
320.615	6.51
320.827	5.68
321.039	5.5
321.252	6.74
321.464	6.63
321.676	6.79
321.888	7.86
322.1	8.91
322.312	9.76
322.524	10.14
322.736	10.28
322.948	10.33
323.16	12.32
323.372	13.02
323.584	12.73
323.796	13.17
324.007	13.52
324.219	12.81
324.431	11.83
324.643	12.24
324.855	12.6
325.067	13.79
325.279	13.93
325.491	14.47
325.702	14.64
325.914	15.46
326.126	14.71
326.338	14.67
326.55	15.93
326.761	16.62
326.973	17.44
327.185	18.42
327.396	18.05
327.608	18.77
327.82	17.52
328.032	17.09
328.243	15.79
328.455	17.06
328.666	17.72
328.878	17.42
329.09	18.68
329.301	17.78
329.513	17.36
329.725	17.36
329.936	16.63
330.148	18.58
330.359	19.37
330.571	21.05
330.782	20.84
330.994	20.95
331.205	21.07
331.417	21.14
331.628	21.41
331.84	21.73
332.051	21.76
332.262	22.71
332.474	21.75
332.685	22.15
332.897	22.8
333.108	23.29
333.319	24.14
333.531	23.77
333.742	23.68
333.953	25.56
334.165	26.82
334.376	27.4
334.587	26.69
334.799	26.69
335.01	26.37
335.221	26.62
335.432	27.4
335.644	27.8
335.855	28.2
336.066	27.82
336.277	26.77
336.488	26.66
336.7	27.7
336.911	28.76
337.122	28.84
337.333	28.68
337.544	28.47
337.755	27.55
337.966	26.46
338.177	25.74
338.388	27.71
338.599	27.67
338.811	27.76
339.022	28.53
339.233	28.14
339.444	28.98
339.655	29.78
339.866	30.06
340.076	31.44
340.287	31.99
340.498	33.76
340.709	32.74
340.92	33.49
341.131	32.9
341.342	31.54
341.553	31.46
341.764	31.84
341.975	30.9
342.185	30.63
342.396	30.91
342.607	31.34
342.818	30.51
343.029	31.34
343.239	31.53
343.45	32.15
343.661	32.1
343.872	32.68
344.082	32.01
344.293	33.66
344.504	33.75
344.714	32.23
344.925	31.64
345.136	31.66
345.346	31.37
345.557	31.05
345.768	30.25
345.978	30.49
346.189	30.06
346.399	30.8
346.61	30.03
346.821	30.2
347.031	30.75
347.242	31.06
347.452	30.85
347.663	30.37
347.873	30.86
348.084	31.12
348.294	30.65
348.504	30.63
348.715	29.88
348.925	30.11
349.136	30.13
349.346	30.3
349.557	30.04
349.767	30.74
349.977	31.22
350.188	30.43
350.398	30.1
350.608	30.82
350.819	30.82
351.029	31.65
351.239	31.26
351.449	30.93
351.66	30.74
351.87	31.26
352.08	31.13
352.29	30.93
352.501	30.62
352.711	30.77
352.921	30.4
353.131	31.22
353.341	30.79
353.552	31.25
353.762	31.81
353.972	32.01
354.182	31.43
354.392	30.44
354.602	30.34
354.812	30.99
355.022	31.59
355.232	31.63
355.442	30.76
355.652	30.51
355.862	30.39
356.072	30.55
356.282	30.79
356.492	30.69
356.702	30.98
356.912	30.69
357.122	30.57
357.332	30.21
357.542	29.84
357.752	30.07
357.962	30.55
358.171	30.11
358.381	29.36
358.591	28.88
358.801	28.79
359.011	28.75
359.221	28.44
359.43	27.36
359.64	27.82
359.85	28.3
360.06	28.25
360.269	28.31
360.479	29.16
360.689	29.74
360.899	29.76
361.108	29.93
361.318	30.45
361.528	30.81
361.737	31.64
361.947	31.57
362.156	31.81
362.366	31.3
362.576	31.05
362.785	30.47
362.995	30.28
363.204	30.07
363.414	30.11
363.623	29.67
363.833	29.34
364.042	28.83
364.252	28.94
364.461	28.36
364.671	28.66
364.88	28.38
365.09	28.51
365.299	28.46
365.509	28.26
365.718	28.45
365.927	28.38
366.137	28.4
366.346	28.87
366.555	28.57
366.765	28.24
366.974	28.39
367.183	28.14
367.393	27.57
367.602	27.46
367.811	27.34
368.021	27.12
368.23	27.31
368.439	27.76
368.648	27.36
368.857	26.8
369.067	26.99
369.276	27.08
369.485	27.14
369.694	26.76
369.903	25.82
370.112	25.96
370.321	26.02
370.531	25.71
370.74	25.68
370.949	25.48
371.158	25.69
371.367	25.9
371.576	25.97
371.785	25.39
371.994	26.16
372.203	26.85
372.412	26.73
372.621	26.07
372.83	25.69
373.039	25.06
373.248	24.97
373.457	24.97
373.666	24.68
373.874	24.18
374.083	25.01
374.292	24.59
374.501	25.11
374.71	25.26
374.919	25.98
375.128	25.84
375.336	26.02
375.545	25.98
375.754	25.83
375.963	25.77
376.171	25.97
376.38	25.68
376.589	25.26
376.798	24.27
377.006	23.94
377.215	23.68
377.424	23.81
377.632	23.47
377.841	23.23
378.05	23.04
378.258	22.47
378.467	22.01
378.675	21.49
378.884	22
379.093	22.07
379.301	21.96
379.51	21.59
379.718	21.71
379.927	21.78
380.135	21.72
380.344	21.92
380.552	21.93
380.761	21.5
380.969	21.6
381.177	21.23
381.386	21.21
381.594	21.28
381.803	21.26
382.011	21.4
382.219	21.31
382.428	21.24
382.636	21.03
382.845	20.86
383.053	21.32
383.261	21.69
383.469	21.76
383.678	21.71
383.886	21.55
384.094	21.38
384.302	21.17
384.511	21.27
384.719	21.5
384.927	21.27
385.135	21.28
385.343	21.32
385.552	20.7
385.76	20.2
385.968	20.5
386.176	20.77
386.384	20.71
386.592	20.14
386.8	19.63
387.008	19.76
387.216	19.25
387.424	19.42
387.633	19.03
387.841	19.2
388.049	19.34
388.257	19.24
388.465	19.02
388.672	18.82
388.88	18.96
389.088	19.51
389.296	19.23
389.504	19.96
389.712	19.83
389.92	19.89
390.128	19.89
390.336	19.53
390.544	19.14
390.751	18.93
390.959	19.15
391.167	19.95
391.375	19.34
391.583	19.32
391.79	19.15
391.998	19.5
392.206	19.47
392.414	19.46
392.621	19.67
392.829	19.88
393.037	19.98
393.244	20.1
393.452	19.16
393.66	19.57
393.867	19.23
394.075	19.21
394.283	18.67
394.49	18.5
394.698	18.75
394.905	19.04
395.113	19.21
395.32	19.11
395.528	18.8
395.735	18.7
395.943	18.45
396.15	18.95
396.358	18.53
396.565	18.71
396.773	18.81
396.98	18.4
397.188	18.32
397.395	18.17
397.602	18.25
397.81	18.05
398.017	18.07
398.225	18.29
398.432	18.07
398.639	18.26
398.847	17.92
399.054	18.12
399.261	18.29
399.468	17.87
399.676	17.53
399.883	17.35
400.09	17.21
400.297	17.41
400.505	17.29
400.712	17.03
400.919	17.09
401.126	17.26
401.333	17.04
401.54	16.71
401.748	16.73
401.955	16.76
402.162	16.82
402.369	17.16
402.576	17.19
402.783	17.15
402.99	17.16
403.197	17.27
403.404	17.15
403.611	17.08
403.818	17.02
404.025	17.12
404.232	17.16
404.439	17.25
404.646	17.13
404.853	17.02
405.06	16.93
405.267	16.86
405.474	16.61
405.681	16.71
405.887	16.33
406.094	16.48
406.301	16.45
406.508	16.44
406.715	16.18
406.922	16.28
407.128	16.2
407.335	16.24
407.542	16.05
407.749	16.16
407.955	16.07
408.162	16.52
408.369	16.24
408.575	16.23
408.782	15.93
408.989	16.02
409.195	16.05
409.402	16.25
409.609	15.96
409.815	16.21
410.022	15.94
410.228	16.01
410.435	15.84
410.642	15.93
410.848	15.66
411.055	15.79
411.261	15.65
411.468	15.68
411.674	15.53
411.881	15.43
412.087	15.24
412.294	15.56
412.5	15.4
412.706	15.59
412.913	15.81
413.119	16.02
413.326	15.78
413.532	15.8
413.738	15.71
413.945	15.75
414.151	16.08
414.357	16.21
414.564	16.04
414.77	16.25
414.976	16.22
415.182	16.13
415.389	16.55
415.595	16.73
415.801	16.78
416.007	16.56
416.214	16.7
416.42	16.37
416.626	16.39
416.832	16.47
417.038	16.32
417.244	16.44
417.45	16.46
417.657	16.11
417.863	16.17
418.069	16.13
418.275	16.33
418.481	16.08
418.687	16.22
418.893	16.13
419.099	16.24
419.305	16.33
419.511	16.17
419.717	16.16
419.923	16.17
420.129	16.17
420.335	16.31
420.541	16.2
420.746	16.28
420.952	16.31
421.158	16.31
421.364	16.14
421.57	16.11
421.776	16.12
421.982	15.94
422.187	15.82
422.393	15.71
422.599	15.58
422.805	15.74
423.01	15.69
423.216	15.63
423.422	15.52
423.628	15.56
423.833	15.6
424.039	15.45
424.245	15.53
424.45	15.67
424.656	15.84
424.862	15.72
425.067	15.44
425.273	15.43
425.478	15.35
425.684	15.45
425.889	15.33
426.095	15.31
426.301	15.41
426.506	15.44
426.712	15.17
426.917	15.03
427.123	15.27
427.328	15.51
427.533	15.65
427.739	15.71
427.944	15.69
428.15	15.91
428.355	15.64
428.561	15.54
428.766	15.56
428.971	15.69
429.177	15.49
429.382	15.12
429.587	15.01
429.793	14.84
429.998	14.67
430.203	14.71
430.408	14.53
430.614	14.47
430.819	14.57
431.024	14.62
431.229	14.68
431.434	14.87
431.64	15
431.845	14.97
432.05	14.97
432.255	15.02
432.46	15.04
432.665	14.94
432.87	15.06
433.076	15.03
433.281	14.93
433.486	15
433.691	14.92
433.896	14.98
434.101	15.05
434.306	15.14
434.511	15.09
434.716	15.1
434.921	15.05
435.126	14.98
435.331	14.91
435.535	14.96
435.74	14.85
435.945	14.7
436.15	14.7
436.355	14.61
436.56	14.58
436.765	14.64
436.97	14.51
437.174	14.62
437.379	14.98
437.584	14.88
437.789	14.94
437.993	15
438.198	15.21
438.403	15.26
438.608	15.14
438.812	15.16
439.017	15.29
439.222	15.4
439.426	15.39
439.631	15.42
439.836	15.69
440.04	15.82
440.245	15.77
440.45	15.66
440.654	15.45
440.859	15.5
441.063	15.29
441.268	15.3
441.472	15.25
441.677	15.25
441.881	14.91
442.086	14.99
442.29	14.75
442.495	14.91
442.699	15.02
442.904	14.89
443.108	15.06
443.312	15.27
443.517	15.04
443.721	15.13
443.925	15.09
444.13	15.12
444.334	14.85
444.538	14.84
444.743	14.53
444.947	14.53
445.151	14.82
445.356	14.72
445.56	14.63
445.764	14.66
445.968	14.52
446.173	14.48
446.377	14.56
446.581	14.67
446.785	14.75
446.989	14.8
447.193	14.62
447.398	14.6
447.602	14.57
447.806	14.44
448.01	14.52
448.214	14.58
448.418	14.71
448.622	14.73
448.826	14.62
449.03	14.55
449.234	14.6
449.438	14.76
449.642	14.87
449.846	14.79
450.05	15.07
450.254	15.2
450.458	15.2
450.662	15.36
450.866	15.34
451.069	15.23
451.273	15.26
451.477	15.12
451.681	15.32
451.885	15.06
452.089	15.14
452.292	15.13
452.496	15.01
452.7	15.02
452.904	14.88
453.107	14.89
453.311	14.97
453.515	14.99
453.719	15.33
453.922	15.1
454.126	15.13
454.33	15.22
454.533	15.22
454.737	15.17
454.94	15.07
455.144	14.8
455.348	14.82
455.551	14.77
455.755	14.81
455.958	14.49
456.162	14.36
456.365	14.35
456.569	14.45
456.772	14.32
456.976	14.42
457.179	14.58
457.383	14.82
457.586	14.8
457.79	14.68
457.993	14.48
458.196	14.68
458.4	14.9
458.603	14.89
458.807	14.98
459.01	15.04
459.213	14.88
459.417	14.9
459.62	14.85
459.823	14.76
460.026	14.87
460.23	14.99
460.433	14.95
460.636	14.91
460.839	14.95
461.042	14.75
461.246	14.74
461.449	14.83
461.652	14.81
461.855	14.99
462.058	14.97
462.261	15.06
462.464	14.95
462.668	14.8
462.871	14.83
463.074	14.89
463.277	15.02
463.48	14.98
463.683	15.07
463.886	15.17
464.089	14.76
464.292	14.77
464.495	14.59
464.698	14.59
464.901	14.61
465.104	14.49
465.306	14.45
465.509	14.32
465.712	14.54
465.915	14.37
466.118	14.18
466.321	14.17
466.524	14.38
466.726	14.6
466.929	14.7
467.132	14.74
467.335	14.89
467.538	15.06
467.74	14.96
467.943	14.75
468.146	14.86
468.348	15
468.551	15.23
468.754	15.16
468.956	15.18
469.159	15.01
469.362	15.03
469.564	15.12
469.767	14.96
469.969	14.86
470.172	14.9
470.375	14.83
470.577	14.63
470.78	14.61
470.982	14.58
471.185	14.47
471.387	14.67
471.59	14.59
471.792	14.54
471.995	14.63
472.197	14.76
472.399	14.78
472.602	14.78
472.804	14.92
473.007	14.97
473.209	14.98
473.411	14.93
473.614	14.84
473.816	14.97
474.018	14.79
474.22	14.66
474.423	14.84
474.625	14.78
474.827	14.87
475.03	14.81
475.232	14.47
475.434	14.52
475.636	14.49
475.838	14.48
476.04	14.54
476.243	14.71
476.445	14.88
476.647	14.9
476.849	14.96
477.051	14.82
477.253	14.84
477.455	15.06
477.657	15
477.859	15.08
478.061	15.02
478.263	14.86
478.465	14.77
478.667	14.72
478.869	14.66
479.071	14.64
479.273	14.67
479.475	14.49
479.677	14.36
479.879	14.32
480.081	14.31
480.283	14.43
480.485	14.51
480.686	14.53
480.888	14.49
481.09	14.49
481.292	14.46
481.494	14.35
481.695	14.63
481.897	14.73
482.099	14.76
482.301	14.7
482.502	14.72
482.704	14.81
482.906	14.88
483.107	14.85
483.309	14.86
483.511	14.92
483.712	15.04
483.914	15
484.115	14.98
484.317	14.98
484.519	15.03
484.72	15
484.922	14.99
485.123	14.91
485.325	14.93
485.526	14.91
485.728	14.88
485.929	14.85
486.131	14.82
486.332	14.84
486.534	14.87
486.735	14.91
486.936	14.95
487.138	14.92
487.339	14.97
487.541	14.95
487.742	15
487.943	15
488.144	14.92
488.346	14.91
488.547	14.91
488.748	14.9
488.95	14.84
489.151	14.8
489.352	14.72
489.553	14.67
489.755	14.64
489.956	14.58
490.157	14.52
490.358	14.47
490.559	14.5
490.76	14.51
490.961	14.52
491.163	14.44
491.364	14.52
491.565	14.51
491.766	14.58
491.967	14.62
492.168	14.68
492.369	14.73
492.57	14.79
492.771	14.72
492.972	14.76
493.173	14.82
493.374	14.86
493.575	14.66
493.776	14.76
493.976	14.76
494.177	14.71
494.378	14.57
494.579	14.5
494.78	14.58
494.981	14.75
495.182	14.62
495.382	14.42
495.583	14.51
495.784	14.63
495.985	14.67
496.185	14.59
496.386	14.65
496.587	14.67
496.788	14.64
496.988	14.57
497.189	14.51
497.39	14.58
497.59	14.65
497.791	14.47
497.992	14.59
498.192	14.49
498.393	14.54
498.593	14.61
498.794	14.7
498.994	14.7
499.195	14.81
499.395	14.82
499.596	14.96
499.796	14.95
499.997	15.2
500.197	15.17
500.398	15.32
500.598	15.38
500.799	15.3
500.999	15.32
501.199	15.46
501.4	15.49
501.6	15.51
501.801	15.45
502.001	15.48
502.201	15.58
502.402	15.63
502.602	15.56
502.802	15.64
503.002	15.83
503.203	15.78
503.403	15.67
503.603	15.52
503.803	15.67
504.003	15.78
504.204	15.78
504.404	15.72
504.604	15.73
504.804	15.76
505.004	15.69
505.204	15.62
505.404	15.83
505.604	15.98
505.804	16.08
506.005	16.08
506.205	16.03
506.405	16.15
506.605	16.13
506.805	16.16
507.005	16.44
507.204	16.51
507.404	16.45
507.604	16.42
507.804	16.45
508.004	16.54
508.204	16.47
508.404	16.57
508.604	16.46
508.804	16.59
509.003	16.61
509.203	16.54
509.403	16.71
509.603	16.76
509.803	16.66
510.002	16.68
510.202	16.85
510.402	16.97
510.602	17.04
510.801	17.15
511.001	17.22
511.201	17.31
511.4	17.39
511.6	17.23
511.8	17.46
511.999	17.58
512.199	17.77
512.398	17.72
512.598	17.89
512.797	17.83
512.997	17.95
513.197	17.96
513.396	18.02
513.596	18.09
513.795	18.16
513.994	18.21
514.194	18.23
514.393	18.31
514.593	18.28
514.792	18.15
514.992	18.21
515.191	18.43
515.39	18.55
515.59	18.88
515.789	18.93
515.988	19.01
516.188	19.1
516.387	19.25
516.586	19.28
516.786	19.51
516.985	19.75
517.184	19.97
517.383	19.97
517.582	20.01
517.782	20.04
517.981	20.16
518.18	20.45
518.379	20.45
518.578	20.5
518.777	20.56
518.976	20.62
519.176	20.68
519.375	20.81
519.574	20.93
519.773	21.08
519.972	21.09
520.171	21.18
520.37	21.2
520.569	21.31
520.768	21.46
520.967	21.61
521.166	21.83
521.365	21.9
521.564	21.87
521.762	21.97
521.961	22.11
522.16	22.16
522.359	22.2
522.558	22.32
522.757	22.46
522.956	22.65
523.154	22.66
523.353	22.71
523.552	22.93
523.751	23.02
523.949	23.18
524.148	23.37
524.347	23.57
524.546	23.73
524.744	23.84
524.943	23.89
525.142	24.05
525.34	24.19
525.539	24.35
525.737	24.39
525.936	24.57
526.135	24.69
526.333	24.72
526.532	24.83
526.73	24.97
526.929	25.12
527.127	25.39
527.326	25.54
527.524	25.73
527.723	25.82
527.921	25.89
528.12	26.03
528.318	26.12
528.516	26.24
528.715	26.34
528.913	26.49
529.112	26.54
529.31	26.6
529.508	26.58
529.707	26.57
529.905	26.61
530.103	26.69
530.301	26.75
530.5	26.81
530.698	26.93
530.896	27.06
531.094	27.07
531.293	27.31
531.491	27.38
531.689	27.64
531.887	27.88
532.085	28.2
532.283	28.44
532.481	28.51
532.68	28.64
532.878	28.75
533.076	28.85
533.274	29.02
533.472	28.99
533.67	28.99
533.868	29.01
534.066	29.08
534.264	29.09
534.462	29.19
534.66	29.24
534.858	29.3
535.056	29.39
535.253	29.54
535.451	29.58
535.649	29.77
535.847	30.04
536.045	30.17
536.243	30.35
536.441	30.39
536.638	30.34
536.836	30.49
537.034	30.72
537.232	30.83
537.43	30.9
537.627	30.95
537.825	30.91
538.023	30.86
538.22	31.01
538.418	31.06
538.616	31.18
538.813	31.31
539.011	31.55
539.209	31.61
539.406	31.73
539.604	31.83
539.801	31.94
539.999	32.18
540.196	32.36
540.394	32.5
540.591	32.63
540.789	32.74
540.986	32.96
541.184	33.07
541.381	33.18
541.579	33.21
541.776	33.23
541.974	33.36
542.171	33.34
542.368	33.47
542.566	33.52
542.763	33.56
542.96	33.64
543.158	33.69
543.355	33.72
543.552	33.74
543.75	33.82
543.947	33.91
544.144	34.05
544.341	34.33
544.539	34.47
544.736	34.55
544.933	34.75
545.13	34.94
545.327	34.93
545.524	34.91
545.722	34.94
545.919	35
546.116	35.18
546.313	35.15
546.51	35.11
546.707	35.11
546.904	35.13
547.101	35
547.298	34.85
547.495	34.95
547.692	34.88
547.889	34.85
548.086	34.91
548.283	34.9
548.48	34.77
548.677	34.83
548.874	34.78
549.07	34.87
549.267	34.94
549.464	35.1
549.661	35.16
549.858	35.4
550.055	35.38
550.251	35.42
550.448	35.45
550.645	35.79
550.842	35.73
551.038	35.95
551.235	36.11
551.432	36.18
551.628	36.17
551.825	36.22
552.022	36.34
552.218	36.72
552.415	36.83
552.612	36.89
552.808	36.82
553.005	37.02
553.201	36.93
553.398	36.69
553.594	36.84
553.791	37.01
553.987	36.88
554.184	37.04
554.38	36.98
554.577	36.94
554.773	36.9
554.97	36.94
555.166	36.79
555.362	36.69
555.559	36.77
555.755	36.56
555.952	36.69
556.148	36.72
556.344	36.69
556.541	36.64
556.737	36.83
556.933	36.84
557.129	36.78
557.326	36.86
557.522	36.9
557.718	37.11
557.914	37.21
558.11	37.18
558.307	37.36
558.503	37.53
558.699	37.54
558.895	37.37
559.091	37.31
559.287	37.41
559.483	37.43
559.679	37.67
559.876	37.86
560.072	37.93
560.268	37.75
560.464	37.93
560.66	37.71
560.856	37.88
561.052	37.91
561.247	38.18
561.443	38.24
561.639	38.48
561.835	38.55
562.031	38.37
562.227	38.52
562.423	38.65
562.619	38.61
562.815	38.79
563.01	38.64
563.206	38.79
563.402	38.71
563.598	38.91
563.793	38.98
563.989	39.08
564.185	39.27
564.381	39.43
564.576	39.56
564.772	39.53
564.968	39.51
565.163	39.9
565.359	39.85
565.555	40
565.75	40.19
565.946	40.19
566.141	40.26
566.337	40.4
566.532	40.26
566.728	40.26
566.923	40.37
567.119	40.38
567.314	40.17
567.51	40.42
567.705	40.36
567.901	40.18
568.096	40.15
568.292	40.1
568.487	40.01
568.682	40.17
568.878	40.23
569.073	40.25
569.268	40.29
569.464	40.19
569.659	39.91
569.854	40.1
570.05	40.32
570.245	40.33
570.44	40.27
570.635	40.35
570.831	40.33
571.026	40.28
571.221	40.37
571.416	40.4
571.611	40.66
571.806	40.69
572.002	40.52
572.197	40.38
572.392	40.42
572.587	40.43
572.782	40.43
572.977	40.47
573.172	40.51
573.367	40.49
573.562	40.63
573.757	40.49
573.952	40.52
574.147	40.59
574.342	40.78
574.537	40.8
574.732	40.88
574.927	40.86
575.121	40.86
575.316	40.91
575.511	41
575.706	40.86
575.901	40.89
576.096	40.89
576.29	40.91
576.485	40.82
576.68	40.74
576.875	40.7
577.069	40.86
577.264	40.84
577.459	41.05
577.654	40.96
577.848	41.24
578.043	41.41
578.238	41.49
578.432	41.44
578.627	41.38
578.821	41.38
579.016	41.37
579.21	41.19
579.405	41.3
579.6	41.04
579.794	41.16
579.989	40.91
580.183	40.91
580.378	40.91
580.572	40.94
580.766	40.95
580.961	41.33
581.155	41.4
581.35	41.24
581.544	41.09
581.738	41.28
581.933	41.22
582.127	41.27
582.321	41.37
582.516	41.43
582.71	41.8
582.904	41.74
583.099	41.69
583.293	41.74
583.487	41.86
583.681	42.02
583.875	42.15
584.07	42.08
584.264	42.04
584.458	41.74
584.652	41.87
584.846	41.7
585.04	41.77
585.234	41.6
585.428	41.52
585.623	41.77
585.817	42.21
586.011	42.3
586.205	42.43
586.399	42.58
586.593	42.99
586.787	43.14
586.981	43.18
587.174	43.51
587.368	43.85
587.562	44.12
587.756	44.07
587.95	43.45
588.144	43.11
588.338	42.91
588.532	42.91
588.725	42.93
588.919	42.99
589.113	42.95
589.307	42.66
589.501	42.27
589.694	42.33
589.888	42.29
590.082	42.6
590.275	42.86
590.469	43.07
590.663	43.25
590.856	43.29
591.05	43.09
591.244	43.28
591.437	43.39
591.631	43.73
591.824	43.69
592.018	43.77
592.212	43.72
592.405	43.48
592.599	43.59
592.792	43.5
592.986	43.55
593.179	43.88
593.372	43.78
593.566	44.03
593.759	43.84
593.953	43.87
594.146	43.85
594.339	43.7
594.533	43.81
594.726	43.82
594.92	43.66
595.113	43.55
595.306	43.33
595.499	43.31
595.693	43.13
595.886	43.16
596.079	43.11
596.272	43.23
596.466	43.45
596.659	43.51
596.852	43.45
597.045	43.73
597.238	43.85
597.431	44
597.624	44.08
597.818	44.21
598.011	44.21
598.204	44.24
598.397	44.33
598.59	44.3
598.783	44.6
598.976	44.9
599.169	44.91
599.362	44.92
599.555	45.01
599.748	45.01
599.941	45.19
600.134	45.3
600.326	45.33
600.519	44.97
600.712	44.94
600.905	44.62
601.098	44.37
601.291	44.05
601.483	43.91
601.676	43.83
601.869	44.01
602.062	43.99
602.255	43.96
602.447	43.97
602.64	44.31
602.833	44.57
603.025	44.71
603.218	44.65
603.411	44.69
603.603	44.95
603.796	44.81
603.989	44.72
604.181	44.65
604.374	44.82
604.566	44.83
604.759	44.82
604.951	44.67
605.144	44.55
605.336	44.56
605.529	44.76
605.721	44.79
605.914	45
606.106	44.94
606.299	44.91
606.491	44.73
606.683	44.77
606.876	44.76
607.068	44.97
607.26	45.12
607.453	45.4
607.645	45.51
607.837	45.34
608.03	45.12
608.222	45.17
608.414	45.28
608.606	45.21
608.799	45.3
608.991	45.38
609.183	45.25
609.375	45.5
609.567	45.3
609.759	45.37
609.952	45.48
610.144	45.68
610.336	45.71
610.528	45.79
610.72	46.02
610.912	45.86
611.104	45.8
611.296	45.89
611.488	45.83
611.68	46.07
611.872	45.92
612.064	46.13
612.256	46.31
612.448	46.34
612.64	46.32
612.832	46.58
613.023	46.66
613.215	46.49
613.407	46.46
613.599	46.43
613.791	46.31
613.983	46.07
614.174	45.67
614.366	45.24
614.558	45.27
614.75	45.28
614.941	45.27
615.133	45.18
615.325	45.61
615.516	45.99
615.708	45.99
615.9	46.09
616.091	46.22
616.283	46.29
616.475	46.29
616.666	46.36
616.858	46.22
617.049	45.72
617.241	46.21
617.432	46.08
617.624	45.61
617.815	45.5
618.007	45.67
618.198	45.89
618.39	46.04
618.581	46.22
618.773	46.33
618.964	46.19
619.155	46.37
619.347	46.27
619.538	46.16
619.729	46.09
619.921	45.89
620.112	45.85
620.303	45.79
620.494	45.52
620.686	45.52
620.877	45.5
621.068	45.9
621.259	46.17
621.451	45.73
621.642	46.04
621.833	45.73
622.024	45.88
622.215	45.76
622.406	45.82
622.597	45.91
622.788	45.98
622.98	45.74
623.171	45.64
623.362	45.5
623.553	46.12
623.744	45.67
623.935	46.29
624.126	46.19
624.317	45.91
624.508	45.66
624.698	45.69
624.889	45.58
625.08	45.66
625.271	45.64
625.462	45.68
625.653	45.52
625.844	45.76
626.034	45.88
626.225	46.17
626.416	46.41
626.607	46.5
626.798	46.3
626.988	46.66
627.179	46.7
627.37	46.71
627.56	46.65
627.751	46.42
627.942	46.39
628.132	46.5
628.323	46.65
628.514	46.62
628.704	46.57
628.895	46.86
629.085	46.57
629.276	46.61
629.466	46.44
629.657	46.29
629.847	46.59
630.038	46.6
630.228	46.1
630.419	45.85
630.609	45.81
630.8	45.88
630.99	46.07
631.181	45.98
631.371	45.83
631.561	45.89
631.752	46.45
631.942	46.08
632.132	45.97
632.323	45.95
632.513	45.75
632.703	45.85
632.893	46.08
633.084	45.87
633.274	45.71
633.464	45.87
633.654	46.06
633.844	45.56
634.034	45.97
634.225	46.17
634.415	46.24
634.605	46.21
634.795	46.26
634.985	46.13
635.175	46.07
635.365	46.29
635.555	46.44
635.745	45.95
635.935	45.84
636.125	45.54
636.315	45.21
636.505	45.55
636.695	45.47
636.885	45.51
637.075	45.32
637.265	45.32
637.455	45.07
637.644	44.88
637.834	45.48
638.024	45.89
638.214	45.94
638.404	46.31
638.593	46.23
638.783	46.28
638.973	46.38
639.163	46.71
639.352	46.84
639.542	47.27
639.732	47.21
639.921	46.96
640.111	46.56
640.301	46.87
640.49	46.7
640.68	46.31
640.87	46.73
641.059	46.7
641.249	46.33
641.438	46.07
641.628	45.84
641.817	46.03
642.007	46.35
642.196	46.81
642.386	46.95
642.575	47.3
642.764	47.91
642.954	47.81
643.143	47.29
643.333	47.35
643.522	47.67
643.711	47.6
643.901	46.89
644.09	46.23
644.279	46.08
644.469	45.49
644.658	45.23
644.847	45.17
645.036	44.71
645.226	44.86
645.415	45.09
645.604	45.22
645.793	45.26
645.982	45.66
646.171	45.81
646.361	45.78
646.55	46.09
646.739	45.74
646.928	45.51
647.117	45.52
647.306	45.64
647.495	45.63
647.684	45.43
647.873	45.43
648.062	45.26
648.251	45.78
648.44	45.48
648.629	45.43
648.818	45.99
649.007	46.22
649.196	46.66
649.384	46.35
649.573	46.1
649.762	46.21
649.951	46.25
650.14	46.31
650.328	46.33
650.517	47
650.706	46.69
650.895	46.22
651.083	45.95
651.272	46.02
651.461	46.32
651.65	46.22
651.838	45.78
652.027	46.22
652.216	46.47
652.404	46.21
652.593	46
652.781	46.38
652.97	46.32
653.158	46
653.347	45.98
653.535	46.03
653.724	46.4
653.912	46.33
654.101	46.22
654.289	46.39
654.478	46.27
654.666	45.84
654.855	45.97
655.043	46.14
655.231	46.25
655.42	45.83
655.608	45.65
655.796	45.35
655.985	46.18
656.173	45.99
656.361	45.96
656.55	45.92
656.738	45.89
656.926	45.6
657.114	45.57
657.302	45.78
657.491	46.01
657.679	46.27
657.867	46.42
658.055	45.99
658.243	45.77
658.431	45.35
658.619	45.7
658.807	45.91
658.996	46.08
659.184	46.17
659.372	46.24
659.56	46.36
659.748	46.11
659.936	46.31
660.124	46.25
660.311	46.41
660.499	46.34
660.687	46.18
660.875	46.28
661.063	46.06
661.251	46.16
661.439	46.23
661.627	45.88
661.814	45.97
662.002	45.81
662.19	46.32
662.378	46.11
662.565	46.65
662.753	46.64
662.941	46.65
663.129	46.65
663.316	46.1
663.504	46.18
663.692	46.29
663.879	46.31
664.067	46.19
664.254	45.37
664.442	45.27
664.63	45.08
664.817	44.86
665.005	44.98
665.192	45.34
665.38	45.44
665.567	45.17
665.755	45.37
665.942	45.17
666.13	45.34
666.317	45.64
666.504	45.75
666.692	45.9
666.879	45.92
667.067	45.78
667.254	45.69
667.441	46.1
667.629	45.47
667.816	45.31
668.003	45.6
668.19	45.66
668.378	45.44
668.565	45.74
668.752	45.75
668.939	46
669.127	46.38
669.314	46.26
669.501	46.26
669.688	47.04
669.875	46.82
670.062	46.96
670.249	46.92
670.436	47.61
670.623	47.9
670.81	47.65
670.997	47.78
671.184	47.36
671.371	47.32
671.558	47.07
671.745	47.21
671.932	47.61
672.119	47.47
672.306	47.11
672.493	46.46
672.68	45.86
672.867	46.02
673.054	46.07
673.24	46.61
673.427	47
673.614	47.11
673.801	46.74
673.988	46.52
674.174	46.41
674.361	46.73
674.548	46.39
674.734	46.45
674.921	46.81
675.108	46.17
675.294	45.61
675.481	44.97
675.668	44.73
675.854	44.7
676.041	44.68
676.227	44.84
676.414	44.54
676.601	45.21
676.787	45.07
676.974	44.31
677.16	44.64
677.347	44.3
677.533	44.23
677.719	44.68
677.906	44.63
678.092	44.74
678.279	44.6
678.465	45.04
678.651	45
678.838	45.01
679.024	45.37
679.21	45.39
679.397	45.56
679.583	46.1
679.769	46.26
679.955	46.72
680.142	47.11
680.328	47.28
680.514	47.28
680.7	47.44
680.886	47.86
681.073	48
681.259	47.96
681.445	47.86
681.631	47.95
681.817	47.89
682.003	47.35
682.189	46.76
682.375	46.56
682.561	46.44
682.747	46.56
682.933	46.12
683.119	45.96
683.305	46.12
683.491	46.37
683.677	45.84
683.863	45.65
684.049	45.7
684.235	45.76
684.42	45.91
684.606	45.77
684.792	45.6
684.978	46.09
685.164	46.46
685.349	46.52
685.535	46.73
685.721	46.65
685.907	46.72
686.092	46.92
686.278	47.25
686.464	47.37
686.649	47.14
686.835	46.95
687.021	46.21
687.206	45.52
687.392	45.85
687.577	45.53
687.763	45.9
687.948	46.29
688.134	46.25
688.319	46.25
688.505	46.62
688.69	46.67
688.876	46.56
689.061	46.82
689.247	47.03
689.432	46.65
689.618	47.09
689.803	46.8
689.988	46.21
690.174	46.35
690.359	45.94
690.544	45.24
690.73	45.42
690.915	45.33
691.1	45.64
691.285	45.68
691.471	45.54
691.656	44.94
691.841	45.74
692.026	45.24
692.211	45.18
692.396	45.93
692.582	46.26
692.767	46.19
692.952	46.62
693.137	46.37
693.322	46.43
693.507	46.47
693.692	46.77
693.877	46.32
694.062	47.51
694.247	47.53
694.432	47.02
694.617	46.94
694.802	47.37
694.987	46.83
695.172	46.99
695.357	47.19
695.541	47.06
695.726	47.04
695.911	46.97
696.096	46.54
696.281	46.62
696.466	46.65
696.65	46.68
696.835	46.4
697.02	46.5
697.204	46.62
697.389	46.58
697.574	46.55
697.759	45.93
697.943	45.6
698.128	45.76
698.312	45.87
698.497	46.02
698.682	45.7
698.866	45.49
699.051	45.63
699.235	45.45
699.42	45.49
699.604	45.45
699.789	46.08
699.973	46.39
700.158	46.23
700.342	46.12
700.527	46.21
700.711	46.76
700.895	46.91
701.08	47.48
701.264	47.68
701.448	47.51
701.633	47.87
701.817	47.31
702.001	47.28
702.186	47.22
702.37	47.37
702.554	47.31
702.738	46.99
702.923	47.65
703.107	46.95
703.291	46.79
703.475	47.34
703.659	47.36
703.843	47.93
704.027	48.11
704.212	48.43
704.396	48.5
704.58	47.92
704.764	47.29
704.948	46.2
705.132	47.06
705.316	47.64
705.5	47.51
705.684	47.74
705.868	47.5
706.052	47.42
706.235	47.21
706.419	46.34
706.603	46.54
706.787	46.72
706.971	47.54
707.155	46.59
707.339	46.11
707.522	46.09
707.706	45.18
707.89	45.08
708.074	45.41
708.257	45.34
708.441	45.38
708.625	44.77
708.808	45.77
708.992	45.62
709.176	46.52
709.359	46.08
709.543	46.13
709.727	46.18
709.91	47.11
710.094	46.87
710.277	46.46
710.461	47.19
710.644	47.84
710.828	47.64
711.011	47.26
711.195	46.58
711.378	46.74
711.562	46.4
711.745	46.9
711.928	46.24
712.112	46
712.295	46.19
712.478	45.98
712.662	45.78
712.845	45.35
713.028	45.8
713.212	45.19
713.395	45.6
713.578	45.48
713.761	45.45
713.945	45.77
714.128	45.43
714.311	45.49
714.494	45.25
714.677	45.86
714.86	45.5
715.043	45.61
715.227	46.1
715.41	46.53
715.593	46.8
715.776	47.15
715.959	46.9
716.142	47.05
716.325	47.4
716.508	47.3
716.691	46.59
716.874	47.06
717.057	46.52
717.239	46.75
717.422	46.15
717.605	46.05
717.788	45.51
717.971	45.08
718.154	45
718.337	44.32
718.519	44.62
718.702	44.88
718.885	44.58
719.068	44.23
719.25	43.59
719.433	43.15
719.616	42.76
719.798	42.41
719.981	43.23
720.164	43.4
720.346	43.58
720.529	43.57
720.712	43.64
720.894	44.2
721.077	45.4
721.259	46.32
721.442	46.5
721.624	46.33
721.807	47.13
721.989	47.34
722.172	47.66
722.354	47.22
722.537	47.24
722.719	47.66
722.901	47.03
723.084	46.91
723.266	46.42
723.448	45.99
723.631	46.41
723.813	46.76
723.995	45.82
724.178	45.74
724.36	46.57
724.542	45.87
724.724	45.28
724.907	45.84
725.089	45.03
725.271	45.22
725.453	45.88
725.635	45.63
725.817	44.33
725.999	44.55
726.181	44.83
726.364	45.08
726.546	46.21
726.728	46.63
726.91	46.07
727.092	47.29
727.274	46.95
727.456	46.59
727.638	45.87
727.819	46.77
728.001	47.18
728.183	47.33
728.365	46.88
728.547	46.14
728.729	45.64
728.911	45.81
729.093	45.28
729.274	45.13
729.456	45.2
729.638	46.21
729.82	46.57
730.001	46.24
730.183	46.04
730.365	46.37
730.546	46.62
730.728	46.38
730.91	46.89
731.091	46.7
731.273	47.17
731.455	47.52
731.636	46.66
731.818	45.43
731.999	45.79
732.181	44.66
732.362	44.49
732.544	44.24
732.725	44.83
732.907	44.59
733.088	44.05
733.27	43.29
733.451	43.03
733.633	43.6
733.814	44.4
733.995	43.31
734.177	43.82
734.358	44.43
734.539	45.25
734.721	45.28
734.902	45.41
735.083	45.84
735.264	46.48
735.446	47.1
735.627	47.13
735.808	47.05
735.989	47.25
736.17	47.09
736.351	46.5
736.533	46.31
736.714	46.6
736.895	46.87
737.076	46.76
737.257	47.03
737.438	46.19
737.619	46.34
737.8	45.98
737.981	46.55
738.162	46.84
738.343	45.23
738.524	44.14
738.705	43.73
738.886	42.59
739.067	42.32
739.247	41.58
739.428	41.9
739.609	42.8
739.79	42.79
739.971	42.99
740.151	43.44
740.332	45.01
740.513	45.83
740.694	46.03
740.874	47.21
741.055	48.47
741.236	47.54
741.417	46.98
741.597	46.01
741.778	45.71
741.958	46.36
742.139	45.66
742.32	46.04
742.5	45.39
742.681	45.84
742.861	44.36
743.042	42.95
743.222	43.36
743.403	43.32
743.583	43.42
743.764	43.44
743.944	42.45
744.124	42.85
744.305	42.83
744.485	42.94
744.666	42.93
744.846	43.22
745.026	43.02
745.207	43.38
745.387	44.87
745.567	44.29
745.747	45.88
745.928	45.32
746.108	45.06
746.288	45.46
746.468	46.35
746.648	45.97
746.829	48.07
747.009	48.76
747.189	48.19
747.369	46.97
747.549	47.15
747.729	46.02
747.909	47.14
748.089	47.89
748.269	46.93
748.449	46.57
748.629	45.84
748.809	44.76
748.989	42.36
749.169	43.19
749.349	43.33
749.529	43.49
749.709	43.18
749.889	43.33
750.068	42.61
750.248	41.96
750.428	41.65
750.608	41.2
750.788	41.02
750.967	43.26
751.147	43.69
751.327	42.98
751.507	44.02
751.686	44.62
751.866	43.48
752.046	44.09
752.225	44.62
752.405	44.51
752.585	45.54
752.764	44.76
752.944	44.45
753.123	43.87
753.303	44.54
753.482	42.44
753.662	42.61
753.841	42.86
754.021	42.32
754.2	42.21
754.38	43.07
754.559	42.69
754.739	43.07
754.918	42.31
755.097	41.41
755.277	41.62
755.456	42.39
755.635	42.4
755.815	41.59
755.994	41.47
756.173	42.82
756.352	41.86
756.532	42.16
756.711	42.81
756.89	43.48
757.069	46.46
757.248	45.32
757.427	45.39
757.607	45.52
757.786	46.92
757.965	47.58
758.144	46.52
758.323	46.63
758.502	45.55
758.681	45.86
758.86	47.09
759.039	46.1
759.218	46.84
759.397	47.68
759.576	47.42
759.755	46.34
759.934	45.86
760.113	45.43
760.291	46.22
760.47	47.02
760.649	45.88
760.828	44.02
761.007	43.21
761.186	43.32
761.364	42.12
761.543	41.72
761.722	41.82
761.901	41.36
762.079	41.42
762.258	41.5
762.437	41.56
762.615	41.72
762.794	42.94
762.972	43.24
763.151	42.86
763.33	44.08
763.508	43.86
763.687	44.26
763.865	44.78
764.044	45.59
764.222	45.58
764.401	45.78
764.579	46.34
764.758	45.28
764.936	45.63
765.114	45.46
765.293	44.87
765.471	45.5
765.65	45.52
765.828	45.26
766.006	44.74
766.184	44.49
766.363	45.21
766.541	44.72
766.719	45.7
766.898	45.43
767.076	45.49
767.254	44.59
767.432	43.88
767.61	44.09
767.788	43.37
767.967	42.55
768.145	42.82
768.323	41.15
768.501	40.29
768.679	40.15
768.857	39.7
769.035	39.85
769.213	41.22
769.391	40.79
769.569	40.95
769.747	41
769.925	42.18
770.103	41.15
770.281	41.75
770.459	43.31
770.636	44.15
770.814	43.5
770.992	45.14
771.17	45.37
771.348	45.39
771.525	45.07
771.703	46.94
771.881	47.59
772.059	48.26
772.236	48.3
772.414	47.91
772.592	47.03
772.769	47.56
772.947	46.33
773.125	44.64
773.302	45.09
773.48	44.99
773.657	43.06
773.835	41.36
774.013	39.64
774.19	40.81
774.368	39.9
774.545	39.6
774.723	39.32
774.9	38.43
775.077	40.2
775.255	39.42
775.432	38.71
775.61	39.07
775.787	39.95
775.964	41.5
776.142	40.83
776.319	40.54
776.496	39.45
776.674	38.88
776.851	40.02
777.028	38.8
777.205	40.1
777.382	39.75
777.56	40.09
777.737	37.09
777.914	39.25
778.091	36.35
778.268	37.89
778.445	40.27
778.622	40.86
778.8	39.49
778.977	39.95
779.154	8.32
779.331	7.02
779.508	6.27
779.685	9.12
779.862	5.98
780.038	9.67
780.215	8.88
780.392	7.03
780.569	7.27
780.746	8.49
780.923	7.73
781.1	40.41
781.277	42.61
781.453	43.78
781.63	45.38
781.807	45.53
781.984	43.3
782.16	43.76
782.337	44.76
782.514	44.17
782.691	43.84
782.867	43.75
783.044	41.46
783.221	38.05
783.397	36.9
783.574	35.1
783.75	36.21
783.927	35.57
784.103	35.09
784.28	33.01
784.456	33.73
784.633	33.96
784.809	32.73
784.986	33.5
785.162	38.83
785.339	40.13
785.515	40.51
785.692	39.15
785.868	40.67
786.044	43.11
786.221	42.38
786.397	42.26
786.573	42.58
786.749	44.49
786.926	45.14
787.102	42.74
787.278	42.77
787.454	43.9
787.631	45.21
787.807	45.45
787.983	43.96
788.159	45.41
788.335	45.65
788.511	44.75
788.687	42.59
788.863	42.55
789.039	41.2
789.216	41.48
789.392	41.53
789.568	40.3
789.744	39.41
789.919	40.21
790.095	41.41
790.271	39.55
790.447	41.38
790.623	43.26
790.799	43.44
790.975	42.69
791.151	40.6
791.327	39.98
791.502	40.87
791.678	41.51
791.854	39.91
792.03	39.16
792.205	39.16
792.381	37.36
792.557	35.99
792.733	37.02
792.908	36.1
793.084	38.05
793.259	35.89
793.435	35.2
793.611	34.91
793.786	35.05
793.962	36.23
794.137	36.04
794.313	36.79
794.488	36.99
794.664	33.88
794.839	32.6
795.015	32
795.19	33.24
795.366	34.87
795.541	36.46
795.716	36.48
795.892	35.87
796.067	37.52
796.242	37.72
796.418	41.79
796.593	41.43
796.768	44.58
796.944	46.07
797.119	47.64
797.294	46.83
797.469	43.87
797.644	46.25
797.82	47.4
797.995	45.87
798.17	43.65
798.345	39.38
798.52	40.62
798.695	41.73
798.87	40.1
799.045	41.11
799.22	38.83
799.395	41.5
799.57	38.11
799.745	36.54
799.92	38.69
800.095	41.11
800.27	41.16
800.445	40.99
800.62	38.68
800.795	38.6
800.97	33.14
801.145	35.53
801.319	33.65
801.494	31.71
801.669	30.38
801.844	30.26
802.018	29.65
802.193	30.27
802.368	32.32
802.543	30.2
802.717	30.01
802.892	32.16
803.067	30.95
803.241	31.45
803.416	34.35
803.59	36.7
803.765	36.36
803.94	37.02
804.114	39.84
804.289	37.7
804.463	41.4
804.638	42.12
804.812	42.55
804.986	43.27
805.161	41.55
805.335	39.16
805.51	37.48
805.684	36.04
805.858	35.26
806.033	34.05
806.207	35.54
806.381	34.73
806.556	31.73
806.73	33.66
806.904	34.16
807.078	34.89
807.253	34.99
807.427	37.19
807.601	36.01
807.775	37.33
807.949	37.84
808.123	34.08
808.298	35.33
808.472	36.9
808.646	34.67
808.82	29.97
808.994	32.2
809.168	31.93
809.342	30.99
809.516	32.26
809.69	29.41
809.864	27.66
810.038	27.69
810.212	27.07
810.385	24.57
810.559	26.53
810.733	30.6
810.907	29.65
811.081	33.23
811.255	33.71
811.428	37.35
811.602	38.27
811.776	39.62
811.95	44.62
812.123	45.03
812.297	48.86
812.471	46.67
812.644	45.64
812.818	45.18
812.992	41.64
813.165	39.53
813.339	35.11
813.512	38.9
813.686	38.92
813.86	36.86
814.033	37.58
814.207	37.15
814.38	39.29
814.554	40.75
814.727	42.6
814.9	47.4
815.074	48.14
815.247	49.32
815.421	46.41
815.594	44.66
815.767	43.56
815.941	42.04
816.114	39.87
816.287	39.81
816.46	36.7
816.634	34.28
816.807	31.78
816.98	29.99
817.153	29.37
817.327	31.23
817.5	33.43
817.673	33.95
817.846	33.66
818.019	34.62
818.192	33.73
818.365	34.57
818.538	37.2
818.711	37.09
818.884	41.17
819.057	39.83
819.23	36.65
819.403	34.53
819.576	36
819.749	35.16
819.922	37.15
820.095	38.4
820.268	41.74
820.441	39.17
820.614	39.54
820.786	38.14
820.959	38.78
821.132	41.3
821.305	44.05
821.477	44.42
821.65	44.86
821.823	44.53
821.996	44.5
822.168	43.23
822.341	44.01
822.514	44.21
822.686	43.93
822.859	44.45
823.031	44.39
823.204	43.88
823.376	43.43
823.549	42.93
823.722	42.82
823.894	42.68
824.067	43.14
824.239	42.59
824.411	42.6
824.584	43.26
824.756	43.81
824.929	43.54
825.101	43.54
825.273	43.64
825.446	44.15
825.618	44.34
825.79	44.16
825.963	44.57
826.135	45.45
826.307	45.17
826.479	43.38
826.652	43.05
826.824	43.93
826.996	43.37
827.168	44.47
827.34	44.38
827.512	43.9
827.684	42.87
827.856	41.85
828.029	40.49
828.201	40.31
828.373	41.78
828.545	40.78
828.717	40.58
828.889	41.48
829.061	39.03
829.232	38.73
829.404	38.75
829.576	39.64
829.748	39.2
829.92	39.5
830.092	38.91
830.264	37.75
830.436	37.27
830.607	36.2
830.779	36.19
830.951	35.87
831.123	36.44
831.294	38
831.466	37.51
831.638	39.85
831.809	40.41
831.981	40.95
832.153	43.22
832.324	43.44
832.496	41.77
832.667	37.54
832.839	38.63
833.011	38.05
833.182	36.21
833.354	37.44
833.525	37.31
833.697	36.76
833.868	37.92
834.039	37.9
834.211	37.56
834.382	36.9
834.554	40.98
834.725	41.22
834.896	42.09
835.068	41.43
835.239	41.27
835.41	41.75
835.581	41.22
835.753	40.61
835.924	38.25
836.095	38.02
836.266	38.88
836.438	36.01
836.609	36.48
836.78	34.19
836.951	32.57
837.122	33.21
837.293	32.89
837.464	32.75
837.635	31.97
837.806	35.25
837.977	35.11
838.148	34.51
838.319	34.34
838.49	33.74
838.661	38.65
838.832	42.28
839.003	42.96
839.174	39.51
839.345	43.43
839.516	44.33
839.687	40.77
839.857	40.22
840.028	40.07
840.199	42.04
840.37	37.73
840.54	35.82
840.711	35.23
840.882	32.29
841.053	35.89
841.223	32.95
841.394	33.98
841.564	36.11
841.735	40.17
841.906	41.23
842.076	37.82
842.247	46.94
842.417	46.11
842.588	45.87
842.758	49.92
842.929	48.11
843.099	51.7
843.27	50.53
843.44	49.7
843.611	40.88
843.781	37.11
843.951	44.66
844.122	37.77
844.292	37.05
844.462	33.65
844.633	32.17
844.803	28.62
844.973	16.93
845.144	13.73
845.314	13.24
845.484	31.09
845.654	33.15
845.824	28.46
845.995	31.01
846.165	25.26
846.335	26.74
846.505	28.62
846.675	35.42
846.845	40.39
847.015	42.7
847.185	45.56
847.355	39
847.525	33.94
847.695	32.24
847.865	26.89
848.035	20.33
848.205	26.78
848.375	17.71
848.545	6.67
848.715	6.72
848.884	3.96
849.054	-0.73
849.224	6.82
849.394	12.93
849.564	16.64
849.733	28.93
849.903	39.35
850.073	33.98
850.243	30.68
850.412	35.2
850.582	33.04
850.752	36.09
850.921	40.6
851.091	33.82
851.26	29.8
851.43	16.24
851.599	-4.31
851.769	-6.27
851.939	5.17
852.108	12.25
852.278	11.16
852.447	12.34
852.616	7.62
852.786	8.79
852.955	9.37
853.125	8.72
853.294	17.23
853.463	13.36
853.633	14.68
853.802	1.45
853.971	3.78
854.141	-12.24
854.31	-12.17
854.479	-12.02
854.648	-14.87
854.818	-6.23
854.987	6.59
855.156	16.02
855.325	22
855.494	18.68
855.663	18.36
855.832	26.7
856.001	31.81
856.171	20.12
856.34	15.34
856.509	21.31
856.678	6.4
856.847	7.39
857.016	0.51
857.185	3.3
857.353	15.52
857.522	23.01
857.691	16.24
857.86	20.58
858.029	29.5
858.198	37.47
858.367	30.18
858.535	38.24
858.704	36.94
858.873	40.24
859.042	38.17
859.21	31.62
859.379	20.01
859.548	20.11
859.717	19.44
859.885	-0.02
860.054	-1.19
860.222	-4.58
860.391	6.85
860.56	-1.86
860.728	0.77
860.897	-5.05
861.065	-7.65
861.234	-1.04
861.402	-17.84
861.571	-24.09
861.739	-8.4
861.908	2.71
862.076	2.65
862.244	2.11
862.413	18.28
862.581	-6.21
862.749	7.66
862.918	20.57
863.086	14.46
863.254	23.04
863.423	21.91
863.591	36.25
863.759	27.39
863.927	30.08
864.096	34.41
864.264	14.49
864.432	33.72
864.6	32.82
864.768	24.35
864.936	21.51
865.104	15.56
865.272	20.3
865.44	-0.11
865.608	-9.62
865.776	-15.14
865.944	-8.54
866.112	4.12
866.28	-16.91
866.448	-23.21
866.616	-16.49
866.784	-14.11
866.952	-11.28
867.12	-9.97
867.288	0.61
867.455	6.78
867.623	16.97
867.791	-22.13
867.959	-49.12
868.127	12.96
868.294	24.43
868.462	8.82
868.63	16.02
868.797	23.31
868.965	41.76
869.133	33.99
869.3	18.98
869.468	13.41
869.636	19.49
869.803	21.2
869.971	9.5
870.138	5.41
870.306	12.45
870.473	26.93
870.641	30.59
870.808	10.65
870.975	11.96
871.143	9.97
871.31	21.95
871.478	10.58
871.645	26.8
871.812	18.41
871.98	38.1
872.147	17.17
872.314	10.41
872.482	9.58
872.649	21.16
872.816	22.5
872.983	35.5
873.15	12.55
873.318	18.27
873.485	-5.9
873.652	5.11
873.819	-29.22
873.986	-0.23
874.153	-17.6
874.32	-25.32
874.487	-29.82
874.654	-48.26
874.821	-81.91
874.988	-45.98
875.155	-42.45
875.322	-15.1
875.489	-24.66
875.656	-12.76
875.823	-24.87
875.99	-9.86
876.157	-1.92
876.324	1.55
876.49	14.99
876.657	22.37
876.824	26.1
876.991	34.61
877.157	15.9
877.324	19.17
877.491	15.37
877.658	16.78
877.824	7.96
877.991	11.36
878.157	-3.93
878.324	-3.17
878.491	-10.52
878.657	-6.91
878.824	-11.77
878.99	9.79
879.157	11.23
879.323	18.09
879.49	14.14
879.656	25.14
879.823	16.61
879.989	28.72
880.156	23.12
880.322	22.94
880.488	20.52
880.655	17.56
880.821	19.95
880.987	22.58
881.154	23.33
881.32	25.21
881.486	22.3
881.652	23.54
881.819	23.38
881.985	28.23
882.151	28.65
882.317	34.05
882.483	36.52
882.649	32.84
882.816	34.29
882.982	36.03
883.148	35.32
883.314	38.1
883.48	39.27
883.646	39.19
883.812	38.02
883.978	38.43
884.144	37.47
884.31	37.39
884.476	39.13
884.642	38.14
884.807	37.33
884.973	37.64
885.139	36.06
885.305	33.73
885.471	34.08
885.637	35.11
885.802	33.79
885.968	32.9
886.134	31.6
886.3	30.57
886.465	31.62
886.631	31.83
886.797	30.14
886.962	30.16
887.128	33.9
887.293	31.97
887.459	28.35
887.625	33.94
887.79	34.25
887.956	34.36
888.121	34.11
888.287	33.78
888.452	33.17
888.618	38.74
888.783	40.51
