Data from CB_017_Reflection_3.txt Node
Date: Wed Nov 11 19:10:43 EST 2015
User: robert
Spectrometer: USB4E03001
Autoset integration time: false
Trigger mode: 4
Integration Time (sec): 1.000000E-1
Scans to average: 15
Electric dark correction enabled: true
Nonlinearity correction enabled: false
Boxcar width: 5
Stray light correction enabled: false
XAxis mode: Wavelengths
Stop averaging: false
Number of Pixels in Spectrum: 3648
>>>>>Begin Spectral Data<<<<<
177.566	-59.18
177.785	-92.98
178.005	-21.25
178.225	327.15
178.445	-28.55
178.665	-68.42
178.885	-55.91
179.105	341.58
179.324	188.98
179.544	-62.47
179.764	-57.34
179.984	-41.65
180.204	111.86
180.423	-31.07
180.643	70.14
180.863	-114.52
181.083	827.27
181.302	-8.53
181.522	-237.43
181.742	-57.03
181.961	155.66
182.181	94.27
182.401	126.33
182.621	596.78
182.84	160.38
183.06	174.22
183.279	202.72
183.499	439.66
183.719	493.94
183.938	149.25
184.158	85.54
184.377	105.05
184.597	-7.54
184.816	-17.32
185.036	-182.02
185.256	44.18
185.475	27.46
185.695	-687.36
185.914	67.2
186.134	46.4
186.353	109.79
186.572	307.17
186.792	241.85
187.011	162.02
187.231	114.87
187.45	91.95
187.67	50.58
187.889	785.76
188.108	354.37
188.328	643.78
188.547	-524.49
188.766	-1074.58
188.986	216.97
189.205	-4668.18
189.424	362.69
189.644	1890.91
189.863	199.35
190.082	244.77
190.302	182.79
190.521	95.6
190.74	89.14
190.959	83.81
191.178	98.82
191.398	101.44
191.617	87.24
191.836	77.39
192.055	89.36
192.274	78.1
192.494	74.43
192.713	66.17
192.932	75.52
193.151	71.42
193.37	71.58
193.589	44.8
193.808	47.53
194.027	53.1
194.246	65.32
194.465	53.84
194.685	60.98
194.904	74.53
195.123	178.42
195.342	355.61
195.561	45.59
195.78	28.78
195.999	64.74
196.218	-128.65
196.436	174.55
196.655	902.88
196.874	-53.83
197.093	-198.06
197.312	-354.55
197.531	218.59
197.75	259.27
197.969	103
198.188	91.27
198.407	90.64
198.625	149.98
198.844	147.21
199.063	90.04
199.282	88.16
199.501	43.8
199.719	19.31
199.938	-446.87
200.157	141.99
200.376	169.34
200.594	341.52
200.813	-12702.86
201.032	862.73
201.251	218.53
201.469	200.18
201.688	190.36
201.907	223.9
202.125	137.11
202.344	118.48
202.563	133.07
202.781	144.86
203	154.31
203.218	130.63
203.437	120.99
203.656	145.22
203.874	137.81
204.093	121.6
204.311	76.49
204.53	87.39
204.748	49.97
204.967	59.54
205.185	45.7
205.404	37.52
205.622	24.01
205.841	61.99
206.059	51.5
206.278	38.9
206.496	36.89
206.715	142.38
206.933	174.12
207.151	146.71
207.37	170.06
207.588	196.89
207.806	260.28
208.025	239.32
208.243	133.27
208.461	78.06
208.68	58.75
208.898	131.62
209.116	80.14
209.335	94.71
209.553	-161.39
209.771	111.92
209.989	175.22
210.208	-33.68
210.426	-114.04
210.644	-42.79
210.862	-14.3
211.081	-32.14
211.299	4.73
211.517	-100.18
211.735	-17.05
211.953	-22.18
212.171	83.67
212.39	244.15
212.608	258.98
212.826	134.1
213.044	155.33
213.262	148.65
213.48	142.28
213.698	231.73
213.916	-418.49
214.134	-63.19
214.352	-155.16
214.57	346.58
214.788	145.72
215.006	87.87
215.224	74.14
215.442	29.23
215.66	25.67
215.878	44.49
216.096	19.27
216.314	39.44
216.532	47.92
216.75	64.29
216.968	66.92
217.185	93.41
217.403	124
217.621	109.29
217.839	151.27
218.057	1489.45
218.275	-397.84
218.492	-28.69
218.71	-12.28
218.928	-47.25
219.146	7.82
219.363	22.98
219.581	8.63
219.799	36.12
220.017	28.75
220.234	34.25
220.452	-8.05
220.67	-29.63
220.887	-70.95
221.105	-46.02
221.323	-26.39
221.54	17.99
221.758	44.85
221.976	68
222.193	36.67
222.411	-2.05
222.629	-12.43
222.846	1.8
223.064	52.33
223.281	35.18
223.499	57.56
223.716	30.44
223.934	-32.36
224.151	-363.67
224.369	-202.31
224.586	92300
224.804	-189.3
225.021	-62.06
225.239	-52.69
225.456	-98.09
225.674	-134.47
225.891	-57.5
226.108	-48.53
226.326	-55.08
226.543	-34.33
226.76	-48.21
226.978	-21.96
227.195	-10.17
227.413	-2.64
227.63	-4.36
227.847	-7.67
228.064	-0.73
228.282	1.58
228.499	5.11
228.716	9.19
228.934	9.43
229.151	12.29
229.368	10.2
229.585	7.13
229.802	6.73
230.02	7.24
230.237	8.6
230.454	8.21
230.671	8.67
230.888	5
231.105	1.76
231.323	2.95
231.54	-1.5
231.757	-4.81
231.974	-4.1
232.191	-6.34
232.408	-3.46
232.625	-7.88
232.842	-11.53
233.059	-10.52
233.276	2.2
233.493	7.54
233.71	6.36
233.927	8.9
234.144	13.33
234.361	9.09
234.578	8.15
234.795	7.74
235.012	6.57
235.229	10.57
235.446	-2.03
235.663	-18.44
235.879	-14.38
236.096	-21.98
236.313	-29.94
236.53	-36.03
236.747	-19.93
236.964	-14.12
237.181	-22.34
237.397	-9.69
237.614	-6.92
237.831	-2.91
238.048	8.54
238.264	1.6
238.481	1.89
238.698	3.31
238.915	2.42
239.131	-9.27
239.348	-17.95
239.565	-8.29
239.781	-13.82
239.998	-14.62
240.215	-9.92
240.431	-8.82
240.648	-3.83
240.865	0.86
241.081	1.43
241.298	3.62
241.514	4.35
241.731	5.39
241.947	4.68
242.164	6.87
242.38	7.72
242.597	8.29
242.814	8.94
243.03	7.7
243.246	9.89
243.463	12.89
243.679	14.07
243.896	15.8
244.112	18.12
244.329	19.92
244.545	21.44
244.762	23.39
244.978	24.38
245.194	22.1
245.411	21.19
245.627	16.63
245.843	13.53
246.06	13.06
246.276	12.12
246.492	10.79
246.709	10.25
246.925	8.47
247.141	7.33
247.357	7.18
247.574	8.12
247.79	8.98
248.006	8.59
248.222	9
248.439	8.69
248.655	9.73
248.871	10.31
249.087	10.81
249.303	11.86
249.519	11.5
249.736	10.3
249.952	8.58
250.168	6.01
250.384	9.13
250.6	9.45
250.816	9.03
251.032	7.1
251.248	6.92
251.464	5.65
251.68	4.61
251.896	7.65
252.112	8.99
252.328	10.61
252.544	11.14
252.76	8.5
252.976	7.75
253.192	8.48
253.408	6.59
253.624	5.68
253.84	3.91
254.056	4.04
254.272	-0.12
254.487	1.28
254.703	1
254.919	3.67
255.135	3.27
255.351	-0.39
255.567	-1.94
255.782	2.93
255.998	2.81
256.214	5.02
256.43	6.72
256.646	9.34
256.861	5.85
257.077	4.58
257.293	-0.51
257.508	-1.13
257.724	-0.38
257.94	0.9
258.155	-0.81
258.371	1.52
258.587	0.8
258.802	1.22
259.018	1.61
259.234	2.38
259.449	3.29
259.665	4.05
259.88	5.04
260.096	5.76
260.312	5.19
260.527	5.6
260.743	4.52
260.958	4.44
261.174	4.18
261.389	3.42
261.605	3.47
261.82	3.49
262.036	3.37
262.251	3.17
262.466	2.53
262.682	1.3
262.897	-0.12
263.113	-0.7
263.328	-0.03
263.543	0.25
263.759	0.4
263.974	0.56
264.189	-1.26
264.405	0.44
264.62	-0.52
264.835	-0.69
265.051	0.75
265.266	0.44
265.481	3.64
265.696	2.73
265.912	1.82
266.127	2.32
266.342	2.01
266.557	-0.36
266.773	-0.73
266.988	0.23
267.203	-0.92
267.418	-0.5
267.633	0.14
267.848	0.9
268.064	2.83
268.279	2.43
268.494	2.74
268.709	3.56
268.924	6.43
269.139	6.15
269.354	5.97
269.569	7.94
269.784	7.94
269.999	9.24
270.214	6.21
270.429	3.9
270.644	4.79
270.859	4.22
271.074	4.95
271.289	3.8
271.504	3.63
271.719	2.72
271.934	1.62
272.149	1.23
272.363	0.13
272.578	1.48
272.793	3.44
273.008	2.74
273.223	2.93
273.438	1.49
273.653	2.25
273.867	2.76
274.082	3.34
274.297	4.73
274.512	3.76
274.726	5.06
274.941	4.52
275.156	2.15
275.371	2.25
275.585	0.54
275.8	1.63
276.015	0.55
276.229	-0.75
276.444	0.19
276.659	-1.65
276.873	-1.68
277.088	-2.82
277.302	-3.45
277.517	-2.36
277.732	-2.91
277.946	0.14
278.161	-1.17
278.375	-1.31
278.59	-1.8
278.804	-3.48
279.019	-1.5
279.233	1.81
279.448	2.59
279.662	3.1
279.877	3.92
280.091	5.03
280.306	5.55
280.52	5.27
280.735	4.74
280.949	5.69
281.163	6.42
281.378	6.23
281.592	4.63
281.806	4.41
282.021	3.57
282.235	3.13
282.449	2.52
282.664	0.26
282.878	1.29
283.092	2.64
283.307	2.8
283.521	4.22
283.735	5.08
283.949	4.79
284.164	5.24
284.378	7.86
284.592	7.98
284.806	8.64
285.02	8.77
285.234	9.44
285.449	8.7
285.663	8.28
285.877	6.28
286.091	5.76
286.305	6.36
286.519	6.32
286.733	5.52
286.947	5.77
287.161	6.09
287.375	6.77
287.589	5.5
287.803	6.8
288.017	6.87
288.231	7.94
288.445	8.71
288.659	8.68
288.873	8.9
289.087	7.42
289.301	8.13
289.515	7.96
289.729	7.73
289.943	8.68
290.157	6.73
290.371	6.19
290.584	6.54
290.798	5
291.012	5.48
291.226	6.24
291.44	6.6
291.654	5.19
291.867	5.08
292.081	5.27
292.295	5.01
292.509	6.62
292.722	7.18
292.936	7.45
293.15	8.1
293.364	7.68
293.577	6.89
293.791	7.37
294.005	7.16
294.218	6.86
294.432	7.49
294.645	8.07
294.859	8.15
295.073	7.66
295.286	6.18
295.5	6.66
295.713	6.96
295.927	6.79
296.14	7.22
296.354	7.49
296.568	7.63
296.781	6.97
296.994	5.23
297.208	4.79
297.421	6.2
297.635	6.88
297.848	6.95
298.062	7.37
298.275	7.48
298.489	6.83
298.702	6.88
298.915	7.3
299.129	6.91
299.342	7.05
299.555	7.47
299.769	6.78
299.982	7.2
300.195	7.56
300.409	6.98
300.622	7.21
300.835	7.18
301.048	6.94
301.262	5.67
301.475	7.84
301.688	10.35
301.901	10.44
302.115	10.87
302.328	10.57
302.541	9.39
302.754	9.65
302.967	8.23
303.18	9.08
303.393	10
303.607	10.28
303.82	8.37
304.033	7.83
304.246	7.4
304.459	5.8
304.672	5.86
304.885	5.91
305.098	5.5
305.311	7.11
305.524	6.92
305.737	6.25
305.95	7.13
306.163	8.12
306.376	7.61
306.589	8.18
306.802	9.48
307.015	9.5
307.228	9.38
307.44	9.49
307.653	8.95
307.866	8.99
308.079	8.76
308.292	9.92
308.505	9.16
308.718	8.71
308.93	7.28
309.143	7.32
309.356	7.02
309.569	7.72
309.781	8.43
309.994	7.5
310.207	8.58
310.42	8.48
310.632	6.77
310.845	7.26
311.058	7.89
311.27	8.75
311.483	8.76
311.696	8.95
311.908	9.44
312.121	8.66
312.333	9.1
312.546	8.95
312.759	9.49
312.971	9.49
313.184	9.26
313.396	9.15
313.609	10.25
313.821	10.91
314.034	11.72
314.246	11.6
314.459	10.76
314.671	12.01
314.884	11.21
315.096	12.69
315.309	13.43
315.521	13.25
315.733	12.79
315.946	11.1
316.158	9.89
316.371	9.15
316.583	8.41
316.795	9.6
317.008	8.71
317.22	8.73
317.432	7.88
317.644	7.72
317.857	8.31
318.069	8.77
318.281	9.13
318.494	9.45
318.706	8.35
318.918	8.13
319.13	6.79
319.342	6.97
319.555	7.47
319.767	6.08
319.979	7.09
320.191	5.9
320.403	5.31
320.615	6.22
320.827	5.27
321.039	6.72
321.252	7.49
321.464	9.27
321.676	8.68
321.888	8.86
322.1	9.6
322.312	9.27
322.524	10.42
322.736	10.62
322.948	10.09
323.16	11.85
323.372	11.84
323.584	11.58
323.796	11.34
324.007	11.19
324.219	10.18
324.431	11.28
324.643	11.11
324.855	11.39
325.067	11.76
325.279	12.53
325.491	11.62
325.702	11.94
325.914	12.06
326.126	11.09
326.338	12.65
326.55	14.85
326.761	14.09
326.973	14.67
327.185	14.22
327.396	13.82
327.608	13.82
327.82	14.91
328.032	15.42
328.243	16.33
328.455	17.45
328.666	17
328.878	15.57
329.09	16.23
329.301	15.43
329.513	16.43
329.725	16.84
329.936	17.22
330.148	17.7
330.359	17.69
330.571	17.56
330.782	19.01
330.994	19.6
331.205	20.88
331.417	21.34
331.628	21.71
331.84	23.29
332.051	23.97
332.262	24.04
332.474	24.92
332.685	24.94
332.897	25.35
333.108	25.24
333.319	25.88
333.531	24.87
333.742	24.6
333.953	26.41
334.165	25.75
334.376	26.49
334.587	26.97
334.799	25.76
335.01	25.95
335.221	26.04
335.432	25.58
335.644	25.64
335.855	25.84
336.066	26.72
336.277	25.14
336.488	25.24
336.7	24.98
336.911	24.98
337.122	26.09
337.333	26.61
337.544	27.21
337.755	27.66
337.966	26.97
338.177	27.21
338.388	26.63
338.599	27.23
338.811	27.27
339.022	27.24
339.233	26.57
339.444	26.45
339.655	26.46
339.866	26.71
340.076	26.97
340.287	27.66
340.498	27.9
340.709	28.44
340.92	28.48
341.131	28.59
341.342	28.79
341.553	29.17
341.764	29.33
341.975	28.92
342.185	28.29
342.396	28.39
342.607	28.35
342.818	27.51
343.029	27.16
343.239	27.3
343.45	27.19
343.661	26.99
343.872	27.17
344.082	26.54
344.293	26.87
344.504	26.53
344.714	26.27
344.925	26.41
345.136	27.61
345.346	28.59
345.557	28.82
345.768	29.02
345.978	30.02
346.189	30.63
346.399	30.76
346.61	31
346.821	32.18
347.031	31.66
347.242	31.93
347.452	32
347.663	31.52
347.873	31.93
348.084	31.88
348.294	31.3
348.504	29.7
348.715	29.75
348.925	29.87
349.136	28.62
349.346	29.43
349.557	29.42
349.767	29.25
349.977	28.73
350.188	27.74
350.398	27.98
350.608	27.93
350.819	28.83
351.029	28.63
351.239	28.27
351.449	28.18
351.66	28.25
351.87	27.75
352.08	27.18
352.29	27.83
352.501	28.79
352.711	28.6
352.921	28.32
353.131	28.3
353.341	28.53
353.552	28.17
353.762	28.33
353.972	27.96
354.182	28.35
354.392	28.31
354.602	27.53
354.812	26.95
355.022	26.94
355.232	27
355.442	26.81
355.652	26.76
355.862	27.53
356.072	27.18
356.282	27.16
356.492	27.18
356.702	27.78
356.912	27.79
357.122	27.57
357.332	27.27
357.542	27.18
357.752	27.57
357.962	27.89
358.171	27.36
358.381	27.5
358.591	27.86
358.801	27.4
359.011	27.47
359.221	27.11
359.43	27.16
359.64	27.98
359.85	28.72
360.06	28.28
360.269	28.18
360.479	28.44
360.689	28.93
360.899	28.88
361.108	29.24
361.318	28.96
361.528	29.16
361.737	28.92
361.947	28.51
362.156	27.6
362.366	28.07
362.576	27.42
362.785	26.8
362.995	26.83
363.204	26.52
363.414	25.71
363.623	25.49
363.833	25.57
364.042	25.7
364.252	25.7
364.461	26.32
364.671	25.64
364.88	25.69
365.09	25.87
365.299	25.69
365.509	25.42
365.718	26.1
365.927	25.79
366.137	25.86
366.346	25.6
366.555	24.89
366.765	24.62
366.974	24.78
367.183	24.87
367.393	24.91
367.602	24.28
367.811	24.64
368.021	23.78
368.23	24.17
368.439	23.77
368.648	24.21
368.857	24.47
369.067	24.13
369.276	24.2
369.485	24.73
369.694	24.39
369.903	24.39
370.112	23.96
370.321	24.31
370.531	23.23
370.74	23.32
370.949	22.6
371.158	22.28
371.367	22.14
371.576	21.98
371.785	21.42
371.994	21.38
372.203	21.19
372.412	20.84
372.621	21.41
372.83	22.51
373.039	21.82
373.248	22.16
373.457	22.36
373.666	22.48
373.874	22.22
374.083	23.03
374.292	23.41
374.501	23.64
374.71	24.13
374.919	23.61
375.128	23.06
375.336	23.13
375.545	22.82
375.754	22.32
375.963	22.28
376.171	21.81
376.38	20.96
376.589	20.63
376.798	20.81
377.006	20.38
377.215	20.28
377.424	20.67
377.632	20.65
377.841	20.91
378.05	20.61
378.258	20.33
378.467	20.77
378.675	20.97
378.884	20.89
379.093	20.41
379.301	20.94
379.51	20.62
379.718	19.85
379.927	19.99
380.135	19.55
380.344	19.99
380.552	19.69
380.761	19.69
380.969	19.21
381.177	19.56
381.386	19.72
381.594	19.43
381.803	19.57
382.011	20.02
382.219	20.23
382.428	20.24
382.636	20.77
382.845	20.74
383.053	20.3
383.261	20.5
383.469	20.21
383.678	20.01
383.886	19.78
384.094	19.42
384.302	18.99
384.511	18.46
384.719	18.61
384.927	18.35
385.135	18.66
385.343	18.62
385.552	18.6
385.76	18.24
385.968	18.09
386.176	18.06
386.384	17.99
386.592	17.86
386.8	17.73
387.008	17.54
387.216	17.19
387.424	17.03
387.633	17.33
387.841	16.94
388.049	16.67
388.257	16.58
388.465	16.49
388.672	16.37
388.88	16.11
389.088	16.11
389.296	16.08
389.504	15.77
389.712	15.9
389.92	15.45
390.128	15.28
390.336	15.54
390.544	15.5
390.751	15.49
390.959	15.7
391.167	15.83
391.375	15.87
391.583	15.98
391.79	16.21
391.998	15.9
392.206	15.83
392.414	16.02
392.621	15.84
392.829	16
393.037	15.6
393.244	15.52
393.452	15.3
393.66	14.93
393.867	14.41
394.075	14.01
394.283	14.08
394.49	14.03
394.698	13.88
394.905	13.73
395.113	13.52
395.32	13.77
395.528	13.57
395.735	13.74
395.943	13.87
396.15	13.75
396.358	13.77
396.565	13.75
396.773	13.95
396.98	13.7
397.188	13.7
397.395	13.48
397.602	13.47
397.81	13.55
398.017	13.69
398.225	13.7
398.432	13.91
398.639	14.23
398.847	14.12
399.054	13.69
399.261	13.91
399.468	14.1
399.676	14.4
399.883	13.96
400.09	14.03
400.297	13.58
400.505	13.51
400.712	13.95
400.919	13.99
401.126	13.88
401.333	14.01
401.54	14.12
401.748	13.76
401.955	13.88
402.162	14.04
402.369	13.89
402.576	14.1
402.783	14.13
402.99	13.83
403.197	13.42
403.404	13.17
403.611	13.14
403.818	12.71
404.025	12.93
404.232	12.57
404.439	12.64
404.646	12.6
404.853	12.5
405.06	12.45
405.267	12.38
405.474	12.37
405.681	12.68
405.887	12.65
406.094	12.78
406.301	12.83
406.508	12.98
406.715	12.96
406.922	13.08
407.128	13.16
407.335	13.1
407.542	12.98
407.749	13.01
407.955	13.09
408.162	13.11
408.369	13.17
408.575	13.1
408.782	13.04
408.989	13.28
409.195	13.05
409.402	12.99
409.609	13.22
409.815	13.22
410.022	13.25
410.228	12.95
410.435	12.95
410.642	12.85
410.848	12.7
411.055	12.24
411.261	12.02
411.468	12.18
411.674	12.27
411.881	12.11
412.087	12.26
412.294	12.27
412.5	12.44
412.706	12.38
412.913	12.23
413.119	12.23
413.326	12.63
413.532	12.54
413.738	12.67
413.945	12.37
414.151	12.41
414.357	12.15
414.564	12.16
414.77	12.15
414.976	12.03
415.182	12.08
415.389	12.32
415.595	12.41
415.801	12.58
416.007	12.56
416.214	12.6
416.42	12.3
416.626	12.18
416.832	12.13
417.038	12.08
417.244	12.05
417.45	12.18
417.657	11.99
417.863	11.8
418.069	11.77
418.275	11.74
418.481	11.72
418.687	11.78
418.893	11.92
419.099	11.84
419.305	11.97
419.511	12.01
419.717	12.07
419.923	12.19
420.129	12.33
420.335	12.2
420.541	12.08
420.746	12.35
420.952	12.36
421.158	12.38
421.364	12.47
421.57	12.39
421.776	12.28
421.982	12.13
422.187	11.94
422.393	11.78
422.599	11.91
422.805	11.86
423.01	11.67
423.216	11.65
423.422	11.45
423.628	11.49
423.833	11.43
424.039	11.56
424.245	11.7
424.45	11.93
424.656	11.87
424.862	11.78
425.067	11.82
425.273	11.98
425.478	11.95
425.684	12.16
425.889	12.02
426.095	12.09
426.301	12.17
426.506	12.26
426.712	12.2
426.917	12.53
427.123	12.56
427.328	12.58
427.533	12.25
427.739	12.39
427.944	12.38
428.15	12.37
428.355	12.47
428.561	12.34
428.766	12.03
428.971	11.85
429.177	11.7
429.382	11.53
429.587	11.65
429.793	11.5
429.998	11.5
430.203	11.55
430.408	11.43
430.614	11.05
430.819	11.11
431.024	11.01
431.229	11.31
431.434	11.21
431.64	11.34
431.845	11.23
432.05	11.54
432.255	11.5
432.46	11.36
432.665	11.68
432.87	11.94
433.076	12.16
433.281	12.12
433.486	11.87
433.691	11.66
433.896	11.55
434.101	11.48
434.306	11.53
434.511	11.5
434.716	11.36
434.921	11.16
435.126	11.04
435.331	10.63
435.535	10.84
435.74	10.91
435.945	11.12
436.15	11.25
436.355	11.39
436.56	11.25
436.765	11.16
436.97	11.28
437.174	11.42
437.379	11.45
437.584	11.49
437.789	11.45
437.993	11.44
438.198	11.5
438.403	11.63
438.608	11.64
438.812	11.68
439.017	11.86
439.222	12.02
439.426	11.96
439.631	11.97
439.836	12.1
440.04	12.08
440.245	12.04
440.45	11.94
440.654	11.9
440.859	11.75
441.063	11.54
441.268	11.52
441.472	11.43
441.677	11.31
441.881	11.24
442.086	11.11
442.29	11.22
442.495	11.28
442.699	11.22
442.904	11.08
443.108	11.12
443.312	11.28
443.517	11.22
443.721	11.36
443.925	11.47
444.13	11.52
444.334	11.81
444.538	11.75
444.743	11.72
444.947	11.68
445.151	11.59
445.356	11.72
445.56	11.62
445.764	11.52
445.968	11.38
446.173	11.32
446.377	11.19
446.581	11.01
446.785	11
446.989	10.92
447.193	11.02
447.398	11.1
447.602	11.04
447.806	11.11
448.01	11.12
448.214	11.12
448.418	11.19
448.622	11.48
448.826	11.58
449.03	11.56
449.234	11.69
449.438	11.72
449.642	11.67
449.846	11.55
450.05	11.53
450.254	11.73
450.458	11.9
450.662	11.87
450.866	11.46
451.069	11.26
451.273	11.38
451.477	11.31
451.681	11.2
451.885	11.16
452.089	11.1
452.292	11.18
452.496	11.12
452.7	10.88
452.904	10.83
453.107	10.94
453.311	10.98
453.515	10.79
453.719	10.86
453.922	10.85
454.126	10.86
454.33	10.95
454.533	10.74
454.737	10.88
454.94	10.61
455.144	10.5
455.348	10.54
455.551	10.46
455.755	10.29
455.958	10.28
456.162	10.3
456.365	10.27
456.569	10.22
456.772	10.5
456.976	10.1
457.179	10.18
457.383	10.34
457.586	10.18
457.79	10.4
457.993	10.43
458.196	10.31
458.4	10.34
458.603	10.42
458.807	10.55
459.01	10.37
459.213	10.64
459.417	10.77
459.62	10.74
459.823	10.78
460.026	10.72
460.23	10.77
460.433	10.77
460.636	10.7
460.839	10.73
461.042	10.67
461.246	10.68
461.449	10.64
461.652	10.65
461.855	10.65
462.058	10.65
462.261	10.5
462.464	10.72
462.668	10.82
462.871	10.93
463.074	10.83
463.277	10.9
463.48	10.9
463.683	10.81
463.886	11.02
464.089	11.11
464.292	11.19
464.495	11.2
464.698	11.08
464.901	11.07
465.104	11.08
465.306	11.19
465.509	11.19
465.712	11.14
465.915	11.17
466.118	11.26
466.321	11.11
466.524	11.21
466.726	11.41
466.929	11.34
467.132	11.18
467.335	11.32
467.538	11.2
467.74	11.25
467.943	11.37
468.146	11.23
468.348	11.06
468.551	11.41
468.754	11.53
468.956	11.43
469.159	11.4
469.362	11.36
469.564	11.17
469.767	11.26
469.969	11.17
470.172	11.34
470.375	11.51
470.577	11.14
470.78	10.9
470.982	10.72
471.185	10.71
471.387	10.8
471.59	10.94
471.792	10.98
471.995	11.11
472.197	11.14
472.399	11.09
472.602	10.94
472.804	11.33
473.007	11.36
473.209	11.3
473.411	11.22
473.614	11.23
473.816	11.16
474.018	11.13
474.22	10.91
474.423	10.94
474.625	10.71
474.827	10.87
475.03	10.65
475.232	10.59
475.434	10.71
475.636	10.96
475.838	10.89
476.04	10.97
476.243	10.94
476.445	11
476.647	10.87
476.849	10.99
477.051	10.8
477.253	11
477.455	11.01
477.657	11.08
477.859	11
478.061	11.02
478.263	11.14
478.465	11.1
478.667	11.27
478.869	11.37
479.071	11.33
479.273	11.36
479.475	11.3
479.677	11.34
479.879	11.27
480.081	11.32
480.283	11.23
480.485	11.23
480.686	11.39
480.888	11.12
481.09	11.09
481.292	11.23
481.494	11.25
481.695	11.13
481.897	11.22
482.099	11.15
482.301	11.09
482.502	11.14
482.704	11.03
482.906	10.96
483.107	11.08
483.309	11.09
483.511	11.07
483.712	11.03
483.914	11.01
484.115	11
484.317	10.98
484.519	11.01
484.72	10.95
484.922	10.95
485.123	10.95
485.325	10.9
485.526	10.9
485.728	10.87
485.929	10.94
486.131	11.03
486.332	10.95
486.534	10.99
486.735	10.95
486.936	11.04
487.138	11.04
487.339	11.09
487.541	11.05
487.742	11.03
487.943	10.99
488.144	10.93
488.346	10.94
488.547	10.97
488.748	10.93
488.95	10.87
489.151	10.85
489.352	10.86
489.553	10.8
489.755	10.82
489.956	10.79
490.157	10.81
490.358	10.88
490.559	10.84
490.76	10.89
490.961	10.89
491.163	10.99
491.364	10.95
491.565	10.94
491.766	10.97
491.967	10.95
492.168	11.03
492.369	11.03
492.57	10.96
492.771	10.97
492.972	10.88
493.173	10.92
493.374	10.86
493.575	10.84
493.776	10.79
493.976	10.78
494.177	10.86
494.378	10.8
494.579	10.71
494.78	10.88
494.981	10.9
495.182	10.92
495.382	10.87
495.583	11.11
495.784	11.2
495.985	11.31
496.185	11.31
496.386	11.13
496.587	11.18
496.788	11.17
496.988	11.08
497.189	11.1
497.39	11.1
497.59	11.12
497.791	11.02
497.992	11.17
498.192	11.09
498.393	11.15
498.593	11.26
498.794	11.18
498.994	11.32
499.195	11.3
499.395	11.34
499.596	11.49
499.796	11.65
499.997	11.63
500.197	11.38
500.398	11.45
500.598	11.52
500.799	11.5
500.999	11.52
501.199	11.76
501.4	11.97
501.6	12
501.801	11.89
502.001	11.72
502.201	11.7
502.402	11.95
502.602	12.04
502.802	12.02
503.002	12.34
503.203	12.45
503.403	12.35
503.603	12.29
503.803	12.26
504.003	12.21
504.204	12.3
504.404	12.5
504.604	12.44
504.804	12.51
505.004	12.47
505.204	12.44
505.404	12.33
505.604	12.3
505.804	12.31
506.005	12.27
506.205	12.44
506.405	12.61
506.605	12.64
506.805	12.59
507.005	12.52
507.204	12.54
507.404	12.57
507.604	12.66
507.804	12.75
508.004	13
508.204	13.18
508.404	13.34
508.604	13.13
508.804	13.17
509.003	13.31
509.203	13.53
509.403	13.7
509.603	13.78
509.803	13.94
510.002	13.98
510.202	13.89
510.402	13.91
510.602	13.92
510.801	14.2
511.001	14.3
511.201	14.31
511.4	14.38
511.6	14.56
511.8	14.49
511.999	14.32
512.199	14.25
512.398	14.34
512.598	14.37
512.797	14.43
512.997	14.42
513.197	14.45
513.396	14.56
513.596	14.49
513.795	14.32
513.994	14.56
514.194	14.77
514.393	14.99
514.593	15.13
514.792	15.21
514.992	15.4
515.191	15.46
515.39	15.37
515.59	15.51
515.789	15.75
515.988	15.91
516.188	15.92
516.387	16.14
516.586	16.29
516.786	16.14
516.985	16.36
517.184	16.22
517.383	16.21
517.582	16.44
517.782	16.53
517.981	16.53
518.18	16.64
518.379	16.6
518.578	16.59
518.777	16.7
518.976	16.89
519.176	16.81
519.375	16.97
519.574	17.14
519.773	17.15
519.972	17.16
520.171	17.14
520.37	17.13
520.569	17.22
520.768	17.28
520.967	17.18
521.166	17.22
521.365	17.38
521.564	17.34
521.762	17.33
521.961	17.28
522.16	17.38
522.359	17.52
522.558	17.76
522.757	18.14
522.956	18.24
523.154	18.44
523.353	18.54
523.552	18.62
523.751	18.88
523.949	19
524.148	19.27
524.347	19.37
524.546	19.55
524.744	19.55
524.943	19.54
525.142	19.6
525.34	19.66
525.539	19.82
525.737	19.94
525.936	19.95
526.135	20.01
526.333	19.99
526.532	20.1
526.73	20.13
526.929	20.25
527.127	20.24
527.326	20.36
527.524	20.4
527.723	20.45
527.921	20.48
528.12	20.59
528.318	20.66
528.516	20.76
528.715	20.82
528.913	20.85
529.112	20.85
529.31	20.85
529.508	20.84
529.707	20.88
529.905	20.88
530.103	20.87
530.301	20.8
530.5	20.9
530.698	20.92
530.896	20.91
531.094	21
531.293	21.13
531.491	21.26
531.689	21.4
531.887	21.56
532.085	21.63
532.283	21.67
532.481	21.92
532.68	21.93
532.878	22
533.076	22.11
533.274	22.09
533.472	22.04
533.67	22.06
533.868	22.03
534.066	22.03
534.264	22.06
534.462	22.24
534.66	22.18
534.858	22.12
535.056	22.09
535.253	22.09
535.451	22.18
535.649	22.36
535.847	22.46
536.045	22.65
536.243	22.7
536.441	22.81
536.638	22.73
536.836	22.76
537.034	22.95
537.232	22.99
537.43	22.98
537.627	23.05
537.825	23.07
538.023	23.15
538.22	23.17
538.418	23.15
538.616	23.25
538.813	23.41
539.011	23.41
539.209	23.38
539.406	23.5
539.604	23.68
539.801	23.68
539.999	23.69
540.196	23.79
540.394	23.8
540.591	23.9
540.789	23.92
540.986	23.98
541.184	24.09
541.381	24.18
541.579	24.23
541.776	24.29
541.974	24.38
542.171	24.45
542.368	24.54
542.566	24.57
542.763	24.59
542.96	24.64
543.158	24.61
543.355	24.7
543.552	24.74
543.75	24.81
543.947	24.71
544.144	24.79
544.341	24.77
544.539	24.68
544.736	24.8
544.933	24.9
545.13	25.01
545.327	25.13
545.524	25.23
545.722	25.27
545.919	25.28
546.116	25.51
546.313	25.5
546.51	25.61
546.707	25.68
546.904	25.8
547.101	25.91
547.298	25.86
547.495	25.96
547.692	25.91
547.889	26.03
548.086	26.11
548.283	26.2
548.48	26.25
548.677	26.16
548.874	26.21
549.07	26.18
549.267	26.32
549.464	26.31
549.661	26.23
549.858	26.35
550.055	26.26
550.251	26.25
550.448	26.28
550.645	26.45
550.842	26.54
551.038	26.53
551.235	26.7
551.432	26.48
551.628	26.61
551.825	26.81
552.022	26.97
552.218	27.05
552.415	27.3
552.612	27.09
552.808	27.02
553.005	27.13
553.201	27.2
553.398	27.21
553.594	27.27
553.791	27.34
553.987	27.34
554.184	27.44
554.38	27.47
554.577	27.35
554.773	27.52
554.97	27.63
555.166	27.55
555.362	27.68
555.559	27.81
555.755	27.93
555.952	28.09
556.148	28.26
556.344	28
556.541	28.27
556.737	28.29
556.933	28.16
557.129	28.1
557.326	28.36
557.522	28.37
557.718	28.33
557.914	28.47
558.11	28.38
558.307	28.37
558.503	28.4
558.699	28.46
558.895	28.66
559.091	28.61
559.287	28.84
559.483	28.65
559.679	28.79
559.876	28.57
560.072	28.55
560.268	28.62
560.464	28.59
560.66	28.83
560.856	28.44
561.052	28.46
561.247	28.8
561.443	28.81
561.639	29.21
561.835	29.15
562.031	29.27
562.227	29.35
562.423	29.54
562.619	29.7
562.815	29.74
563.01	30.08
563.206	29.98
563.402	29.93
563.598	30
563.793	29.87
563.989	29.85
564.185	30.15
564.381	30.04
564.576	30.06
564.772	30.1
564.968	30.04
565.163	30.22
565.359	30.41
565.555	30.49
565.75	30.52
565.946	30.53
566.141	30.59
566.337	30.56
566.532	30.7
566.728	30.56
566.923	30.51
567.119	30.51
567.314	30.52
567.51	30.55
567.705	30.73
567.901	30.54
568.096	30.76
568.292	30.91
568.487	30.96
568.682	31.1
568.878	31.22
569.073	31.36
569.268	31.22
569.464	31.2
569.659	31.25
569.854	31.02
570.05	31.22
570.245	31.15
570.44	31.09
570.635	31
570.831	30.87
571.026	31.11
571.221	31.13
571.416	31.19
571.611	31.2
571.806	31.14
572.002	31.27
572.197	31.2
572.392	31.19
572.587	31.25
572.782	31.35
572.977	31.42
573.172	31.21
573.367	31.17
573.562	31.26
573.757	31.16
573.952	31.27
574.147	31.18
574.342	31.18
574.537	31.08
574.732	31.08
574.927	30.96
575.121	30.98
575.316	31.14
575.511	31.18
575.706	31.21
575.901	31.45
576.096	31.27
576.29	31.57
576.485	31.66
576.68	31.57
576.875	31.4
577.069	31.51
577.264	31.36
577.459	31.04
577.654	31.24
577.848	31.22
578.043	31.2
578.238	31.41
578.432	31.25
578.627	31.18
578.821	31.5
579.016	31.86
579.21	31.63
579.405	31.89
579.6	32.25
579.794	31.89
579.989	31.9
580.183	31.5
580.378	31.65
580.572	31.83
580.766	31.99
580.961	31.86
581.155	31.7
581.35	31.74
581.544	31.38
581.738	31.24
581.933	31.32
582.127	31.57
582.321	31.94
582.516	31.86
582.71	31.75
582.904	31.81
583.099	32.06
583.293	32.25
583.487	32.7
583.681	32.93
583.875	32.95
584.07	33.08
584.264	33.04
584.458	33.23
584.652	33.23
584.846	33.31
585.04	33.33
585.234	33.03
585.428	33.05
585.623	32.82
585.817	33.02
586.011	33.31
586.205	33.36
586.399	33.59
586.593	33.34
586.787	33.23
586.981	33.36
587.174	33.52
587.368	34
587.562	34.01
587.756	34.17
587.95	34.35
588.144	34.29
588.338	34.24
588.532	34.22
588.725	34.62
588.919	34.88
589.113	34.72
589.307	34.6
589.501	34.65
589.694	34.75
589.888	34.83
590.082	34.44
590.275	34.58
590.469	34.66
590.663	34.52
590.856	34.23
591.05	34.3
591.244	34.32
591.437	34.47
591.631	34.35
591.824	34.3
592.018	34.15
592.212	34.33
592.405	34.16
592.599	34.13
592.792	34.43
592.986	34.65
593.179	34.31
593.372	34.57
593.566	34.47
593.759	34.56
593.953	34.62
594.146	34.89
594.339	35.14
594.533	34.92
594.726	34.89
594.92	34.61
595.113	34.64
595.306	34.8
595.499	34.81
595.693	34.91
595.886	34.73
596.079	34.73
596.272	34.68
596.466	34.62
596.659	34.93
596.852	35.01
597.045	34.99
597.238	35.11
597.431	34.88
597.624	34.91
597.818	35.03
598.011	35.2
598.204	35.25
598.397	35.25
598.59	35.38
598.783	35.51
598.976	35.72
599.169	35.93
599.362	35.72
599.555	36.01
599.748	36.08
599.941	35.97
600.134	35.85
600.326	35.99
600.519	35.88
600.712	35.61
600.905	35.26
601.098	34.95
601.291	34.71
601.483	34.64
601.676	34.96
601.869	34.89
602.062	35.04
602.255	35.07
602.447	34.88
602.64	35.01
602.833	35.22
603.025	35.76
603.218	36.19
603.411	36.21
603.603	36.4
603.796	36.35
603.989	36.29
604.181	36.14
604.374	36.29
604.566	36.33
604.759	36.32
604.951	36.31
605.144	36.08
605.336	35.74
605.529	36
605.721	35.99
605.914	36
606.106	36.22
606.299	36.41
606.491	36.34
606.683	36.39
606.876	36.63
607.068	36.67
607.26	36.81
607.453	37.14
607.645	37.11
607.837	36.96
608.03	37.11
608.222	36.98
608.414	37.02
608.606	37.14
608.799	37.52
608.991	37.56
609.183	37.64
609.375	37.88
609.567	37.88
609.759	37.94
609.952	38.28
610.144	38.33
610.336	38.47
610.528	38.65
610.72	38.68
610.912	38.63
611.104	38.7
611.296	38.85
611.488	38.41
611.68	38.51
611.872	38.51
612.064	38.38
612.256	38.35
612.448	38.41
612.64	38.56
612.832	38.64
613.023	38.46
613.215	38.2
613.407	38.05
613.599	38.24
613.791	38.22
613.983	38.36
614.174	38.26
614.366	38.01
614.558	38.1
614.75	37.87
614.941	37.92
615.133	37.66
615.325	38.05
615.516	37.94
615.708	37.86
615.9	37.75
616.091	37.39
616.283	37.48
616.475	37.55
616.666	37.07
616.858	36.7
617.049	36.8
617.241	36.97
617.432	36.52
617.624	36.57
617.815	36.6
618.007	36.48
618.198	36.71
618.39	36.79
618.581	36.75
618.773	36.85
618.964	36.93
619.155	36.69
619.347	37.06
619.538	37.43
619.729	37.42
619.921	37.65
620.112	37.7
620.303	37.63
620.494	37.59
620.686	37.54
620.877	37.51
621.068	37.73
621.259	37.76
621.451	37.46
621.642	37.14
621.833	37.14
622.024	37.06
622.215	36.96
622.406	37
622.597	37.03
622.788	37.24
622.98	37.13
623.171	36.78
623.362	36.77
623.553	36.81
623.744	36.68
623.935	36.91
624.126	36.98
624.317	37.21
624.508	37.35
624.698	37.22
624.889	37.18
625.08	37.52
625.271	37.72
625.462	37.65
625.653	37.67
625.844	37.96
626.034	37.82
626.225	37.83
626.416	37.81
626.607	37.64
626.798	37.7
626.988	37.57
627.179	37.37
627.37	37.53
627.56	37.53
627.751	37.34
627.942	37.32
628.132	37.49
628.323	37.35
628.514	37.5
628.704	37.45
628.895	37.33
629.085	37.47
629.276	37.34
629.466	37.09
629.657	36.98
629.847	37.38
630.038	37.3
630.228	36.81
630.419	36.9
630.609	36.51
630.8	36.57
630.99	36.93
631.181	37.17
631.371	37.85
631.561	37.66
631.752	37.71
631.942	37.29
632.132	37.75
632.323	38.28
632.513	38.14
632.703	38.26
632.893	38.15
633.084	38.02
633.274	37.83
633.464	37.5
633.654	37.6
633.844	37.56
634.034	37.58
634.225	37.11
634.415	37.06
634.605	37.44
634.795	37.56
634.985	37.66
635.175	37.67
635.365	37.66
635.555	37.58
635.745	37.67
635.935	37.77
636.125	37.95
636.315	38.08
636.505	38.11
636.695	37.93
636.885	38.09
637.075	37.91
637.265	37.9
637.455	37.58
637.644	37.33
637.834	37.51
638.024	37.58
638.214	37.09
638.404	37.45
638.593	37.2
638.783	36.99
638.973	36.79
639.163	37.11
639.352	37.37
639.542	37.82
639.732	37.83
639.921	38.02
640.111	38.25
640.301	39
640.49	38.68
640.68	39.01
640.87	39.29
641.059	39.36
641.249	39.33
641.438	39.15
641.628	39.15
641.817	39.67
642.007	39.33
642.196	39.27
642.386	38.85
642.575	38.69
642.764	38.53
642.954	38.44
643.143	38.43
643.333	38.22
643.522	37.88
643.711	37.61
643.901	37.27
644.09	37.81
644.279	37.45
644.469	37.47
644.658	37.57
644.847	37.46
645.036	37.35
645.226	37.03
645.415	37.27
645.604	37.56
645.793	37.65
645.982	38.1
646.171	37.41
646.361	37.75
646.55	37.78
646.739	37.52
646.928	37.74
647.117	37.92
647.306	38.22
647.495	38.26
647.684	37.93
647.873	38.17
648.062	37.79
648.251	37.88
648.44	37.64
648.629	37.82
648.818	38.21
649.007	37.97
649.196	37.62
649.384	37.59
649.573	37.65
649.762	37.94
649.951	37.59
650.14	37.48
650.328	37.68
650.517	37.9
650.706	37.68
650.895	37.56
651.083	37.69
651.272	38
651.461	38.07
651.65	37.82
651.838	37.49
652.027	37.65
652.216	37.63
652.404	37.8
652.593	37.91
652.781	37.9
652.97	38.04
653.158	37.77
653.347	37.85
653.535	37.83
653.724	37.83
653.912	38.02
654.101	38.18
654.289	38.54
654.478	38.24
654.666	37.9
654.855	38.07
655.043	37.69
655.231	38.03
655.42	37.99
655.608	37.88
655.796	37.91
655.985	38.12
656.173	38.12
656.361	37.96
656.55	38.25
656.738	38.31
656.926	38.56
657.114	39.15
657.302	38.89
657.491	38.74
657.679	38.51
657.867	38.56
658.055	38.74
658.243	38.45
658.431	38.24
658.619	38.11
658.807	37.83
658.996	37.35
659.184	37.15
659.372	37.25
659.56	37.69
659.748	37.96
659.936	38.15
660.124	37.76
660.311	37.86
660.499	37.91
660.687	38.21
660.875	38.66
661.063	38.82
661.251	38.85
661.439	38.92
661.627	38.51
661.814	38.41
662.002	38.06
662.19	38.66
662.378	39.03
662.565	39.07
662.753	38.75
662.941	38.89
663.129	39.44
663.316	39.31
663.504	39.41
663.692	39.45
663.879	40.01
664.067	40.15
664.254	40.18
664.442	39.89
664.63	40.16
664.817	40.37
665.005	40.09
665.192	39.61
665.38	39.84
665.567	39.31
665.755	39.48
665.942	39.56
666.13	39.52
666.317	39.35
666.504	39.26
666.692	39.09
666.879	38.89
667.067	39.15
667.254	39.26
667.441	38.9
667.629	39.36
667.816	39.21
668.003	38.82
668.19	38.99
668.378	39.01
668.565	39.11
668.752	39.53
668.939	39.71
669.127	39.37
669.314	39.41
669.501	39.49
669.688	38.96
669.875	39.15
670.062	38.8
670.249	38.6
670.436	38.53
670.623	38.39
670.81	38.1
670.997	38.19
671.184	38.54
671.371	38.61
671.558	38.47
671.745	39.05
671.932	38.71
672.119	38.96
672.306	39.11
672.493	38.84
672.68	38.76
672.867	38.9
673.054	38.49
673.24	37.78
673.427	37.81
673.614	37.78
673.801	37.94
673.988	37.63
674.174	37.38
674.361	37.98
674.548	37.81
674.734	38.28
674.921	38.48
675.108	38.53
675.294	39.48
675.481	39.6
675.668	40.17
675.854	39.8
676.041	40.44
676.227	40.35
676.414	39.71
676.601	39.71
676.787	39.39
676.974	39.07
677.16	39.29
677.347	38.71
677.533	38.29
677.719	38.46
677.906	38.98
678.092	38.65
678.279	38.78
678.465	39.13
678.651	39.38
678.838	39.29
679.024	39.44
679.21	39.38
679.397	39.37
679.583	39.42
679.769	39.01
679.955	38.59
680.142	38.86
680.328	38.79
680.514	38.45
680.7	38.31
680.886	38.56
681.073	38.57
681.259	38.62
681.445	38.55
681.631	38.55
681.817	38.45
682.003	38.68
682.189	39.18
682.375	39.68
682.561	39.84
682.747	39.95
682.933	39.6
683.119	39.34
683.305	39.24
683.491	39.47
683.677	39.71
683.863	39.95
684.049	39.76
684.235	39.1
684.42	38.95
684.606	39
684.792	39.15
684.978	39.35
685.164	39.18
685.349	39.63
685.535	39.59
685.721	39.72
685.907	39.9
686.092	39.46
686.278	39.32
686.464	39.05
686.649	38.66
686.835	38.43
687.021	38.52
687.206	38.53
687.392	38.17
687.577	38.67
687.763	38.77
687.948	38.47
688.134	38.93
688.319	38.84
688.505	38.9
688.69	39.22
688.876	39.66
689.061	39.82
689.247	40.58
689.432	40.13
689.618	40.09
689.803	39.38
689.988	38.85
690.174	38.88
690.359	39.32
690.544	39.57
690.73	39.88
690.915	39.63
691.1	38.96
691.285	38.6
691.471	38.62
691.656	38.42
691.841	38.93
692.026	39.32
692.211	39.1
692.396	38.2
692.582	38.13
692.767	37.67
692.952	37.69
693.137	38.76
693.322	38.71
693.507	39.09
693.692	38.89
693.877	38.83
694.062	38.87
694.247	39.21
694.432	40.04
694.617	40.83
694.802	41.62
694.987	41.21
695.172	41.18
695.357	41.06
695.541	41.11
695.726	40.69
695.911	40.4
696.096	40.83
696.281	40.8
696.466	40.87
696.65	40.04
696.835	39.91
697.02	40.07
697.204	39.62
697.389	39.33
697.574	39.03
697.759	39.25
697.943	39.32
698.128	39.24
698.312	39.54
698.497	39.44
698.682	39.22
698.866	38.98
699.051	38.94
699.235	39.05
699.42	39.52
699.604	39.58
699.789	39.62
699.973	39.5
700.158	39.58
700.342	39.49
700.527	39.25
700.711	39.24
700.895	39.44
701.08	39.58
701.264	39.41
701.448	39.27
701.633	39.38
701.817	39.46
702.001	39.54
702.186	39.22
702.37	38.66
702.554	39.02
702.738	39.56
702.923	39.13
703.107	39.79
703.291	39.67
703.475	39.64
703.659	40.28
703.843	40.32
704.027	40.84
704.212	41.26
704.396	41.99
704.58	41.76
704.764	41.57
704.948	42.03
705.132	40.93
705.316	40.75
705.5	40.42
705.684	39.76
705.868	39.68
706.052	39.24
706.235	39
706.419	39.01
706.603	38.99
706.787	39.39
706.971	38.88
707.155	39.54
707.339	39.57
707.522	40.25
707.706	40.23
707.89	40.81
708.074	40.89
708.257	40.81
708.441	40.32
708.625	40.12
708.808	40.25
708.992	40.25
709.176	40.65
709.359	41
709.543	40.76
709.727	40.76
709.91	40.19
710.094	40.78
710.277	40.8
710.461	40.98
710.644	41.57
710.828	40.72
711.011	40.69
711.195	40.69
711.378	40.61
711.562	40.65
711.745	40.95
711.928	41
712.112	41.51
712.295	42.07
712.478	42.51
712.662	42.18
712.845	42.51
713.028	42.87
713.212	41.43
713.395	41.8
713.578	41.72
713.761	41.14
713.945	41.1
714.128	39.71
714.311	39.34
714.494	39.36
714.677	39.89
714.86	39.45
715.043	39
715.227	39.76
715.41	39.14
715.593	38.39
715.776	38.42
715.959	38.25
716.142	38.79
716.325	38.59
716.508	38.06
716.691	37.78
716.874	38.47
717.057	38.11
717.239	38.29
717.422	38.54
717.605	38.92
717.788	39.05
717.971	39.08
718.154	38.86
718.337	39.52
718.519	38.83
718.702	38.45
718.885	38.2
719.068	38.57
719.25	38.6
719.433	39.59
719.616	40.1
719.798	39.81
719.981	40.27
720.164	40.33
720.346	39.78
720.529	40.38
720.712	40.65
720.894	41.14
721.077	41.26
721.259	40.99
721.442	40.89
721.624	40.55
721.807	41.17
721.989	39.87
722.172	40.19
722.354	39.75
722.537	40.58
722.719	40.2
722.901	40.36
723.084	40.46
723.266	40.76
723.448	40.43
723.631	39.94
723.813	39.44
723.995	41.3
724.178	41.17
724.36	41.78
724.542	41.02
724.724	41.12
724.907	40.55
725.089	40.82
725.271	40.39
725.453	39.95
725.635	40.9
725.817	41.41
725.999	40.29
726.181	40.75
726.364	40.09
726.546	40.32
726.728	39.82
726.91	39.56
727.092	39.98
727.274	40.21
727.456	40.46
727.638	39.79
727.819	40.09
728.001	40.62
728.183	40.33
728.365	40.06
728.547	40.41
728.729	41.01
728.911	41.07
729.093	40.05
729.274	39.75
729.456	39.34
729.638	39.91
729.82	39.75
730.001	38.84
730.183	38.56
730.365	39.37
730.546	38.87
730.728	38.8
730.91	38.67
731.091	39.74
731.273	39.8
731.455	39.52
731.636	39.73
731.818	39.07
731.999	38.7
732.181	39.83
732.362	39.48
732.544	39.8
732.725	39.93
732.907	39.85
733.088	39.48
733.27	39.73
733.451	39.44
733.633	37.35
733.814	38.48
733.995	39.62
734.177	39.01
734.358	39.43
734.539	38.55
734.721	39.24
734.902	39.66
735.083	39.36
735.264	39.51
735.446	41.05
735.627	42.86
735.808	42.73
735.989	42.49
736.17	42.19
736.351	41.37
736.533	42.37
736.714	41.64
736.895	41.28
737.076	41.6
737.257	41.43
737.438	40.08
737.619	40.09
737.8	39.67
737.981	40.08
738.162	40.45
738.343	41.21
738.524	40.13
738.705	39.48
738.886	39.63
739.067	38.18
739.247	38.04
739.428	38.41
739.609	38.78
739.79	38.16
739.971	37.66
740.151	37.15
740.332	36.75
740.513	37.51
740.694	37.31
740.874	37.56
741.055	39.02
741.236	38.87
741.417	39.21
741.597	39.29
741.778	40.63
741.958	42.37
742.139	41.83
742.32	41.23
742.5	41.53
742.681	41.93
742.861	40.74
743.042	40.66
743.222	39.97
743.403	40.25
743.583	40.25
743.764	39.46
743.944	38.64
744.124	39.35
744.305	40.61
744.485	41.28
744.666	40.9
744.846	42.49
745.026	42.05
745.207	42.62
745.387	41.75
745.567	40.63
745.747	39.03
745.928	38.22
746.108	38.17
746.288	37.29
746.468	36.26
746.648	37.31
746.829	37.03
747.009	38.06
747.189	38.28
747.369	37.97
747.549	38.86
747.729	40.06
747.909	40.36
748.089	39.62
748.269	40.77
748.449	41.15
748.629	41.19
748.809	41.13
748.989	40.96
749.169	42.08
749.349	41.25
749.529	41.42
749.709	42.53
749.889	41.98
750.068	42.89
750.248	42.1
750.428	41.48
750.608	40.16
750.788	40.54
750.967	40.78
751.147	39.28
751.327	41.01
751.507	41.45
751.686	41.3
751.866	41.13
752.046	40
752.225	40.79
752.405	40.84
752.585	42.52
752.764	41.74
752.944	41.55
753.123	40.96
753.303	40.08
753.482	38.69
753.662	38.25
753.841	39.17
754.021	39.72
754.2	39.79
754.38	40.07
754.559	39.68
754.739	39.98
754.918	39.48
755.097	40.75
755.277	39.86
755.456	40.39
755.635	39.52
755.815	39.17
755.994	39.26
756.173	38.58
756.352	38.51
756.532	38.4
756.711	38.18
756.89	37.63
757.069	38.45
757.248	39.65
757.427	40.04
757.607	39.69
757.786	39.45
757.965	40.1
758.144	39.43
758.323	39
758.502	40.36
758.681	40.9
758.86	42.19
759.039	41.16
759.218	41.81
759.397	42.07
759.576	42.32
759.755	41.4
759.934	40.66
760.113	41.37
760.291	42.53
760.47	41.92
760.649	41.57
760.828	40.51
761.007	40.28
761.186	39.7
761.364	39.51
761.543	39.51
761.722	39.81
761.901	39.67
762.079	39.41
762.258	39.53
762.437	38.52
762.615	39.23
762.794	40.34
762.972	40.86
763.151	40.4
763.33	40.09
763.508	40.77
763.687	41.48
763.865	41.57
764.044	41.7
764.222	40.92
764.401	40.89
764.579	40.08
764.758	40.18
764.936	39.48
765.114	40.02
765.293	39.47
765.471	39.59
765.65	39.28
765.828	39.38
766.006	39.76
766.184	39.69
766.363	40.79
766.541	41.35
766.719	40.95
766.898	41.15
767.076	41.12
767.254	41.57
767.432	40.75
767.61	40.13
767.788	39.26
767.967	38.39
768.145	38.43
768.323	37.77
768.501	37.35
768.679	36.85
768.857	36.15
769.035	36.22
769.213	36.9
769.391	36.83
769.569	37.72
769.747	38.16
769.925	39.62
770.103	38.97
770.281	39.03
770.459	38.94
770.636	38.41
770.814	40.7
770.992	40.39
771.17	41.34
771.348	42.74
771.525	44.16
771.703	45.41
771.881	42.89
772.059	44.17
772.236	45.33
772.414	46.94
772.592	47.21
772.769	46.35
772.947	46.66
773.125	45.45
773.302	42.41
773.48	39.29
773.657	38.26
773.835	40.24
774.013	41.33
774.19	39.85
774.368	37.75
774.545	39.51
774.723	39.18
774.9	37.28
775.077	34.1
775.255	36.04
775.432	36.32
775.61	37.98
775.787	38.11
775.964	37.46
776.142	37.63
776.319	35.73
776.496	34.66
776.674	36.52
776.851	38.56
777.028	41.33
777.205	42.44
777.382	45.37
777.56	42.39
777.737	42.1
777.914	42.19
778.091	41.29
778.268	43.18
778.445	43.48
778.622	42.14
778.8	41.37
778.977	42.77
779.154	60.44
779.331	58.78
779.508	61.84
779.685	60.05
779.862	59.75
780.038	60.27
780.215	59.94
780.392	60.47
780.569	59.17
780.746	60.79
780.923	58.72
781.1	36.22
781.277	38.9
781.453	37.42
781.63	37.3
781.807	36.4
781.984	37.8
782.16	38.39
782.337	37.89
782.514	36.43
782.691	38.34
782.867	38.7
783.044	42.82
783.221	41.01
783.397	38.93
783.574	40.01
783.75	41.84
783.927	40.28
784.103	40.08
784.28	39.86
784.456	43.53
784.633	41.22
784.809	42.49
784.986	40.23
785.162	40.42
785.339	42.28
785.515	42.55
785.692	42.26
785.868	42.37
786.044	43.99
786.221	41.09
786.397	40.74
786.573	39.27
786.749	40.32
786.926	41.33
787.102	40.24
787.278	41.08
787.454	40.67
787.631	39.3
787.807	38.85
787.983	37.71
788.159	38.48
788.335	38.19
788.511	41.82
788.687	40.92
788.863	40.35
789.039	41.27
789.216	42.46
789.392	42.42
789.568	40.46
789.744	41.02
789.919	40.93
790.095	42.37
790.271	42.4
790.447	39.76
790.623	39.31
790.799	41.7
790.975	42.73
791.151	38.73
791.327	39.48
791.502	43.76
791.678	44.45
791.854	43.23
792.03	42.94
792.205	41.87
792.381	44.07
792.557	44.1
792.733	42.6
792.908	43.38
793.084	44.54
793.259	45.44
793.435	43.22
793.611	42.37
793.786	44.11
793.962	43.3
794.137	43.27
794.313	41.63
794.488	39.33
794.664	39.11
794.839	35.39
795.015	37.84
795.19	36.48
795.366	35.93
795.541	34.39
795.716	34.62
795.892	35.24
796.067	35.42
796.242	34.78
796.418	36.73
796.593	34.66
796.768	36.52
796.944	35.95
797.119	37.27
797.294	36.69
797.469	38.71
797.644	39.24
797.82	39.14
797.995	39.13
798.17	38.22
798.345	38.44
798.52	39.73
798.695	39.39
798.87	38.98
799.045	37.93
799.22	39.14
799.395	37.61
799.57	34.33
799.745	33.49
799.92	34.07
800.095	32.87
800.27	32.53
800.445	32.4
800.62	31.88
800.795	32.42
800.97	32.58
801.145	30.56
801.319	30.34
801.494	33.19
801.669	32.47
801.844	32.79
802.018	33.43
802.193	34.5
802.368	36.9
802.543	36.86
802.717	36.61
802.892	34.12
803.067	33.89
803.241	34.66
803.416	32.56
803.59	34.01
803.765	31.47
803.94	32.55
804.114	30.48
804.289	25.8
804.463	25.82
804.638	26.38
804.812	29.86
804.986	31.06
805.161	33.12
805.335	35.05
805.51	34.21
805.684	35.16
805.858	36.12
806.033	37
806.207	38.14
806.381	36.36
806.556	35.9
806.73	37.24
806.904	35.06
807.078	35.13
807.253	33.35
807.427	33
807.601	33.69
807.775	33.76
807.949	35.56
808.123	35.12
808.298	34.54
808.472	33.88
808.646	35.49
808.82	36.85
808.994	35.68
809.168	36.18
809.342	39.43
809.516	38.91
809.69	38.32
809.864	39.6
810.038	42.06
810.212	45.46
810.385	42.25
810.559	35.69
810.733	36.65
810.907	36.29
811.081	39.06
811.255	35.23
811.428	35.81
811.602	35.94
811.776	32.92
811.95	30.95
812.123	32.78
812.297	33.65
812.471	37.09
812.644	39.13
812.818	37.96
812.992	37.85
813.165	40.97
813.339	43.76
813.512	43.85
813.686	45.47
813.86	46.7
814.033	42.6
814.207	45.82
814.38	42.56
814.554	42.03
814.727	40.95
814.9	39.84
815.074	40.83
815.247	40.67
815.421	42.16
815.594	42.05
815.767	40.81
815.941	37.25
816.114	36.15
816.287	36.63
816.46	36.58
816.634	39.02
816.807	38.91
816.98	37.95
817.153	34.13
817.327	29.81
817.5	28.75
817.673	29.39
817.846	35.02
818.019	35.93
818.192	36.41
818.365	37.23
818.538	35.9
818.711	34.73
818.884	32.74
819.057	31.87
819.23	34.71
819.403	36.09
819.576	39.91
819.749	38.84
819.922	41.06
820.095	39.83
820.268	39.05
820.441	39.9
820.614	41.34
820.786	42.91
820.959	44.7
821.132	44.22
821.305	42.52
821.477	40.15
821.65	39.78
821.823	39.14
821.996	40
822.168	41.31
822.341	41.33
822.514	41.64
822.686	41.62
822.859	41.31
823.031	41.57
823.204	41.85
823.376	42.37
823.549	42.64
823.722	42.67
823.894	42.54
824.067	41.58
824.239	41.38
824.411	40.88
824.584	40.55
824.756	40.55
824.929	40.46
825.101	40.25
825.273	39.51
825.446	39.19
825.618	38.39
825.79	37.83
825.963	37.74
826.135	38.52
826.307	38.96
826.479	38.83
826.652	38.69
826.824	39.16
826.996	39.07
827.168	38.74
827.34	38.26
827.512	38.72
827.684	39.81
827.856	40.49
828.029	40.38
828.201	39.81
828.373	39.21
828.545	39.68
828.717	38.89
828.889	39.48
829.061	41.24
829.232	41.48
829.404	41.84
829.576	41.45
829.748	40.84
829.92	39.3
830.092	39.39
830.264	39.23
830.436	38.57
830.607	37.58
830.779	36.94
830.951	35.82
831.123	35.66
831.294	35.24
831.466	34.17
831.638	32.92
831.809	34.13
831.981	33.68
832.153	35.54
832.324	34.06
832.496	36.18
832.667	34.93
832.839	35.89
833.011	39.86
833.182	40.6
833.354	41.51
833.525	40.93
833.697	40.42
833.868	39.38
834.039	38.76
834.211	40.8
834.382	38.39
834.554	39.01
834.725	37.75
834.896	36.25
835.068	35.75
835.239	34.98
835.41	36.96
835.581	37.73
835.753	38.21
835.924	39.16
836.095	37.76
836.266	40.1
836.438	41.53
836.609	42.05
836.78	41.72
836.951	40.52
837.122	42.09
837.293	42.24
837.464	41.17
837.635	43.33
837.806	42.89
837.977	42.33
838.148	44.59
838.319	44.21
838.49	44.32
838.661	42.71
838.832	46.39
839.003	47.56
839.174	43.59
839.345	42.29
839.516	40.19
839.687	39.62
839.857	39.88
840.028	33.46
840.199	34.72
840.37	31.24
840.54	32.48
840.711	31.57
840.882	30.65
841.053	28.32
841.223	27.61
841.394	25.14
841.564	27.85
841.735	32.96
841.906	33.79
842.076	25.75
842.247	32.85
842.417	35.24
842.588	36.22
842.758	36.47
842.929	41.39
843.099	40.68
843.27	48.05
843.44	39.7
843.611	34.8
843.781	38.78
843.951	50.23
844.122	51.48
844.292	50.2
844.462	46.37
844.633	44.17
844.803	44.64
844.973	52.92
845.144	51.97
845.314	58.46
845.484	66.15
845.654	54.33
845.824	40.82
845.995	34.43
846.165	37.49
846.335	38.97
846.505	33.34
846.675	33.36
846.845	23.18
847.015	13.15
847.185	14.8
847.355	5.6
847.525	10.1
847.695	10.86
847.865	14.53
848.035	15.33
848.205	19.13
848.375	21.77
848.545	19.67
848.715	26.66
848.884	21.08
849.054	13.04
849.224	20.29
849.394	29.1
849.564	39.69
849.733	41.98
849.903	36.97
850.073	20.72
850.243	28.5
850.412	35.31
850.582	34.26
850.752	34.36
850.921	38
851.091	26.82
851.26	28.84
851.43	8.29
851.599	9.18
851.769	2.68
851.939	20.59
852.108	7.01
852.278	12.94
852.447	15.01
852.616	32.13
852.786	39.92
852.955	52.71
853.125	38.06
853.294	52.93
853.463	54.94
853.633	49.74
853.802	48.39
853.971	64.86
854.141	65.85
854.31	64.75
854.479	69.45
854.648	63.78
854.818	61.71
854.987	68.32
855.156	62.94
855.325	71.78
855.494	85.13
855.663	75.51
855.832	66.38
856.001	60.44
856.171	59.58
856.34	53.22
856.509	46.52
856.678	40.33
856.847	38.56
857.016	55.75
857.185	52.04
857.353	44.02
857.522	45.68
857.691	43.6
857.86	48.44
858.029	48.89
858.198	30.61
858.367	33.57
858.535	42.94
858.704	33.91
858.873	8.27
859.042	-31.48
859.21	-35.95
859.379	-18.92
859.548	-8.67
859.717	-23.4
859.885	-8.22
860.054	19.85
860.222	48.69
860.391	39.39
860.56	33.57
860.728	41.08
860.897	56.24
861.065	49.51
861.234	56.57
861.402	47.15
861.571	53.22
861.739	57.51
861.908	54.97
862.076	26.43
862.244	41.31
862.413	40.87
862.581	43.22
862.749	52.88
862.918	50.1
863.086	39.47
863.254	22.11
863.423	15
863.591	12.26
863.759	-8.5
863.927	7.44
864.096	-9.18
864.264	-32.53
864.432	1.69
864.6	-36.3
864.768	-8.28
864.936	3.25
865.104	25.81
865.272	32.54
865.44	17.63
865.608	35.88
865.776	29.06
865.944	18.86
866.112	40.84
866.28	37.31
866.448	41.81
866.616	45.41
866.784	57.2
866.952	39.04
867.12	28.8
867.288	46.64
867.455	24.51
867.623	16.04
867.791	46.36
867.959	35.02
868.127	24.03
868.294	32.5
868.462	36.09
868.63	19.06
868.797	44.15
868.965	43.52
869.133	32.61
869.3	44.19
869.468	54.95
869.636	51.77
869.803	58.17
869.971	54.65
870.138	54.87
870.306	49.07
870.473	61.89
870.641	48.06
870.808	48.88
870.975	57.56
871.143	52.67
871.31	40.67
871.478	23.58
871.645	8.6
871.812	22.48
871.98	26.12
872.147	35.88
872.314	18.65
872.482	24.96
872.649	26.76
872.816	30.94
872.983	24.04
873.15	34.73
873.318	47.67
873.485	45.67
873.652	44.4
873.819	47.1
873.986	49.67
874.153	55.65
874.32	60.6
874.487	48.1
874.654	60.2
874.821	63.93
874.988	63.91
875.155	76.61
875.322	87.19
875.489	70.04
875.656	69.59
875.823	58.61
875.99	65.44
876.157	61.97
876.324	71.2
876.49	55.88
876.657	64.85
876.824	59
876.991	34.87
877.157	40.05
877.324	47.42
877.491	46.8
877.658	44.87
877.824	38.37
877.991	48.53
878.157	54.38
878.324	47.36
878.491	28.59
878.657	40.3
878.824	55.64
878.99	41.41
879.157	23.36
879.323	26.66
879.49	31.68
879.656	27.03
879.823	24.18
879.989	15.12
880.156	17.12
880.322	28.22
880.488	24.64
880.655	31.28
880.821	35.04
880.987	40.02
881.154	40.86
881.32	47.27
881.486	45.77
881.652	48.85
881.819	49.37
881.985	52.1
882.151	50.28
882.317	52.58
882.483	51.84
882.649	48.99
882.816	50.72
882.982	49.48
883.148	46.21
883.314	45.15
883.48	44.4
883.646	45.34
883.812	43.63
883.978	43.05
884.144	41.9
884.31	40.67
884.476	42.05
884.642	41.82
884.807	41.27
884.973	39.47
885.139	41.07
885.305	40.56
885.471	37.56
885.637	38.22
885.802	38.02
885.968	37.03
886.134	35.98
886.3	34.42
886.465	32.23
886.631	34.19
886.797	36.2
886.962	34.08
887.128	33.58
887.293	35.32
887.459	35.84
887.625	33.37
887.79	33.87
887.956	38.35
888.121	37.49
888.287	36.53
888.452	33.65
888.618	31.38
888.783	32.13
