Data from CB_006_Reflection_2.txt Node
Date: Wed Nov 11 18:28:05 EST 2015
User: robert
Spectrometer: USB4E03001
Autoset integration time: false
Trigger mode: 4
Integration Time (sec): 1.000000E-1
Scans to average: 15
Electric dark correction enabled: true
Nonlinearity correction enabled: false
Boxcar width: 5
Stray light correction enabled: false
XAxis mode: Wavelengths
Stop averaging: false
Number of Pixels in Spectrum: 3648
>>>>>Begin Spectral Data<<<<<
177.566	22.56
177.785	-50.62
178.005	-100.88
178.225	-1347.68
178.445	269.25
178.665	435.84
178.885	3.52
179.105	307.14
179.324	191.53
179.544	-28.25
179.764	-27.06
179.984	17.73
180.204	72.73
180.423	13.8
180.643	-20.84
180.863	520.71
181.083	1366.94
181.302	35.89
181.522	205.39
181.742	-57.27
181.961	209.37
182.181	97.04
182.401	131.27
182.621	673.96
182.84	203.71
183.06	217.15
183.279	281.61
183.499	820.67
183.719	836.01
183.938	489.03
184.158	970.77
184.377	-1469.02
184.597	-373.32
184.816	-273.45
185.036	-645.58
185.256	-124.54
185.475	523.08
185.695	-4127.59
185.914	99.49
186.134	50.18
186.353	101.29
186.572	97.59
186.792	56.72
187.011	49.88
187.231	39.58
187.45	67.87
187.67	78.78
187.889	552.22
188.108	139.41
188.328	406.22
188.547	-137.7
188.766	-175.59
188.986	263.35
189.205	-11950
189.424	351.64
189.644	1925.62
189.863	201.46
190.082	139.65
190.302	125.68
190.521	76.84
190.74	63.25
190.959	74.36
191.178	93.18
191.398	87.31
191.617	72.92
191.836	72.18
192.055	82.08
192.274	54.16
192.494	78.38
192.713	73.87
192.932	103.13
193.151	116.14
193.37	126.91
193.589	125.07
193.808	140.5
194.027	155.35
194.246	188.14
194.465	206.54
194.685	200.41
194.904	248.49
195.123	594.48
195.342	1729.15
195.561	205.23
195.78	173.02
195.999	114.6
196.218	-105.56
196.436	214.84
196.655	1265.42
196.874	-383.23
197.093	-247
197.312	-630.98
197.531	277.95
197.75	172.68
197.969	42.68
198.188	36.24
198.407	10.62
198.625	-179.86
198.844	-322.22
199.063	-334.71
199.282	-333.99
199.501	-157.19
199.719	-248.82
199.938	-4109.37
200.157	458.7
200.376	526.2
200.594	934.11
200.813	-33771.43
201.032	2130.18
201.251	398.66
201.469	422.29
201.688	390.99
201.907	390.36
202.125	281.21
202.344	199.21
202.563	238.8
202.781	270.26
203	188.53
203.218	148.15
203.437	130.44
203.656	142.32
203.874	110.36
204.093	89.85
204.311	64.15
204.53	38.6
204.748	14.2
204.967	-4.15
205.185	5.17
205.404	59.29
205.622	63.73
205.841	97.26
206.059	123.3
206.278	149.2
206.496	142
206.715	277.43
206.933	501.82
207.151	294.39
207.37	343.31
207.588	332.03
207.806	429.34
208.025	520.02
208.243	395.81
208.461	147.17
208.68	174.24
208.898	192.78
209.116	140.64
209.335	125.27
209.553	-223.95
209.771	143.87
209.989	-690.87
210.208	-300.52
210.426	-183.86
210.644	-29.22
210.862	-21.83
211.081	-2.83
211.299	2.83
211.517	-155.58
211.735	-157.3
211.953	-379.23
212.171	-79.32
212.39	-495.22
212.608	-2479.3
212.826	381.63
213.044	292.14
213.262	248.96
213.48	218.71
213.698	327.49
213.916	-1265.07
214.134	-143.67
214.352	-75.97
214.57	271.2
214.788	146.16
215.006	81.11
215.224	108.38
215.442	76.6
215.66	113.14
215.878	141.05
216.096	128.53
216.314	112.16
216.532	122.28
216.75	106.96
216.968	86.2
217.185	101.3
217.403	122.48
217.621	101.85
217.839	135.27
218.057	798.49
218.275	83.41
218.492	-18.33
218.71	27.16
218.928	15.67
219.146	-11.17
219.363	-29.99
219.581	-57.63
219.799	-31.22
220.017	-37.31
220.234	-29.93
220.452	-42.3
220.67	-61.4
220.887	-93.16
221.105	-29.76
221.323	-33.67
221.54	28.74
221.758	43.96
221.976	53.72
222.193	17.64
222.411	-27.06
222.629	-55.33
222.846	-58.76
223.064	8.96
223.281	-1.14
223.499	-27.06
223.716	-37.49
223.934	-329.33
224.151	-706.36
224.369	-460.28
224.586	221075
224.804	-546.52
225.021	-195.1
225.239	-134.48
225.456	-210.76
225.674	-222.97
225.891	-49.77
226.108	-53.44
226.326	-41.18
226.543	-40.73
226.76	-26.4
226.978	-14.03
227.195	-12.05
227.413	-7.22
227.63	-9.62
227.847	-10.71
228.064	-6.22
228.282	-3.18
228.499	2.29
228.716	4.57
228.934	3.21
229.151	2.92
229.368	7.36
229.585	1.79
229.802	1.76
230.02	3.73
230.237	3.25
230.454	7.07
230.671	5.31
230.888	1.15
231.105	-1.71
231.323	3.65
231.54	1.21
231.757	-8.81
231.974	-1.92
232.191	-2.14
232.408	-4.56
232.625	-5.48
232.842	-13.8
233.059	-11.46
233.276	-6.05
233.493	-4.6
233.71	-8.89
233.927	-4.89
234.144	-0.08
234.361	-1.19
234.578	-5.54
234.795	-2.68
235.012	-9.47
235.229	-7.49
235.446	-17.79
235.663	-30.48
235.879	-20.69
236.096	-19.51
236.313	-30.97
236.53	-39.35
236.747	-26.86
236.964	-23.5
237.181	-31.9
237.397	-17.28
237.614	-19.49
237.831	-21.85
238.048	-15.04
238.264	-24.37
238.481	-22.01
238.698	-17.86
238.915	-18.13
239.131	-29.15
239.348	-39.14
239.565	-30.9
239.781	-26.57
239.998	-19.61
240.215	-15.92
240.431	-12.79
240.648	-11.11
240.865	-8.5
241.081	-5.26
241.298	-1.73
241.514	0.14
241.731	5.35
241.947	6.22
242.164	6.77
242.38	6.73
242.597	7.21
242.814	7.98
243.03	7.26
243.246	8.7
243.463	9.05
243.679	10.01
243.896	10.44
244.112	9.8
244.329	8.8
244.545	6.22
244.762	6.7
244.978	10.23
245.194	7.68
245.411	8.04
245.627	4.64
245.843	5
246.06	5.35
246.276	7.11
246.492	7.36
246.709	7.5
246.925	8.33
247.141	7.85
247.357	6.65
247.574	7.27
247.79	8.05
248.006	8.44
248.222	8.86
248.439	8.7
248.655	8.36
248.871	8.59
249.087	9.04
249.303	8.49
249.519	8.94
249.736	7.09
249.952	5.84
250.168	2.47
250.384	1.92
250.6	1
250.816	0.14
251.032	-2.19
251.248	-2.85
251.464	-2.98
251.68	-2.88
251.896	-1.78
252.112	0.23
252.328	1.93
252.544	3.43
252.76	2.35
252.976	0.88
253.192	1.94
253.408	2.57
253.624	2.44
253.84	-0.32
254.056	-1.68
254.272	-4.01
254.487	-4.37
254.703	-3.58
254.919	0.26
255.135	0.45
255.351	2.33
255.567	1.42
255.782	0.86
255.998	3.51
256.214	7.48
256.43	11.31
256.646	10.45
256.861	9.55
257.077	6.76
257.293	0.33
257.508	3.08
257.724	2.19
257.94	2.02
258.155	1.95
258.371	2.14
258.587	1.6
258.802	1.37
259.018	2.83
259.234	4.7
259.449	5.51
259.665	6.54
259.88	5.64
260.096	5.69
260.312	6.1
260.527	6.74
260.743	6.47
260.958	6.21
261.174	5.34
261.389	5.18
261.605	3.59
261.82	3.61
262.036	3.68
262.251	5.35
262.466	6.43
262.682	4.28
262.897	3.16
263.113	1.05
263.328	0.98
263.543	2.58
263.759	2.33
263.974	2.29
264.189	3.06
264.405	1.29
264.62	-1.23
264.835	-3.41
265.051	-1.32
265.266	-2.73
265.481	-0.78
265.696	-0
265.912	-0.3
266.127	-1.9
266.342	0.02
266.557	-3.07
266.773	-1.15
266.988	-1.7
267.203	-2.49
267.418	-2.58
267.633	-1.51
267.848	-0.94
268.064	-0.09
268.279	-0.05
268.494	0.81
268.709	0.18
268.924	1.27
269.139	1.04
269.354	2.43
269.569	4.82
269.784	5.69
269.999	6.04
270.214	6.28
270.429	4.63
270.644	5.97
270.859	4.82
271.074	5.69
271.289	6.74
271.504	7.09
271.719	5.61
271.934	5.52
272.149	5.39
272.363	5.5
272.578	5.43
272.793	6.92
273.008	5.73
273.223	6.96
273.438	6.43
273.653	6.23
273.867	6.09
274.082	5.45
274.297	4
274.512	2.97
274.726	3.97
274.941	4.17
275.156	2.56
275.371	2.77
275.585	1.08
275.8	0.67
276.015	-0.23
276.229	-2.29
276.444	0.72
276.659	-0.33
276.873	-0.74
277.088	-1.96
277.302	-2.67
277.517	-2.01
277.732	-1.8
277.946	-2.03
278.161	-2.59
278.375	-2.74
278.59	0.76
278.804	0.09
279.019	2.36
279.233	3.85
279.448	4.11
279.662	3.45
279.877	3.05
280.091	3.23
280.306	4.55
280.52	5.61
280.735	4.64
280.949	5.58
281.163	6.02
281.378	5.14
281.592	5.42
281.806	5.23
282.021	5.47
282.235	5.73
282.449	4.92
282.664	4.67
282.878	3.47
283.092	4.85
283.307	2.93
283.521	3.6
283.735	4.86
283.949	4.44
284.164	4.67
284.378	5.04
284.592	4.71
284.806	5.39
285.02	4.84
285.234	5.7
285.449	5.7
285.663	5.01
285.877	3.88
286.091	3.4
286.305	2.92
286.519	3.01
286.733	3.25
286.947	3.66
287.161	4.27
287.375	4.97
287.589	4.9
287.803	5.64
288.017	6.61
288.231	7.03
288.445	7.99
288.659	7.62
288.873	7.32
289.087	6.13
289.301	5.7
289.515	5.19
289.729	5.61
289.943	5.94
290.157	4.81
290.371	4.84
290.584	5.66
290.798	5.34
291.012	5.53
291.226	6.1
291.44	7.02
291.654	7.25
291.867	7.96
292.081	7
292.295	6.06
292.509	5.92
292.722	5.88
292.936	5.13
293.15	4.73
293.364	6.7
293.577	6.93
293.791	6.98
294.005	7.56
294.218	7.72
294.432	8.44
294.645	10.34
294.859	10.18
295.073	9.52
295.286	8.93
295.5	8.89
295.713	8.84
295.927	8.46
296.14	8.97
296.354	8.06
296.568	7.03
296.781	6.66
296.994	5.3
297.208	5.29
297.421	6.55
297.635	7.27
297.848	7.5
298.062	7.37
298.275	6.79
298.489	5.51
298.702	6.08
298.915	7.08
299.129	7.06
299.342	7.96
299.555	8.88
299.769	8.98
299.982	8.4
300.195	8.62
300.409	7.77
300.622	9.05
300.835	9.86
301.048	10.24
301.262	8.86
301.475	9.18
301.688	9.87
301.901	10.54
302.115	10.05
302.328	10.23
302.541	9.13
302.754	9.34
302.967	8.14
303.18	7.92
303.393	9.15
303.607	10.03
303.82	10.07
304.033	8.44
304.246	7.07
304.459	5.4
304.672	5.27
304.885	5.89
305.098	5.87
305.311	6.33
305.524	6.25
305.737	3.87
305.95	3.85
306.163	4.64
306.376	5.49
306.589	6
306.802	6.94
307.015	6.26
307.228	5.27
307.44	6.77
307.653	7.07
307.866	7.95
308.079	8.84
308.292	8.49
308.505	8.59
308.718	8.53
308.93	8.01
309.143	8.39
309.356	8
309.569	8.64
309.781	7.97
309.994	7.46
310.207	6.95
310.42	6.52
310.632	6.85
310.845	6.23
311.058	6.51
311.27	6.81
311.483	7.26
311.696	8.23
311.908	8.47
312.121	8.64
312.333	8.2
312.546	9.89
312.759	9.86
312.971	8.94
313.184	8.95
313.396	8.88
313.609	9.93
313.821	9.46
314.034	10.59
314.246	11.33
314.459	10.88
314.671	11.86
314.884	9.68
315.096	10.78
315.309	11.79
315.521	11.81
315.733	11.27
315.946	10.04
316.158	9.68
316.371	8
316.583	6.82
316.795	5.72
317.008	6.84
317.22	6.93
317.432	6.12
317.644	4.68
317.857	4.41
318.069	4.98
318.281	5.4
318.494	5.28
318.706	5.02
318.918	5.18
319.13	5.25
319.342	4.64
319.555	4.93
319.767	4.95
319.979	6.93
320.191	6.93
320.403	5.41
320.615	4.53
320.827	4.91
321.039	5.77
321.252	5.6
321.464	6.65
321.676	4.57
321.888	4.53
322.1	4.4
322.312	4.12
322.524	6.57
322.736	9.44
322.948	9.44
323.16	10.17
323.372	10.33
323.584	10.66
323.796	9.2
324.007	9.49
324.219	9.94
324.431	10.5
324.643	10.3
324.855	8.34
325.067	7.38
325.279	8.16
325.491	7.01
325.702	6.81
325.914	7.08
326.126	7.98
326.338	9.08
326.55	9.82
326.761	10.27
326.973	10.44
327.185	11.28
327.396	10.41
327.608	9.47
327.82	10.76
328.032	10.59
328.243	11.72
328.455	12.76
328.666	12.67
328.878	10.98
329.09	9.89
329.301	8.9
329.513	9.54
329.725	10.54
329.936	10.52
330.148	9.45
330.359	9.8
330.571	8.13
330.782	8.36
330.994	7.67
331.205	7.88
331.417	8.63
331.628	8.78
331.84	8.84
332.051	8.82
332.262	8.64
332.474	9.35
332.685	9.99
332.897	10.68
333.108	10.39
333.319	11.92
333.531	12.85
333.742	12.07
333.953	12.16
334.165	11.75
334.376	11.19
334.587	12.48
334.799	12.26
335.01	12.35
335.221	13.07
335.432	13.65
335.644	13.13
335.855	13.13
336.066	13.99
336.277	13.88
336.488	13.69
336.7	14.22
336.911	15.11
337.122	16.02
337.333	15.75
337.544	15.58
337.755	15.28
337.966	14.76
338.177	14.08
338.388	12.99
338.599	13.02
338.811	14.04
339.022	14.44
339.233	12.49
339.444	11.98
339.655	12.38
339.866	11.73
340.076	11.63
340.287	11.6
340.498	12.99
340.709	13.91
340.92	14.57
341.131	13.46
341.342	12.99
341.553	13.32
341.764	12.99
341.975	12.34
342.185	12.06
342.396	12.35
342.607	12.27
342.818	11.02
343.029	11.27
343.239	11.64
343.45	11.34
343.661	11.28
343.872	12
344.082	12.05
344.293	11.64
344.504	12.71
344.714	12.68
344.925	13.27
345.136	13.93
345.346	14.51
345.557	14.15
345.768	13.8
345.978	14.08
346.189	13.7
346.399	14.8
346.61	15.95
346.821	15.63
347.031	14.74
347.242	14.48
347.452	13.95
347.663	13.25
347.873	14.24
348.084	15.39
348.294	15.38
348.504	15.2
348.715	14.65
348.925	13.14
349.136	12.56
349.346	14.01
349.557	15
349.767	15.01
349.977	14.83
350.188	14.58
350.398	14.2
350.608	14.41
350.819	14.9
351.029	14.03
351.239	15.36
351.449	14.26
351.66	13.57
351.87	13.23
352.08	13.67
352.29	14.04
352.501	13.53
352.711	14.29
352.921	13.66
353.131	13.69
353.341	13.98
353.552	13.25
353.762	14.64
353.972	14.76
354.182	14.09
354.392	13.41
354.602	12.88
354.812	11.61
355.022	10.49
355.232	10.56
355.442	9.95
355.652	10.09
355.862	11.06
356.072	10.75
356.282	10.6
356.492	11.33
356.702	11.73
356.912	11.54
357.122	11.81
357.332	12.4
357.542	12.37
357.752	12.91
357.962	12.92
358.171	12.12
358.381	12.08
358.591	11.92
358.801	11.53
359.011	11.21
359.221	11.27
359.43	11.6
359.64	11.43
359.85	11.94
360.06	11.7
360.269	11.91
360.479	12.21
360.689	11.71
360.899	12.05
361.108	11.89
361.318	12
361.528	12.37
361.737	12.5
361.947	12.44
362.156	12.14
362.366	12.3
362.576	11.58
362.785	10.88
362.995	11.8
363.204	11.1
363.414	11.09
363.623	11.41
363.833	11.19
364.042	11.16
364.252	11.86
364.461	11.97
364.671	11.63
364.88	12.03
365.09	12.13
365.299	11.84
365.509	12.25
365.718	12.42
365.927	11.82
366.137	12.29
366.346	12.32
366.555	10.74
366.765	10.26
366.974	10.66
367.183	10.41
367.393	10.88
367.602	10.48
367.811	10.31
368.021	10.15
368.23	10.76
368.439	9.74
368.648	9.34
368.857	10.18
369.067	9.9
369.276	9.75
369.485	10
369.694	10.12
369.903	9.47
370.112	9.2
370.321	8.32
370.531	7.96
370.74	7.56
370.949	7.59
371.158	7.02
371.367	7.4
371.576	7.25
371.785	7.58
371.994	7.63
372.203	8.41
372.412	8.79
372.621	9.65
372.83	9.57
373.039	10.52
373.248	10.86
373.457	11.23
373.666	11.52
373.874	11.51
374.083	11.12
374.292	10.4
374.501	10.08
374.71	10.19
374.919	10.14
375.128	10.26
375.336	9.51
375.545	8.86
375.754	8.19
375.963	7.83
376.171	7.8
376.38	8.05
376.589	8.25
376.798	7.98
377.006	7.23
377.215	7.05
377.424	7.24
377.632	7.47
377.841	7.96
378.05	7.84
378.258	7.63
378.467	7.74
378.675	7.13
378.884	7.11
379.093	6.91
379.301	7.29
379.51	7.31
379.718	7.02
379.927	7.17
380.135	6.75
380.344	7.13
380.552	7.22
380.761	6.76
380.969	6.69
381.177	6.81
381.386	6.83
381.594	6.89
381.803	6.43
382.011	6.42
382.219	6
382.428	6.28
382.636	6.58
382.845	6.41
383.053	6.4
383.261	6.18
383.469	6.38
383.678	6.39
383.886	6.34
384.094	6.18
384.302	5.67
384.511	5.76
384.719	5.52
384.927	5.64
385.135	5.94
385.343	5.69
385.552	5.92
385.76	5.38
385.968	5.47
386.176	5.07
386.384	4.88
386.592	4.88
386.8	4.59
387.008	4.41
387.216	4.26
387.424	4.13
387.633	4.59
387.841	4.41
388.049	4.47
388.257	4.73
388.465	5
388.672	5.22
388.88	5.24
389.088	5.52
389.296	5.66
389.504	5.71
389.712	5.54
389.92	5.35
390.128	5.29
390.336	4.96
390.544	4.62
390.751	4.33
390.959	4.45
391.167	4.63
391.375	4.66
391.583	4.43
391.79	3.86
391.998	3.98
392.206	3.99
392.414	4.42
392.621	4.84
392.829	4.96
393.037	4.94
393.244	4.92
393.452	4.78
393.66	4.43
393.867	4.65
394.075	5.09
394.283	4.71
394.49	4.73
394.698	4.77
394.905	4.64
395.113	4.39
395.32	4.49
395.528	4.16
395.735	4.11
395.943	4.08
396.15	3.82
396.358	3.66
396.565	3.67
396.773	3.7
396.98	3.38
397.188	3.08
397.395	3.36
397.602	3.28
397.81	3.53
398.017	3.76
398.225	3.96
398.432	3.97
398.639	4.01
398.847	4.36
399.054	4.03
399.261	4.04
399.468	4.15
399.676	4.22
399.883	4.08
400.09	4.26
400.297	4.06
400.505	3.99
400.712	4
400.919	4.01
401.126	3.64
401.333	3.72
401.54	3.65
401.748	3.55
401.955	3.21
402.162	3.23
402.369	3.22
402.576	3.28
402.783	3.26
402.99	3.39
403.197	3.39
403.404	3.35
403.611	3.06
403.818	2.94
404.025	2.96
404.232	2.93
404.439	3.19
404.646	2.97
404.853	3.22
405.06	3.32
405.267	3.2
405.474	3.14
405.681	3.33
405.887	3.66
406.094	4.03
406.301	4.22
406.508	4.42
406.715	4.23
406.922	4.36
407.128	4.04
407.335	4.03
407.542	4.2
407.749	3.81
407.955	3.75
408.162	3.93
408.369	3.54
408.575	3.33
408.782	3.45
408.989	3.61
409.195	3.91
409.402	3.99
409.609	4.03
409.815	3.95
410.022	4.28
410.228	4.22
410.435	3.9
410.642	3.9
410.848	3.79
411.055	3.49
411.261	3.36
411.468	3.16
411.674	2.99
411.881	2.77
412.087	2.84
412.294	3.13
412.5	2.95
412.706	3.07
412.913	2.81
413.119	3.08
413.326	3.13
413.532	3.12
413.738	3.04
413.945	3.22
414.151	3.38
414.357	3.37
414.564	2.88
414.77	3.14
414.976	3.02
415.182	3.49
415.389	3.34
415.595	3.57
415.801	3.41
416.007	3.49
416.214	3.27
416.42	3.12
416.626	3.08
416.832	3.34
417.038	3.21
417.244	3.02
417.45	3.13
417.657	3.34
417.863	3.23
418.069	3.24
418.275	3.23
418.481	3.23
418.687	3.16
418.893	3.11
419.099	3.08
419.305	3.17
419.511	3.24
419.717	3.21
419.923	3.17
420.129	3.1
420.335	3.3
420.541	3.27
420.746	3.43
420.952	3.59
421.158	3.66
421.364	3.57
421.57	3.44
421.776	3.37
421.982	3.09
422.187	2.94
422.393	2.92
422.599	2.82
422.805	2.78
423.01	2.75
423.216	2.63
423.422	2.42
423.628	2.54
423.833	2.68
424.039	2.93
424.245	3.14
424.45	3.35
424.656	3.26
424.862	3.34
425.067	3.43
425.273	3.52
425.478	3.62
425.684	3.87
425.889	3.83
426.095	3.76
426.301	3.61
426.506	3.6
426.712	3.49
426.917	3.79
427.123	3.69
427.328	3.46
427.533	3.4
427.739	3.26
427.944	3.2
428.15	3.17
428.355	3.25
428.561	3.08
428.766	2.92
428.971	3.07
429.177	2.93
429.382	2.6
429.587	2.66
429.793	2.22
429.998	2.39
430.203	2.36
430.408	2.1
430.614	2.1
430.819	2.43
431.024	2.25
431.229	2.01
431.434	1.95
431.64	2.26
431.845	2.45
432.05	2.73
432.255	2.62
432.46	2.56
432.665	2.81
432.87	2.86
433.076	2.82
433.281	2.86
433.486	2.82
433.691	2.71
433.896	2.56
434.101	2.62
434.306	2.84
434.511	2.73
434.716	2.77
434.921	2.7
435.126	2.63
435.331	2.48
435.535	2.62
435.74	2.8
435.945	3.04
436.15	3.27
436.355	3.23
436.56	2.87
436.765	2.69
436.97	2.73
437.174	2.68
437.379	2.64
437.584	2.63
437.789	2.6
437.993	2.47
438.198	2.37
438.403	2.51
438.608	2.51
438.812	2.58
439.017	2.8
439.222	2.88
439.426	2.94
439.631	2.89
439.836	3.06
440.04	3.05
440.245	3.09
440.45	3.15
440.654	3.13
440.859	2.96
441.063	3.05
441.268	3.09
441.472	3.01
441.677	3.03
441.881	3
442.086	2.83
442.29	2.8
442.495	2.76
442.699	2.6
442.904	2.37
443.108	2.42
443.312	2.32
443.517	2.27
443.721	2.27
443.925	2.24
444.13	2.41
444.334	2.68
444.538	2.79
444.743	3.04
444.947	3.14
445.151	3.24
445.356	3.45
445.56	3.5
445.764	3.54
445.968	3.52
446.173	3.47
446.377	3.4
446.581	3.3
446.785	3.3
446.989	3.18
447.193	3.14
447.398	3.11
447.602	2.97
447.806	2.86
448.01	2.83
448.214	2.94
448.418	2.94
448.622	2.97
448.826	2.97
449.03	2.92
449.234	2.83
449.438	2.84
449.642	2.78
449.846	2.57
450.05	2.71
450.254	2.69
450.458	2.68
450.662	2.8
450.866	2.7
451.069	2.73
451.273	2.8
451.477	2.94
451.681	2.9
451.885	2.89
452.089	3.01
452.292	2.99
452.496	3.22
452.7	3.11
452.904	2.95
453.107	3.02
453.311	2.96
453.515	2.87
453.719	2.82
453.922	2.75
454.126	2.77
454.33	2.77
454.533	2.58
454.737	2.34
454.94	2.21
455.144	2.31
455.348	2.32
455.551	2.42
455.755	2.59
455.958	2.53
456.162	2.49
456.365	2.26
456.569	2.39
456.772	2.44
456.976	2.35
457.179	2.42
457.383	2.45
457.586	2.11
457.79	2.2
457.993	2.04
458.196	2.03
458.4	2.08
458.603	2.28
458.807	2.19
459.01	2.25
459.213	2.35
459.417	2.2
459.62	2.23
459.823	2.49
460.026	2.32
460.23	2.33
460.433	2.23
460.636	2.32
460.839	2.47
461.042	2.47
461.246	2.46
461.449	2.43
461.652	2.5
461.855	2.33
462.058	2.17
462.261	2.15
462.464	2.24
462.668	2.53
462.871	2.59
463.074	2.45
463.277	2.51
463.48	2.6
463.683	2.7
463.886	2.85
464.089	3.05
464.292	3.05
464.495	2.99
464.698	2.98
464.901	2.95
465.104	2.92
465.306	2.77
465.509	2.65
465.712	2.47
465.915	2.55
466.118	2.8
466.321	2.57
466.524	2.74
466.726	2.87
466.929	2.87
467.132	2.76
467.335	2.79
467.538	2.97
467.74	3.11
467.943	3.31
468.146	3.29
468.348	3.13
468.551	3.35
468.754	3.41
468.956	3.36
469.159	3.26
469.362	3.19
469.564	3.09
469.767	3.05
469.969	3.19
470.172	3.04
470.375	2.91
470.577	2.68
470.78	2.59
470.982	2.5
471.185	2.56
471.387	2.91
471.59	2.99
471.792	2.96
471.995	3.17
472.197	3.1
472.399	3.22
472.602	3.05
472.804	3.16
473.007	3.18
473.209	3.23
473.411	3.17
473.614	2.84
473.816	2.92
474.018	3.01
474.22	2.76
474.423	2.67
474.625	2.45
474.827	2.66
475.03	2.58
475.232	2.62
475.434	2.51
475.636	2.7
475.838	2.58
476.04	2.44
476.243	2.47
476.445	2.64
476.647	2.46
476.849	2.6
477.051	2.47
477.253	2.55
477.455	2.62
477.657	2.74
477.859	2.73
478.061	2.84
478.263	2.89
478.465	2.72
478.667	2.7
478.869	2.67
479.071	2.59
479.273	2.6
479.475	2.55
479.677	2.58
479.879	2.5
480.081	2.34
480.283	2.32
480.485	2.53
480.686	2.55
480.888	2.4
481.09	2.59
481.292	2.74
481.494	2.75
481.695	2.72
481.897	2.67
482.099	2.72
482.301	2.77
482.502	2.9
482.704	2.78
482.906	2.83
483.107	2.89
483.309	2.9
483.511	2.89
483.712	2.93
483.914	2.97
484.115	3
484.317	3.01
484.519	3.01
484.72	2.96
484.922	2.98
485.123	2.95
485.325	2.96
485.526	2.98
485.728	2.99
485.929	3.05
486.131	3.09
486.332	3.02
486.534	2.98
486.735	3.05
486.936	3.11
487.138	3.09
487.339	3.18
487.541	3.1
487.742	3.05
487.943	3.01
488.144	2.9
488.346	2.89
488.547	2.95
488.748	2.95
488.95	2.87
489.151	2.81
489.352	2.77
489.553	2.71
489.755	2.83
489.956	2.8
490.157	2.76
490.358	2.85
490.559	2.78
490.76	2.77
490.961	2.87
491.163	2.91
491.364	3.01
491.565	3.08
491.766	3.17
491.967	3.14
492.168	3.18
492.369	3.19
492.57	3.09
492.771	3.19
492.972	3.14
493.173	3.04
493.374	2.97
493.575	2.82
493.776	2.76
493.976	2.61
494.177	2.48
494.378	2.52
494.579	2.55
494.78	2.65
494.981	2.56
495.182	2.73
495.382	2.78
495.583	2.9
495.784	2.97
495.985	3.04
496.185	3.1
496.386	3.01
496.587	2.87
496.788	2.79
496.988	2.84
497.189	2.85
497.39	2.76
497.59	2.68
497.791	2.66
497.992	2.69
498.192	2.63
498.393	2.51
498.593	2.65
498.794	2.74
498.994	2.81
499.195	2.81
499.395	2.88
499.596	2.89
499.796	2.96
499.997	2.84
500.197	2.71
500.398	2.74
500.598	2.97
500.799	2.92
500.999	3.01
501.199	3.2
501.4	3.05
501.6	2.95
501.801	2.92
502.001	2.93
502.201	3.12
502.402	3.19
502.602	3.13
502.802	3.09
503.002	3.31
503.203	3.31
503.403	3.18
503.603	3.3
503.803	3.23
504.003	3.14
504.204	3.28
504.404	3.29
504.604	3.31
504.804	3.32
505.004	3.19
505.204	2.93
505.404	2.87
505.604	2.82
505.804	2.95
506.005	2.93
506.205	3.18
506.405	3
506.605	3.15
506.805	3.02
507.005	3.08
507.204	3.25
507.404	3.38
507.604	3.37
507.804	3.64
508.004	3.73
508.204	3.95
508.404	3.86
508.604	3.91
508.804	3.83
509.003	3.93
509.203	4.1
509.403	4.05
509.603	4.13
509.803	4.18
510.002	4.1
510.202	4.03
510.402	3.99
510.602	4.08
510.801	4.25
511.001	4.47
511.201	4.56
511.4	4.5
511.6	4.75
511.8	4.7
511.999	4.64
512.199	4.57
512.398	4.51
512.598	4.57
512.797	4.61
512.997	4.44
513.197	4.31
513.396	4.4
513.596	4.49
513.795	4.28
513.994	4.53
514.194	4.78
514.393	5
514.593	5.11
514.792	5.16
514.992	5.36
515.191	5.57
515.39	5.51
515.59	5.66
515.789	5.77
515.988	5.86
516.188	5.96
516.387	6.06
516.586	5.98
516.786	6.01
516.985	6.28
517.184	6.14
517.383	6.13
517.582	6.4
517.782	6.37
517.981	6.38
518.18	6.49
518.379	6.37
518.578	6.33
518.777	6.51
518.976	6.59
519.176	6.53
519.375	6.65
519.574	6.83
519.773	6.76
519.972	6.8
520.171	6.88
520.37	6.84
520.569	6.91
520.768	7.1
520.967	7.01
521.166	7.09
521.365	7.09
521.564	7.04
521.762	6.95
521.961	6.98
522.16	7.1
522.359	7.22
522.558	7.47
522.757	7.65
522.956	7.58
523.154	7.68
523.353	7.8
523.552	7.95
523.751	8.18
523.949	8.43
524.148	8.59
524.347	8.65
524.546	8.78
524.744	8.93
524.943	9.06
525.142	9.16
525.34	9.3
525.539	9.47
525.737	9.52
525.936	9.66
526.135	9.71
526.333	9.69
526.532	9.82
526.73	9.79
526.929	9.81
527.127	9.79
527.326	9.87
527.524	9.96
527.723	10
527.921	10.13
528.12	10.14
528.318	10.2
528.516	10.36
528.715	10.37
528.913	10.45
529.112	10.48
529.31	10.57
529.508	10.63
529.707	10.67
529.905	10.71
530.103	10.71
530.301	10.7
530.5	10.78
530.698	10.81
530.896	10.85
531.094	10.94
531.293	11.06
531.491	11.09
531.689	11.21
531.887	11.3
532.085	11.37
532.283	11.41
532.481	11.68
532.68	11.71
532.878	11.82
533.076	11.97
533.274	11.95
533.472	11.98
533.67	12.06
533.868	12.15
534.066	12.32
534.264	12.39
534.462	12.58
534.66	12.53
534.858	12.6
535.056	12.63
535.253	12.76
535.451	12.9
535.649	13.04
535.847	13.16
536.045	13.2
536.243	13.17
536.441	13.23
536.638	13.26
536.836	13.28
537.034	13.39
537.232	13.41
537.43	13.37
537.627	13.44
537.825	13.43
538.023	13.57
538.22	13.64
538.418	13.64
538.616	13.74
538.813	13.79
539.011	13.88
539.209	13.87
539.406	13.98
539.604	14.07
539.801	14.03
539.999	14.22
540.196	14.27
540.394	14.39
540.591	14.53
540.789	14.65
540.986	14.73
541.184	14.82
541.381	14.96
541.579	15.04
541.776	15.11
541.974	15.29
542.171	15.24
542.368	15.24
542.566	15.17
542.763	15.28
542.96	15.32
543.158	15.37
543.355	15.4
543.552	15.37
543.75	15.35
543.947	15.38
544.144	15.33
544.341	15.49
544.539	15.65
544.736	15.86
544.933	15.69
545.13	15.81
545.327	15.86
545.524	15.97
545.722	16.07
545.919	16.24
546.116	16.43
546.313	16.54
546.51	16.5
546.707	16.55
546.904	16.6
547.101	16.69
547.298	16.66
547.495	16.7
547.692	16.72
547.889	16.88
548.086	16.93
548.283	16.96
548.48	17.17
548.677	17.23
548.874	17.38
549.07	17.55
549.267	17.8
549.464	17.85
549.661	18.02
549.858	18.29
550.055	18.17
550.251	18.34
550.448	18.51
550.645	18.42
550.842	18.55
551.038	18.46
551.235	18.44
551.432	18.44
551.628	18.6
551.825	18.59
552.022	18.74
552.218	19.04
552.415	19.19
552.612	18.97
552.808	19.01
553.005	19.2
553.201	19.4
553.398	19.57
553.594	19.65
553.791	19.59
553.987	19.67
554.184	19.66
554.38	19.71
554.577	19.55
554.773	19.73
554.97	19.89
555.166	19.82
555.362	19.73
555.559	19.71
555.755	19.87
555.952	20.11
556.148	20.32
556.344	20.21
556.541	20.35
556.737	20.44
556.933	20.34
557.129	20.32
557.326	20.33
557.522	20.5
557.718	20.58
557.914	20.62
558.11	20.53
558.307	20.61
558.503	20.75
558.699	20.72
558.895	20.8
559.091	21.04
559.287	21.33
559.483	21.56
559.679	21.69
559.876	21.84
560.072	21.79
560.268	21.69
560.464	21.63
560.66	21.62
560.856	21.46
561.052	21.54
561.247	21.76
561.443	21.55
561.639	21.9
561.835	21.85
562.031	21.83
562.227	21.86
562.423	22.32
562.619	22.39
562.815	22.62
563.01	22.85
563.206	22.91
563.402	22.83
563.598	22.96
563.793	22.56
563.989	22.43
564.185	22.3
564.381	22.33
564.576	22.38
564.772	22.48
564.968	22.38
565.163	22.56
565.359	22.68
565.555	22.71
565.75	22.61
565.946	22.85
566.141	23.16
566.337	23.44
566.532	23.72
566.728	23.52
566.923	23.49
567.119	23.64
567.314	23.69
567.51	23.83
567.705	23.97
567.901	24.18
568.096	24.19
568.292	24.21
568.487	24.26
568.682	24.37
568.878	24.49
569.073	24.64
569.268	24.67
569.464	24.7
569.659	24.73
569.854	24.74
570.05	24.82
570.245	24.73
570.44	25.04
570.635	24.96
570.831	24.98
571.026	25.11
571.221	25.05
571.416	25.06
571.611	25.16
571.806	24.97
572.002	24.98
572.197	24.87
572.392	25.01
572.587	24.69
572.782	24.69
572.977	24.64
573.172	24.6
573.367	24.69
573.562	24.77
573.757	24.49
573.952	24.6
574.147	24.55
574.342	24.68
574.537	24.68
574.732	24.86
574.927	24.93
575.121	24.83
575.316	24.86
575.511	24.87
575.706	24.91
575.901	25.13
576.096	25.04
576.29	25.22
576.485	25.29
576.68	25.27
576.875	25.12
577.069	25.22
577.264	25.33
577.459	25.28
577.654	25.62
577.848	25.69
578.043	25.72
578.238	25.91
578.432	25.88
578.627	26.05
578.821	26.17
579.016	26.39
579.21	26.47
579.405	26.55
579.6	26.7
579.794	26.53
579.989	26.52
580.183	26.25
580.378	26.41
580.572	26.56
580.766	26.65
580.961	26.47
581.155	26.5
581.35	26.31
581.544	26.16
581.738	26.05
581.933	25.73
582.127	25.64
582.321	26.02
582.516	26.14
582.71	25.95
582.904	25.82
583.099	26.26
583.293	26.11
583.487	26.36
583.681	26.42
583.875	26.59
584.07	26.73
584.264	26.78
584.458	27
584.652	27.05
584.846	27.11
585.04	27.12
585.234	26.87
585.428	27.05
585.623	26.8
585.817	26.71
586.011	26.72
586.205	26.84
586.399	26.86
586.593	26.65
586.787	26.46
586.981	26.72
587.174	26.79
587.368	26.87
587.562	26.78
587.756	26.87
587.95	27.18
588.144	27.44
588.338	27.45
588.532	27.77
588.725	28.21
588.919	28.3
589.113	28.21
589.307	28.15
589.501	28.26
589.694	28.37
589.888	28.52
590.082	28.49
590.275	28.51
590.469	28.5
590.663	28.23
590.856	27.79
591.05	28.06
591.244	28.05
591.437	28.05
591.631	28.1
591.824	28.1
592.018	28.11
592.212	28.12
592.405	28.02
592.599	28.21
592.792	28.22
592.986	28.4
593.179	27.94
593.372	28.25
593.566	28.4
593.759	28.65
593.953	28.76
594.146	28.99
594.339	28.94
594.533	28.77
594.726	28.65
594.92	28.81
595.113	28.72
595.306	28.96
595.499	28.89
595.693	28.9
595.886	28.69
596.079	28.7
596.272	28.59
596.466	28.81
596.659	29.02
596.852	28.95
597.045	29.16
597.238	29.31
597.431	29.26
597.624	29.32
597.818	29.26
598.011	29.32
598.204	29.42
598.397	29.48
598.59	29.41
598.783	29.27
598.976	29.3
599.169	29.08
599.362	29
599.555	28.84
599.748	28.68
599.941	28.69
600.134	28.58
600.326	28.54
600.519	28.52
600.712	28.48
600.905	28.68
601.098	28.75
601.291	28.59
601.483	28.81
601.676	29.09
601.869	28.98
602.062	29.19
602.255	29.31
602.447	29.23
602.64	29.15
602.833	29.26
603.025	29.33
603.218	29.62
603.411	29.78
603.603	29.68
603.796	29.75
603.989	29.75
604.181	29.76
604.374	29.88
604.566	29.95
604.759	30.03
604.951	30.02
605.144	30
605.336	29.8
605.529	29.85
605.721	29.94
605.914	29.89
606.106	30.05
606.299	30.15
606.491	30.05
606.683	30.14
606.876	30.13
607.068	30.24
607.26	30.41
607.453	30.45
607.645	30.46
607.837	30.22
608.03	30.5
608.222	30.52
608.414	30.3
608.606	30.42
608.799	30.48
608.991	30.51
609.183	30.46
609.375	30.14
609.567	30.31
609.759	30.19
609.952	30.16
610.144	29.77
610.336	29.65
610.528	29.61
610.72	29.59
610.912	29.25
611.104	29.31
611.296	29.26
611.488	29.27
611.68	29.26
611.872	29.17
612.064	29.16
612.256	29.64
612.448	29.69
612.64	29.83
612.832	29.77
613.023	30.1
613.215	29.6
613.407	29.45
613.599	29.27
613.791	29.14
613.983	29.37
614.174	29.38
614.366	28.93
614.558	28.97
614.75	28.98
614.941	29
615.133	28.86
615.325	29.19
615.516	29.42
615.708	29.8
615.9	29.87
616.091	29.94
616.283	30.25
616.475	30.14
616.666	30.11
616.858	29.82
617.049	30.08
617.241	30.08
617.432	30.18
617.624	29.99
617.815	30.01
618.007	29.81
618.198	29.89
618.39	29.86
618.581	30.08
618.773	30.3
618.964	30.64
619.155	30.58
619.347	30.77
619.538	30.86
619.729	31.19
619.921	31.44
620.112	31.34
620.303	31.06
620.494	31.09
620.686	31.07
620.877	31.05
621.068	31.11
621.259	30.93
621.451	30.8
621.642	30.45
621.833	30.43
622.024	30.23
622.215	30.5
622.406	30.59
622.597	30.55
622.788	30.71
622.98	30.69
623.171	30.5
623.362	30.46
623.553	30.57
623.744	30.79
623.935	30.75
624.126	30.62
624.317	30.58
624.508	30.84
624.698	30.89
624.889	30.71
625.08	30.37
625.271	30.59
625.462	30.61
625.653	30.64
625.844	30.5
626.034	30.36
626.225	30.35
626.416	30.49
626.607	30.25
626.798	30.16
626.988	30.34
627.179	30.65
627.37	30.56
627.56	30.74
627.751	30.85
627.942	31.07
628.132	31.18
628.323	31.3
628.514	31.48
628.704	31.55
628.895	31.6
629.085	31.62
629.276	31.33
629.466	31.43
629.657	31.27
629.847	31.28
630.038	31.7
630.228	31.7
630.419	31.89
630.609	31.5
630.8	31.69
630.99	31.95
631.181	32.22
631.371	32.77
631.561	32.41
631.752	32.38
631.942	32.3
632.132	32.06
632.323	32.4
632.513	32.2
632.703	32.23
632.893	31.96
633.084	31.53
633.274	31.37
633.464	30.98
633.654	31.19
633.844	31.27
634.034	31.34
634.225	31.13
634.415	30.82
634.605	31.04
634.795	31.5
634.985	31.75
635.175	31.87
635.365	31.98
635.555	32.19
635.745	32.35
635.935	32.15
636.125	32.09
636.315	32.32
636.505	32.62
636.695	32.49
636.885	32.11
637.075	31.82
637.265	31.9
637.455	31.51
637.644	31.34
637.834	31.49
638.024	31.8
638.214	31.64
638.404	31.36
638.593	31.03
638.783	31.33
638.973	31.5
639.163	31.78
639.352	32.17
639.542	32.58
639.732	32.7
639.921	32.62
640.111	32.63
640.301	32.77
640.49	32.89
640.68	32.98
640.87	32.95
641.059	33.27
641.249	33.33
641.438	33.14
641.628	33.01
641.817	33.41
642.007	33.17
642.196	33.46
642.386	33.45
642.575	33.27
642.764	33.56
642.954	33.4
643.143	33.05
643.333	32.97
643.522	32.51
643.711	32.31
643.901	31.82
644.09	32.14
644.279	31.97
644.469	32.31
644.658	32.75
644.847	32.48
645.036	32.35
645.226	32.17
645.415	32.44
645.604	32.97
645.793	33.53
645.982	33.72
646.171	33.16
646.361	33.07
646.55	32.76
646.739	32.52
646.928	32.72
647.117	32.85
647.306	33.11
647.495	33.27
647.684	33.08
647.873	32.98
648.062	32.76
648.251	33.13
648.44	32.99
648.629	33.03
648.818	32.92
649.007	32.77
649.196	32.32
649.384	32.52
649.573	32.32
649.762	32.31
649.951	31.45
650.14	31.14
650.328	31.37
650.517	31.62
650.706	31.73
650.895	31.89
651.083	31.75
651.272	32.41
651.461	31.86
651.65	31.8
651.838	31.7
652.027	32.22
652.216	32.39
652.404	32.3
652.593	32.15
652.781	32.4
652.97	32.61
653.158	32.38
653.347	32.11
653.535	32.33
653.724	31.97
653.912	32.21
654.101	32.37
654.289	32.77
654.478	32.8
654.666	32.72
654.855	32.24
655.043	32.02
655.231	32.2
655.42	32.39
655.608	32.36
655.796	32.5
655.985	32.59
656.173	32.45
656.361	32.19
656.55	32.23
656.738	32.41
656.926	32.62
657.114	32.53
657.302	32.55
657.491	32.6
657.679	32.51
657.867	32.96
658.055	32.79
658.243	32.96
658.431	33.14
658.619	33.11
658.807	33.23
658.996	32.8
659.184	33.01
659.372	33.22
659.56	32.98
659.748	33.16
659.936	32.97
660.124	33
660.311	32.73
660.499	32.87
660.687	33
660.875	32.67
661.063	33.24
661.251	33.05
661.439	32.91
661.627	32.93
661.814	33.06
662.002	33.1
662.19	33.24
662.378	33.7
662.565	33.75
662.753	33.58
662.941	33.87
663.129	33.94
663.316	34.08
663.504	34.43
663.692	34.79
663.879	34.93
664.067	34.77
664.254	34.97
664.442	34.66
664.63	34.23
664.817	34.43
665.005	34.23
665.192	33.9
665.38	34.05
665.567	33.8
665.755	33.17
665.942	33.36
666.13	33.51
666.317	32.8
666.504	33.26
666.692	33.63
666.879	33.49
667.067	33.85
667.254	33.98
667.441	33.3
667.629	33.35
667.816	33.65
668.003	33.26
668.19	33.08
668.378	33.57
668.565	33.45
668.752	33.11
668.939	33.15
669.127	32.82
669.314	32.75
669.501	33.43
669.688	33.29
669.875	33.39
670.062	33.25
670.249	33.2
670.436	32.95
670.623	32.75
670.81	32.91
670.997	33.04
671.184	33.34
671.371	33.42
671.558	33.21
671.745	33.08
671.932	33.27
672.119	33.5
672.306	33.94
672.493	34.01
672.68	34.04
672.867	33.88
673.054	33.39
673.24	32.79
673.427	32.64
673.614	32.1
673.801	31.95
673.988	32.11
674.174	31.91
674.361	31.65
674.548	31.68
674.734	31.85
674.921	32.22
675.108	32.21
675.294	33.07
675.481	33.13
675.668	33.76
675.854	33.87
676.041	33.26
676.227	33.52
676.414	33.65
676.601	33.7
676.787	33.56
676.974	33.6
677.16	33.7
677.347	33.74
677.533	33.86
677.719	34.18
677.906	34.59
678.092	34.76
678.279	34.39
678.465	34.3
678.651	34.31
678.838	34.44
679.024	34.27
679.21	34.81
679.397	34.45
679.583	34.32
679.769	33.88
679.955	33.58
680.142	33.46
680.328	33.79
680.514	33.78
680.7	33.85
680.886	33.86
681.073	34.03
681.259	33.63
681.445	33.7
681.631	33.73
681.817	33.88
682.003	34.13
682.189	34.76
682.375	35.28
682.561	35.11
682.747	35.2
682.933	35.3
683.119	34.84
683.305	34.8
683.491	34.96
683.677	35.11
683.863	35.42
684.049	35.5
684.235	35.03
684.42	34.75
684.606	35.11
684.792	34.95
684.978	34.73
685.164	34.89
685.349	35.43
685.535	35.16
685.721	35.04
685.907	34.61
686.092	34.25
686.278	34.44
686.464	34.19
686.649	34.12
686.835	34.23
687.021	34.1
687.206	34.14
687.392	33.61
687.577	33.67
687.763	33.25
687.948	33.59
688.134	33.69
688.319	33.56
688.505	33.41
688.69	33.49
688.876	33.54
689.061	33.69
689.247	34.06
689.432	34.27
689.618	34.56
689.803	34.81
689.988	34.76
690.174	35.02
690.359	35.28
690.544	35.37
690.73	35.56
690.915	35.4
691.1	35.2
691.285	35.05
691.471	34.89
691.656	34.81
691.841	35.24
692.026	35.16
692.211	34.67
692.396	34.2
692.582	34.3
692.767	34.29
692.952	34.5
693.137	34.94
693.322	35.04
693.507	35.16
693.692	34.6
693.877	34.09
694.062	34.04
694.247	34.5
694.432	34.7
694.617	35.4
694.802	34.93
694.987	34.66
695.172	34.48
695.357	34.09
695.541	33.89
695.726	33.7
695.911	33.81
696.096	34.25
696.281	34.11
696.466	34.49
696.65	33.78
696.835	34.26
697.02	34.39
697.204	34.41
697.389	34.95
697.574	34.96
697.759	35.34
697.943	35.52
698.128	35.29
698.312	35.75
698.497	35.49
698.682	35.36
698.866	35.1
699.051	34.83
699.235	34.86
699.42	34.88
699.604	34.95
699.789	34.83
699.973	34.45
700.158	34.58
700.342	34.61
700.527	34.66
700.711	34.91
700.895	35.55
701.08	35.68
701.264	35.57
701.448	35.37
701.633	35.41
701.817	36.37
702.001	36.66
702.186	36.6
702.37	35.94
702.554	36.08
702.738	35.86
702.923	35.16
703.107	35.22
703.291	35.62
703.475	35.92
703.659	35.75
703.843	35.06
704.027	34.89
704.212	34.92
704.396	35.01
704.58	34.47
704.764	34.24
704.948	34.68
705.132	34.96
705.316	34.62
705.5	34.18
705.684	34.19
705.868	34.03
706.052	34.11
706.235	33.55
706.419	33.99
706.603	34.69
706.787	35.5
706.971	34.71
707.155	34.46
707.339	34.28
707.522	34.32
707.706	34.5
707.89	34.35
708.074	34.98
708.257	34.91
708.441	34.26
708.625	34.12
708.808	33.49
708.992	34.3
709.176	34.55
709.359	35.21
709.543	35.25
709.727	35.23
709.91	35.83
710.094	35.78
710.277	35.84
710.461	36.05
710.644	35.58
710.828	35.16
711.011	35.36
711.195	35.8
711.378	35.47
711.562	34.98
711.745	35.07
711.928	34.84
712.112	34.97
712.295	35.67
712.478	36.57
712.662	36.97
712.845	37.92
713.028	37.55
713.212	36.98
713.395	36.99
713.578	37.36
713.761	36.95
713.945	36.35
714.128	36.23
714.311	35.7
714.494	34.96
714.677	35.35
714.86	34.44
715.043	34.17
715.227	34.22
715.41	33.6
715.593	33.96
715.776	34.15
715.959	34.58
716.142	34.03
716.325	33.95
716.508	33.78
716.691	33.82
716.874	33.49
717.057	33.18
717.239	33.38
717.422	34.06
717.605	32.6
717.788	32.3
717.971	32.24
718.154	32.83
718.337	32.87
718.519	33.12
718.702	32.28
718.885	32.83
719.068	33.23
719.25	33.25
719.433	33.28
719.616	34.92
719.798	34.58
719.981	35.16
720.164	34.39
720.346	34.73
720.529	35.06
720.712	35.36
720.894	35.44
721.077	35.5
721.259	35.49
721.442	35.07
721.624	34.88
721.807	37.04
721.989	35.6
722.172	35.88
722.354	35.5
722.537	34.9
722.719	34.99
722.901	35.79
723.084	36.15
723.266	36.23
723.448	36.34
723.631	35.84
723.813	33.75
723.995	35.06
724.178	35.31
724.36	35.52
724.542	35.25
724.724	35.34
724.907	34.15
725.089	33.29
725.271	31.72
725.453	31.47
725.635	31.74
725.817	32.7
725.999	32.21
726.181	32.15
726.364	32.42
726.546	32.6
726.728	31.24
726.91	32.4
727.092	33.03
727.274	34.08
727.456	34.83
727.638	34.64
727.819	35.11
728.001	35.17
728.183	36.45
728.365	35.55
728.547	35.52
728.729	36.83
728.911	36.87
729.093	36.78
729.274	36.56
729.456	36.3
729.638	36.15
729.82	35.91
730.001	35.69
730.183	34.2
730.365	35.16
730.546	35.1
730.728	34.82
730.91	34.62
731.091	34.52
731.273	34.58
731.455	34.74
731.636	35.05
731.818	34.55
731.999	34.21
732.181	35.38
732.362	35.37
732.544	35.57
732.725	36.13
732.907	35.82
733.088	35.96
733.27	36.19
733.451	35.45
733.633	35.43
733.814	36.08
733.995	37.71
734.177	36.56
734.358	35.72
734.539	34.9
734.721	34.54
734.902	33.97
735.083	33.86
735.264	33.76
735.446	33.8
735.627	33.84
735.808	33.23
735.989	31.9
736.17	32.63
736.351	33.88
736.533	35.18
736.714	34.86
736.895	35.03
737.076	35.32
737.257	35.82
737.438	35.66
737.619	35.57
737.8	35.76
737.981	36.65
738.162	36.4
738.343	35.62
738.524	34.71
738.705	34.97
738.886	35.04
739.067	34.32
739.247	33.67
739.428	34.7
739.609	34.71
739.79	34.75
739.971	34.05
740.151	34.26
740.332	33.66
740.513	34.67
740.694	34.64
740.874	34.3
741.055	33.72
741.236	34.92
741.417	34.95
741.597	35.45
741.778	34.96
741.958	34.79
742.139	34.63
742.32	35.13
742.5	35.48
742.681	34.94
742.861	35.29
743.042	37.27
743.222	36.47
743.403	36.56
743.583	36.88
743.764	37.14
743.944	38.8
744.124	39.36
744.305	40.18
744.485	39.67
744.666	39.09
744.846	39.42
745.026	38.73
745.207	38.88
745.387	38.29
745.567	36.93
745.747	36.26
745.928	34.02
746.108	32.64
746.288	31.6
746.468	30.88
746.648	31.97
746.829	33.11
747.009	33.08
747.189	33.77
747.369	32.69
747.549	33.81
747.729	34.85
747.909	34.68
748.089	35.87
748.269	37.09
748.449	37.94
748.629	38.12
748.809	37.19
748.989	36.59
749.169	36.23
749.349	35.96
749.529	35.85
749.709	36.84
749.889	37.03
750.068	36.31
750.248	35.44
750.428	34.63
750.608	33.55
750.788	35.01
750.967	36.04
751.147	34.85
751.327	36.04
751.507	36.17
751.686	35.02
751.866	35.54
752.046	35.42
752.225	35.9
752.405	36.15
752.585	37.64
752.764	36.86
752.944	35.99
753.123	36.94
753.303	36.14
753.482	34.63
753.662	34.2
753.841	34.76
754.021	35.43
754.2	35.78
754.38	35.42
754.559	35.23
754.739	35.31
754.918	35.51
755.097	35.33
755.277	35.5
755.456	37.25
755.635	37.56
755.815	37.34
755.994	36.79
756.173	36.42
756.352	36.68
756.532	36.35
756.711	36.1
756.89	36.21
757.069	36.61
757.248	37.68
757.427	37.34
757.607	36.3
757.786	35.77
757.965	35.95
758.144	35.31
758.323	35.81
758.502	36.22
758.681	35.59
758.86	36.03
759.039	36.03
759.218	35.93
759.397	36.1
759.576	36.34
759.755	36.13
759.934	36.3
760.113	36.56
760.291	35.45
760.47	35.43
760.649	35.41
760.828	33.6
761.007	33.61
761.186	33.94
761.364	33.6
761.543	35.09
761.722	34.79
761.901	35.07
762.079	35.17
762.258	35.99
762.437	35.88
762.615	35.76
762.794	37.28
762.972	36.8
763.151	35.94
763.33	35.32
763.508	35.13
763.687	35.84
763.865	35.67
764.044	35.86
764.222	35.77
764.401	34.97
764.579	35.32
764.758	35.22
764.936	34.81
765.114	34.92
765.293	35.6
765.471	35.75
765.65	34.88
765.828	34.86
766.006	34.63
766.184	34.06
766.363	34.97
766.541	34.98
766.719	35.28
766.898	35.74
767.076	36.66
767.254	36.23
767.432	35.92
767.61	36.95
767.788	36.14
767.967	35.25
768.145	36.8
768.323	36.28
768.501	36.47
768.679	35.24
768.857	35.44
769.035	34.11
769.213	34.38
769.391	33.95
769.569	33.59
769.747	33.28
769.925	35.22
770.103	34.34
770.281	34.2
770.459	33.84
770.636	34.47
770.814	35.66
770.992	36.17
771.17	37.43
771.348	37.72
771.525	36.93
771.703	38.59
771.881	38.11
772.059	36.63
772.236	37.81
772.414	37.17
772.592	35.55
772.769	35.45
772.947	35.6
773.125	33.2
773.302	32.21
773.48	32.18
773.657	31.91
773.835	30.77
774.013	32.31
774.19	30.45
774.368	31.02
774.545	32.8
774.723	32.56
774.9	31.79
775.077	32.45
775.255	34.15
775.432	34.14
775.61	35.77
775.787	36.95
775.964	35.9
776.142	36.52
776.319	36.77
776.496	36.71
776.674	37.8
776.851	37.62
777.028	37.86
777.205	36.2
777.382	37.81
777.56	35.72
777.737	34.88
777.914	35.81
778.091	37.45
778.268	36.73
778.445	36.33
778.622	34.34
778.8	34.45
778.977	36.06
779.154	42.49
779.331	41.97
779.508	42.64
779.685	42.73
779.862	42.83
780.038	41.77
780.215	42.34
780.392	43.92
780.569	42.95
780.746	43.7
780.923	40.29
781.1	32.69
781.277	34.28
781.453	33.38
781.63	31.18
781.807	29.92
781.984	29.69
782.16	29.31
782.337	27.63
782.514	28.76
782.691	30.5
782.867	32.01
783.044	32.65
783.221	31.8
783.397	31.29
783.574	34.92
783.75	35.46
783.927	35.74
784.103	35.93
784.28	34.71
784.456	33.96
784.633	32.16
784.809	33.94
784.986	34.66
785.162	32.22
785.339	31.79
785.515	30.58
785.692	31.55
785.868	31.7
786.044	31.96
786.221	31.41
786.397	31.98
786.573	31.27
786.749	31.32
786.926	33.18
787.102	34.25
787.278	36.12
787.454	36.07
787.631	36
787.807	35.87
787.983	36.9
788.159	39.54
788.335	38.21
788.511	39.63
788.687	38.56
788.863	37.63
789.039	37
789.216	37.66
789.392	37.02
789.568	33.1
789.744	33.55
789.919	33.22
790.095	33.66
790.271	36.4
790.447	35.86
790.623	34.96
790.799	34.35
790.975	35.99
791.151	34.72
791.327	36.6
791.502	42.02
791.678	43.2
791.854	42.8
792.03	40.87
792.205	38.25
792.381	38.28
792.557	40.64
792.733	41.2
792.908	40.21
793.084	39.69
793.259	38.9
793.435	35.27
793.611	32.48
793.786	31.15
793.962	31.32
794.137	35.73
794.313	35.68
794.488	32.87
794.664	34.24
794.839	34.23
795.015	33.07
795.19	34
795.366	36.68
795.541	37.36
795.716	38.12
795.892	38.71
796.067	35.53
796.242	35.49
796.418	36.85
796.593	35.12
796.768	34.15
796.944	36.2
797.119	33.66
797.294	33.92
797.469	35.23
797.644	34.76
797.82	34.5
797.995	33.52
798.17	32.84
798.345	32.52
798.52	31.24
798.695	32.78
798.87	34.12
799.045	34.4
799.22	33.18
799.395	30.9
799.57	30.51
799.745	30.95
799.92	33.77
800.095	35.19
800.27	35.18
800.445	38.25
800.62	38.15
800.795	34.22
800.97	35.73
801.145	36.17
801.319	37.15
801.494	36.76
801.669	35.39
801.844	33.74
802.018	32.5
802.193	31.9
802.368	31.71
802.543	32.38
802.717	32.49
802.892	32.41
803.067	31.99
803.241	32.59
803.416	33.39
803.59	32.89
803.765	30.4
803.94	31.67
804.114	30.75
804.289	26.42
804.463	26.28
804.638	27.77
804.812	25.14
804.986	25.33
805.161	26.24
805.335	25.37
805.51	28.06
805.684	28.57
805.858	24.5
806.033	25
806.207	28.21
806.381	24.3
806.556	25.26
806.73	26.53
806.904	24.58
807.078	25.23
807.253	29.88
807.427	26.91
807.601	26.42
807.775	30.2
807.949	32.44
808.123	31.75
808.298	33.13
808.472	33.54
808.646	34.37
808.82	33.91
808.994	31.95
809.168	28.22
809.342	29.65
809.516	30.44
809.69	27.16
809.864	26.94
810.038	26.03
810.212	29.85
810.385	27.76
810.559	27.2
810.733	30.49
810.907	28.84
811.081	30.8
811.255	29.96
811.428	31.11
811.602	35.92
811.776	38.24
811.95	39.24
812.123	37.85
812.297	37.8
812.471	40.41
812.644	41.93
812.818	43.62
812.992	41.31
813.165	46.55
813.339	48.51
813.512	42.98
813.686	41.61
813.86	41.14
814.033	37.31
814.207	41.41
814.38	41.8
814.554	38.93
814.727	38.66
814.9	36.7
815.074	33.34
815.247	33.97
815.421	36.6
815.594	34.4
815.767	33.3
815.941	35.99
816.114	34.95
816.287	34.65
816.46	35.36
816.634	33.29
816.807	35.5
816.98	34.33
817.153	33.63
817.327	31.83
817.5	33.51
817.673	37.78
817.846	36.61
818.019	36.3
818.192	35.85
818.365	37.54
818.538	41.55
818.711	40.63
818.884	39.19
819.057	36.59
819.23	38.28
819.403	37.19
819.576	32.47
819.749	34.89
819.922	32.7
820.095	30.21
820.268	28.1
820.441	26.93
820.614	28.43
820.786	30.52
820.959	32.96
821.132	32.87
821.305	33.23
821.477	35.54
821.65	34.63
821.823	35.58
821.996	35.8
822.168	36.02
822.341	36.94
822.514	37.39
822.686	36.59
822.859	35.76
823.031	36.37
823.204	36.45
823.376	36.52
823.549	36.77
823.722	36.55
823.894	37.01
824.067	37.15
824.239	36.62
824.411	36.13
824.584	37.17
824.756	37.7
824.929	37.06
825.101	36.91
825.273	35.81
825.446	35.5
825.618	36.13
825.79	36.07
825.963	35.32
826.135	35.33
826.307	35.8
826.479	36.14
826.652	35.94
826.824	37.09
826.996	37.31
827.168	38.33
827.34	38.78
827.512	38.85
827.684	39.1
827.856	39.86
828.029	40.37
828.201	40.3
828.373	38.9
828.545	39
828.717	38.14
828.889	38.15
829.061	37.96
829.232	37.65
829.404	36.31
829.576	36.46
829.748	37.27
829.92	35.92
830.092	35.62
830.264	36.22
830.436	36.32
830.607	37.42
830.779	37
830.951	37.79
831.123	37.77
831.294	38.58
831.466	36.34
831.638	34.82
831.809	36.2
831.981	36.38
832.153	36.92
832.324	37.93
832.496	36.74
832.667	36.04
832.839	35.12
833.011	37.62
833.182	38.13
833.354	40.87
833.525	40.19
833.697	40.4
833.868	39.8
834.039	38.86
834.211	40.4
834.382	39.44
834.554	39.12
834.725	38.29
834.896	38.03
835.068	37.88
835.239	36.48
835.41	38.19
835.581	36.99
835.753	35.11
835.924	35.85
836.095	34.08
836.266	36.63
836.438	38.8
836.609	40.91
836.78	39.2
836.951	37.08
837.122	37.85
837.293	34.9
837.464	36.47
837.635	40.04
837.806	38.64
837.977	36.11
838.148	34.29
838.319	32.12
838.49	29.9
838.661	31.64
838.832	34.53
839.003	35.59
839.174	30.78
839.345	30.86
839.516	31.76
839.687	31.57
839.857	34.01
840.028	28.09
840.199	29.27
840.37	31.83
840.54	28.67
840.711	30.97
840.882	29.6
841.053	36.38
841.223	32.35
841.394	29.12
841.564	30.66
841.735	34.5
841.906	31.53
842.076	29.1
842.247	30.49
842.417	32.3
842.588	29.17
842.758	36.03
842.929	41.97
843.099	44.11
843.27	49.12
843.44	48.35
843.611	43.07
843.781	46.81
843.951	45.37
844.122	43.33
844.292	44.47
844.462	47.69
844.633	41.52
844.803	34.85
844.973	32.44
845.144	26.1
845.314	25.88
845.484	30.19
845.654	30.84
845.824	30.76
845.995	25.19
846.165	23.13
846.335	25.03
846.505	17.42
846.675	27.2
846.845	32.88
847.015	34.74
847.185	38.61
847.355	31.32
847.525	35.6
847.695	30.18
847.865	28.48
848.035	30.69
848.205	20.77
848.375	33.59
848.545	27.18
848.715	30.8
848.884	21.98
849.054	9.08
849.224	12.8
849.394	26.88
849.564	40.34
849.733	44.65
849.903	46.26
850.073	45.09
850.243	28.08
850.412	34.88
850.582	14.75
850.752	9.2
850.921	6.49
851.091	11.78
851.26	-19.76
851.43	-52.12
851.599	-46.74
851.769	-70.68
851.939	-56.56
852.108	-58.85
852.278	-44.41
852.447	-32.74
852.616	-12.37
852.786	-8.56
852.955	-9.78
853.125	1.81
853.294	14.47
853.463	21.67
853.633	16.15
853.802	21.92
853.971	28.92
854.141	34.22
854.31	43.77
854.479	45.9
854.648	50.95
854.818	48.41
854.987	41.68
855.156	38.12
855.325	40.74
855.494	41.62
855.663	38.33
855.832	29.9
856.001	19.03
856.171	18.35
856.34	24.68
856.509	13.61
856.678	21.72
856.847	36.96
857.016	43.22
857.185	53.17
857.353	69.2
857.522	66.11
857.691	66.14
857.86	64.02
858.029	70.46
858.198	55.85
858.367	56.28
858.535	36.26
858.704	23.44
858.873	12.1
859.042	-33.47
859.21	-45.62
859.379	-40.36
859.548	-34.47
859.717	-29.22
859.885	-31.77
860.054	-16.23
860.222	-5.32
860.391	12.7
860.56	25.49
860.728	36.78
860.897	54.19
861.065	40.09
861.234	45.75
861.402	43.54
861.571	39.36
861.739	37.61
861.908	23.79
862.076	14.43
862.244	20.75
862.413	16.03
862.581	11.23
862.749	-3.06
862.918	-4.84
863.086	-37.02
863.254	-26.01
863.423	-54.18
863.591	-39.7
863.759	-54.23
863.927	-24.08
864.096	-28.54
864.264	-71.19
864.432	-58.06
864.6	-35.7
864.768	-17.63
864.936	21.63
865.104	10.05
865.272	23.57
865.44	29.27
865.608	33.44
865.776	14.45
865.944	14.85
866.112	34.39
866.28	36.94
866.448	34.39
866.616	48.99
866.784	43.62
866.952	44.24
867.12	27.77
867.288	30.87
867.455	35.65
867.623	46.06
867.791	56.95
867.959	46.46
868.127	21.23
868.294	13.5
868.462	16.13
868.63	12.62
868.797	12.91
868.965	23.92
869.133	25.48
869.3	14.76
869.468	26.73
869.636	18.34
869.803	18.54
869.971	30.37
870.138	36.22
870.306	34.95
870.473	38.59
870.641	31.75
870.808	35.67
870.975	38.54
871.143	43.26
871.31	18.14
871.478	17.18
871.645	15.7
871.812	19.54
871.98	30.54
872.147	25.68
872.314	29.03
872.482	21.95
872.649	11.37
872.816	11.58
872.983	19.39
873.15	25.7
873.318	26.76
873.485	31.14
873.652	21.23
873.819	17.46
873.986	16.69
874.153	20.03
874.32	28.13
874.487	30.55
874.654	33.63
874.821	29.27
874.988	32.49
875.155	37.38
875.322	29.96
875.489	35.98
875.656	31.67
875.823	28.27
875.99	18.27
876.157	22.68
876.324	30.16
876.49	23.52
876.657	27.21
876.824	21.73
876.991	23.62
877.157	27.51
877.324	22.33
877.491	31.68
877.658	36.88
877.824	37.09
877.991	42.86
878.157	21.18
878.324	19.21
878.491	17.98
878.657	34.19
878.824	3.39
878.99	2.38
879.157	0.31
879.323	3.25
879.49	8.28
879.656	15.72
879.823	17.53
879.989	31.15
880.156	30.49
880.322	27.97
880.488	20.17
880.655	32.29
880.821	32.28
880.987	32.71
881.154	28.14
881.32	27.82
881.486	29.59
881.652	24.42
881.819	21.62
881.985	23.29
882.151	25.86
882.317	28.43
882.483	27.74
882.649	24.71
882.816	26.17
882.982	27.65
883.148	26.5
883.314	27.46
883.48	29.79
883.646	32.81
883.812	32.09
883.978	31.32
884.144	31.4
884.31	30.27
884.476	33.76
884.642	35.08
884.807	36.14
884.973	37.28
885.139	37.24
885.305	35.97
885.471	35.24
885.637	37.74
885.802	38.4
885.968	38.31
886.134	40.18
886.3	39.13
886.465	37.8
886.631	37.98
886.797	38.14
886.962	37.24
887.128	40.76
887.293	38.03
887.459	37.51
887.625	36.19
887.79	31.21
887.956	24.35
888.121	19.73
888.287	19.53
888.452	14.1
888.618	9.81
888.783	3.24
