Data from CB_049_Reflection_2.txt Node
Date: Wed Nov 11 22:36:01 EST 2015
User: robert
Spectrometer: USB4E03001
Autoset integration time: false
Trigger mode: 4
Integration Time (sec): 1.000000E-1
Scans to average: 15
Electric dark correction enabled: true
Nonlinearity correction enabled: false
Boxcar width: 5
Stray light correction enabled: false
XAxis mode: Wavelengths
Stop averaging: false
Number of Pixels in Spectrum: 3648
>>>>>Begin Spectral Data<<<<<
177.566	-252.92
177.785	-1246.71
178.005	208.68
178.225	278.84
178.445	51.39
178.665	66.08
178.885	683.92
179.105	-40.27
179.324	64.1
179.544	51.71
179.764	103.01
179.984	66.15
180.204	84.9
180.423	160.73
180.643	134.52
180.863	109.68
181.083	120.76
181.302	116.88
181.522	107.46
181.742	97.43
181.961	130.45
182.181	125.44
182.401	111.87
182.621	140.7
182.84	104.44
183.06	108.12
183.279	109.27
183.499	99.32
183.719	116.16
183.938	117.62
184.158	127.64
184.377	111.18
184.597	126.09
184.816	166.06
185.036	119.07
185.256	138.52
185.475	149.91
185.695	209.03
185.914	280.4
186.134	296.91
186.353	290.13
186.572	216.68
186.792	253.82
187.011	200.07
187.231	133.21
187.45	175.21
187.67	136.42
187.889	91.59
188.108	73.68
188.328	73.91
188.547	63.65
188.766	73.8
188.986	65.52
189.205	50.6
189.424	53.42
189.644	90.08
189.863	100.4
190.082	99.35
190.302	103.3
190.521	103.93
190.74	94.43
190.959	82.93
191.178	76.9
191.398	94.74
191.617	113.88
191.836	128.76
192.055	117.32
192.274	105.96
192.494	125.77
192.713	157.43
192.932	160.67
193.151	168.06
193.37	187.53
193.589	192.5
193.808	199.59
194.027	192.17
194.246	178.45
194.465	165.79
194.685	172.7
194.904	163.55
195.123	145.36
195.342	148.54
195.561	148.75
195.78	151.54
195.999	192.41
196.218	164.31
196.436	139.31
196.655	163.33
196.874	168.41
197.093	170.93
197.312	134.99
197.531	142.68
197.75	113.4
197.969	118.81
198.188	96.86
198.407	91.22
198.625	95.93
198.844	93.74
199.063	80.62
199.282	84.4
199.501	75.9
199.719	57.57
199.938	86.79
200.157	160.03
200.376	115.43
200.594	182.6
200.813	135.81
201.032	146.83
201.251	227.4
201.469	180.92
201.688	153.69
201.907	116.28
202.125	105.71
202.344	89.61
202.563	99.16
202.781	97.41
203	87.67
203.218	82.23
203.437	88.88
203.656	71.06
203.874	72.7
204.093	75.54
204.311	104.47
204.53	131.67
204.748	130.6
204.967	120.46
205.185	129.02
205.404	139.28
205.622	154.58
205.841	135.99
206.059	127.97
206.278	136.22
206.496	127.07
206.715	95.31
206.933	100.83
207.151	102.73
207.37	96.63
207.588	91.6
207.806	80.29
208.025	85.73
208.243	84.78
208.461	94.6
208.68	94.95
208.898	97.53
209.116	91.66
209.335	87.07
209.553	68.28
209.771	71.76
209.989	80.28
210.208	80.83
210.426	70.28
210.644	66.45
210.862	79.37
211.081	85.59
211.299	112.57
211.517	139.15
211.735	122.75
211.953	142.65
212.171	137.05
212.39	128.03
212.608	134.29
212.826	120.78
213.044	137.4
213.262	118.17
213.48	133.87
213.698	146.8
213.916	154.53
214.134	169.15
214.352	185.48
214.57	131.65
214.788	185.03
215.006	183.22
215.224	161.44
215.442	140.57
215.66	210.15
215.878	126.62
216.096	83.16
216.314	91.58
216.532	72.45
216.75	80.78
216.968	97.68
217.185	74.55
217.403	72.03
217.621	70.59
217.839	64.38
218.057	57.03
218.275	68.67
218.492	79.69
218.71	76.62
218.928	85.4
219.146	79.9
219.363	90.68
219.581	110.41
219.799	135.22
220.017	168.48
220.234	162.33
220.452	214.51
220.67	150.66
220.887	143.76
221.105	170.52
221.323	179.48
221.54	189.53
221.758	146.31
221.976	135.7
222.193	98.32
222.411	85.57
222.629	94.23
222.846	79.99
223.064	74.45
223.281	69.24
223.499	60.83
223.716	61.87
223.934	59.73
224.151	46.3
224.369	37.63
224.586	37.83
224.804	45.52
225.021	42.95
225.239	47.72
225.456	43.15
225.674	45.26
225.891	45.6
226.108	45.98
226.326	37.38
226.543	46.25
226.76	41.29
226.978	41.55
227.195	43.71
227.413	38.27
227.63	39.72
227.847	36.53
228.064	33.32
228.282	27.94
228.499	27.5
228.716	27.12
228.934	25
229.151	22.3
229.368	22.31
229.585	21.15
229.802	21.31
230.02	17.88
230.237	20.08
230.454	18.95
230.671	19.09
230.888	19.85
231.105	21.11
231.323	23.36
231.54	28.01
231.757	28.61
231.974	28.87
232.191	26.4
232.408	28.89
232.625	29.23
232.842	32.78
233.059	35.42
233.276	30.11
233.493	30.78
233.71	30.39
233.927	29.2
234.144	28.73
234.361	29.55
234.578	32.38
234.795	29.59
235.012	28.39
235.229	29.54
235.446	31.15
235.663	35.29
235.879	32.45
236.096	33.07
236.313	30.88
236.53	34.3
236.747	39.43
236.964	41.23
237.181	42.29
237.397	42.67
237.614	42.76
237.831	45.03
238.048	45.01
238.264	46.3
238.481	42.61
238.698	44.88
238.915	41.89
239.131	33.05
239.348	30.59
239.565	28.24
239.781	26.42
239.998	26.68
240.215	23.65
240.431	22.15
240.648	26.05
240.865	23.64
241.081	24.89
241.298	21.87
241.514	23.02
241.731	23.79
241.947	22.68
242.164	22.63
242.38	22.13
242.597	21.14
242.814	21.06
243.03	20.25
243.246	21.97
243.463	20.01
243.679	21.31
243.896	22.16
244.112	22.53
244.329	25.02
244.545	24.49
244.762	23.56
244.978	24.05
245.194	22.83
245.411	19.31
245.627	18.49
245.843	20.85
246.06	20.21
246.276	17.8
246.492	16.02
246.709	14.07
246.925	14.49
247.141	15.32
247.357	15.48
247.574	15.16
247.79	15.64
248.006	15.64
248.222	14.32
248.439	13.83
248.655	14.92
248.871	14.71
249.087	15.69
249.303	15.42
249.519	14.53
249.736	14.66
249.952	15.2
250.168	16
250.384	14.48
250.6	16.04
250.816	17.14
251.032	14.41
251.248	16.64
251.464	15.72
251.68	17.26
251.896	17.49
252.112	17.14
252.328	15.08
252.544	15.04
252.76	15.79
252.976	14.52
253.192	12.52
253.408	15.15
253.624	15.3
253.84	14.73
254.056	12.99
254.272	15.85
254.487	13.88
254.703	17.39
254.919	17.26
255.135	16.68
255.351	20.4
255.567	24.78
255.782	23.49
255.998	22.68
256.214	21.67
256.43	24.07
256.646	20.43
256.861	21.62
257.077	21.7
257.293	20.22
257.508	20.29
257.724	18.14
257.94	17.35
258.155	16.43
258.371	15.63
258.587	16.38
258.802	15.32
259.018	15.17
259.234	13.83
259.449	13.07
259.665	13.1
259.88	12.69
260.096	12.1
260.312	10.97
260.527	11.49
260.743	11.47
260.958	11.54
261.174	10.9
261.389	11.14
261.605	12.02
261.82	11.78
262.036	12.55
262.251	14.64
262.466	16.25
262.682	17.86
262.897	17.71
263.113	17.6
263.328	17.38
263.543	18.42
263.759	16.97
263.974	18.21
264.189	18.2
264.405	16.19
264.62	13.39
264.835	11.61
265.051	12.9
265.266	13.42
265.481	15.04
265.696	15.44
265.912	15.25
266.127	16.22
266.342	15.67
266.557	16.36
266.773	16.82
266.988	17.19
267.203	15.77
267.418	15.6
267.633	16.36
267.848	16.49
268.064	16.5
268.279	17.16
268.494	16.24
268.709	16.65
268.924	16.58
269.139	16.58
269.354	17.91
269.569	20.38
269.784	20.25
269.999	18.31
270.214	16.8
270.429	16.36
270.644	15.07
270.859	16.72
271.074	15.3
271.289	16.06
271.504	17.22
271.719	15.46
271.934	14.14
272.149	13.33
272.363	14.03
272.578	14.43
272.793	14.62
273.008	14.72
273.223	13.17
273.438	13.19
273.653	13.94
273.867	13.85
274.082	14.63
274.297	14.7
274.512	15.31
274.726	14.05
274.941	14.16
275.156	14.4
275.371	15.09
275.585	16.34
275.8	16.94
276.015	14.89
276.229	14.05
276.444	13.44
276.659	13.89
276.873	13.49
277.088	15.63
277.302	16.72
277.517	17.1
277.732	16.98
277.946	16.13
278.161	17.25
278.375	17.32
278.59	17.54
278.804	17.33
279.019	18.31
279.233	17.61
279.448	16.26
279.662	15.53
279.877	14.11
280.091	14.66
280.306	15.22
280.52	14.17
280.735	14.19
280.949	14.26
281.163	15.53
281.378	14.7
281.592	14.17
281.806	15.44
282.021	15.45
282.235	16.52
282.449	15.52
282.664	14.68
282.878	13.33
283.092	13.3
283.307	14.09
283.521	13.33
283.735	13.41
283.949	15.17
284.164	14.24
284.378	13.28
284.592	13.01
284.806	12.88
285.02	12.85
285.234	13.71
285.449	13.38
285.663	12.22
285.877	12.75
286.091	12.26
286.305	11.35
286.519	11.1
286.733	11.79
286.947	11.43
287.161	11.66
287.375	12.5
287.589	12.3
287.803	12.89
288.017	11.78
288.231	11.07
288.445	11.61
288.659	11.6
288.873	12.53
289.087	12
289.301	12.39
289.515	12.66
289.729	12.62
289.943	13.17
290.157	13.57
290.371	14.8
290.584	15.37
290.798	16.05
291.012	16.85
291.226	16.9
291.44	17.06
291.654	17.23
291.867	17.3
292.081	16.77
292.295	16.94
292.509	15.65
292.722	15.13
292.936	14.19
293.15	13.72
293.364	13.6
293.577	13.41
293.791	13.78
294.005	12.77
294.218	12.97
294.432	13.55
294.645	12.79
294.859	11.89
295.073	11.71
295.286	11.41
295.5	11.43
295.713	10.21
295.927	9.71
296.14	9.84
296.354	10.71
296.568	10.81
296.781	11.02
296.994	11.04
297.208	12.9
297.421	13.2
297.635	14.32
297.848	14.01
298.062	14.19
298.275	14.48
298.489	14.35
298.702	14.3
298.915	13.99
299.129	14.89
299.342	15.03
299.555	15.31
299.769	15.94
299.982	14.91
300.195	16.01
300.409	16.64
300.622	17.34
300.835	16.75
301.048	16.49
301.262	16.72
301.475	15.49
301.688	16.02
301.901	15.66
302.115	15.36
302.328	16.04
302.541	14.72
302.754	14.26
302.967	13.59
303.18	15.54
303.393	15.74
303.607	15.83
303.82	16.12
304.033	15.48
304.246	14.23
304.459	13.72
304.672	13.65
304.885	14.3
305.098	14.89
305.311	15.26
305.524	13.48
305.737	13.52
305.95	13.08
306.163	12.26
306.376	12.86
306.589	13.34
306.802	14.34
307.015	14.7
307.228	14.76
307.44	14.63
307.653	14.75
307.866	15.22
308.079	16.62
308.292	17.17
308.505	17.55
308.718	17.63
308.93	18.24
309.143	17.24
309.356	17.98
309.569	17.48
309.781	17.35
309.994	16.75
310.207	17.05
310.42	15.22
310.632	16.31
310.845	16.45
311.058	15.89
311.27	15.79
311.483	16.46
311.696	15.89
311.908	17.24
312.121	17
312.333	16.96
312.546	16.63
312.759	17.37
312.971	17
313.184	17.53
313.396	17.12
313.609	17.51
313.821	17.88
314.034	17.17
314.246	15.9
314.459	16.75
314.671	17.11
314.884	17.35
315.096	17.91
315.309	16.51
315.521	14.97
315.733	16.39
315.946	16.41
316.158	15.35
316.371	15.27
316.583	14.94
316.795	15.06
317.008	15.35
317.22	15.43
317.432	14.49
317.644	15.53
317.857	17.04
318.069	16.42
318.281	14.61
318.494	14.97
318.706	16.38
318.918	16.4
319.13	16.92
319.342	17.24
319.555	16.98
319.767	17.45
319.979	16.99
320.191	16.93
320.403	18.5
320.615	20.29
320.827	20.24
321.039	19.62
321.252	20.16
321.464	19.86
321.676	19.4
321.888	19.57
322.1	19.65
322.312	19.42
322.524	18.97
322.736	17.42
322.948	16.66
323.16	17.34
323.372	16.94
323.584	16.8
323.796	15.49
324.007	15.76
324.219	16.19
324.431	16.21
324.643	16.97
324.855	17.39
325.067	18.1
325.279	18.5
325.491	19.3
325.702	19.43
325.914	19.64
326.126	20.93
326.338	20.16
326.55	20.16
326.761	20.78
326.973	20.49
327.185	20.43
327.396	21.21
327.608	21.66
327.82	20.76
328.032	21.48
328.243	21.6
328.455	20.9
328.666	22.48
328.878	21.98
329.09	21.83
329.301	21.4
329.513	21.06
329.725	19.38
329.936	19.39
330.148	18.42
330.359	17.23
330.571	17.4
330.782	18.51
330.994	18.22
331.205	18.88
331.417	19.23
331.628	20.47
331.84	21.09
332.051	22.25
332.262	21.99
332.474	23.72
332.685	24.73
332.897	24.86
333.108	25.4
333.319	25.5
333.531	25.76
333.742	25.78
333.953	25.64
334.165	25.54
334.376	26.24
334.587	26.11
334.799	25.77
335.01	25.89
335.221	25.71
335.432	25.27
335.644	25.27
335.855	25.16
336.066	24.74
336.277	24.92
336.488	24.85
336.7	23.98
336.911	23.89
337.122	23.52
337.333	23.38
337.544	23.67
337.755	23.95
337.966	23.86
338.177	23.75
338.388	23.96
338.599	23.35
338.811	22.67
339.022	22.76
339.233	22.75
339.444	22.79
339.655	22.79
339.866	22.3
340.076	21.61
340.287	22.02
340.498	21.98
340.709	21.73
340.92	22.17
341.131	22.66
341.342	22.94
341.553	23.37
341.764	23.5
341.975	23.05
342.185	23.01
342.396	23.03
342.607	22.02
342.818	21.77
343.029	21.56
343.239	21.22
343.45	20.47
343.661	19.53
343.872	19.05
344.082	18.55
344.293	19.38
344.504	19.39
344.714	19.94
344.925	20.1
345.136	20.58
345.346	21.3
345.557	21.1
345.768	21.94
345.978	22.95
346.189	24.33
346.399	24.33
346.61	24.31
346.821	23.8
347.031	23.91
347.242	23.87
347.452	24.22
347.663	24.19
347.873	24.48
348.084	24.1
348.294	24.4
348.504	23.26
348.715	24.21
348.925	23.84
349.136	24.05
349.346	23.4
349.557	23.42
349.767	23.57
349.977	23.22
350.188	22.97
350.398	22.73
350.608	22.51
350.819	22.9
351.029	22.04
351.239	21.61
351.449	22.35
351.66	21.51
351.87	22.03
352.08	21.3
352.29	21.77
352.501	23.19
352.711	24.08
352.921	23.61
353.131	23.66
353.341	23.76
353.552	23.64
353.762	23.47
353.972	24.34
354.182	23.07
354.392	23.23
354.602	22.76
354.812	20.72
355.022	20.45
355.232	20.55
355.442	20.25
355.652	20.22
355.862	20.86
356.072	20.42
356.282	20.54
356.492	21.36
356.702	21.08
356.912	20.42
357.122	20.97
357.332	21.02
357.542	20.87
357.752	20.48
357.962	20.14
358.171	19.87
358.381	19.68
358.591	19.16
358.801	18.63
359.011	18.18
359.221	18.54
359.43	18.8
359.64	18.56
359.85	18.52
360.06	18.34
360.269	18.65
360.479	18.63
360.689	19.03
360.899	19.33
361.108	19.51
361.318	19.76
361.528	19.98
361.737	19.85
361.947	19.99
362.156	19.71
362.366	19.83
362.576	19.8
362.785	20.01
362.995	19.95
363.204	19.95
363.414	20.21
363.623	20.25
363.833	19.62
364.042	19.23
364.252	19.29
364.461	19.17
364.671	19.28
364.88	19.22
365.09	19.05
365.299	18.89
365.509	18.7
365.718	18.77
365.927	18.8
366.137	18.81
366.346	19.13
366.555	19.05
366.765	19.06
366.974	18.96
367.183	18.71
367.393	18.62
367.602	18.77
367.811	18.86
368.021	18.32
368.23	17.99
368.439	17.87
368.648	17.7
368.857	17.33
369.067	16.96
369.276	16.94
369.485	17.29
369.694	17.49
369.903	17.26
370.112	16.93
370.321	16.97
370.531	16.84
370.74	17.08
370.949	17.08
371.158	16.47
371.367	17.36
371.576	17.23
371.785	17
371.994	16.77
372.203	16.58
372.412	17.12
372.621	17.07
372.83	16.86
373.039	17.06
373.248	17.08
373.457	17.6
373.666	17.29
373.874	17.5
374.083	17.26
374.292	16.5
374.501	16.91
374.71	16.18
374.919	16.18
375.128	16.57
375.336	15.94
375.545	15.52
375.754	15.48
375.963	15.26
376.171	14.87
376.38	14.51
376.589	14.35
376.798	13.72
377.006	13.65
377.215	13.64
377.424	13.92
377.632	13.96
377.841	14.3
378.05	14.09
378.258	13.72
378.467	13.75
378.675	14.07
378.884	14.31
379.093	14.36
379.301	14.32
379.51	14.3
379.718	13.79
379.927	13.99
380.135	13.39
380.344	13.3
380.552	13.31
380.761	12.84
380.969	12.64
381.177	12.84
381.386	12.56
381.594	12.68
381.803	12.34
382.011	12.15
382.219	12.2
382.428	12.54
382.636	12.57
382.845	12.88
383.053	12.99
383.261	12.62
383.469	12.37
383.678	12.54
383.886	12.11
384.094	12.12
384.302	12.49
384.511	12.29
384.719	12.04
384.927	12.32
385.135	12.28
385.343	12.43
385.552	12.66
385.76	12.61
385.968	12.3
386.176	12.54
386.384	12.52
386.592	12.05
386.8	12.02
387.008	12.12
387.216	11.91
387.424	12.05
387.633	11.8
387.841	11.74
388.049	11.3
388.257	11.72
388.465	11.69
388.672	11.43
388.88	11.61
389.088	11.26
389.296	10.99
389.504	10.52
389.712	9.94
389.92	9.79
390.128	9.73
390.336	10.06
390.544	9.98
390.751	10.03
390.959	10.57
391.167	10.21
391.375	10.12
391.583	10.38
391.79	10.37
391.998	10.77
392.206	10.82
392.414	10.83
392.621	10.41
392.829	10.44
393.037	10.21
393.244	9.94
393.452	10.03
393.66	10.38
393.867	10.06
394.075	10.06
394.283	9.78
394.49	10.05
394.698	10.15
394.905	10.62
395.113	10.39
395.32	10.38
395.528	10.39
395.735	10.48
395.943	10.06
396.15	10.32
396.358	10.53
396.565	10.72
396.773	10.24
396.98	10.05
397.188	10.19
397.395	10.28
397.602	10.44
397.81	10.53
398.017	10.4
398.225	10.44
398.432	10.15
398.639	10.24
398.847	9.75
399.054	9.75
399.261	9.72
399.468	9.49
399.676	9.25
399.883	9.13
400.09	8.51
400.297	8.38
400.505	8.14
400.712	8.33
400.919	7.95
401.126	8.09
401.333	8.31
401.54	8.14
401.748	8.1
401.955	8.51
402.162	8.38
402.369	8.75
402.576	8.86
402.783	9.35
402.99	8.85
403.197	8.68
403.404	8.67
403.611	8.95
403.818	9.09
404.025	8.98
404.232	8.61
404.439	8.64
404.646	8.34
404.853	8.16
405.06	8.02
405.267	8.26
405.474	8.31
405.681	8.17
405.887	8.04
406.094	7.96
406.301	8.01
406.508	8.16
406.715	8.06
406.922	8.45
407.128	8.62
407.335	8.53
407.542	8.46
407.749	8.47
407.955	8.53
408.162	8.25
408.369	8.01
408.575	7.81
408.782	7.9
408.989	7.93
409.195	7.68
409.402	7.67
409.609	7.83
409.815	7.65
410.022	7.82
410.228	7.57
410.435	7.43
410.642	7.26
410.848	7.18
411.055	7.01
411.261	6.92
411.468	6.93
411.674	6.96
411.881	6.74
412.087	6.96
412.294	7.26
412.5	7.6
412.706	7.67
412.913	7.92
413.119	8.35
413.326	8.22
413.532	8.36
413.738	8.46
413.945	8.06
414.151	8.37
414.357	8.31
414.564	7.87
414.77	7.57
414.976	7.67
415.182	7.74
415.389	7.22
415.595	6.98
415.801	6.6
416.007	6.4
416.214	6.38
416.42	6.28
416.626	6.27
416.832	6.21
417.038	6.47
417.244	6.35
417.45	6.3
417.657	6.45
417.863	6.67
418.069	6.8
418.275	6.89
418.481	7.01
418.687	6.94
418.893	7.02
419.099	7.31
419.305	7.05
419.511	7.06
419.717	7.2
419.923	7.13
420.129	7.05
420.335	7.04
420.541	7.05
420.746	6.9
420.952	6.81
421.158	6.55
421.364	6.21
421.57	6.24
421.776	6.3
421.982	6.17
422.187	6.16
422.393	6.06
422.599	6.01
422.805	5.93
423.01	5.97
423.216	5.98
423.422	6.16
423.628	6.24
423.833	6.19
424.039	6.11
424.245	6.12
424.45	6.23
424.656	6.45
424.862	6.44
425.067	6.58
425.273	6.68
425.478	6.69
425.684	6.79
425.889	6.87
426.095	7.01
426.301	6.93
426.506	7.01
426.712	6.87
426.917	6.67
427.123	6.7
427.328	6.53
427.533	6.25
427.739	6.3
427.944	6.1
428.15	6.14
428.355	6.18
428.561	6.22
428.766	5.95
428.971	6.19
429.177	6.43
429.382	6.43
429.587	6.38
429.793	6.6
429.998	6.29
430.203	6.26
430.408	6.11
430.614	6.17
430.819	6.13
431.024	6.43
431.229	6.38
431.434	5.97
431.64	6.14
431.845	6.22
432.05	6.38
432.255	6.52
432.46	6.54
432.665	6.4
432.87	6.39
433.076	6.72
433.281	6.65
433.486	6.55
433.691	6.87
433.896	6.69
434.101	6.51
434.306	6.37
434.511	6.47
434.716	6.34
434.921	6.47
435.126	6.29
435.331	5.94
435.535	5.91
435.74	5.77
435.945	5.61
436.15	5.97
436.355	6.27
436.56	6.15
436.765	5.94
436.97	6.24
437.174	6.22
437.379	6.31
437.584	6.66
437.789	6.63
437.993	6.81
438.198	6.81
438.403	6.73
438.608	6.65
438.812	6.69
439.017	6.86
439.222	6.76
439.426	6.7
439.631	6.56
439.836	6.42
440.04	6.24
440.245	6.15
440.45	6.07
440.654	6.03
440.859	6.02
441.063	6
441.268	5.85
441.472	5.9
441.677	5.9
441.881	6.09
442.086	6.15
442.29	6.32
442.495	6.35
442.699	6.53
442.904	6.41
443.108	6.29
443.312	6.44
443.517	6.59
443.721	6.52
443.925	6.65
444.13	6.54
444.334	6.3
444.538	6.22
444.743	6.24
444.947	6.05
445.151	5.9
445.356	6.12
445.56	6.04
445.764	6.04
445.968	6.02
446.173	5.89
446.377	5.86
446.581	6.02
446.785	6.08
446.989	5.98
447.193	6.04
447.398	6.06
447.602	5.87
447.806	5.91
448.01	6.03
448.214	5.99
448.418	6
448.622	5.9
448.826	5.73
449.03	5.73
449.234	5.82
449.438	5.92
449.642	6.08
449.846	6.17
450.05	6.31
450.254	5.97
450.458	6.03
450.662	6.17
450.866	6.34
451.069	6.33
451.273	5.96
451.477	5.89
451.681	5.78
451.885	5.62
452.089	5.57
452.292	5.4
452.496	5.58
452.7	5.53
452.904	5.41
453.107	5.53
453.311	5.66
453.515	5.94
453.719	6.11
453.922	6.04
454.126	6.11
454.33	6.12
454.533	6.21
454.737	6.24
454.94	6.4
455.144	6.38
455.348	6.27
455.551	6.21
455.755	6.14
455.958	6.09
456.162	6.2
456.365	6.43
456.569	6.5
456.772	6.52
456.976	6.19
457.179	6.2
457.383	6.37
457.586	6.35
457.79	6.25
457.993	6.12
458.196	5.92
458.4	5.75
458.603	5.59
458.807	5.53
459.01	5.51
459.213	5.65
459.417	5.54
459.62	5.46
459.823	5.46
460.026	5.5
460.23	5.54
460.433	5.65
460.636	5.67
460.839	5.77
461.042	5.84
461.246	5.8
461.449	5.82
461.652	5.78
461.855	5.89
462.058	6.05
462.261	6.03
462.464	6.12
462.668	6.13
462.871	6.32
463.074	6.09
463.277	6.07
463.48	6.16
463.683	6.29
463.886	6.31
464.089	6.12
464.292	6.16
464.495	6.14
464.698	6.4
464.901	6.28
465.104	6.14
465.306	6.2
465.509	6.13
465.712	5.93
465.915	5.92
466.118	5.99
466.321	6.07
466.524	6.01
466.726	6.07
466.929	5.88
467.132	5.95
467.335	6
467.538	6.17
467.74	6.33
467.943	6.45
468.146	6.35
468.348	6.26
468.551	6.12
468.754	6.02
468.956	5.91
469.159	5.83
469.362	5.88
469.564	6.03
469.767	5.87
469.969	5.77
470.172	5.7
470.375	5.77
470.577	5.96
470.78	6.14
470.982	6.12
471.185	6.39
471.387	6.38
471.59	6.31
471.792	6.16
471.995	6
472.197	6.03
472.399	5.94
472.602	5.94
472.804	5.98
473.007	6.04
473.209	5.97
473.411	5.78
473.614	5.84
473.816	5.82
474.018	5.85
474.22	5.96
474.423	5.97
474.625	5.95
474.827	5.95
475.03	5.91
475.232	5.61
475.434	5.7
475.636	5.57
475.838	5.55
476.04	5.44
476.243	5.4
476.445	5.42
476.647	5.37
476.849	5.56
477.051	5.49
477.253	5.48
477.455	5.64
477.657	5.52
477.859	5.69
478.061	5.82
478.263	5.84
478.465	5.92
478.667	5.78
478.869	5.91
479.071	5.9
479.273	6.07
479.475	6.04
479.677	6.08
479.879	6.2
480.081	6.25
480.283	6.12
480.485	6.25
480.686	6.1
480.888	6.31
481.09	6.17
481.292	6.14
481.494	6.02
481.695	6.02
481.897	5.82
482.099	5.76
482.301	5.66
482.502	5.63
482.704	5.6
482.906	5.56
483.107	5.52
483.309	5.43
483.511	5.4
483.712	5.41
483.914	5.37
484.115	5.41
484.317	5.36
484.519	5.36
484.72	5.43
484.922	5.35
485.123	5.42
485.325	5.36
485.526	5.4
485.728	5.43
485.929	5.39
486.131	5.44
486.332	5.49
486.534	5.53
486.735	5.47
486.936	5.39
487.138	5.51
487.339	5.43
487.541	5.48
487.742	5.58
487.943	5.55
488.144	5.56
488.346	5.52
488.547	5.5
488.748	5.47
488.95	5.52
489.151	5.42
489.352	5.38
489.553	5.39
489.755	5.36
489.956	5.28
490.157	5.31
490.358	5.31
490.559	5.24
490.76	5.15
490.961	5.18
491.163	5.29
491.364	5.41
491.565	5.54
491.766	5.53
491.967	5.56
492.168	5.53
492.369	5.48
492.57	5.45
492.771	5.48
492.972	5.54
493.173	5.54
493.374	5.48
493.575	5.5
493.776	5.28
493.976	5.44
494.177	5.4
494.378	5.46
494.579	5.57
494.78	5.67
494.981	5.76
495.182	5.82
495.382	6.03
495.583	6.02
495.784	6.04
495.985	6.18
496.185	6.12
496.386	6.18
496.587	6.08
496.788	6.07
496.988	6.02
497.189	5.94
497.39	5.97
497.59	5.89
497.791	5.94
497.992	6.01
498.192	6.08
498.393	5.9
498.593	6.07
498.794	6.07
498.994	6
499.195	6.23
499.395	6.3
499.596	6.36
499.796	6.42
499.997	6.6
500.197	6.67
500.398	6.71
500.598	6.87
500.799	6.67
500.999	6.91
501.199	6.99
501.4	6.95
501.6	7.03
501.801	6.97
502.001	7.05
502.201	6.92
502.402	6.85
502.602	6.69
502.802	6.7
503.002	6.82
503.203	6.79
503.403	6.86
503.603	6.89
503.803	7.1
504.003	7.13
504.204	7.05
504.404	7.23
504.604	7.2
504.804	7.41
505.004	7.6
505.204	7.72
505.404	7.65
505.604	7.69
505.804	7.67
506.005	7.55
506.205	7.65
506.405	7.8
506.605	7.7
506.805	7.89
507.005	7.93
507.204	7.98
507.404	8.04
507.604	8.17
507.804	8.3
508.004	8.37
508.204	8.32
508.404	8.33
508.604	8.38
508.804	8.46
509.003	8.55
509.203	8.56
509.403	8.49
509.603	8.52
509.803	8.58
510.002	8.65
510.202	8.74
510.402	8.92
510.602	9.11
510.801	9.15
511.001	9.3
511.201	9.26
511.4	9.35
511.6	9.47
511.8	9.55
511.999	9.54
512.199	9.48
512.398	9.57
512.598	9.66
512.797	9.68
512.997	9.81
513.197	9.75
513.396	9.79
513.596	9.83
513.795	9.91
513.994	10.01
514.194	9.99
514.393	10.14
514.593	10.07
514.792	10.16
514.992	10.25
515.191	10.15
515.39	10.35
515.59	10.55
515.789	10.61
515.988	10.78
516.188	10.7
516.387	10.95
516.586	11.22
516.786	11.36
516.985	11.55
517.184	11.54
517.383	11.8
517.582	11.87
517.782	11.95
517.981	11.99
518.18	11.96
518.379	12.17
518.578	12.37
518.777	12.26
518.976	12.39
519.176	12.34
519.375	12.59
519.574	12.65
519.773	12.7
519.972	12.66
520.171	12.75
520.37	12.87
520.569	13.01
520.768	13.08
520.967	13.39
521.166	13.44
521.365	13.51
521.564	13.65
521.762	13.65
521.961	13.83
522.16	14.04
522.359	14.13
522.558	14.25
522.757	14.06
522.956	14.11
523.154	13.99
523.353	14.06
523.552	14.29
523.751	14.39
523.949	14.39
524.148	14.34
524.347	14.48
524.546	14.79
524.744	15.02
524.943	15.31
525.142	15.4
525.34	15.53
525.539	15.7
525.737	15.71
525.936	15.68
526.135	15.94
526.333	16.11
526.532	16.12
526.73	16.09
526.929	16.07
527.127	16.11
527.326	16.2
527.524	16.38
527.723	16.4
527.921	16.54
528.12	16.63
528.318	16.7
528.516	16.73
528.715	16.77
528.913	16.86
529.112	16.91
529.31	16.88
529.508	16.95
529.707	16.89
529.905	16.9
530.103	16.9
530.301	16.91
530.5	16.89
530.698	17
530.896	17.16
531.094	17.29
531.293	17.47
531.491	17.69
531.689	17.83
531.887	18.01
532.085	18.32
532.283	18.41
532.481	18.54
532.68	18.6
532.878	18.69
533.076	18.76
533.274	18.76
533.472	18.79
533.67	18.89
533.868	18.91
534.066	18.97
534.264	18.96
534.462	18.96
534.66	19.06
534.858	19.14
535.056	19.24
535.253	19.26
535.451	19.35
535.649	19.29
535.847	19.43
536.045	19.54
536.243	19.73
536.441	19.84
536.638	20.06
536.836	20.15
537.034	20.18
537.232	20.25
537.43	20.34
537.627	20.44
537.825	20.72
538.023	20.7
538.22	20.67
538.418	20.68
538.616	20.48
538.813	20.68
539.011	20.73
539.209	20.93
539.406	20.98
539.604	21.11
539.801	21.19
539.999	21.23
540.196	21.29
540.394	21.46
540.591	21.44
540.789	21.73
540.986	21.55
541.184	21.55
541.381	21.59
541.579	21.65
541.776	21.59
541.974	21.61
542.171	21.62
542.368	21.61
542.566	21.62
542.763	21.69
542.96	21.56
543.158	21.67
543.355	21.75
543.552	21.73
543.75	21.74
543.947	21.77
544.144	21.76
544.341	21.85
544.539	21.99
544.736	21.99
544.933	22.1
545.13	22.36
545.327	22.56
545.524	22.49
545.722	22.54
545.919	22.55
546.116	22.73
546.313	22.83
546.51	22.88
546.707	22.9
546.904	22.98
547.101	22.9
547.298	22.86
547.495	22.67
547.692	22.65
547.889	22.68
548.086	22.81
548.283	22.87
548.48	23
548.677	22.98
548.874	23.04
549.07	23.2
549.267	23.45
549.464	23.62
549.661	23.98
549.858	24.43
550.055	24.6
550.251	24.59
550.448	24.69
550.645	24.68
550.842	24.67
551.038	24.82
551.235	24.91
551.432	24.87
551.628	24.94
551.825	25.01
552.022	24.86
552.218	24.77
552.415	24.87
552.612	24.9
552.808	24.77
553.005	24.88
553.201	24.88
553.398	24.8
553.594	24.9
553.791	24.94
553.987	24.76
554.184	24.82
554.38	25.17
554.577	25.28
554.773	25.42
554.97	25.8
555.166	25.77
555.362	26.08
555.559	26.24
555.755	26.19
555.952	26.32
556.148	26.56
556.344	26.52
556.541	26.38
556.737	26.33
556.933	26.33
557.129	26.17
557.326	26.26
557.522	26.14
557.718	26.06
557.914	26.11
558.11	26.2
558.307	26.15
558.503	26.19
558.699	26.4
558.895	26.31
559.091	26.38
559.287	26.44
559.483	26.3
559.679	26.23
559.876	26.35
560.072	26.43
560.268	26.19
560.464	26.36
560.66	26.49
560.856	26.39
561.052	26.54
561.247	26.4
561.443	26.48
561.639	26.6
561.835	26.66
562.031	26.58
562.227	26.5
562.423	26.4
562.619	26.36
562.815	26.51
563.01	26.5
563.206	26.53
563.402	26.63
563.598	26.65
563.793	26.7
563.989	26.7
564.185	26.88
564.381	27.08
564.576	27.28
564.772	27.35
564.968	27.25
565.163	27.23
565.359	27.14
565.555	27.33
565.75	27.18
565.946	27.28
566.141	27.27
566.337	27.14
566.532	27.13
566.728	27.05
566.923	26.95
567.119	27.02
567.314	27.22
567.51	27.27
567.705	27.19
567.901	27.33
568.096	27.33
568.292	27.37
568.487	27.3
568.682	27.37
568.878	27.39
569.073	27.47
569.268	27.53
569.464	27.42
569.659	27.41
569.854	27.29
570.05	27.55
570.245	27.63
570.44	27.68
570.635	27.82
570.831	27.83
571.026	27.91
571.221	27.89
571.416	27.88
571.611	27.89
571.806	28.13
572.002	28.4
572.197	28.28
572.392	28.22
572.587	28.22
572.782	28.17
572.977	28.16
573.172	28.2
573.367	28.32
573.562	28.17
573.757	28.32
573.952	28.03
574.147	28.07
574.342	28.02
574.537	27.96
574.732	27.96
574.927	28.19
575.121	28.24
575.316	28.25
575.511	28.16
575.706	28.25
575.901	28.01
576.096	28.15
576.29	28.07
576.485	28.13
576.68	28.29
576.875	28.39
577.069	28.14
577.264	28.33
577.459	28.53
577.654	28.65
577.848	28.73
578.043	29.08
578.238	29.18
578.432	29.12
578.627	29.22
578.821	29.4
579.016	29.54
579.21	29.56
579.405	29.06
579.6	29.02
579.794	28.92
579.989	28.78
580.183	28.67
580.378	28.66
580.572	28.54
580.766	28.59
580.961	28.69
581.155	28.57
581.35	28.88
581.544	29.02
581.738	28.86
581.933	28.96
582.127	29.2
582.321	29.17
582.516	29.15
582.71	29.27
582.904	29.05
583.099	28.69
583.293	28.8
583.487	28.53
583.681	28.9
583.875	28.98
584.07	28.82
584.264	28.88
584.458	28.9
584.652	29.06
584.846	28.91
585.04	29.16
585.234	29.29
585.428	29.1
585.623	29.34
585.817	29.12
586.011	28.94
586.205	29.16
586.399	29.31
586.593	29.53
586.787	29.44
586.981	29.53
587.174	29.45
587.368	29.43
587.562	29.67
587.756	29.65
587.95	29.7
588.144	30.09
588.338	30.03
588.532	29.86
588.725	29.69
588.919	29.76
589.113	29.95
589.307	29.88
589.501	30.1
589.694	30.15
589.888	30.34
590.082	30.46
590.275	30.19
590.469	30.23
590.663	30.12
590.856	30.17
591.05	30.09
591.244	30.15
591.437	30.09
591.631	30.15
591.824	29.96
592.018	29.76
592.212	29.47
592.405	29.45
592.599	29.54
592.792	29.8
592.986	29.74
593.179	30.03
593.372	29.87
593.566	30.18
593.759	30.04
593.953	30.07
594.146	30.05
594.339	29.95
594.533	30.17
594.726	29.82
594.92	29.38
595.113	29.57
595.306	29.3
595.499	29.4
595.693	29.3
595.886	29.36
596.079	29.34
596.272	29.38
596.466	29.55
596.659	29.39
596.852	29.72
597.045	29.95
597.238	29.85
597.431	29.9
597.624	29.84
597.818	30.13
598.011	29.99
598.204	30.13
598.397	30.05
598.59	30.18
598.783	30.5
598.976	30.56
599.169	30.59
599.362	30.8
599.555	31.11
599.748	31.14
599.941	30.69
600.134	30.98
600.326	30.92
600.519	31.24
600.712	31.47
600.905	31.19
601.098	31.12
601.291	31.2
601.483	31.33
601.676	31.13
601.869	31.25
602.062	31.56
602.255	31.49
602.447	31.32
602.64	31.4
602.833	31.03
603.025	31.13
603.218	30.97
603.411	30.87
603.603	30.55
603.796	30.66
603.989	30.78
604.181	30.71
604.374	30.65
604.566	30.76
604.759	30.78
604.951	30.71
605.144	30.73
605.336	30.9
605.529	30.83
605.721	30.73
605.914	30.51
606.106	30.2
606.299	30.17
606.491	30.25
606.683	30.28
606.876	30.05
607.068	30.13
607.26	30.28
607.453	30.26
607.645	30.23
607.837	30.58
608.03	30.71
608.222	30.95
608.414	30.87
608.606	30.63
608.799	30.53
608.991	30.43
609.183	30.33
609.375	30.21
609.567	30.04
609.759	30.26
609.952	30.37
610.144	30.5
610.336	30.43
610.528	30.33
610.72	30.47
610.912	30.5
611.104	30.63
611.296	30.76
611.488	30.52
611.68	30.77
611.872	30.8
612.064	30.55
612.256	30.29
612.448	30.22
612.64	30.43
612.832	30.27
613.023	30.27
613.215	29.94
613.407	30.06
613.599	30.52
613.791	30.06
613.983	30.26
614.174	30.11
614.366	30.33
614.558	30.39
614.75	30.45
614.941	30.92
615.133	30.94
615.325	31.27
615.516	31.38
615.708	31.07
615.9	31.67
616.091	31.32
616.283	31.56
616.475	31.45
616.666	31.62
616.858	31.34
617.049	31.12
617.241	31.07
617.432	31.15
617.624	31.13
617.815	31.06
618.007	31.02
618.198	31.25
618.39	31.28
618.581	31.18
618.773	31.27
618.964	31.36
619.155	31.28
619.347	31.55
619.538	31.96
619.729	31.77
619.921	32.23
620.112	32.3
620.303	32.21
620.494	32.12
620.686	32.46
620.877	32.47
621.068	32.58
621.259	32.8
621.451	32.53
621.642	31.94
621.833	32.52
622.024	32.58
622.215	32.69
622.406	32.81
622.597	32.82
622.788	32.83
622.98	32.92
623.171	32.8
623.362	32.66
623.553	32.77
623.744	32.96
623.935	32.53
624.126	32.15
624.317	31.91
624.508	32
624.698	32.09
624.889	32.2
625.08	31.81
625.271	31.99
625.462	32.12
625.653	32.36
625.844	32.5
626.034	32.67
626.225	32.81
626.416	32.61
626.607	32.55
626.798	32.62
626.988	32.29
627.179	32.53
627.37	32.26
627.56	32.35
627.751	31.91
627.942	31.72
628.132	31.69
628.323	31.66
628.514	31.81
628.704	31.79
628.895	31.5
629.085	31.92
629.276	31.82
629.466	32.14
629.657	32.07
629.847	32.37
630.038	32.51
630.228	32.6
630.419	32.35
630.609	32.58
630.8	32.47
630.99	32.58
631.181	32.12
631.371	31.99
631.561	32.1
631.752	32.03
631.942	32.5
632.132	32.44
632.323	32.21
632.513	32.63
632.703	32.52
632.893	32.37
633.084	32.32
633.274	32.58
633.464	32.56
633.654	32.45
633.844	32.34
634.034	31.93
634.225	31.97
634.415	31.81
634.605	31.76
634.795	31.97
634.985	32.12
635.175	32.36
635.365	32.47
635.555	32.68
635.745	32.7
635.935	32.67
636.125	32.69
636.315	32.66
636.505	32.92
636.695	33.11
636.885	32.82
637.075	32.78
637.265	32.88
637.455	32.59
637.644	32.7
637.834	32.49
638.024	32.49
638.214	32.43
638.404	32.71
638.593	33.15
638.783	32.49
638.973	32.7
639.163	32.83
639.352	32.86
639.542	32.92
639.732	32.84
639.921	33.01
640.111	33.15
640.301	32.96
640.49	32.82
640.68	32.51
640.87	32.94
641.059	32.88
641.249	33.09
641.438	32.41
641.628	32.62
641.817	32.87
642.007	32.94
642.196	32.99
642.386	32.99
642.575	33.03
642.764	32.91
642.954	33.46
643.143	33.32
643.333	33.52
643.522	34.06
643.711	33.98
643.901	33.65
644.09	33.57
644.279	34.03
644.469	34.36
644.658	34.06
644.847	34.36
645.036	34.24
645.226	34.12
645.415	33.58
645.604	33.82
645.793	33.64
645.982	33.38
646.171	33.64
646.361	33.25
646.55	33.05
646.739	33.21
646.928	33.19
647.117	32.7
647.306	33.01
647.495	33.58
647.684	33.55
647.873	33.82
648.062	34.42
648.251	34.28
648.44	34.62
648.629	35
648.818	35.21
649.007	34.68
649.196	34.83
649.384	34.96
649.573	34.58
649.762	34.52
649.951	34.74
650.14	34.23
650.328	34.39
650.517	34.08
650.706	33.63
650.895	33.51
651.083	33.32
651.272	33.07
651.461	32.58
651.65	32.71
651.838	32.44
652.027	31.96
652.216	32.16
652.404	32.36
652.593	32.46
652.781	32.92
652.97	32.45
653.158	32.71
653.347	33.16
653.535	33.28
653.724	32.88
653.912	33.17
654.101	33.76
654.289	33.74
654.478	33.57
654.666	32.99
654.855	32.89
655.043	33.43
655.231	33.66
655.42	33.66
655.608	34.06
655.796	34.16
655.985	34.03
656.173	33.91
656.361	34.04
656.55	33.85
656.738	34.49
656.926	34.4
657.114	34.05
657.302	34.04
657.491	34.08
657.679	33.83
657.867	33.81
658.055	33.64
658.243	33.52
658.431	33.24
658.619	33.42
658.807	33.22
658.996	33.15
659.184	33.33
659.372	33.24
659.56	33.14
659.748	33.18
659.936	33.11
660.124	33.37
660.311	33.09
660.499	33.12
660.687	32.92
660.875	32.75
661.063	32.97
661.251	33.11
661.439	33.14
661.627	32.94
661.814	32.93
662.002	33.32
662.19	33.44
662.378	33.55
662.565	33.82
662.753	33.99
662.941	33.82
663.129	33.73
663.316	33.95
663.504	33.7
663.692	33.78
663.879	33.64
664.067	33.53
664.254	33.24
664.442	33.57
664.63	33.58
664.817	33.94
665.005	34.34
665.192	34.37
665.38	34.16
665.567	34.8
665.755	35.22
665.942	35.47
666.13	35.53
666.317	35.85
666.504	35.41
666.692	35.62
666.879	35.14
667.067	35.56
667.254	35.24
667.441	35.68
667.629	35.88
667.816	35.26
668.003	35.35
668.19	35.32
668.378	35.2
668.565	35.66
668.752	35.26
668.939	35.26
669.127	35.03
669.314	35.55
669.501	35.12
669.688	34.75
669.875	35.22
670.062	34.97
670.249	35.17
670.436	34.98
670.623	34.77
670.81	35.01
670.997	35.34
671.184	34.88
671.371	34.76
671.558	34.75
671.745	34.82
671.932	34.63
672.119	34.62
672.306	34.45
672.493	34.6
672.68	34.53
672.867	34.51
673.054	33.91
673.24	33.72
673.427	33.68
673.614	33.86
673.801	34.44
673.988	34.91
674.174	35.14
674.361	35.24
674.548	35.13
674.734	35.39
674.921	35.59
675.108	35.97
675.294	36.68
675.481	36.32
675.668	36.11
675.854	35.53
676.041	34.99
676.227	34.55
676.414	34.11
676.601	33.9
676.787	33.47
676.974	33.14
677.16	33.13
677.347	33.05
677.533	33.33
677.719	33.87
677.906	33.86
678.092	33.77
678.279	34.22
678.465	34.34
678.651	34.78
678.838	34.89
679.024	34.64
679.21	34.2
679.397	34.37
679.583	33.96
679.769	33.77
679.955	33.44
680.142	33.4
680.328	33.21
680.514	33.19
680.7	33.17
680.886	33.35
681.073	33.67
681.259	34.1
681.445	33.79
681.631	34.06
681.817	33.79
682.003	34.46
682.189	34.69
682.375	34.9
682.561	34.8
682.747	34.74
682.933	34.56
683.119	34.39
683.305	34.57
683.491	34.67
683.677	34.67
683.863	34.83
684.049	34.37
684.235	34.62
684.42	34.26
684.606	34.71
684.792	34.6
684.978	34.77
685.164	34.72
685.349	34.74
685.535	34.47
685.721	34.49
685.907	34.12
686.092	33.89
686.278	33.3
686.464	33.95
686.649	33.61
686.835	33.65
687.021	33.66
687.206	34.32
687.392	34.39
687.577	34.7
687.763	34.79
687.948	35.07
688.134	35.4
688.319	35.47
688.505	35.22
688.69	35.59
688.876	35.42
689.061	35.32
689.247	34.65
689.432	34.76
689.618	34.77
689.803	35.4
689.988	35.43
690.174	35.19
690.359	35.6
690.544	35.22
690.73	35.11
690.915	35.09
691.1	35.13
691.285	35.47
691.471	34.81
691.656	34.73
691.841	34.07
692.026	33.66
692.211	34.29
692.396	34.34
692.582	34.99
692.767	35.16
692.952	35.28
693.137	35.27
693.322	34.96
693.507	35.26
693.692	35.32
693.877	35.29
694.062	36.09
694.247	35.31
694.432	35.05
694.617	34.79
694.802	34.49
694.987	34.86
695.172	35.26
695.357	36.15
695.541	36.03
695.726	36.43
695.911	36.42
696.096	36.33
696.281	36.11
696.466	36.27
696.65	36.11
696.835	35.66
697.02	36.1
697.204	35.9
697.389	35.38
697.574	35.67
697.759	35.66
697.943	35.25
698.128	34.88
698.312	35.46
698.497	35.47
698.682	35.45
698.866	35.93
699.051	35.53
699.235	35.22
699.42	34.93
699.604	34.82
699.789	34.15
699.973	34.52
700.158	34.8
700.342	34.84
700.527	34.74
700.711	34.73
700.895	34.59
701.08	34.23
701.264	35.15
701.448	35.19
701.633	35.22
701.817	35.83
702.001	35.86
702.186	35.97
702.37	35.53
702.554	35.54
702.738	35.04
702.923	34.88
703.107	35.52
703.291	34.93
703.475	35.68
703.659	35.38
703.843	35.36
704.027	35.37
704.212	35.59
704.396	35.92
704.58	36.11
704.764	36.35
704.948	36.62
705.132	36.4
705.316	36.29
705.5	35.56
705.684	35.8
705.868	35.96
706.052	35.98
706.235	34.88
706.419	34.52
706.603	34.18
706.787	33.92
706.971	33.74
707.155	33.67
707.339	33.66
707.522	33.53
707.706	34.2
707.89	34.56
708.074	34.7
708.257	35.51
708.441	35.44
708.625	35.44
708.808	35.92
708.992	36.21
709.176	36.49
709.359	36.64
709.543	37.49
709.727	36.69
709.91	36.39
710.094	36.57
710.277	36.79
710.461	37.19
710.644	37.59
710.828	38.15
711.011	38.9
711.195	38.47
711.378	38.06
711.562	37.69
711.745	37.99
711.928	37.41
712.112	36.79
712.295	36.61
712.478	36.53
712.662	36.37
712.845	35.89
713.028	35.31
713.212	35.42
713.395	36.04
713.578	36.68
713.761	36.38
713.945	37.19
714.128	38
714.311	37.57
714.494	37.52
714.677	37.58
714.86	38.14
715.043	37.91
715.227	37.93
715.41	36.97
715.593	35.84
715.776	35.54
715.959	35.16
716.142	34.29
716.325	34.04
716.508	34.36
716.691	34.56
716.874	34.23
717.057	34.32
717.239	34.16
717.422	34.78
717.605	35.47
717.788	35.2
717.971	34.98
718.154	35.84
718.337	36.82
718.519	36.26
718.702	35.88
718.885	36.4
719.068	35.63
719.25	35.77
719.433	36.45
719.616	36.49
719.798	37.53
719.981	36.99
720.164	37.01
720.346	36.93
720.529	36.86
720.712	36.29
720.894	35.93
721.077	36.6
721.259	37.03
721.442	36.21
721.624	36.06
721.807	35.91
721.989	37.43
722.172	37.39
722.354	37.29
722.537	38.23
722.719	38.63
722.901	37.71
723.084	36.66
723.266	36.03
723.448	36.26
723.631	36.15
723.813	36.21
723.995	36.24
724.178	35.63
724.36	35.46
724.542	36.05
724.724	36.12
724.907	37.28
725.089	38.27
725.271	38.93
725.453	38.67
725.635	39.48
725.817	39.21
725.999	39.09
726.181	39.44
726.364	39.08
726.546	38.07
726.728	38.45
726.91	37.58
727.092	37.24
727.274	37.11
727.456	36.73
727.638	36.34
727.819	37.09
728.001	36.09
728.183	35.56
728.365	35.8
728.547	36.35
728.729	36.9
728.911	37.58
729.093	37.64
729.274	37.95
729.456	37.74
729.638	36.96
729.82	36.08
730.001	36.85
730.183	37.68
730.365	37.94
730.546	37.28
730.728	37.24
730.91	37.35
731.091	38.67
731.273	38.54
731.455	39.5
731.636	40.03
731.818	40.77
731.999	40.99
732.181	40.18
732.362	39.97
732.544	39.67
732.725	39.36
732.907	39.46
733.088	39.36
733.27	38.92
733.451	39.07
733.633	39.46
733.814	39.78
733.995	39.03
734.177	39.31
734.358	38.38
734.539	39.2
734.721	38.76
734.902	37.76
735.083	37.07
735.264	37.69
735.446	36.81
735.627	36.94
735.808	36.52
735.989	37.41
736.17	37.27
736.351	38.28
736.533	38.54
736.714	38.06
736.895	38.82
737.076	38.81
737.257	38.82
737.438	39.32
737.619	39.02
737.8	37.98
737.981	37.42
738.162	37.62
738.343	37.03
738.524	36.1
738.705	36.95
738.886	36.13
739.067	36.39
739.247	35.77
739.428	36.12
739.609	35.96
739.79	37.37
739.971	37.47
740.151	37.78
740.332	38.41
740.513	39.34
740.694	38.65
740.874	39.52
741.055	38.63
741.236	38.38
741.417	37.53
741.597	37.91
741.778	37.67
741.958	37.31
742.139	37.62
742.32	37.64
742.5	37.1
742.681	37.78
742.861	37.9
743.042	38.67
743.222	38.73
743.403	39.43
743.583	40.29
743.764	40.24
743.944	40.37
744.124	40.79
744.305	40.81
744.485	40.16
744.666	39.49
744.846	38.89
745.026	38.76
745.207	40.49
745.387	40.49
745.567	38.92
745.747	38.53
745.928	39.14
746.108	37.87
746.288	37.54
746.468	38.2
746.648	39.34
746.829	38.44
747.009	38.61
747.189	37.74
747.369	37.45
747.549	37.17
747.729	37.63
747.909	37.07
748.089	37.19
748.269	38.1
748.449	38.48
748.629	39.01
748.809	39.44
748.989	39.12
749.169	38.31
749.349	37.92
749.529	37.85
749.709	36.94
749.889	37.74
750.068	38.36
750.248	37.63
750.428	37.77
750.608	36.6
750.788	36.98
750.967	36.54
751.147	36.79
751.327	36.98
751.507	37.03
751.686	37.14
751.866	36.2
752.046	36.05
752.225	35.86
752.405	36.41
752.585	36.26
752.764	37.32
752.944	38.63
753.123	38.89
753.303	40.59
753.482	41.54
753.662	41.31
753.841	42.97
754.021	42.28
754.2	41.67
754.38	40.8
754.559	39.91
754.739	38.35
754.918	37.04
755.097	36.9
755.277	35.52
755.456	36.9
755.635	37.94
755.815	34.93
755.994	36.3
756.173	36.97
756.352	37.11
756.532	38.31
756.711	38.99
756.89	39.64
757.069	39.64
757.248	40.19
757.427	37.9
757.607	37.53
757.786	39.55
757.965	38.47
758.144	39.72
758.323	39.34
758.502	38.78
758.681	39.28
758.86	38.98
759.039	38.7
759.218	38.2
759.397	37.88
759.576	38.39
759.755	37.82
759.934	37.71
760.113	36.81
760.291	37.13
760.47	38.45
760.649	38.53
760.828	39.27
761.007	39.68
761.186	39.26
761.364	39.78
761.543	39.65
761.722	39.78
761.901	40
762.079	40.18
762.258	40.58
762.437	39.25
762.615	38.49
762.794	37.75
762.972	36.68
763.151	36.87
763.33	36.88
763.508	36.97
763.687	36.85
763.865	36.36
764.044	35.82
764.222	35.59
764.401	36.09
764.579	36.2
764.758	35.98
764.936	36.59
765.114	37.18
765.293	37.32
765.471	36.91
765.65	36.85
765.828	37.54
766.006	38.09
766.184	38.15
766.363	38.08
766.541	38.4
766.719	39.48
766.898	40.66
767.076	39.81
767.254	40.41
767.432	41.07
767.61	40.9
767.788	41.45
767.967	40.55
768.145	39.57
768.323	38.68
768.501	39.3
768.679	37.63
768.857	36.81
769.035	37.22
769.213	37.09
769.391	36.44
769.569	36.25
769.747	34.35
769.925	34.13
770.103	34.38
770.281	35.87
770.459	34.32
770.636	35.85
770.814	35.75
770.992	35.84
771.17	34.62
771.348	34.54
771.525	35.88
771.703	37.07
771.881	38.56
772.059	40.29
772.236	40.46
772.414	42.86
772.592	42.59
772.769	44.53
772.947	44.47
773.125	46.11
773.302	45.22
773.48	45.03
773.657	45.19
773.835	44.26
774.013	44.66
774.19	44.7
774.368	42.8
774.545	43.72
774.723	42.5
774.9	42.64
775.077	43.88
775.255	45.14
775.432	44.8
775.61	46.04
775.787	47.05
775.964	45.53
776.142	44.52
776.319	44.97
776.496	43.3
776.674	42.99
776.851	42.46
777.028	40.2
777.205	41.73
777.382	42.74
777.56	39.49
777.737	38.53
777.914	39
778.091	41.39
778.268	41.97
778.445	42.88
778.622	41.41
778.8	40.7
778.977	41.38
779.154	39.08
779.331	39.94
779.508	42.56
779.685	43.61
779.862	44.15
780.038	42.7
780.215	41.28
780.392	40.12
780.569	40.74
780.746	42.86
780.923	41.88
781.1	42.88
781.277	40.68
781.453	39.73
781.63	38.84
781.807	37.84
781.984	38.11
782.16	40.03
782.337	40.22
782.514	39.72
782.691	38.38
782.867	36.96
783.044	35.48
783.221	34.96
783.397	35.47
783.574	36.22
783.75	34.88
783.927	35.77
784.103	34.51
784.28	34.87
784.456	34.76
784.633	35.21
784.809	37.39
784.986	38.01
785.162	37.81
785.339	37.14
785.515	35.75
785.692	35.94
785.868	38.02
786.044	39.44
786.221	37.72
786.397	39.12
786.573	39.34
786.749	37.61
786.926	38.02
787.102	41.21
787.278	42.31
787.454	42.78
787.631	44.02
787.807	40.56
787.983	40.5
788.159	41.36
788.335	41.06
788.511	40.93
788.687	41.58
788.863	42.13
789.039	39.84
789.216	38.71
789.392	40.31
789.568	41.3
789.744	42.09
789.919	39.85
790.095	41.95
790.271	42.36
790.447	42.13
790.623	42.56
790.799	41.62
790.975	43.81
791.151	45.16
791.327	44.87
791.502	45.08
791.678	44.83
791.854	46.34
792.03	46.02
792.205	46.36
792.381	46.86
792.557	46.84
792.733	46.47
792.908	44.24
793.084	44.02
793.259	43.96
793.435	41.08
793.611	39.76
793.786	40.52
793.962	37.99
794.137	36.12
794.313	34.43
794.488	35.8
794.664	35.75
794.839	38.88
795.015	39
795.19	37.24
795.366	39.27
795.541	39.22
795.716	37.58
795.892	39.21
796.067	39.29
796.242	41.06
796.418	39.28
796.593	41.02
796.768	42.19
796.944	40.35
797.119	41.3
797.294	39.45
797.469	38.96
797.644	39.19
797.82	38.6
797.995	38.9
798.17	40.62
798.345	42.11
798.52	41.23
798.695	40.41
798.87	39.17
799.045	39.39
799.22	41.54
799.395	43.55
799.57	42.6
799.745	44.12
799.92	45.12
800.095	43.46
800.27	43.74
800.445	45.3
800.62	42.69
800.795	45.91
800.97	45.79
801.145	44
801.319	44.47
801.494	44.5
801.669	43.23
801.844	43.68
802.018	43.37
802.193	42.25
802.368	40.6
802.543	41.27
802.717	43.34
802.892	43.5
803.067	46.27
803.241	48.84
803.416	50.41
803.59	50.69
803.765	48
803.94	47.98
804.114	47.44
804.289	46.81
804.463	46.21
804.638	43.39
804.812	43.74
804.986	44.24
805.161	41.44
805.335	42.23
805.51	43.08
805.684	44.51
805.858	44.99
806.033	46.83
806.207	48.96
806.381	51.24
806.556	51.57
806.73	49.09
806.904	46.07
807.078	47.21
807.253	45.27
807.427	45.23
807.601	47.12
807.775	46.95
807.949	46.47
808.123	47.57
808.298	46.54
808.472	46.88
808.646	50.85
808.82	51.56
808.994	48.44
809.168	50.76
809.342	53.51
809.516	52.07
809.69	50.41
809.864	50.88
810.038	46.48
810.212	48.59
810.385	47.62
810.559	44.5
810.733	44.9
810.907	45.91
811.081	45.21
811.255	42.61
811.428	41.6
811.602	43.94
811.776	40.39
811.95	42.5
812.123	37.89
812.297	37.33
812.471	40.9
812.644	43.14
812.818	44.96
812.992	45.7
813.165	46.27
813.339	48.86
813.512	48.25
813.686	50.96
813.86	50.91
814.033	54.04
814.207	57.75
814.38	57.71
814.554	57.35
814.727	58.22
814.9	57.09
815.074	57.86
815.247	56.51
815.421	54.26
815.594	53.77
815.767	56.2
815.941	53.98
816.114	52.93
816.287	51.43
816.46	50.46
816.634	47.65
816.807	46.83
816.98	47.39
817.153	49.46
817.327	52.87
817.5	53.13
817.673	50.49
817.846	50.57
818.019	47.17
818.192	47.03
818.365	47.54
818.538	50.44
818.711	51.75
818.884	50.53
819.057	48.05
819.23	45.79
819.403	44.91
819.576	44.08
819.749	44.09
819.922	45.32
820.095	44.44
820.268	47.41
820.441	44.79
820.614	44.87
820.786	43.87
820.959	44.07
821.132	42.62
821.305	42
821.477	41.8
821.65	40.09
821.823	38.87
821.996	39.18
822.168	37.01
822.341	36.98
822.514	36.23
822.686	36.89
822.859	36.69
823.031	37.44
823.204	38.17
823.376	38.24
823.549	38.5
823.722	39.04
823.894	38.35
824.067	39.25
824.239	39.32
824.411	39.53
824.584	39.18
824.756	39.2
824.929	39.23
825.101	38.4
825.273	38.45
825.446	38.4
825.618	37.79
825.79	38
825.963	37.37
826.135	37.29
826.307	37.46
826.479	36.6
826.652	36.15
826.824	35.75
826.996	36.32
827.168	36.92
827.34	38.81
827.512	39.68
827.684	39.51
827.856	39.65
828.029	40.79
828.201	40.35
828.373	40.67
828.545	41.44
828.717	41.85
828.889	42.55
829.061	42.52
829.232	41.43
829.404	41.51
829.576	42.53
829.748	42.39
829.92	41.14
830.092	42.75
830.264	43.38
830.436	43.82
830.607	44.66
830.779	44.05
830.951	43.54
831.123	43.92
831.294	42.73
831.466	43.01
831.638	45.93
831.809	49.02
831.981	49.87
832.153	52.19
832.324	51.76
832.496	48.02
832.667	49.96
832.839	49.36
833.011	48.03
833.182	49.45
833.354	47.16
833.525	44.04
833.697	43.31
833.868	42.91
834.039	41.04
834.211	40.74
834.382	41.75
834.554	42.13
834.725	43.66
834.896	44.06
835.068	43.2
835.239	45.91
835.41	46.46
835.581	45.78
835.753	45.7
835.924	47.05
836.095	46.87
836.266	47.85
836.438	45.78
836.609	43.77
836.78	44.14
836.951	45.65
837.122	43.1
837.293	43.54
837.464	41.56
837.635	39.25
837.806	38.73
837.977	40.93
838.148	39.45
838.319	42.95
838.49	47.16
838.661	45.1
838.832	42.41
839.003	42.75
839.174	42.31
839.345	44.93
839.516	46.4
839.687	47.37
839.857	45.35
840.028	51.34
840.199	47.85
840.37	44.86
840.54	47.47
840.711	49.03
840.882	51.04
841.053	50.18
841.223	53.03
841.394	54.76
841.564	51.92
841.735	52.91
841.906	50.1
842.076	51.22
842.247	52.93
842.417	53.76
842.588	57.4
842.758	59.12
842.929	61.02
843.099	58.45
843.27	55.09
843.44	57.29
843.611	58.79
843.781	57.4
843.951	57.16
844.122	54.07
844.292	55.07
844.462	51.58
844.633	46.31
844.803	51.22
844.973	50.82
845.144	54.2
845.314	52.29
845.484	47.15
845.654	49.78
845.824	47.21
845.995	49.31
846.165	47.83
846.335	46.21
846.505	51.37
846.675	49.17
846.845	55.36
847.015	61.66
847.185	64.01
847.355	67.83
847.525	66.6
847.695	65.07
847.865	61.84
848.035	64.1
848.205	59.03
848.375	64.09
848.545	71.26
848.715	62.86
848.884	52.7
849.054	60.15
849.224	63.73
849.394	61.4
849.564	65.56
849.733	65.68
849.903	66.09
850.073	72.14
850.243	62.06
850.412	52.76
850.582	58.16
850.752	58.75
850.921	53.72
851.091	52.91
851.26	56.98
851.43	58.33
851.599	59.13
851.769	58.22
851.939	57.16
852.108	61.11
852.278	60.24
852.447	55.52
852.616	58.94
852.786	62.41
852.955	63.1
853.125	57.48
853.294	54.54
853.463	53.71
853.633	53.21
853.802	58.07
853.971	59.11
854.141	59.52
854.31	61.93
854.479	57.67
854.648	54.97
854.818	53.44
854.987	60.71
855.156	59.41
855.325	59.98
855.494	58.96
855.663	58.32
855.832	52.77
856.001	53.27
856.171	54.26
856.34	58.15
856.509	60.18
856.678	60.71
856.847	55.12
857.016	58.58
857.185	56.71
857.353	59.16
857.522	61.82
857.691	62.26
857.86	66.94
858.029	66.89
858.198	68.61
858.367	66
858.535	64.15
858.704	74.13
858.873	83.69
859.042	91.43
859.21	93.25
859.379	78.23
859.548	83.88
859.717	91.28
859.885	88.03
860.054	81.21
860.222	83.69
860.391	81.98
860.56	77.26
860.728	63.87
860.897	70.2
861.065	64.38
861.234	66
861.402	68.2
861.571	59.74
861.739	58.1
861.908	61.34
862.076	57.85
862.244	58.23
862.413	60.21
862.581	68.73
862.749	59.99
862.918	71.71
863.086	78.22
863.254	72.18
863.423	76.61
863.591	70.85
863.759	69.19
863.927	61.3
864.096	63.19
864.264	63.15
864.432	60.51
864.6	67.75
864.768	57.38
864.936	50.78
865.104	53.7
865.272	57.81
865.44	61.14
865.608	59.94
865.776	65.74
865.944	53.73
866.112	49.53
866.28	50.04
866.448	44.38
866.616	48.05
866.784	49.63
866.952	46.66
867.12	38.1
867.288	37.93
867.455	43.19
867.623	45.83
867.791	53.99
867.959	60.73
868.127	59.84
868.294	69.48
868.462	79.58
868.63	89.01
868.797	92.23
868.965	91.92
869.133	96.05
869.3	85.97
869.468	86.98
869.636	78.85
869.803	74.68
869.971	80.44
870.138	72.98
870.306	67.54
870.473	68.77
870.641	69.97
870.808	65.06
870.975	65.51
871.143	72.14
871.31	71.4
871.478	94.17
871.645	96.85
871.812	87.82
871.98	99.68
872.147	106.08
872.314	103.75
872.482	110.77
872.649	101.34
872.816	92.02
872.983	89.81
873.15	88.76
873.318	65.31
873.485	61.33
873.652	70.99
873.819	58.48
873.986	58.74
874.153	63.66
874.32	62.22
874.487	60.78
874.654	61.43
874.821	70.41
874.988	66.55
875.155	73.63
875.322	66.92
875.489	62.74
875.656	67.4
875.823	69.04
875.99	64.11
876.157	69.52
876.324	72.14
876.49	74.01
876.657	73.97
876.824	76.88
876.991	74.25
877.157	86.2
877.324	95.35
877.491	87.15
877.658	82.99
877.824	72.75
877.991	70.24
878.157	74.01
878.324	75.11
878.491	62.22
878.657	64.75
878.824	62.23
878.99	65.4
879.157	63.46
879.323	56.32
879.49	56.11
879.656	59.39
879.823	57.67
879.989	55.62
880.156	54.02
880.322	56.59
880.488	51.58
880.655	54.79
880.821	54.28
880.987	51.3
881.154	60.8
881.32	67.35
881.486	66.9
881.652	61.36
881.819	58.61
881.985	53.44
882.151	51.21
882.317	50.09
882.483	46.54
882.649	42.08
882.816	42.57
882.982	40.65
883.148	37.73
883.314	37.24
883.48	36.23
883.646	37.91
883.812	39.51
883.978	39.43
884.144	40.5
884.31	41.3
884.476	43.61
884.642	45.13
884.807	43.01
884.973	42.54
885.139	42.35
885.305	44.57
885.471	43.99
885.637	44.69
885.802	45.94
885.968	45.49
886.134	46.18
886.3	46.36
886.465	44.07
886.631	46.79
886.797	48.44
886.962	51.08
887.128	49.05
887.293	49.95
887.459	49.42
887.625	49.61
887.79	51.62
887.956	51.52
888.121	51.38
888.287	54.13
888.452	56.7
888.618	56.37
888.783	53.15
