Data from CB_042_Reflection_00006.txt Node
Date: Wed Nov 11 22:08:37 EST 2015
User: robert
Spectrometer: USB4E03001
Autoset integration time: false
Trigger mode: 4
Integration Time (sec): 1.000000E-1
Scans to average: 15
Electric dark correction enabled: true
Nonlinearity correction enabled: false
Boxcar width: 5
Stray light correction enabled: false
XAxis mode: Wavelengths
Stop averaging: false
Number of Pixels in Spectrum: 3648
>>>>>Begin Spectral Data<<<<<
177.566	-95.71
177.785	-832.24
178.005	200.12
178.225	512.63
178.445	51.5
178.665	54.18
178.885	765.94
179.105	-160.29
179.324	-97.11
179.544	-97.3
179.764	-10.13
179.984	1.08
180.204	3.97
180.423	51.1
180.643	13.52
180.863	29.49
181.083	3.69
181.302	-9.38
181.522	-24.07
181.742	-23.2
181.961	-19.55
182.181	-28.08
182.401	-15.12
182.621	-39.73
182.84	-47.59
183.06	-32.82
183.279	-33.81
183.499	-6.65
183.719	-4.91
183.938	-8.13
184.158	-12.84
184.377	-9.33
184.597	-20.84
184.816	-15.98
185.036	0.42
185.256	-1.23
185.475	-1.3
185.695	-27.68
185.914	-38.06
186.134	24.9
186.353	6.77
186.572	11.85
186.792	14.25
187.011	39.04
187.231	-4.25
187.45	-22.96
187.67	-50.76
187.889	-33.44
188.108	3.41
188.328	5.03
188.547	-20.13
188.766	-7.56
188.986	-40.56
189.205	-51.82
189.424	-50.04
189.644	-76.15
189.863	-46.25
190.082	-13.92
190.302	-20.47
190.521	-52.35
190.74	-70.26
190.959	-42.76
191.178	-24.47
191.398	-9.61
191.617	-3.49
191.836	-22.5
192.055	0.31
192.274	-3.96
192.494	-9.37
192.713	-12.92
192.932	17.95
193.151	9.98
193.37	-3.96
193.589	11.82
193.808	-9.98
194.027	-19.85
194.246	14.76
194.465	13.81
194.685	6.56
194.904	-17.44
195.123	-20.76
195.342	-49.92
195.561	-28.66
195.78	-32.72
195.999	-64.07
196.218	-31.66
196.436	-30.72
196.655	-76.28
196.874	-76.4
197.093	-63.07
197.312	-9.12
197.531	-25.49
197.75	-4.14
197.969	-10.62
198.188	-0.88
198.407	-22.02
198.625	-18.72
198.844	-1.18
199.063	0.36
199.282	-18.25
199.501	-31.4
199.719	-57.45
199.938	-15.48
200.157	-73.8
200.376	-34.11
200.594	-37.12
200.813	2.72
201.032	-3.66
201.251	-6.34
201.469	19.11
201.688	36.77
201.907	38.49
202.125	24.28
202.344	16.72
202.563	22.17
202.781	17.81
203	11.64
203.218	-10.9
203.437	-11.89
203.656	-11.57
203.874	-21.36
204.093	-34.36
204.311	-37.06
204.53	-81.96
204.748	-53.6
204.967	-43.91
205.185	-63.12
205.404	-69.21
205.622	-50.39
205.841	-39.53
206.059	-42.86
206.278	-19.54
206.496	-17.03
206.715	-4.3
206.933	13.64
207.151	8.99
207.37	7.08
207.588	2.17
207.806	10.38
208.025	18.06
208.243	18.34
208.461	8
208.68	-4.72
208.898	-6.18
209.116	-19.82
209.335	-35.76
209.553	-51.09
209.771	-52.76
209.989	-34.51
210.208	-76.23
210.426	-108.27
210.644	-113.74
210.862	-139.93
211.081	-85.77
211.299	-82.68
211.517	-24.68
211.735	-16.13
211.953	-20.89
212.171	0.59
212.39	17.13
212.608	39.34
212.826	34.95
213.044	37.46
213.262	29.78
213.48	-11.4
213.698	-4.56
213.916	-31.86
214.134	-17
214.352	-11.22
214.57	-29.02
214.788	-66.61
215.006	-93.46
215.224	-75.53
215.442	-154.47
215.66	-158.84
215.878	-67.88
216.096	-49.49
216.314	-65.24
216.532	-58.58
216.75	-43.88
216.968	-3.27
217.185	13.35
217.403	18.66
217.621	28.31
217.839	27.42
218.057	30.04
218.275	43.64
218.492	41.47
218.71	33.72
218.928	31.13
219.146	27.25
219.363	6.72
219.581	-4.12
219.799	-15.94
220.017	-45.29
220.234	-16.72
220.452	-32.05
220.67	-21.1
220.887	-27.73
221.105	-32.44
221.323	-74.24
221.54	-45.91
221.758	-21.79
221.976	-3.37
222.193	6.56
222.411	8
222.629	-6.6
222.846	-13.04
223.064	-16.52
223.281	-3.38
223.499	1.13
223.716	4.37
223.934	7.09
224.151	-0.07
224.369	-12.01
224.586	-27.73
224.804	-19.35
225.021	-21.97
225.239	-5.28
225.456	5.17
225.674	-10.39
225.891	-2.1
226.108	11.9
226.326	-2.64
226.543	3.74
226.76	-3.17
226.978	-8.41
227.195	-11.99
227.413	-9.49
227.63	-5.51
227.847	-7.23
228.064	-2.33
228.282	-4.48
228.499	-3.8
228.716	-1.66
228.934	-3.36
229.151	-7.07
229.368	-5.7
229.585	-6.31
229.802	-5.53
230.02	-9.4
230.237	-9.37
230.454	-8.46
230.671	-9.26
230.888	-11.67
231.105	-14.89
231.323	-11.1
231.54	-0.95
231.757	-1.12
231.974	-2.65
232.191	-0.58
232.408	6.42
232.625	3.06
232.842	-1.99
233.059	0.91
233.276	2.19
233.493	6.01
233.71	1.8
233.927	-2.05
234.144	2.5
234.361	6
234.578	7.19
234.795	2.56
235.012	4.6
235.229	3.63
235.446	1.88
235.663	-2.23
235.879	-3.79
236.096	-4.2
236.313	-8.69
236.53	-14.73
236.747	-12.07
236.964	-8.07
237.181	-7.77
237.397	-8.29
237.614	-4.62
237.831	-8.35
238.048	-5.47
238.264	-5.7
238.481	-7.28
238.698	-0.3
238.915	6.75
239.131	4.72
239.348	0.33
239.565	2.08
239.781	3.25
239.998	8.78
240.215	13.95
240.431	14.62
240.648	17.7
240.865	15.82
241.081	16.04
241.298	13.44
241.514	12.95
241.731	15.5
241.947	12.59
242.164	13.1
242.38	10.87
242.597	7.97
242.814	7.56
243.03	7.07
243.246	9.18
243.463	6.59
243.679	7.32
243.896	8.44
244.112	7.97
244.329	11.19
244.545	7.24
244.762	6.56
244.978	9.55
245.194	9.87
245.411	7.82
245.627	7.81
245.843	10.24
246.06	9.4
246.276	7.26
246.492	5.23
246.709	5.13
246.925	8.28
247.141	8.91
247.357	7.9
247.574	8.53
247.79	9.05
248.006	9.11
248.222	8.44
248.439	8.99
248.655	10.09
248.871	10.23
249.087	9.74
249.303	9.78
249.519	8.53
249.736	10.12
249.952	9.89
250.168	9.44
250.384	8.93
250.6	10.5
250.816	10.47
251.032	7.2
251.248	8.65
251.464	8.31
251.68	7.07
251.896	7.83
252.112	6.65
252.328	4.05
252.544	4.07
252.76	4.64
252.976	4.36
253.192	2.88
253.408	6.05
253.624	5.66
253.84	7.39
254.056	7.74
254.272	10.3
254.487	9.02
254.703	10.72
254.919	11.72
255.135	7.84
255.351	8.36
255.567	10.83
255.782	8.16
255.998	7.88
256.214	3.58
256.43	4.09
256.646	1.9
256.861	3.52
257.077	5.84
257.293	4.94
257.508	7.13
257.724	5.92
257.94	5.02
258.155	5.24
258.371	6.02
258.587	7.23
258.802	7.35
259.018	6.56
259.234	6.09
259.449	5.97
259.665	6.3
259.88	6.59
260.096	6.47
260.312	6.52
260.527	6.99
260.743	6.89
260.958	6.53
261.174	5.68
261.389	7.03
261.605	8.21
261.82	7.99
262.036	7.91
262.251	8.83
262.466	9.52
262.682	9.8
262.897	10.03
263.113	8.87
263.328	9.57
263.543	9.52
263.759	6.17
263.974	4.7
264.189	4.94
264.405	5.22
264.62	2.56
264.835	1.86
265.051	0.79
265.266	-0.44
265.481	2.55
265.696	3.39
265.912	3.92
266.127	6.2
266.342	5.62
266.557	5.79
266.773	4.81
266.988	4.96
267.203	4
267.418	5.28
267.633	6.15
267.848	5.51
268.064	3.86
268.279	4.39
268.494	4.28
268.709	4.89
268.924	4.37
269.139	5.64
269.354	7.9
269.569	7.46
269.784	8.13
269.999	7.17
270.214	6.4
270.429	6.95
270.644	7.03
270.859	6.51
271.074	7.21
271.289	8.37
271.504	8.12
271.719	6.6
271.934	6.91
272.149	6.17
272.363	7.41
272.578	7.98
272.793	8.66
273.008	8.44
273.223	8.08
273.438	7.64
273.653	7.97
273.867	7.66
274.082	7.87
274.297	8.56
274.512	8.17
274.726	6.17
274.941	6.01
275.156	5.93
275.371	5.31
275.585	5.26
275.8	3.98
276.015	2.31
276.229	3.03
276.444	3.28
276.659	3.87
276.873	4.33
277.088	6
277.302	5.5
277.517	5.71
277.732	7.48
277.946	6.66
278.161	8.61
278.375	9.09
278.59	10.25
278.804	9.14
279.019	8.49
279.233	8.47
279.448	7.16
279.662	6.72
279.877	5.6
280.091	3.09
280.306	5.34
280.52	4.42
280.735	4.63
280.949	2.72
281.163	3.02
281.378	2.42
281.592	3.26
281.806	4.39
282.021	4.58
282.235	5.34
282.449	6.92
282.664	5.49
282.878	4.33
283.092	4.47
283.307	5.86
283.521	6.1
283.735	7.02
283.949	7.15
284.164	6.84
284.378	7.44
284.592	7.81
284.806	7.61
285.02	7.46
285.234	8.7
285.449	8.29
285.663	7.74
285.877	7.66
286.091	8.11
286.305	7.4
286.519	7.26
286.733	7.24
286.947	6.4
287.161	6.5
287.375	7.38
287.589	7.49
287.803	7.08
288.017	6.57
288.231	7.22
288.445	6.78
288.659	6.83
288.873	8.2
289.087	8.37
289.301	9.02
289.515	10.01
289.729	10.32
289.943	10.07
290.157	10.6
290.371	10.45
290.584	10.11
290.798	10.21
291.012	10.31
291.226	9.63
291.44	9.45
291.654	8.84
291.867	8
292.081	7.25
292.295	7.76
292.509	7.67
292.722	8.35
292.936	7.87
293.15	7.65
293.364	8.18
293.577	7.64
293.791	7.74
294.005	7.53
294.218	7.68
294.432	7.62
294.645	6.76
294.859	5.73
295.073	3.53
295.286	4.17
295.5	3.06
295.713	2.98
295.927	2.84
296.14	2.78
296.354	3.91
296.568	3.23
296.781	3.88
296.994	4.4
297.208	5.59
297.421	7.02
297.635	6.98
297.848	8.73
298.062	8.05
298.275	8.73
298.489	9.15
298.702	9.83
298.915	10.27
299.129	10.55
299.342	10.36
299.555	10.47
299.769	10.77
299.982	10.24
300.195	9.26
300.409	9.55
300.622	9.06
300.835	8.81
301.048	8.31
301.262	8.65
301.475	8.28
301.688	8.47
301.901	7.85
302.115	7.81
302.328	9.21
302.541	10.13
302.754	9.42
302.967	9.19
303.18	9.71
303.393	9.08
303.607	8.3
303.82	8.38
304.033	7.55
304.246	6.74
304.459	6.66
304.672	5.71
304.885	5.67
305.098	6.53
305.311	6.82
305.524	6.16
305.737	5.64
305.95	5.94
306.163	5.86
306.376	6.48
306.589	7.92
306.802	7.54
307.015	8.64
307.228	7.51
307.44	7.86
307.653	9.16
307.866	9.33
308.079	9.44
308.292	7.73
308.505	7.24
308.718	8
308.93	7.71
309.143	6.85
309.356	7.04
309.569	7.06
309.781	7.23
309.994	6.34
310.207	5.98
310.42	6.31
310.632	8.89
310.845	8.95
311.058	8.71
311.27	8.96
311.483	9.62
311.696	9.23
311.908	9.99
312.121	10.11
312.333	10.08
312.546	9.98
312.759	10.19
312.971	8.53
313.184	9.23
313.396	9.43
313.609	9.53
313.821	9.71
314.034	8.9
314.246	8.15
314.459	7.8
314.671	8.05
314.884	8.79
315.096	8.1
315.309	8.41
315.521	7.07
315.733	6.88
315.946	6.49
316.158	6.4
316.371	7.33
316.583	8.04
316.795	7.9
317.008	8.42
317.22	8.86
317.432	9.79
317.644	10.13
317.857	11.93
318.069	11.03
318.281	9.95
318.494	10.77
318.706	11.77
318.918	11.14
319.13	11.59
319.342	10.66
319.555	10
319.767	9.33
319.979	9.32
320.191	7.78
320.403	9.95
320.615	11.5
320.827	11.31
321.039	9.11
321.252	8.82
321.464	8.32
321.676	7.35
321.888	8.07
322.1	8.05
322.312	7.92
322.524	8.87
322.736	8.29
322.948	8.16
323.16	7.41
323.372	8.31
323.584	9.04
323.796	8.67
324.007	9.37
324.219	9.12
324.431	8.99
324.643	8.45
324.855	8.35
325.067	7.79
325.279	8.11
325.491	8.75
325.702	9.44
325.914	9.33
326.126	9.45
326.338	8.81
326.55	8
326.761	8.83
326.973	9.5
327.185	9.24
327.396	9.25
327.608	8.32
327.82	8.26
328.032	7.66
328.243	7.63
328.455	7.95
328.666	8.96
328.878	10.38
329.09	9.56
329.301	8.7
329.513	8.22
329.725	7.43
329.936	8.01
330.148	7.36
330.359	6.56
330.571	5.92
330.782	5.89
330.994	5.38
331.205	4.88
331.417	5.42
331.628	6.52
331.84	6.95
332.051	7.97
332.262	7.95
332.474	9.1
332.685	9.23
332.897	8.97
333.108	10.13
333.319	10.85
333.531	11.45
333.742	12.01
333.953	12.24
334.165	12.16
334.376	12.57
334.587	12.87
334.799	13.15
335.01	13.31
335.221	13.44
335.432	12.71
335.644	12.51
335.855	11.85
336.066	11.44
336.277	12.05
336.488	12.62
336.7	11.72
336.911	11.63
337.122	11.05
337.333	11.39
337.544	12.22
337.755	11.74
337.966	11.38
338.177	11.42
338.388	11.1
338.599	10.69
338.811	9.53
339.022	9.25
339.233	9.72
339.444	9.47
339.655	9.13
339.866	9.21
340.076	8.8
340.287	9.39
340.498	9.09
340.709	9.16
340.92	9.43
341.131	9.77
341.342	10.82
341.553	10.44
341.764	10.82
341.975	10.76
342.185	10.4
342.396	11.36
342.607	11.17
342.818	11.15
343.029	11.28
343.239	10.98
343.45	11.1
343.661	10.45
343.872	9.68
344.082	9.1
344.293	9.91
344.504	10.01
344.714	9.96
344.925	9.14
345.136	9.02
345.346	9.51
345.557	9.34
345.768	9.46
345.978	10.16
346.189	11.52
346.399	11.42
346.61	11.1
346.821	10.46
347.031	10.85
347.242	11.89
347.452	12.01
347.663	12.25
347.873	12.39
348.084	12.4
348.294	12.3
348.504	11.31
348.715	11.84
348.925	11.86
349.136	12.24
349.346	10.85
349.557	11.25
349.767	11.72
349.977	11.32
350.188	10.71
350.398	10.12
350.608	9.58
350.819	9.65
351.029	9.1
351.239	8.35
351.449	8.95
351.66	9.19
351.87	9.51
352.08	9.28
352.29	9.48
352.501	10.62
352.711	11.14
352.921	10.96
353.131	11.63
353.341	12.11
353.552	11.96
353.762	10.82
353.972	11.39
354.182	9.81
354.392	10.05
354.602	9.65
354.812	8.24
355.022	8.73
355.232	8.87
355.442	8.75
355.652	8.97
355.862	8.95
356.072	9.43
356.282	9.52
356.492	10.96
356.702	10.91
356.912	11.03
357.122	11.86
357.332	11.9
357.542	12.63
357.752	12.16
357.962	11.73
358.171	12.49
358.381	12.1
358.591	11.76
358.801	10.51
359.011	9.63
359.221	9.52
359.43	9.24
359.64	8.81
359.85	8.76
360.06	8.89
360.269	8.94
360.479	8.54
360.689	9.07
360.899	9.31
361.108	9.82
361.318	10.5
361.528	10.58
361.737	10.17
361.947	10.08
362.156	9.56
362.366	9.54
362.576	9.7
362.785	9.91
362.995	9.83
363.204	9.94
363.414	9.92
363.623	9.8
363.833	9.43
364.042	9.53
364.252	10.22
364.461	10.23
364.671	10.73
364.88	10.57
365.09	10.29
365.299	10.29
365.509	9.88
365.718	9.84
365.927	9.24
366.137	9.39
366.346	9.86
366.555	9.3
366.765	9.37
366.974	9.04
367.183	9.26
367.393	9.96
367.602	10.16
367.811	10.27
368.021	10.01
368.23	10.41
368.439	10.14
368.648	9.98
368.857	9.66
369.067	9.3
369.276	8.82
369.485	8.95
369.694	8.47
369.903	8.45
370.112	8.14
370.321	8.26
370.531	8.23
370.74	8.58
370.949	8.27
371.158	8.06
371.367	8.03
371.576	8.27
371.785	8.01
371.994	7.93
372.203	7.32
372.412	8.04
372.621	7.96
372.83	7.61
373.039	7.45
373.248	7.45
373.457	7.71
373.666	8.13
373.874	8.05
374.083	7.27
374.292	6.83
374.501	7.63
374.71	6.68
374.919	6.82
375.128	7.3
375.336	7.65
375.545	7.67
375.754	7.8
375.963	7.32
376.171	7.21
376.38	6.94
376.589	7.49
376.798	6.72
377.006	7.15
377.215	7.35
377.424	7.24
377.632	6.44
377.841	6.16
378.05	6.09
378.258	6.34
378.467	6.33
378.675	7.18
378.884	6.79
379.093	6.69
379.301	6.15
379.51	6.01
379.718	5.86
379.927	6.13
380.135	6.15
380.344	5.89
380.552	5.73
380.761	5.24
380.969	4.96
381.177	5.18
381.386	5.22
381.594	5.59
381.803	5.24
382.011	5.34
382.219	5.15
382.428	5.46
382.636	5.75
382.845	6.24
383.053	6.32
383.261	6.62
383.469	6.12
383.678	5.96
383.886	5.63
384.094	5.48
384.302	5.73
384.511	5.85
384.719	5.76
384.927	5.87
385.135	5.19
385.343	5.2
385.552	4.96
385.76	5.2
385.968	5.42
386.176	5.82
386.384	5.7
386.592	5.59
386.8	5.88
387.008	6
387.216	5.8
387.424	6.05
387.633	5.88
387.841	5.73
388.049	5.46
388.257	5.54
388.465	5.41
388.672	5.78
388.88	5.4
389.088	5.01
389.296	4.88
389.504	4.43
389.712	4.57
389.92	4.68
390.128	4.5
390.336	4.49
390.544	4.32
390.751	4.37
390.959	4.47
391.167	4.61
391.375	4.9
391.583	4.61
391.79	4.9
391.998	4.77
392.206	4.74
392.414	5.02
392.621	4.72
392.829	5.2
393.037	5.13
393.244	4.96
393.452	4.97
393.66	4.85
393.867	5.09
394.075	5.1
394.283	5.01
394.49	5.42
394.698	5.51
394.905	6.05
395.113	5.49
395.32	5.21
395.528	5.22
395.735	5.17
395.943	4.99
396.15	5.07
396.358	5.17
396.565	5.44
396.773	5.16
396.98	4.95
397.188	4.86
397.395	5.13
397.602	5.26
397.81	5.12
398.017	5.02
398.225	4.67
398.432	4.54
398.639	4.44
398.847	3.91
399.054	3.81
399.261	3.68
399.468	3.63
399.676	3.5
399.883	3.47
400.09	3.08
400.297	3.03
400.505	2.99
400.712	2.88
400.919	2.6
401.126	2.8
401.333	2.68
401.54	2.61
401.748	2.44
401.955	2.52
402.162	2.68
402.369	3.24
402.576	3.33
402.783	3.64
402.99	3.52
403.197	3.66
403.404	3.65
403.611	3.82
403.818	3.94
404.025	4.26
404.232	4.23
404.439	3.89
404.646	3.57
404.853	3.43
405.06	3.48
405.267	3.51
405.474	3.35
405.681	3.31
405.887	3.57
406.094	3.49
406.301	3.31
406.508	3.23
406.715	3.45
406.922	3.71
407.128	3.97
407.335	3.77
407.542	3.54
407.749	3.59
407.955	3.74
408.162	3.26
408.369	2.87
408.575	2.91
408.782	3.04
408.989	2.96
409.195	2.99
409.402	2.83
409.609	2.82
409.815	3.15
410.022	3.35
410.228	3.1
410.435	3.24
410.642	3.61
410.848	3.14
411.055	3.05
411.261	2.87
411.468	2.67
411.674	2.53
411.881	2.53
412.087	2.44
412.294	2.35
412.5	2.46
412.706	2.16
412.913	1.86
413.119	2.24
413.326	2.06
413.532	2.13
413.738	2.42
413.945	2.24
414.151	2.73
414.357	2.7
414.564	2.65
414.77	2.57
414.976	2.85
415.182	3.2
415.389	2.96
415.595	2.93
415.801	3.02
416.007	2.71
416.214	2.66
416.42	2.45
416.626	2.4
416.832	2.19
417.038	2.21
417.244	2
417.45	2.04
417.657	2.3
417.863	2.37
418.069	2.37
418.275	2.37
418.481	2.54
418.687	2.51
418.893	2.55
419.099	2.88
419.305	2.7
419.511	2.82
419.717	2.76
419.923	2.72
420.129	2.67
420.335	2.71
420.541	2.76
420.746	2.66
420.952	2.53
421.158	2.42
421.364	2.25
421.57	2.33
421.776	2.42
421.982	2.43
422.187	2.38
422.393	2.4
422.599	2.24
422.805	2.21
423.01	2.26
423.216	2.3
423.422	2.39
423.628	2.41
423.833	2.5
424.039	2.41
424.245	2.43
424.45	2.45
424.656	2.57
424.862	2.61
425.067	2.84
425.273	2.9
425.478	3.02
425.684	2.96
425.889	2.91
426.095	2.94
426.301	3
426.506	3.04
426.712	3.04
426.917	2.87
427.123	2.86
427.328	2.49
427.533	2.32
427.739	2.12
427.944	2.09
428.15	2.08
428.355	1.81
428.561	1.89
428.766	1.82
428.971	1.84
429.177	1.95
429.382	1.96
429.587	2.06
429.793	2.2
429.998	2.23
430.203	2.22
430.408	2.21
430.614	2.62
430.819	2.43
431.024	2.56
431.229	2.52
431.434	2.34
431.64	2.52
431.845	2.58
432.05	2.7
432.255	2.79
432.46	2.86
432.665	2.84
432.87	2.64
433.076	2.67
433.281	2.52
433.486	2.47
433.691	2.62
433.896	2.47
434.101	2.5
434.306	2.26
434.511	2.21
434.716	2.34
434.921	2.5
435.126	2.33
435.331	2.17
435.535	1.98
435.74	1.93
435.945	1.61
436.15	1.81
436.355	1.76
436.56	1.95
436.765	1.8
436.97	1.67
437.174	1.62
437.379	1.83
437.584	1.96
437.789	2.03
437.993	2.29
438.198	2.45
438.403	2.36
438.608	2.28
438.812	2.25
439.017	2.29
439.222	2.32
439.426	2.29
439.631	2.22
439.836	2.26
440.04	2.32
440.245	2.2
440.45	2.28
440.654	2.31
440.859	2.34
441.063	2.38
441.268	2.48
441.472	2.28
441.677	2.21
441.881	2.28
442.086	2.23
442.29	2.29
442.495	2.2
442.699	2.15
442.904	1.98
443.108	2.12
443.312	2.07
443.517	2
443.721	2.35
443.925	2.33
444.13	2.31
444.334	2.21
444.538	2.02
444.743	1.91
444.947	1.79
445.151	1.85
445.356	1.73
445.56	1.69
445.764	1.75
445.968	1.63
446.173	1.65
446.377	1.57
446.581	1.62
446.785	1.8
446.989	1.8
447.193	1.95
447.398	1.9
447.602	1.79
447.806	1.87
448.01	1.77
448.214	1.83
448.418	1.89
448.622	1.94
448.826	1.85
449.03	1.81
449.234	1.94
449.438	1.8
449.642	1.82
449.846	1.95
450.05	2.08
450.254	2.02
450.458	2.04
450.662	2.07
450.866	1.98
451.069	1.98
451.273	1.81
451.477	1.78
451.681	1.84
451.885	1.87
452.089	1.83
452.292	1.65
452.496	1.76
452.7	1.71
452.904	1.67
453.107	1.89
453.311	1.99
453.515	2.07
453.719	2.08
453.922	2.11
454.126	2.15
454.33	2.24
454.533	2.43
454.737	2.46
454.94	2.46
455.144	2.42
455.348	2.36
455.551	2.63
455.755	2.5
455.958	2.7
456.162	2.68
456.365	2.75
456.569	2.69
456.772	2.52
456.976	2.29
457.179	2.39
457.383	2.4
457.586	2.28
457.79	2
457.993	1.98
458.196	1.92
458.4	1.9
458.603	1.86
458.807	1.83
459.01	1.87
459.213	1.99
459.417	1.86
459.62	1.89
459.823	1.92
460.026	1.88
460.23	1.86
460.433	1.71
460.636	1.77
460.839	1.76
461.042	1.83
461.246	1.81
461.449	1.74
461.652	1.74
461.855	1.73
462.058	1.62
462.261	1.69
462.464	1.85
462.668	1.89
462.871	1.81
463.074	1.78
463.277	1.78
463.48	1.83
463.683	2.1
463.886	2.07
464.089	2.26
464.292	2.42
464.495	2.32
464.698	2.29
464.901	2.21
465.104	2.28
465.306	2.26
465.509	2.17
465.712	1.84
465.915	1.74
466.118	1.7
466.321	1.36
466.524	1.28
466.726	1.23
466.929	1.18
467.132	1.28
467.335	1.15
467.538	1.28
467.74	1.35
467.943	1.46
468.146	1.31
468.348	1.54
468.551	1.54
468.754	1.65
468.956	1.67
469.159	1.72
469.362	1.59
469.564	1.75
469.767	1.69
469.969	1.65
470.172	1.67
470.375	1.68
470.577	1.72
470.78	1.89
470.982	1.86
471.185	2.08
471.387	2.03
471.59	2.16
471.792	2.01
471.995	1.81
472.197	1.75
472.399	1.67
472.602	1.76
472.804	1.8
473.007	1.81
473.209	1.79
473.411	1.62
473.614	1.63
473.816	1.53
474.018	1.63
474.22	1.85
474.423	1.94
474.625	2.01
474.827	2.15
475.03	1.91
475.232	1.87
475.434	1.67
475.636	1.65
475.838	1.54
476.04	1.65
476.243	1.56
476.445	1.46
476.647	1.51
476.849	1.62
477.051	1.5
477.253	1.53
477.455	1.48
477.657	1.58
477.859	1.85
478.061	2.09
478.263	2.09
478.465	2.26
478.667	2.18
478.869	2.13
479.071	2.09
479.273	2.13
479.475	2.18
479.677	2.18
479.879	2.11
480.081	1.96
480.283	1.85
480.485	1.83
480.686	1.6
480.888	1.67
481.09	1.77
481.292	1.85
481.494	1.89
481.695	1.89
481.897	1.98
482.099	1.96
482.301	2.01
482.502	2.08
482.704	2.13
482.906	2.18
483.107	2.19
483.309	2.07
483.511	2.05
483.712	2.05
483.914	2.03
484.115	1.95
484.317	1.93
484.519	1.89
484.72	1.9
484.922	1.84
485.123	1.86
485.325	1.79
485.526	1.8
485.728	1.81
485.929	1.75
486.131	1.74
486.332	1.78
486.534	1.84
486.735	1.8
486.936	1.79
487.138	1.88
487.339	1.84
487.541	1.94
487.742	1.95
487.943	1.96
488.144	1.97
488.346	1.91
488.547	1.96
488.748	1.94
488.95	1.97
489.151	1.88
489.352	1.81
489.553	1.8
489.755	1.69
489.956	1.7
490.157	1.64
490.358	1.66
490.559	1.71
490.76	1.64
490.961	1.72
491.163	1.77
491.364	1.78
491.565	1.84
491.766	1.88
491.967	1.98
492.168	1.98
492.369	1.94
492.57	1.83
492.771	1.89
492.972	1.9
493.173	1.79
493.374	1.72
493.575	1.71
493.776	1.64
493.976	1.67
494.177	1.54
494.378	1.54
494.579	1.67
494.78	1.88
494.981	1.79
495.182	1.79
495.382	1.94
495.583	2
495.784	2.14
495.985	2.19
496.185	2.09
496.386	2.24
496.587	2.25
496.788	2.13
496.988	2.1
497.189	2.02
497.39	2.05
497.59	2.04
497.791	2
497.992	1.91
498.192	1.89
498.393	1.87
498.593	1.87
498.794	1.78
498.994	1.71
499.195	1.66
499.395	1.92
499.596	1.96
499.796	1.89
499.997	2.19
500.197	2.27
500.398	2.4
500.598	2.33
500.799	2.23
500.999	2.29
501.199	2.48
501.4	2.52
501.6	2.39
501.801	2.38
502.001	2.26
502.201	2.01
502.402	2.05
502.602	1.83
502.802	2.01
503.002	2.06
503.203	2.04
503.403	1.99
503.603	2.16
503.803	2.46
504.003	2.49
504.204	2.93
504.404	3.07
504.604	2.93
504.804	3.1
505.004	3.23
505.204	3.29
505.404	3.38
505.604	3.36
505.804	3.37
506.005	3.23
506.205	3.09
506.405	2.93
506.605	2.76
506.805	3.02
507.005	3.11
507.204	3.01
507.404	3.11
507.604	3.1
507.804	3.22
508.004	3.13
508.204	3.08
508.404	3.34
508.604	3.37
508.804	3.55
509.003	3.57
509.203	3.49
509.403	3.43
509.603	3.43
509.803	3.59
510.002	3.52
510.202	3.68
510.402	3.92
510.602	4.04
510.801	3.89
511.001	3.92
511.201	3.97
511.4	4.08
511.6	4.32
511.8	4.4
511.999	4.3
512.199	4.47
512.398	4.57
512.598	4.49
512.797	4.45
512.997	4.76
513.197	4.8
513.396	4.79
513.596	4.79
513.795	4.95
513.994	5.06
514.194	5.2
514.393	5.25
514.593	5.25
514.792	5.37
514.992	5.5
515.191	5.43
515.39	5.56
515.59	5.83
515.789	5.89
515.988	5.83
516.188	5.8
516.387	5.82
516.586	5.97
516.786	6.09
516.985	6.22
517.184	6.25
517.383	6.36
517.582	6.41
517.782	6.38
517.981	6.51
518.18	6.53
518.379	6.77
518.578	6.96
518.777	7.02
518.976	7.11
519.176	7.09
519.375	7.22
519.574	7.34
519.773	7.48
519.972	7.48
520.171	7.64
520.37	7.85
520.569	7.76
520.768	7.69
520.967	7.92
521.166	7.92
521.365	8.07
521.564	8.24
521.762	8.42
521.961	8.43
522.16	8.6
522.359	8.51
522.558	8.52
522.757	8.6
522.956	8.77
523.154	8.64
523.353	8.81
523.552	9.08
523.751	9.07
523.949	9.08
524.148	9.06
524.347	9.19
524.546	9.44
524.744	9.48
524.943	9.63
525.142	9.75
525.34	9.81
525.539	9.82
525.737	9.7
525.936	9.78
526.135	9.88
526.333	10.11
526.532	10.12
526.73	10.15
526.929	10.2
527.127	10.29
527.326	10.33
527.524	10.56
527.723	10.75
527.921	10.92
528.12	10.98
528.318	11.05
528.516	11.04
528.715	11.13
528.913	11.13
529.112	11.23
529.31	11.16
529.508	11.25
529.707	11.2
529.905	11.15
530.103	11.12
530.301	11.17
530.5	11.22
530.698	11.32
530.896	11.41
531.094	11.59
531.293	11.59
531.491	11.94
531.689	11.95
531.887	12.06
532.085	12.25
532.283	12.36
532.481	12.39
532.68	12.38
532.878	12.43
533.076	12.45
533.274	12.46
533.472	12.57
533.67	12.56
533.868	12.71
534.066	12.84
534.264	12.82
534.462	12.81
534.66	12.89
534.858	13.05
535.056	13.15
535.253	13.29
535.451	13.44
535.649	13.5
535.847	13.64
536.045	13.83
536.243	13.88
536.441	13.94
536.638	14.04
536.836	14.07
537.034	13.99
537.232	14.09
537.43	14.02
537.627	14.04
537.825	14.26
538.023	14.21
538.22	14.11
538.418	14.15
538.616	14.09
538.813	14.28
539.011	14.42
539.209	14.62
539.406	14.7
539.604	14.97
539.801	15.15
539.999	15.2
540.196	15.48
540.394	15.57
540.591	15.61
540.789	15.79
540.986	15.77
541.184	15.74
541.381	15.81
541.579	15.81
541.776	15.75
541.974	15.69
542.171	15.65
542.368	15.61
542.566	15.64
542.763	15.7
542.96	15.76
543.158	15.84
543.355	15.96
543.552	15.99
543.75	16.05
543.947	16.06
544.144	16.2
544.341	16.31
544.539	16.3
544.736	16.23
544.933	16.29
545.13	16.44
545.327	16.52
545.524	16.5
545.722	16.61
545.919	16.66
546.116	16.87
546.313	16.94
546.51	16.97
546.707	17.1
546.904	17.26
547.101	17.24
547.298	17.19
547.495	17.21
547.692	17.22
547.889	17.18
548.086	17.33
548.283	17.36
548.48	17.36
548.677	17.42
548.874	17.51
549.07	17.77
549.267	17.85
549.464	17.89
549.661	17.99
549.858	18.26
550.055	18.65
550.251	18.66
550.448	18.8
550.645	18.98
550.842	18.93
551.038	19
551.235	18.99
551.432	19.25
551.628	19.35
551.825	19.48
552.022	19.51
552.218	19.23
552.415	19.29
552.612	19.34
552.808	19.38
553.005	19.63
553.201	19.66
553.398	19.59
553.594	19.56
553.791	19.6
553.987	19.59
554.184	19.53
554.38	19.73
554.577	19.8
554.773	19.9
554.97	20.03
555.166	19.92
555.362	20.03
555.559	20.22
555.755	20.15
555.952	20.31
556.148	20.5
556.344	20.62
556.541	20.59
556.737	20.67
556.933	20.57
557.129	20.58
557.326	20.72
557.522	20.7
557.718	20.73
557.914	20.97
558.11	21.06
558.307	20.96
558.503	21.04
558.699	21.31
558.895	21.47
559.091	21.6
559.287	21.64
559.483	21.68
559.679	21.78
559.876	21.77
560.072	21.75
560.268	21.54
560.464	21.72
560.66	21.74
560.856	21.75
561.052	21.65
561.247	21.53
561.443	21.58
561.639	21.7
561.835	21.65
562.031	21.66
562.227	21.63
562.423	21.78
562.619	21.71
562.815	21.79
563.01	21.64
563.206	21.84
563.402	22.21
563.598	22.25
563.793	22.27
563.989	22.46
564.185	22.47
564.381	22.62
564.576	22.67
564.772	22.72
564.968	22.77
565.163	22.95
565.359	22.82
565.555	22.75
565.75	22.66
565.946	22.71
566.141	22.7
566.337	22.63
566.532	22.67
566.728	22.64
566.923	22.9
567.119	22.99
567.314	23.04
567.51	23.14
567.705	23.03
567.901	23.2
568.096	23.24
568.292	23.24
568.487	23.33
568.682	23.43
568.878	23.6
569.073	23.37
569.268	23.34
569.464	23.34
569.659	23.23
569.854	23.24
570.05	23.35
570.245	23.48
570.44	23.63
570.635	23.71
570.831	23.73
571.026	23.92
571.221	24.17
571.416	24.25
571.611	24.21
571.806	24.36
572.002	24.44
572.197	24.42
572.392	24.43
572.587	24.44
572.782	24.37
572.977	24.33
573.172	24.17
573.367	24.01
573.562	23.78
573.757	23.91
573.952	23.87
574.147	24.02
574.342	24.24
574.537	24.31
574.732	24.16
574.927	24.44
575.121	24.54
575.316	24.81
575.511	24.73
575.706	25.07
575.901	25.07
576.096	25.09
576.29	25.05
576.485	24.98
576.68	24.82
576.875	24.91
577.069	24.69
577.264	24.76
577.459	24.49
577.654	24.64
577.848	24.58
578.043	24.72
578.238	24.95
578.432	24.96
578.627	24.75
578.821	25
579.016	25.29
579.21	25.43
579.405	25.32
579.6	25.3
579.794	25.24
579.989	25.31
580.183	25.01
580.378	25.01
580.572	24.86
580.766	25.07
580.961	25.25
581.155	25.07
581.35	25.1
581.544	25.1
581.738	25.21
581.933	25.6
582.127	25.75
582.321	25.9
582.516	25.78
582.71	25.99
582.904	25.88
583.099	25.66
583.293	25.83
583.487	26.02
583.681	26.11
583.875	26.14
584.07	25.75
584.264	25.65
584.458	25.69
584.652	25.73
584.846	25.77
585.04	25.93
585.234	25.82
585.428	25.71
585.623	25.64
585.817	25.73
586.011	25.81
586.205	25.65
586.399	25.83
586.593	26.06
586.787	26.18
586.981	26.23
587.174	25.97
587.368	26.17
587.562	26.23
587.756	26.34
587.95	26.36
588.144	26.55
588.338	26.58
588.532	26.55
588.725	26.46
588.919	26.36
589.113	26.51
589.307	26.53
589.501	26.54
589.694	26.49
589.888	26.46
590.082	26.61
590.275	26.5
590.469	26.82
590.663	26.68
590.856	26.8
591.05	26.92
591.244	27.11
591.437	27.34
591.631	27.22
591.824	27.3
592.018	27.53
592.212	27.37
592.405	27.4
592.599	27.37
592.792	27.63
592.986	27.49
593.179	27.39
593.372	27.43
593.566	27.37
593.759	27.35
593.953	27.48
594.146	27.31
594.339	27.22
594.533	27.21
594.726	27.15
594.92	27.03
595.113	27.24
595.306	27.25
595.499	26.97
595.693	27.08
595.886	27.14
596.079	27.06
596.272	26.93
596.466	26.99
596.659	26.9
596.852	27.12
597.045	27.11
597.238	26.89
597.431	26.97
597.624	27.16
597.818	27.35
598.011	27.39
598.204	27.48
598.397	27.58
598.59	27.45
598.783	27.67
598.976	27.74
599.169	27.69
599.362	27.91
599.555	28.22
599.748	27.96
599.941	27.92
600.134	28.01
600.326	27.96
600.519	28.31
600.712	28.6
600.905	28.47
601.098	28.15
601.291	28.56
601.483	28.43
601.676	28.11
601.869	28.24
602.062	28.11
602.255	28.07
602.447	28.01
602.64	27.84
602.833	27.82
603.025	27.91
603.218	28.21
603.411	28.16
603.603	28.23
603.796	28.48
603.989	28.62
604.181	28.64
604.374	28.65
604.566	28.81
604.759	28.89
604.951	28.9
605.144	28.8
605.336	28.65
605.529	28.31
605.721	28.32
605.914	28.32
606.106	28.16
606.299	28.22
606.491	28.39
606.683	28.3
606.876	28.23
607.068	28.12
607.26	28.42
607.453	28.47
607.645	28.8
607.837	28.85
608.03	28.7
608.222	28.72
608.414	28.54
608.606	28.31
608.799	28.27
608.991	28.35
609.183	28.41
609.375	28.36
609.567	28.62
609.759	28.72
609.952	28.93
610.144	29.14
610.336	29.12
610.528	29.32
610.72	29.57
610.912	29.57
611.104	29.65
611.296	29.87
611.488	29.73
611.68	29.84
611.872	29.82
612.064	29.76
612.256	29.49
612.448	29.47
612.64	29.49
612.832	29.33
613.023	29.57
613.215	29.33
613.407	29.23
613.599	29.56
613.791	29.32
613.983	29.51
614.174	29.24
614.366	29.51
614.558	29.87
614.75	29.82
614.941	29.92
615.133	29.52
615.325	29.69
615.516	29.81
615.708	29.5
615.9	29.61
616.091	29.31
616.283	29.46
616.475	29.46
616.666	29.4
616.858	29.33
617.049	29.48
617.241	29.66
617.432	29.64
617.624	29.58
617.815	29.61
618.007	29.45
618.198	29.35
618.39	29.33
618.581	29.09
618.773	29.14
618.964	29.03
619.155	28.83
619.347	29.12
619.538	29.21
619.729	29.21
619.921	29.31
620.112	29.53
620.303	29.6
620.494	29.46
620.686	29.61
620.877	29.62
621.068	29.93
621.259	30.24
621.451	30.03
621.642	30.16
621.833	30.5
622.024	30.58
622.215	30.49
622.406	30.76
622.597	31.05
622.788	30.84
622.98	30.66
623.171	30.57
623.362	30.39
623.553	30.24
623.744	30.17
623.935	29.9
624.126	29.7
624.317	29.66
624.508	29.69
624.698	29.54
624.889	29.84
625.08	29.9
625.271	30.05
625.462	29.74
625.653	29.84
625.844	29.72
626.034	29.9
626.225	29.99
626.416	30.09
626.607	30.07
626.798	29.85
626.988	29.68
627.179	29.77
627.37	29.57
627.56	29.9
627.751	29.91
627.942	29.89
628.132	29.9
628.323	29.88
628.514	29.68
628.704	29.58
628.895	29.84
629.085	30
629.276	29.96
629.466	30
629.657	30.13
629.847	30.38
630.038	30.66
630.228	30.47
630.419	30.62
630.609	30.7
630.8	30.8
630.99	30.77
631.181	30.96
631.371	30.61
631.561	30.86
631.752	30.73
631.942	30.61
632.132	30.39
632.323	30.26
632.513	30.48
632.703	30.31
632.893	30.24
633.084	30.11
633.274	29.78
633.464	29.89
633.654	29.77
633.844	29.55
634.034	29.64
634.225	29.66
634.415	29.79
634.605	29.74
634.795	30.03
634.985	30
635.175	30.19
635.365	30.36
635.555	30.52
635.745	30.62
635.935	30.89
636.125	30.98
636.315	31.02
636.505	31.18
636.695	30.93
636.885	30.68
637.075	30.41
637.265	30.6
637.455	30.49
637.644	30.51
637.834	30.23
638.024	29.9
638.214	29.67
638.404	29.83
638.593	29.94
638.783	29.77
638.973	29.98
639.163	30.29
639.352	30.31
639.542	30.49
639.732	30.43
639.921	30.41
640.111	30.74
640.301	30.47
640.49	30.79
640.68	30.89
640.87	31.18
641.059	31.14
641.249	30.96
641.438	30.44
641.628	30.37
641.817	30.52
642.007	30.66
642.196	30.91
642.386	30.83
642.575	30.42
642.764	29.9
642.954	29.99
643.143	30.13
643.333	30.33
643.522	30.79
643.711	30.59
643.901	30.66
644.09	30.74
644.279	30.3
644.469	30.61
644.658	30.12
644.847	30.48
645.036	30.85
645.226	30.67
645.415	30.51
645.604	30.19
645.793	30.23
645.982	30.24
646.171	30.08
646.361	30.04
646.55	30.37
646.739	30.92
646.928	30.87
647.117	30.08
647.306	30.25
647.495	30.63
647.684	30.39
647.873	30.66
648.062	30.95
648.251	31.14
648.44	31.46
648.629	31.48
648.818	31.16
649.007	30.95
649.196	31.42
649.384	31.54
649.573	31.07
649.762	31.39
649.951	31.2
650.14	30.58
650.328	30.6
650.517	30.28
650.706	30.09
650.895	30.43
651.083	30.53
651.272	30.78
651.461	30.47
651.65	31
651.838	31.15
652.027	31.39
652.216	31.88
652.404	31.71
652.593	31.88
652.781	32.11
652.97	32.1
653.158	32.04
653.347	32
653.535	32.06
653.724	32.21
653.912	31.92
654.101	31.75
654.289	31.25
654.478	31.3
654.666	31.19
654.855	30.82
655.043	30.67
655.231	30.53
655.42	30.5
655.608	30.7
655.796	30.24
655.985	30.37
656.173	30.3
656.361	30.41
656.55	30.52
656.738	30.76
656.926	31.09
657.114	30.63
657.302	30.68
657.491	30.42
657.679	30.28
657.867	30.66
658.055	30.66
658.243	30.79
658.431	30.98
658.619	31.36
658.807	31.35
658.996	31.29
659.184	31.3
659.372	31.55
659.56	31.76
659.748	31.5
659.936	31.34
660.124	31.33
660.311	31.14
660.499	30.9
660.687	30.5
660.875	30.34
661.063	30.34
661.251	30.78
661.439	31.04
661.627	30.81
661.814	31.34
662.002	31.29
662.19	31.6
662.378	31.85
662.565	32.05
662.753	32.18
662.941	32.05
663.129	31.8
663.316	31.59
663.504	30.59
663.692	30.19
663.879	30
664.067	30.19
664.254	30.38
664.442	30.71
664.63	30.74
664.817	30.83
665.005	31.35
665.192	31.46
665.38	31.35
665.567	32.14
665.755	32.57
665.942	32.71
666.13	32.55
666.317	32.37
666.504	31.79
666.692	32.04
666.879	31.68
667.067	31.57
667.254	31.58
667.441	31.77
667.629	31.57
667.816	31.35
668.003	31.22
668.19	30.87
668.378	30.74
668.565	31.05
668.752	30.61
668.939	30.97
669.127	30.92
669.314	31.14
669.501	31.19
669.688	30.94
669.875	31.12
670.062	31.44
670.249	31.53
670.436	31.45
670.623	31.29
670.81	31.74
670.997	31.47
671.184	31.12
671.371	31.23
671.558	31.19
671.745	31.38
671.932	31.34
672.119	30.57
672.306	30.67
672.493	30.48
672.68	30.17
672.867	30.14
673.054	29.52
673.24	29.52
673.427	29.15
673.614	29.21
673.801	29.55
673.988	30.34
674.174	30.69
674.361	30.75
674.548	31.07
674.734	31.36
674.921	31.5
675.108	32.03
675.294	32.36
675.481	32.4
675.668	32.94
675.854	32.51
676.041	31.57
676.227	31.58
676.414	31.44
676.601	31.14
676.787	31.17
676.974	30.96
677.16	31.28
677.347	31.87
677.533	32.29
677.719	32.36
677.906	32.34
678.092	32.86
678.279	33.3
678.465	33.66
678.651	34.23
678.838	34.09
679.024	33.73
679.21	33.59
679.397	33.31
679.583	32.74
679.769	32.26
679.955	32.11
680.142	31.84
680.328	31.39
680.514	30.83
680.7	30.94
680.886	31.26
681.073	31.53
681.259	32.04
681.445	31.89
681.631	32.05
681.817	32.04
682.003	32.37
682.189	32.71
682.375	32.93
682.561	33.49
682.747	33.14
682.933	32.6
683.119	32.69
683.305	32.16
683.491	32.23
683.677	32.43
683.863	32.16
684.049	32.44
684.235	32.29
684.42	32.45
684.606	32.43
684.792	32.67
684.978	33.57
685.164	33.59
685.349	33.86
685.535	33.61
685.721	33.64
685.907	33.61
686.092	33.3
686.278	32.89
686.464	32.85
686.649	32.71
686.835	32.33
687.021	32.07
687.206	31.98
687.392	31.45
687.577	31.96
687.763	31.66
687.948	32.22
688.134	32.3
688.319	32.36
688.505	32.41
688.69	32.79
688.876	32.8
689.061	32.32
689.247	32.12
689.432	32.72
689.618	32.16
689.803	32.36
689.988	32.19
690.174	32.05
690.359	31.47
690.544	30.95
690.73	30.6
690.915	30.39
691.1	30.69
691.285	31.2
691.471	31.31
691.656	31.85
691.841	31.73
692.026	31.39
692.211	31.3
692.396	32.03
692.582	32.26
692.767	31.95
692.952	32.34
693.137	31.92
693.322	31.18
693.507	31.12
693.692	30.45
693.877	30.31
694.062	30.57
694.247	30.58
694.432	30.44
694.617	30.63
694.802	31.05
694.987	30.92
695.172	31.09
695.357	32.18
695.541	31.8
695.726	32.28
695.911	32.62
696.096	33.02
696.281	32.73
696.466	33.25
696.65	33.62
696.835	33.62
697.02	33.66
697.204	33.62
697.389	33.06
697.574	33.1
697.759	32.78
697.943	32.77
698.128	32.39
698.312	32.98
698.497	32.85
698.682	32.6
698.866	32.63
699.051	32.59
699.235	32.71
699.42	32.7
699.604	32.85
699.789	32.78
699.973	32.8
700.158	33.09
700.342	32.85
700.527	32.67
700.711	32.73
700.895	33.13
701.08	32.77
701.264	33.29
701.448	33.23
701.633	32.9
701.817	33.01
702.001	32.66
702.186	32.81
702.37	32.93
702.554	32.92
702.738	33
702.923	32.56
703.107	32.97
703.291	32.46
703.475	32.66
703.659	32.87
703.843	32.93
704.027	33.08
704.212	33.06
704.396	32.95
704.58	33.08
704.764	32.44
704.948	32.06
705.132	32.17
705.316	31.75
705.5	31.59
705.684	31.36
705.868	32
706.052	31.94
706.235	31.08
706.419	31.67
706.603	31.53
706.787	32.14
706.971	32.4
707.155	32.59
707.339	32.59
707.522	32.69
707.706	33.16
707.89	32.87
708.074	33.22
708.257	33.93
708.441	33.39
708.625	33.45
708.808	33.49
708.992	33.45
709.176	33.32
709.359	33.56
709.543	33.63
709.727	33.04
709.91	33.23
710.094	33.41
710.277	33.24
710.461	33.75
710.644	33.78
710.828	33.57
711.011	33.81
711.195	33.89
711.378	33.82
711.562	33.86
711.745	34.34
711.928	34.02
712.112	33.61
712.295	33.27
712.478	32.98
712.662	33.13
712.845	32.82
713.028	32.26
713.212	32.01
713.395	31.64
713.578	31.77
713.761	31.31
713.945	31.34
714.128	31.2
714.311	31.58
714.494	31.6
714.677	32.31
714.86	33.16
715.043	33.38
715.227	33.96
715.41	34.08
715.593	34
715.776	33.99
715.959	33.24
716.142	33.6
716.325	33.64
716.508	33.57
716.691	32.94
716.874	32.39
717.057	32.36
717.239	32.19
717.422	32.33
717.605	31.33
717.788	30.63
717.971	31.48
718.154	31.29
718.337	30.78
718.519	30.77
718.702	30.26
718.885	30.15
719.068	29.68
719.25	29.44
719.433	29.53
719.616	30.52
719.798	30.85
719.981	30.45
720.164	30.85
720.346	31.37
720.529	31.6
720.712	32.19
720.894	32.72
721.077	33.29
721.259	33.39
721.442	33.08
721.624	32.98
721.807	34.1
721.989	34.64
722.172	33.85
722.354	33.24
722.537	33.46
722.719	33.68
722.901	32.52
723.084	32.08
723.266	31.95
723.448	32.96
723.631	32.13
723.813	32.33
723.995	31.67
724.178	31.69
724.36	31.92
724.542	31.28
724.724	30.5
724.907	30.68
725.089	30.68
725.271	30.95
725.453	30.41
725.635	32.03
725.817	31.79
725.999	32.04
726.181	31.75
726.364	31.73
726.546	31.43
726.728	31.28
726.91	31.68
727.092	31.9
727.274	31.63
727.456	32.15
727.638	32.07
727.819	31.6
728.001	31.56
728.183	32.84
728.365	33.62
728.547	34.47
728.729	35.51
728.911	36.35
729.093	36.01
729.274	36.31
729.456	35.84
729.638	35.04
729.82	35.4
730.001	35.14
730.183	34.6
730.365	34.84
730.546	34.48
730.728	34.4
730.91	33.5
731.091	34.57
731.273	34.37
731.455	34.33
731.636	34.76
731.818	34.62
731.999	34.96
732.181	34.5
732.362	34.23
732.544	33.39
732.725	32.69
732.907	33.37
733.088	33.58
733.27	33.29
733.451	33.34
733.633	33.05
733.814	33.26
733.995	32.64
734.177	33.14
734.358	32.34
734.539	33
734.721	32.65
734.902	32.2
735.083	30.78
735.264	31.24
735.446	31.22
735.627	31.61
735.808	31.36
735.989	32.04
736.17	31.95
736.351	32.5
736.533	33.29
736.714	34.07
736.895	34.16
737.076	34.64
737.257	34.37
737.438	34.87
737.619	35.27
737.8	34.58
737.981	34.64
738.162	34.45
738.343	33.48
738.524	32.16
738.705	32.72
738.886	31.94
739.067	32.95
739.247	32.79
739.428	31.85
739.609	31.73
739.79	33.55
739.971	33.43
740.151	34.24
740.332	35.48
740.513	36.1
740.694	35.51
740.874	36.18
741.055	34.91
741.236	35.01
741.417	34.42
741.597	33.48
741.778	32.99
741.958	33.01
742.139	32.16
742.32	32.42
742.5	33.11
742.681	33.08
742.861	33.18
743.042	34.45
743.222	33.67
743.403	35.08
743.583	36.33
743.764	34.73
743.944	34.49
744.124	35.98
744.305	34.43
744.485	32.98
744.666	32.48
744.846	31.29
745.026	30.34
745.207	31.22
745.387	30.48
745.567	29.81
745.747	30.83
745.928	31
746.108	29.05
746.288	28.64
746.468	28.87
746.648	29.23
746.829	29.16
747.009	28.89
747.189	28.02
747.369	27.8
747.549	27.22
747.729	26.11
747.909	25.58
748.089	25.43
748.269	26.56
748.449	26.66
748.629	27.56
748.809	28.55
748.989	28.59
749.169	29.29
749.349	29.91
749.529	29.96
749.709	31.75
749.889	31.94
750.068	32.73
750.248	33.17
750.428	33.68
750.608	32.48
750.788	32.56
750.967	32.57
751.147	32.21
751.327	32.38
751.507	32.08
751.686	31.34
751.866	31.37
752.046	31.19
752.225	30.45
752.405	31.18
752.585	31.57
752.764	32.35
752.944	32.04
753.123	32.31
753.303	32.56
753.482	32.75
753.662	32.14
753.841	32.88
754.021	31.14
754.2	31.14
754.38	30.67
754.559	30.7
754.739	29.36
754.918	28.96
755.097	29.35
755.277	28.28
755.456	29.13
755.635	28.65
755.815	27.81
755.994	29.21
756.173	28.96
756.352	29.35
756.532	29.34
756.711	30.24
756.89	31.42
757.069	30.79
757.248	31.56
757.427	29.92
757.607	32.18
757.786	32.78
757.965	34.37
758.144	34.77
758.323	33.68
758.502	33.43
758.681	33.46
758.86	32.64
759.039	32.45
759.218	32.11
759.397	33.41
759.576	32.11
759.755	32.7
759.934	31.88
760.113	32.03
760.291	32.04
760.47	32.51
760.649	32.46
760.828	32.78
761.007	33.41
761.186	33.72
761.364	33.69
761.543	32.99
761.722	32.3
761.901	31.94
762.079	32.19
762.258	32.91
762.437	33.06
762.615	32.76
762.794	32.7
762.972	32.58
763.151	32.17
763.33	31.74
763.508	32.52
763.687	32.43
763.865	33.13
764.044	33.23
764.222	33.36
764.401	32.65
764.579	32.97
764.758	33.17
764.936	32.25
765.114	32.45
765.293	32.68
765.471	32.7
765.65	32.45
765.828	31.5
766.006	30.8
766.184	30.05
766.363	30.18
766.541	29.38
766.719	29.89
766.898	31.81
767.076	32.69
767.254	32.72
767.432	32.45
767.61	33.15
767.788	33.42
767.967	33.2
768.145	32.74
768.323	32.63
768.501	34.31
768.679	33.02
768.857	31.79
769.035	32.07
769.213	31.99
769.391	31.76
769.569	31.25
769.747	31.57
769.925	31.86
770.103	32.83
770.281	33.85
770.459	31.73
770.636	32.65
770.814	33.15
770.992	32.09
771.17	31.73
771.348	33.03
771.525	33.4
771.703	32.55
771.881	32.01
772.059	32.12
772.236	30.85
772.414	31.79
772.592	30.31
772.769	30.08
772.947	30.31
773.125	31.53
773.302	30.92
773.48	30.84
773.657	32.16
773.835	32.57
774.013	32.66
774.19	32.43
774.368	31.77
774.545	32.41
774.723	33.64
774.9	33.08
775.077	32.9
775.255	31.87
775.432	30.91
775.61	30.56
775.787	31.31
775.964	31.4
776.142	32.69
776.319	33.03
776.496	33.11
776.674	30.13
776.851	29.99
777.028	26.98
777.205	28.67
777.382	29.14
777.56	28.55
777.737	28.43
777.914	26.86
778.091	27.5
778.268	26.97
778.445	27.37
778.622	30
778.8	29.75
778.977	32.2
779.154	30.33
779.331	30.49
779.508	30.94
779.685	31.33
779.862	31.98
780.038	31.36
780.215	30.86
780.392	31.73
780.569	30.41
780.746	30.58
780.923	31.32
781.1	33.37
781.277	32.01
781.453	30.46
781.63	30.25
781.807	31.42
781.984	31.16
782.16	32.57
782.337	31.29
782.514	31.13
782.691	29.48
782.867	29.14
783.044	25.61
783.221	27
783.397	27.65
783.574	27.29
783.75	26.7
783.927	26.32
784.103	26.54
784.28	27.08
784.456	27.23
784.633	28.02
784.809	28.94
784.986	29.54
785.162	28.22
785.339	27.83
785.515	26.32
785.692	25.87
785.868	27.61
786.044	26.14
786.221	24.59
786.397	25.11
786.573	26.53
786.749	24.45
786.926	27.3
787.102	29.99
787.278	30.41
787.454	33.06
787.631	32.83
787.807	31.2
787.983	33.21
788.159	34.09
788.335	34.77
788.511	35.52
788.687	34.39
788.863	32.03
789.039	32.21
789.216	31.73
789.392	29.89
789.568	29.86
789.744	31.13
789.919	29.04
790.095	29.93
790.271	31.38
790.447	30.23
790.623	30.63
790.799	32.27
790.975	31.19
791.151	33.9
791.327	35.46
791.502	36.11
791.678	35.31
791.854	36.28
792.03	34.84
792.205	32.13
792.381	33.98
792.557	37.25
792.733	36.06
792.908	35.36
793.084	34.81
793.259	34.12
793.435	33.33
793.611	34.32
793.786	35.61
793.962	35.78
794.137	36.6
794.313	31.25
794.488	27.99
794.664	28.1
794.839	29.37
795.015	27.42
795.19	26.69
795.366	24.79
795.541	23.7
795.716	22.64
795.892	23.36
796.067	25.44
796.242	27.68
796.418	28.38
796.593	30.16
796.768	30.51
796.944	29.88
797.119	29.39
797.294	30.49
797.469	29.48
797.644	30.07
797.82	30.71
797.995	28.49
798.17	30.59
798.345	31.57
798.52	30.94
798.695	30.4
798.87	29.4
799.045	31.5
799.22	32.78
799.395	33.43
799.57	31.92
799.745	32.75
799.92	33.3
800.095	30.27
800.27	28.9
800.445	27.22
800.62	27.86
800.795	29.42
800.97	29.95
801.145	28.87
801.319	30.22
801.494	29.57
801.669	27.54
801.844	25.54
802.018	28.46
802.193	29.42
802.368	29.17
802.543	30.21
802.717	31.53
802.892	31.84
803.067	32.06
803.241	33.25
803.416	34.75
803.59	34.93
803.765	37.19
803.94	33.58
804.114	30.62
804.289	33.02
804.463	32.17
804.638	32.37
804.812	28.71
804.986	31.03
805.161	29.57
805.335	30.74
805.51	32.77
805.684	31.21
805.858	31.81
806.033	35.13
806.207	34.13
806.381	33.86
806.556	30.1
806.73	31.69
806.904	30.97
807.078	28.97
807.253	27.54
807.427	26.51
807.601	27.2
807.775	26.85
807.949	29.24
808.123	30.68
808.298	29.39
808.472	31.43
808.646	30.87
808.82	30.19
808.994	31.02
809.168	30.97
809.342	31.96
809.516	30.97
809.69	33.03
809.864	28.76
810.038	26.71
810.212	26.11
810.385	27.72
810.559	28.72
810.733	28.12
810.907	28.3
811.081	26.44
811.255	25.82
811.428	26.96
811.602	26.37
811.776	26.9
811.95	29.07
812.123	33.41
812.297	31.83
812.471	28.56
812.644	28.79
812.818	33.47
812.992	36.94
813.165	35.91
813.339	35.58
813.512	35.95
813.686	37.45
813.86	36.97
814.033	34.62
814.207	36.44
814.38	41.91
814.554	42.42
814.727	36.79
814.9	34.79
815.074	35.6
815.247	35.39
815.421	34.12
815.594	30.22
815.767	29.14
815.941	26.37
816.114	26.45
816.287	19.45
816.46	16.97
816.634	19.38
816.807	19.1
816.98	20.88
817.153	23
817.327	21.72
817.5	22.18
817.673	22.2
817.846	24.77
818.019	23.46
818.192	25.56
818.365	27.61
818.538	29.72
818.711	31.71
818.884	30.22
819.057	25.05
819.23	26.14
819.403	27.81
819.576	25.69
819.749	24.65
819.922	23.62
820.095	23.13
820.268	24.48
820.441	24.06
820.614	24.63
820.786	26.89
820.959	29.89
821.132	31.4
821.305	30.28
821.477	31.78
821.65	31.88
821.823	32.84
821.996	33.62
822.168	33.23
822.341	33
822.514	32.44
822.686	32.98
822.859	32.93
823.031	33.16
823.204	34.38
823.376	34.42
823.549	34.04
823.722	34.25
823.894	34.1
824.067	34.28
824.239	34.19
824.411	34.45
824.584	33.78
824.756	33.17
824.929	32.55
825.101	31.11
825.273	30.44
825.446	31.4
825.618	32.06
825.79	32.16
825.963	31.94
826.135	32.4
826.307	32.76
826.479	31.56
826.652	31.23
826.824	31.6
826.996	32.46
827.168	34.1
827.34	33.64
827.512	31.78
827.684	31.82
827.856	31.98
828.029	33.09
828.201	32.82
828.373	33.84
828.545	34.83
828.717	34.12
828.889	34.65
829.061	33.39
829.232	34.38
829.404	35.65
829.576	36.01
829.748	36.18
829.92	35.32
830.092	36.89
830.264	36.97
830.436	37.16
830.607	38.85
830.779	38
830.951	40.11
831.123	38.28
831.294	37.89
831.466	38.28
831.638	38.63
831.809	38.39
831.981	37.22
832.153	36.3
832.324	37.56
832.496	35.51
832.667	35.8
832.839	31.46
833.011	32.91
833.182	33.98
833.354	30.94
833.525	31.59
833.697	31.02
833.868	29.47
834.039	29.67
834.211	28.4
834.382	29.3
834.554	30.02
834.725	30.26
834.896	28.14
835.068	28.72
835.239	29.56
835.41	29.2
835.581	29.07
835.753	30.29
835.924	29.3
836.095	29.99
836.266	28.19
836.438	27.1
836.609	26.84
836.78	28.25
836.951	26.94
837.122	25.62
837.293	27.08
837.464	26.05
837.635	25.2
837.806	27.53
837.977	26.92
838.148	28.32
838.319	28.07
838.49	31.67
838.661	31.77
838.832	31.88
839.003	33.42
839.174	28.6
839.345	27.96
839.516	26.32
839.687	22.22
839.857	20.86
840.028	23.23
840.199	23.54
840.37	22.7
840.54	25.44
840.711	22.97
840.882	24.22
841.053	22.84
841.223	25.27
841.394	26.76
841.564	24.16
841.735	26.87
841.906	25.8
842.076	26.2
842.247	23.18
842.417	20.11
842.588	24.79
842.758	23.57
842.929	26.05
843.099	21.25
843.27	20.49
843.44	26.98
843.611	26.81
843.781	22.72
843.951	21.34
844.122	23.96
844.292	20.28
844.462	17.86
844.633	20.06
844.803	15.57
844.973	15.16
845.144	14.77
845.314	9.86
845.484	1.48
845.654	7.75
845.824	13.44
845.995	6.91
846.165	10.71
846.335	2.88
846.505	1.51
846.675	8.07
846.845	19.05
847.015	20.56
847.185	28.75
847.355	37.48
847.525	32.54
847.695	19.59
847.865	18.74
848.035	21.81
848.205	24.81
848.375	22.25
848.545	23.88
848.715	15.17
848.884	11.96
849.054	5.61
849.224	-2.45
849.394	4.2
849.564	8.51
849.733	17.04
849.903	19.22
850.073	18.86
850.243	17.26
850.412	16.46
850.582	13.13
850.752	15.61
850.921	19.08
851.091	20.78
851.26	11.62
851.43	16.64
851.599	11.28
851.769	0.73
851.939	1.02
852.108	7.79
852.278	6.48
852.447	15.2
852.616	17.84
852.786	21.07
852.955	22.36
853.125	28.85
853.294	29.87
853.463	27.85
853.633	26.03
853.802	29.74
853.971	28.74
854.141	19.27
854.31	15.49
854.479	12.8
854.648	11.27
854.818	15.62
854.987	17.39
855.156	9.61
855.325	14.57
855.494	20.12
855.663	18.95
855.832	17.26
856.001	20
856.171	16.44
856.34	13.21
856.509	15.04
856.678	12.2
856.847	13.48
857.016	15.26
857.185	11.4
857.353	12.82
857.522	14.46
857.691	7.69
857.86	14.76
858.029	21.27
858.198	26.09
858.367	22.29
858.535	21.19
858.704	21.27
858.873	30.19
859.042	42.97
859.21	52.17
859.379	38.22
859.548	47.69
859.717	46.1
859.885	50.14
860.054	49.78
860.222	49.14
860.391	49.64
860.56	49.6
860.728	43.51
860.897	31.8
861.065	25.75
861.234	35.59
861.402	34.97
861.571	32.99
861.739	24.2
861.908	23.28
862.076	14.6
862.244	9.77
862.413	1.41
862.581	8.83
862.749	14.74
862.918	12.14
863.086	4.41
863.254	6.61
863.423	6.68
863.591	16.25
863.759	10.68
863.927	18.09
864.096	21.87
864.264	20.8
864.432	14.66
864.6	12.83
864.768	8.13
864.936	-0.5
865.104	-10.89
865.272	-16.62
865.44	-23.11
865.608	-21.45
865.776	-12.66
865.944	-11.6
866.112	-9.96
866.28	-5.4
866.448	-4.53
866.616	-1.6
866.784	16.86
866.952	27.45
867.12	22.54
867.288	24.68
867.455	27.53
867.623	21.67
867.791	22.96
867.959	35.6
868.127	30.76
868.294	33.85
868.462	44.31
868.63	30.74
868.797	25.92
868.965	37.47
869.133	37.3
869.3	43.05
869.468	49.58
869.636	39.21
869.803	31.96
869.971	37.45
870.138	33.45
870.306	28.37
870.473	29.76
870.641	26.11
870.808	21.83
870.975	13.37
871.143	11.97
871.31	4.3
871.478	11.77
871.645	9.79
871.812	1.72
871.98	11.05
872.147	13.99
872.314	17.32
872.482	11.22
872.649	16.24
872.816	15.2
872.983	9.72
873.15	14
873.318	3.74
873.485	4.92
873.652	5.19
873.819	6.57
873.986	11.42
874.153	13.54
874.32	8.27
874.487	5.12
874.654	9.56
874.821	11.87
874.988	11.92
875.155	15.43
875.322	9.3
875.489	14.98
875.656	11.96
875.823	8.99
875.99	7.72
876.157	29.51
876.324	33.72
876.49	33.07
876.657	33.65
876.824	34.31
876.991	31.22
877.157	29.75
877.324	23.46
877.491	16.31
877.658	18.1
877.824	5.8
877.991	3.87
878.157	10.32
878.324	14.61
878.491	6.32
878.657	14.43
878.824	20.13
878.99	28.73
879.157	32.36
879.323	38.75
879.49	36.85
879.656	44.38
879.823	38.76
879.989	35.23
880.156	32.97
880.322	34.77
880.488	32.08
880.655	33.33
880.821	36.57
880.987	37.84
881.154	40.67
881.32	44.43
881.486	43.75
881.652	41.49
881.819	39.74
881.985	36.97
882.151	36.34
882.317	36.57
882.483	34.29
882.649	31.34
882.816	31.11
882.982	29.89
883.148	26.71
883.314	26.65
883.48	26.59
883.646	25.86
883.812	26.61
883.978	26.55
884.144	26.9
884.31	28.17
884.476	30.18
884.642	28.97
884.807	28.23
884.973	29.8
885.139	30.39
885.305	32.41
885.471	33.28
885.637	33.69
885.802	35.33
885.968	33.49
886.134	33.98
886.3	32.02
886.465	31.96
886.631	30.97
886.797	29.75
886.962	27.36
887.128	22.54
887.293	20.95
887.459	20.95
887.625	22.25
887.79	23.2
887.956	20.26
888.121	19.55
888.287	20.37
888.452	22.85
888.618	24.24
888.783	23.25
