Data from CB_046_Reflection_00002.txt Node
Date: Wed Nov 11 22:22:26 EST 2015
User: robert
Spectrometer: USB4E03001
Autoset integration time: false
Trigger mode: 4
Integration Time (sec): 1.000000E-1
Scans to average: 15
Electric dark correction enabled: true
Nonlinearity correction enabled: false
Boxcar width: 5
Stray light correction enabled: false
XAxis mode: Wavelengths
Stop averaging: false
Number of Pixels in Spectrum: 3648
>>>>>Begin Spectral Data<<<<<
177.566	-228.65
177.785	-626.32
178.005	185.45
178.225	599.66
178.445	35.13
178.665	19.37
178.885	545.23
179.105	-132.28
179.324	-184.04
179.544	-46.62
179.764	-22.77
179.984	-70.02
180.204	-33.7
180.423	-42.86
180.643	-9.42
180.863	16.75
181.083	14.28
181.302	4.1
181.522	-2.17
181.742	22.81
181.961	22.91
182.181	25.53
182.401	40.66
182.621	43.49
182.84	33.32
183.06	33.71
183.279	37.84
183.499	57.09
183.719	77.42
183.938	98.74
184.158	114.35
184.377	114.48
184.597	142.53
184.816	156.76
185.036	127.13
185.256	162.04
185.475	152.21
185.695	161.18
185.914	185.7
186.134	191.81
186.353	166.47
186.572	89.04
186.792	64.03
187.011	27.98
187.231	45.98
187.45	82.16
187.67	11.16
187.889	25.63
188.108	50.28
188.328	37.35
188.547	19.8
188.766	20.04
188.986	23.82
189.205	14.64
189.424	18.92
189.644	-6.51
189.863	-4.8
190.082	24.32
190.302	38.83
190.521	61.12
190.74	60.49
190.959	59.47
191.178	49.44
191.398	48.06
191.617	65.36
191.836	52.38
192.055	49.49
192.274	41.49
192.494	28.05
192.713	16.38
192.932	23.21
193.151	19.24
193.37	20.14
193.589	35.57
193.808	27.47
194.027	17.73
194.246	64.95
194.465	75.09
194.685	81.15
194.904	81.69
195.123	77.26
195.342	61.63
195.561	61.94
195.78	89.58
195.999	122.05
196.218	99.6
196.436	99.53
196.655	97.29
196.874	119.99
197.093	103.21
197.312	81.08
197.531	75.41
197.75	102.62
197.969	110.26
198.188	70
198.407	44.67
198.625	71.02
198.844	58.6
199.063	50.83
199.282	38.46
199.501	41.72
199.719	38.41
199.938	64.92
200.157	-11.68
200.376	16.97
200.594	50.99
200.813	60.32
201.032	51.6
201.251	76.63
201.469	92.54
201.688	91.29
201.907	92.46
202.125	70.32
202.344	61.86
202.563	71.3
202.781	71.55
203	54.44
203.218	45.79
203.437	57.36
203.656	51.56
203.874	36.48
204.093	40.27
204.311	46.48
204.53	36.48
204.748	47.63
204.967	51.9
205.185	48.95
205.404	52.58
205.622	57.37
205.841	53.36
206.059	48.84
206.278	68.48
206.496	54.22
206.715	36.97
206.933	46.65
207.151	41.81
207.37	38.89
207.588	34.12
207.806	30.19
208.025	38.85
208.243	30.03
208.461	36.35
208.68	34.24
208.898	33.24
209.116	23.13
209.335	45.17
209.553	40.26
209.771	48.09
209.989	67.17
210.208	80.73
210.426	75.28
210.644	64.26
210.862	88.34
211.081	102.65
211.299	140.7
211.517	169.98
211.735	131.62
211.953	163.27
212.171	154.96
212.39	132.83
212.608	123.4
212.826	114.53
213.044	134.5
213.262	109.34
213.48	102.34
213.698	95.89
213.916	95.32
214.134	77.85
214.352	76.56
214.57	63.14
214.788	114.73
215.006	125.74
215.224	119.67
215.442	99.84
215.66	190.13
215.878	141.3
216.096	129.58
216.314	146.03
216.532	166.07
216.75	132.92
216.968	150.6
217.185	109.09
217.403	106.27
217.621	90.84
217.839	85.29
218.057	74.65
218.275	77.17
218.492	79.5
218.71	75.87
218.928	71.03
219.146	72.11
219.363	74.26
219.581	85.44
219.799	61.77
220.017	94.08
220.234	96.1
220.452	108.4
220.67	94.37
220.887	78.65
221.105	79.89
221.323	52.23
221.54	45.05
221.758	44.39
221.976	34.58
222.193	48.93
222.411	40.74
222.629	44.07
222.846	35.03
223.064	27.87
223.281	35.97
223.499	38.78
223.716	59.93
223.934	63.3
224.151	54.26
224.369	52.76
224.586	49.5
224.804	63.08
225.021	64.48
225.239	72.58
225.456	67.95
225.674	58.31
225.891	55.36
226.108	47.71
226.326	33.01
226.543	37.87
226.76	46.95
226.978	42.63
227.195	38.62
227.413	31.89
227.63	28.85
227.847	24.3
228.064	22.68
228.282	16.1
228.499	13.98
228.716	13.75
228.934	10.67
229.151	4.96
229.368	4.49
229.585	5.68
229.802	4.87
230.02	1.45
230.237	2.76
230.454	5
230.671	7.19
230.888	7.78
231.105	11.84
231.323	14.46
231.54	20.27
231.757	24.79
231.974	22.54
232.191	19.8
232.408	23.29
232.625	24.99
232.842	23.95
233.059	25.34
233.276	22.3
233.493	18.96
233.71	17.96
233.927	16.23
234.144	13.81
234.361	15.04
234.578	17.8
234.795	18.31
235.012	18.35
235.229	15.93
235.446	15.83
235.663	21.29
235.879	21.1
236.096	21.22
236.313	25.82
236.53	29.1
236.747	32.44
236.964	34
237.181	36.84
237.397	32.54
237.614	36.61
237.831	34.26
238.048	36.62
238.264	36.7
238.481	38.54
238.698	35.4
238.915	29.69
239.131	24.42
239.348	23.5
239.565	21.63
239.781	24.38
239.998	23.54
240.215	23.93
240.431	20.26
240.648	19.73
240.865	17.6
241.081	20
241.298	17.34
241.514	16.59
241.731	16.5
241.947	15.24
242.164	14.7
242.38	14.01
242.597	13.85
242.814	14.31
243.03	14.95
243.246	15.74
243.463	14.22
243.679	16.55
243.896	19.5
244.112	20.4
244.329	23.75
244.545	24.17
244.762	24.01
244.978	24.89
245.194	24.29
245.411	21.65
245.627	19.26
245.843	19.46
246.06	18.64
246.276	16.21
246.492	14.03
246.709	11.82
246.925	11.73
247.141	12.4
247.357	11.24
247.574	11.44
247.79	11.53
248.006	11.64
248.222	10.94
248.439	10.91
248.655	11.56
248.871	12.19
249.087	12.23
249.303	12.24
249.519	11.41
249.736	12.11
249.952	12.08
250.168	14.6
250.384	13.92
250.6	15.19
250.816	15.21
251.032	13.33
251.248	15.32
251.464	15.27
251.68	15.93
251.896	17.59
252.112	16.3
252.328	14.36
252.544	13.56
252.76	13.19
252.976	12.25
253.192	11.58
253.408	12.69
253.624	12.33
253.84	13.4
254.056	13.54
254.272	13.72
254.487	14.89
254.703	16.84
254.919	16.1
255.135	18.34
255.351	19.01
255.567	19.2
255.782	18.15
255.998	16.35
256.214	14.65
256.43	16.88
256.646	14.21
256.861	14.48
257.077	14.28
257.293	13.85
257.508	12.73
257.724	14.12
257.94	14.16
258.155	14.17
258.371	13.7
258.587	13.92
258.802	11.83
259.018	11.63
259.234	10.54
259.449	10.64
259.665	10.18
259.88	10.4
260.096	9.38
260.312	8.75
260.527	8.91
260.743	8.58
260.958	8.32
261.174	8.07
261.389	8.06
261.605	9.27
261.82	9.56
262.036	11.2
262.251	11.64
262.466	12.34
262.682	13.34
262.897	13.33
263.113	13.32
263.328	13.37
263.543	13.04
263.759	11.92
263.974	11.27
264.189	10.75
264.405	8.33
264.62	8.42
264.835	8.66
265.051	9.2
265.266	8.63
265.481	10.55
265.696	10.14
265.912	12.11
266.127	13.76
266.342	13.03
266.557	12.66
266.773	12.71
266.988	12.73
267.203	11.01
267.418	11.9
267.633	13.43
267.848	12.49
268.064	11.59
268.279	10.67
268.494	10.2
268.709	11.65
268.924	12.17
269.139	12.33
269.354	12.42
269.569	12.47
269.784	11.67
269.999	9.93
270.214	10.2
270.429	12.12
270.644	13.41
270.859	13.5
271.074	13.24
271.289	13.57
271.504	14.27
271.719	12.96
271.934	13.37
272.149	13.33
272.363	14.94
272.578	16.15
272.793	15.8
273.008	14.61
273.223	15.04
273.438	13.69
273.653	12.77
273.867	12.6
274.082	14.04
274.297	13.83
274.512	13.26
274.726	10.4
274.941	9.39
275.156	9.11
275.371	9.83
275.585	8.4
275.8	9.48
276.015	10.29
276.229	9.7
276.444	8.73
276.659	10.05
276.873	10.94
277.088	12.63
277.302	12.6
277.517	12.4
277.732	12.37
277.946	13.52
278.161	14.1
278.375	13.07
278.59	13.07
278.804	13.01
279.019	12.72
279.233	11.99
279.448	10.98
279.662	10.46
279.877	11.33
280.091	11.28
280.306	11.71
280.52	10.51
280.735	11.32
280.949	11.16
281.163	12.01
281.378	10.3
281.592	10.16
281.806	11.8
282.021	10.45
282.235	10.55
282.449	9.95
282.664	9.07
282.878	8.88
283.092	8.55
283.307	9.47
283.521	8.95
283.735	10.89
283.949	11.45
284.164	9.83
284.378	11.7
284.592	11.04
284.806	11.03
285.02	11.13
285.234	11.58
285.449	11.99
285.663	11.42
285.877	11.72
286.091	11.03
286.305	10.62
286.519	10.73
286.733	10.28
286.947	10.77
287.161	10.89
287.375	11.41
287.589	11.52
287.803	11.01
288.017	10.63
288.231	10.49
288.445	11.47
288.659	11.02
288.873	12.11
289.087	11.45
289.301	11.32
289.515	12.32
289.729	11.85
289.943	11.59
290.157	11.86
290.371	11.53
290.584	12
290.798	11.9
291.012	12.77
291.226	13.78
291.44	14.83
291.654	14.65
291.867	13.34
292.081	13.25
292.295	13.71
292.509	13.69
292.722	14.67
292.936	14.18
293.15	13.82
293.364	14.21
293.577	12.61
293.791	13.25
294.005	13.28
294.218	15.3
294.432	15.9
294.645	15.69
294.859	15.43
295.073	14.91
295.286	14.63
295.5	14.6
295.713	14.36
295.927	12.7
296.14	12.18
296.354	12.53
296.568	11.34
296.781	11.25
296.994	11.67
297.208	12.58
297.421	13.1
297.635	13.3
297.848	13.04
298.062	13
298.275	14.46
298.489	14.43
298.702	14.62
298.915	15.49
299.129	16.69
299.342	16.38
299.555	17.27
299.769	18.33
299.982	18.5
300.195	18.67
300.409	18.39
300.622	18.1
300.835	18.37
301.048	17.76
301.262	16.6
301.475	15.23
301.688	15.99
301.901	14.63
302.115	13.53
302.328	13.16
302.541	13.62
302.754	13.11
302.967	13.17
303.18	13.52
303.393	13.74
303.607	14.36
303.82	14.12
304.033	12.88
304.246	13.04
304.459	13.59
304.672	14.01
304.885	14.76
305.098	15.41
305.311	16.44
305.524	15.76
305.737	16.11
305.95	16.44
306.163	17.15
306.376	18.24
306.589	17.94
306.802	17.89
307.015	18.06
307.228	17.71
307.44	18.2
307.653	18.9
307.866	18.62
308.079	18.59
308.292	18.05
308.505	17.6
308.718	17.65
308.93	18.12
309.143	16.42
309.356	16.31
309.569	16.16
309.781	15.78
309.994	14.57
310.207	14.46
310.42	14.18
310.632	15.25
310.845	15.33
311.058	14.69
311.27	15.23
311.483	16.14
311.696	15.41
311.908	15.75
312.121	15.66
312.333	15.55
312.546	15.91
312.759	16.03
312.971	15.04
313.184	14.88
313.396	15.34
313.609	14.67
313.821	15.56
314.034	16.96
314.246	16.97
314.459	17.75
314.671	17.98
314.884	18.57
315.096	19.1
315.309	18.22
315.521	18.83
315.733	19.46
315.946	18.12
316.158	17.56
316.371	17.29
316.583	16.8
316.795	15.72
317.008	16.4
317.22	16.46
317.432	16.09
317.644	16.65
317.857	16.58
318.069	15.93
318.281	15.22
318.494	15.27
318.706	16.19
318.918	15.68
319.13	16.24
319.342	15.83
319.555	15.07
319.767	15.56
319.979	15.95
320.191	15.82
320.403	16.9
320.615	18.98
320.827	18.48
321.039	17.2
321.252	17.66
321.464	17.66
321.676	16.99
321.888	17.98
322.1	16.92
322.312	17.75
322.524	18.46
322.736	17.72
322.948	17.97
323.16	17.69
323.372	16.89
323.584	17.39
323.796	18
324.007	18.2
324.219	18.4
324.431	18.82
324.643	18.54
324.855	18.16
325.067	18.48
325.279	18.44
325.491	20.22
325.702	21.25
325.914	21.17
326.126	21.45
326.338	21.23
326.55	20.81
326.761	21.92
326.973	21.99
327.185	21.7
327.396	21.37
327.608	20.6
327.82	20.61
328.032	20.55
328.243	20.74
328.455	20.87
328.666	22.11
328.878	21.64
329.09	21.08
329.301	20.92
329.513	21.61
329.725	21.55
329.936	22.49
330.148	21.4
330.359	21.55
330.571	22.24
330.782	21.88
330.994	21.39
331.205	22.74
331.417	22.9
331.628	23.39
331.84	23.43
332.051	24.3
332.262	24.14
332.474	24.82
332.685	25.23
332.897	24.8
333.108	25.82
333.319	27.27
333.531	27.73
333.742	28.21
333.953	28.54
334.165	28.66
334.376	29.12
334.587	28.56
334.799	28.55
335.01	28.44
335.221	28.3
335.432	28.24
335.644	27.45
335.855	26.97
336.066	26.62
336.277	26.22
336.488	26.77
336.7	25.7
336.911	26.5
337.122	26.65
337.333	26.75
337.544	27.14
337.755	27.36
337.966	27.75
338.177	27.81
338.388	27.02
338.599	27.77
338.811	27.04
339.022	27.19
339.233	26.79
339.444	26.63
339.655	27.18
339.866	27.14
340.076	26.42
340.287	26.55
340.498	26.6
340.709	27.37
340.92	27.06
341.131	27.35
341.342	28.05
341.553	29.24
341.764	28.69
341.975	28.18
342.185	28.12
342.396	28.7
342.607	28.03
342.818	28.17
343.029	27.73
343.239	28.19
343.45	27.78
343.661	27.73
343.872	26.48
344.082	26.48
344.293	26.67
344.504	26.3
344.714	25.67
344.925	24.78
345.136	24.83
345.346	25.64
345.557	24.75
345.768	24.52
345.978	24.26
346.189	25.12
346.399	25.52
346.61	25.46
346.821	25.3
347.031	25.6
347.242	27.02
347.452	26.64
347.663	26.64
347.873	26.95
348.084	27.03
348.294	27.53
348.504	26.63
348.715	26.62
348.925	26.6
349.136	26.79
349.346	26.11
349.557	25.88
349.767	26.16
349.977	25.78
350.188	25.52
350.398	25.28
350.608	25
350.819	25.91
351.029	25.92
351.239	25.38
351.449	25.6
351.66	25.07
351.87	25.41
352.08	25.26
352.29	24.99
352.501	25.31
352.711	26.66
352.921	26.56
353.131	26.01
353.341	26.02
353.552	26.51
353.762	26.32
353.972	27.61
354.182	26.4
354.392	26.2
354.602	26.09
354.812	26.51
355.022	25.5
355.232	25.28
355.442	25.45
355.652	25.73
355.862	25.52
356.072	25.45
356.282	24.85
356.492	25.82
356.702	25.69
356.912	26.07
357.122	25.59
357.332	26.56
357.542	27.09
357.752	27.34
357.962	27.12
358.171	27.13
358.381	27.2
358.591	27.12
358.801	26.39
359.011	26.06
359.221	26.01
359.43	26.2
359.64	25.05
359.85	24.41
360.06	23.49
360.269	23.35
360.479	23.18
360.689	22.65
360.899	22.56
361.108	22.99
361.318	22.88
361.528	22.73
361.737	22.05
361.947	22.53
362.156	22.49
362.366	23.06
362.576	23.21
362.785	23.31
362.995	23.85
363.204	24.01
363.414	24.01
363.623	24.23
363.833	23.78
364.042	23.89
364.252	23.95
364.461	24.07
364.671	23.98
364.88	23.49
365.09	23.29
365.299	22.96
365.509	22.6
365.718	22.28
365.927	22.2
366.137	22.22
366.346	22.49
366.555	22.14
366.765	21.84
366.974	21.29
367.183	21.59
367.393	21.63
367.602	21.49
367.811	22.03
368.021	21.83
368.23	21.72
368.439	22.32
368.648	22.69
368.857	22.32
369.067	22.2
369.276	22.38
369.485	22.05
369.694	22.56
369.903	22.63
370.112	22.34
370.321	22.34
370.531	22.21
370.74	22.14
370.949	21.44
371.158	21.24
371.367	21.3
371.576	21.32
371.785	21.29
371.994	20.88
372.203	20.3
372.412	20.18
372.621	19.96
372.83	19.22
373.039	18.67
373.248	18.81
373.457	19.38
373.666	19.6
373.874	19.4
374.083	18.32
374.292	17.64
374.501	18.65
374.71	18.4
374.919	18.68
375.128	19.63
375.336	19.51
375.545	19.31
375.754	19.11
375.963	19.03
376.171	18.63
376.38	18.97
376.589	19.36
376.798	18.64
377.006	18.31
377.215	18.15
377.424	18.02
377.632	17.99
377.841	17.87
378.05	17.7
378.258	17.4
378.467	17.47
378.675	17.98
378.884	17.75
379.093	17.51
379.301	17.66
379.51	17.64
379.718	17.82
379.927	17.61
380.135	17.72
380.344	17.26
380.552	17.11
380.761	16.68
380.969	16.2
381.177	16.04
381.386	15.81
381.594	15.71
381.803	15.71
382.011	15.44
382.219	15.7
382.428	15.74
382.636	15.82
382.845	16.47
383.053	16.99
383.261	16.88
383.469	17.34
383.678	17.71
383.886	17.5
384.094	17.23
384.302	17.56
384.511	17.64
384.719	17.29
384.927	17.58
385.135	17.03
385.343	17.04
385.552	17.41
385.76	17.03
385.968	16.51
386.176	17.07
386.384	16.85
386.592	16.61
386.8	16.6
387.008	16.91
387.216	16.55
387.424	16.86
387.633	16.32
387.841	16.14
388.049	15.73
388.257	16.47
388.465	16.14
388.672	16.41
388.88	16.04
389.088	15.76
389.296	15.34
389.504	15.04
389.712	14.66
389.92	14.85
390.128	14.65
390.336	14.9
390.544	14.73
390.751	14.46
390.959	14.52
391.167	14.36
391.375	14.43
391.583	14.52
391.79	14.66
391.998	14.58
392.206	14.63
392.414	14.76
392.621	14.41
392.829	14.31
393.037	14.29
393.244	14.32
393.452	14.39
393.66	14.1
393.867	14.26
394.075	14.3
394.283	14.42
394.49	14.54
394.698	14.57
394.905	14.92
395.113	14.85
395.32	14.61
395.528	14.21
395.735	14.4
395.943	14.46
396.15	14.28
396.358	14.17
396.565	14.21
396.773	13.67
396.98	13.63
397.188	13.5
397.395	13.63
397.602	13.75
397.81	14.37
398.017	14.09
398.225	14.19
398.432	14.14
398.639	13.97
398.847	13.59
399.054	13.79
399.261	13.49
399.468	13.75
399.676	13.46
399.883	13.66
400.09	12.78
400.297	12.65
400.505	12.17
400.712	12.26
400.919	12.33
401.126	12.65
401.333	12.62
401.54	12.68
401.748	12.45
401.955	12.54
402.162	12.5
402.369	12.92
402.576	13.13
402.783	13.55
402.99	12.94
403.197	13.15
403.404	12.85
403.611	13.07
403.818	12.85
404.025	12.93
404.232	12.92
404.439	12.78
404.646	12.5
404.853	12.43
405.06	12.37
405.267	12.53
405.474	12.33
405.681	12.4
405.887	12.57
406.094	12.7
406.301	12.63
406.508	12.5
406.715	12.5
406.922	12.65
407.128	12.58
407.335	12.36
407.542	12.38
407.749	12.55
407.955	12.57
408.162	12.28
408.369	12.1
408.575	11.84
408.782	11.94
408.989	12.01
409.195	12.21
409.402	12.18
409.609	12.25
409.815	12.21
410.022	12.05
410.228	11.89
410.435	11.69
410.642	11.71
410.848	11.47
411.055	11.53
411.261	11.4
411.468	11.2
411.674	11.31
411.881	11.27
412.087	11.55
412.294	11.49
412.5	11.68
412.706	11.55
412.913	11.41
413.119	11.97
413.326	11.77
413.532	11.67
413.738	11.76
413.945	11.49
414.151	11.55
414.357	11.42
414.564	11.5
414.77	11.24
414.976	11.64
415.182	11.85
415.389	11.55
415.595	11.51
415.801	11.46
416.007	11.43
416.214	11.26
416.42	11.46
416.626	11.44
416.832	11.37
417.038	11.63
417.244	11.16
417.45	10.99
417.657	11.05
417.863	11.24
418.069	11.27
418.275	11.26
418.481	11.48
418.687	11.46
418.893	11.54
419.099	11.68
419.305	11.53
419.511	11.75
419.717	12.06
419.923	12.02
420.129	11.92
420.335	12.05
420.541	12.21
420.746	12.09
420.952	11.88
421.158	11.79
421.364	11.64
421.57	11.53
421.776	11.6
421.982	11.26
422.187	11.23
422.393	11.23
422.599	11.06
422.805	10.99
423.01	10.97
423.216	11.03
423.422	10.99
423.628	11.07
423.833	11.11
424.039	11.13
424.245	11.35
424.45	11.39
424.656	11.4
424.862	11.43
425.067	11.34
425.273	11.38
425.478	11.36
425.684	11.38
425.889	11.28
426.095	11.37
426.301	11.05
426.506	10.94
426.712	10.87
426.917	10.83
427.123	10.77
427.328	10.65
427.533	10.48
427.739	10.34
427.944	10.16
428.15	10.22
428.355	10.18
428.561	10.33
428.766	10.31
428.971	10.42
429.177	10.44
429.382	10.43
429.587	10.5
429.793	10.68
429.998	10.76
430.203	10.78
430.408	10.77
430.614	10.89
430.819	10.82
431.024	10.86
431.229	10.97
431.434	10.71
431.64	10.95
431.845	10.87
432.05	11.12
432.255	11.04
432.46	10.96
432.665	10.83
432.87	10.73
433.076	10.96
433.281	10.86
433.486	10.69
433.691	10.81
433.896	10.55
434.101	10.6
434.306	10.54
434.511	10.65
434.716	10.74
434.921	10.86
435.126	10.87
435.331	10.64
435.535	10.62
435.74	10.5
435.945	10.37
436.15	10.64
436.355	10.75
436.56	10.65
436.765	10.43
436.97	10.53
437.174	10.58
437.379	10.56
437.584	10.81
437.789	10.86
437.993	11.15
438.198	11.13
438.403	10.87
438.608	10.59
438.812	10.62
439.017	10.98
439.222	11.09
439.426	11.03
439.631	10.96
439.836	10.83
440.04	10.75
440.245	10.66
440.45	10.73
440.654	10.95
440.859	11
441.063	10.88
441.268	10.73
441.472	10.68
441.677	10.65
441.881	10.72
442.086	10.67
442.29	10.81
442.495	10.7
442.699	10.65
442.904	10.5
443.108	10.52
443.312	10.53
443.517	10.58
443.721	10.42
443.925	10.31
444.13	10.32
444.334	10.36
444.538	10.27
444.743	10.09
444.947	10
445.151	10.01
445.356	10.1
445.56	10.15
445.764	10.1
445.968	10.15
446.173	10.23
446.377	10.14
446.581	10.17
446.785	10.15
446.989	10.32
447.193	10.53
447.398	10.54
447.602	10.44
447.806	10.41
448.01	10.55
448.214	10.43
448.418	10.26
448.622	10.19
448.826	10.1
449.03	10.16
449.234	10.09
449.438	9.91
449.642	9.87
449.846	10.04
450.05	10.1
450.254	9.86
450.458	10.05
450.662	10.28
450.866	10.32
451.069	10.28
451.273	9.91
451.477	9.84
451.681	9.91
451.885	9.96
452.089	9.82
452.292	9.74
452.496	9.72
452.7	9.67
452.904	9.7
453.107	9.88
453.311	9.9
453.515	10.03
453.719	10.17
453.922	10.09
454.126	10.06
454.33	10.08
454.533	10.15
454.737	10.26
454.94	10.24
455.144	9.92
455.348	9.74
455.551	9.79
455.755	9.75
455.958	9.8
456.162	9.81
456.365	9.91
456.569	9.91
456.772	9.95
456.976	9.75
457.179	9.66
457.383	9.91
457.586	9.93
457.79	9.81
457.993	9.93
458.196	10.02
458.4	10.02
458.603	9.95
458.807	10.03
459.01	9.91
459.213	10.08
459.417	10.22
459.62	10.28
459.823	10.37
460.026	10.5
460.23	10.57
460.433	10.43
460.636	10.52
460.839	10.56
461.042	10.56
461.246	10.59
461.449	10.53
461.652	10.44
461.855	10.39
462.058	10.43
462.261	10.35
462.464	10.31
462.668	10.38
462.871	10.31
463.074	10.17
463.277	10.05
463.48	10.26
463.683	10.38
463.886	10.37
464.089	10.45
464.292	10.32
464.495	10.19
464.698	10.25
464.901	10.22
465.104	10.21
465.306	10.11
465.509	10.09
465.712	10.09
465.915	10.12
466.118	10.14
466.321	10.11
466.524	10.14
466.726	10.14
466.929	10.07
467.132	10.06
467.335	9.97
467.538	10.22
467.74	10.4
467.943	10.27
468.146	9.95
468.348	10
468.551	9.98
468.754	10.14
468.956	10.3
469.159	10.4
469.362	10.38
469.564	10.63
469.767	10.43
469.969	10.44
470.172	10.31
470.375	10.57
470.577	10.67
470.78	10.63
470.982	10.45
471.185	10.63
471.387	10.53
471.59	10.67
471.792	10.29
471.995	10.35
472.197	10.36
472.399	10.21
472.602	10.21
472.804	10.28
473.007	10.35
473.209	10.52
473.411	10.48
473.614	10.48
473.816	10.38
474.018	10.63
474.22	10.76
474.423	10.67
474.625	10.9
474.827	11
475.03	10.75
475.232	10.75
475.434	10.45
475.636	10.2
475.838	10.3
476.04	10.17
476.243	10.14
476.445	10.1
476.647	10.11
476.849	10.4
477.051	10.28
477.253	10.38
477.455	10.27
477.657	10.31
477.859	10.44
478.061	10.49
478.263	10.6
478.465	10.69
478.667	10.63
478.869	10.66
479.071	10.5
479.273	10.65
479.475	10.64
479.677	10.78
479.879	10.82
480.081	10.94
480.283	10.77
480.485	11
480.686	10.86
480.888	10.98
481.09	11.02
481.292	11.09
481.494	11.04
481.695	11.05
481.897	11.07
482.099	11.1
482.301	11.03
482.502	11.15
482.704	11.18
482.906	11.22
483.107	11.25
483.309	11.27
483.511	11.2
483.712	11.24
483.914	11.28
484.115	11.25
484.317	11.23
484.519	11.24
484.72	11.29
484.922	11.23
485.123	11.26
485.325	11.19
485.526	11.21
485.728	11.22
485.929	11.14
486.131	11.07
486.332	11.11
486.534	11.18
486.735	11.16
486.936	11.04
487.138	11.03
487.339	11.02
487.541	11.05
487.742	11.07
487.943	11.05
488.144	11.09
488.346	11.11
488.547	11.09
488.748	11.08
488.95	11.09
489.151	11.01
489.352	10.99
489.553	10.97
489.755	10.97
489.956	10.82
490.157	10.83
490.358	10.89
490.559	10.86
490.76	10.87
490.961	10.8
491.163	10.86
491.364	10.93
491.565	11.03
491.766	11.08
491.967	11.1
492.168	11.11
492.369	11.13
492.57	10.98
492.771	10.99
492.972	10.86
493.173	10.85
493.374	10.78
493.575	10.7
493.776	10.55
493.976	10.46
494.177	10.29
494.378	10.37
494.579	10.25
494.78	10.3
494.981	10.17
495.182	10.22
495.382	10.47
495.583	10.42
495.784	10.58
495.985	10.73
496.185	10.69
496.386	10.79
496.587	10.74
496.788	10.74
496.988	10.71
497.189	10.91
497.39	11.05
497.59	10.88
497.791	11.04
497.992	11.05
498.192	11.07
498.393	10.97
498.593	11.03
498.794	11.11
498.994	11.13
499.195	11.21
499.395	11.28
499.596	11.18
499.796	11.08
499.997	11.17
500.197	11.15
500.398	11.14
500.598	11.28
500.799	11.31
500.999	11.14
501.199	11.19
501.4	11.18
501.6	11.13
501.801	11.21
502.001	11.32
502.201	11.13
502.402	11.14
502.602	11.07
502.802	11.14
503.002	11.25
503.203	11.3
503.403	11.3
503.603	11.46
503.803	11.69
504.003	11.72
504.204	11.83
504.404	12.11
504.604	12.11
504.804	12.34
505.004	12.43
505.204	12.38
505.404	12.48
505.604	12.45
505.804	12.54
506.005	12.46
506.205	12.61
506.405	12.76
506.605	12.65
506.805	12.7
507.005	12.63
507.204	12.73
507.404	12.84
507.604	12.9
507.804	13.14
508.004	13.08
508.204	13.01
508.404	13
508.604	12.95
508.804	13.01
509.003	13.21
509.203	13.24
509.403	13.18
509.603	13.24
509.803	13.42
510.002	13.51
510.202	13.58
510.402	13.85
510.602	14.07
510.801	14.16
511.001	14.24
511.201	14.25
511.4	14.27
511.6	14.44
511.8	14.57
511.999	14.59
512.199	14.59
512.398	14.74
512.598	14.86
512.797	14.83
512.997	14.93
513.197	14.98
513.396	15.01
513.596	15.22
513.795	15.34
513.994	15.52
514.194	15.63
514.393	15.6
514.593	15.67
514.792	15.57
514.992	15.62
515.191	15.74
515.39	15.76
515.59	15.92
515.789	15.89
515.988	15.94
516.188	15.67
516.387	15.59
516.586	15.97
516.786	15.95
516.985	16.21
517.184	16.37
517.383	16.49
517.582	16.67
517.782	16.7
517.981	16.84
518.18	16.9
518.379	17.12
518.578	17.42
518.777	17.36
518.976	17.53
519.176	17.48
519.375	17.61
519.574	17.73
519.773	17.86
519.972	17.95
520.171	18.09
520.37	18.21
520.569	18.3
520.768	18.17
520.967	18.45
521.166	18.54
521.365	18.66
521.564	18.82
521.762	18.88
521.961	18.93
522.16	19.02
522.359	18.99
522.558	19.04
522.757	19.05
522.956	19.29
523.154	19.24
523.353	19.32
523.552	19.55
523.751	19.43
523.949	19.56
524.148	19.6
524.347	19.77
524.546	20
524.744	20.26
524.943	20.36
525.142	20.44
525.34	20.56
525.539	20.72
525.737	20.83
525.936	20.94
526.135	21.13
526.333	21.35
526.532	21.33
526.73	21.44
526.929	21.54
527.127	21.73
527.326	21.81
527.524	21.94
527.723	22.06
527.921	22.08
528.12	22.2
528.318	22.18
528.516	22.15
528.715	22.27
528.913	22.3
529.112	22.34
529.31	22.29
529.508	22.27
529.707	22.3
529.905	22.33
530.103	22.35
530.301	22.37
530.5	22.47
530.698	22.64
530.896	22.75
531.094	22.84
531.293	22.85
531.491	23.03
531.689	23.26
531.887	23.28
532.085	23.46
532.283	23.53
532.481	23.63
532.68	23.6
532.878	23.58
533.076	23.64
533.274	23.63
533.472	23.77
533.67	23.93
533.868	23.91
534.066	24.04
534.264	24.02
534.462	24.13
534.66	24.19
534.858	24.42
535.056	24.62
535.253	24.71
535.451	24.87
535.649	24.88
535.847	24.9
536.045	25.06
536.243	25.18
536.441	25.26
536.638	25.23
536.836	25.31
537.034	25.12
537.232	25.1
537.43	25.16
537.627	25.31
537.825	25.55
538.023	25.55
538.22	25.48
538.418	25.52
538.616	25.5
538.813	25.69
539.011	25.69
539.209	25.97
539.406	26
539.604	26.09
539.801	26.03
539.999	26.02
540.196	26.24
540.394	26.41
540.591	26.51
540.789	26.58
540.986	26.56
541.184	26.55
541.381	26.57
541.579	26.72
541.776	26.76
541.974	26.83
542.171	26.81
542.368	26.89
542.566	26.95
542.763	26.96
542.96	26.94
543.158	27.05
543.355	27.19
543.552	27.21
543.75	27.16
543.947	27.14
544.144	27.19
544.341	27.29
544.539	27.2
544.736	27.25
544.933	27.29
545.13	27.48
545.327	27.68
545.524	27.74
545.722	27.77
545.919	27.9
546.116	27.96
546.313	28.03
546.51	28.1
546.707	28.27
546.904	28.29
547.101	28.41
547.298	28.49
547.495	28.41
547.692	28.34
547.889	28.43
548.086	28.5
548.283	28.54
548.48	28.71
548.677	28.74
548.874	28.57
549.07	28.69
549.267	28.55
549.464	28.68
549.661	28.74
549.858	29.05
550.055	29.25
550.251	29.3
550.448	29.48
550.645	29.32
550.842	29.27
551.038	29.51
551.235	29.5
551.432	29.78
551.628	29.77
551.825	29.81
552.022	29.74
552.218	29.66
552.415	29.74
552.612	29.73
552.808	29.91
553.005	30.1
553.201	30.02
553.398	30.16
553.594	30.31
553.791	30.19
553.987	30.19
554.184	30.15
554.38	30.25
554.577	30.28
554.773	30.43
554.97	30.52
555.166	30.43
555.362	30.69
555.559	30.83
555.755	30.48
555.952	30.66
556.148	31.04
556.344	31.27
556.541	31.12
556.737	30.93
556.933	31.04
557.129	31.13
557.326	31.17
557.522	31.01
557.718	30.76
557.914	31.02
558.11	31.07
558.307	30.71
558.503	30.61
558.699	30.85
558.895	30.83
559.091	30.8
559.287	30.8
559.483	30.71
559.679	30.91
559.876	31.17
560.072	31.23
560.268	31.15
560.464	31.17
560.66	31.21
560.856	31.1
561.052	31.23
561.247	31.14
561.443	30.96
561.639	31.26
561.835	31.35
562.031	31.3
562.227	31.28
562.423	31.16
562.619	31.08
562.815	31.13
563.01	31.18
563.206	31.29
563.402	31.35
563.598	31.58
563.793	31.2
563.989	31.29
564.185	31.33
564.381	31.35
564.576	31.5
564.772	31.7
564.968	31.69
565.163	31.71
565.359	31.66
565.555	31.73
565.75	31.46
565.946	31.73
566.141	31.7
566.337	31.5
566.532	31.66
566.728	31.54
566.923	31.73
567.119	31.87
567.314	31.95
567.51	31.96
567.705	31.92
567.901	32.04
568.096	32.14
568.292	31.96
568.487	32.13
568.682	32.06
568.878	32.24
569.073	32.06
569.268	31.97
569.464	32.15
569.659	32.1
569.854	32.18
570.05	32.44
570.245	32.42
570.44	32.55
570.635	32.65
570.831	32.76
571.026	32.99
571.221	33.14
571.416	33.15
571.611	32.99
571.806	33.23
572.002	33.26
572.197	33.14
572.392	33.11
572.587	33.13
572.782	32.95
572.977	32.91
573.172	32.69
573.367	32.58
573.562	32.6
573.757	32.55
573.952	32.37
574.147	32.36
574.342	32.43
574.537	32.37
574.732	32.47
574.927	32.72
575.121	32.73
575.316	32.8
575.511	32.68
575.706	32.67
575.901	32.67
576.096	32.72
576.29	32.67
576.485	32.66
576.68	32.87
576.875	32.93
577.069	32.93
577.264	32.96
577.459	33.3
577.654	33.59
577.848	33.57
578.043	33.82
578.238	34.12
578.432	34.27
578.627	34.15
578.821	34.22
579.016	34.25
579.21	34.14
579.405	33.98
579.6	33.66
579.794	33.51
579.989	33.58
580.183	33.28
580.378	33.01
580.572	32.96
580.766	33.39
580.961	33.52
581.155	33.33
581.35	33.28
581.544	33.62
581.738	33.75
581.933	34.1
582.127	34.42
582.321	34.55
582.516	34.61
582.71	34.78
582.904	34.51
583.099	34.31
583.293	34.61
583.487	34.77
583.681	34.62
583.875	34.41
584.07	34.16
584.264	34.13
584.458	34.27
584.652	34.38
584.846	34.11
585.04	34.47
585.234	34.33
585.428	33.99
585.623	34.17
585.817	34.44
586.011	34.63
586.205	34.46
586.399	34.42
586.593	34.72
586.787	34.65
586.981	34.69
587.174	34.53
587.368	34.72
587.562	35.07
587.756	35.01
587.95	34.73
588.144	34.91
588.338	35.08
588.532	34.99
588.725	34.67
588.919	34.6
589.113	34.85
589.307	34.63
589.501	34.87
589.694	34.77
589.888	35.02
590.082	35.04
590.275	34.9
590.469	34.89
590.663	34.87
590.856	34.93
591.05	35.12
591.244	35.24
591.437	35.15
591.631	35
591.824	35.03
592.018	34.68
592.212	34.62
592.405	34.48
592.599	34.56
592.792	34.71
592.986	34.97
593.179	35.01
593.372	34.79
593.566	35.05
593.759	34.77
593.953	34.7
594.146	34.68
594.339	34.72
594.533	35.01
594.726	35.1
594.92	35.16
595.113	35.22
595.306	35.14
595.499	35
595.693	35
595.886	35.27
596.079	35.17
596.272	35.18
596.466	35.27
596.659	35.1
596.852	35.08
597.045	34.97
597.238	34.52
597.431	34.41
597.624	34.6
597.818	34.77
598.011	34.51
598.204	34.77
598.397	34.84
598.59	34.78
598.783	34.94
598.976	34.99
599.169	35.02
599.362	35.36
599.555	35.69
599.748	35.6
599.941	35.63
600.134	35.93
600.326	35.86
600.519	35.99
600.712	36.15
600.905	36
601.098	36.12
601.291	36.14
601.483	36.21
601.676	36.2
601.869	36.41
602.062	36.24
602.255	36.2
602.447	36.08
602.64	35.95
602.833	35.95
603.025	36.05
603.218	35.94
603.411	35.83
603.603	35.69
603.796	35.65
603.989	35.69
604.181	35.76
604.374	35.81
604.566	35.71
604.759	35.99
604.951	36.05
605.144	36.02
605.336	35.83
605.529	35.76
605.721	35.87
605.914	35.89
606.106	35.8
606.299	35.81
606.491	35.71
606.683	35.87
606.876	35.55
607.068	35.4
607.26	35.51
607.453	35.59
607.645	35.62
607.837	35.61
608.03	35.37
608.222	35.52
608.414	35.38
608.606	35.27
608.799	35.27
608.991	35.3
609.183	35.33
609.375	35.15
609.567	35.28
609.759	35.38
609.952	35.35
610.144	35.58
610.336	35.35
610.528	35.2
610.72	35.42
610.912	35.31
611.104	35.18
611.296	35.03
611.488	34.86
611.68	34.64
611.872	34.73
612.064	34.88
612.256	34.61
612.448	34.59
612.64	34.95
612.832	34.87
613.023	34.92
613.215	34.99
613.407	35.18
613.599	35.41
613.791	35.42
613.983	35.8
614.174	35.78
614.366	36.01
614.558	36.19
614.75	36.12
614.941	36.3
615.133	36.26
615.325	36.29
615.516	36.63
615.708	36.64
615.9	36.99
616.091	36.37
616.283	36.46
616.475	36.35
616.666	36.46
616.858	36.57
617.049	36.52
617.241	36.71
617.432	36.92
617.624	36.51
617.815	36.77
618.007	36.44
618.198	36.85
618.39	36.65
618.581	36.74
618.773	36.79
618.964	36.84
619.155	36.61
619.347	36.59
619.538	36.59
619.729	36.58
619.921	36.49
620.112	36.85
620.303	36.69
620.494	36.88
620.686	36.76
620.877	36.89
621.068	36.76
621.259	37.19
621.451	37.26
621.642	37.1
621.833	37.24
622.024	37.3
622.215	37.24
622.406	37.32
622.597	37.25
622.788	37.42
622.98	37.12
623.171	36.92
623.362	36.81
623.553	36.62
623.744	36.9
623.935	36.88
624.126	36.41
624.317	36.48
624.508	36.62
624.698	36.5
624.889	36.54
625.08	36.62
625.271	36.88
625.462	36.54
625.653	36.76
625.844	36.67
626.034	36.58
626.225	36.8
626.416	36.48
626.607	36.42
626.798	36.46
626.988	36.53
627.179	36.64
627.37	36.49
627.56	36.62
627.751	36.35
627.942	36.23
628.132	36.29
628.323	36.23
628.514	36.4
628.704	36.25
628.895	36.19
629.085	36.1
629.276	35.95
629.466	35.82
629.657	36.15
629.847	36.23
630.038	36.26
630.228	36.53
630.419	36.45
630.609	36.7
630.8	36.72
630.99	36.9
631.181	36.85
631.371	36.78
631.561	36.79
631.752	36.66
631.942	36.92
632.132	37.22
632.323	36.7
632.513	37.34
632.703	37.09
632.893	37.24
633.084	36.92
633.274	37.05
633.464	37.01
633.654	37.14
633.844	36.86
634.034	36.7
634.225	36.71
634.415	37.1
634.605	36.88
634.795	37.27
634.985	36.98
635.175	37.19
635.365	36.99
635.555	37.09
635.745	37.41
635.935	37.55
636.125	37.71
636.315	37.28
636.505	37.19
636.695	37.06
636.885	36.69
637.075	36.85
637.265	37.11
637.455	37.24
637.644	37.4
637.834	36.91
638.024	36.67
638.214	36.42
638.404	36.55
638.593	36.62
638.783	36.51
638.973	36.65
639.163	36.77
639.352	36.49
639.542	36.7
639.732	36.59
639.921	36.96
640.111	37.51
640.301	37.7
640.49	38.21
640.68	38.23
640.87	38.28
641.059	38.59
641.249	38.63
641.438	38.5
641.628	38.32
641.817	38.34
642.007	38.56
642.196	38.57
642.386	38.66
642.575	38.39
642.764	38.15
642.954	38.54
643.143	38.33
643.333	38.54
643.522	39.02
643.711	39.14
643.901	39.27
644.09	39
644.279	38.81
644.469	38.86
644.658	38.63
644.847	39.11
645.036	38.86
645.226	38.57
645.415	38.21
645.604	38.12
645.793	37.75
645.982	37.65
646.171	37.86
646.361	37.49
646.55	37.55
646.739	37.57
646.928	36.99
647.117	36.95
647.306	37.11
647.495	37.21
647.684	37.32
647.873	37.76
648.062	37.56
648.251	37.17
648.44	37.66
648.629	37.72
648.818	38.05
649.007	38.54
649.196	38.67
649.384	38.99
649.573	38.94
649.762	38.55
649.951	38.65
650.14	38.4
650.328	38.74
650.517	38.61
650.706	38.5
650.895	38.69
651.083	38.42
651.272	38.16
651.461	37.82
651.65	37.98
651.838	37.92
652.027	37.62
652.216	38.11
652.404	37.63
652.593	37.89
652.781	37.8
652.97	37.11
653.158	36.91
653.347	37.49
653.535	37.34
653.724	37.4
653.912	37.69
654.101	37.8
654.289	37.39
654.478	38
654.666	37.6
654.855	37.55
655.043	37.86
655.231	37.61
655.42	37.44
655.608	37.83
655.796	37.59
655.985	37.36
656.173	37.32
656.361	37.49
656.55	37.39
656.738	37.36
656.926	37.42
657.114	37.36
657.302	37.9
657.491	37.84
657.679	37.44
657.867	37.7
658.055	37.52
658.243	37.69
658.431	37.86
658.619	37.98
658.807	37.96
658.996	37.96
659.184	37.82
659.372	37.7
659.56	37.52
659.748	37.56
659.936	37.42
660.124	37.71
660.311	37.62
660.499	37.39
660.687	37.22
660.875	37.38
661.063	37.48
661.251	37.64
661.439	37.97
661.627	37.8
661.814	37.72
662.002	38.08
662.19	38.04
662.378	37.79
662.565	38.09
662.753	37.96
662.941	37.96
663.129	37.96
663.316	38.51
663.504	37.97
663.692	38.22
663.879	38.26
664.067	37.46
664.254	37.62
664.442	38.34
664.63	38.35
664.817	38.94
665.005	38.7
665.192	38.69
665.38	38.38
665.567	38.69
665.755	38.92
665.942	39.17
666.13	39.47
666.317	39.43
666.504	38.94
666.692	39.02
666.879	38.52
667.067	38.26
667.254	38.01
667.441	38.29
667.629	38.47
667.816	38.3
668.003	38.38
668.19	38.13
668.378	37.97
668.565	37.92
668.752	37.43
668.939	37.23
669.127	37.4
669.314	37.82
669.501	37.26
669.688	37.32
669.875	37.58
670.062	37.48
670.249	37.87
670.436	38.05
670.623	38.51
670.81	38.99
670.997	39.42
671.184	39.46
671.371	39.45
671.558	39.4
671.745	39.01
671.932	38.81
672.119	38.81
672.306	38.5
672.493	38.3
672.68	37.52
672.867	37.42
673.054	36.87
673.24	36.86
673.427	36.98
673.614	37.06
673.801	37.64
673.988	38.21
674.174	38.17
674.361	38.95
674.548	38.95
674.734	39.49
674.921	39.92
675.108	40
675.294	40.38
675.481	39.95
675.668	40.2
675.854	39.65
676.041	38.94
676.227	38.78
676.414	38.16
676.601	38.39
676.787	38.25
676.974	37.9
677.16	38.1
677.347	38.24
677.533	38.22
677.719	38.54
677.906	38.62
678.092	39.15
678.279	39.32
678.465	39.26
678.651	39.13
678.838	39.14
679.024	38.69
679.21	38.84
679.397	38.99
679.583	39.1
679.769	38.83
679.955	38.44
680.142	37.93
680.328	38
680.514	37.85
680.7	38.21
680.886	38.17
681.073	38.27
681.259	38.23
681.445	38.01
681.631	37.96
681.817	37.95
682.003	38.42
682.189	38.8
682.375	39.03
682.561	38.95
682.747	38.68
682.933	38.81
683.119	39.3
683.305	39.21
683.491	38.85
683.677	38.95
683.863	38.75
684.049	38.96
684.235	38.65
684.42	38.77
684.606	39.08
684.792	38.98
684.978	39.28
685.164	38.88
685.349	39.48
685.535	39.62
685.721	39.75
685.907	39.45
686.092	39.46
686.278	39.47
686.464	39.4
686.649	39.49
686.835	39.39
687.021	39.11
687.206	39.53
687.392	38.95
687.577	39.2
687.763	38.67
687.948	39.29
688.134	38.96
688.319	39.1
688.505	38.98
688.69	39.18
688.876	39.24
689.061	39.16
689.247	38.96
689.432	39.43
689.618	39.02
689.803	39.9
689.988	39.59
690.174	39.66
690.359	39.41
690.544	38.97
690.73	38.99
690.915	39.1
691.1	38.83
691.285	38.98
691.471	38.87
691.656	39.49
691.841	39.27
692.026	39.09
692.211	39.8
692.396	39.89
692.582	40.5
692.767	40.31
692.952	40.39
693.137	40.48
693.322	40.56
693.507	40.36
693.692	40.22
693.877	39.72
694.062	40.39
694.247	39.69
694.432	39.9
694.617	40.02
694.802	40.02
694.987	39.99
695.172	40.28
695.357	40.7
695.541	40.5
695.726	41.04
695.911	41.28
696.096	41.91
696.281	41.74
696.466	41.79
696.65	41.23
696.835	41.32
697.02	41.16
697.204	41.17
697.389	40.52
697.574	40.52
697.759	39.81
697.943	39.62
698.128	39.13
698.312	39.02
698.497	38.77
698.682	38.77
698.866	38.54
699.051	38.5
699.235	38.26
699.42	38.18
699.604	38.35
699.789	38.36
699.973	38.44
700.158	38.59
700.342	39
700.527	39.24
700.711	39.29
700.895	39.69
701.08	39.75
701.264	39.77
701.448	39.96
701.633	39.99
701.817	40.04
702.001	40.52
702.186	40.05
702.37	40.24
702.554	40.13
702.738	40.4
702.923	39.52
703.107	39.79
703.291	40.2
703.475	39.82
703.659	39.65
703.843	40.17
704.027	40.13
704.212	39.99
704.396	39.67
704.58	39.49
704.764	39.21
704.948	38.96
705.132	38.45
705.316	38.39
705.5	39.16
705.684	38.92
705.868	38.72
706.052	38.5
706.235	39.05
706.419	39.35
706.603	39.33
706.787	39.32
706.971	40.23
707.155	40.84
707.339	40.83
707.522	39.99
707.706	40.25
707.89	39.54
708.074	39.95
708.257	40.11
708.441	40.04
708.625	40.22
708.808	40.59
708.992	40.65
709.176	40.71
709.359	40.71
709.543	41.44
709.727	40.42
709.91	40.48
710.094	40.29
710.277	40.26
710.461	40.42
710.644	41.16
710.828	41.21
711.011	41.99
711.195	41.29
711.378	41.51
711.562	41.22
711.745	41.86
711.928	41.98
712.112	41.04
712.295	40.58
712.478	40.06
712.662	39.93
712.845	39.8
713.028	39.1
713.212	39.96
713.395	39.44
713.578	39.77
713.761	39.85
713.945	40.49
714.128	41.24
714.311	41.49
714.494	41.45
714.677	41.18
714.86	41.41
715.043	41.28
715.227	41.43
715.41	41.33
715.593	40.73
715.776	40.44
715.959	40.39
716.142	40.71
716.325	40.11
716.508	40.22
716.691	39.97
716.874	39.8
717.057	39.34
717.239	38.75
717.422	38.89
717.605	38.56
717.788	38.38
717.971	38.18
718.154	37.56
718.337	37.65
718.519	37.83
718.702	37.34
718.885	37.57
719.068	38.01
719.25	38.02
719.433	38.38
719.616	39.18
719.798	40.09
719.981	39.54
720.164	39.75
720.346	40.08
720.529	39.95
720.712	39.86
720.894	38.84
721.077	38.22
721.259	38.01
721.442	38.1
721.624	38.12
721.807	37.34
721.989	38.28
722.172	38.04
722.354	38.14
722.537	38.17
722.719	39.2
722.901	39.35
723.084	38.98
723.266	39.03
723.448	38.26
723.631	37.89
723.813	39.04
723.995	39.22
724.178	38.78
724.36	39.67
724.542	40.07
724.724	39.74
724.907	39.95
725.089	40.95
725.271	41.6
725.453	41.44
725.635	41.67
725.817	41.08
725.999	40.95
726.181	41.14
726.364	39.99
726.546	39.4
726.728	39.94
726.91	39.88
727.092	39.94
727.274	39.72
727.456	39.43
727.638	39.25
727.819	39.18
728.001	38.44
728.183	38.49
728.365	39.12
728.547	39.23
728.729	39.4
728.911	39.66
729.093	39.14
729.274	39.05
729.456	39.66
729.638	40.1
729.82	40.45
730.001	40.69
730.183	41.46
730.365	42.14
730.546	42.25
730.728	42.11
730.91	42.32
731.091	43.71
731.273	44.26
731.455	43.95
731.636	43.3
731.818	42.91
731.999	43.17
732.181	42.17
732.362	42.26
732.544	41.99
732.725	41.48
732.907	41.74
733.088	41.18
733.27	40.68
733.451	41.17
733.633	41.59
733.814	41.26
733.995	40.54
734.177	41.11
734.358	39.93
734.539	41.27
734.721	41.27
734.902	40.14
735.083	39.47
735.264	38.59
735.446	38.78
735.627	38.01
735.808	38.74
735.989	39.4
736.17	38.66
736.351	39.01
736.533	38.26
736.714	38.41
736.895	39.46
737.076	40.55
737.257	41.55
737.438	41.77
737.619	43.4
737.8	42.98
737.981	42.79
738.162	43.67
738.343	42.64
738.524	42.28
738.705	42.95
738.886	42.27
739.067	42.05
739.247	41.87
739.428	42.26
739.609	40.71
739.79	41.75
739.971	41.04
740.151	40.74
740.332	41.95
740.513	42.24
740.694	41.61
740.874	42.75
741.055	42.19
741.236	42.45
741.417	41.77
741.597	42.53
741.778	41.79
741.958	42.44
742.139	42.42
742.32	41.36
742.5	41.64
742.681	41.32
742.861	40.41
743.042	40.27
743.222	39.95
743.403	39.59
743.583	39.97
743.764	39.26
743.944	39.42
744.124	39.88
744.305	41.02
744.485	40.81
744.666	40.8
744.846	40.46
745.026	40.59
745.207	42.25
745.387	42.42
745.567	42.56
745.747	43.05
745.928	43.45
746.108	42.22
746.288	41.3
746.468	40.01
746.648	40.04
746.829	39.7
747.009	40.29
747.189	39.68
747.369	39.87
747.549	39.32
747.729	40.48
747.909	39.32
748.089	40.7
748.269	41.94
748.449	42.32
748.629	42.9
748.809	42.27
748.989	42.89
749.169	41.19
749.349	41.22
749.529	40.34
749.709	40.6
749.889	40.84
750.068	40.28
750.248	39.43
750.428	40.4
750.608	39.03
750.788	39.79
750.967	37.87
751.147	39.1
751.327	39.19
751.507	40.07
751.686	39.52
751.866	40.01
752.046	40.14
752.225	41.04
752.405	41.14
752.585	42.07
752.764	43.33
752.944	44.73
753.123	43.91
753.303	43.94
753.482	44.56
753.662	43.97
753.841	44.93
754.021	43.9
754.2	42.91
754.38	42.48
754.559	42.51
754.739	41.88
754.918	41.32
755.097	42.21
755.277	41.91
755.456	42.17
755.635	42.94
755.815	40.62
755.994	41.57
756.173	41.84
756.352	42.44
756.532	41.36
756.711	41.94
756.89	41.7
757.069	41.62
757.248	42.51
757.427	40.48
757.607	40.32
757.786	41.9
757.965	43.34
758.144	43.69
758.323	42.62
758.502	42.89
758.681	41.95
758.86	42.62
759.039	41.88
759.218	40.86
759.397	41.84
759.576	41.41
759.755	41.07
759.934	38.51
760.113	38.97
760.291	38.28
760.47	40.13
760.649	40.51
760.828	40.25
761.007	40.9
761.186	40.8
761.364	40.6
761.543	39.99
761.722	40.34
761.901	41.3
762.079	39.84
762.258	41.26
762.437	40.51
762.615	39.65
762.794	39.48
762.972	38.87
763.151	39.54
763.33	40.21
763.508	40.07
763.687	39.98
763.865	40.41
764.044	40.89
764.222	40.09
764.401	39.94
764.579	40.8
764.758	41.5
764.936	41.34
765.114	41.63
765.293	40.53
765.471	41.15
765.65	40.86
765.828	40.35
766.006	39.95
766.184	40.42
766.363	39.96
766.541	39.08
766.719	39.07
766.898	39.69
767.076	38.91
767.254	39.74
767.432	39.65
767.61	40.05
767.788	40.23
767.967	41.19
768.145	40.1
768.323	38.96
768.501	39.84
768.679	38.16
768.857	37.97
769.035	37.78
769.213	37.26
769.391	37.47
769.569	35.86
769.747	35.75
769.925	35.76
770.103	37.66
770.281	38.74
770.459	39.84
770.636	41.32
770.814	41.1
770.992	42.12
771.17	42.85
771.348	43.26
771.525	46.06
771.703	45.65
771.881	45.17
772.059	44.89
772.236	45.65
772.414	45.27
772.592	44.32
772.769	45.48
772.947	44.98
773.125	44.27
773.302	43.72
773.48	42.51
773.657	43.61
773.835	42.71
774.013	42.71
774.19	42.55
774.368	40.99
774.545	41.66
774.723	41.73
774.9	41.95
775.077	43.1
775.255	42.54
775.432	41.94
775.61	42.37
775.787	44.79
775.964	43.44
776.142	44.09
776.319	44.26
776.496	43.73
776.674	43.05
776.851	44.62
777.028	44.39
777.205	45.12
777.382	45.44
777.56	44.07
777.737	43.94
777.914	44.13
778.091	44.5
778.268	45.75
778.445	45.35
778.622	44.59
778.8	43.9
778.977	43.08
779.154	43.53
779.331	42.74
779.508	43.86
779.685	42.03
779.862	42.84
780.038	42.2
780.215	42.26
780.392	43.15
780.569	43.88
780.746	43.76
780.923	45.23
781.1	45.78
781.277	47.43
781.453	45.8
781.63	45.59
781.807	44.08
781.984	44.62
782.16	45.26
782.337	44.89
782.514	45.78
782.691	45.13
782.867	44.98
783.044	42.63
783.221	43.05
783.397	44.31
783.574	45.21
783.75	46.4
783.927	47.15
784.103	45.51
784.28	46.02
784.456	44.7
784.633	44.83
784.809	43.35
784.986	44.53
785.162	41.86
785.339	41.85
785.515	39.14
785.692	40.04
785.868	40.97
786.044	41.64
786.221	39.97
786.397	41.43
786.573	41.7
786.749	41.03
786.926	41.46
787.102	44.65
787.278	41.93
787.454	44.34
787.631	42.63
787.807	40.62
787.983	41.1
788.159	42.62
788.335	40.84
788.511	40.36
788.687	41.35
788.863	41.45
789.039	40.12
789.216	42.08
789.392	40.82
789.568	41.31
789.744	42.2
789.919	42.11
790.095	40.49
790.271	43.18
790.447	42.47
790.623	44.49
790.799	43.56
790.975	43.45
791.151	42.51
791.327	45.02
791.502	47.05
791.678	47.46
791.854	46.39
792.03	47.75
792.205	45.1
792.381	45.16
792.557	44.56
792.733	44.21
792.908	44.29
793.084	45.11
793.259	44.03
793.435	41.07
793.611	41.66
793.786	43.7
793.962	42.74
794.137	43.99
794.313	42.75
794.488	41.73
794.664	44.49
794.839	44.92
795.015	45.98
795.19	44.11
795.366	44.65
795.541	42.3
795.716	41.56
795.892	42.42
796.067	42.24
796.242	42.53
796.418	40.58
796.593	40.33
796.768	39.14
796.944	40.42
797.119	42.5
797.294	42.64
797.469	41.1
797.644	41
797.82	41.23
797.995	40.1
798.17	42.33
798.345	45.31
798.52	42.47
798.695	44.43
798.87	41.08
799.045	40.53
799.22	41.12
799.395	43.93
799.57	42.08
799.745	42.73
799.92	44.28
800.095	42.58
800.27	39.8
800.445	41.53
800.62	40.19
800.795	40.65
800.97	40.87
801.145	38.66
801.319	39.85
801.494	39.87
801.669	38.45
801.844	37.78
802.018	39.32
802.193	41.9
802.368	42.61
802.543	40.58
802.717	43.27
802.892	41.27
803.067	42.37
803.241	40.8
803.416	41.36
803.59	42.67
803.765	43.81
803.94	42.99
804.114	39.63
804.289	40.27
804.463	42.7
804.638	41.71
804.812	43.12
804.986	45.85
805.161	43.05
805.335	44.03
805.51	42.68
805.684	42.48
805.858	39.86
806.033	43.73
806.207	43.1
806.381	43.94
806.556	41.91
806.73	39.76
806.904	39.01
807.078	41.65
807.253	39.71
807.427	39.26
807.601	37.45
807.775	38.95
807.949	38.39
808.123	39.16
808.298	36.79
808.472	36.64
808.646	41.95
808.82	42.33
808.994	42.11
809.168	44.43
809.342	46.25
809.516	46.95
809.69	49.94
809.864	48.32
810.038	49.03
810.212	49.73
810.385	51.95
810.559	49.35
810.733	49.78
810.907	49.5
811.081	48.49
811.255	49.5
811.428	51.89
811.602	49.31
811.776	49.25
811.95	49.18
812.123	49.28
812.297	48.98
812.471	47.5
812.644	46.06
812.818	47.12
812.992	50.12
813.165	50.03
813.339	47.86
813.512	49.05
813.686	47.16
813.86	45.95
814.033	47.68
814.207	49.07
814.38	53.76
814.554	55.55
814.727	55.33
814.9	53.99
815.074	55.03
815.247	55.69
815.421	52.8
815.594	53.68
815.767	55.83
815.941	52.31
816.114	51.3
816.287	48.88
816.46	45.48
816.634	42.58
816.807	39.42
816.98	38.32
817.153	37.9
817.327	43.4
817.5	44.44
817.673	41.76
817.846	44.09
818.019	44.05
818.192	42.4
818.365	42.12
818.538	44.9
818.711	48.32
818.884	45.76
819.057	44.97
819.23	40.48
819.403	43.14
819.576	40.37
819.749	39.58
819.922	39.4
820.095	38.94
820.268	42.01
820.441	42.02
820.614	41.36
820.786	42.9
820.959	43.27
821.132	43.48
821.305	42.3
821.477	42.95
821.65	43.27
821.823	43.12
821.996	43.03
822.168	42
822.341	41.03
822.514	40.68
822.686	39.79
822.859	39.36
823.031	39.08
823.204	39.34
823.376	38.86
823.549	39.06
823.722	38.37
823.894	38.23
824.067	38.22
824.239	38.25
824.411	38.68
824.584	39.74
824.756	40.45
824.929	40.56
825.101	39.56
825.273	39.57
825.446	38.51
825.618	39.54
825.79	38.8
825.963	38.17
826.135	38.86
826.307	38.14
826.479	36.55
826.652	35.69
826.824	35.91
826.996	36.25
827.168	37.03
827.34	38.72
827.512	37.98
827.684	38.86
827.856	39.91
828.029	40.7
828.201	40.4
828.373	40.77
828.545	40.35
828.717	39.89
828.889	39.89
829.061	40.33
829.232	39.54
829.404	40.31
829.576	41.7
829.748	41.27
829.92	40.04
830.092	40.31
830.264	41.5
830.436	43.36
830.607	44.87
830.779	45.93
830.951	46.6
831.123	47.33
831.294	47.95
831.466	47.36
831.638	47.76
831.809	48.3
831.981	49.28
832.153	49.07
832.324	50
832.496	48.29
832.667	49.69
832.839	48.11
833.011	47.56
833.182	46.17
833.354	44.4
833.525	42.94
833.697	44.04
833.868	44.14
834.039	44.12
834.211	40.86
834.382	42.75
834.554	43.01
834.725	43.64
834.896	43.14
835.068	43.14
835.239	43.45
835.41	44.58
835.581	44.39
835.753	44.44
835.924	43.55
836.095	45.61
836.266	44.87
836.438	43.22
836.609	42.23
836.78	42.92
836.951	40.47
837.122	39.48
837.293	39.4
837.464	37.72
837.635	36.67
837.806	38.78
837.977	37.83
838.148	37.19
838.319	39.77
838.49	41.13
838.661	39.1
838.832	41.43
839.003	41.5
839.174	44.41
839.345	44.91
839.516	45.52
839.687	47.41
839.857	47.35
840.028	49.44
840.199	46.29
840.37	47.98
840.54	55.57
840.711	57.34
840.882	56.19
841.053	52.28
841.223	54.55
841.394	54.41
841.564	49.2
841.735	49.28
841.906	48.14
842.076	51.35
842.247	49.65
842.417	39.76
842.588	46.12
842.758	45.98
842.929	43.78
843.099	38.78
843.27	42.76
843.44	43.25
843.611	44.65
843.781	43.82
843.951	42.41
844.122	37.93
844.292	41.29
844.462	36.21
844.633	44.2
844.803	48.69
844.973	49.41
845.144	48.04
845.314	47.65
845.484	41.74
845.654	45.65
845.824	46.24
845.995	48.77
846.165	50.72
846.335	49.95
846.505	47.19
846.675	47.51
846.845	58.05
847.015	57.83
847.185	60.18
847.355	68.5
847.525	67.26
847.695	60.03
847.865	61.97
848.035	62.11
848.205	58.8
848.375	63.88
848.545	65.16
848.715	57.93
848.884	57.1
849.054	59.57
849.224	54.66
849.394	48.73
849.564	55.86
849.733	59.55
849.903	61.13
850.073	67.09
850.243	62.06
850.412	60.59
850.582	58.66
850.752	56.26
850.921	53.8
851.091	52.88
851.26	51.44
851.43	49.18
851.599	45.47
851.769	44.52
851.939	40.44
852.108	41.25
852.278	44.69
852.447	46.46
852.616	47.24
852.786	50.05
852.955	53.59
853.125	62.4
853.294	59.33
853.463	62.99
853.633	59.28
853.802	60.66
853.971	70.89
854.141	56.87
854.31	57.99
854.479	55.19
854.648	55.14
854.818	56.77
854.987	59.14
855.156	61.3
855.325	56.13
855.494	57.34
855.663	55.27
855.832	46.26
856.001	53.24
856.171	53.91
856.34	55.43
856.509	56.48
856.678	57.32
856.847	54.1
857.016	52.29
857.185	51.63
857.353	51.12
857.522	56.22
857.691	54.87
857.86	60.59
858.029	61.53
858.198	57.46
858.367	52.51
858.535	46.09
858.704	44.56
858.873	50.41
859.042	59.46
859.21	69.94
859.379	65.66
859.548	69.07
859.717	60.39
859.885	66.25
860.054	75.4
860.222	73.22
860.391	77.28
860.56	78.9
860.728	72.77
860.897	71.16
861.065	70.01
861.234	65.47
861.402	68.62
861.571	74.91
861.739	66.86
861.908	68.09
862.076	73.82
862.244	80.26
862.413	76.64
862.581	77.53
862.749	77.72
862.918	71.53
863.086	78.98
863.254	78.04
863.423	72.28
863.591	63.68
863.759	60.58
863.927	53.7
864.096	54.33
864.264	53.3
864.432	57.47
864.6	51.4
864.768	41.84
864.936	30.77
865.104	31.28
865.272	27.49
865.44	38.11
865.608	38.76
865.776	46.63
865.944	31.92
866.112	36.46
866.28	34.74
866.448	35.55
866.616	39.78
866.784	46.23
866.952	42.79
867.12	46.04
867.288	46.1
867.455	47.49
867.623	40.85
867.791	43.85
867.959	55.17
868.127	55.1
868.294	54.35
868.462	60.93
868.63	59.35
868.797	60.16
868.965	54.54
869.133	51.17
869.3	47.01
869.468	47.72
869.636	53.42
869.803	40.78
869.971	45.24
870.138	44.81
870.306	45.21
870.473	44.46
870.641	40.98
870.808	38.64
870.975	32.13
871.143	34.36
871.31	36.94
871.478	38.64
871.645	34.21
871.812	19.64
871.98	30.52
872.147	33.34
872.314	38
872.482	49.49
872.649	53.76
872.816	67.34
872.983	68.42
873.15	74.64
873.318	65.98
873.485	72.24
873.652	76.79
873.819	65.85
873.986	68.17
874.153	72.24
874.32	71.47
874.487	73.21
874.654	70.84
874.821	73.61
874.988	76.23
875.155	77.22
875.322	68.92
875.489	75.92
875.656	87.86
875.823	79.42
875.99	75.98
876.157	78.09
876.324	68.8
876.49	65.82
876.657	64.87
876.824	58.92
876.991	61.67
877.157	67.43
877.324	61.24
877.491	52.75
877.658	56.35
877.824	53.12
877.991	54.94
878.157	69.64
878.324	69.89
878.491	58.51
878.657	57.36
878.824	57.43
878.99	63.36
879.157	60.03
879.323	59.63
879.49	59.21
879.656	60.98
879.823	56.51
879.989	48.37
880.156	48.8
880.322	61.2
880.488	59.56
880.655	61.32
880.821	58.7
880.987	61.82
881.154	60.77
881.32	63.46
881.486	63.15
881.652	60.76
881.819	57.57
881.985	53.53
882.151	46.76
882.317	45.37
882.483	44.37
882.649	43.92
882.816	43.58
882.982	43.12
883.148	42.42
883.314	42.81
883.48	40.35
883.646	41.86
883.812	44.07
883.978	42.75
884.144	43.98
884.31	44.06
884.476	43.5
884.642	41.74
884.807	43.18
884.973	42.3
885.139	41.62
885.305	41.8
885.471	41.84
885.637	41.39
885.802	45.41
885.968	43.94
886.134	44.42
886.3	45.55
886.465	45.09
886.631	43.65
886.797	45.95
886.962	47.94
887.128	49.79
887.293	49.72
887.459	48.9
887.625	45.58
887.79	46.17
887.956	42.35
888.121	41.86
888.287	45.82
888.452	45.46
888.618	41.34
888.783	36.35
