Data from CB_036_Reflection_21-35-16-457.txt Node
Date: Wed Nov 11 21:35:16 EST 2015
User: robert
Spectrometer: USB4E03001
Autoset integration time: false
Trigger mode: 4
Integration Time (sec): 1.000000E-1
Scans to average: 15
Electric dark correction enabled: true
Nonlinearity correction enabled: false
Boxcar width: 5
Stray light correction enabled: false
XAxis mode: Wavelengths
Stop averaging: false
Number of Pixels in Spectrum: 3648
>>>>>Begin Spectral Data<<<<<
177.566	-146.08
177.785	-1375.66
178.005	244.01
178.225	702.05
178.445	36.74
178.665	100.89
178.885	830.25
179.105	-88.75
179.324	-64.86
179.544	31.55
179.764	47.26
179.984	71.09
180.204	78.1
180.423	132.06
180.643	87.1
180.863	74.76
181.083	75.53
181.302	67.52
181.522	42.81
181.742	46.48
181.961	53.1
182.181	40.22
182.401	35.36
182.621	7.19
182.84	-2.11
183.06	4.2
183.279	4.19
183.499	35.92
183.719	39.83
183.938	36.9
184.158	30.56
184.377	21.95
184.597	31.92
184.816	16.94
185.036	49.53
185.256	60.64
185.475	72.12
185.695	90.43
185.914	39.93
186.134	55.37
186.353	69.04
186.572	37.01
186.792	41.99
187.011	18.76
187.231	48.01
187.45	26.29
187.67	10.37
187.889	-11.74
188.108	21.4
188.328	33.3
188.547	38.09
188.766	38.66
188.986	62.31
189.205	54.91
189.424	41.43
189.644	0.56
189.863	15.53
190.082	20.57
190.302	21.74
190.521	13.76
190.74	-14.82
190.959	-10.76
191.178	8.53
191.398	-4.67
191.617	-3.58
191.836	-3.7
192.055	17.92
192.274	10.42
192.494	10
192.713	13.53
192.932	23.86
193.151	38.98
193.37	42.05
193.589	47.1
193.808	93.35
194.027	89.02
194.246	105.09
194.465	97.71
194.685	110.3
194.904	97.19
195.123	101.27
195.342	101.36
195.561	100.22
195.78	102.73
195.999	139.57
196.218	114.1
196.436	92.02
196.655	60.82
196.874	62
197.093	59.4
197.312	58.1
197.531	51.96
197.75	40.58
197.969	48.26
198.188	25.49
198.407	2.21
198.625	5.38
198.844	7.7
199.063	21.55
199.282	3.07
199.501	-23.67
199.719	-58.21
199.938	-51.1
200.157	-154.9
200.376	-65.71
200.594	-55.27
200.813	-15.78
201.032	-58.41
201.251	-98.22
201.469	-32.64
201.688	-13.52
201.907	5.33
202.125	0.16
202.344	-6.27
202.563	-0.26
202.781	-2.65
203	-13.16
203.218	-31.11
203.437	-2.85
203.656	17.21
203.874	0.62
204.093	-3.82
204.311	-3.53
204.53	-36.52
204.748	-20.24
204.967	-10.16
205.185	-23.38
205.404	-0.61
205.622	5.55
205.841	9.63
206.059	-18.89
206.278	10.58
206.496	15.14
206.715	25.04
206.933	48.68
207.151	48.98
207.37	58.94
207.588	59.93
207.806	45.63
208.025	54.6
208.243	48.87
208.461	58.1
208.68	47.3
208.898	51.93
209.116	31.61
209.335	25.76
209.553	31
209.771	34.46
209.989	22.68
210.208	17.05
210.426	5.68
210.644	-0.88
210.862	-6.24
211.081	12.04
211.299	20.51
211.517	53.11
211.735	30.43
211.953	30.01
212.171	5.05
212.39	18.16
212.608	50.13
212.826	36.9
213.044	55.63
213.262	43.92
213.48	16.94
213.698	21.07
213.916	19
214.134	30.38
214.352	25.7
214.57	35.27
214.788	25.69
215.006	-43.35
215.224	-35.14
215.442	-99.21
215.66	-106.57
215.878	-0.96
216.096	0.4
216.314	-18.76
216.532	-20.66
216.75	4.1
216.968	18.75
217.185	25.88
217.403	40.12
217.621	38.09
217.839	41.45
218.057	36.1
218.275	30.01
218.492	30.27
218.71	42.11
218.928	41.89
219.146	34.92
219.363	22.18
219.581	19.15
219.799	9.45
220.017	7.81
220.234	-18.32
220.452	-14.37
220.67	8.35
220.887	-5.97
221.105	-41.49
221.323	-54.26
221.54	-45.09
221.758	-16.5
221.976	-14.44
222.193	2.82
222.411	7.92
222.629	14.28
222.846	15.19
223.064	0.12
223.281	18.83
223.499	34.76
223.716	33.26
223.934	36.81
224.151	32.34
224.369	25.73
224.586	10.82
224.804	13.63
225.021	14.69
225.239	10.58
225.456	18.64
225.674	4.05
225.891	5.36
226.108	14.16
226.326	-9.4
226.543	-17.49
226.76	-1.27
226.978	-3.54
227.195	-9.82
227.413	-4.94
227.63	1.48
227.847	4
228.064	6.52
228.282	3.72
228.499	2.06
228.716	7.67
228.934	9.62
229.151	6.06
229.368	5.26
229.585	7.91
229.802	7.83
230.02	5.4
230.237	4.8
230.454	3.76
230.671	2.44
230.888	2.78
231.105	0.55
231.323	3.01
231.54	9.24
231.757	12.35
231.974	10.6
232.191	13.38
232.408	17.65
232.625	17.43
232.842	22.47
233.059	28.1
233.276	22.61
233.493	26.57
233.71	21.06
233.927	15.06
234.144	15.25
234.361	15.45
234.578	14.6
234.795	12.82
235.012	16.53
235.229	12.85
235.446	9.34
235.663	11.43
235.879	9.07
236.096	7.15
236.313	9.49
236.53	10.45
236.747	9.77
236.964	9.5
237.181	10.99
237.397	4
237.614	6.2
237.831	3.95
238.048	8.24
238.264	10.53
238.481	12.94
238.698	15.04
238.915	19.39
239.131	19.12
239.348	19.6
239.565	15.98
239.781	19.63
239.998	21.1
240.215	22.35
240.431	20.37
240.648	23.16
240.865	19.81
241.081	18.39
241.298	12.2
241.514	12.47
241.731	13.41
241.947	12.2
242.164	12.89
242.38	10.08
242.597	10.7
242.814	10.4
243.03	9.58
243.246	12.16
243.463	10.76
243.679	12.85
243.896	13.77
244.112	13.77
244.329	17.55
244.545	14.38
244.762	16.03
244.978	15.53
245.194	15.2
245.411	12.57
245.627	11.43
245.843	13.29
246.06	12.1
246.276	10.25
246.492	9.12
246.709	7.79
246.925	9.89
247.141	10.27
247.357	10.19
247.574	9.89
247.79	10.63
248.006	10.67
248.222	10.94
248.439	11.91
248.655	13.68
248.871	14.12
249.087	15.12
249.303	14.75
249.519	14.82
249.736	15.22
249.952	17.14
250.168	17.51
250.384	15.93
250.6	14.55
250.816	13.41
251.032	11.27
251.248	12.02
251.464	10.43
251.68	11.47
251.896	12.17
252.112	11.69
252.328	10.63
252.544	10.59
252.76	11.78
252.976	11.24
253.192	9.91
253.408	8.82
253.624	9.33
253.84	8.57
254.056	9.24
254.272	10.09
254.487	10.1
254.703	11.23
254.919	12.03
255.135	10.7
255.351	10.37
255.567	11.49
255.782	13.71
255.998	10.75
256.214	11.98
256.43	12.13
256.646	9.5
256.861	9.49
257.077	9.67
257.293	6.23
257.508	7.75
257.724	9.88
257.94	9.37
258.155	9.67
258.371	10.08
258.587	10.1
258.802	9.21
259.018	9.2
259.234	8.23
259.449	7.86
259.665	8.68
259.88	8.72
260.096	8.41
260.312	9.32
260.527	9.04
260.743	8.87
260.958	8.73
261.174	8.59
261.389	9.23
261.605	10.44
261.82	11.07
262.036	10.85
262.251	11.15
262.466	10.86
262.682	9.06
262.897	8.69
263.113	7.98
263.328	6.96
263.543	5.59
263.759	2.85
263.974	2.67
264.189	1.85
264.405	1.97
264.62	1.72
264.835	2.53
265.051	4.42
265.266	4.6
265.481	5.05
265.696	7.7
265.912	9
266.127	11.07
266.342	10.81
266.557	10.44
266.773	10.3
266.988	10.15
267.203	8.35
267.418	8
267.633	7.76
267.848	8.95
268.064	7.1
268.279	6.66
268.494	5.41
268.709	4.73
268.924	6.12
269.139	5.55
269.354	5.87
269.569	7.1
269.784	8.28
269.999	7.74
270.214	8.03
270.429	8.24
270.644	9.6
270.859	10.29
271.074	10.89
271.289	10.38
271.504	12.13
271.719	11.15
271.934	10.9
272.149	9.76
272.363	11.82
272.578	11.13
272.793	11.98
273.008	11.25
273.223	11.02
273.438	9.62
273.653	9.89
273.867	8.65
274.082	9
274.297	9.09
274.512	9.29
274.726	6.06
274.941	6.96
275.156	6.29
275.371	5.09
275.585	5.09
275.8	6.38
276.015	6.07
276.229	6.68
276.444	7.36
276.659	8.06
276.873	9.66
277.088	10.82
277.302	9.63
277.517	10.19
277.732	11.38
277.946	11.41
278.161	10.9
278.375	10.86
278.59	11.31
278.804	11.4
279.019	11.55
279.233	9.58
279.448	9.8
279.662	11.09
279.877	10.61
280.091	9.51
280.306	10.09
280.52	10.27
280.735	9.83
280.949	8.92
281.163	8.05
281.378	6.26
281.592	5.2
281.806	5.83
282.021	4.37
282.235	3.77
282.449	5.09
282.664	3.44
282.878	2.72
283.092	3.49
283.307	4.34
283.521	5.14
283.735	5.83
283.949	7.54
284.164	7.56
284.378	8.21
284.592	8.58
284.806	8.23
285.02	8.33
285.234	9.92
285.449	9.78
285.663	8.87
285.877	7.78
286.091	8.15
286.305	7.97
286.519	7.45
286.733	7.51
286.947	8.02
287.161	7.79
287.375	8.72
287.589	8.26
287.803	8.13
288.017	8.52
288.231	9.88
288.445	10.19
288.659	10.61
288.873	11.55
289.087	11.53
289.301	11.14
289.515	13.03
289.729	12.73
289.943	12.17
290.157	12.19
290.371	12.25
290.584	12.3
290.798	12.28
291.012	12.2
291.226	11.9
291.44	12.8
291.654	12.91
291.867	11.2
292.081	11.59
292.295	12.59
292.509	11.72
292.722	12.23
292.936	10.55
293.15	10.85
293.364	11.66
293.577	11.17
293.791	9.99
294.005	9.03
294.218	9.34
294.432	9.84
294.645	9.91
294.859	9.53
295.073	8.77
295.286	9.57
295.5	9.81
295.713	9.12
295.927	8.73
296.14	8.89
296.354	9.67
296.568	9.5
296.781	8.48
296.994	8.15
297.208	8.66
297.421	9.12
297.635	9.35
297.848	8.77
298.062	8.68
298.275	9.28
298.489	9.4
298.702	9.2
298.915	9.99
299.129	11.72
299.342	11.23
299.555	12.12
299.769	12.54
299.982	12.05
300.195	11.97
300.409	11.22
300.622	10.96
300.835	9.5
301.048	9.7
301.262	9.39
301.475	7.74
301.688	8.28
301.901	8.3
302.115	6.58
302.328	6.91
302.541	7.21
302.754	6.96
302.967	7.63
303.18	10.03
303.393	9.42
303.607	8.91
303.82	8.8
304.033	7.93
304.246	6.43
304.459	8.33
304.672	8.58
304.885	8.98
305.098	9.64
305.311	9.41
305.524	6.91
305.737	8.1
305.95	7.61
306.163	9.01
306.376	10.28
306.589	11.46
306.802	10.8
307.015	12.72
307.228	11.5
307.44	12.16
307.653	13.74
307.866	15.55
308.079	15.05
308.292	14.69
308.505	14.03
308.718	13.6
308.93	13.63
309.143	12.95
309.356	11.41
309.569	12.68
309.781	12.44
309.994	11.41
310.207	11.13
310.42	10.73
310.632	12.28
310.845	13.03
311.058	13.53
311.27	13.32
311.483	14
311.696	14.28
311.908	14.36
312.121	13.59
312.333	13.79
312.546	13.55
312.759	14.39
312.971	14.08
313.184	13.54
313.396	12.95
313.609	13.81
313.821	12.35
314.034	12.2
314.246	11.77
314.459	12.99
314.671	12.77
314.884	13.77
315.096	13.57
315.309	12.28
315.521	11.64
315.733	11.86
315.946	9.82
316.158	11.34
316.371	11.01
316.583	11.72
316.795	11.53
317.008	11.28
317.22	11.76
317.432	11.82
317.644	12.99
317.857	14.4
318.069	14.51
318.281	15
318.494	15.74
318.706	17.25
318.918	17.03
319.13	17.1
319.342	16.36
319.555	16.01
319.767	15.5
319.979	14.94
320.191	14.28
320.403	15.04
320.615	15.24
320.827	14.49
321.039	12.69
321.252	12.21
321.464	12.25
321.676	12.69
321.888	12.8
322.1	12.98
322.312	13.94
322.524	13.71
322.736	13.46
322.948	14.61
323.16	14.87
323.372	15.26
323.584	15.4
323.796	16.39
324.007	16.88
324.219	17.42
324.431	17.29
324.643	17.44
324.855	17.18
325.067	17.55
325.279	17.7
325.491	18.12
325.702	17.92
325.914	18.73
326.126	18.53
326.338	17.78
326.55	17.21
326.761	17.63
326.973	17.04
327.185	17.89
327.396	18.25
327.608	17.49
327.82	17.94
328.032	17.85
328.243	17.01
328.455	17.01
328.666	17.94
328.878	18.38
329.09	18.79
329.301	19.45
329.513	19.58
329.725	18.72
329.936	19.74
330.148	19.53
330.359	21.13
330.571	20.79
330.782	20.68
330.994	21.1
331.205	21.36
331.417	22.21
331.628	22.77
331.84	22.99
332.051	23.37
332.262	22.75
332.474	23.35
332.685	23.57
332.897	24.44
333.108	25.37
333.319	24.89
333.531	25.6
333.742	25.01
333.953	24.4
334.165	23.78
334.376	24.33
334.587	24.55
334.799	23.98
335.01	23.35
335.221	22.91
335.432	22.37
335.644	22.6
335.855	22.43
336.066	22.8
336.277	23.58
336.488	24.53
336.7	23.78
336.911	23.95
337.122	23.67
337.333	23.26
337.544	23.86
337.755	24.07
337.966	24.77
338.177	24.25
338.388	24.05
338.599	23.53
338.811	22.19
339.022	21.7
339.233	21.92
339.444	22.02
339.655	22.7
339.866	22.34
340.076	22.17
340.287	21.74
340.498	21.17
340.709	21.38
340.92	21.65
341.131	22.54
341.342	23.9
341.553	23.98
341.764	23.43
341.975	23.41
342.185	23.66
342.396	23.72
342.607	23.61
342.818	23.56
343.029	22.87
343.239	22.76
343.45	22.34
343.661	21.15
343.872	20.53
344.082	20.81
344.293	20.17
344.504	20.3
344.714	20.44
344.925	19.97
345.136	20.91
345.346	21.32
345.557	20.85
345.768	20.56
345.978	21.39
346.189	22.49
346.399	22.27
346.61	22.77
346.821	22.82
347.031	22.97
347.242	23.77
347.452	23.41
347.663	23.98
347.873	23.94
348.084	24.78
348.294	25.13
348.504	24.26
348.715	25.11
348.925	24.98
349.136	24.12
349.346	23.32
349.557	23.28
349.767	23.21
349.977	22.41
350.188	22.7
350.398	21.67
350.608	21.07
350.819	21.23
351.029	20.56
351.239	19.92
351.449	21.23
351.66	20.71
351.87	21.55
352.08	21.59
352.29	21.71
352.501	22.12
352.711	23.17
352.921	22.6
353.131	22.95
353.341	22.87
353.552	23.43
353.762	22.9
353.972	23.96
354.182	22.28
354.392	22.46
354.602	22.35
354.812	21.33
355.022	20.78
355.232	20.94
355.442	20.55
355.652	20.55
355.862	20.46
356.072	20.4
356.282	20.48
356.492	21.17
356.702	21.14
356.912	21
357.122	21.65
357.332	22.03
357.542	22.58
357.752	22.52
357.962	22.28
358.171	22.03
358.381	22.03
358.591	21.05
358.801	20.56
359.011	19.55
359.221	20.62
359.43	21.07
359.64	20.58
359.85	20.05
360.06	20.09
360.269	20.16
360.479	20.81
360.689	20.74
360.899	20.99
361.108	21.41
361.318	21.75
361.528	21.01
361.737	20.33
361.947	20.36
362.156	20.16
362.366	20.01
362.576	19.91
362.785	19.59
362.995	19.41
363.204	19.61
363.414	19.34
363.623	19.05
363.833	18.46
364.042	18.21
364.252	18.58
364.461	18.76
364.671	18.85
364.88	18.97
365.09	18.88
365.299	18.81
365.509	19.19
365.718	19.66
365.927	19.86
366.137	20.01
366.346	20.19
366.555	19.61
366.765	19.56
366.974	19.41
367.183	19.22
367.393	19.44
367.602	19.26
367.811	18.63
368.021	18.12
368.23	18.4
368.439	18.41
368.648	18.68
368.857	18.34
369.067	18.03
369.276	17.86
369.485	17.92
369.694	18.01
369.903	18.06
370.112	17.65
370.321	17.18
370.531	16.58
370.74	16.9
370.949	15.87
371.158	15.8
371.367	15.91
371.576	16.26
371.785	16.25
371.994	15.47
372.203	15.29
372.412	15.68
372.621	15.58
372.83	15.47
373.039	15.28
373.248	15.89
373.457	16.48
373.666	16.84
373.874	16.53
374.083	16.22
374.292	16.23
374.501	16.96
374.71	16.61
374.919	17.07
375.128	17.7
375.336	17.58
375.545	17.45
375.754	17.29
375.963	16.91
376.171	16.58
376.38	16.47
376.589	16.73
376.798	16.05
377.006	16.08
377.215	15.69
377.424	15.22
377.632	14.95
377.841	14.8
378.05	14.28
378.258	14.08
378.467	13.96
378.675	14.18
378.884	13.76
379.093	13.57
379.301	13.77
379.51	13.78
379.718	13.79
379.927	13.76
380.135	13.77
380.344	13.57
380.552	13.58
380.761	13.55
380.969	13.01
381.177	13.49
381.386	13.63
381.594	13.1
381.803	12.86
382.011	12.84
382.219	13.09
382.428	13.34
382.636	13.33
382.845	13.49
383.053	13.26
383.261	13.47
383.469	13.14
383.678	12.89
383.886	12.24
384.094	12.2
384.302	12.27
384.511	12.13
384.719	11.75
384.927	12.16
385.135	12.3
385.343	12.66
385.552	13.03
385.76	12.89
385.968	12.69
386.176	13.43
386.384	13.08
386.592	12.79
386.8	12.6
387.008	12.63
387.216	12.51
387.424	12.34
387.633	11.97
387.841	11.41
388.049	11.05
388.257	11.21
388.465	10.88
388.672	11.16
388.88	11.14
389.088	10.99
389.296	10.93
389.504	10.56
389.712	10.48
389.92	10.45
390.128	10.39
390.336	10.53
390.544	10.44
390.751	10.52
390.959	10.65
391.167	10.73
391.375	10.74
391.583	10.66
391.79	10.81
391.998	10.51
392.206	10.57
392.414	10.42
392.621	10.02
392.829	9.88
393.037	9.76
393.244	9.64
393.452	9.67
393.66	9.6
393.867	9.62
394.075	9.7
394.283	9.71
394.49	9.73
394.698	9.84
394.905	10.28
395.113	10.34
395.32	10.13
395.528	9.91
395.735	9.71
395.943	9.59
396.15	9.49
396.358	9.22
396.565	9.26
396.773	8.99
396.98	8.92
397.188	8.79
397.395	8.82
397.602	9.1
397.81	9.21
398.017	8.96
398.225	8.61
398.432	8.63
398.639	8.62
398.847	8.26
399.054	8.28
399.261	8.45
399.468	8.75
399.676	8.54
399.883	8.34
400.09	8.07
400.297	8.26
400.505	8.43
400.712	8.39
400.919	8.03
401.126	8.47
401.333	8.39
401.54	7.84
401.748	7.41
401.955	7.85
402.162	7.98
402.369	8.13
402.576	8.01
402.783	8.1
402.99	7.64
403.197	7.74
403.404	7.46
403.611	7.77
403.818	8.12
404.025	8.07
404.232	7.62
404.439	7.63
404.646	7.29
404.853	7.23
405.06	7.32
405.267	7.53
405.474	7.62
405.681	7.44
405.887	7.33
406.094	7.35
406.301	7.2
406.508	7.26
406.715	7.3
406.922	7.84
407.128	7.96
407.335	7.62
407.542	7.51
407.749	7.56
407.955	7.57
408.162	7.49
408.369	7.21
408.575	7.41
408.782	7.6
408.989	7.61
409.195	7.37
409.402	7.32
409.609	7.29
409.815	7.24
410.022	7.28
410.228	7.38
410.435	7.17
410.642	7.22
410.848	7.02
411.055	6.96
411.261	6.77
411.468	6.85
411.674	6.98
411.881	7.26
412.087	7.53
412.294	7.47
412.5	7.83
412.706	7.94
412.913	7.95
413.119	7.99
413.326	7.98
413.532	7.75
413.738	7.73
413.945	7.24
414.151	7.11
414.357	7.03
414.564	6.94
414.77	6.63
414.976	6.87
415.182	6.76
415.389	6.81
415.595	6.63
415.801	6.69
416.007	6.47
416.214	6.32
416.42	6.55
416.626	6.61
416.832	6.68
417.038	6.79
417.244	6.55
417.45	6.56
417.657	6.63
417.863	6.57
418.069	6.62
418.275	6.78
418.481	7.02
418.687	6.91
418.893	6.79
419.099	6.88
419.305	6.69
419.511	6.78
419.717	7.02
419.923	6.86
420.129	6.81
420.335	6.87
420.541	6.83
420.746	6.82
420.952	6.71
421.158	6.64
421.364	6.43
421.57	6.41
421.776	6.34
421.982	6.1
422.187	6.05
422.393	6.15
422.599	6.01
422.805	5.9
423.01	5.82
423.216	5.81
423.422	5.76
423.628	5.76
423.833	5.71
424.039	5.72
424.245	5.77
424.45	5.99
424.656	5.91
424.862	5.92
425.067	6.1
425.273	6.09
425.478	6.11
425.684	6.16
425.889	6.13
426.095	6.36
426.301	6.22
426.506	6.25
426.712	6.13
426.917	6.12
427.123	6.09
427.328	5.85
427.533	5.75
427.739	5.62
427.944	5.54
428.15	5.63
428.355	5.3
428.561	5.41
428.766	5.41
428.971	5.31
429.177	5.42
429.382	5.35
429.587	5.31
429.793	5.44
429.998	5.54
430.203	5.59
430.408	5.52
430.614	5.81
430.819	5.67
431.024	5.68
431.229	5.76
431.434	5.55
431.64	5.86
431.845	6.06
432.05	6.01
432.255	5.95
432.46	6.02
432.665	5.81
432.87	5.76
433.076	6.12
433.281	6.03
433.486	5.78
433.691	5.95
433.896	5.71
434.101	5.53
434.306	5.67
434.511	5.7
434.716	5.78
434.921	6.06
435.126	5.87
435.331	5.5
435.535	5.46
435.74	5.64
435.945	5.65
436.15	5.96
436.355	6.22
436.56	6.18
436.765	6.03
436.97	5.83
437.174	5.86
437.379	6.01
437.584	6.09
437.789	6.08
437.993	6.13
438.198	6.06
438.403	5.8
438.608	5.46
438.812	5.35
439.017	5.6
439.222	5.7
439.426	5.53
439.631	5.42
439.836	5.59
440.04	5.56
440.245	5.58
440.45	5.57
440.654	5.7
440.859	5.84
441.063	5.9
441.268	5.8
441.472	5.83
441.677	5.91
441.881	6.07
442.086	5.99
442.29	6.06
442.495	6.11
442.699	6.13
442.904	5.99
443.108	6.07
443.312	6.16
443.517	6.21
443.721	6.21
443.925	6.09
444.13	5.93
444.334	5.84
444.538	5.81
444.743	5.6
444.947	5.35
445.151	5.41
445.356	5.37
445.56	5.25
445.764	5.4
445.968	5.38
446.173	5.47
446.377	5.53
446.581	5.5
446.785	5.58
446.989	5.62
447.193	5.8
447.398	5.67
447.602	5.5
447.806	5.51
448.01	5.25
448.214	5.18
448.418	5.1
448.622	5.02
448.826	4.99
449.03	4.93
449.234	4.88
449.438	4.83
449.642	4.81
449.846	4.88
450.05	5
450.254	5.04
450.458	5.08
450.662	5.13
450.866	5.06
451.069	5.2
451.273	4.93
451.477	4.97
451.681	5.17
451.885	5.34
452.089	5.45
452.292	5.36
452.496	5.25
452.7	5.37
452.904	5.4
453.107	5.62
453.311	5.61
453.515	5.72
453.719	5.79
453.922	5.74
454.126	5.68
454.33	5.66
454.533	5.82
454.737	6.11
454.94	5.98
455.144	5.85
455.348	5.81
455.551	5.8
455.755	5.94
455.958	5.94
456.162	5.74
456.365	5.86
456.569	5.86
456.772	5.82
456.976	5.71
457.179	5.78
457.383	5.8
457.586	5.78
457.79	5.66
457.993	5.43
458.196	5.51
458.4	5.45
458.603	5.25
458.807	5.19
459.01	5.09
459.213	5.01
459.417	5.03
459.62	5.2
459.823	5.17
460.026	5.23
460.23	5.31
460.433	5.18
460.636	5.32
460.839	5.48
461.042	5.53
461.246	5.55
461.449	5.55
461.652	5.54
461.855	5.47
462.058	5.48
462.261	5.47
462.464	5.57
462.668	5.6
462.871	5.47
463.074	5.25
463.277	5.36
463.48	5.53
463.683	5.74
463.886	5.47
464.089	5.55
464.292	5.6
464.495	5.42
464.698	5.61
464.901	5.53
465.104	5.67
465.306	5.71
465.509	5.45
465.712	5.18
465.915	5.13
466.118	5.42
466.321	5.28
466.524	5.23
466.726	5.37
466.929	5.22
467.132	5.24
467.335	5.19
467.538	5.38
467.74	5.61
467.943	5.63
468.146	5.5
468.348	5.43
468.551	5.34
468.754	5.52
468.956	5.61
469.159	5.46
469.362	5.6
469.564	5.65
469.767	5.55
469.969	5.56
470.172	5.62
470.375	5.69
470.577	5.76
470.78	5.87
470.982	5.76
471.185	5.74
471.387	5.82
471.59	5.68
471.792	5.63
471.995	5.57
472.197	5.7
472.399	5.4
472.602	5.37
472.804	5.41
473.007	5.43
473.209	5.39
473.411	5.38
473.614	5.22
473.816	5.17
474.018	5.14
474.22	5.19
474.423	5.15
474.625	5.2
474.827	5.32
475.03	5.32
475.232	5.34
475.434	5.25
475.636	5.11
475.838	5.23
476.04	5.34
476.243	5.45
476.445	5.3
476.647	5.14
476.849	5.55
477.051	5.61
477.253	5.53
477.455	5.53
477.657	5.55
477.859	5.63
478.061	5.8
478.263	5.84
478.465	5.91
478.667	5.92
478.869	5.87
479.071	5.66
479.273	5.7
479.475	5.73
479.677	5.73
479.879	5.85
480.081	5.84
480.283	5.69
480.485	5.75
480.686	5.48
480.888	5.53
481.09	5.62
481.292	5.79
481.494	5.64
481.695	5.55
481.897	5.57
482.099	5.5
482.301	5.46
482.502	5.42
482.704	5.37
482.906	5.42
483.107	5.42
483.309	5.34
483.511	5.31
483.712	5.32
483.914	5.31
484.115	5.25
484.317	5.22
484.519	5.21
484.72	5.27
484.922	5.22
485.123	5.3
485.325	5.29
485.526	5.31
485.728	5.27
485.929	5.22
486.131	5.25
486.332	5.3
486.534	5.32
486.735	5.3
486.936	5.33
487.138	5.38
487.339	5.27
487.541	5.3
487.742	5.35
487.943	5.36
488.144	5.41
488.346	5.38
488.547	5.4
488.748	5.43
488.95	5.39
489.151	5.28
489.352	5.27
489.553	5.24
489.755	5.22
489.956	5.16
490.157	5.1
490.358	5.1
490.559	5.08
490.76	5.08
490.961	5.03
491.163	5.13
491.364	5.15
491.565	5.16
491.766	5.24
491.967	5.31
492.168	5.36
492.369	5.37
492.57	5.27
492.771	5.3
492.972	5.32
493.173	5.24
493.374	5.19
493.575	5.17
493.776	5.07
493.976	5.02
494.177	4.91
494.378	4.89
494.579	4.93
494.78	5.12
494.981	5.1
495.182	5.04
495.382	5.29
495.583	5.41
495.784	5.47
495.985	5.71
496.185	5.62
496.386	5.61
496.587	5.55
496.788	5.67
496.988	5.54
497.189	5.63
497.39	5.68
497.59	5.71
497.791	5.78
497.992	5.82
498.192	5.77
498.393	5.76
498.593	5.91
498.794	5.92
498.994	5.76
499.195	5.85
499.395	5.93
499.596	6.02
499.796	5.92
499.997	6.21
500.197	6.42
500.398	6.58
500.598	6.77
500.799	6.67
500.999	6.83
501.199	7
501.4	7.02
501.6	6.92
501.801	6.84
502.001	7.06
502.201	6.78
502.402	6.52
502.602	6.45
502.802	6.56
503.002	6.5
503.203	6.51
503.403	6.35
503.603	6.47
503.803	6.75
504.003	6.61
504.204	6.7
504.404	6.76
504.604	6.84
504.804	7
505.004	7.06
505.204	7.2
505.404	7.28
505.604	7.46
505.804	7.53
506.005	7.43
506.205	7.69
506.405	7.55
506.605	7.61
506.805	7.7
507.005	7.59
507.204	7.56
507.404	7.81
507.604	7.86
507.804	8.04
508.004	8.04
508.204	8.07
508.404	8.09
508.604	8.25
508.804	8.36
509.003	8.46
509.203	8.51
509.403	8.57
509.603	8.64
509.803	8.64
510.002	8.61
510.202	8.74
510.402	8.84
510.602	8.93
510.801	8.84
511.001	8.91
511.201	9.02
511.4	9.23
511.6	9.5
511.8	9.49
511.999	9.56
512.199	9.6
512.398	9.57
512.598	9.72
512.797	9.83
512.997	10.17
513.197	10.12
513.396	10.1
513.596	9.98
513.795	9.85
513.994	9.88
514.194	9.88
514.393	10.09
514.593	10.41
514.792	10.32
514.992	10.4
515.191	10.36
515.39	10.6
515.59	10.84
515.789	11.01
515.988	11.06
516.188	11.11
516.387	11.32
516.586	11.51
516.786	11.35
516.985	11.56
517.184	11.54
517.383	11.65
517.582	11.64
517.782	11.73
517.981	11.83
518.18	11.95
518.379	12.13
518.578	12.19
518.777	12.01
518.976	12.21
519.176	12.2
519.375	12.38
519.574	12.49
519.773	12.7
519.972	12.8
520.171	13
520.37	13.16
520.569	13.15
520.768	13.17
520.967	13.55
521.166	13.62
521.365	13.8
521.564	13.98
521.762	13.99
521.961	14.02
522.16	14.01
522.359	13.92
522.558	14.03
522.757	14.33
522.956	14.56
523.154	14.66
523.353	14.84
523.552	15.11
523.751	15.26
523.949	15.49
524.148	15.58
524.347	15.8
524.546	16.01
524.744	16.05
524.943	16.05
525.142	16.17
525.34	16.19
525.539	16.21
525.737	16.3
525.936	16.29
526.135	16.41
526.333	16.49
526.532	16.48
526.73	16.58
526.929	16.81
527.127	16.96
527.326	17.13
527.524	17.39
527.723	17.56
527.921	17.65
528.12	17.77
528.318	17.86
528.516	17.97
528.715	18.11
528.913	18.21
529.112	18.26
529.31	18.24
529.508	18.23
529.707	18.21
529.905	18.22
530.103	18.23
530.301	18.27
530.5	18.36
530.698	18.44
530.896	18.54
531.094	18.61
531.293	18.77
531.491	19.05
531.689	19.23
531.887	19.38
532.085	19.62
532.283	19.77
532.481	19.93
532.68	19.98
532.878	20.09
533.076	20.17
533.274	20.2
533.472	20.24
533.67	20.32
533.868	20.43
534.066	20.56
534.264	20.58
534.462	20.74
534.66	20.8
534.858	20.96
535.056	21.07
535.253	21.23
535.451	21.4
535.649	21.5
535.847	21.68
536.045	21.82
536.243	21.89
536.441	22.04
536.638	22.02
536.836	22.13
537.034	22.2
537.232	22.27
537.43	22.27
537.627	22.41
537.825	22.46
538.023	22.43
538.22	22.49
538.418	22.57
538.616	22.56
538.813	22.81
539.011	22.97
539.209	23.08
539.406	23.17
539.604	23.31
539.801	23.44
539.999	23.54
540.196	23.69
540.394	23.79
540.591	23.9
540.789	24.04
540.986	24.03
541.184	24.05
541.381	24.05
541.579	24.21
541.776	24.22
541.974	24.22
542.171	24.27
542.368	24.32
542.566	24.39
542.763	24.45
542.96	24.44
543.158	24.48
543.355	24.58
543.552	24.69
543.75	24.76
543.947	24.85
544.144	24.89
544.341	24.98
544.539	25.03
544.736	25.02
544.933	25.12
545.13	25.35
545.327	25.52
545.524	25.57
545.722	25.52
545.919	25.39
546.116	25.45
546.313	25.62
546.51	25.68
546.707	25.82
546.904	25.86
547.101	25.81
547.298	25.79
547.495	25.7
547.692	25.67
547.889	25.8
548.086	25.98
548.283	26
548.48	26.11
548.677	26.21
548.874	26.06
549.07	26.21
549.267	26.34
549.464	26.52
549.661	26.85
549.858	27.2
550.055	27.22
550.251	27.13
550.448	27.37
550.645	27.4
550.842	27.25
551.038	27.56
551.235	27.74
551.432	27.81
551.628	27.7
551.825	27.66
552.022	27.32
552.218	27.48
552.415	27.69
552.612	27.85
552.808	27.87
553.005	28.17
553.201	28.2
553.398	28.11
553.594	28.23
553.791	28.54
553.987	28.57
554.184	28.88
554.38	28.99
554.577	29.1
554.773	29.08
554.97	29.15
555.166	29.03
555.362	29.15
555.559	29.35
555.755	29.16
555.952	29.06
556.148	29.33
556.344	29.24
556.541	29.12
556.737	29.06
556.933	29.11
557.129	29.1
557.326	29.32
557.522	29.16
557.718	29
557.914	29.15
558.11	29.34
558.307	29.17
558.503	29.08
558.699	29.31
558.895	29.32
559.091	29.29
559.287	29.43
559.483	29.3
559.679	29.61
559.876	29.86
560.072	29.98
560.268	29.83
560.464	30.08
560.66	30.4
560.856	30.52
561.052	30.69
561.247	30.59
561.443	30.51
561.639	30.75
561.835	30.76
562.031	30.58
562.227	30.66
562.423	30.57
562.619	30.43
562.815	30.43
563.01	30.37
563.206	30.44
563.402	30.96
563.598	31.1
563.793	30.93
563.989	30.94
564.185	31.02
564.381	31.01
564.576	31.24
564.772	31.16
564.968	31.24
565.163	31.25
565.359	31.14
565.555	30.89
565.75	30.82
565.946	30.93
566.141	31
566.337	30.93
566.532	31.02
566.728	30.83
566.923	30.95
567.119	31.09
567.314	31.31
567.51	31.35
567.705	31.46
567.901	31.52
568.096	31.61
568.292	31.55
568.487	31.73
568.682	31.73
568.878	31.9
569.073	31.93
569.268	31.8
569.464	31.52
569.659	31.68
569.854	31.56
570.05	31.85
570.245	31.96
570.44	31.88
570.635	31.95
570.831	32.12
571.026	32.34
571.221	32.43
571.416	32.53
571.611	32.43
571.806	32.31
572.002	32.4
572.197	32.25
572.392	32.26
572.587	32.51
572.782	32.59
572.977	32.61
573.172	32.53
573.367	32.59
573.562	32.5
573.757	32.83
573.952	32.95
574.147	33.07
574.342	33.28
574.537	33.28
574.732	33.18
574.927	33.13
575.121	32.94
575.316	32.99
575.511	32.86
575.706	32.96
575.901	32.86
576.096	32.87
576.29	32.83
576.485	32.76
576.68	32.69
576.875	32.87
577.069	32.95
577.264	33.2
577.459	33.28
577.654	33.47
577.848	33.55
578.043	33.79
578.238	34.02
578.432	33.93
578.627	33.91
578.821	34.07
579.016	34.33
579.21	34.01
579.405	33.77
579.6	33.63
579.794	33.52
579.989	33.31
580.183	33.23
580.378	33.14
580.572	33.17
580.766	33.37
580.961	33.61
581.155	33.1
581.35	33.43
581.544	33.67
581.738	33.99
581.933	34.17
582.127	34.42
582.321	34.43
582.516	34.19
582.71	34.18
582.904	33.75
583.099	33.51
583.293	33.61
583.487	33.66
583.681	33.58
583.875	33.27
584.07	33.38
584.264	33.45
584.458	33.36
584.652	33.66
584.846	33.57
585.04	33.96
585.234	34.03
585.428	34.11
585.623	34.02
585.817	34.2
586.011	34.18
586.205	33.78
586.399	33.62
586.593	33.98
586.787	33.93
586.981	34.16
587.174	34.08
587.368	33.96
587.562	34.07
587.756	34.19
587.95	34.17
588.144	34.46
588.338	34.7
588.532	34.78
588.725	34.69
588.919	34.81
589.113	35.02
589.307	35.01
589.501	35.08
589.694	34.99
589.888	35.1
590.082	35.12
590.275	35
590.469	34.93
590.663	34.93
590.856	34.8
591.05	34.61
591.244	34.54
591.437	34.51
591.631	34.56
591.824	34.38
592.018	34.43
592.212	34.29
592.405	34.36
592.599	34.51
592.792	34.59
592.986	34.54
593.179	34.74
593.372	34.74
593.566	34.81
593.759	34.76
593.953	34.96
594.146	34.76
594.339	34.65
594.533	34.61
594.726	34.78
594.92	34.72
595.113	34.81
595.306	34.51
595.499	34.3
595.693	34.37
595.886	34.43
596.079	34.34
596.272	34.4
596.466	34.5
596.659	34.65
596.852	34.59
597.045	34.66
597.238	34.63
597.431	34.74
597.624	34.82
597.818	35.03
598.011	35.12
598.204	35.45
598.397	35.41
598.59	35.53
598.783	35.44
598.976	35.36
599.169	35.28
599.362	35.51
599.555	35.6
599.748	35.7
599.941	35.55
600.134	35.54
600.326	35.35
600.519	35.77
600.712	35.83
600.905	35.8
601.098	35.87
601.291	36.01
601.483	35.88
601.676	35.85
601.869	36.06
602.062	36.14
602.255	36.02
602.447	35.99
602.64	35.96
602.833	35.7
603.025	35.87
603.218	35.84
603.411	35.97
603.603	35.77
603.796	35.91
603.989	35.86
604.181	35.79
604.374	35.94
604.566	35.73
604.759	35.68
604.951	36.03
605.144	35.92
605.336	35.92
605.529	35.67
605.721	35.81
605.914	35.8
606.106	35.8
606.299	35.94
606.491	35.84
606.683	36.22
606.876	36.17
607.068	35.86
607.26	36.06
607.453	35.98
607.645	36.22
607.837	36.47
608.03	36.45
608.222	36.28
608.414	36.23
608.606	36.11
608.799	35.93
608.991	35.75
609.183	35.71
609.375	35.52
609.567	35.69
609.759	35.62
609.952	35.56
610.144	35.51
610.336	35.56
610.528	35.43
610.72	35.73
610.912	35.78
611.104	35.74
611.296	35.74
611.488	35.56
611.68	35.64
611.872	35.42
612.064	35.27
612.256	35.2
612.448	35.1
612.64	35.4
612.832	35.01
613.023	35.08
613.215	35.06
613.407	35.22
613.599	35.61
613.791	35.33
613.983	35.79
614.174	35.78
614.366	35.86
614.558	36.26
614.75	36.01
614.941	36.27
615.133	36.12
615.325	36.21
615.516	36.44
615.708	36.23
615.9	36.24
616.091	36.08
616.283	36.1
616.475	36.28
616.666	36.03
616.858	36.02
617.049	35.97
617.241	35.77
617.432	35.75
617.624	35.72
617.815	35.79
618.007	36.22
618.198	36.23
618.39	36.13
618.581	36.14
618.773	36.35
618.964	36.16
619.155	36.01
619.347	36.36
619.538	36.46
619.729	36.37
619.921	36.55
620.112	36.36
620.303	36.16
620.494	36.29
620.686	36.19
620.877	36.15
621.068	36.52
621.259	36.66
621.451	36.44
621.642	36.52
621.833	36.58
622.024	36.73
622.215	36.66
622.406	36.94
622.597	36.64
622.788	36.65
622.98	36.58
623.171	36.54
623.362	36.55
623.553	36.65
623.744	36.55
623.935	36.6
624.126	36.01
624.317	35.81
624.508	36.09
624.698	36.49
624.889	36.6
625.08	36.62
625.271	36.4
625.462	36.31
625.653	36.43
625.844	36.54
626.034	36.53
626.225	36.65
626.416	36.68
626.607	36.39
626.798	36.15
626.988	35.91
627.179	36.04
627.37	36
627.56	36.07
627.751	35.76
627.942	35.65
628.132	35.69
628.323	35.73
628.514	35.94
628.704	36.05
628.895	36.24
629.085	36.66
629.276	36.49
629.466	36.64
629.657	36.59
629.847	36.94
630.038	36.84
630.228	37
630.419	37.23
630.609	37.18
630.8	36.93
630.99	36.68
631.181	36.08
631.371	35.81
631.561	35.9
631.752	36.19
631.942	36.23
632.132	36.48
632.323	35.78
632.513	35.87
632.703	35.83
632.893	36
633.084	35.77
633.274	36.1
633.464	36.31
633.654	35.97
633.844	35.72
634.034	35.87
634.225	35.66
634.415	36.3
634.605	36.54
634.795	36.82
634.985	36.85
635.175	37.4
635.365	37.43
635.555	37.37
635.745	37.65
635.935	37.81
636.125	37.65
636.315	37.75
636.505	37.67
636.695	37.28
636.885	37.06
637.075	37.11
637.265	37.21
637.455	37.34
637.644	37.65
637.834	37.43
638.024	37.19
638.214	37.33
638.404	37.54
638.593	37.34
638.783	37.24
638.973	37.31
639.163	37.4
639.352	37.33
639.542	37.37
639.732	37.09
639.921	37.36
640.111	37.59
640.301	37.07
640.49	37.14
640.68	37.22
640.87	37.24
641.059	37.15
641.249	36.98
641.438	36.61
641.628	36.41
641.817	36.65
642.007	36.53
642.196	37.02
642.386	37.22
642.575	37.28
642.764	37.12
642.954	37.84
643.143	37.73
643.333	37.97
643.522	38.23
643.711	38.25
643.901	38.23
644.09	38.23
644.279	37.84
644.469	37.56
644.658	37.14
644.847	37.57
645.036	37.09
645.226	37.19
645.415	37.12
645.604	36.99
645.793	36.79
645.982	36.82
646.171	37.31
646.361	36.98
646.55	37.48
646.739	37.58
646.928	37.51
647.117	37.14
647.306	36.97
647.495	37.17
647.684	37.16
647.873	37.41
648.062	37.26
648.251	36.7
648.44	37.12
648.629	37.17
648.818	36.9
649.007	36.62
649.196	36.84
649.384	36.98
649.573	36.78
649.762	36.94
649.951	37.02
650.14	37.42
650.328	37.64
650.517	37.69
650.706	37.39
650.895	37.75
651.083	37.54
651.272	37.62
651.461	37.82
651.65	37.84
651.838	38.15
652.027	38.36
652.216	38.02
652.404	38.21
652.593	37.96
652.781	38.33
652.97	38.42
653.158	38.71
653.347	38.77
653.535	38.75
653.724	38.44
653.912	38.15
654.101	37.78
654.289	37.9
654.478	37.39
654.666	37.07
654.855	36.82
655.043	36.82
655.231	36.69
655.42	36.69
655.608	36.78
655.796	36.95
655.985	37.05
656.173	37.27
656.361	36.9
656.55	37.32
656.738	38.04
656.926	38.08
657.114	37.72
657.302	37.53
657.491	37.22
657.679	37.24
657.867	37.4
658.055	37.6
658.243	37.71
658.431	37.72
658.619	37.83
658.807	37.7
658.996	37.54
659.184	37.42
659.372	37.57
659.56	38.1
659.748	37.79
659.936	37.75
660.124	37.5
660.311	37.13
660.499	36.81
660.687	36.68
660.875	36.81
661.063	36.81
661.251	37.43
661.439	37.68
661.627	37.2
661.814	37.74
662.002	37.97
662.19	38.13
662.378	38.46
662.565	38.99
662.753	38.82
662.941	38.21
663.129	38.54
663.316	38.31
663.504	37.95
663.692	38.1
663.879	37.46
664.067	37.04
664.254	37.15
664.442	37.49
664.63	37.49
664.817	37.82
665.005	38.24
665.192	38.35
665.38	38.4
665.567	39.03
665.755	39.25
665.942	39.75
666.13	39.84
666.317	39.01
666.504	38.7
666.692	39.13
666.879	38.86
667.067	38.55
667.254	38.66
667.441	38.54
667.629	38.4
667.816	38.35
668.003	38.63
668.19	38.43
668.378	39.23
668.565	39.42
668.752	39.05
668.939	39.08
669.127	39.28
669.314	39.1
669.501	39.27
669.688	39
669.875	39
670.062	39.03
670.249	39.34
670.436	39.06
670.623	38.34
670.81	38.61
670.997	38.84
671.184	38.52
671.371	38.36
671.558	38.15
671.745	38.08
671.932	37.68
672.119	37.12
672.306	36.58
672.493	36.54
672.68	36.28
672.867	35.91
673.054	35.49
673.24	35.62
673.427	36.08
673.614	36.24
673.801	36.98
673.988	37.9
674.174	37.46
674.361	38.12
674.548	38.41
674.734	39.14
674.921	39.58
675.108	39.44
675.294	39.7
675.481	39.25
675.668	38.97
675.854	38.36
676.041	37.6
676.227	37.78
676.414	37.33
676.601	37.07
676.787	36.83
676.974	36.42
677.16	36.49
677.347	36.53
677.533	36.93
677.719	36.94
677.906	37.22
678.092	37.59
678.279	38.16
678.465	38.66
678.651	38.95
678.838	39.03
679.024	38.69
679.21	38.92
679.397	38.98
679.583	38.47
679.769	38.72
679.955	38.65
680.142	38.33
680.328	38.1
680.514	37.81
680.7	37.72
680.886	37.4
681.073	37.81
681.259	37.94
681.445	37.8
681.631	37.61
681.817	37.61
682.003	37.29
682.189	37.47
682.375	37.51
682.561	37.26
682.747	37.16
682.933	37.38
683.119	37.23
683.305	36.97
683.491	36.79
683.677	37.29
683.863	37.32
684.049	37.55
684.235	37.52
684.42	37.78
684.606	38.22
684.792	38.14
684.978	38.63
685.164	38.73
685.349	38.71
685.535	38.79
685.721	39.02
685.907	38.97
686.092	39.07
686.278	38.74
686.464	38.53
686.649	37.94
686.835	37.89
687.021	37.43
687.206	37.59
687.392	37.53
687.577	37.25
687.763	36.85
687.948	36.88
688.134	36.75
688.319	36.88
688.505	36.87
688.69	37.85
688.876	37.6
689.061	37.62
689.247	37.56
689.432	38.01
689.618	38.75
689.803	39.11
689.988	38.89
690.174	38.6
690.359	38.4
690.544	37.9
690.73	37.55
690.915	37.91
691.1	37.88
691.285	38.23
691.471	38.22
691.656	38.25
691.841	38.04
692.026	37.62
692.211	37.89
692.396	37.91
692.582	38.23
692.767	38.47
692.952	38.41
693.137	38.41
693.322	37.72
693.507	37.37
693.692	36.14
693.877	36.03
694.062	36.36
694.247	36.56
694.432	36.74
694.617	36.68
694.802	36.08
694.987	35.93
695.172	36.36
695.357	37.2
695.541	37.47
695.726	38.31
695.911	38.67
696.096	39.33
696.281	38.83
696.466	39.23
696.65	39.35
696.835	39.53
697.02	39.99
697.204	39.92
697.389	39.48
697.574	39.53
697.759	39.15
697.943	38.88
698.128	38.62
698.312	38.99
698.497	38.81
698.682	38.61
698.866	38.17
699.051	38.16
699.235	38.33
699.42	37.98
699.604	37.9
699.789	37.98
699.973	37.97
700.158	37.66
700.342	37.66
700.527	37.66
700.711	37.59
700.895	38.24
701.08	38.01
701.264	37.77
701.448	38.12
701.633	37.74
701.817	38.16
702.001	38.3
702.186	38.96
702.37	38.91
702.554	38.37
702.738	38.53
702.923	38.13
703.107	38.64
703.291	38.38
703.475	38.22
703.659	38.42
703.843	38.56
704.027	38.38
704.212	37.91
704.396	37.68
704.58	37.89
704.764	38.08
704.948	38.4
705.132	38.05
705.316	37.93
705.5	37.68
705.684	37.5
705.868	36.93
706.052	37.04
706.235	36.95
706.419	37.46
706.603	36.58
706.787	36.32
706.971	36.63
707.155	36.22
707.339	36.84
707.522	37.28
707.706	37.72
707.89	38.41
708.074	38.47
708.257	38.79
708.441	37.95
708.625	38.61
708.808	38.98
708.992	38.81
709.176	39.48
709.359	38.83
709.543	39.33
709.727	38.61
709.91	38.79
710.094	39.31
710.277	39.54
710.461	40.1
710.644	40.25
710.828	40.83
711.011	41.33
711.195	40.52
711.378	41.22
711.562	41.14
711.745	41.45
711.928	40.34
712.112	39.21
712.295	38.58
712.478	38.44
712.662	38.87
712.845	38.07
713.028	37.14
713.212	36.96
713.395	35.98
713.578	35.88
713.761	35.92
713.945	36.63
714.128	37.48
714.311	37.29
714.494	36.92
714.677	36.91
714.86	37.47
715.043	37.51
715.227	38.51
715.41	38.63
715.593	37.97
715.776	37.7
715.959	37.19
716.142	36.76
716.325	37.07
716.508	37.69
716.691	37.84
716.874	37.14
717.057	37.74
717.239	37.6
717.422	37.46
717.605	37.52
717.788	37.37
717.971	37.02
718.154	37.98
718.337	38.33
718.519	38.1
718.702	37.88
718.885	38.9
719.068	38.69
719.25	38.81
719.433	40.27
719.616	41.26
719.798	41.98
719.981	42.91
720.164	41.99
720.346	41.99
720.529	42.83
720.712	42.9
720.894	42.11
721.077	40.93
721.259	40.4
721.442	39.17
721.624	38.34
721.807	38.2
721.989	37.55
722.172	37.29
722.354	37.3
722.537	36.77
722.719	36.85
722.901	36.73
723.084	37.86
723.266	38
723.448	38.81
723.631	38.91
723.813	39.04
723.995	40.04
724.178	40.04
724.36	39.35
724.542	39.25
724.724	38.77
724.907	39.13
725.089	38.63
725.271	38.55
725.453	37.27
725.635	38.62
725.817	38.69
725.999	38.29
726.181	37.9
726.364	38.17
726.546	37.94
726.728	38.34
726.91	37.67
727.092	37.47
727.274	36.97
727.456	37.57
727.638	36.45
727.819	36.68
728.001	36
728.183	36.67
728.365	37.26
728.547	37.39
728.729	37.72
728.911	37.7
729.093	37.84
729.274	39.02
729.456	39.44
729.638	39.79
729.82	39.46
730.001	40.53
730.183	40.6
730.365	40.91
730.546	40.74
730.728	40.77
730.91	41.68
731.091	42.7
731.273	42.08
731.455	41.74
731.636	41.41
731.818	41.78
731.999	41.57
732.181	40.95
732.362	40.03
732.544	39.14
732.725	38.7
732.907	38.39
733.088	37.87
733.27	37.81
733.451	37.82
733.633	37.87
733.814	37.7
733.995	37.39
734.177	37.75
734.358	37.47
734.539	38.83
734.721	38.5
734.902	38.14
735.083	37.43
735.264	37.65
735.446	38.55
735.627	38.42
735.808	37.93
735.989	37.73
736.17	37.55
736.351	38.33
736.533	37.98
736.714	38.31
736.895	38.83
737.076	39.79
737.257	40.55
737.438	39.65
737.619	39.95
737.8	40.57
737.981	40.4
738.162	40.38
738.343	40.24
738.524	39.37
738.705	38.66
738.886	38.22
739.067	38.68
739.247	37.94
739.428	37.36
739.609	36.89
739.79	37
739.971	37.49
740.151	38.83
740.332	38.97
740.513	40.9
740.694	41.12
740.874	40.67
741.055	38.33
741.236	38.21
741.417	38.87
741.597	39.22
741.778	38.67
741.958	38.28
742.139	36.52
742.32	36.39
742.5	35.03
742.681	35.05
742.861	35.51
743.042	37.52
743.222	37.53
743.403	37.75
743.583	38.01
743.764	37.51
743.944	37.67
744.124	38.42
744.305	37.49
744.485	37.09
744.666	37.3
744.846	37.17
745.026	37.06
745.207	37.61
745.387	36.14
745.567	36.35
745.747	36.8
745.928	37.11
746.108	37.11
746.288	36.11
746.468	36.01
746.648	36.46
746.829	36.75
747.009	37.08
747.189	36.16
747.369	36.56
747.549	35.59
747.729	35.28
747.909	33.91
748.089	34.38
748.269	36.1
748.449	36.47
748.629	37.19
748.809	36.34
748.989	34.93
749.169	35.47
749.349	35.75
749.529	36.43
749.709	36.71
749.889	37.97
750.068	37.69
750.248	38.21
750.428	38.47
750.608	38.51
750.788	39.5
750.967	40.3
751.147	39.84
751.327	40.63
751.507	40.8
751.686	41
751.866	40.98
752.046	39.92
752.225	39.78
752.405	38.74
752.585	38.57
752.764	38.55
752.944	38.56
753.123	38.84
753.303	38.75
753.482	37.53
753.662	37.7
753.841	37.83
754.021	38.38
754.2	37.33
754.38	38.17
754.559	36.99
754.739	35.39
754.918	35.08
755.097	34.87
755.277	34.06
755.456	35.44
755.635	34.97
755.815	34.64
755.994	34.46
756.173	35.24
756.352	35.61
756.532	36.16
756.711	38.1
756.89	38.04
757.069	37.17
757.248	37.75
757.427	36.75
757.607	38.07
757.786	37.76
757.965	38.89
758.144	40.09
758.323	39.94
758.502	40.39
758.681	40.7
758.86	40.81
759.039	41.96
759.218	41.74
759.397	42.09
759.576	41.51
759.755	42.47
759.934	41.13
760.113	40.76
760.291	40.02
760.47	40.19
760.649	38.56
760.828	38.28
761.007	38.76
761.186	38.74
761.364	38.94
761.543	37.78
761.722	37.63
761.901	38.1
762.079	37.56
762.258	38.52
762.437	37.64
762.615	38.19
762.794	38.97
762.972	38.56
763.151	38.28
763.33	37.92
763.508	38.41
763.687	37.95
763.865	38.28
764.044	38.25
764.222	37.78
764.401	38.39
764.579	38.72
764.758	37.54
764.936	36.72
765.114	37.02
765.293	37.4
765.471	37.12
765.65	36.56
765.828	36.76
766.006	35.75
766.184	35.42
766.363	34.11
766.541	32.83
766.719	34.45
766.898	35.62
767.076	36.06
767.254	35.94
767.432	36.39
767.61	37.05
767.788	36.75
767.967	37.53
768.145	37.78
768.323	38.12
768.501	40.09
768.679	38.5
768.857	38.68
769.035	38.6
769.213	38.18
769.391	38.18
769.569	36.96
769.747	36.09
769.925	35
770.103	33.53
770.281	33.39
770.459	32.81
770.636	34.38
770.814	34.33
770.992	33.9
771.17	33.68
771.348	33.55
771.525	35.68
771.703	35.56
771.881	36.09
772.059	38.65
772.236	39.57
772.414	40.19
772.592	38.11
772.769	38.5
772.947	37.11
773.125	36.51
773.302	35.41
773.48	33.67
773.657	32.64
773.835	33.23
774.013	32.18
774.19	31.96
774.368	29.64
774.545	30.5
774.723	28.76
774.9	29.27
775.077	30.27
775.255	31.19
775.432	31.87
775.61	32.53
775.787	33.93
775.964	33.85
776.142	32.01
776.319	33.85
776.496	32.53
776.674	33.36
776.851	33.43
777.028	32.82
777.205	35.13
777.382	34.6
777.56	35.04
777.737	33.76
777.914	34.55
778.091	36.67
778.268	34.83
778.445	36.28
778.622	34.62
778.8	35.64
778.977	35.52
779.154	32.61
779.331	32.8
779.508	34.45
779.685	33.79
779.862	33.67
780.038	32.83
780.215	34.71
780.392	36.3
780.569	36.2
780.746	36.04
780.923	37.36
781.1	37.89
781.277	37.48
781.453	35.23
781.63	35.68
781.807	36.44
781.984	35.3
782.16	35.17
782.337	33.84
782.514	33.57
782.691	33.23
782.867	33.02
783.044	34.69
783.221	35.83
783.397	36.79
783.574	38.03
783.75	37.32
783.927	40.24
784.103	39.74
784.28	40.22
784.456	40.74
784.633	41.12
784.809	41.57
784.986	40.49
785.162	40.34
785.339	39.35
785.515	35.73
785.692	35.59
785.868	34.07
786.044	34.15
786.221	33.03
786.397	35.32
786.573	34.76
786.749	32.36
786.926	31.23
787.102	34.29
787.278	35.03
787.454	37.7
787.631	37.13
787.807	37.94
787.983	38.73
788.159	40.84
788.335	39.15
788.511	40
788.687	39.92
788.863	40.08
789.039	36.24
789.216	35.52
789.392	35.12
789.568	34.99
789.744	34.85
789.919	32.38
790.095	31.84
790.271	33.45
790.447	33.43
790.623	34.34
790.799	33.64
790.975	35.44
791.151	37.38
791.327	37.38
791.502	38.54
791.678	37.57
791.854	39.69
792.03	38.71
792.205	38.43
792.381	37.32
792.557	38.62
792.733	38.9
792.908	36.35
793.084	35.57
793.259	35.17
793.435	33.29
793.611	33.56
793.786	33.85
793.962	31.65
794.137	30.48
794.313	32.34
794.488	29.89
794.664	31.02
794.839	32.66
795.015	32.02
795.19	32.69
795.366	32.79
795.541	33.9
795.716	32.65
795.892	35.95
796.067	37.99
796.242	34.75
796.418	34.71
796.593	35.37
796.768	37.28
796.944	37.2
797.119	36.17
797.294	37.7
797.469	36.75
797.644	37.85
797.82	38.37
797.995	35.91
798.17	39.87
798.345	41.2
798.52	40.66
798.695	39.58
798.87	37.32
799.045	38.13
799.22	38.15
799.395	37.71
799.57	36.05
799.745	34.63
799.92	35.87
800.095	32.61
800.27	33.3
800.445	33.18
800.62	34.58
800.795	38.2
800.97	38.72
801.145	35.17
801.319	36.45
801.494	35.73
801.669	34.3
801.844	34
802.018	34.1
802.193	34.24
802.368	34.5
802.543	31.72
802.717	32.26
802.892	31.03
803.067	33.52
803.241	35.71
803.416	36.89
803.59	37.64
803.765	36.74
803.94	36.79
804.114	34.11
804.289	34.14
804.463	33.48
804.638	32.23
804.812	31.08
804.986	31.7
805.161	31.02
805.335	32.94
805.51	33.61
805.684	34.8
805.858	34.12
806.033	36.5
806.207	38.56
806.381	40.26
806.556	39.04
806.73	40.14
806.904	40.38
807.078	39.89
807.253	37.16
807.427	36.18
807.601	34.58
807.775	36.1
807.949	34.61
808.123	32.8
808.298	30.63
808.472	31.42
808.646	33.35
808.82	32.47
808.994	31.95
809.168	30.57
809.342	32.36
809.516	31.38
809.69	32.26
809.864	31.57
810.038	32.18
810.212	35.56
810.385	36.24
810.559	35.66
810.733	35.12
810.907	33.68
811.081	34.6
811.255	32.14
811.428	32.28
811.602	29.2
811.776	31.86
811.95	31.2
812.123	27.55
812.297	24.58
812.471	23.86
812.644	24.75
812.818	26.57
812.992	27.74
813.165	30.09
813.339	33.51
813.512	37.36
813.686	34.4
813.86	34.07
814.033	36.22
814.207	39.6
814.38	40.45
814.554	44.39
814.727	41.54
814.9	42.37
815.074	41.31
815.247	38.54
815.421	36.14
815.594	37.38
815.767	35.12
815.941	31.09
816.114	28.3
816.287	25.32
816.46	19.48
816.634	22.98
816.807	21.75
816.98	23.95
817.153	25.76
817.327	23.75
817.5	22.34
817.673	23.01
817.846	28.75
818.019	30.1
818.192	35.21
818.365	32.31
818.538	32.93
818.711	35.46
818.884	32.2
819.057	33.22
819.23	33.35
819.403	37.36
819.576	35.5
819.749	33.01
819.922	34.32
820.095	30.77
820.268	33.94
820.441	34.67
820.614	34.51
820.786	35.49
820.959	35.39
821.132	37.06
821.305	36.32
821.477	38.03
821.65	38.19
821.823	38.25
821.996	38.51
822.168	38.39
822.341	37.22
822.514	37.04
822.686	37.12
822.859	37.43
823.031	37.26
823.204	37.28
823.376	36.86
823.549	36.84
823.722	36.75
823.894	36.46
824.067	36.31
824.239	36.86
824.411	36.38
824.584	36.97
824.756	36.82
824.929	37.52
825.101	36.98
825.273	37.02
825.446	37.26
825.618	37.54
825.79	37.8
825.963	37.89
826.135	37.85
826.307	38.05
826.479	37.1
826.652	36.67
826.824	35.03
826.996	34.96
827.168	35.72
827.34	36.27
827.512	35.56
827.684	35.36
827.856	35.38
828.029	36.18
828.201	36.11
828.373	35.26
828.545	35.17
828.717	36.73
828.889	37.22
829.061	36.18
829.232	35.16
829.404	35.22
829.576	35.15
829.748	35.79
829.92	34.07
830.092	35.51
830.264	36.42
830.436	36.23
830.607	35.8
830.779	35.53
830.951	35.52
831.123	34.77
831.294	36.02
831.466	37.37
831.638	38.55
831.809	40.95
831.981	40
832.153	41.29
832.324	44.19
832.496	43.66
832.667	45.05
832.839	45.94
833.011	48.6
833.182	46.79
833.354	44.69
833.525	42.07
833.697	40.17
833.868	42.09
834.039	42.14
834.211	40.25
834.382	39.46
834.554	40.32
834.725	40.84
834.896	38.78
835.068	37.82
835.239	38.85
835.41	39.16
835.581	38.72
835.753	37.53
835.924	37.68
836.095	38.18
836.266	36.48
836.438	34.36
836.609	32.94
836.78	32.98
836.951	31.97
837.122	31.92
837.293	33.43
837.464	32.45
837.635	30.74
837.806	29.19
837.977	26.97
838.148	29.26
838.319	30.92
838.49	30.06
838.661	29.04
838.832	32.96
839.003	31.14
839.174	31.64
839.345	32.26
839.516	32.18
839.687	32.09
839.857	31.91
840.028	33.27
840.199	32.12
840.37	36.07
840.54	39.44
840.711	35.93
840.882	38.01
841.053	34.96
841.223	40.44
841.394	43.64
841.564	44.55
841.735	44.48
841.906	44.89
842.076	44.69
842.247	45.15
842.417	40.54
842.588	45.79
842.758	44.04
842.929	41.92
843.099	33.99
843.27	32.95
843.44	27.06
843.611	31.7
843.781	29.82
843.951	25.37
844.122	23.15
844.292	27.59
844.462	23.4
844.633	29.45
844.803	27.65
844.973	29.83
845.144	28.01
845.314	28.3
845.484	23.65
845.654	26.95
845.824	32.07
845.995	29.12
846.165	25.58
846.335	20.45
846.505	12.75
846.675	19.78
846.845	29.12
847.015	30.78
847.185	31.66
847.355	38.05
847.525	36.01
847.695	28.9
847.865	30.9
848.035	32.05
848.205	35.07
848.375	50.16
848.545	49.44
848.715	41.55
848.884	31.21
849.054	40.18
849.224	36.56
849.394	35.34
849.564	38.95
849.733	33.31
849.903	33.44
850.073	35.05
850.243	22.25
850.412	18.6
850.582	13.05
850.752	17.62
850.921	13.03
851.091	15.87
851.26	12.68
851.43	9.86
851.599	8.53
851.769	2.28
851.939	6.57
852.108	11.01
852.278	14.47
852.447	16.13
852.616	20.2
852.786	21.14
852.955	22.17
853.125	18.65
853.294	26.41
853.463	30.2
853.633	34.54
853.802	29.96
853.971	32.27
854.141	20.33
854.31	17.63
854.479	16.06
854.648	11.87
854.818	19.01
854.987	28.5
855.156	22.5
855.325	25.78
855.494	30.05
855.663	32.05
855.832	26.22
856.001	34.81
856.171	34.48
856.34	32.73
856.509	33.25
856.678	32.97
856.847	36.17
857.016	39.01
857.185	36.22
857.353	34.12
857.522	37.66
857.691	34.77
857.86	32.53
858.029	43.69
858.198	43.72
858.367	46.18
858.535	33.65
858.704	26.27
858.873	30.88
859.042	41.04
859.21	47.06
859.379	44.64
859.548	47.4
859.717	47.92
859.885	41.6
860.054	46.75
860.222	46.58
860.391	47.56
860.56	44.45
860.728	42.06
860.897	41.56
861.065	40.85
861.234	41.85
861.402	45.49
861.571	49.92
861.739	55.5
861.908	50.82
862.076	47.43
862.244	57.97
862.413	59.1
862.581	62.9
862.749	51.12
862.918	47.26
863.086	43.99
863.254	44.85
863.423	43.45
863.591	39.51
863.759	40.52
863.927	43.02
864.096	36.93
864.264	35.26
864.432	27.33
864.6	30.13
864.768	21.72
864.936	15.17
865.104	13.83
865.272	10.86
865.44	9.22
865.608	12.83
865.776	12.34
865.944	7.73
866.112	11.22
866.28	13.2
866.448	15.92
866.616	23.81
866.784	29.07
866.952	26.16
867.12	16.46
867.288	13
867.455	16.48
867.623	19.59
867.791	22.54
867.959	31.93
868.127	35.63
868.294	33.29
868.462	31.52
868.63	28.75
868.797	28.67
868.965	36
869.133	38.02
869.3	35.33
869.468	33.61
869.636	35.7
869.803	34.3
869.971	37.93
870.138	37.95
870.306	38.23
870.473	37.46
870.641	40.32
870.808	37.89
870.975	35.29
871.143	27.37
871.31	29.41
871.478	30.09
871.645	32.04
871.812	21.66
871.98	34.89
872.147	38.93
872.314	45.95
872.482	41.85
872.649	34.6
872.816	37.58
872.983	47.31
873.15	45.72
873.318	37.44
873.485	38.96
873.652	42.2
873.819	27.7
873.986	27.58
874.153	20.62
874.32	22.14
874.487	30.37
874.654	33.56
874.821	39.75
874.988	44.1
875.155	45.56
875.322	34.16
875.489	40.6
875.656	52.96
875.823	55.61
875.99	69.23
876.157	70.74
876.324	65.47
876.49	60.02
876.657	63.01
876.824	49.96
876.991	49.22
877.157	52.72
877.324	44.22
877.491	37.38
877.658	29.92
877.824	19.5
877.991	25.81
878.157	35.69
878.324	36.84
878.491	21.55
878.657	43.15
878.824	47.58
878.99	49.99
879.157	43.45
879.323	40.13
879.49	41.14
879.656	41.92
879.823	38.27
879.989	30.56
880.156	31.26
880.322	35.31
880.488	23.7
880.655	27.21
880.821	33.09
880.987	36.78
881.154	39.95
881.32	44.7
881.486	48.69
881.652	45.31
881.819	45.22
881.985	41.69
882.151	39.67
882.317	40.23
882.483	34.57
882.649	33.54
882.816	33.82
882.982	33.13
883.148	31.86
883.314	31.11
883.48	30.06
883.646	30.45
883.812	31.68
883.978	30.91
884.144	30.56
884.31	33.27
884.476	32.64
884.642	33.46
884.807	33.84
884.973	33.76
885.139	33.8
885.305	36.21
885.471	37.2
885.637	37.97
885.802	42.1
885.968	45.13
886.134	45.82
886.3	46.02
886.465	44.08
886.631	44.58
886.797	43.88
886.962	44.54
887.128	43.12
887.293	39.26
887.459	41.26
887.625	36.92
887.79	32.57
887.956	28.27
888.121	29.19
888.287	28.99
888.452	27.15
888.618	29.44
888.783	25
