Data from CB_018_Reflection_1.txt Node
Date: Wed Nov 11 19:59:07 EST 2015
User: robert
Spectrometer: USB4E03001
Autoset integration time: false
Trigger mode: 4
Integration Time (sec): 1.000000E-1
Scans to average: 15
Electric dark correction enabled: true
Nonlinearity correction enabled: false
Boxcar width: 5
Stray light correction enabled: false
XAxis mode: Wavelengths
Stop averaging: false
Number of Pixels in Spectrum: 3648
>>>>>Begin Spectral Data<<<<<
177.566	-9.6
177.785	-42.99
178.005	253.12
178.225	-86.81
178.445	-17.48
178.665	269.85
178.885	296.16
179.105	1717.39
179.324	92.1
179.544	73.85
179.764	-118.75
179.984	-104.97
180.204	7460
180.423	169.09
180.643	-625.63
180.863	-268.09
181.083	28.81
181.302	67.89
181.522	107.55
181.742	-976.86
181.961	-285.22
182.181	-2754.11
182.401	2859.68
182.621	-247.7
182.84	-215.67
183.06	-170.48
183.279	-486.4
183.499	-213.29
183.719	-197.08
183.938	-230.3
184.158	-200.23
184.377	-152.74
184.597	-196.96
184.816	-96.9
185.036	-177.16
185.256	-118.54
185.475	-153.35
185.695	-125.04
185.914	-238.02
186.134	-1744
186.353	2809.84
186.572	352.06
186.792	269.94
187.011	727.55
187.231	565.15
187.45	190.84
187.67	295.45
187.889	132
188.108	83.37
188.328	96.2
188.547	335.56
188.766	393.79
188.986	1675
189.205	934.23
189.424	35.85
189.644	184.08
189.863	153.69
190.082	-212.64
190.302	103.34
190.521	218.66
190.74	180.51
190.959	112.23
191.178	117.4
191.398	30.16
191.617	153.6
191.836	317.17
192.055	121.15
192.274	156.64
192.494	226.63
192.713	251.92
192.932	-168.81
193.151	96.01
193.37	63.12
193.589	30.27
193.808	-117.64
194.027	8.56
194.246	81.94
194.465	3.38
194.685	-186
194.904	294.55
195.123	-178.34
195.342	-51.09
195.561	-354.54
195.78	-4613.59
195.999	-69.15
196.218	12.17
196.436	-236.65
196.655	649.06
196.874	438.33
197.093	659.16
197.312	-165.53
197.531	455.72
197.75	198.74
197.969	185.48
198.188	164.84
198.407	122.29
198.625	195.27
198.844	187.62
199.063	-560.61
199.282	-173.11
199.501	22.27
199.719	-73.54
199.938	-19.47
200.157	457.42
200.376	67.3
200.594	-167.48
200.813	-43.76
201.032	128.34
201.251	69.1
201.469	84.44
201.688	13.97
201.907	144.22
202.125	69.6
202.344	537.17
202.563	217.45
202.781	213.07
203	127.58
203.218	56.08
203.437	144.21
203.656	313.17
203.874	302.45
204.093	995.95
204.311	563.3
204.53	193.42
204.748	268.53
204.967	477.82
205.185	8908.57
205.404	-251.49
205.622	-133.95
205.841	-71.77
206.059	-55.62
206.278	-14.71
206.496	-28.03
206.715	-102.63
206.933	-25.25
207.151	-61.26
207.37	-56.74
207.588	-65.06
207.806	19.46
208.025	28.78
208.243	82.39
208.461	93.07
208.68	97.22
208.898	-330.32
209.116	50.91
209.335	-185.65
209.553	40.04
209.771	9.86
209.989	-8.07
210.208	36.46
210.426	59.21
210.644	130.2
210.862	232.54
211.081	31.64
211.299	42.16
211.517	42.64
211.735	202.98
211.953	72.1
212.171	82.8
212.39	-752.94
212.608	-80
212.826	-25.31
213.044	-9.68
213.262	-21.42
213.48	-72.83
213.698	-89.84
213.916	-207.7
214.134	-227.26
214.352	-290.82
214.57	-120.01
214.788	-274.44
215.006	-641.7
215.224	343.18
215.442	817.34
215.66	517.85
215.878	404.35
216.096	225.05
216.314	341.63
216.532	593.57
216.75	796.01
216.968	350.14
217.185	162.37
217.403	108
217.621	195.75
217.839	59.85
218.057	143.85
218.275	301.32
218.492	-497.93
218.71	117.67
218.928	98.19
219.146	167.39
219.363	334.64
219.581	-263.55
219.799	-79.22
220.017	-185.1
220.234	-140.65
220.452	-151.56
220.67	-295.36
220.887	2418.71
221.105	-570.44
221.323	-96.48
221.54	-79.6
221.758	-341.7
221.976	-135.67
222.193	-108.17
222.411	-39.11
222.629	-49.8
222.846	-66.1
223.064	-13.28
223.281	11.9
223.499	23.73
223.716	11.45
223.934	15.56
224.151	24.11
224.369	32.22
224.586	20.58
224.804	14.66
225.021	-7.83
225.239	-22.2
225.456	-24.97
225.674	-17.6
225.891	-17.65
226.108	-16.78
226.326	-25.19
226.543	-10.4
226.76	-3.63
226.978	4.7
227.195	13.4
227.413	24.55
227.63	29.08
227.847	22.74
228.064	19.74
228.282	19.45
228.499	12.38
228.716	13.4
228.934	13.4
229.151	12.11
229.368	10.83
229.585	5.91
229.802	5.42
230.02	1.87
230.237	0.81
230.454	0.65
230.671	-1.95
230.888	4.14
231.105	5.8
231.323	4.94
231.54	6.48
231.757	11.61
231.974	15.62
232.191	10.59
232.408	10.6
232.625	15.71
232.842	13.98
233.059	12.65
233.276	9.4
233.493	2.67
233.71	-4.36
233.927	-2.28
234.144	-15.06
234.361	-14.89
234.578	-16.59
234.795	-23.46
235.012	-17.8
235.229	-17.97
235.446	-16.36
235.663	-20.47
235.879	-14
236.096	-1.57
236.313	-5.33
236.53	2.36
236.747	10.22
236.964	11.05
237.181	8.43
237.397	1.77
237.614	1.45
237.831	0.8
238.048	-5.09
238.264	-5.82
238.481	-11.79
238.698	-12.51
238.915	-4.92
239.131	-10.8
239.348	-2.38
239.565	6.62
239.781	4.22
239.998	5.74
240.215	9.91
240.431	11.69
240.648	10.87
240.865	9.38
241.081	4.72
241.298	1.89
241.514	4
241.731	4.1
241.947	1.59
242.164	4.66
242.38	5.26
242.597	4.22
242.814	4.7
243.03	7.13
243.246	7.73
243.463	9.76
243.679	7.28
243.896	7.18
244.112	7.35
244.329	9.54
244.545	6.46
244.762	6.03
244.978	8.56
245.194	11.39
245.411	7.79
245.627	7.82
245.843	9.44
246.06	9.94
246.276	10.12
246.492	9.16
246.709	10.63
246.925	10.78
247.141	10.86
247.357	10.26
247.574	9.22
247.79	10.14
248.006	9.82
248.222	9.35
248.439	10.09
248.655	9.57
248.871	9.15
249.087	7.1
249.303	9.07
249.519	9.95
249.736	9.47
249.952	10.24
250.168	9.94
250.384	10.39
250.6	10.31
250.816	10.98
251.032	11.89
251.248	13.11
251.464	13.75
251.68	11.9
251.896	11.93
252.112	11.6
252.328	13.08
252.544	11.17
252.76	11.8
252.976	11.85
253.192	10.47
253.408	7.75
253.624	6.45
253.84	6.49
254.056	4.98
254.272	1.87
254.487	2.32
254.703	-3.54
254.919	-0.13
255.135	-3.38
255.351	-8.85
255.567	-7.84
255.782	-3.61
255.998	-3.83
256.214	-6.27
256.43	-9.69
256.646	-7.8
256.861	-4.67
257.077	0.02
257.293	-2.67
257.508	1.2
257.724	5.15
257.94	6.64
258.155	7.88
258.371	8.39
258.587	9.71
258.802	10.87
259.018	9.42
259.234	7.54
259.449	6.84
259.665	6.84
259.88	7.08
260.096	6.8
260.312	7.39
260.527	6.15
260.743	5.71
260.958	5.21
261.174	5.14
261.389	4.48
261.605	5.16
261.82	5.18
262.036	5.83
262.251	4.46
262.466	4.47
262.682	4.09
262.897	4.75
263.113	7.27
263.328	8.04
263.543	7.7
263.759	10.11
263.974	9.26
264.189	6.87
264.405	4.27
264.62	4.24
264.835	5.06
265.051	3.2
265.266	6.01
265.481	3.66
265.696	1.63
265.912	1.31
266.127	0.11
266.342	-0.65
266.557	1.88
266.773	3.1
266.988	1.99
267.203	0.62
267.418	1.02
267.633	-0.41
267.848	1.22
268.064	2.32
268.279	2.83
268.494	2.61
268.709	3.2
268.924	3.35
269.139	3.86
269.354	4.52
269.569	3.54
269.784	3.74
269.999	5.47
270.214	3.95
270.429	3.02
270.644	3.13
270.859	4.21
271.074	5.28
271.289	4.39
271.504	4.5
271.719	5.11
271.934	4.89
272.149	5.05
272.363	4.07
272.578	4.31
272.793	4.93
273.008	5.63
273.223	5.33
273.438	3.12
273.653	3.32
273.867	2.61
274.082	1.83
274.297	3.76
274.512	3.33
274.726	3.26
274.941	3.11
275.156	2.37
275.371	1.64
275.585	1.97
275.8	3.1
276.015	3.67
276.229	5.78
276.444	7.24
276.659	7.25
276.873	7.29
277.088	7.91
277.302	8.14
277.517	9.64
277.732	9.32
277.946	10.61
278.161	10.65
278.375	9.53
278.59	8.44
278.804	6.08
279.019	5.42
279.233	4.94
279.448	5.51
279.662	5.54
279.877	4.66
280.091	5.81
280.306	4.63
280.52	5.36
280.735	4.03
280.949	4.76
281.163	5.64
281.378	5.67
281.592	6.5
281.806	4.96
282.021	6.22
282.235	5.4
282.449	4.56
282.664	5.95
282.878	7.03
283.092	8.27
283.307	7.57
283.521	8.24
283.735	9.21
283.949	8.08
284.164	8.17
284.378	6.44
284.592	7.15
284.806	6.24
285.02	4.99
285.234	4.53
285.449	3.56
285.663	3.65
285.877	3.25
286.091	2.06
286.305	2.57
286.519	3.14
286.733	5.58
286.947	5.85
287.161	6.83
287.375	7.25
287.589	6.79
287.803	7.03
288.017	7.79
288.231	7.95
288.445	9.33
288.659	9.32
288.873	9.81
289.087	8.16
289.301	7.88
289.515	8.53
289.729	8.13
289.943	8.23
290.157	10.25
290.371	9.97
290.584	10.17
290.798	10
291.012	9.09
291.226	8.6
291.44	8.12
291.654	8.22
291.867	7.16
292.081	7.93
292.295	8.21
292.509	7.2
292.722	6.04
292.936	5.58
293.15	4.68
293.364	6.26
293.577	7.33
293.791	7.36
294.005	7.89
294.218	8.04
294.432	7.27
294.645	8.15
294.859	9.14
295.073	9.52
295.286	10.39
295.5	10.96
295.713	10.73
295.927	10
296.14	10.36
296.354	10.55
296.568	10.72
296.781	10.99
296.994	9.61
297.208	9.98
297.421	10.24
297.635	10.42
297.848	10.31
298.062	10.99
298.275	11.28
298.489	12.15
298.702	12.62
298.915	12.92
299.129	13.4
299.342	15.44
299.555	14.9
299.769	14.64
299.982	14.26
300.195	13.48
300.409	13.64
300.622	13.98
300.835	12.15
301.048	11.94
301.262	12.05
301.475	11.84
301.688	10.31
301.901	9.55
302.115	10.64
302.328	10.75
302.541	12.76
302.754	12.26
302.967	13.32
303.18	13.86
303.393	13.25
303.607	13.68
303.82	14.4
304.033	13.71
304.246	14.46
304.459	13.97
304.672	13.52
304.885	12.57
305.098	12.44
305.311	10.74
305.524	12.11
305.737	12.7
305.95	12.46
306.163	10.78
306.376	11.61
306.589	11.11
306.802	11.4
307.015	11.72
307.228	12.2
307.44	11.07
307.653	11.37
307.866	9.81
308.079	9.18
308.292	9.64
308.505	9.28
308.718	9.34
308.93	9.4
309.143	8.63
309.356	9.81
309.569	10.13
309.781	10.71
309.994	10.6
310.207	11.54
310.42	11.85
310.632	10.55
310.845	11.16
311.058	11.98
311.27	12.05
311.483	12.39
311.696	12.05
311.908	11.24
312.121	11.32
312.333	11.1
312.546	10.67
312.759	9.94
312.971	11.39
313.184	11.23
313.396	9.55
313.609	10.77
313.821	10.75
314.034	10.19
314.246	10.89
314.459	10.86
314.671	11.27
314.884	10.73
315.096	11.7
315.309	11.24
315.521	11.68
315.733	11.61
315.946	10.57
316.158	11.29
316.371	11.78
316.583	11.2
316.795	12.54
317.008	12.63
317.22	11.75
317.432	11.69
317.644	11.77
317.857	12.63
318.069	14.85
318.281	15.51
318.494	15.07
318.706	15.12
318.918	15.26
319.13	14.11
319.342	14.42
319.555	16.26
319.767	15.07
319.979	14.13
320.191	12.73
320.403	11.35
320.615	10.61
320.827	10.32
321.039	9.7
321.252	11.11
321.464	11.52
321.676	12.43
321.888	12.89
322.1	13.69
322.312	14.36
322.524	13.95
322.736	14.91
322.948	15.07
323.16	14.7
323.372	16.12
323.584	15.54
323.796	15.65
324.007	14.65
324.219	14.88
324.431	15.27
324.643	15.41
324.855	15.84
325.067	16.91
325.279	16.64
325.491	17.65
325.702	17.43
325.914	17.42
326.126	17.4
326.338	16.73
326.55	16.08
326.761	15.41
326.973	15.81
327.185	16.18
327.396	15.21
327.608	15.44
327.82	13.99
328.032	12.92
328.243	11.43
328.455	11.52
328.666	12.29
328.878	12.8
329.09	12.82
329.301	12.28
329.513	12.51
329.725	12.57
329.936	12.43
330.148	13.76
330.359	13.45
330.571	13.88
330.782	13.5
330.994	13.43
331.205	12.16
331.417	12.51
331.628	11.63
331.84	11.34
332.051	10.81
332.262	11.88
332.474	10.88
332.685	11.36
332.897	11.95
333.108	12.93
333.319	12.87
333.531	13.27
333.742	13.88
333.953	14.55
334.165	14.92
334.376	15.06
334.587	12.61
334.799	12.65
335.01	12.73
335.221	12.82
335.432	11.88
335.644	11.53
335.855	11.4
336.066	11.34
336.277	10.88
336.488	9.95
336.7	9.11
336.911	10.52
337.122	9.92
337.333	10.49
337.544	9.69
337.755	9.09
337.966	9.21
338.177	8.87
338.388	8.75
338.599	8.88
338.811	9.23
339.022	9.98
339.233	9.22
339.444	10.12
339.655	9.58
339.866	9.03
340.076	9.66
340.287	9.82
340.498	10.59
340.709	9.46
340.92	10.66
341.131	11.37
341.342	10.97
341.553	11.87
341.764	12.11
341.975	11.16
342.185	12.73
342.396	13.03
342.607	12.91
342.818	13.17
343.029	14.18
343.239	12.97
343.45	13.69
343.661	14.37
343.872	14.92
344.082	14.63
344.293	15.46
344.504	14.95
344.714	14.27
344.925	15.22
345.136	14.13
345.346	13.66
345.557	14.2
345.768	13.01
345.978	13.03
346.189	11.61
346.399	11.62
346.61	12.18
346.821	12.65
347.031	12.86
347.242	11.98
347.452	12.16
347.663	12.44
347.873	13
348.084	12.72
348.294	12.36
348.504	13.23
348.715	13.44
348.925	12.8
349.136	12.87
349.346	12.61
349.557	12.57
349.767	13.08
349.977	13.18
350.188	12.5
350.398	13.06
350.608	13.44
350.819	13.11
351.029	13.27
351.239	12.83
351.449	12.11
351.66	13
351.87	13.19
352.08	12.92
352.29	12.43
352.501	12.33
352.711	12.34
352.921	11.45
353.131	11.72
353.341	10.51
353.552	11.48
353.762	12.17
353.972	11.49
354.182	10.48
354.392	9.74
354.602	10.2
354.812	9.98
355.022	9.69
355.232	9.62
355.442	10.24
355.652	10.56
355.862	10.01
356.072	9.93
356.282	9.84
356.492	10.49
356.702	10.6
356.912	10.43
357.122	10.51
357.332	10.73
357.542	11.06
357.752	10.63
357.962	11.5
358.171	11.12
358.381	10.98
358.591	11.1
358.801	11.23
359.011	11.77
359.221	11.62
359.43	10.95
359.64	10.61
359.85	10.6
360.06	9.87
360.269	9.85
360.479	10.21
360.689	9.77
360.899	9.72
361.108	9.53
361.318	9.77
361.528	10.2
361.737	10.9
361.947	11.06
362.156	11.56
362.366	11.61
362.576	11.49
362.785	11.32
362.995	11.91
363.204	11.95
363.414	12.55
363.623	12.27
363.833	11.62
364.042	10.83
364.252	10.92
364.461	9.96
364.671	10.13
364.88	10.01
365.09	10.05
365.299	10.37
365.509	10.44
365.718	9.83
365.927	9.74
366.137	10.14
366.346	10.81
366.555	9.92
366.765	9.66
366.974	10.4
367.183	9.93
367.393	10.13
367.602	9.39
367.811	8.9
368.021	8.96
368.23	8.89
368.439	8.92
368.648	9.09
368.857	10.11
369.067	10.23
369.276	9.93
369.485	10.52
369.694	10.28
369.903	9.93
370.112	9.79
370.321	9.61
370.531	9.79
370.74	10.16
370.949	10.2
371.158	9.4
371.367	9.76
371.576	9
371.785	8.34
371.994	8.21
372.203	8.44
372.412	9.41
372.621	9.72
372.83	10.05
373.039	9.44
373.248	9.09
373.457	9.31
373.666	9.3
373.874	9.49
374.083	9.56
374.292	9.39
374.501	9.41
374.71	8.85
374.919	8.59
375.128	7.37
375.336	7.43
375.545	7.92
375.754	7.63
375.963	7.62
376.171	7.69
376.38	7.69
376.589	7.38
376.798	7.17
377.006	7.64
377.215	7.6
377.424	7.81
377.632	6.94
377.841	6.37
378.05	6.4
378.258	5.95
378.467	6.2
378.675	5.96
378.884	6.48
379.093	6.63
379.301	5.99
379.51	6.06
379.718	6.11
379.927	6.79
380.135	6.64
380.344	6.69
380.552	6.95
380.761	6.68
380.969	7.23
381.177	7.07
381.386	6.72
381.594	6.73
381.803	6.05
382.011	6.52
382.219	6.61
382.428	6.82
382.636	6.56
382.845	6.43
383.053	6.3
383.261	6.21
383.469	5.93
383.678	6.27
383.886	6.23
384.094	6.45
384.302	6.08
384.511	5.94
384.719	5.86
384.927	5.8
385.135	5.5
385.343	5.35
385.552	4.69
385.76	4.6
385.968	4.38
386.176	4.31
386.384	4.26
386.592	4.03
386.8	4.03
387.008	4
387.216	3.79
387.424	3.94
387.633	3.72
387.841	3.95
388.049	4.21
388.257	4.07
388.465	4.33
388.672	4.33
388.88	4.78
389.088	4.94
389.296	4.82
389.504	5.21
389.712	5.17
389.92	5.1
390.128	5.02
390.336	4.81
390.544	4.71
390.751	4.18
390.959	4.15
391.167	4.17
391.375	3.97
391.583	3.89
391.79	4.13
391.998	4.29
392.206	4.64
392.414	5.16
392.621	5.21
392.829	5.5
393.037	5.71
393.244	5.94
393.452	5.49
393.66	5.64
393.867	5.53
394.075	5.38
394.283	4.73
394.49	4.8
394.698	4.63
394.905	4.65
395.113	4.48
395.32	4.54
395.528	4.08
395.735	3.71
395.943	3.25
396.15	3.43
396.358	2.95
396.565	3.37
396.773	3.13
396.98	2.86
397.188	2.92
397.395	3.04
397.602	2.89
397.81	3.36
398.017	3.51
398.225	3.83
398.432	4
398.639	4.34
398.847	4.08
399.054	4.11
399.261	3.91
399.468	3.69
399.676	3.59
399.883	3.5
400.09	3.13
400.297	3.5
400.505	3.69
400.712	3.65
400.919	4.05
401.126	4.37
401.333	4.34
401.54	4.54
401.748	4.47
401.955	4.12
402.162	4.26
402.369	4.39
402.576	4.2
402.783	3.9
402.99	3.51
403.197	3.26
403.404	3.29
403.611	3.49
403.818	3.24
404.025	3.42
404.232	3.54
404.439	3.47
404.646	3.27
404.853	3.53
405.06	3.45
405.267	3.68
405.474	3.44
405.681	3.26
405.887	2.99
406.094	3.09
406.301	3.27
406.508	3.33
406.715	3.79
406.922	4.25
407.128	3.74
407.335	3.47
407.542	3.08
407.749	3.11
407.955	3.15
408.162	3.1
408.369	3.24
408.575	3.13
408.782	2.93
408.989	2.51
409.195	2.23
409.402	2.34
409.609	2.37
409.815	2.39
410.022	2.43
410.228	2.68
410.435	2.63
410.642	2.53
410.848	2.41
411.055	2.47
411.261	2.45
411.468	2.69
411.674	2.95
411.881	3.04
412.087	3.09
412.294	3.29
412.5	3.15
412.706	3.24
412.913	3.04
413.119	2.91
413.326	3.38
413.532	3.35
413.738	2.99
413.945	2.82
414.151	3.12
414.357	3.21
414.564	2.9
414.77	2.94
414.976	3.11
415.182	3.3
415.389	3.61
415.595	3.28
415.801	3.27
416.007	3.28
416.214	3.54
416.42	3.32
416.626	3.39
416.832	3.39
417.038	3.37
417.244	3.46
417.45	3.62
417.657	3.51
417.863	3.53
418.069	3.44
418.275	3.6
418.481	3.54
418.687	3.46
418.893	3.45
419.099	3.63
419.305	3.71
419.511	3.45
419.717	3.3
419.923	3.2
420.129	3.16
420.335	3.25
420.541	3.15
420.746	3.09
420.952	3.14
421.158	3.08
421.364	3.03
421.57	2.96
421.776	3.01
421.982	2.97
422.187	2.92
422.393	2.81
422.599	2.74
422.805	2.76
423.01	2.67
423.216	2.67
423.422	2.59
423.628	2.48
423.833	2.53
424.039	2.38
424.245	2.38
424.45	2.39
424.656	2.56
424.862	2.41
425.067	2.22
425.273	2.33
425.478	2.28
425.684	2.48
425.889	2.4
426.095	2.28
426.301	2.48
426.506	2.49
426.712	2.35
426.917	2.17
427.123	2.49
427.328	2.71
427.533	2.59
427.739	2.58
427.944	2.24
428.15	2.4
428.355	2.16
428.561	1.89
428.766	1.72
428.971	1.98
429.177	2.06
429.382	1.7
429.587	1.71
429.793	1.72
429.998	1.55
430.203	1.55
430.408	1.34
430.614	1.58
430.819	1.66
431.024	1.69
431.229	1.54
431.434	1.59
431.64	1.67
431.845	1.59
432.05	1.52
432.255	1.83
432.46	2.03
432.665	2.16
432.87	2.29
433.076	2.42
433.281	2.53
433.486	2.6
433.691	2.7
433.896	2.67
434.101	2.69
434.306	2.78
434.511	2.67
434.716	2.68
434.921	2.61
435.126	2.36
435.331	2.18
435.535	1.97
435.74	1.89
435.945	1.77
436.15	1.84
436.355	1.9
436.56	1.85
436.765	1.73
436.97	1.64
437.174	1.64
437.379	1.88
437.584	1.98
437.789	2.32
437.993	2.17
438.198	2.25
438.403	2.28
438.608	2.13
438.812	2.15
439.017	2.39
439.222	2.56
439.426	2.56
439.631	2.59
439.836	2.64
440.04	2.65
440.245	2.9
440.45	2.7
440.654	2.49
440.859	2.61
441.063	2.63
441.268	2.66
441.472	2.57
441.677	2.56
441.881	2.39
442.086	2.53
442.29	2.33
442.495	2.4
442.699	2.49
442.904	2.62
443.108	2.6
443.312	2.56
443.517	2.41
443.721	2.39
443.925	2.4
444.13	2.32
444.334	2.04
444.538	2.08
444.743	1.9
444.947	1.99
445.151	2.03
445.356	1.91
445.56	1.69
445.764	1.77
445.968	1.7
446.173	1.61
446.377	1.78
446.581	1.9
446.785	1.9
446.989	1.87
447.193	1.78
447.398	1.75
447.602	1.85
447.806	1.93
448.01	1.87
448.214	1.93
448.418	1.97
448.622	1.87
448.826	1.91
449.03	1.98
449.234	2
449.438	1.96
449.642	1.98
449.846	1.82
450.05	1.99
450.254	2.13
450.458	2.12
450.662	2.2
450.866	2.29
451.069	2.12
451.273	2.23
451.477	2.05
451.681	2.11
451.885	2.16
452.089	2.28
452.292	2.33
452.496	2.17
452.7	2.23
452.904	2.13
453.107	2.18
453.311	2.19
453.515	2.05
453.719	2.38
453.922	2.4
454.126	2.25
454.33	2.19
454.533	2.06
454.737	1.95
454.94	1.79
455.144	1.78
455.348	1.54
455.551	1.49
455.755	1.54
455.958	1.29
456.162	1.02
456.365	1.37
456.569	1.59
456.772	1.74
456.976	1.8
457.179	1.97
457.383	2.1
457.586	2.21
457.79	2.18
457.993	1.97
458.196	2.11
458.4	2.29
458.603	2.17
458.807	2.15
459.01	2.09
459.213	1.98
459.417	2
459.62	1.94
459.823	1.88
460.026	1.83
460.23	2.02
460.433	1.99
460.636	2.02
460.839	2.07
461.042	1.97
461.246	2.12
461.449	2.17
461.652	2.17
461.855	2.22
462.058	2.32
462.261	2.58
462.464	2.47
462.668	2.34
462.871	2.35
463.074	2.26
463.277	2.33
463.48	2.11
463.683	2.23
463.886	1.95
464.089	1.98
464.292	1.69
464.495	1.62
464.698	1.58
464.901	1.7
465.104	1.76
465.306	1.8
465.509	1.66
465.712	1.82
465.915	1.85
466.118	2.1
466.321	2.07
466.524	2.25
466.726	2.38
466.929	2.55
467.132	2.48
467.335	2.43
467.538	2.35
467.74	2.41
467.943	2.27
468.146	2.12
468.348	2.27
468.551	2.23
468.754	2.29
468.956	2.09
469.159	1.93
469.362	2.12
469.564	2.07
469.767	2.15
469.969	2.13
470.172	2.08
470.375	2.05
470.577	1.69
470.78	1.75
470.982	1.88
471.185	1.92
471.387	2.07
471.59	1.86
471.792	1.83
471.995	1.73
472.197	1.82
472.399	1.9
472.602	2.05
472.804	2.23
473.007	2.4
473.209	2.37
473.411	2.38
473.614	2.28
473.816	2.42
474.018	2.36
474.22	2.33
474.423	2.32
474.625	2.32
474.827	2.34
475.03	2.41
475.232	2.12
475.434	2.04
475.636	1.87
475.838	1.95
476.04	1.84
476.243	1.87
476.445	2.13
476.647	2.15
476.849	2.16
477.051	1.79
477.253	1.76
477.455	1.86
477.657	1.78
477.859	2.02
478.061	1.9
478.263	1.81
478.465	1.78
478.667	1.59
478.869	1.34
479.071	1.08
479.273	1.36
479.475	1.06
479.677	0.96
479.879	0.92
480.081	0.84
480.283	1.01
480.485	1.13
480.686	1.04
480.888	1.02
481.09	1.24
481.292	1.48
481.494	1.4
481.695	1.7
481.897	1.88
482.099	1.93
482.301	1.97
482.502	1.85
482.704	1.95
482.906	2.04
483.107	2.06
483.309	2.05
483.511	2.04
483.712	2.1
483.914	2.08
484.115	2.08
484.317	2.09
484.519	2.12
484.72	2.14
484.922	2.11
485.123	2.06
485.325	2.08
485.526	2.12
485.728	2.07
485.929	2.05
486.131	2.06
486.332	2.09
486.534	2.13
486.735	2.12
486.936	2.15
487.138	2.17
487.339	2.21
487.541	2.12
487.742	2.1
487.943	2.17
488.144	2.15
488.346	2.11
488.547	1.98
488.748	1.93
488.95	1.86
489.151	1.84
489.352	1.84
489.553	1.86
489.755	1.91
489.956	1.82
490.157	1.72
490.358	1.77
490.559	1.83
490.76	1.97
490.961	2.05
491.163	2
491.364	1.99
491.565	1.87
491.766	1.87
491.967	1.92
492.168	2.06
492.369	2.2
492.57	2.1
492.771	2.04
492.972	1.98
493.173	1.93
493.374	2.03
493.575	2.08
493.776	2.13
493.976	2.2
494.177	2.13
494.378	1.92
494.579	1.85
494.78	2
494.981	2.06
495.182	2.12
495.382	2.09
495.583	1.99
495.784	1.87
495.985	2.13
496.185	2.05
496.386	2.03
496.587	2.2
496.788	2.05
496.988	2.01
497.189	2
497.39	2.04
497.59	2.03
497.791	2
497.992	2.05
498.192	1.86
498.393	1.93
498.593	2.02
498.794	2.03
498.994	2.21
499.195	2.35
499.395	2.23
499.596	2.19
499.796	2.32
499.997	2.37
500.197	2.49
500.398	2.6
500.598	2.68
500.799	2.66
500.999	2.55
501.199	2.44
501.4	2.22
501.6	2.36
501.801	2.2
502.001	2.17
502.201	2.34
502.402	2.21
502.602	2.02
502.802	1.94
503.002	2.02
503.203	2.04
503.403	2.13
503.603	2.19
503.803	2.22
504.003	2.36
504.204	2.39
504.404	2.5
504.604	2.53
504.804	2.76
505.004	2.78
505.204	2.7
505.404	2.86
505.604	2.74
505.804	2.65
506.005	2.79
506.205	2.74
506.405	2.82
506.605	2.61
506.805	2.51
507.005	2.5
507.204	2.44
507.404	2.43
507.604	2.49
507.804	2.61
508.004	2.7
508.204	2.73
508.404	2.81
508.604	2.7
508.804	2.84
509.003	3.01
509.203	3.09
509.403	3.23
509.603	3.41
509.803	3.25
510.002	3.24
510.202	3.48
510.402	3.42
510.602	3.61
510.801	3.59
511.001	3.58
511.201	3.6
511.4	3.63
511.6	3.65
511.8	3.72
511.999	3.92
512.199	4.12
512.398	4.17
512.598	4.32
512.797	4.25
512.997	4.41
513.197	4.41
513.396	4.62
513.596	4.66
513.795	4.56
513.994	4.61
514.194	4.57
514.393	4.72
514.593	4.61
514.792	4.54
514.992	4.62
515.191	4.78
515.39	4.87
515.59	4.84
515.789	4.98
515.988	5
516.188	5.14
516.387	5.29
516.586	5.27
516.786	5.44
516.985	5.71
517.184	5.77
517.383	5.76
517.582	5.74
517.782	5.87
517.981	5.89
518.18	6.16
518.379	6.04
518.578	6.03
518.777	6.03
518.976	6.14
519.176	6.1
519.375	6.1
519.574	6.22
519.773	6.41
519.972	6.43
520.171	6.36
520.37	6.32
520.569	6.46
520.768	6.48
520.967	6.56
521.166	6.56
521.365	6.54
521.564	6.69
521.762	6.74
521.961	6.77
522.16	6.92
522.359	7.18
522.558	7.25
522.757	7.27
522.956	7.4
523.154	7.53
523.353	7.44
523.552	7.61
523.751	7.75
523.949	7.74
524.148	7.84
524.347	7.83
524.546	7.86
524.744	8
524.943	8.04
525.142	8.17
525.34	8.26
525.539	8.48
525.737	8.39
525.936	8.4
526.135	8.52
526.333	8.52
526.532	8.64
526.73	8.73
526.929	8.84
527.127	9
527.326	9.06
527.524	9.01
527.723	9.07
527.921	9.25
528.12	9.31
528.318	9.36
528.516	9.47
528.715	9.5
528.913	9.55
529.112	9.59
529.31	9.59
529.508	9.65
529.707	9.7
529.905	9.8
530.103	9.77
530.301	9.84
530.5	9.91
530.698	9.91
530.896	9.94
531.094	9.93
531.293	9.91
531.491	10.04
531.689	10.14
531.887	10.31
532.085	10.28
532.283	10.49
532.481	10.59
532.68	10.64
532.878	10.72
533.076	10.76
533.274	10.88
533.472	10.91
533.67	10.86
533.868	10.84
534.066	10.86
534.264	10.98
534.462	11.04
534.66	11.04
534.858	10.96
535.056	11.03
535.253	11.17
535.451	11.18
535.649	11.3
535.847	11.57
536.045	11.67
536.243	11.73
536.441	11.68
536.638	11.69
536.836	11.79
537.034	12.12
537.232	12.09
537.43	12.04
537.627	12.11
537.825	12.14
538.023	11.92
538.22	12
538.418	12.12
538.616	12.15
538.813	12.15
539.011	12.14
539.209	12.01
539.406	12.25
539.604	12.61
539.801	12.65
539.999	12.82
540.196	13.01
540.394	13.18
540.591	13.26
540.789	13.35
540.986	13.4
541.184	13.38
541.381	13.46
541.579	13.46
541.776	13.32
541.974	13.43
542.171	13.44
542.368	13.45
542.566	13.45
542.763	13.41
542.96	13.37
543.158	13.43
543.355	13.56
543.552	13.67
543.75	13.72
543.947	13.78
544.144	13.89
544.341	13.87
544.539	13.98
544.736	13.97
544.933	14.1
545.13	14.36
545.327	14.33
545.524	14.3
545.722	14.29
545.919	14.34
546.116	14.51
546.313	14.47
546.51	14.67
546.707	14.74
546.904	14.72
547.101	14.66
547.298	14.67
547.495	14.85
547.692	14.89
547.889	14.75
548.086	14.82
548.283	14.82
548.48	14.96
548.677	15
548.874	14.95
549.07	15.12
549.267	15.29
549.464	15.36
549.661	15.33
549.858	15.48
550.055	15.51
550.251	15.55
550.448	15.58
550.645	15.5
550.842	15.43
551.038	15.44
551.235	15.5
551.432	15.24
551.628	15.19
551.825	15.2
552.022	15.21
552.218	15.58
552.415	15.6
552.612	15.68
552.808	15.68
553.005	15.85
553.201	15.94
553.398	15.8
553.594	16.11
553.791	16.37
553.987	16.46
554.184	16.57
554.38	16.41
554.577	16.5
554.773	16.36
554.97	16.41
555.166	16.33
555.362	16.33
555.559	16.95
555.755	16.92
555.952	16.63
556.148	16.67
556.344	16.59
556.541	16.69
556.737	16.87
556.933	17.19
557.129	17.3
557.326	17.33
557.522	17.39
557.718	17.09
557.914	17.21
558.11	17.43
558.307	17.46
558.503	17.72
558.699	17.76
558.895	17.58
559.091	17.32
559.287	17.16
559.483	17.23
559.679	17.4
559.876	17.46
560.072	17.55
560.268	17.47
560.464	17.87
560.66	17.7
560.856	17.84
561.052	17.79
561.247	18.05
561.443	18.39
561.639	18.47
561.835	18.58
562.031	18.58
562.227	18.48
562.423	18.7
562.619	18.68
562.815	18.92
563.01	18.96
563.206	19.28
563.402	19.39
563.598	19.3
563.793	19.5
563.989	19.54
564.185	19.57
564.381	19.84
564.576	19.83
564.772	19.69
564.968	19.72
565.163	19.71
565.359	19.55
565.555	19.46
565.75	19.76
565.946	19.7
566.141	19.61
566.337	19.75
566.532	19.74
566.728	19.76
566.923	19.83
567.119	19.72
567.314	19.74
567.51	20
567.705	20.04
567.901	19.8
568.096	19.83
568.292	19.77
568.487	19.75
568.682	19.64
568.878	19.78
569.073	19.79
569.268	19.8
569.464	19.88
569.659	19.8
569.854	20.09
570.05	20.32
570.245	20.43
570.44	20.65
570.635	20.57
570.831	20.67
571.026	20.6
571.221	20.78
571.416	21.13
571.611	21.23
571.806	21.28
572.002	21.27
572.197	21.27
572.392	21.15
572.587	21.07
572.782	21.26
572.977	21.36
573.172	21.51
573.367	21.48
573.562	21.44
573.757	21.27
573.952	21.13
574.147	21.1
574.342	21.1
574.537	21.23
574.732	21.38
574.927	21.43
575.121	21.41
575.316	21.28
575.511	21.28
575.706	21.22
575.901	21.31
576.096	21.27
576.29	21.27
576.485	21.24
576.68	21.32
576.875	21.29
577.069	21.28
577.264	21.32
577.459	21.39
577.654	21.38
577.848	21.37
578.043	21.6
578.238	22.06
578.432	21.91
578.627	22.03
578.821	21.95
579.016	22.15
579.21	21.92
579.405	22.07
579.6	22.03
579.794	22
579.989	22.12
580.183	22.15
580.378	21.87
580.572	22.19
580.766	22.17
580.961	22.35
581.155	22.22
581.35	22.36
581.544	22.31
581.738	22.51
581.933	22.73
582.127	22.47
582.321	22.44
582.516	22.81
582.71	22.75
582.904	22.66
583.099	22.7
583.293	22.85
583.487	22.94
583.681	23.01
583.875	22.99
584.07	22.97
584.264	23.19
584.458	23.05
584.652	22.86
584.846	22.97
585.04	23.02
585.234	23.15
585.428	23.17
585.623	23.32
585.817	23.45
586.011	23.36
586.205	23.29
586.399	23.3
586.593	23.55
586.787	23.77
586.981	23.48
587.174	23.52
587.368	23.25
587.562	23.08
587.756	22.94
587.95	22.9
588.144	23.08
588.338	22.81
588.532	22.58
588.725	22.52
588.919	22.37
589.113	22.69
589.307	22.77
589.501	22.53
589.694	22.58
589.888	22.77
590.082	22.71
590.275	22.86
590.469	23.23
590.663	23.45
590.856	23.74
591.05	23.79
591.244	23.7
591.437	23.61
591.631	23.83
591.824	24.02
592.018	23.91
592.212	23.91
592.405	23.52
592.599	23.55
592.792	23.62
592.986	23.42
593.179	23.38
593.372	23.46
593.566	23.87
593.759	24.22
593.953	24.25
594.146	24.27
594.339	24.32
594.533	24.46
594.726	24.66
594.92	24.61
595.113	24.76
595.306	24.72
595.499	24.74
595.693	24.5
595.886	24.3
596.079	24.19
596.272	24.25
596.466	24.17
596.659	24.31
596.852	24.04
597.045	24.12
597.238	24.1
597.431	24.23
597.624	24.18
597.818	24.27
598.011	24.23
598.204	24.25
598.397	24.13
598.59	24.36
598.783	24.27
598.976	24.52
599.169	24.69
599.362	24.7
599.555	24.59
599.748	24.56
599.941	24.62
600.134	24.79
600.326	24.76
600.519	24.89
600.712	24.63
600.905	24.57
601.098	24.4
601.291	24.13
601.483	23.64
601.676	23.76
601.869	23.99
602.062	24.03
602.255	23.79
602.447	23.97
602.64	24.14
602.833	24.35
603.025	24.46
603.218	24.49
603.411	24.63
603.603	25.15
603.796	25.21
603.989	25.09
604.181	25.2
604.374	25.49
604.566	25.44
604.759	25.49
604.951	25.34
605.144	25.23
605.336	25.2
605.529	25.27
605.721	25.22
605.914	25.32
606.106	25.41
606.299	25.22
606.491	25.05
606.683	25.07
606.876	25.18
607.068	25.56
607.26	25.75
607.453	25.63
607.645	25.95
607.837	25.69
608.03	25.36
608.222	25.34
608.414	25.36
608.606	25.46
608.799	25.69
608.991	25.67
609.183	25.47
609.375	25.59
609.567	25.78
609.759	25.66
609.952	25.74
610.144	26.14
610.336	26.28
610.528	26.4
610.72	26.7
610.912	26.61
611.104	26.6
611.296	26.54
611.488	26.43
611.68	26.77
611.872	26.79
612.064	27.02
612.256	26.89
612.448	26.83
612.64	26.84
612.832	26.53
613.023	26.5
613.215	26.35
613.407	26.33
613.599	26.35
613.791	25.89
613.983	25.57
614.174	25.53
614.366	25.28
614.558	25.49
614.75	25.48
614.941	25.62
615.133	25.75
615.325	26
615.516	26.39
615.708	26.52
615.9	26.57
616.091	26.47
616.283	26.4
616.475	26.77
616.666	26.6
616.858	26.58
617.049	26.28
617.241	26.24
617.432	25.87
617.624	25.77
617.815	25.6
618.007	25.72
618.198	25.93
618.39	26.02
618.581	25.86
618.773	25.96
618.964	25.72
619.155	26.05
619.347	25.9
619.538	25.91
619.729	26.02
619.921	26.2
620.112	26.22
620.303	26.04
620.494	25.83
620.686	26
620.877	25.77
621.068	26.19
621.259	26.01
621.451	26.19
621.642	26.31
621.833	25.83
622.024	25.81
622.215	26.04
622.406	26.19
622.597	26.24
622.788	26.05
622.98	26.18
623.171	26.11
623.362	26.43
623.553	26.12
623.744	26.14
623.935	26.55
624.126	26.43
624.317	26.07
624.508	26.12
624.698	26.23
624.889	26.21
625.08	25.97
625.271	26.07
625.462	25.83
625.653	26
625.844	25.86
626.034	25.6
626.225	26.06
626.416	26.05
626.607	26.31
626.798	26.1
626.988	26.22
627.179	26.51
627.37	26.4
627.56	26.52
627.751	26.36
627.942	26.58
628.132	26.62
628.323	26.48
628.514	26.64
628.704	26.56
628.895	26.63
629.085	26.48
629.276	26.21
629.466	26.3
629.657	26.2
629.847	26.51
630.038	26.55
630.228	26.78
630.419	26.7
630.609	26.57
630.8	26.55
630.99	26.49
631.181	26.55
631.371	26.95
631.561	26.51
631.752	26.98
631.942	26.67
632.132	26.73
632.323	26.58
632.513	26.59
632.703	26.84
632.893	26.71
633.084	26.93
633.274	26.56
633.464	26.32
633.654	26.58
633.844	26.32
634.034	26.6
634.225	26.64
634.415	26.74
634.605	26.77
634.795	26.44
634.985	26.68
635.175	26.65
635.365	27.04
635.555	27.23
635.745	27.09
635.935	26.85
636.125	26.79
636.315	26.62
636.505	26.54
636.695	26.12
636.885	26.31
637.075	25.87
637.265	25.78
637.455	25.5
637.644	25.27
637.834	25.63
638.024	25.82
638.214	25.95
638.404	26.19
638.593	26.46
638.783	26.77
638.973	26.81
639.163	27.26
639.352	27.51
639.542	28.01
639.732	28.18
639.921	27.95
640.111	27.98
640.301	28.02
640.49	27.73
640.68	27.56
640.87	27.81
641.059	27.54
641.249	27.48
641.438	27.5
641.628	27.54
641.817	27.87
642.007	27.9
642.196	28.03
642.386	28
642.575	28.4
642.764	28.49
642.954	27.8
643.143	27.95
643.333	27.79
643.522	27.7
643.711	27.31
643.901	26.99
644.09	27.13
644.279	26.78
644.469	26.62
644.658	26.32
644.847	26.16
645.036	26.56
645.226	26.92
645.415	27.17
645.604	27.29
645.793	27.34
645.982	27.2
646.171	27.16
646.361	27.72
646.55	27.87
646.739	27.84
646.928	28.16
647.117	28.48
647.306	28.37
647.495	28
647.684	27.65
647.873	27.85
648.062	27.92
648.251	27.82
648.44	27.25
648.629	27.05
648.818	26.91
649.007	26.78
649.196	26.5
649.384	26.78
649.573	26.75
649.762	27
649.951	26.48
650.14	26.23
650.328	26.32
650.517	26.62
650.706	26.13
650.895	26.47
651.083	26.41
651.272	26.37
651.461	26.25
651.65	26.38
651.838	26.51
652.027	27.39
652.216	27.69
652.404	27.88
652.593	28.44
652.781	28.95
652.97	29.11
653.158	28.55
653.347	28.51
653.535	27.97
653.724	28.15
653.912	27.99
654.101	27.91
654.289	28.06
654.478	27.8
654.666	26.94
654.855	27.63
655.043	27.23
655.231	27.56
655.42	27.28
655.608	27.8
655.796	27.68
655.985	27.93
656.173	27.63
656.361	27.47
656.55	27.36
656.738	26.99
656.926	26.69
657.114	26.77
657.302	26.82
657.491	27.47
657.679	27.35
657.867	27.46
658.055	27.24
658.243	27.08
658.431	27.11
658.619	27.28
658.807	27.74
658.996	27.67
659.184	27.65
659.372	27.77
659.56	27.72
659.748	27.76
659.936	27.83
660.124	28.03
660.311	28.35
660.499	28.48
660.687	28.62
660.875	28.62
661.063	28.78
661.251	29.03
661.439	29.23
661.627	29.03
661.814	28.94
662.002	29.09
662.19	28.76
662.378	28.19
662.565	27.73
662.753	27.57
662.941	27.72
663.129	27.19
663.316	27.16
663.504	27.34
663.692	27.46
663.879	27.82
664.067	27.66
664.254	27.77
664.442	28.16
664.63	28.51
664.817	28.46
665.005	28.21
665.192	28.4
665.38	28.18
665.567	27.88
665.755	27.57
665.942	26.79
666.13	26.37
666.317	26.38
666.504	26.12
666.692	26.33
666.879	26.29
667.067	26.4
667.254	26.67
667.441	26.94
667.629	26.74
667.816	27.08
668.003	27.36
668.19	27.67
668.378	27.87
668.565	28.19
668.752	27.95
668.939	27.94
669.127	28.08
669.314	27.8
669.501	27.51
669.688	28.07
669.875	27.91
670.062	28.59
670.249	28.89
670.436	28.78
670.623	28.66
670.81	28.53
670.997	28.76
671.184	28.59
671.371	28.41
671.558	28.43
671.745	28.28
671.932	28.82
672.119	28.25
672.306	27.9
672.493	27.68
672.68	27.33
672.867	27.86
673.054	27.65
673.24	27.91
673.427	28.26
673.614	28.68
673.801	29
673.988	28.81
674.174	28.88
674.361	29.1
674.548	29.58
674.734	30.45
674.921	30.55
675.108	30.57
675.294	30.11
675.481	29.91
675.668	29.79
675.854	29.09
676.041	28.38
676.227	28.54
676.414	28.43
676.601	28.37
676.787	27.72
676.974	27.36
677.16	27.4
677.347	27.62
677.533	27.81
677.719	27.26
677.906	27.65
678.092	28.26
678.279	27.66
678.465	27.16
678.651	27.05
678.838	27.3
679.024	26.89
679.21	26.95
679.397	27.47
679.583	27.69
679.769	27.98
679.955	27.55
680.142	27.93
680.328	28.54
680.514	29.37
680.7	29.59
680.886	29.27
681.073	29.68
681.259	29.84
681.445	29.35
681.631	29.16
681.817	29.3
682.003	29.22
682.189	28.28
682.375	27.93
682.561	27.39
682.747	27.06
682.933	27.35
683.119	27.61
683.305	27.63
683.491	28.05
683.677	27.87
683.863	27.75
684.049	28.21
684.235	28.84
684.42	29.51
684.606	29.39
684.792	29.93
684.978	29.86
685.164	29.63
685.349	29.17
685.535	28.8
685.721	28.7
685.907	28.49
686.092	28.81
686.278	29
686.464	28.63
686.649	29.03
686.835	29.34
687.021	29.36
687.206	29.39
687.392	29.99
687.577	29.82
687.763	30.16
687.948	30.51
688.134	30.23
688.319	30.36
688.505	30.33
688.69	30.13
688.876	28.88
689.061	28.77
689.247	29.03
689.432	28.95
689.618	29.26
689.803	29
689.988	28.6
690.174	28.4
690.359	27.99
690.544	27.8
690.73	28
690.915	28.7
691.1	29.07
691.285	28.93
691.471	28.82
691.656	28.6
691.841	29.31
692.026	29.14
692.211	29.26
692.396	29.03
692.582	28.96
692.767	28.4
692.952	28
693.137	27.09
693.322	27
693.507	26.81
693.692	26.88
693.877	26.41
694.062	26.92
694.247	26.96
694.432	27.39
694.617	27.31
694.802	28.47
694.987	28.62
695.172	29.2
695.357	28.45
695.541	28.64
695.726	28.44
695.911	28.19
696.096	28.45
696.281	28.16
696.466	28.42
696.65	29.05
696.835	28.59
697.02	28.66
697.204	28.57
697.389	29.24
697.574	28.85
697.759	29.2
697.943	29.11
698.128	28.6
698.312	28.78
698.497	28.57
698.682	28.25
698.866	27.94
699.051	28.21
699.235	28.17
699.42	27.89
699.604	27.96
699.789	27.56
699.973	27.64
700.158	27.78
700.342	27.8
700.527	27.66
700.711	27.94
700.895	28
701.08	28.09
701.264	28.59
701.448	28.51
701.633	28.77
701.817	29.2
702.001	29.13
702.186	29.56
702.37	29.65
702.554	29.55
702.738	29.45
702.923	30.39
703.107	30.17
703.291	30.53
703.475	31.07
703.659	31.71
703.843	31.86
704.027	32.32
704.212	31.3
704.396	31.28
704.58	31.57
704.764	31.65
704.948	31
705.132	31.17
705.316	31.19
705.5	30.99
705.684	30.34
705.868	29.81
706.052	30.36
706.235	31.93
706.419	31.68
706.603	31.57
706.787	31.36
706.971	31.09
707.155	30.27
707.339	29.93
707.522	30.04
707.706	30.07
707.89	30.37
708.074	30.21
708.257	28.94
708.441	29.4
708.625	28.8
708.808	28.92
708.992	28.65
709.176	29.36
709.359	28.93
709.543	28.67
709.727	28.39
709.91	28.69
710.094	28.73
710.277	29.14
710.461	29.6
710.644	29.93
710.828	29.67
711.011	29.83
711.195	29.98
711.378	30.27
711.562	30.29
711.745	30.9
711.928	30.66
712.112	30.03
712.295	29.71
712.478	29.49
712.662	29.59
712.845	29.25
713.028	29.2
713.212	28.57
713.395	28.13
713.578	27.84
713.761	27.59
713.945	27.56
714.128	27.88
714.311	27.71
714.494	27.08
714.677	26.89
714.86	27.14
715.043	27.6
715.227	27.68
715.41	28.23
715.593	29.13
715.776	29.14
715.959	28.47
716.142	28.31
716.325	28.64
716.508	28.34
716.691	28.37
716.874	28.76
717.057	28.57
717.239	28.87
717.422	28.74
717.605	27.93
717.788	27.59
717.971	28.85
718.154	29.04
718.337	29.5
718.519	30.01
718.702	30.16
718.885	29.79
719.068	29.99
719.25	29.85
719.433	29.39
719.616	30.14
719.798	30.29
719.981	30.7
720.164	29.9
720.346	29.08
720.529	28.92
720.712	28.13
720.894	28.49
721.077	29.14
721.259	28.67
721.442	28.16
721.624	27.27
721.807	26.93
721.989	26.46
722.172	27.37
722.354	27.14
722.537	27.74
722.719	28.63
722.901	28.31
723.084	27.72
723.266	27.32
723.448	28.09
723.631	28.18
723.813	29.09
723.995	28.39
724.178	27.66
724.36	28.63
724.542	27.16
724.724	27.16
724.907	27.54
725.089	26.8
725.271	27.9
725.453	27.95
725.635	28
725.817	27.19
725.999	27.79
726.181	27.92
726.364	27.72
726.546	28.84
726.728	29.97
726.91	29.96
727.092	30.58
727.274	29.94
727.456	30.09
727.638	29.96
727.819	29.89
728.001	30.68
728.183	31.45
728.365	31.38
728.547	31.19
728.729	30.71
728.911	31.32
729.093	31.52
729.274	31.41
729.456	31.24
729.638	30.77
729.82	30.65
730.001	29.69
730.183	29.67
730.365	29.79
730.546	29.94
730.728	29.55
730.91	28.85
731.091	28.5
731.273	29.22
731.455	29.26
731.636	29.98
731.818	30.57
731.999	30.55
732.181	28.86
732.362	28.67
732.544	27.75
732.725	27.56
732.907	27.57
733.088	27.19
733.27	26.44
733.451	26.5
733.633	26.74
733.814	26.84
733.995	27.1
734.177	27.92
734.358	27.66
734.539	28.48
734.721	28.45
734.902	29.46
735.083	30.06
735.264	30.36
735.446	30.55
735.627	30.3
735.808	31.17
735.989	30.32
736.17	30.69
736.351	31.08
736.533	31.31
736.714	31.6
736.895	31.13
737.076	30.52
737.257	31.41
737.438	31.09
737.619	31.63
737.8	30.43
737.981	31.11
738.162	30.69
738.343	30.4
738.524	29.19
738.705	29.94
738.886	29.02
739.067	29.47
739.247	28.91
739.428	28.99
739.609	29.17
739.79	28.75
739.971	29.59
740.151	29.79
740.332	30.39
740.513	31.94
740.694	30.9
740.874	31.34
741.055	30.85
741.236	29.77
741.417	29.88
741.597	29.38
741.778	30.09
741.958	29.05
742.139	29.67
742.32	28.37
742.5	28.3
742.681	28.54
742.861	28.66
743.042	28.84
743.222	29.63
743.403	29.79
743.583	30.51
743.764	30.28
743.944	30.35
744.124	29.95
744.305	31.21
744.485	30.73
744.666	30.83
744.846	30.57
745.026	31.01
745.207	30.28
745.387	31.22
745.567	30.21
745.747	31.28
745.928	31.21
746.108	31.28
746.288	31.42
746.468	31.36
746.648	31.45
746.829	32.96
747.009	32.96
747.189	33.56
747.369	32.83
747.549	31.89
747.729	31.07
747.909	30.38
748.089	30.75
748.269	31.17
748.449	31.08
748.629	30.59
748.809	28.91
748.989	27.68
749.169	27.61
749.349	27.15
749.529	28.23
749.709	27.58
749.889	28.72
750.068	27.76
750.248	27
750.428	27.07
750.608	26.69
750.788	26.2
750.967	26.53
751.147	26.8
751.327	25.56
751.507	25.2
751.686	25.65
751.866	25.36
752.046	26.08
752.225	26.88
752.405	27.67
752.585	27.76
752.764	27.94
752.944	29.1
753.123	28.74
753.303	29.23
753.482	29.63
753.662	28.46
753.841	28.57
754.021	27.46
754.2	26.31
754.38	24.68
754.559	25.16
754.739	24.74
754.918	23.05
755.097	23.02
755.277	23.03
755.456	22.78
755.635	23.81
755.815	24.19
755.994	24.1
756.173	24.24
756.352	24.83
756.532	24.63
756.711	25.76
756.89	27.94
757.069	29.07
757.248	29.43
757.427	28.99
757.607	29.02
757.786	29.48
757.965	31
758.144	31.35
758.323	31.89
758.502	31.99
758.681	32.32
758.86	31.57
759.039	30.84
759.218	31.59
759.397	32.37
759.576	31.67
759.755	30.36
759.934	30.06
760.113	29.62
760.291	29.79
760.47	30.39
760.649	29.73
760.828	29.11
761.007	29.57
761.186	29.36
761.364	28.67
761.543	29.72
761.722	28.85
761.901	28.35
762.079	29.38
762.258	29.57
762.437	29.01
762.615	29.17
762.794	29.04
762.972	28.98
763.151	28.68
763.33	28.95
763.508	28.67
763.687	29.25
763.865	29.41
764.044	28.58
764.222	27.56
764.401	27.7
764.579	28.27
764.758	28.84
764.936	28.41
765.114	28.84
765.293	29.21
765.471	28.59
765.65	28.26
765.828	28.03
766.006	28.35
766.184	27.85
766.363	27.8
766.541	26.57
766.719	26.97
766.898	27.03
767.076	26.15
767.254	25.88
767.432	26.74
767.61	27.64
767.788	27.99
767.967	27.48
768.145	29.94
768.323	28.95
768.501	29.78
768.679	29.67
768.857	29.45
769.035	30.49
769.213	30.13
769.391	31.26
769.569	30.82
769.747	30.73
769.925	31.26
770.103	29.35
770.281	30.78
770.459	30.49
770.636	29.52
770.814	30.32
770.992	30.89
771.17	32.05
771.348	30.67
771.525	30.07
771.703	29.2
771.881	31.13
772.059	32.93
772.236	32.24
772.414	33.48
772.592	35.06
772.769	34.05
772.947	32.1
773.125	30.37
773.302	30.13
773.48	31.96
773.657	32.56
773.835	30.07
774.013	28.2
774.19	29.28
774.368	27.8
774.545	26.28
774.723	26.38
774.9	27.01
775.077	28.69
775.255	29.35
775.432	27.37
775.61	27.25
775.787	29.3
775.964	31.11
776.142	32.18
776.319	33.95
776.496	33.73
776.674	32.03
776.851	31.5
777.028	29.64
777.205	29.2
777.382	29.36
777.56	29.35
777.737	27.8
777.914	27.45
778.091	24.02
778.268	23.81
778.445	25.69
778.622	27.83
778.8	28.42
778.977	30.3
779.154	36.66
779.331	37.07
779.508	36.19
779.685	35.44
779.862	34.89
780.038	37.36
780.215	36.41
780.392	35.06
780.569	36.01
780.746	34.67
780.923	31.94
781.1	24.05
781.277	23.42
781.453	24.18
781.63	24.74
781.807	25.3
781.984	23.37
782.16	23.1
782.337	24
782.514	22.98
782.691	25.51
782.867	25.69
783.044	25.08
783.221	26.29
783.397	27.05
783.574	26.77
783.75	27.03
783.927	27.22
784.103	25.88
784.28	23.15
784.456	23.51
784.633	20.33
784.809	21.98
784.986	24.8
785.162	25.9
785.339	28.24
785.515	29.82
785.692	29.06
785.868	29.79
786.044	32.5
786.221	32.68
786.397	33.38
786.573	32.6
786.749	33.12
786.926	32.94
787.102	31.87
787.278	30.71
787.454	31.35
787.631	31.66
787.807	33.64
787.983	33.45
788.159	33.72
788.335	33.57
788.511	38.06
788.687	34.76
788.863	35.27
789.039	35.65
789.216	33.78
789.392	31.5
789.568	32.67
789.744	30.81
789.919	30.53
790.095	31.74
790.271	31.74
790.447	30.69
790.623	33.81
790.799	32.67
790.975	30.4
791.151	31.71
791.327	32.01
791.502	31.19
791.678	30.14
791.854	30.8
792.03	28.3
792.205	24.66
792.381	22.53
792.557	22.09
792.733	21.95
792.908	23.65
793.084	26.07
793.259	26.36
793.435	26.35
793.611	26.03
793.786	24.48
793.962	27.63
794.137	28.41
794.313	29.38
794.488	28.48
794.664	27.35
794.839	26.8
795.015	23.71
795.19	23.86
795.366	25.93
795.541	26.4
795.716	28.21
795.892	27.55
796.067	28.99
796.242	28.9
796.418	29.86
796.593	29.4
796.768	29.91
796.944	29.16
797.119	28.77
797.294	25.89
797.469	25.84
797.644	23.78
797.82	24.81
797.995	25.23
798.17	25.23
798.345	23.98
798.52	25.95
798.695	26.02
798.87	26.27
799.045	27.65
799.22	29.88
799.395	31.6
799.57	30.1
799.745	30.07
799.92	30.3
800.095	31.44
800.27	33.47
800.445	32.04
800.62	32.25
800.795	34.23
800.97	32.29
801.145	28.81
801.319	26.03
801.494	26.1
801.669	22.92
801.844	23.49
802.018	20.79
802.193	20.46
802.368	21.28
802.543	19.03
802.717	18.27
802.892	19.21
803.067	20.17
803.241	22.96
803.416	22.98
803.59	26.87
803.765	25.52
803.94	25.26
804.114	23.37
804.289	24.4
804.463	26.26
804.638	26.23
804.812	23.3
804.986	23.06
805.161	23.55
805.335	25.53
805.51	22.81
805.684	24.57
805.858	25.31
806.033	28.23
806.207	27.37
806.381	26.92
806.556	27.15
806.73	30.07
806.904	32.36
807.078	28.73
807.253	26.64
807.427	29.1
807.601	27.07
807.775	29.57
807.949	25.35
808.123	22.85
808.298	24.16
808.472	22.53
808.646	21.38
808.82	18.22
808.994	21.08
809.168	21.76
809.342	22.31
809.516	21.7
809.69	22.2
809.864	23.25
810.038	25.31
810.212	22.78
810.385	22.5
810.559	25.38
810.733	27.75
810.907	26
811.081	30.01
811.255	29.68
811.428	31.25
811.602	27.62
811.776	27.6
811.95	30.53
812.123	31.23
812.297	29.37
812.471	24.2
812.644	22.3
812.818	23.51
812.992	20.24
813.165	17.61
813.339	18.02
813.512	22.31
813.686	24.86
813.86	19.56
814.033	23.34
814.207	25.77
814.38	27.85
814.554	27.55
814.727	26.11
814.9	28.73
815.074	27.11
815.247	28.45
815.421	24.16
815.594	22.29
815.767	26.8
815.941	23.76
816.114	22.03
816.287	25.99
816.46	30.98
816.634	32.05
816.807	31.43
816.98	33.7
817.153	34.83
817.327	36.72
817.5	36.93
817.673	33.74
817.846	34.2
818.019	39.59
818.192	35.41
818.365	32.32
818.538	37.18
818.711	35.52
818.884	38.79
819.057	33.4
819.23	32.34
819.403	32.52
819.576	31.06
819.749	27.53
819.922	26.79
820.095	28.7
820.268	29.56
820.441	27.14
820.614	27.71
820.786	23.46
820.959	27.83
821.132	29.34
821.305	29.29
821.477	30.55
821.65	31.85
821.823	30.79
821.996	30.63
822.168	29.87
822.341	30.13
822.514	30.2
822.686	30.68
822.859	29.53
823.031	30
823.204	30.26
823.376	30.82
823.549	30.63
823.722	30.87
823.894	30.74
824.067	30.79
824.239	30.67
824.411	30.39
824.584	30.01
824.756	29.94
824.929	29.29
825.101	29.39
825.273	28.62
825.446	28.69
825.618	28.36
825.79	28.92
825.963	28.47
826.135	28.06
826.307	28.02
826.479	28.61
826.652	29.8
826.824	29.88
826.996	29.33
827.168	29.79
827.34	29.56
827.512	29.15
827.684	27.81
827.856	28.41
828.029	27.85
828.201	27.76
828.373	27.51
828.545	27.19
828.717	27.69
828.889	28.24
829.061	27.54
829.232	27.23
829.404	29.95
829.576	31.25
829.748	32.15
829.92	34.22
830.092	35.65
830.264	35.49
830.436	34.99
830.607	35.4
830.779	36.12
830.951	36.59
831.123	35.31
831.294	32.24
831.466	30.02
831.638	30.11
831.809	29.61
831.981	27.91
832.153	30.01
832.324	31.46
832.496	29.5
832.667	26.08
832.839	24
833.011	26.43
833.182	26.2
833.354	25.87
833.525	24.59
833.697	23.7
833.868	23.81
834.039	23.85
834.211	22.12
834.382	22.44
834.554	24.74
834.725	25.19
834.896	26.34
835.068	25
835.239	25.81
835.41	27.09
835.581	26.6
835.753	26.3
835.924	25.24
836.095	24.78
836.266	23.24
836.438	23.41
836.609	23.68
836.78	21.49
836.951	20.87
837.122	19.44
837.293	17.66
837.464	17.66
837.635	19.39
837.806	18.96
837.977	18.91
838.148	22.69
838.319	20.13
838.49	22.22
838.661	28.09
838.832	32.58
839.003	39.29
839.174	41.02
839.345	42.68
839.516	42.69
839.687	41.71
839.857	46.14
840.028	42.98
840.199	39.99
840.37	31.86
840.54	25.4
840.711	20.72
840.882	18.27
841.053	19.05
841.223	19.65
841.394	17.46
841.564	22.16
841.735	24.28
841.906	24.5
842.076	23.61
842.247	36.21
842.417	38.12
842.588	42.98
842.758	43.15
842.929	40.71
843.099	38.45
843.27	40.82
843.44	38.7
843.611	30.49
843.781	29.17
843.951	38.76
844.122	30.3
844.292	32.51
844.462	30.89
844.633	37.62
844.803	41.14
844.973	35.4
845.144	36.4
845.314	35.47
845.484	50.85
845.654	52.95
845.824	44.76
845.995	40.6
846.165	40.73
846.335	36.5
846.505	28.13
846.675	31.61
846.845	45.3
847.015	40.21
847.185	43.63
847.355	39.39
847.525	35.27
847.695	34.56
847.865	23.73
848.035	17.28
848.205	28.06
848.375	31.49
848.545	27.58
848.715	20.69
848.884	27.07
849.054	19.06
849.224	18.68
849.394	23.74
849.564	25.57
849.733	43.37
849.903	47.69
850.073	39.01
850.243	44.8
850.412	48.26
850.582	44.11
850.752	44.71
850.921	54.79
851.091	47.86
851.26	51.82
851.43	45.97
851.599	31.71
851.769	28.28
851.939	38.96
852.108	31.03
852.278	24.18
852.447	29.66
852.616	25.12
852.786	18.41
852.955	24.53
853.125	20.44
853.294	19.37
853.463	16.08
853.633	12.17
853.802	13.24
853.971	16.14
854.141	14.12
854.31	3.41
854.479	-5.71
854.648	-11.78
854.818	-11.95
854.987	-9.04
855.156	0.03
855.325	7.79
855.494	2.03
855.663	-1.99
855.832	1.65
856.001	4.67
856.171	9.28
856.34	16.61
856.509	32.98
856.678	26.62
856.847	28.96
857.016	36.98
857.185	24.06
857.353	41.05
857.522	42.22
857.691	42.17
857.86	44.89
858.029	39.23
858.198	47.31
858.367	38.62
858.535	44.95
858.704	59.08
858.873	55.71
859.042	61.3
859.21	50.94
859.379	42.19
859.548	46.37
859.717	50
859.885	82.08
860.054	67.74
860.222	76.4
860.391	71.9
860.56	40.43
860.728	41.56
860.897	34.96
861.065	30.66
861.234	30.34
861.402	19.41
861.571	29.79
861.739	15.28
861.908	8.14
862.076	4.12
862.244	7.4
862.413	21.17
862.581	12.43
862.749	29.21
862.918	40.56
863.086	35.39
863.254	37.83
863.423	27.06
863.591	30.46
863.759	30.3
863.927	32.71
864.096	29.47
864.264	23.12
864.432	40.8
864.6	43.74
864.768	32.6
864.936	43.12
865.104	37.29
865.272	33.95
865.44	43.53
865.608	58.73
865.776	49.86
865.944	55
866.112	71.13
866.28	50.86
866.448	46.26
866.616	55.89
866.784	54.37
866.952	56.83
867.12	56.07
867.288	42.73
867.455	35.35
867.623	26.73
867.791	6.95
867.959	-11.5
868.127	5.42
868.294	0.06
868.462	-18.37
868.63	-15.33
868.797	-20.47
868.965	-21.6
869.133	-17.16
869.3	-21.33
869.468	-5.76
869.636	-0.41
869.803	-2.38
869.971	-3.58
870.138	0.17
870.306	4.83
870.473	10.61
870.641	3.04
870.808	1.52
870.975	19.05
871.143	9.51
871.31	14.38
871.478	7.96
871.645	8.14
871.812	-4.19
871.98	7.67
872.147	-11.51
872.314	-3.29
872.482	10.4
872.649	6.12
872.816	-4.54
872.983	18.74
873.15	2.04
873.318	8.92
873.485	1.76
873.652	12.12
873.819	3.94
873.986	28.51
874.153	6.31
874.32	8.45
874.487	24.24
874.654	7.41
874.821	-14.45
874.988	13.42
875.155	3.92
875.322	11.7
875.489	8.11
875.656	7.32
875.823	-0.33
875.99	17.75
876.157	13.42
876.324	23.44
876.49	31.74
876.657	27.04
876.824	23.31
876.991	30.32
877.157	30.06
877.324	27.86
877.491	18.14
877.658	18.05
877.824	21.16
877.991	22.66
878.157	6.08
878.324	6.35
878.491	23.62
878.657	21.87
878.824	19.04
878.99	21.81
879.157	17.08
879.323	26.38
879.49	31.79
879.656	40.62
879.823	35.44
879.989	44.28
880.156	51.29
880.322	37.71
880.488	40.18
880.655	37
880.821	33.97
880.987	39.83
881.154	38.66
881.32	33.41
881.486	26.72
881.652	23.95
881.819	19.96
881.985	21.18
882.151	25.02
882.317	26.22
882.483	26.78
882.649	28.8
882.816	32.04
882.982	33.19
883.148	33.16
883.314	31.67
883.48	34.22
883.646	34.62
883.812	33.9
883.978	33.55
884.144	32.19
884.31	33.14
884.476	30.76
884.642	26.37
884.807	25.4
884.973	26.08
885.139	25.93
885.305	24
885.471	23.18
885.637	23.21
885.802	22.48
885.968	23.72
886.134	22.6
886.3	24.27
886.465	28.44
886.631	28.51
886.797	30.49
886.962	32.04
887.128	33.67
887.293	34.82
887.459	33.71
887.625	40.56
887.79	39.23
887.956	37.14
888.121	39.49
888.287	34.81
888.452	35.89
888.618	32.21
888.783	31.76
