Data from CB_096_Reflection_5.txt Node
Date: Sat Nov 14 17:36:02 EST 2015
User: robert
Spectrometer: USB4E03001
Autoset integration time: false
Trigger mode: 4
Integration Time (sec): 1.000000E-1
Scans to average: 15
Electric dark correction enabled: true
Nonlinearity correction enabled: false
Boxcar width: 5
Stray light correction enabled: false
XAxis mode: Wavelengths
Stop averaging: false
Number of Pixels in Spectrum: 3648
>>>>>Begin Spectral Data<<<<<
177.566	2.53
177.785	1428.08
178.005	-311.64
178.225	-131.67
178.445	2066.32
178.665	-175.68
178.885	-817.53
179.105	73.2
179.324	142.42
179.544	51.05
179.764	36.55
179.984	17.14
180.204	-23.85
180.423	4.69
180.643	18.36
180.863	0.96
181.083	-0
181.302	44.53
181.522	76.03
181.742	69.91
181.961	86.46
182.181	107.82
182.401	284.74
182.621	204.65
182.84	310.09
183.06	176.18
183.279	148.68
183.499	271.64
183.719	166.43
183.938	96.22
184.158	70.89
184.377	98.99
184.597	106.6
184.816	85.69
185.036	88.79
185.256	89.8
185.475	68.37
185.695	58.73
185.914	56.31
186.134	65.17
186.353	63.97
186.572	70.39
186.792	67.05
187.011	65.66
187.231	64.64
187.45	58.98
187.67	58.24
187.889	66.12
188.108	76.24
188.328	77.62
188.547	91.18
188.766	90.53
188.986	70.11
189.205	59.88
189.424	71.51
189.644	69.97
189.863	79.27
190.082	80.14
190.302	57.02
190.521	48.43
190.74	52.38
190.959	3.38
191.178	15.17
191.398	24.97
191.617	29.28
191.836	-3.31
192.055	13.62
192.274	-7.97
192.494	-2.24
192.713	2.39
192.932	39.76
193.151	29.57
193.37	76.66
193.589	37.52
193.808	117.68
194.027	161.52
194.246	-200.21
194.465	242.16
194.685	95.27
194.904	85.94
195.123	46.74
195.342	29.27
195.561	32.34
195.78	33.31
195.999	37.93
196.218	30.49
196.436	38.07
196.655	49.51
196.874	57.63
197.093	59.04
197.312	63.57
197.531	77.51
197.75	71.33
197.969	83.78
198.188	87.28
198.407	80.35
198.625	92.98
198.844	104.08
199.063	92.48
199.282	88.08
199.501	82.54
199.719	75.63
199.938	60.79
200.157	60.38
200.376	60.26
200.594	65.08
200.813	89.22
201.032	56.4
201.251	45.2
201.469	52.24
201.688	50.47
201.907	57.1
202.125	73.9
202.344	129.18
202.563	142.76
202.781	108.85
203	158.39
203.218	149.03
203.437	154.45
203.656	167.13
203.874	122.38
204.093	182.21
204.311	149.35
204.53	141.11
204.748	87.99
204.967	100.19
205.185	136.66
205.404	103
205.622	75.79
205.841	73.98
206.059	76.44
206.278	59.75
206.496	33.78
206.715	42.72
206.933	41.4
207.151	52.9
207.37	46.49
207.588	40.07
207.806	50.48
208.025	54.83
208.243	56.55
208.461	58.84
208.68	73.69
208.898	81.74
209.116	70.88
209.335	73.15
209.553	74.21
209.771	77.37
209.989	64.46
210.208	54.62
210.426	45.49
210.644	44.42
210.862	34.33
211.081	28.79
211.299	37.13
211.517	37.45
211.735	31.74
211.953	38.34
212.171	37.47
212.39	52.02
212.608	73.04
212.826	74.65
213.044	76.78
213.262	75.81
213.48	86.01
213.698	76.04
213.916	86.97
214.134	82.28
214.352	87.45
214.57	84.21
214.788	72.23
215.006	57.72
215.224	66.31
215.442	88.2
215.66	100.75
215.878	80.97
216.096	124.34
216.314	106.26
216.532	99.62
216.75	79.82
216.968	79.32
217.185	105.12
217.403	68.41
217.621	121.92
217.839	91.52
218.057	83.65
218.275	93.72
218.492	62.33
218.71	88.01
218.928	112.31
219.146	223.09
219.363	198.23
219.581	204.71
219.799	277.5
220.017	200.33
220.234	215.89
220.452	206.59
220.67	266.98
220.887	453.76
221.105	631.94
221.323	9203.68
221.54	804.08
221.758	3969.64
221.976	1771.49
222.193	347.2
222.411	441.68
222.629	576.34
222.846	839.09
223.064	-533.53
223.281	376.74
223.499	199.21
223.716	423.32
223.934	-114.8
224.151	-65.2
224.369	-24.24
224.586	-2.16
224.804	8.06
225.021	-11.51
225.239	-7.94
225.456	-36.93
225.674	-54.57
225.891	-57.57
226.108	-56.76
226.326	-48.85
226.543	-1.49
226.76	4.07
226.978	16.14
227.195	8.34
227.413	16.39
227.63	17.54
227.847	19.95
228.064	22.5
228.282	20.43
228.499	16.95
228.716	12.73
228.934	7.82
229.151	9.2
229.368	7.26
229.585	7.66
229.802	7.3
230.02	8.18
230.237	8.11
230.454	9.58
230.671	6.74
230.888	6.52
231.105	6.2
231.323	3.77
231.54	-4.05
231.757	-8.82
231.974	-21.01
232.191	-21.57
232.408	-26.46
232.625	-22.48
232.842	-30.15
233.059	-16.46
233.276	-18.85
233.493	-16.45
233.71	-12.39
233.927	1.75
234.144	1.82
234.361	7.41
234.578	5.05
234.795	7.6
235.012	-2.01
235.229	-1.48
235.446	-12.39
235.663	-8.62
235.879	-9.79
236.096	-11.2
236.313	-11.96
236.53	-5.07
236.747	-2.32
236.964	-7.42
237.181	-14.77
237.397	-6.27
237.614	-9.1
237.831	-4.89
238.048	-7.1
238.264	-11.46
238.481	-8.17
238.698	-6.46
238.915	-0.11
239.131	2.39
239.348	7.11
239.565	9.83
239.781	5.84
239.998	4.41
240.215	4.76
240.431	1.99
240.648	4.63
240.865	6.79
241.081	6.7
241.298	5.74
241.514	6.07
241.731	6.45
241.947	5.96
242.164	6.69
242.38	9.67
242.597	9.83
242.814	12.16
243.03	12.34
243.246	11.58
243.463	11.41
243.679	9.29
243.896	9.39
244.112	8.65
244.329	8.5
244.545	8.96
244.762	8.18
244.978	8.83
245.194	5.18
245.411	4
245.627	5.73
245.843	4.08
246.06	6
246.276	5.8
246.492	6.42
246.709	6.34
246.925	5.86
247.141	5.7
247.357	6.18
247.574	7.1
247.79	7.4
248.006	7.43
248.222	7.16
248.439	6.61
248.655	6.1
248.871	6.2
249.087	6.69
249.303	6.72
249.519	5.68
249.736	4.85
249.952	4.81
250.168	5.54
250.384	3.66
250.6	3.88
250.816	2.79
251.032	3.78
251.248	2.37
251.464	0.67
251.68	2.11
251.896	2.23
252.112	-0.06
252.328	-2.33
252.544	-4.09
252.76	-5.71
252.976	-5.96
253.192	-5.89
253.408	-6.98
253.624	-5.76
253.84	-5.11
254.056	-5.61
254.272	-3.52
254.487	-1.68
254.703	1.37
254.919	0.02
255.135	0.44
255.351	-2.17
255.567	0.8
255.782	-1.22
255.998	0.95
256.214	1.36
256.43	1.76
256.646	-0.54
256.861	2.08
257.077	-0.18
257.293	3.31
257.508	7.1
257.724	7.66
257.94	6.73
258.155	8.41
258.371	7
258.587	4.56
258.802	4.24
259.018	4.7
259.234	3.5
259.449	4.14
259.665	4.05
259.88	3.99
260.096	5.4
260.312	6.1
260.527	6.44
260.743	5.95
260.958	6.47
261.174	6.8
261.389	7.19
261.605	7.8
261.82	7.76
262.036	7.94
262.251	6.99
262.466	5.99
262.682	5.34
262.897	3.57
263.113	3.53
263.328	4.92
263.543	3.73
263.759	1.39
263.974	1.13
264.189	0.01
264.405	-1
264.62	-0.07
264.835	0.58
265.051	1.09
265.266	1.55
265.481	2.5
265.696	1.89
265.912	2.49
266.127	2.57
266.342	2.5
266.557	4.11
266.773	3.53
266.988	3.86
267.203	3.69
267.418	2.6
267.633	4.41
267.848	4.33
268.064	4.3
268.279	3.96
268.494	5.16
268.709	6.17
268.924	6.91
269.139	6.24
269.354	7.09
269.569	8.09
269.784	8.22
269.999	7.87
270.214	7.76
270.429	7.7
270.644	8.61
270.859	8.25
271.074	6.72
271.289	4.73
271.504	6.06
271.719	5.92
271.934	4.21
272.149	5
272.363	4
272.578	4.83
272.793	4.42
273.008	2.72
273.223	3.15
273.438	2.67
273.653	4.31
273.867	3.39
274.082	2.09
274.297	3.86
274.512	1.97
274.726	1.48
274.941	0.02
275.156	0.98
275.371	2.51
275.585	1.34
275.8	3.06
276.015	2.88
276.229	4.41
276.444	4.38
276.659	3.09
276.873	4.52
277.088	6.2
277.302	6.81
277.517	6.6
277.732	5.91
277.946	7.17
278.161	6.82
278.375	5.06
278.59	4.79
278.804	3.99
279.019	3.91
279.233	3.83
279.448	2.5
279.662	2.6
279.877	2.84
280.091	3.85
280.306	2.33
280.52	2.48
280.735	4.16
280.949	3.4
281.163	4.33
281.378	4.59
281.592	5.24
281.806	5.55
282.021	5.85
282.235	5.89
282.449	5.41
282.664	7.36
282.878	7.7
283.092	6.69
283.307	6.48
283.521	7.07
283.735	6.78
283.949	5.88
284.164	5.78
284.378	5.29
284.592	5.04
284.806	5.45
285.02	4.87
285.234	4.4
285.449	4.49
285.663	5.44
285.877	5.6
286.091	5.01
286.305	4.6
286.519	4.51
286.733	4.43
286.947	4.92
287.161	4.94
287.375	4.98
287.589	5.95
287.803	6.47
288.017	5.65
288.231	5.38
288.445	6.4
288.659	6.77
288.873	6.75
289.087	6.45
289.301	5.28
289.515	4.22
289.729	2.68
289.943	1.3
290.157	0.14
290.371	0.56
290.584	0.7
290.798	-0.29
291.012	0.78
291.226	1.34
291.44	1.68
291.654	1.68
291.867	2.91
292.081	4.69
292.295	5.94
292.509	6.16
292.722	5.77
292.936	5.25
293.15	6.74
293.364	6.73
293.577	6.31
293.791	7.04
294.005	8.01
294.218	7.83
294.432	7.34
294.645	7.91
294.859	10.48
295.073	10.23
295.286	10.8
295.5	10.68
295.713	10.15
295.927	10.61
296.14	9.65
296.354	9.85
296.568	9.28
296.781	9.23
296.994	8.71
297.208	6.96
297.421	7.69
297.635	7.17
297.848	6.65
298.062	6.37
298.275	6.32
298.489	7.32
298.702	7.26
298.915	7.22
299.129	7.25
299.342	7.03
299.555	6.65
299.769	6.9
299.982	7.59
300.195	7.26
300.409	7.87
300.622	7.22
300.835	5.6
301.048	5.16
301.262	4.96
301.475	4.56
301.688	4.94
301.901	6.73
302.115	5.71
302.328	5.86
302.541	7.05
302.754	7.64
302.967	8.54
303.18	9.84
303.393	9.92
303.607	10.14
303.82	10.69
304.033	10.87
304.246	9.96
304.459	11.12
304.672	11.1
304.885	10.36
305.098	9.14
305.311	8.82
305.524	8.15
305.737	8.35
305.95	8.24
306.163	8.19
306.376	7.23
306.589	8.46
306.802	6.74
307.015	5.94
307.228	6.49
307.44	7.04
307.653	6.86
307.866	8.02
308.079	6.88
308.292	7.71
308.505	6.86
308.718	8.03
308.93	7.65
309.143	8.29
309.356	8.19
309.569	9.07
309.781	9.66
309.994	9.08
310.207	7.99
310.42	8.4
310.632	8.02
310.845	7.99
311.058	7.6
311.27	8.11
311.483	8.43
311.696	9.14
311.908	9.33
312.121	8.15
312.333	8.93
312.546	8.83
312.759	9.24
312.971	9.58
313.184	10.3
313.396	10.05
313.609	9.27
313.821	8.9
314.034	7.79
314.246	6.29
314.459	7.43
314.671	6.46
314.884	7.44
315.096	6.5
315.309	6
315.521	6.17
315.733	6.06
315.946	5.5
316.158	5.47
316.371	6.53
316.583	5.41
316.795	4.8
317.008	5.73
317.22	5.21
317.432	6
317.644	4.16
317.857	4.77
318.069	5.55
318.281	5.21
318.494	5.65
318.706	6.19
318.918	7.39
319.13	8.38
319.342	8.85
319.555	8.66
319.767	8.66
319.979	9.89
320.191	9.02
320.403	8.35
320.615	9.48
320.827	9.19
321.039	7.39
321.252	8.71
321.464	8.67
321.676	8.22
321.888	8.78
322.1	9
322.312	10.71
322.524	10.16
322.736	11.87
322.948	11.38
323.16	11.9
323.372	11.74
323.584	10.79
323.796	10.67
324.007	11.22
324.219	13
324.431	13.07
324.643	12.14
324.855	13.39
325.067	12.72
325.279	12.09
325.491	12.82
325.702	13.85
325.914	14.37
326.126	14.33
326.338	14.25
326.55	14.23
326.761	15.6
326.973	16.24
327.185	16.93
327.396	17.26
327.608	18.59
327.82	18.18
328.032	19.7
328.243	19.52
328.455	20.46
328.666	20.73
328.878	20.53
329.09	19.92
329.301	21.88
329.513	22.09
329.725	21.79
329.936	22.62
330.148	23.68
330.359	22.06
330.571	23.26
330.782	24.16
330.994	25.13
331.205	24.04
331.417	23.62
331.628	23.25
331.84	21.22
332.051	21.13
332.262	21.82
332.474	21.38
332.685	21.52
332.897	22.23
333.108	21.28
333.319	21.35
333.531	22.07
333.742	22.57
333.953	22.08
334.165	23.17
334.376	24.16
334.587	24.33
334.799	25.9
335.01	25.83
335.221	25.67
335.432	26.02
335.644	25.82
335.855	26.61
336.066	26.57
336.277	26.5
336.488	27.38
336.7	26.56
336.911	26.2
337.122	24.84
337.333	25.83
337.544	25.3
337.755	24.85
337.966	24.64
338.177	24.61
338.388	24.43
338.599	24.7
338.811	24.12
339.022	24.34
339.233	23.33
339.444	23.33
339.655	23.46
339.866	23.25
340.076	23.64
340.287	23.52
340.498	23.82
340.709	24.28
340.92	24.81
341.131	24.82
341.342	25.18
341.553	25.47
341.764	26.57
341.975	26.69
342.185	27.16
342.396	26.46
342.607	27.03
342.818	26.2
343.029	25.66
343.239	24.97
343.45	25.04
343.661	24.69
343.872	24.95
344.082	23.79
344.293	23.74
344.504	23.26
344.714	24.44
344.925	24.13
345.136	24.45
345.346	24.55
345.557	23.86
345.768	24.58
345.978	24.49
346.189	25.29
346.399	25.26
346.61	24.85
346.821	25.08
347.031	24.51
347.242	24.27
347.452	23.72
347.663	24.25
347.873	24.78
348.084	24.92
348.294	25.15
348.504	24.2
348.715	24.25
348.925	24.42
349.136	24.39
349.346	24.06
349.557	24.31
349.767	24.17
349.977	23.8
350.188	22.68
350.398	22.51
350.608	22.45
350.819	22.33
351.029	21.63
351.239	21.67
351.449	21.37
351.66	21.28
351.87	22.01
352.08	22.42
352.29	22.31
352.501	23.21
352.711	23.63
352.921	23.52
353.131	23.14
353.341	23.88
353.552	23.55
353.762	23.64
353.972	23.59
354.182	23.31
354.392	22.74
354.602	22.9
354.812	23.57
355.022	22.3
355.232	22.4
355.442	23.34
355.652	23.51
355.862	23.2
356.072	22.92
356.282	23.56
356.492	23.08
356.702	23.55
356.912	23.8
357.122	23.26
357.332	23.58
357.542	23.55
357.752	23
357.962	22.94
358.171	23.41
358.381	24.05
358.591	23.76
358.801	23.82
359.011	24.06
359.221	24.22
359.43	24.21
359.64	23.79
359.85	23.57
360.06	22.84
360.269	22.74
360.479	22.86
360.689	22.41
360.899	21.99
361.108	21.69
361.318	21.8
361.528	21.29
361.737	21.63
361.947	21.83
362.156	22.18
362.366	22.36
362.576	21.95
362.785	21.66
362.995	22.08
363.204	22.13
363.414	22.19
363.623	21.67
363.833	21.94
364.042	21.86
364.252	22
364.461	21.7
364.671	22.5
364.88	22.75
365.09	22.89
365.299	22.43
365.509	22.39
365.718	22.35
365.927	21.96
366.137	21.45
366.346	21.5
366.555	21.02
366.765	20.59
366.974	20.2
367.183	20.37
367.393	19.99
367.602	20.28
367.811	20.91
368.021	21.13
368.23	21.28
368.439	21.89
368.648	21.94
368.857	22.11
369.067	22.39
369.276	21.75
369.485	21.41
369.694	21.36
369.903	21.14
370.112	20.93
370.321	21.18
370.531	21.43
370.74	20.91
370.949	20.39
371.158	20.64
371.367	20.54
371.576	20.6
371.785	20.39
371.994	20.6
372.203	20.43
372.412	20.14
372.621	19.46
372.83	19.82
373.039	19.75
373.248	19.92
373.457	19.62
373.666	19.87
373.874	20.15
374.083	20.47
374.292	19.88
374.501	19.47
374.71	19.31
374.919	19.61
375.128	19.12
375.336	19.2
375.545	18.95
375.754	18.92
375.963	18.51
376.171	18.05
376.38	18.19
376.589	18.39
376.798	18.05
377.006	17.88
377.215	17.6
377.424	17.63
377.632	17.39
377.841	17.31
378.05	17.11
378.258	17.67
378.467	17.52
378.675	17.14
378.884	16.61
379.093	17.01
379.301	16.93
379.51	17.02
379.718	16.57
379.927	17.15
380.135	17.48
380.344	17.31
380.552	16.18
380.761	16.26
380.969	16.56
381.177	17.23
381.386	17
381.594	17.38
381.803	17.09
382.011	17.15
382.219	16.67
382.428	16.12
382.636	15.92
382.845	15.96
383.053	16.3
383.261	15.66
383.469	15.18
383.678	15.52
383.886	15.39
384.094	15.28
384.302	15.04
384.511	14.9
384.719	14.88
384.927	14.86
385.135	15.11
385.343	14.76
385.552	14.77
385.76	14.83
385.968	14.15
386.176	13.55
386.384	13.55
386.592	13.77
386.8	13.29
387.008	13.31
387.216	13.57
387.424	13.22
387.633	13.47
387.841	13.43
388.049	13.35
388.257	13.56
388.465	13.59
388.672	13.31
388.88	13.22
389.088	13.42
389.296	13
389.504	12.91
389.712	13.23
389.92	12.86
390.128	13.27
390.336	13.19
390.544	13.34
390.751	13.37
390.959	13.35
391.167	13.43
391.375	13.4
391.583	13.51
391.79	13.25
391.998	13.41
392.206	13.46
392.414	12.96
392.621	12.62
392.829	12.2
393.037	12.5
393.244	12.58
393.452	12.04
393.66	12.16
393.867	12.04
394.075	12.27
394.283	12.04
394.49	11.91
394.698	11.86
394.905	12.11
395.113	12.4
395.32	12.19
395.528	11.97
395.735	12.59
395.943	12.49
396.15	12.62
396.358	12.35
396.565	12.27
396.773	12.3
396.98	12.41
397.188	12.36
397.395	12.03
397.602	11.92
397.81	11.94
398.017	11.4
398.225	11.29
398.432	10.94
398.639	10.9
398.847	10.84
399.054	10.82
399.261	10.62
399.468	10.68
399.676	10.87
399.883	10.65
400.09	10.7
400.297	10.97
400.505	10.72
400.712	11.18
400.919	10.94
401.126	10.76
401.333	10.68
401.54	10.74
401.748	10.68
401.955	10.4
402.162	10.51
402.369	10.46
402.576	9.99
402.783	10.29
402.99	9.9
403.197	10.18
403.404	10.34
403.611	10.17
403.818	10.27
404.025	10.04
404.232	10.07
404.439	10.02
404.646	10.23
404.853	10.17
405.06	10.1
405.267	10.28
405.474	10.36
405.681	10.15
405.887	10.04
406.094	9.74
406.301	10
406.508	10.14
406.715	9.97
406.922	9.53
407.128	10.08
407.335	10.06
407.542	10.05
407.749	9.82
407.955	9.86
408.162	10.15
408.369	9.95
408.575	9.83
408.782	9.46
408.989	9.41
409.195	9.63
409.402	9.44
409.609	9.07
409.815	9.1
410.022	9.16
410.228	9.31
410.435	9.46
410.642	10.06
410.848	9.79
411.055	9.78
411.261	9.79
411.468	9.61
411.674	9.37
411.881	9.45
412.087	9.36
412.294	9.38
412.5	9.26
412.706	8.7
412.913	8.24
413.119	8.5
413.326	8.5
413.532	8.67
413.738	8.88
413.945	8.6
414.151	8.51
414.357	8.55
414.564	8.26
414.77	7.91
414.976	8.42
415.182	8.6
415.389	8.49
415.595	8.64
415.801	8.5
416.007	8.42
416.214	8.59
416.42	8.8
416.626	8.91
416.832	8.97
417.038	9.13
417.244	8.84
417.45	8.85
417.657	8.83
417.863	8.81
418.069	8.79
418.275	8.51
418.481	8.61
418.687	8.52
418.893	8.36
419.099	8.31
419.305	8.33
419.511	8.19
419.717	8.07
419.923	7.92
420.129	7.9
420.335	7.96
420.541	8.23
420.746	8.04
420.952	8.07
421.158	8.01
421.364	7.85
421.57	7.75
421.776	7.83
421.982	7.76
422.187	7.79
422.393	7.84
422.599	7.9
422.805	7.76
423.01	7.92
423.216	7.8
423.422	7.77
423.628	7.87
423.833	7.9
424.039	8.12
424.245	8.26
424.45	8.33
424.656	8.23
424.862	8.15
425.067	8.17
425.273	8.12
425.478	8.22
425.684	8.21
425.889	8.28
426.095	8.41
426.301	8.1
426.506	7.97
426.712	7.97
426.917	8.07
427.123	7.79
427.328	7.87
427.533	7.79
427.739	7.75
427.944	7.73
428.15	7.47
428.355	7.22
428.561	7.17
428.766	7.35
428.971	7.26
429.177	7.15
429.382	7.44
429.587	7.26
429.793	7.27
429.998	7.17
430.203	7.18
430.408	7.48
430.614	7.6
430.819	7.75
431.024	7.6
431.229	7.52
431.434	7.38
431.64	7.26
431.845	7.31
432.05	7.16
432.255	7.13
432.46	7.05
432.665	6.93
432.87	6.89
433.076	6.8
433.281	6.76
433.486	6.92
433.691	7.1
433.896	7.31
434.101	7.44
434.306	7.67
434.511	7.92
434.716	8.14
434.921	8.39
435.126	8.43
435.331	8.78
435.535	8.96
435.74	8.96
435.945	8.91
436.15	8.76
436.355	8.57
436.56	8.51
436.765	8.33
436.97	8.2
437.174	7.96
437.379	7.96
437.584	7.59
437.789	7.39
437.993	7.53
438.198	7.48
438.403	7.53
438.608	7.5
438.812	7.55
439.017	7.45
439.222	7.46
439.426	7.43
439.631	7.36
439.836	7.47
440.04	7.62
440.245	7.57
440.45	7.54
440.654	7.47
440.859	7.37
441.063	7.35
441.268	7.38
441.472	7.3
441.677	7.39
441.881	7.39
442.086	7.41
442.29	7.23
442.495	7.1
442.699	7.16
442.904	7.14
443.108	7.22
443.312	7.1
443.517	7.1
443.721	7.13
443.925	7.04
444.13	7.12
444.334	7.04
444.538	7.07
444.743	6.95
444.947	6.98
445.151	6.96
445.356	7.14
445.56	7.29
445.764	7.48
445.968	7.46
446.173	7.37
446.377	7.19
446.581	7.22
446.785	7.15
446.989	7.24
447.193	7.25
447.398	7.32
447.602	7.23
447.806	7.21
448.01	7.05
448.214	7.1
448.418	7.1
448.622	7.17
448.826	7.12
449.03	7.41
449.234	7.37
449.438	7.3
449.642	7.32
449.846	7.19
450.05	6.99
450.254	6.81
450.458	6.69
450.662	6.85
450.866	6.93
451.069	7.15
451.273	6.88
451.477	7.08
451.681	7.15
451.885	7.28
452.089	7.18
452.292	7.36
452.496	7.51
452.7	7.39
452.904	7.3
453.107	7.16
453.311	7
453.515	7.03
453.719	6.77
453.922	6.66
454.126	6.44
454.33	6.56
454.533	6.5
454.737	6.63
454.94	6.82
455.144	6.86
455.348	6.97
455.551	6.82
455.755	6.77
455.958	6.91
456.162	6.86
456.365	6.9
456.569	6.96
456.772	6.95
456.976	6.9
457.179	6.84
457.383	6.85
457.586	6.97
457.79	7.23
457.993	7.31
458.196	7.22
458.4	7.28
458.603	7.13
458.807	7.12
459.01	7.01
459.213	7.03
459.417	7.05
459.62	6.96
459.823	6.85
460.026	6.72
460.23	6.72
460.433	6.79
460.636	6.83
460.839	6.88
461.042	6.83
461.246	6.88
461.449	6.71
461.652	6.57
461.855	6.69
462.058	6.66
462.261	6.61
462.464	6.58
462.668	6.5
462.871	6.54
463.074	6.55
463.277	6.69
463.48	6.69
463.683	6.76
463.886	6.99
464.089	7.01
464.292	7
464.495	7.12
464.698	7.04
464.901	7
465.104	7.03
465.306	7.14
465.509	6.9
465.712	6.83
465.915	6.82
466.118	6.66
466.321	6.71
466.524	6.82
466.726	6.79
466.929	6.7
467.132	6.82
467.335	6.54
467.538	6.54
467.74	6.61
467.943	6.64
468.146	6.68
468.348	6.67
468.551	6.54
468.754	6.53
468.956	6.54
469.159	6.6
469.362	6.64
469.564	6.7
469.767	6.49
469.969	6.67
470.172	6.88
470.375	6.8
470.577	6.87
470.78	6.84
470.982	6.98
471.185	7.03
471.387	7.13
471.59	7.02
471.792	7.05
471.995	7.03
472.197	6.86
472.399	6.65
472.602	6.69
472.804	6.6
473.007	6.57
473.209	6.55
473.411	6.35
473.614	6.38
473.816	6.41
474.018	6.55
474.22	6.74
474.423	6.76
474.625	6.76
474.827	6.71
475.03	6.75
475.232	6.83
475.434	6.91
475.636	7.03
475.838	6.9
476.04	7.01
476.243	6.84
476.445	6.89
476.647	6.97
476.849	7.06
477.051	7.25
477.253	7.26
477.455	7.1
477.657	6.96
477.859	6.86
478.061	7
478.263	6.88
478.465	6.82
478.667	6.82
478.869	6.75
479.071	6.71
479.273	6.68
479.475	6.79
479.677	6.98
479.879	7.01
480.081	7.06
480.283	7.02
480.485	7.02
480.686	7.19
480.888	7.07
481.09	7.14
481.292	7.19
481.494	7.16
481.695	7.14
481.897	7.13
482.099	7.06
482.301	7.15
482.502	7.08
482.704	7.1
482.906	7.08
483.107	7.17
483.309	7.16
483.511	7.17
483.712	7.15
483.914	7.13
484.115	7.11
484.317	7.14
484.519	7.14
484.72	7.17
484.922	7.2
485.123	7.23
485.325	7.21
485.526	7.2
485.728	7.24
485.929	7.29
486.131	7.29
486.332	7.35
486.534	7.33
486.735	7.32
486.936	7.36
487.138	7.34
487.339	7.29
487.541	7.32
487.742	7.37
487.943	7.31
488.144	7.31
488.346	7.34
488.547	7.3
488.748	7.32
488.95	7.4
489.151	7.32
489.352	7.3
489.553	7.29
489.755	7.23
489.956	7.19
490.157	7.23
490.358	7.21
490.559	7.2
490.76	7.19
490.961	7.22
491.163	7.17
491.364	7.24
491.565	7.26
491.766	7.36
491.967	7.38
492.168	7.43
492.369	7.4
492.57	7.37
492.771	7.36
492.972	7.32
493.173	7.29
493.374	7.3
493.575	7.3
493.776	7.28
493.976	7.19
494.177	7.13
494.378	7.02
494.579	7.07
494.78	7.08
494.981	7.18
495.182	7.33
495.382	7.41
495.583	7.42
495.784	7.38
495.985	7.4
496.185	7.33
496.386	7.4
496.587	7.43
496.788	7.46
496.988	7.48
497.189	7.47
497.39	7.66
497.59	7.67
497.791	7.54
497.992	7.56
498.192	7.5
498.393	7.6
498.593	7.59
498.794	7.52
498.994	7.65
499.195	7.61
499.395	7.64
499.596	7.58
499.796	7.56
499.997	7.86
500.197	7.85
500.398	7.92
500.598	7.89
500.799	8.06
500.999	8.11
501.199	7.86
501.4	8.17
501.6	8.2
501.801	7.99
502.001	8.07
502.201	7.92
502.402	7.97
502.602	8.1
502.802	8.17
503.002	8.07
503.203	8.36
503.403	8.56
503.603	8.36
503.803	8.31
504.003	8.43
504.204	8.42
504.404	8.64
504.604	8.73
504.804	8.68
505.004	8.72
505.204	8.72
505.404	8.67
505.604	8.57
505.804	8.7
506.005	8.7
506.205	8.98
506.405	8.97
506.605	8.88
506.805	8.95
507.005	9.07
507.204	9.12
507.404	9.23
507.604	9.15
507.804	9.2
508.004	9.24
508.204	9.32
508.404	9.16
508.604	9.44
508.804	9.5
509.003	9.75
509.203	9.71
509.403	9.82
509.603	9.73
509.803	9.98
510.002	10.12
510.202	10.24
510.402	10.42
510.602	10.46
510.801	10.39
511.001	10.39
511.201	10.32
511.4	10.34
511.6	10.44
511.8	10.62
511.999	10.55
512.199	10.56
512.398	10.54
512.598	10.62
512.797	10.72
512.997	10.71
513.197	10.87
513.396	10.89
513.596	11.18
513.795	11.37
513.994	11.37
514.194	11.62
514.393	11.8
514.593	12.04
514.792	12.06
514.992	12.23
515.191	12.38
515.39	12.48
515.59	12.64
515.789	12.63
515.988	12.61
516.188	12.86
516.387	12.86
516.586	12.9
516.786	12.88
516.985	12.97
517.184	12.94
517.383	13.02
517.582	12.98
517.782	12.99
517.981	13.01
518.18	13.04
518.379	13.18
518.578	13.15
518.777	13.15
518.976	13.23
519.176	13.32
519.375	13.49
519.574	13.61
519.773	13.71
519.972	13.86
520.171	13.98
520.37	14
520.569	14.04
520.768	14.27
520.967	14.45
521.166	14.55
521.365	14.53
521.564	14.52
521.762	14.6
521.961	14.68
522.16	14.79
522.359	14.98
522.558	15.17
522.757	15.12
522.956	15.23
523.154	15.41
523.353	15.44
523.552	15.68
523.751	15.79
523.949	15.97
524.148	16.09
524.347	16.04
524.546	16.06
524.744	16.09
524.943	16.29
525.142	16.24
525.34	16.28
525.539	16.33
525.737	16.39
525.936	16.44
526.135	16.41
526.333	16.5
526.532	16.58
526.73	16.68
526.929	16.71
527.127	16.71
527.326	16.87
527.524	16.81
527.723	16.95
527.921	17
528.12	17.05
528.318	17.07
528.516	17.05
528.715	17.06
528.913	17.09
529.112	17.13
529.31	17.27
529.508	17.27
529.707	17.4
529.905	17.47
530.103	17.44
530.301	17.53
530.5	17.7
530.698	17.77
530.896	17.91
531.094	18.02
531.293	18.15
531.491	18.12
531.689	18.18
531.887	18.19
532.085	18.18
532.283	18.28
532.481	18.35
532.68	18.37
532.878	18.53
533.076	18.68
533.274	18.75
533.472	18.87
533.67	18.94
533.868	19.02
534.066	19.06
534.264	19.15
534.462	19.27
534.66	19.36
534.858	19.38
535.056	19.36
535.253	19.27
535.451	19.34
535.649	19.44
535.847	19.5
536.045	19.6
536.243	19.78
536.441	19.99
536.638	20.17
536.836	20.3
537.034	20.43
537.232	20.65
537.43	20.84
537.627	20.94
537.825	21.06
538.023	21.18
538.22	21.3
538.418	21.41
538.616	21.57
538.813	21.78
539.011	21.97
539.209	22.36
539.406	22.8
539.604	23.2
539.801	23.5
539.999	23.78
540.196	24.2
540.394	24.5
540.591	24.87
540.789	24.96
540.986	25.11
541.184	25.32
541.381	25.4
541.579	25.32
541.776	25.44
541.974	25.54
542.171	25.64
542.368	25.72
542.566	25.78
542.763	25.82
542.96	25.98
543.158	26.15
543.355	26.33
543.552	26.5
543.75	26.92
543.947	27.3
544.144	27.8
544.341	28.21
544.539	28.73
544.736	29.49
544.933	30.11
545.13	30.64
545.327	31.15
545.524	31.58
545.722	31.91
545.919	32.08
546.116	32.14
546.313	31.93
546.51	31.71
546.707	31.47
546.904	30.99
547.101	30.58
547.298	30.23
547.495	29.72
547.692	29.41
547.889	29.08
548.086	28.87
548.283	28.67
548.48	28.54
548.677	28.4
548.874	28.16
549.07	27.95
549.267	28.04
549.464	28.01
549.661	27.85
549.858	27.63
550.055	27.74
550.251	27.54
550.448	27.18
550.645	27.11
550.842	27.12
551.038	27.03
551.235	27.09
551.432	26.73
551.628	26.54
551.825	26.62
552.022	26.37
552.218	26.29
552.415	26.13
552.612	26.11
552.808	26.04
553.005	26
553.201	25.96
553.398	25.83
553.594	25.81
553.791	25.96
553.987	25.96
554.184	26.18
554.38	26.15
554.577	26.38
554.773	26.36
554.97	26.26
555.166	26.25
555.362	26.25
555.559	26.51
555.755	26.64
555.952	26.61
556.148	26.52
556.344	26.42
556.541	26.38
556.737	26.09
556.933	26.08
557.129	26.46
557.326	26.51
557.522	26.77
557.718	26.68
557.914	26.79
558.11	26.97
558.307	27.1
558.503	27.27
558.699	27.45
558.895	27.55
559.091	27.69
559.287	27.61
559.483	27.75
559.679	27.67
559.876	27.59
560.072	27.6
560.268	27.48
560.464	27.65
560.66	27.66
560.856	27.52
561.052	27.75
561.247	27.79
561.443	27.85
561.639	27.84
561.835	27.78
562.031	28.09
562.227	27.97
562.423	27.9
562.619	27.82
562.815	27.88
563.01	27.94
563.206	28
563.402	27.94
563.598	27.81
563.793	27.76
563.989	28.01
564.185	27.81
564.381	27.87
564.576	28
564.772	28.03
564.968	27.93
565.163	28.01
565.359	28.02
565.555	28.27
565.75	28.45
565.946	28.39
566.141	28.14
566.337	28.23
566.532	28.25
566.728	28.31
566.923	28.35
567.119	28.34
567.314	28.24
567.51	28.24
567.705	27.97
567.901	27.76
568.096	27.82
568.292	28.07
568.487	28.11
568.682	28.11
568.878	28.19
569.073	28.18
569.268	28.44
569.464	28.46
569.659	28.5
569.854	28.72
570.05	29.03
570.245	29.24
570.44	29.03
570.635	29.03
570.831	29.13
571.026	29.14
571.221	29.1
571.416	29.06
571.611	29.11
571.806	29.12
572.002	29.28
572.197	29.33
572.392	29.17
572.587	29.32
572.782	29.48
572.977	29.49
573.172	29.54
573.367	29.59
573.562	29.41
573.757	29.36
573.952	29.2
574.147	29.08
574.342	29.16
574.537	29.42
574.732	29.63
574.927	29.51
575.121	29.62
575.316	29.69
575.511	29.91
575.706	30.26
575.901	30.73
576.096	31.01
576.29	31.27
576.485	31.33
576.68	31.36
576.875	31.56
577.069	31.82
577.264	31.95
577.459	32.09
577.654	32.24
577.848	32.22
578.043	32.22
578.238	32.66
578.432	32.67
578.627	32.81
578.821	33.2
579.016	33
579.21	33.13
579.405	33.22
579.6	33.24
579.794	33.14
579.989	33.33
580.183	33.11
580.378	32.91
580.572	33.02
580.766	32.98
580.961	32.79
581.155	32.86
581.35	32.94
581.544	33.13
581.738	33.25
581.933	33.4
582.127	33.41
582.321	33.72
582.516	33.56
582.71	33.38
582.904	33.29
583.099	33.22
583.293	33.68
583.487	33.69
583.681	33.68
583.875	33.62
584.07	33.71
584.264	33.68
584.458	33.8
584.652	34.11
584.846	34.18
585.04	34.3
585.234	34.32
585.428	34.21
585.623	34.51
585.817	34.54
586.011	34.66
586.205	34.81
586.399	35.24
586.593	35.11
586.787	35.26
586.981	35.79
587.174	35.82
587.368	35.72
587.562	35.48
587.756	35.12
587.95	35.17
588.144	35.02
588.338	34.95
588.532	34.73
588.725	34.79
588.919	34.68
589.113	34.3
589.307	34.27
589.501	34.23
589.694	34.32
589.888	34.44
590.082	34.23
590.275	34.3
590.469	34.19
590.663	34.18
590.856	34.14
591.05	34.33
591.244	34.41
591.437	34.66
591.631	34.71
591.824	34.86
592.018	34.8
592.212	35.17
592.405	35.41
592.599	35.35
592.792	35.27
592.986	35.53
593.179	35.29
593.372	35.24
593.566	34.99
593.759	35.02
593.953	34.94
594.146	34.78
594.339	34.68
594.533	34.53
594.726	34.52
594.92	34.55
595.113	34.02
595.306	33.64
595.499	33.6
595.693	33.47
595.886	33.3
596.079	33.06
596.272	33.1
596.466	32.84
596.659	32.78
596.852	32.8
597.045	32.92
597.238	33.05
597.431	33.56
597.624	33.57
597.818	33.83
598.011	34.07
598.204	34.36
598.397	34.59
598.59	34.85
598.783	35.05
598.976	35.38
599.169	35.39
599.362	35.7
599.555	35.46
599.748	35.7
599.941	35.6
600.134	35.52
600.326	35.47
600.519	35.14
600.712	35.04
600.905	34.81
601.098	34.4
601.291	34.28
601.483	34.13
601.676	33.84
601.869	33.65
602.062	33.5
602.255	33.35
602.447	33.1
602.64	33.11
602.833	32.97
603.025	32.98
603.218	32.94
603.411	32.92
603.603	32.75
603.796	32.9
603.989	32.85
604.181	32.99
604.374	33.16
604.566	33.21
604.759	33.29
604.951	33.33
605.144	33.37
605.336	33.55
605.529	33.57
605.721	33.77
605.914	34.19
606.106	34.37
606.299	34.34
606.491	34.47
606.683	34.72
606.876	34.88
607.068	35.14
607.26	35.47
607.453	35.93
607.645	36.21
607.837	36.49
608.03	36.89
608.222	37.55
608.414	38.36
608.606	39.29
608.799	40.02
608.991	41.55
609.183	43.14
609.375	45.03
609.567	46.97
609.759	49.41
609.952	52.01
610.144	54.65
610.336	57.24
610.528	60.02
610.72	62.46
610.912	65.4
611.104	67.47
611.296	69.28
611.488	70.28
611.68	70.8
611.872	70.77
612.064	70.59
612.256	69.55
612.448	68.28
612.64	66.92
612.832	65.22
613.023	63.37
613.215	61.32
613.407	59.48
613.599	57.97
613.791	56.81
613.983	55.59
614.174	54.33
614.366	53.15
614.558	52.08
614.75	50.89
614.941	49.84
615.133	48.69
615.325	47.7
615.516	46.57
615.708	45.69
615.9	44.34
616.091	43.5
616.283	42.41
616.475	41.3
616.666	40.68
616.858	39.79
617.049	39.3
617.241	38.79
617.432	38.58
617.624	38.34
617.815	37.92
618.007	37.7
618.198	37.54
618.39	37.36
618.581	37.35
618.773	37.24
618.964	37.34
619.155	37.79
619.347	37.84
619.538	37.69
619.729	37.92
619.921	38.19
620.112	38.22
620.303	37.88
620.494	37.91
620.686	38.06
620.877	38.23
621.068	38.29
621.259	37.9
621.451	37.76
621.642	37.77
621.833	37.39
622.024	36.94
622.215	37.19
622.406	37.3
622.597	37.21
622.788	37.27
622.98	37.22
623.171	37.3
623.362	37.24
623.553	37.34
623.744	37.65
623.935	37.8
624.126	38.04
624.317	37.62
624.508	37.96
624.698	38.11
624.889	37.72
625.08	37.61
625.271	37.75
625.462	37.86
625.653	38.07
625.844	37.55
626.034	37.6
626.225	37.53
626.416	37.7
626.607	37.44
626.798	37.11
626.988	37.38
627.179	37.39
627.37	37.36
627.56	37.23
627.751	36.74
627.942	37.29
628.132	37.42
628.323	37.56
628.514	37.94
628.704	38.37
628.895	38.67
629.085	38.83
629.276	38.92
629.466	39.21
629.657	39.47
629.847	40.32
630.038	40.09
630.228	40.46
630.419	40.65
630.609	40.68
630.8	40.66
630.99	40.72
631.181	40.78
631.371	40.79
631.561	40.41
631.752	40.33
631.942	39.69
632.132	39.74
632.323	39.22
632.513	38.74
632.703	38.66
632.893	38.1
633.084	37.78
633.274	37.39
633.464	37.1
633.654	36.91
633.844	36.56
634.034	36.54
634.225	36.12
634.415	35.84
634.605	36.01
634.795	35.52
634.985	35.59
635.175	35.91
635.365	35.75
635.555	35.99
635.745	35.98
635.935	36.02
636.125	36.03
636.315	36.17
636.505	36.12
636.695	35.99
636.885	36.31
637.075	36.38
637.265	36.34
637.455	36.33
637.644	36.22
637.834	36.22
638.024	35.9
638.214	36.03
638.404	36.05
638.593	36.32
638.783	36.14
638.973	36.17
639.163	36.21
639.352	35.97
639.542	36.25
639.732	36.22
639.921	35.88
640.111	36.15
640.301	35.72
640.49	35.59
640.68	35.42
640.87	35.62
641.059	35.49
641.249	35.43
641.438	35.44
641.628	35.06
641.817	35.25
642.007	35.61
642.196	35.87
642.386	36.17
642.575	36.05
642.764	36.38
642.954	36.33
643.143	36.49
643.333	36.68
643.522	36.13
643.711	36.29
643.901	36.01
644.09	35.98
644.279	35.63
644.469	35.9
644.658	35.89
644.847	35.54
645.036	35.34
645.226	35.19
645.415	35.19
645.604	35.76
645.793	35.79
645.982	35.79
646.171	35.67
646.361	35.59
646.55	35.02
646.739	34.89
646.928	35.27
647.117	35.68
647.306	35.62
647.495	35.47
647.684	35.46
647.873	35.68
648.062	35.68
648.251	35.91
648.44	36.14
648.629	36.96
648.818	37.48
649.007	37.46
649.196	37.29
649.384	37.36
649.573	37.79
649.762	37.94
649.951	37.92
650.14	37.86
650.328	37.75
650.517	37.66
650.706	37.17
650.895	36.64
651.083	36.41
651.272	36.31
651.461	36.4
651.65	35.6
651.838	35.45
652.027	35.22
652.216	35.49
652.404	35.58
652.593	35.95
652.781	35.91
652.97	36.26
653.158	35.87
653.347	35.78
653.535	36.01
653.724	36.25
653.912	36.04
654.101	36.3
654.289	36.29
654.478	36.5
654.666	36.22
654.855	36.31
655.043	36.16
655.231	36.66
655.42	37.08
655.608	36.41
655.796	36.53
655.985	37
656.173	37.13
656.361	36.99
656.55	36.8
656.738	37.15
656.926	37.06
657.114	37.05
657.302	37.02
657.491	36.57
657.679	36.96
657.867	37.09
658.055	36.72
658.243	36.31
658.431	36.19
658.619	36.32
658.807	35.97
658.996	35.86
659.184	35.76
659.372	35.61
659.56	35.76
659.748	35.63
659.936	35.29
660.124	35.38
660.311	35.92
660.499	36.22
660.687	35.79
660.875	35.98
661.063	36.16
661.251	36.68
661.439	36.82
661.627	37.29
661.814	37.6
662.002	38.22
662.19	38.32
662.378	38.1
662.565	38.12
662.753	38.52
662.941	38.84
663.129	38.66
663.316	38.59
663.504	38.55
663.692	38.04
663.879	38.11
664.067	37.6
664.254	37.55
664.442	37.43
664.63	37.48
664.817	37.43
665.005	36.97
665.192	37.48
665.38	37.73
665.567	37.84
665.755	38.18
665.942	37.82
666.13	38
666.317	37.84
666.504	37.34
666.692	36.77
666.879	36.74
667.067	36.64
667.254	36.1
667.441	36.03
667.629	36.05
667.816	36.1
668.003	36.03
668.19	35.94
668.378	36.31
668.565	36.72
668.752	37.04
668.939	37.55
669.127	37.75
669.314	37.86
669.501	38.07
669.688	38.12
669.875	37.61
670.062	38.04
670.249	38.4
670.436	38.12
670.623	38.5
670.81	38.39
670.997	37.84
671.184	37.59
671.371	37.92
671.558	37.46
671.745	37.6
671.932	38.26
672.119	37.63
672.306	37.14
672.493	37.26
672.68	36.81
672.867	36.78
673.054	36.66
673.24	37.2
673.427	36.85
673.614	36.79
673.801	36.65
673.988	35.81
674.174	35.98
674.361	36.16
674.548	36.22
674.734	36.67
674.921	36.31
675.108	36.43
675.294	36.78
675.481	36.43
675.668	36.46
675.854	36.43
676.041	36.96
676.227	36.92
676.414	37.07
676.601	37.1
676.787	36.94
676.974	37.35
677.16	37.23
677.347	36.85
677.533	37.38
677.719	37.56
677.906	37.29
678.092	37.08
678.279	37.48
678.465	37.22
678.651	36.89
678.838	37.07
679.024	37.55
679.21	37.47
679.397	37.63
679.583	36.72
679.769	36.79
679.955	37
680.142	36.94
680.328	36.61
680.514	36.68
680.7	36.9
680.886	36.7
681.073	36.13
681.259	36.28
681.445	35.59
681.631	36.02
681.817	35.75
682.003	35.46
682.189	35.56
682.375	35.62
682.561	35.55
682.747	35.63
682.933	35.36
683.119	35.47
683.305	35.44
683.491	35.99
683.677	36.7
683.863	36.87
684.049	37.02
684.235	37.15
684.42	37.22
684.606	37.55
684.792	37.33
684.978	37.18
685.164	37.54
685.349	37.24
685.535	37.47
685.721	37.63
685.907	37.42
686.092	37.89
686.278	37.73
686.464	38.07
686.649	37.66
686.835	38.2
687.021	38.62
687.206	38.76
687.392	39.29
687.577	39.09
687.763	39.15
687.948	39.15
688.134	38.61
688.319	38.76
688.505	38.21
688.69	38.42
688.876	38.28
689.061	38.88
689.247	38.58
689.432	38.15
689.618	37.73
689.803	37.31
689.988	37.34
690.174	38.03
690.359	37.57
690.544	37.5
690.73	36.92
690.915	36.71
691.1	36
691.285	35.7
691.471	36.6
691.656	37.15
691.841	37.39
692.026	37.12
692.211	36.62
692.396	36.83
692.582	37.37
692.767	38.16
692.952	38.25
693.137	38.26
693.322	39.05
693.507	38.59
693.692	38.41
693.877	38.04
694.062	38.74
694.247	39.66
694.432	40.64
694.617	40.01
694.802	39.77
694.987	39.69
695.172	39.93
695.357	39.4
695.541	39.35
695.726	39.35
695.911	40.04
696.096	39.5
696.281	38.49
696.466	38
696.65	38.49
696.835	38.43
697.02	38.45
697.204	38.27
697.389	38.16
697.574	37.78
697.759	37.98
697.943	37.28
698.128	37.37
698.312	37.56
698.497	37.75
698.682	37.51
698.866	37.24
699.051	37.15
699.235	37
699.42	37.15
699.604	37.1
699.789	36.7
699.973	36.7
700.158	36.99
700.342	37.22
700.527	36.97
700.711	37.23
700.895	37.77
701.08	38.1
701.264	38.14
701.448	37.92
701.633	37.89
701.817	37.99
702.001	38.44
702.186	38.42
702.37	38.21
702.554	38.2
702.738	38.54
702.923	38.45
703.107	38.45
703.291	38.4
703.475	38.6
703.659	39.05
703.843	39.52
704.027	39.58
704.212	38.94
704.396	38.77
704.58	38.45
704.764	38.29
704.948	38.54
705.132	38.65
705.316	39.89
705.5	40.59
705.684	41.3
705.868	41.61
706.052	41.34
706.235	42.22
706.419	42.39
706.603	43.02
706.787	43.12
706.971	43.35
707.155	43.45
707.339	43.16
707.522	43.37
707.706	42.77
707.89	42.79
708.074	43.38
708.257	43.93
708.441	44.31
708.625	44.35
708.808	43.95
708.992	43.86
709.176	43.09
709.359	42.56
709.543	41.91
709.727	41.87
709.91	41.34
710.094	40.52
710.277	40.36
710.461	40.18
710.644	39.98
710.828	40.2
711.011	39.95
711.195	40.53
711.378	41.19
711.562	40.95
711.745	40.85
711.928	40.97
712.112	41.9
712.295	41.45
712.478	41.55
712.662	41.49
712.845	41.4
713.028	40.63
713.212	40.5
713.395	39.82
713.578	38.86
713.761	38.72
713.945	38.71
714.128	37.84
714.311	37.45
714.494	37.37
714.677	37.39
714.86	37.25
715.043	38.01
715.227	38.25
715.41	37.72
715.593	38.59
715.776	38.3
715.959	38.28
716.142	38.19
716.325	38.33
716.508	37.7
716.691	37.16
716.874	37.1
717.057	37.18
717.239	36.45
717.422	37.04
717.605	37.16
717.788	37.66
717.971	37.88
718.154	38.14
718.337	37.51
718.519	37.88
718.702	39.45
718.885	39.31
719.068	39.82
719.25	40.04
719.433	39.6
719.616	38.76
719.798	38.81
719.981	38.47
720.164	38.08
720.346	38.12
720.529	38.03
720.712	36.46
720.894	36.79
721.077	36.08
721.259	36.46
721.442	36.34
721.624	37.63
721.807	37.81
721.989	37.15
722.172	38.09
722.354	38.41
722.537	38.5
722.719	39.65
722.901	39.58
723.084	39.71
723.266	38.66
723.448	38.8
723.631	39.23
723.813	40.24
723.995	39.74
724.178	39.02
724.36	40.05
724.542	40.24
724.724	40.05
724.907	39.82
725.089	39.35
725.271	40.31
725.453	40.49
725.635	39.05
725.817	38.18
725.999	39.05
726.181	39.87
726.364	39.4
726.546	39.33
726.728	39.04
726.91	38.76
727.092	38.81
727.274	38.26
727.456	38.67
727.638	39.32
727.819	38.77
728.001	39.11
728.183	38.68
728.365	38.86
728.547	38.89
728.729	38.19
728.911	38.54
729.093	38.51
729.274	39.09
729.456	38.44
729.638	38.96
729.82	38.8
730.001	38.61
730.183	38.75
730.365	38.67
730.546	38.64
730.728	38.87
730.91	39.14
731.091	38.77
731.273	38.7
731.455	38.99
731.636	38.5
731.818	39.33
731.999	39.05
732.181	39.27
732.362	38.59
732.544	38.11
732.725	38.02
732.907	37.79
733.088	38.19
733.27	38.08
733.451	37.98
733.633	36.71
733.814	35.55
733.995	35.43
734.177	34.22
734.358	34.9
734.539	34.85
734.721	34.64
734.902	34.07
735.083	33.47
735.264	33.63
735.446	33.77
735.627	35.52
735.808	36.48
735.989	36.19
736.17	36.93
736.351	36.21
736.533	36.53
736.714	36.47
736.895	36.72
737.076	38.1
737.257	38.8
737.438	38.49
737.619	37.62
737.8	37.36
737.981	38.16
738.162	37.83
738.343	38.65
738.524	38.74
738.705	39.3
738.886	38.8
739.067	37.05
739.247	36.68
739.428	36.21
739.609	37.36
739.79	37.43
739.971	38.15
740.151	38.43
740.332	37.59
740.513	38.12
740.694	37.84
740.874	38.81
741.055	38.76
741.236	37.87
741.417	38.68
741.597	38.21
741.778	38.78
741.958	38.18
742.139	38.43
742.32	38.74
742.5	39.57
742.681	39.73
742.861	40.3
743.042	40.21
743.222	41.78
743.403	41.32
743.583	41.42
743.764	40.47
743.944	40.47
744.124	39.69
744.305	39.36
744.485	37.56
744.666	37.57
744.846	36.91
745.026	37.23
745.207	35.43
745.387	35.71
745.567	35.38
745.747	35.07
745.928	35.02
746.108	35.58
746.288	37.49
746.468	37.74
746.648	38.25
746.829	37.99
747.009	39.35
747.189	40.33
747.369	39.61
747.549	39.3
747.729	39.8
747.909	39.33
748.089	38.66
748.269	36.83
748.449	37.32
748.629	36.96
748.809	37.11
748.989	37.56
749.169	37.07
749.349	37.18
749.529	37.33
749.709	37.22
749.889	36.72
750.068	37.45
750.248	37.01
750.428	36.5
750.608	36.91
750.788	37.16
750.967	35.55
751.147	35.16
751.327	37.4
751.507	36.44
751.686	36.83
751.866	37.04
752.046	35.9
752.225	36.8
752.405	37.27
752.585	37.83
752.764	37.14
752.944	37.38
753.123	37.78
753.303	34.67
753.482	34.96
753.662	35.21
753.841	36.11
754.021	37
754.2	37.26
754.38	37.71
754.559	37.25
754.739	37.12
754.918	36.94
755.097	36.69
755.277	38.95
755.456	39.71
755.635	38.38
755.815	38.43
755.994	38.8
756.173	38.8
756.352	38.55
756.532	38.36
756.711	38.36
756.89	38.8
757.069	39.48
757.248	37.87
757.427	36.97
757.607	37.76
757.786	38.07
757.965	37.69
758.144	37.09
758.323	36.18
758.502	37.19
758.681	37.48
758.86	38.13
759.039	38.33
759.218	38.73
759.397	40.53
759.576	40.13
759.755	39.62
759.934	40.41
760.113	40.45
760.291	41.05
760.47	40.27
760.649	40.07
760.828	40.34
761.007	40.02
761.186	41.58
761.364	40.76
761.543	41.17
761.722	40
761.901	38.75
762.079	38.55
762.258	38.11
762.437	37.93
762.615	37.43
762.794	37.05
762.972	36.83
763.151	36.26
763.33	36.74
763.508	36.95
763.687	37.22
763.865	37.24
764.044	37.58
764.222	36.85
764.401	36.49
764.579	37.8
764.758	37.44
764.936	37.72
765.114	37.86
765.293	37.04
765.471	37.72
765.65	37.53
765.828	38.24
766.006	38.42
766.184	39.62
766.363	40.25
766.541	40.51
766.719	40.69
766.898	40.86
767.076	40.18
767.254	41.24
767.432	40.26
767.61	41.44
767.788	41.97
767.967	42.37
768.145	42.86
768.323	41.83
768.501	42.17
768.679	43.69
768.857	42.62
769.035	43.72
769.213	42.88
769.391	41.75
769.569	41.02
769.747	38.64
769.925	38.37
770.103	38.03
770.281	38.14
770.459	36.79
770.636	37.51
770.814	39.74
770.992	39.61
771.17	39.13
771.348	39.62
771.525	41.22
771.703	41.26
771.881	40.88
772.059	39.32
772.236	39.41
772.414	36.86
772.592	34.87
772.769	33.05
772.947	32.24
773.125	32.2
773.302	31.63
773.48	31.09
773.657	32.81
773.835	32.68
774.013	32.56
774.19	31.45
774.368	34.22
774.545	34.34
774.723	32.2
774.9	34.19
775.077	33.85
775.255	35.7
775.432	34.99
775.61	36.2
775.787	34.9
775.964	35.81
776.142	38.15
776.319	37.78
776.496	38.29
776.674	40.81
776.851	38.92
777.028	36.88
777.205	34.61
777.382	33.59
777.56	31.8
777.737	33.87
777.914	33.54
778.091	34.05
778.268	34.74
778.445	33.64
778.622	33.91
778.8	33.54
778.977	36.05
779.154	39.34
779.331	40.34
779.508	41.15
779.685	38.14
779.862	38.87
780.038	38.08
780.215	37.68
780.392	37.54
780.569	35.15
780.746	36.45
780.923	36.31
781.1	33.94
781.277	33.52
781.453	36.11
781.63	38.92
781.807	39.56
781.984	39.81
782.16	39.32
782.337	40.15
782.514	41.21
782.691	40.8
782.867	40.27
783.044	40.15
783.221	40.38
783.397	39.92
783.574	37.91
783.75	37.01
783.927	36.91
784.103	37.27
784.28	39.48
784.456	40.24
784.633	37.81
784.809	40.41
784.986	42.26
785.162	42.72
785.339	40.36
785.515	41.46
785.692	44.14
785.868	43.82
786.044	45.19
786.221	41.56
786.397	42.06
786.573	42.68
786.749	41.35
786.926	41.61
787.102	41.3
787.278	43.14
787.454	43.04
787.631	39.86
787.807	39.1
787.983	38.72
788.159	37.47
788.335	35.82
788.511	37.62
788.687	35.57
788.863	36.37
789.039	38.05
789.216	35.15
789.392	34.76
789.568	34.35
789.744	36.16
789.919	35.54
790.095	37.66
790.271	39.49
790.447	36.79
790.623	39.86
790.799	39.18
790.975	36.33
791.151	38.37
791.327	42.31
791.502	44.1
791.678	42.6
791.854	42.36
792.03	42.87
792.205	43.67
792.381	47.47
792.557	47.14
792.733	45.44
792.908	45.82
793.084	46.88
793.259	44.11
793.435	45.16
793.611	48.89
793.786	47.4
793.962	46.9
794.137	46.76
794.313	45.25
794.488	46.24
794.664	46.15
794.839	44.26
795.015	44.29
795.19	43.27
795.366	39.58
795.541	35.46
795.716	37.67
795.892	38.64
796.067	37.09
796.242	38.31
796.418	36.59
796.593	38.04
796.768	41.73
796.944	40.2
797.119	42.32
797.294	44.29
797.469	47.43
797.644	47.26
797.82	46.27
797.995	48.98
798.17	45.6
798.345	45.95
798.52	47.04
798.695	44.12
798.87	42.25
799.045	40.31
799.22	40.06
799.395	38.79
799.57	40.3
799.745	39.63
799.92	37.97
800.095	39.51
800.27	37.63
800.445	35.31
800.62	38.66
800.795	40.56
800.97	41.09
801.145	41.7
801.319	41.27
801.494	39.49
801.669	40.04
801.844	38.99
802.018	41.74
802.193	46.1
802.368	46.45
802.543	41.85
802.717	43.44
802.892	43.89
803.067	44.68
803.241	45.63
803.416	46.59
803.59	47.34
803.765	49.18
803.94	44.62
804.114	40.99
804.289	39.19
804.463	40.86
804.638	37.87
804.812	36.7
804.986	38.11
805.161	36.38
805.335	34.94
805.51	34.54
805.684	31.21
805.858	33.8
806.033	31.52
806.207	28.97
806.381	30.3
806.556	30.47
806.73	30.88
806.904	29.96
807.078	26.63
807.253	28.56
807.427	28.77
807.601	31.93
807.775	31.54
807.949	33.95
808.123	39.64
808.298	39.82
808.472	42.02
808.646	42.54
808.82	39.81
808.994	43.23
809.168	39.83
809.342	38.4
809.516	36.53
809.69	35.61
809.864	35.19
810.038	34.35
810.212	30.65
810.385	28.14
810.559	29.05
810.733	29.09
810.907	26.5
811.081	29.53
811.255	29.91
811.428	29.95
811.602	31.41
811.776	34.45
811.95	34.7
812.123	39.38
812.297	41.72
812.471	41.08
812.644	40.38
812.818	40.31
812.992	35.47
813.165	36.74
813.339	38.96
813.512	38.41
813.686	38.04
813.86	40.82
814.033	39.81
814.207	34.68
814.38	36.11
814.554	42.32
814.727	44.73
814.9	42.74
815.074	42.51
815.247	38.59
815.421	37.62
815.594	38.53
815.767	32.44
815.941	32.7
816.114	35.63
816.287	36.24
816.46	29.19
816.634	28.73
816.807	33.11
816.98	34.2
817.153	38.1
817.327	37.68
817.5	33.5
817.673	34.96
817.846	31.75
818.019	37.18
818.192	38.21
818.365	40.78
818.538	44.47
818.711	44.42
818.884	40.71
819.057	35.57
819.23	37.37
819.403	37.15
819.576	35.99
819.749	36.37
819.922	34.14
820.095	33.03
820.268	34.87
820.441	34.96
820.614	35.25
820.786	36.82
820.959	40.54
821.132	38.4
821.305	38.89
821.477	40.02
821.65	39.75
821.823	39.28
821.996	38.78
822.168	38.59
822.341	38.22
822.514	38.09
822.686	38.53
822.859	38.25
823.031	38.81
823.204	38.63
823.376	38.18
823.549	38.09
823.722	38.5
823.894	38.86
824.067	38.66
824.239	38.39
824.411	38.46
824.584	38
824.756	37.49
824.929	37.33
825.101	37.39
825.273	37.41
825.446	37.03
825.618	36.14
825.79	36.46
825.963	35.82
826.135	36.19
826.307	36.18
826.479	35.78
826.652	36.66
826.824	35.39
826.996	35.29
827.168	35.3
827.34	36.52
827.512	37.61
827.684	36.6
827.856	37.39
828.029	37.22
828.201	36.96
828.373	37.4
828.545	37.06
828.717	38.12
828.889	37.89
829.061	37.81
829.232	38.66
829.404	37.44
829.576	38.72
829.748	38.23
829.92	39.03
830.092	39.69
830.264	38.94
830.436	38.95
830.607	40.5
830.779	41.42
830.951	40.42
831.123	38.46
831.294	38.18
831.466	34.59
831.638	33.28
831.809	30.75
831.981	30.22
832.153	32.85
832.324	31.32
832.496	31.11
832.667	30.7
832.839	33.51
833.011	32.66
833.182	32.93
833.354	32.59
833.525	36.07
833.697	37.74
833.868	39.54
834.039	40.06
834.211	42.64
834.382	42.27
834.554	42.08
834.725	42.36
834.896	42.37
835.068	42.72
835.239	43.58
835.41	44.07
835.581	44.46
835.753	43.01
835.924	42.21
836.095	39.99
836.266	40.76
836.438	40.69
836.609	38.79
836.78	39.86
836.951	40.91
837.122	42.4
837.293	41.25
837.464	38.65
837.635	38.35
837.806	38.44
837.977	36.57
838.148	34.03
838.319	34.53
838.49	36.69
838.661	34.31
838.832	32.15
839.003	30.48
839.174	26.46
839.345	28.36
839.516	27.82
839.687	20.33
839.857	25.28
840.028	29.73
840.199	29.12
840.37	27.4
840.54	37.07
840.711	39.61
840.882	36.32
841.053	39.58
841.223	38.78
841.394	41.68
841.564	44.61
841.735	42.52
841.906	41.34
842.076	42.04
842.247	45.22
842.417	39.39
842.588	39.73
842.758	45.05
842.929	36.61
843.099	38.25
843.27	38.33
843.44	34.77
843.611	39.37
843.781	35.81
843.951	31.7
844.122	30.13
844.292	24.24
844.462	16.18
844.633	15.49
844.803	28.75
844.973	32.56
845.144	32.64
845.314	36.63
845.484	34.31
845.654	40.1
845.824	41.59
845.995	40.69
846.165	46.61
846.335	59.2
846.505	60.45
846.675	46.26
846.845	30.84
847.015	21.17
847.185	17.73
847.355	9.44
847.525	5.38
847.695	0.99
847.865	-8.4
848.035	-18.96
848.205	-47.15
848.375	-36.45
848.545	-31.21
848.715	-29.67
848.884	-37.45
849.054	-65.25
849.224	-71.7
849.394	-54.81
849.564	-30.17
849.733	-1.8
849.903	-8.95
850.073	15.85
850.243	8.98
850.412	-1.41
850.582	-13.99
850.752	-31.91
850.921	-19.66
851.091	-18.21
851.26	-33.61
851.43	-44.91
851.599	-70.5
851.769	-54.41
851.939	-73.96
852.108	-120.38
852.278	-125.66
852.447	-87.07
852.616	-9.76
852.786	-0.95
852.955	4.49
853.125	5.34
853.294	18.06
853.463	1.9
853.633	2.49
853.802	6.01
853.971	12.99
854.141	15.89
854.31	7.68
854.479	-52.15
854.648	-32.76
854.818	-42.94
854.987	-46.79
855.156	-60.15
855.325	-10.99
855.494	-35.14
855.663	-63.9
855.832	-113.35
856.001	-97.81
856.171	-82.69
856.34	-59.95
856.509	-75.89
856.678	-38.81
856.847	-18.92
857.016	-9.48
857.185	-7.62
857.353	18.18
857.522	20.24
857.691	37.69
857.86	27.4
858.029	41.56
858.198	33.62
858.367	27.85
858.535	24.17
858.704	17.27
858.873	30.26
859.042	27.88
859.21	29.25
859.379	20.61
859.548	9.95
859.717	4.26
859.885	1.02
860.054	6
860.222	6.84
860.391	7.5
860.56	7.98
860.728	9.35
860.897	7.13
861.065	9.1
861.234	21.83
861.402	22.76
861.571	17.58
861.739	23.91
861.908	20.15
862.076	16.41
862.244	0.58
862.413	8.43
862.581	-1.98
862.749	-44.09
862.918	-62.08
863.086	-115.76
863.254	-83.59
863.423	-76.58
863.591	18.48
863.759	117.53
863.927	342.97
864.096	1798.99
864.264	-352.35
864.432	-578.71
864.6	1241.27
864.768	312.19
864.936	190.28
865.104	128.44
865.272	85.54
865.44	51.8
865.608	49.39
865.776	18.58
865.944	-28.61
866.112	-5.63
866.28	-7.08
866.448	0.12
866.616	21.46
866.784	29.6
866.952	7.35
867.12	15.27
867.288	13.54
867.455	1.05
867.623	4.54
867.791	6.15
867.959	-3.99
868.127	1.98
868.294	8.67
868.462	-21.18
868.63	-45.82
868.797	-65.11
868.965	-158.37
869.133	-135.87
869.3	-156.73
869.468	-57.43
869.636	15.11
869.803	-12.65
869.971	-23.42
870.138	-21.79
870.306	-4.74
870.473	1.72
870.641	9.13
870.808	11.54
870.975	3.15
871.143	17.16
871.31	7.48
871.478	-78.42
871.645	-11.87
871.812	-38.38
871.98	-72.46
872.147	-129.65
872.314	-84.58
872.482	-134.12
872.649	-198.17
872.816	-95.54
872.983	-296.07
873.15	-105.76
873.318	-83.27
873.485	-117
873.652	-2.7
873.819	31.01
873.986	20.12
874.153	13.34
874.32	51.56
874.487	75.68
874.654	87.81
874.821	96.48
874.988	111.23
875.155	99.63
875.322	86.3
875.489	59.14
875.656	55.71
875.823	61.31
875.99	68.95
876.157	46.14
876.324	45.26
876.49	40.65
876.657	31.1
876.824	28.88
876.991	20.57
877.157	8.15
877.324	37.41
877.491	59.96
877.658	50.25
877.824	31.39
877.991	53.79
878.157	41.11
878.324	33.15
878.491	29.56
878.657	20.12
878.824	26.3
878.99	41.48
879.157	13.87
879.323	-15.74
879.49	31.15
879.656	44.46
879.823	40.89
879.989	38.99
880.156	33.98
880.322	34.8
880.488	44.97
880.655	64.91
880.821	39.29
880.987	52.59
881.154	57.43
881.32	56
881.486	52.03
881.652	47.25
881.819	48.81
881.985	50.51
882.151	49.57
882.317	43.87
882.483	36.24
882.649	40.73
882.816	38.52
882.982	37.15
883.148	35.68
883.314	36.88
883.48	37.09
883.646	34.53
883.812	35.06
883.978	35.71
884.144	34.65
884.31	35.28
884.476	35.18
884.642	36.02
884.807	37.9
884.973	40.21
885.139	39.94
885.305	40.61
885.471	42.45
885.637	42.08
885.802	40.49
885.968	41.62
886.134	43.12
886.3	41.9
886.465	41
886.631	40.31
886.797	36.78
886.962	35
887.128	32.33
887.293	32.97
887.459	29.15
887.625	32.99
887.79	37.75
887.956	39.51
888.121	44.19
888.287	47.61
888.452	46.04
888.618	51.8
888.783	64.9
