Data from CB_015_Reflection_2.txt Node
Date: Wed Nov 11 19:01:44 EST 2015
User: robert
Spectrometer: USB4E03001
Autoset integration time: false
Trigger mode: 4
Integration Time (sec): 1.000000E-1
Scans to average: 15
Electric dark correction enabled: true
Nonlinearity correction enabled: false
Boxcar width: 5
Stray light correction enabled: false
XAxis mode: Wavelengths
Stop averaging: false
Number of Pixels in Spectrum: 3648
>>>>>Begin Spectral Data<<<<<
177.566	12.75
177.785	11.83
178.005	31.76
178.225	-601.99
178.445	285.09
178.665	125.31
178.885	173.41
179.105	85.46
179.324	137.13
179.544	-21.24
179.764	-46.87
179.984	-4.73
180.204	80.52
180.423	59.9
180.643	-97.4
180.863	595.95
181.083	1542.15
181.302	399.02
181.522	-819.46
181.742	-200.16
181.961	136.79
182.181	104.81
182.401	179.88
182.621	1117.72
182.84	217.83
183.06	203.87
183.279	259.33
183.499	587.36
183.719	501.61
183.938	308.04
184.158	490.18
184.377	-992.59
184.597	-89.69
184.816	-59.8
185.036	-66.75
185.256	7.89
185.475	254.85
185.695	-1980.46
185.914	78.34
186.134	70.69
186.353	87.88
186.572	142.43
186.792	111.95
187.011	145.48
187.231	106.84
187.45	161.13
187.67	121.72
187.889	1154.11
188.108	526.65
188.328	1156.22
188.547	-822.46
188.766	-1209.26
188.986	525.85
189.205	-31054.55
189.424	751.75
189.644	7118.18
189.863	310.72
190.082	343.79
190.302	223.94
190.521	85.57
190.74	81.31
190.959	76.83
191.178	80.89
191.398	88.48
191.617	58.15
191.836	67.25
192.055	71.22
192.274	71.19
192.494	43.29
192.713	69
192.932	98.77
193.151	96.82
193.37	105.17
193.589	102.76
193.808	100.96
194.027	132.02
194.246	130.74
194.465	131.59
194.685	133.46
194.904	185.87
195.123	538.44
195.342	1945.74
195.561	250.93
195.78	217.63
195.999	223.94
196.218	1134.2
196.436	-223.29
196.655	-698.85
196.874	306.21
197.093	207.11
197.312	-8.49
197.531	162.4
197.75	62.07
197.969	29.86
198.188	42.55
198.407	35.38
198.625	24.22
198.844	-30.09
199.063	-107.38
199.282	-97.83
199.501	-39.81
199.719	-86.93
199.938	-1597.27
200.157	182.9
200.376	152.95
200.594	207.75
200.813	-9194.29
201.032	726.91
201.251	216.09
201.469	284.03
201.688	256.76
201.907	238.55
202.125	222.74
202.344	135.31
202.563	171.48
202.781	182.23
203	180.2
203.218	132.04
203.437	145.79
203.656	147.53
203.874	114.33
204.093	131.51
204.311	93.97
204.53	82.57
204.748	89.94
204.967	82.78
205.185	65.22
205.404	91.03
205.622	93.02
205.841	107.89
206.059	132.09
206.278	123.06
206.496	73.16
206.715	149.62
206.933	204.88
207.151	149.87
207.37	181.31
207.588	228.69
207.806	263.85
208.025	374.19
208.243	207.48
208.461	121.62
208.68	118.26
208.898	205.04
209.116	214.47
209.335	147.43
209.553	-320.92
209.771	155.63
209.989	-234.78
210.208	15.03
210.426	-213.86
210.644	-88.46
210.862	-73.53
211.081	-52.81
211.299	-58.44
211.517	-212.75
211.735	-214.47
211.953	-336.13
212.171	-95.48
212.39	-641.52
212.608	-1988.28
212.826	269.76
213.044	171.49
213.262	98.03
213.48	116.56
213.698	117.46
213.916	-111.42
214.134	-42.67
214.352	-521.13
214.57	566.39
214.788	250.45
215.006	225.26
215.224	230.96
215.442	167.83
215.66	142.07
215.878	156.31
216.096	144.11
216.314	118.17
216.532	119.86
216.75	102.44
216.968	93.39
217.185	111.65
217.403	134.71
217.621	101.46
217.839	95.35
218.057	2303.02
218.275	-707.54
218.492	-75.82
218.71	-22.83
218.928	-40.79
219.146	-39.64
219.363	-30.62
219.581	-65.68
219.799	-57.5
220.017	-36.04
220.234	-33.58
220.452	-50.04
220.67	-66.16
220.887	-111.89
221.105	-109.95
221.323	-110.67
221.54	-22.71
221.758	23.35
221.976	20.09
222.193	-5.92
222.411	-62.52
222.629	-99.97
222.846	-111.75
223.064	-84.06
223.281	-99.97
223.499	-124.1
223.716	-154.93
223.934	-655.56
224.151	-1346.68
224.369	-755.96
224.586	384650
224.804	-1309.28
225.021	-588.37
225.239	-428.24
225.456	-349.29
225.674	-291.75
225.891	-90.15
226.108	-76.36
226.326	-53.63
226.543	-49.35
226.76	-46.83
226.978	-29.12
227.195	-27.72
227.413	-13.22
227.63	-4.6
227.847	-7.55
228.064	-3
228.282	0.14
228.499	5.45
228.716	5.23
228.934	5.37
229.151	7.73
229.368	9.35
229.585	6.88
229.802	6.03
230.02	5.32
230.237	4.26
230.454	7.6
230.671	9.36
230.888	3.79
231.105	5.95
231.323	9.15
231.54	14.26
231.757	8.24
231.974	9
232.191	6.78
232.408	5.45
232.625	3.98
232.842	0.56
233.059	-5.51
233.276	4.7
233.493	5
233.71	6.75
233.927	3.85
234.144	15.85
234.361	15.59
234.578	16.35
234.795	19.24
235.012	13.51
235.229	9.92
235.446	9.83
235.663	4.46
235.879	9.06
236.096	4.12
236.313	-3.28
236.53	-10.54
236.747	-2.8
236.964	-1.39
237.181	-7.36
237.397	8.29
237.614	12.21
237.831	10.88
238.048	10.36
238.264	2.27
238.481	8.47
238.698	5.8
238.915	1.75
239.131	-9.62
239.348	-15.93
239.565	-11.13
239.781	-17.62
239.998	-18.4
240.215	-18.91
240.431	-18.32
240.648	-14.03
240.865	-13.99
241.081	-12.26
241.298	-7.3
241.514	-3.04
241.731	-1.04
241.947	-1.68
242.164	0.57
242.38	1.05
242.597	2.85
242.814	3.55
243.03	1.87
243.246	2.43
243.463	3.95
243.679	2.73
243.896	2.6
244.112	2.99
244.329	5.07
244.545	6.09
244.762	6.22
244.978	7.96
245.194	6.15
245.411	6.68
245.627	3.57
245.843	4.08
246.06	6.43
246.276	5.61
246.492	4.89
246.709	5.07
246.925	3.32
247.141	4.05
247.357	4.05
247.574	4.86
247.79	5.95
248.006	6.66
248.222	6.68
248.439	6.09
248.655	6.72
248.871	7.01
249.087	7.07
249.303	9.09
249.519	8.4
249.736	6.5
249.952	6.36
250.168	3.28
250.384	3.58
250.6	2.2
250.816	1.26
251.032	0.09
251.248	0.88
251.464	0.19
251.68	-1.01
251.896	1.94
252.112	1.82
252.328	3.01
252.544	5.09
252.76	5.47
252.976	6.62
253.192	7.87
253.408	7.87
253.624	8.11
253.84	5.48
254.056	6.78
254.272	3.87
254.487	6.09
254.703	4.76
254.919	2.5
255.135	1.13
255.351	-0.62
255.567	-3.95
255.782	-1.22
255.998	-1.05
256.214	2.06
256.43	3.15
256.646	3.6
256.861	2.27
257.077	2.53
257.293	-0.41
257.508	1.07
257.724	1.32
257.94	1.96
258.155	1.43
258.371	2.13
258.587	1.49
258.802	0.48
259.018	0.21
259.234	0.88
259.449	1.65
259.665	2.64
259.88	2.39
260.096	2.04
260.312	2.34
260.527	2.59
260.743	2.11
260.958	2.06
261.174	1.87
261.389	1.6
261.605	0.72
261.82	1.02
262.036	1.22
262.251	1.42
262.466	2.4
262.682	0.81
262.897	0.61
263.113	1.11
263.328	2.62
263.543	3.92
263.759	4.27
263.974	5.2
264.189	3.18
264.405	2.18
264.62	-0.13
264.835	-1.74
265.051	0.31
265.266	-2.72
265.481	-1.8
265.696	-2.5
265.912	-4.57
266.127	-3.58
266.342	-2.44
266.557	-4.08
266.773	-2.56
266.988	-0.57
267.203	-1.06
267.418	-1.01
267.633	-0.21
267.848	-1.33
268.064	-1.46
268.279	0.11
268.494	-0.27
268.709	-0.77
268.924	0.45
269.139	1.38
269.354	0.99
269.569	2.3
269.784	1.62
269.999	1.67
270.214	1.49
270.429	0.35
270.644	-0.71
270.859	-0.01
271.074	0.88
271.289	1.17
271.504	1.29
271.719	0.62
271.934	0.46
272.149	1.33
272.363	1.47
272.578	2.28
272.793	4.62
273.008	4.85
273.223	4.43
273.438	4.39
273.653	5.04
273.867	4.38
274.082	3.66
274.297	3.77
274.512	2.29
274.726	3.76
274.941	2.73
275.156	0.6
275.371	-1.25
275.585	-1.68
275.8	-1.87
276.015	-3.94
276.229	-4.88
276.444	-1.31
276.659	-3.43
276.873	-1.65
277.088	-3.48
277.302	-2.98
277.517	-3.48
277.732	-1.97
277.946	-1.35
278.161	-2.22
278.375	-1.62
278.59	-1.81
278.804	-4.1
279.019	-1.82
279.233	-1.58
279.448	-1.6
279.662	-0.62
279.877	-0.44
280.091	1.39
280.306	2.69
280.52	3.17
280.735	3.14
280.949	5.4
281.163	6.14
281.378	6.69
281.592	6.91
281.806	7.74
282.021	6.98
282.235	5.98
282.449	5.56
282.664	4.71
282.878	4.01
283.092	4.99
283.307	3.21
283.521	3.24
283.735	3.27
283.949	2.28
284.164	2.69
284.378	3.96
284.592	5.79
284.806	5.35
285.02	5.04
285.234	5.93
285.449	5.83
285.663	7.07
285.877	6.42
286.091	6.18
286.305	6.22
286.519	5.18
286.733	4.39
286.947	3.31
287.161	3
287.375	3.62
287.589	2.61
287.803	3.21
288.017	2.31
288.231	1.77
288.445	1.92
288.659	0.92
288.873	1.38
289.087	1.68
289.301	2.13
289.515	3.02
289.729	2.52
289.943	2.55
290.157	1.35
290.371	1.49
290.584	3.28
290.798	3.96
291.012	4.2
291.226	4.65
291.44	3.51
291.654	3.54
291.867	3.47
292.081	3.66
292.295	4.46
292.509	5.74
292.722	5.52
292.936	3.48
293.15	1.18
293.364	2.07
293.577	2.04
293.791	3.28
294.005	3.2
294.218	3.55
294.432	3.32
294.645	4.06
294.859	3.4
295.073	3.48
295.286	4.67
295.5	6.68
295.713	6.55
295.927	6.84
296.14	6.76
296.354	6.84
296.568	6.01
296.781	5.68
296.994	4.8
297.208	4.81
297.421	6.57
297.635	6.26
297.848	5.89
298.062	6.72
298.275	6.14
298.489	5.56
298.702	6.11
298.915	6.59
299.129	7.05
299.342	7.83
299.555	8.07
299.769	7.07
299.982	7.13
300.195	7.91
300.409	6.82
300.622	7.5
300.835	7.34
301.048	7.06
301.262	6.86
301.475	7.43
301.688	7.59
301.901	7.5
302.115	7.03
302.328	8.13
302.541	6.88
302.754	7.33
302.967	5.59
303.18	5.78
303.393	5.83
303.607	5.93
303.82	5.5
304.033	5.01
304.246	4.95
304.459	3.71
304.672	2.62
304.885	3.47
305.098	3.47
305.311	5.25
305.524	5.14
305.737	5.97
305.95	5.23
306.163	5.36
306.376	5.4
306.589	6.39
306.802	7.13
307.015	7.23
307.228	5.39
307.44	6.8
307.653	6.66
307.866	7.46
308.079	6.53
308.292	7.01
308.505	7.65
308.718	6.81
308.93	5.47
309.143	6.42
309.356	5.9
309.569	6.74
309.781	5.58
309.994	4.49
310.207	4.99
310.42	6.08
310.632	6.82
310.845	7.03
311.058	8.25
311.27	9.13
311.483	9.19
311.696	9.6
311.908	10.07
312.121	10.61
312.333	11.31
312.546	11.08
312.759	9.93
312.971	8.75
313.184	7.74
313.396	7.69
313.609	7.57
313.821	6.82
314.034	8.45
314.246	7.76
314.459	7.11
314.671	8.61
314.884	9.19
315.096	10.87
315.309	11.25
315.521	11.12
315.733	10.44
315.946	10.58
316.158	10.72
316.371	8.56
316.583	7.88
316.795	7.69
317.008	6.19
317.22	5.32
317.432	5.2
317.644	4.94
317.857	5.72
318.069	5.48
318.281	5.86
318.494	4.65
318.706	4.38
318.918	4.96
319.13	5.65
319.342	6.33
319.555	6.72
319.767	4.59
319.979	4.72
320.191	3.43
320.403	3.69
320.615	2.72
320.827	4.07
321.039	5.69
321.252	6.3
321.464	6.77
321.676	5.37
321.888	4.23
322.1	5.52
322.312	7
322.524	9.26
322.736	9.7
322.948	9.52
323.16	10.27
323.372	10.5
323.584	9.93
323.796	9.45
324.007	10.21
324.219	10.15
324.431	10.96
324.643	10
324.855	8.48
325.067	8.61
325.279	9.17
325.491	7.67
325.702	8.34
325.914	9.41
326.126	9.5
326.338	9.85
326.55	12.18
326.761	12.11
326.973	13
327.185	14.72
327.396	15.22
327.608	14.49
327.82	16.98
328.032	16.51
328.243	16.49
328.455	16.79
328.666	17.15
328.878	14.94
329.09	14.55
329.301	12.51
329.513	11.91
329.725	11.09
329.936	11.59
330.148	10.16
330.359	9.84
330.571	9.92
330.782	10.64
330.994	10.77
331.205	12.25
331.417	12.09
331.628	14.19
331.84	15.13
332.051	15.91
332.262	16.07
332.474	16.03
332.685	16.42
332.897	16.87
333.108	15.69
333.319	15.96
333.531	16.14
333.742	15.96
333.953	16.24
334.165	15.23
334.376	14.53
334.587	15.82
334.799	15.61
335.01	15.43
335.221	15.63
335.432	16.78
335.644	16.15
335.855	15.83
336.066	15.98
336.277	15.51
336.488	16.26
336.7	17.16
336.911	17.26
337.122	17.77
337.333	17.74
337.544	17.61
337.755	18.06
337.966	18.19
338.177	17.95
338.388	17.57
338.599	17.22
338.811	16.93
339.022	16.39
339.233	15.41
339.444	15.97
339.655	16.05
339.866	16.28
340.076	15.54
340.287	16.23
340.498	17.18
340.709	18.64
340.92	19.66
341.131	19.14
341.342	19.27
341.553	20.06
341.764	19.22
341.975	18.3
342.185	17.95
342.396	19
342.607	18.89
342.818	18.04
343.029	17.58
343.239	17.19
343.45	18.46
343.661	18.43
343.872	17.51
344.082	17.21
344.293	18.22
344.504	18.85
344.714	18.57
344.925	18.59
345.136	18.77
345.346	19.48
345.557	20.25
345.768	19.52
345.978	19.96
346.189	20.23
346.399	21.06
346.61	21.45
346.821	21.41
347.031	20.55
347.242	19.67
347.452	19.4
347.663	18.4
347.873	18.26
348.084	18.02
348.294	17.67
348.504	17.39
348.715	16.9
348.925	16.43
349.136	15.69
349.346	16.16
349.557	16.69
349.767	17.3
349.977	17.24
350.188	17.03
350.398	17.5
350.608	18.16
350.819	19.09
351.029	19.34
351.239	19.57
351.449	19.81
351.66	20.14
351.87	20.29
352.08	20.78
352.29	21.21
352.501	20.51
352.711	20.16
352.921	19.64
353.131	19.69
353.341	19.69
353.552	19.61
353.762	19.99
353.972	19.25
354.182	19.28
354.392	17.72
354.602	17.55
354.812	17.81
355.022	18.26
355.232	17.97
355.442	17.49
355.652	17.53
355.862	18.16
356.072	17.61
356.282	18.28
356.492	18.25
356.702	19.23
356.912	19.31
357.122	19.19
357.332	19.25
357.542	18.93
357.752	19.18
357.962	18.89
358.171	18.14
358.381	18.27
358.591	18.94
358.801	19.15
359.011	19.09
359.221	18.93
359.43	19.09
359.64	19.11
359.85	20.23
360.06	19.88
360.269	20.44
360.479	20.62
360.689	20.48
360.899	19.73
361.108	19.83
361.318	19.99
361.528	20.07
361.737	19.85
361.947	19.88
362.156	19.07
362.366	19.24
362.576	18.82
362.785	18.36
362.995	18.51
363.204	18.22
363.414	17.82
363.623	17.8
363.833	18.05
364.042	18.94
364.252	18.8
364.461	19.64
364.671	19.53
364.88	19.84
365.09	19.47
365.299	19.2
365.509	18.43
365.718	18.87
365.927	18.11
366.137	17.5
366.346	16.77
366.555	16.05
366.765	15.21
366.974	15.2
367.183	14.5
367.393	14.86
367.602	14.72
367.811	15.7
368.021	15.39
368.23	16.31
368.439	16.31
368.648	16.26
368.857	16.89
369.067	16.89
369.276	16.84
369.485	17.41
369.694	17.7
369.903	17.68
370.112	17.07
370.321	16.29
370.531	15.61
370.74	15.31
370.949	14.51
371.158	13.51
371.367	13.49
371.576	13.43
371.785	13.16
371.994	13.01
372.203	12.89
372.412	13.26
372.621	14.59
372.83	14.95
373.039	15.27
373.248	16.11
373.457	16.64
373.666	16.38
373.874	16.29
374.083	16.74
374.292	15.96
374.501	16.34
374.71	16.05
374.919	15.25
375.128	14.86
375.336	14.5
375.545	13.6
375.754	13.25
375.963	13.67
376.171	13.62
376.38	13.29
376.589	14.04
376.798	13.64
377.006	13.5
377.215	13.38
377.424	13.84
377.632	13.81
377.841	14.47
378.05	14.26
378.258	13.96
378.467	14
378.675	13.6
378.884	13.28
379.093	12.79
379.301	13
379.51	12.84
379.718	12.11
379.927	12.61
380.135	12.21
380.344	12.7
380.552	12.74
380.761	12.61
380.969	12.8
381.177	13.31
381.386	13.46
381.594	12.83
381.803	12.53
382.011	12.94
382.219	12.61
382.428	12.57
382.636	13.01
382.845	12.81
383.053	12.92
383.261	12.65
383.469	12.89
383.678	13.13
383.886	13.75
384.094	14.06
384.302	13.61
384.511	13.4
384.719	13.36
384.927	13
385.135	13.2
385.343	12.59
385.552	12.91
385.76	11.95
385.968	11.7
386.176	11.27
386.384	11.09
386.592	10.63
386.8	10.62
387.008	10.33
387.216	10.21
387.424	10.11
387.633	10.54
387.841	10.12
388.049	10.2
388.257	10.4
388.465	10.71
388.672	10.45
388.88	10.9
389.088	10.82
389.296	11.06
389.504	10.79
389.712	10.72
389.92	10.6
390.128	10.81
390.336	10.91
390.544	10.65
390.751	10.41
390.959	10.51
391.167	10.71
391.375	10.88
391.583	10.94
391.79	10.95
391.998	10.93
392.206	10.8
392.414	10.87
392.621	11.01
392.829	11.15
393.037	10.96
393.244	11.2
393.452	10.84
393.66	10.38
393.867	10.44
394.075	10.7
394.283	10.61
394.49	10.82
394.698	10.85
394.905	10.67
395.113	10.61
395.32	10.88
395.528	10.78
395.735	10.91
395.943	10.96
396.15	10.72
396.358	10.44
396.565	10.62
396.773	10.27
396.98	9.76
397.188	9.6
397.395	9.64
397.602	9.32
397.81	9.2
398.017	9.08
398.225	9.19
398.432	9.23
398.639	9.6
398.847	9.4
399.054	9.47
399.261	9.75
399.468	9.92
399.676	10.01
399.883	10.21
400.09	10.41
400.297	10.47
400.505	10.22
400.712	10.45
400.919	10.25
401.126	10.07
401.333	10.27
401.54	10.31
401.748	9.99
401.955	9.76
402.162	9.72
402.369	9.58
402.576	9.76
402.783	10.07
402.99	9.67
403.197	9.64
403.404	9.4
403.611	9.02
403.818	8.86
404.025	8.97
404.232	9.14
404.439	9.23
404.646	9.28
404.853	9.18
405.06	9.31
405.267	9.46
405.474	9.3
405.681	10
405.887	10.08
406.094	10.35
406.301	10.55
406.508	10.54
406.715	10.62
406.922	10.6
407.128	10.6
407.335	10.6
407.542	10.53
407.749	10.43
407.955	10.17
408.162	10.4
408.369	10.52
408.575	10.45
408.782	10.44
408.989	10.28
409.195	10.48
409.402	10.46
409.609	10.34
409.815	10.51
410.022	10.64
410.228	10.48
410.435	10.44
410.642	10.04
410.848	10.11
411.055	9.85
411.261	9.74
411.468	9.68
411.674	9.73
411.881	9.52
412.087	9.3
412.294	9.17
412.5	9.19
412.706	9.19
412.913	9.37
413.119	9.16
413.326	9.25
413.532	9.22
413.738	9.14
413.945	9.03
414.151	9.28
414.357	9.28
414.564	9.5
414.77	9.51
414.976	9.26
415.182	9.33
415.389	9.78
415.595	9.9
415.801	9.96
416.007	9.76
416.214	9.68
416.42	9.42
416.626	9.35
416.832	9.38
417.038	9.36
417.244	9.34
417.45	9.36
417.657	8.96
417.863	8.87
418.069	8.79
418.275	8.9
418.481	9.03
418.687	9.01
418.893	9.09
419.099	9.01
419.305	9.03
419.511	9.12
419.717	9
419.923	9.07
420.129	9.1
420.335	9.15
420.541	9.23
420.746	9.26
420.952	9.44
421.158	9.52
421.364	9.48
421.57	9.39
421.776	9.18
421.982	9.04
422.187	8.99
422.393	8.97
422.599	9.01
422.805	8.84
423.01	8.72
423.216	8.61
423.422	8.41
423.628	8.49
423.833	8.63
424.039	8.85
424.245	8.94
424.45	9.09
424.656	9.07
424.862	8.95
425.067	9.08
425.273	9.23
425.478	9.19
425.684	9.38
425.889	9.42
426.095	9.24
426.301	9.32
426.506	9.41
426.712	9.35
426.917	9.34
427.123	9.39
427.328	9.16
427.533	9.1
427.739	9.06
427.944	8.86
428.15	8.8
428.355	8.96
428.561	8.8
428.766	8.6
428.971	8.56
429.177	8.56
429.382	8.51
429.587	8.62
429.793	8.34
429.998	8.61
430.203	8.66
430.408	8.48
430.614	8.28
430.819	8.37
431.024	8.36
431.229	8.36
431.434	8.41
431.64	8.41
431.845	8.27
432.05	8.46
432.255	8.39
432.46	8.49
432.665	8.53
432.87	8.68
433.076	8.75
433.281	8.56
433.486	8.42
433.691	8.3
433.896	8.48
434.101	8.73
434.306	8.78
434.511	8.66
434.716	8.56
434.921	8.57
435.126	8.65
435.331	8.38
435.535	8.83
435.74	8.91
435.945	9.12
436.15	8.97
436.355	8.9
436.56	8.79
436.765	8.76
436.97	8.85
437.174	8.95
437.379	8.89
437.584	8.87
437.789	8.62
437.993	8.62
438.198	8.63
438.403	8.7
438.608	8.66
438.812	8.62
439.017	8.65
439.222	8.62
439.426	8.67
439.631	8.52
439.836	8.74
440.04	8.84
440.245	8.94
440.45	8.88
440.654	8.87
440.859	8.87
441.063	8.78
441.268	8.83
441.472	8.84
441.677	8.67
441.881	8.69
442.086	8.55
442.29	8.51
442.495	8.42
442.699	8.32
442.904	8.26
443.108	8.2
443.312	8.42
443.517	8.35
443.721	8.39
443.925	8.46
444.13	8.66
444.334	8.72
444.538	8.73
444.743	8.81
444.947	8.78
445.151	8.8
445.356	8.82
445.56	8.64
445.764	8.75
445.968	8.67
446.173	8.68
446.377	8.51
446.581	8.49
446.785	8.5
446.989	8.52
447.193	8.66
447.398	8.78
447.602	8.83
447.806	8.91
448.01	8.73
448.214	8.74
448.418	8.75
448.622	8.95
448.826	8.94
449.03	8.99
449.234	8.93
449.438	8.92
449.642	8.73
449.846	8.53
450.05	8.44
450.254	8.56
450.458	8.66
450.662	8.57
450.866	8.22
451.069	8.26
451.273	8.4
451.477	8.46
451.681	8.38
451.885	8.32
452.089	8.29
452.292	8.49
452.496	8.76
452.7	8.73
452.904	8.77
453.107	8.94
453.311	8.92
453.515	8.59
453.719	8.42
453.922	8.32
454.126	8.4
454.33	8.35
454.533	8.18
454.737	7.87
454.94	7.79
455.144	7.85
455.348	7.81
455.551	7.97
455.755	7.93
455.958	7.99
456.162	8.02
456.365	7.91
456.569	8.15
456.772	8.37
456.976	8.3
457.179	8.3
457.383	8.24
457.586	8.21
457.79	8.05
457.993	7.97
458.196	8
458.4	8.09
458.603	8.19
458.807	8.34
459.01	8.12
459.213	8.16
459.417	8.05
459.62	8.09
459.823	8.01
460.026	8.08
460.23	8.25
460.433	8.21
460.636	8.12
460.839	8.17
461.042	8.03
461.246	8.01
461.449	8.04
461.652	8.07
461.855	8.07
462.058	8.22
462.261	8.14
462.464	8.22
462.668	8.31
462.871	8.43
463.074	8.49
463.277	8.52
463.48	8.66
463.683	8.41
463.886	8.46
464.089	8.51
464.292	8.41
464.495	8.39
464.698	8.46
464.901	8.57
465.104	8.57
465.306	8.46
465.509	8.27
465.712	8.31
465.915	8.64
466.118	8.79
466.321	8.61
466.524	8.71
466.726	8.93
466.929	8.72
467.132	8.38
467.335	8.52
467.538	8.45
467.74	8.69
467.943	8.78
468.146	8.71
468.348	8.63
468.551	8.74
468.754	8.93
468.956	8.78
469.159	8.67
469.362	8.89
469.564	8.76
469.767	8.97
469.969	8.98
470.172	8.87
470.375	8.94
470.577	8.75
470.78	8.7
470.982	8.57
471.185	8.63
471.387	8.9
471.59	9.02
471.792	8.99
471.995	8.93
472.197	8.95
472.399	8.97
472.602	8.88
472.804	9.11
473.007	9.19
473.209	9.06
473.411	8.96
473.614	8.8
473.816	8.63
474.018	8.64
474.22	8.57
474.423	8.45
474.625	8.42
474.827	8.56
475.03	8.49
475.232	8.59
475.434	8.76
475.636	8.73
475.838	8.7
476.04	8.69
476.243	8.61
476.445	8.61
476.647	8.66
476.849	8.72
477.051	8.62
477.253	8.59
477.455	8.58
477.657	8.4
477.859	8.55
478.061	8.59
478.263	8.71
478.465	8.62
478.667	8.66
478.869	8.69
479.071	8.56
479.273	8.71
479.475	8.57
479.677	8.46
479.879	8.42
480.081	8.36
480.283	8.42
480.485	8.36
480.686	8.51
480.888	8.38
481.09	8.21
481.292	8.49
481.494	8.35
481.695	8.41
481.897	8.44
482.099	8.53
482.301	8.51
482.502	8.5
482.704	8.44
482.906	8.47
483.107	8.46
483.309	8.5
483.511	8.43
483.712	8.43
483.914	8.41
484.115	8.45
484.317	8.42
484.519	8.43
484.72	8.38
484.922	8.42
485.123	8.39
485.325	8.44
485.526	8.45
485.728	8.44
485.929	8.52
486.131	8.57
486.332	8.49
486.534	8.53
486.735	8.5
486.936	8.55
487.138	8.48
487.339	8.46
487.541	8.43
487.742	8.44
487.943	8.4
488.144	8.39
488.346	8.45
488.547	8.52
488.748	8.52
488.95	8.48
489.151	8.43
489.352	8.52
489.553	8.47
489.755	8.56
489.956	8.58
490.157	8.61
490.358	8.65
490.559	8.55
490.76	8.48
490.961	8.49
491.163	8.55
491.364	8.62
491.565	8.53
491.766	8.58
491.967	8.47
492.168	8.5
492.369	8.54
492.57	8.42
492.771	8.45
492.972	8.43
493.173	8.48
493.374	8.47
493.575	8.46
493.776	8.47
493.976	8.49
494.177	8.61
494.378	8.54
494.579	8.52
494.78	8.58
494.981	8.66
495.182	8.82
495.382	8.63
495.583	8.77
495.784	8.82
495.985	8.89
496.185	8.89
496.386	8.67
496.587	8.64
496.788	8.56
496.988	8.58
497.189	8.53
497.39	8.38
497.59	8.44
497.791	8.34
497.992	8.33
498.192	8.36
498.393	8.34
498.593	8.59
498.794	8.65
498.994	8.75
499.195	8.75
499.395	8.86
499.596	9
499.796	9.08
499.997	9.19
500.197	9.02
500.398	9.07
500.598	9.12
500.799	9.14
500.999	9.14
501.199	9.18
501.4	9.31
501.6	9.44
501.801	9.44
502.001	9.33
502.201	9.34
502.402	9.55
502.602	9.47
502.802	9.59
503.002	9.49
503.203	9.49
503.403	9.57
503.603	9.49
503.803	9.3
504.003	9.36
504.204	9.51
504.404	9.67
504.604	9.74
504.804	9.8
505.004	9.68
505.204	9.7
505.404	9.76
505.604	9.55
505.804	9.69
506.005	9.72
506.205	9.81
506.405	9.77
506.605	9.75
506.805	9.71
507.005	9.76
507.204	9.83
507.404	10.03
507.604	10.02
507.804	10.2
508.004	10.3
508.204	10.48
508.404	10.36
508.604	10.4
508.804	10.41
509.003	10.48
509.203	10.56
509.403	10.57
509.603	10.53
509.803	10.69
510.002	10.81
510.202	10.79
510.402	10.74
510.602	10.92
510.801	11.06
511.001	11.16
511.201	11.06
511.4	11.24
511.6	11.45
511.8	11.5
511.999	11.36
512.199	11.33
512.398	11.37
512.598	11.49
512.797	11.44
512.997	11.34
513.197	11.4
513.396	11.69
513.596	11.68
513.795	11.57
513.994	11.66
514.194	11.9
514.393	12.08
514.593	12.16
514.792	12.17
514.992	12.43
515.191	12.64
515.39	12.62
515.59	12.78
515.789	12.91
515.988	13.04
516.188	13.09
516.387	13.13
516.586	13.1
516.786	13.09
516.985	13.15
517.184	13.05
517.383	13.17
517.582	13.27
517.782	13.29
517.981	13.37
518.18	13.52
518.379	13.55
518.578	13.62
518.777	13.69
518.976	13.85
519.176	13.91
519.375	14.08
519.574	14.22
519.773	14.28
519.972	14.27
520.171	14.22
520.37	14.34
520.569	14.4
520.768	14.55
520.967	14.67
521.166	14.7
521.365	14.76
521.564	14.81
521.762	14.78
521.961	14.85
522.16	15.05
522.359	15.19
522.558	15.42
522.757	15.64
522.956	15.65
523.154	15.82
523.353	15.99
523.552	16.12
523.751	16.37
523.949	16.46
524.148	16.72
524.347	16.82
524.546	16.93
524.744	17.08
524.943	17.21
525.142	17.29
525.34	17.29
525.539	17.35
525.737	17.5
525.936	17.49
526.135	17.59
526.333	17.54
526.532	17.63
526.73	17.65
526.929	17.56
527.127	17.6
527.326	17.81
527.524	17.85
527.723	17.89
527.921	17.93
528.12	18
528.318	18.07
528.516	18.25
528.715	18.29
528.913	18.42
529.112	18.5
529.31	18.57
529.508	18.53
529.707	18.62
529.905	18.74
530.103	18.84
530.301	18.93
530.5	19.1
530.698	19.15
530.896	19.23
531.094	19.35
531.293	19.51
531.491	19.57
531.689	19.71
531.887	19.98
532.085	20.1
532.283	20.07
532.481	20.19
532.68	20.19
532.878	20.25
533.076	20.36
533.274	20.44
533.472	20.49
533.67	20.65
533.868	20.77
534.066	20.76
534.264	20.81
534.462	21.07
534.66	21.17
534.858	21.26
535.056	21.37
535.253	21.53
535.451	21.63
535.649	21.78
535.847	21.86
536.045	22.06
536.243	22.23
536.441	22.36
536.638	22.43
536.836	22.43
537.034	22.59
537.232	22.61
537.43	22.69
537.627	22.77
537.825	22.94
538.023	23.1
538.22	23.17
538.418	23.19
538.616	23.37
538.813	23.51
539.011	23.67
539.209	23.71
539.406	23.84
539.604	23.91
539.801	23.9
539.999	23.87
540.196	24.01
540.394	24.04
540.591	24.07
540.789	24.04
540.986	24.13
541.184	24.19
541.381	24.3
541.579	24.35
541.776	24.45
541.974	24.54
542.171	24.58
542.368	24.58
542.566	24.65
542.763	24.78
542.96	24.9
543.158	24.93
543.355	25.06
543.552	25.16
543.75	25.27
543.947	25.43
544.144	25.7
544.341	25.93
544.539	26.19
544.736	26.45
544.933	26.63
545.13	26.78
545.327	26.83
545.524	26.93
545.722	27.01
545.919	27.23
546.116	27.33
546.313	27.26
546.51	27.23
546.707	27.22
546.904	27.11
547.101	27.09
547.298	27.08
547.495	27.23
547.692	27.3
547.889	27.35
548.086	27.23
548.283	27.27
548.48	27.38
548.677	27.42
548.874	27.39
549.07	27.61
549.267	27.63
549.464	27.58
549.661	27.59
549.858	27.68
550.055	27.61
550.251	27.76
550.448	27.56
550.645	27.68
550.842	27.72
551.038	27.78
551.235	27.79
551.432	27.87
551.628	28.03
551.825	28.19
552.022	28.35
552.218	28.4
552.415	28.42
552.612	28.37
552.808	28.2
553.005	28.38
553.201	28.33
553.398	28.25
553.594	28.3
553.791	28.27
553.987	28.24
554.184	28.13
554.38	28.37
554.577	28.23
554.773	28.48
554.97	28.72
555.166	28.48
555.362	28.7
555.559	28.97
555.755	28.94
555.952	29.1
556.148	29.3
556.344	29.29
556.541	29.42
556.737	29.51
556.933	29.4
557.129	29.2
557.326	29.4
557.522	29.35
557.718	29.18
557.914	29.51
558.11	29.41
558.307	29.39
558.503	29.29
558.699	29.26
558.895	29.55
559.091	29.65
559.287	29.69
559.483	29.68
559.679	29.9
559.876	29.8
560.072	29.45
560.268	29.51
560.464	29.44
560.66	29.84
560.856	29.48
561.052	29.29
561.247	29.55
561.443	29.49
561.639	29.66
561.835	29.36
562.031	29.52
562.227	29.57
562.423	29.8
562.619	29.8
562.815	29.72
563.01	29.89
563.206	29.96
563.402	29.86
563.598	30.22
563.793	30.16
563.989	30.18
564.185	30.21
564.381	30.25
564.576	30.27
564.772	30.35
564.968	30.24
565.163	30.62
565.359	30.68
565.555	30.6
565.75	30.42
565.946	30.53
566.141	30.58
566.337	30.66
566.532	30.76
566.728	30.74
566.923	30.68
567.119	30.59
567.314	30.44
567.51	30.54
567.705	30.55
567.901	30.71
568.096	30.85
568.292	31.05
568.487	31.15
568.682	31.24
568.878	31.38
569.073	31.5
569.268	31.83
569.464	32
569.659	31.92
569.854	31.88
570.05	31.92
570.245	31.67
570.44	31.51
570.635	31.43
570.831	31.46
571.026	31.4
571.221	31.47
571.416	31.42
571.611	31.28
571.806	31.38
572.002	31.54
572.197	31.53
572.392	31.81
572.587	31.82
572.782	31.77
572.977	31.82
573.172	31.9
573.367	31.89
573.562	31.94
573.757	31.73
573.952	31.74
574.147	31.48
574.342	31.46
574.537	31.25
574.732	31.37
574.927	31.54
575.121	31.35
575.316	31.31
575.511	31.5
575.706	31.47
575.901	31.69
576.096	31.63
576.29	31.94
576.485	32.17
576.68	32.16
576.875	32
577.069	31.92
577.264	32.14
577.459	32.1
577.654	32.18
577.848	32.24
578.043	32.38
578.238	32.53
578.432	32.53
578.627	32.44
578.821	32.78
579.016	33.16
579.21	33.01
579.405	33.16
579.6	33.35
579.794	33.18
579.989	33.13
580.183	32.94
580.378	33.03
580.572	33.17
580.766	33.3
580.961	33.21
581.155	33.19
581.35	33.22
581.544	32.86
581.738	32.79
581.933	32.78
582.127	32.86
582.321	33.25
582.516	33.14
582.71	33.17
582.904	33.07
583.099	33
583.293	33.06
583.487	33.39
583.681	33.71
583.875	33.58
584.07	33.41
584.264	33.29
584.458	33.39
584.652	33.46
584.846	33.48
585.04	33.65
585.234	33.53
585.428	33.5
585.623	33.24
585.817	33.25
586.011	33.3
586.205	33.18
586.399	33.28
586.593	32.98
586.787	32.72
586.981	32.91
587.174	32.72
587.368	32.94
587.562	33
587.756	33.33
587.95	33.23
588.144	33.52
588.338	33.56
588.532	33.86
588.725	34.09
588.919	34.32
589.113	34.29
589.307	34.26
589.501	34.48
589.694	34.68
589.888	34.58
590.082	34.71
590.275	34.68
590.469	35.07
590.663	35.02
590.856	34.71
591.05	34.98
591.244	34.91
591.437	35.14
591.631	34.81
591.824	34.61
592.018	34.72
592.212	34.61
592.405	34.39
592.599	34.31
592.792	34.11
592.986	34.34
593.179	33.92
593.372	33.82
593.566	33.68
593.759	33.75
593.953	33.8
594.146	34
594.339	34.15
594.533	34.09
594.726	34.05
594.92	34.16
595.113	33.99
595.306	34.04
595.499	33.99
595.693	33.84
595.886	33.88
596.079	33.73
596.272	33.85
596.466	34.08
596.659	34.15
596.852	34.06
597.045	33.99
597.238	34.26
597.431	34.2
597.624	34.4
597.818	34.58
598.011	34.79
598.204	34.92
598.397	34.68
598.59	34.42
598.783	34.5
598.976	34.66
599.169	34.52
599.362	34.54
599.555	34.61
599.748	34.65
599.941	34.73
600.134	34.69
600.326	34.66
600.519	34.46
600.712	34.35
600.905	34.26
601.098	34.15
601.291	33.94
601.483	33.84
601.676	34.19
601.869	34.08
602.062	34.03
602.255	33.96
602.447	33.95
602.64	34.27
602.833	34.32
603.025	34.36
603.218	34.52
603.411	34.86
603.603	34.92
603.796	34.82
603.989	34.82
604.181	34.9
604.374	34.87
604.566	34.81
604.759	34.73
604.951	34.73
605.144	34.74
605.336	34.58
605.529	34.67
605.721	34.73
605.914	34.87
606.106	34.94
606.299	35.08
606.491	34.98
606.683	35.29
606.876	35.2
607.068	35.39
607.26	35.45
607.453	35.75
607.645	35.79
607.837	35.63
608.03	35.53
608.222	35.77
608.414	35.61
608.606	35.97
608.799	36.15
608.991	36.4
609.183	36.43
609.375	36.62
609.567	36.78
609.759	37.02
609.952	37.41
610.144	37.69
610.336	37.82
610.528	38.31
610.72	38.8
610.912	38.98
611.104	39.31
611.296	39.59
611.488	39.85
611.68	40.07
611.872	40.27
612.064	40.21
612.256	40.23
612.448	40.2
612.64	40.01
612.832	39.51
613.023	39.38
613.215	38.75
613.407	38.45
613.599	38.06
613.791	37.8
613.983	37.66
614.174	37.57
614.366	37.22
614.558	37.34
614.75	37.07
614.941	37.14
615.133	36.98
615.325	37.21
615.516	37.46
615.708	37.7
615.9	37.65
616.091	37.39
616.283	37.24
616.475	37.32
616.666	36.98
616.858	36.47
617.049	36.16
617.241	35.71
617.432	35.72
617.624	35.39
617.815	35.21
618.007	34.98
618.198	34.99
618.39	34.84
618.581	34.67
618.773	34.64
618.964	35.3
619.155	35.41
619.347	35.65
619.538	35.75
619.729	36.07
619.921	36.08
620.112	36.25
620.303	36.29
620.494	36.36
620.686	36.38
620.877	36.45
621.068	36.2
621.259	36.27
621.451	36.37
621.642	36.02
621.833	36.17
622.024	36.54
622.215	36.57
622.406	36.44
622.597	36.63
622.788	36.93
622.98	37.02
623.171	36.89
623.362	36.96
623.553	36.91
623.744	37.29
623.935	36.99
624.126	36.58
624.317	36.24
624.508	36.35
624.698	36.3
624.889	36.22
625.08	36.07
625.271	36.21
625.462	35.78
625.653	35.6
625.844	35.68
626.034	35.81
626.225	35.83
626.416	35.92
626.607	35.77
626.798	35.79
626.988	35.87
627.179	35.79
627.37	35.96
627.56	36.22
627.751	36.37
627.942	36.18
628.132	36.12
628.323	36.1
628.514	36.25
628.704	36.39
628.895	36.49
629.085	36.55
629.276	36.4
629.466	36.22
629.657	36.34
629.847	36.56
630.038	37.04
630.228	37.03
630.419	37.13
630.609	37.18
630.8	37.38
630.99	37.44
631.181	37.51
631.371	38.16
631.561	37.92
631.752	37.6
631.942	37.32
632.132	37.11
632.323	37.51
632.513	37.5
632.703	37.52
632.893	37.24
633.084	37.18
633.274	36.83
633.464	36.51
633.654	36.72
633.844	36.89
634.034	36.65
634.225	36.54
634.415	36.22
634.605	36.38
634.795	36.49
634.985	36.8
635.175	36.6
635.365	36.53
635.555	36.49
635.745	36.52
635.935	36.34
636.125	36.76
636.315	36.64
636.505	36.59
636.695	36.28
636.885	35.97
637.075	35.33
637.265	35.38
637.455	35.67
637.644	35.47
637.834	35.5
638.024	35.7
638.214	35.64
638.404	35.84
638.593	35.57
638.783	35.87
638.973	36.12
639.163	36.38
639.352	36.51
639.542	36.47
639.732	36.57
639.921	36.74
640.111	36.77
640.301	36.91
640.49	36.78
640.68	37.25
640.87	37.26
641.059	37.41
641.249	37.64
641.438	37.63
641.628	37.73
641.817	37.86
642.007	37.72
642.196	37.77
642.386	37.63
642.575	37.45
642.764	37.5
642.954	37.69
643.143	37.5
643.333	37.59
643.522	37.39
643.711	37.39
643.901	37.3
644.09	37.41
644.279	37.59
644.469	37.92
644.658	38.11
644.847	37.6
645.036	37.26
645.226	37.2
645.415	37.3
645.604	37.38
645.793	37.5
645.982	37.49
646.171	37.3
646.361	37.3
646.55	36.98
646.739	36.69
646.928	37.3
647.117	37.36
647.306	37.52
647.495	37.66
647.684	37.38
647.873	37.65
648.062	37.99
648.251	38.02
648.44	37.63
648.629	37.84
648.818	37.97
649.007	37.21
649.196	36.9
649.384	36.82
649.573	36.64
649.762	37.09
649.951	36.26
650.14	35.98
650.328	36.01
650.517	36.12
650.706	35.8
650.895	35.81
651.083	36.01
651.272	36.78
651.461	36.71
651.65	36.63
651.838	36.65
652.027	37.1
652.216	36.97
652.404	37.31
652.593	37.48
652.781	37.59
652.97	37.6
653.158	37.38
653.347	36.89
653.535	36.93
653.724	36.51
653.912	36.04
654.101	35.97
654.289	36.2
654.478	36.16
654.666	35.83
654.855	35.59
655.043	35.69
655.231	36.26
655.42	36.4
655.608	36
655.796	36.3
655.985	37.1
656.173	37.51
656.361	37.34
656.55	37.1
656.738	37.15
656.926	37.41
657.114	37.18
657.302	37.17
657.491	37.19
657.679	37.24
657.867	37.45
658.055	37.09
658.243	36.76
658.431	36.74
658.619	36.92
658.807	36.9
658.996	36.66
659.184	36.9
659.372	36.81
659.56	36.75
659.748	37.25
659.936	37.05
660.124	36.99
660.311	37.1
660.499	37.39
660.687	37.39
660.875	37.55
661.063	37.87
661.251	37.84
661.439	38.04
661.627	37.9
661.814	37.76
662.002	37.88
662.19	38.42
662.378	38.45
662.565	38.03
662.753	38.2
662.941	38.12
663.129	38.27
663.316	38.1
663.504	38.19
663.692	38.59
663.879	38.52
664.067	38.52
664.254	38.4
664.442	38.22
664.63	38.69
664.817	38.39
665.005	38.35
665.192	38.11
665.38	38.36
665.567	37.88
665.755	37.4
665.942	37.56
666.13	37.67
666.317	37.48
666.504	37.45
666.692	37.38
666.879	37.64
667.067	37.5
667.254	37.55
667.441	37.35
667.629	37.27
667.816	37.49
668.003	37.04
668.19	37.06
668.378	37.58
668.565	37.76
668.752	37.87
668.939	37.71
669.127	38
669.314	38.06
669.501	38.09
669.688	38.08
669.875	37.99
670.062	38.02
670.249	37.94
670.436	37.54
670.623	37.41
670.81	37.7
670.997	37.79
671.184	37.95
671.371	37.75
671.558	37.6
671.745	37.98
671.932	38.1
672.119	38.49
672.306	38.6
672.493	38.22
672.68	38.18
672.867	37.85
673.054	37.21
673.24	36.88
673.427	37.11
673.614	37.05
673.801	36.77
673.988	36.75
674.174	36.51
674.361	36.71
674.548	36.97
674.734	37.12
674.921	37.04
675.108	37.41
675.294	37.74
675.481	37.66
675.668	38.16
675.854	38.3
676.041	38.18
676.227	38.02
676.414	37.72
676.601	37.36
676.787	37.2
676.974	36.98
677.16	36.73
677.347	36.63
677.533	36.42
677.719	36.56
677.906	36.83
678.092	36.94
678.279	36.98
678.465	36.98
678.651	37.55
678.838	37.46
679.024	37.68
679.21	38.12
679.397	38.2
679.583	38.17
679.769	37.88
679.955	37.88
680.142	37.74
680.328	37.56
680.514	37.19
680.7	36.78
680.886	36.93
681.073	37.05
681.259	36.99
681.445	37.17
681.631	37.53
681.817	37.42
682.003	37.55
682.189	37.88
682.375	38.58
682.561	38.95
682.747	39.5
682.933	39.56
683.119	38.75
683.305	38.74
683.491	38.35
683.677	38.29
683.863	38.37
684.049	38.01
684.235	37.5
684.42	37.28
684.606	37.23
684.792	36.98
684.978	36.7
685.164	37.46
685.349	37.57
685.535	37.26
685.721	37.42
685.907	37.42
686.092	37.31
686.278	37.69
686.464	37.78
686.649	37.93
686.835	37.5
687.021	37.75
687.206	37.54
687.392	37.47
687.577	38.2
687.763	37.94
687.948	38.03
688.134	38.14
688.319	37.62
688.505	37.09
688.69	37.19
688.876	37.6
689.061	37.83
689.247	37.95
689.432	38.15
689.618	37.94
689.803	37.58
689.988	37.56
690.174	37.81
690.359	38.87
690.544	38.98
690.73	39.34
690.915	39.19
691.1	38.89
691.285	38.66
691.471	38.82
691.656	39.23
691.841	40.1
692.026	40.38
692.211	39.99
692.396	39.26
692.582	39.75
692.767	39.01
692.952	39.23
693.137	39.25
693.322	39.52
693.507	39.23
693.692	38.71
693.877	37.84
694.062	37.43
694.247	38.22
694.432	38.68
694.617	39.11
694.802	38.94
694.987	38.58
695.172	39.21
695.357	38.97
695.541	38.91
695.726	38.74
695.911	38.96
696.096	39.44
696.281	39.05
696.466	38.76
696.65	37.64
696.835	38.57
697.02	38.66
697.204	38.3
697.389	38.36
697.574	38.31
697.759	38.44
697.943	37.92
698.128	37.29
698.312	37.61
698.497	37.87
698.682	38.22
698.866	37.73
699.051	37.75
699.235	37.65
699.42	37.85
699.604	37.61
699.789	37.53
699.973	37.67
700.158	37.76
700.342	37.77
700.527	37.64
700.711	38.04
700.895	38.34
701.08	38.32
701.264	38.51
701.448	38.62
701.633	39.33
701.817	39.67
702.001	40.77
702.186	41.1
702.37	40.31
702.554	40.49
702.738	40.23
702.923	39.73
703.107	39.8
703.291	39.47
703.475	39.15
703.659	38.58
703.843	37.95
704.027	38.16
704.212	38.52
704.396	38.65
704.58	37.93
704.764	37.47
704.948	38.73
705.132	38.9
705.316	39.4
705.5	39.26
705.684	39.86
705.868	40.42
706.052	40.07
706.235	39.75
706.419	40.2
706.603	40.99
706.787	41.56
706.971	40.7
707.155	40.63
707.339	40.09
707.522	40.15
707.706	39.69
707.89	39.61
708.074	38.69
708.257	38.78
708.441	38.87
708.625	38.4
708.808	38.46
708.992	38.74
709.176	39
709.359	39.53
709.543	39.52
709.727	39.26
709.91	38.95
710.094	39.4
710.277	39.59
710.461	39.66
710.644	39.53
710.828	38.84
711.011	38.43
711.195	38.56
711.378	38.33
711.562	38.03
711.745	38.65
711.928	38.56
712.112	38.77
712.295	38.95
712.478	38.67
712.662	39.23
712.845	39.77
713.028	40.13
713.212	39.24
713.395	39.9
713.578	40.34
713.761	39.67
713.945	39.79
714.128	40.07
714.311	39.22
714.494	39.65
714.677	39.29
714.86	38.73
715.043	38.84
715.227	39.32
715.41	38.98
715.593	38.6
715.776	39.08
715.959	39.38
716.142	39.07
716.325	39.48
716.508	39.13
716.691	39.46
716.874	39.85
717.057	39.39
717.239	38.48
717.422	38.43
717.605	39.03
717.788	38.27
717.971	38.64
718.154	38.3
718.337	37.93
718.519	38.03
718.702	37.33
718.885	37.22
719.068	37.75
719.25	38.36
719.433	37.99
719.616	37.4
719.798	37.48
719.981	37.5
720.164	37.94
720.346	38.61
720.529	38.85
720.712	38.8
720.894	38.47
721.077	37.73
721.259	37.66
721.442	38.22
721.624	39
721.807	40.51
721.989	39.65
722.172	39.33
722.354	39.08
722.537	38.13
722.719	39.12
722.901	39.78
723.084	40.13
723.266	40.65
723.448	40.27
723.631	39.66
723.813	38.82
723.995	39.89
724.178	40.23
724.36	40.29
724.542	40.33
724.724	39.67
724.907	39.17
725.089	38.98
725.271	38.4
725.453	37.92
725.635	39.4
725.817	39.49
725.999	38.41
726.181	38.41
726.364	38.37
726.546	39.37
726.728	39.51
726.91	39.81
727.092	39.86
727.274	40.1
727.456	40.92
727.638	39.13
727.819	39.79
728.001	39.61
728.183	40.05
728.365	39.67
728.547	39.54
728.729	39.58
728.911	39.6
729.093	39.36
729.274	39.43
729.456	39.22
729.638	40.49
729.82	39.94
730.001	40.78
730.183	40.57
730.365	40.59
730.546	40.66
730.728	40.15
730.91	40.68
731.091	41.13
731.273	40.64
731.455	39.95
731.636	38.37
731.818	37.43
731.999	36.01
732.181	36.47
732.362	37.24
732.544	37.16
732.725	38.25
732.907	37.16
733.088	37
733.27	37.13
733.451	37.39
733.633	38.36
733.814	39.32
733.995	40.48
734.177	39.55
734.358	38.88
734.539	38.33
734.721	38.79
734.902	39.62
735.083	39.55
735.264	39.61
735.446	39.83
735.627	39.28
735.808	39.08
735.989	39.18
736.17	39.66
736.351	40.14
736.533	40.87
736.714	40.28
736.895	39.93
737.076	39.9
737.257	40.05
737.438	39.81
737.619	39.91
737.8	39.92
737.981	40.37
738.162	40.11
738.343	40.14
738.524	39.63
738.705	38.45
738.886	37.96
739.067	36.99
739.247	37.32
739.428	37.5
739.609	37.32
739.79	37.51
739.971	37.03
740.151	37.01
740.332	36.58
740.513	36.71
740.694	37.49
740.874	37.08
741.055	37.51
741.236	37.37
741.417	38.11
741.597	38.67
741.778	38.24
741.958	38.77
742.139	38.48
742.32	38.98
742.5	39.56
742.681	39.12
742.861	40.26
743.042	40.78
743.222	41.23
743.403	40.3
743.583	41.07
743.764	40.38
743.944	40.38
744.124	40.95
744.305	40.88
744.485	40.32
744.666	39.82
744.846	39.54
745.026	39.89
745.207	40.13
745.387	40.54
745.567	39.45
745.747	39.75
745.928	39.03
746.108	38.34
746.288	37.39
746.468	36.88
746.648	36.52
746.829	37.16
747.009	38.49
747.189	38.2
747.369	37.58
747.549	38.19
747.729	38.4
747.909	38.25
748.089	38.56
748.269	38.44
748.449	39.36
748.629	41.05
748.809	40.38
748.989	39.01
749.169	39.58
749.349	39.85
749.529	39.44
749.709	39.49
749.889	39.46
750.068	39.16
750.248	39.68
750.428	38.59
750.608	37.9
750.788	38.87
750.967	38.41
751.147	36.84
751.327	36.02
751.507	36.62
751.686	36.31
751.866	36.41
752.046	36.09
752.225	36.93
752.405	37.66
752.585	37.74
752.764	37.23
752.944	37.64
753.123	37.92
753.303	37.75
753.482	36.18
753.662	36.98
753.841	37.65
754.021	38.38
754.2	37.97
754.38	37.23
754.559	36.86
754.739	37.39
754.918	36.27
755.097	37.12
755.277	37.21
755.456	38.78
755.635	38.69
755.815	37.51
755.994	37.07
756.173	36.99
756.352	37.55
756.532	37.97
756.711	37.26
756.89	38.67
757.069	39.82
757.248	41.1
757.427	39.51
757.607	37.95
757.786	38.36
757.965	39.33
758.144	39.2
758.323	39.24
758.502	38.82
758.681	39.31
758.86	39.3
759.039	38.7
759.218	39.69
759.397	40.71
759.576	42.36
759.755	42.79
759.934	42.23
760.113	41.86
760.291	42.29
760.47	42.45
760.649	42.09
760.828	42.15
761.007	41.92
761.186	40.8
761.364	40.96
761.543	40.92
761.722	40
761.901	40.25
762.079	41.09
762.258	41.1
762.437	41.49
762.615	41.27
762.794	41.38
762.972	40.99
763.151	40.52
763.33	40.13
763.508	40.08
763.687	41.03
763.865	40.87
764.044	40.51
764.222	39.64
764.401	39.31
764.579	39.33
764.758	39.25
764.936	38.79
765.114	38.94
765.293	39.7
765.471	39.93
765.65	39.17
765.828	38.95
766.006	39.12
766.184	40.05
766.363	40.35
766.541	40
766.719	39.4
766.898	39.87
767.076	40.96
767.254	40.18
767.432	39.46
767.61	39.87
767.788	39.09
767.967	38.1
768.145	37.59
768.323	37.38
768.501	38.58
768.679	38.61
768.857	37.33
769.035	35.75
769.213	36
769.391	36.57
769.569	35.83
769.747	36.82
769.925	38.2
770.103	38.08
770.281	38.34
770.459	37.61
770.636	37.74
770.814	39
770.992	38.45
771.17	39.32
771.348	40.01
771.525	40.37
771.703	40.26
771.881	39.61
772.059	39.99
772.236	40.16
772.414	40.77
772.592	39.75
772.769	39.53
772.947	41.39
773.125	39.88
773.302	37.98
773.48	37.41
773.657	37.57
773.835	37.51
774.013	36.7
774.19	34.48
774.368	33.5
774.545	33.94
774.723	35.49
774.9	33.53
775.077	32.38
775.255	32.54
775.432	31.29
775.61	31.84
775.787	31.13
775.964	31.73
776.142	32.86
776.319	31.22
776.496	32.47
776.674	31.64
776.851	32.93
777.028	35.7
777.205	37.14
777.382	40.3
777.56	39.34
777.737	37.04
777.914	38.87
778.091	39.65
778.268	40.63
778.445	39.31
778.622	40.17
778.8	39.77
778.977	38.87
779.154	57.52
779.331	56.41
779.508	57.6
779.685	60.03
779.862	57.51
780.038	57.64
780.215	58.48
780.392	60.61
780.569	57.53
780.746	58.42
780.923	58.84
781.1	35.73
781.277	37.96
781.453	38.74
781.63	37.22
781.807	38.32
781.984	38.41
782.16	38.88
782.337	36.33
782.514	37.27
782.691	38.38
782.867	38.25
783.044	40.14
783.221	38.78
783.397	35.94
783.574	36.9
783.75	36.16
783.927	35.39
784.103	33.07
784.28	32.74
784.456	34.95
784.633	36.69
784.809	36.07
784.986	36.02
785.162	34.98
785.339	35.6
785.515	36.14
785.692	38.66
785.868	38.34
786.044	37.33
786.221	36.07
786.397	34.56
786.573	30.78
786.749	31.28
786.926	29.88
787.102	30.26
787.278	30.08
787.454	31.06
787.631	28.82
787.807	27.9
787.983	30.37
788.159	32.77
788.335	32.86
788.511	36.49
788.687	36.59
788.863	38.34
789.039	38.99
789.216	38.31
789.392	39.48
789.568	37.17
789.744	37.9
789.919	37.76
790.095	39.17
790.271	39.34
790.447	37.35
790.623	37.51
790.799	38.67
790.975	36.94
791.151	36.74
791.327	35.24
791.502	41.62
791.678	43.45
791.854	42.24
792.03	42.62
792.205	42.84
792.381	40.85
792.557	41.88
792.733	42.24
792.908	44.66
793.084	46.35
793.259	47.09
793.435	41.6
793.611	40.16
793.786	40.26
793.962	40.03
794.137	42.42
794.313	43.04
794.488	41.2
794.664	40.28
794.839	37.31
795.015	37
795.19	37.53
795.366	38.86
795.541	39.3
795.716	41.18
795.892	40.45
796.067	39.13
796.242	39.46
796.418	38.35
796.593	36.95
796.768	38.84
796.944	38.92
797.119	38.92
797.294	36.99
797.469	37.59
797.644	37.73
797.82	38.33
797.995	38.34
798.17	37.49
798.345	37.63
798.52	37.27
798.695	36.23
798.87	37.31
799.045	35.29
799.22	37.8
799.395	37.13
799.57	36.03
799.745	36.33
799.92	35.34
800.095	36.58
800.27	37.49
800.445	40.82
800.62	42.48
800.795	41.24
800.97	41.96
801.145	41.15
801.319	41.22
801.494	41.75
801.669	38.53
801.844	39.56
802.018	37.91
802.193	36.35
802.368	33.31
802.543	30.51
802.717	27.14
802.892	24.63
803.067	24.78
803.241	25.51
803.416	25.47
803.59	26.12
803.765	22.79
803.94	23.53
804.114	24.48
804.289	25.97
804.463	27.38
804.638	28.45
804.812	30.37
804.986	28.05
805.161	27.28
805.335	27.4
805.51	29.32
805.684	30.89
805.858	32.1
806.033	32.17
806.207	31.43
806.381	29.38
806.556	31.68
806.73	33.89
806.904	35.49
807.078	36.99
807.253	34.44
807.427	34.96
807.601	36.26
807.775	32.68
807.949	33.88
808.123	31.88
808.298	31.57
808.472	31.29
808.646	29.03
808.82	28.83
808.994	25.56
809.168	27.3
809.342	27.09
809.516	25.42
809.69	25.87
809.864	25.99
810.038	24.22
810.212	30.85
810.385	32.89
810.559	31.2
810.733	32.17
810.907	31.84
811.081	31.02
811.255	29.86
811.428	31.22
811.602	36.33
811.776	35.58
811.95	38.15
812.123	33.74
812.297	31.41
812.471	35.53
812.644	35.12
812.818	35.1
812.992	35.07
813.165	40.92
813.339	43.66
813.512	43.08
813.686	41.62
813.86	43.41
814.033	44.69
814.207	48.17
814.38	47.39
814.554	48.32
814.727	47.34
814.9	49.61
815.074	45.82
815.247	41.89
815.421	41.97
815.594	43.87
815.767	43.47
815.941	40.89
816.114	38.96
816.287	36.54
816.46	36.87
816.634	42.34
816.807	42.73
816.98	41.92
817.153	43.52
817.327	40.43
817.5	41.04
817.673	40.4
817.846	42.68
818.019	42.87
818.192	45.54
818.365	44.27
818.538	42.32
818.711	41.31
818.884	41.37
819.057	37.66
819.23	37.37
819.403	37.99
819.576	37.88
819.749	38.71
819.922	38.75
820.095	38.38
820.268	38.34
820.441	39.01
820.614	39.59
820.786	38.58
820.959	42.68
821.132	44.1
821.305	42.4
821.477	41.65
821.65	40.84
821.823	40.48
821.996	40.44
822.168	40.51
822.341	40.34
822.514	39.78
822.686	39.77
822.859	38.47
823.031	38.76
823.204	39.1
823.376	39.51
823.549	39.62
823.722	39.26
823.894	39.01
824.067	38.18
824.239	38.05
824.411	38.09
824.584	38.52
824.756	39.32
824.929	38.88
825.101	38.72
825.273	38.56
825.446	38.18
825.618	39.25
825.79	39.45
825.963	40.82
826.135	40.8
826.307	41.93
826.479	41.43
826.652	41.11
826.824	41.23
826.996	41.11
827.168	41.98
827.34	42.24
827.512	42.49
827.684	42.73
827.856	43.25
828.029	43.82
828.201	42.78
828.373	42.29
828.545	41.87
828.717	42.22
828.889	43.76
829.061	41.82
829.232	40.98
829.404	41.13
829.576	39.4
829.748	38.7
829.92	37.56
830.092	36.78
830.264	37.58
830.436	37.92
830.607	37.38
830.779	35.74
830.951	37.23
831.123	36.31
831.294	35.76
831.466	37.32
831.638	36.23
831.809	37.2
831.981	37.75
832.153	39.28
832.324	40.31
832.496	40.17
832.667	38.38
832.839	36.76
833.011	38.89
833.182	37.22
833.354	37.4
833.525	36.14
833.697	36.32
833.868	36.38
834.039	35.27
834.211	36.43
834.382	36.11
834.554	36.07
834.725	37.29
834.896	39.11
835.068	38.78
835.239	38.99
835.41	40.13
835.581	41.02
835.753	40.8
835.924	39.88
836.095	39.12
836.266	39.35
836.438	42.45
836.609	43.01
836.78	41.76
836.951	40.69
837.122	41.33
837.293	40.38
837.464	37.9
837.635	37.69
837.806	38.95
837.977	38.21
838.148	37.68
838.319	33.14
838.49	29.21
838.661	29.38
838.832	32.84
839.003	30.35
839.174	26.6
839.345	29.14
839.516	29.92
839.687	28.25
839.857	28.09
840.028	22.99
840.199	29.05
840.37	27.38
840.54	21.34
840.711	19.77
840.882	21.93
841.053	31.11
841.223	29.36
841.394	26.71
841.564	27.48
841.735	29
841.906	28.98
842.076	25.56
842.247	27.83
842.417	32.39
842.588	30.4
842.758	29.89
842.929	28.54
843.099	28.99
843.27	34.2
843.44	33.03
843.611	34.75
843.781	36.98
843.951	38.59
844.122	37.78
844.292	38.44
844.462	36.85
844.633	34.19
844.803	31.31
844.973	29.53
845.144	34.67
845.314	35.98
845.484	35.46
845.654	31.99
845.824	19.82
845.995	33.31
846.165	38
846.335	41.64
846.505	46.36
846.675	35.37
846.845	31.69
847.015	22.38
847.185	28.32
847.355	16.34
847.525	23.19
847.695	32.65
847.865	18.45
848.035	19.97
848.205	16.86
848.375	23.36
848.545	32.3
848.715	39.03
848.884	33.71
849.054	31.25
849.224	49.58
849.394	46.73
849.564	54.4
849.733	58.67
849.903	62.22
850.073	72.52
850.243	60.61
850.412	54.22
850.582	67.87
850.752	79.91
850.921	64.71
851.091	65.48
851.26	80.14
851.43	53.57
851.599	36.48
851.769	22.18
851.939	12.64
852.108	10.86
852.278	24.62
852.447	14.27
852.616	22.37
852.786	24.66
852.955	15.12
853.125	0.38
853.294	24.8
853.463	35.93
853.633	24.15
853.802	33.57
853.971	29.28
854.141	27.98
854.31	40.18
854.479	39.22
854.648	41.06
854.818	41.6
854.987	48.11
855.156	35.22
855.325	28.66
855.494	43.32
855.663	42.72
855.832	45.34
856.001	44.79
856.171	43.04
856.34	44.13
856.509	35.84
856.678	36.76
856.847	45.55
857.016	63.04
857.185	81.8
857.353	79.36
857.522	82.95
857.691	78.22
857.86	71.41
858.029	70.58
858.198	55.7
858.367	59.41
858.535	62.45
858.704	46.31
858.873	36.56
859.042	-0.88
859.21	-2.78
859.379	-24.41
859.548	-46.48
859.717	-32.99
859.885	-10.26
860.054	3.78
860.222	22.06
860.391	32.22
860.56	27.84
860.728	25.34
860.897	46.27
861.065	23.7
861.234	42.72
861.402	47.11
861.571	43.09
861.739	24.25
861.908	18.22
862.076	0.23
862.244	-0.91
862.413	10.07
862.581	4.49
862.749	-7.6
862.918	-7.14
863.086	-58.53
863.254	-48.65
863.423	-82.13
863.591	-45.17
863.759	-69.32
863.927	-37.88
864.096	-55.44
864.264	-112.53
864.432	-72.73
864.6	-75.99
864.768	-56.49
864.936	-23.23
865.104	-32.81
865.272	-16.81
865.44	-35.53
865.608	-20.54
865.776	-49.16
865.944	-53.23
866.112	-29.07
866.28	-8.88
866.448	-5.2
866.616	-2.36
866.784	-5.17
866.952	-9.52
867.12	-34.07
867.288	-23.89
867.455	-25.09
867.623	-24.5
867.791	27.76
867.959	15
868.127	-28.04
868.294	-10.93
868.462	11.41
868.63	26.94
868.797	39.02
868.965	42.59
869.133	38.14
869.3	38.36
869.468	49.83
869.636	30.74
869.803	33.47
869.971	45.92
870.138	41.75
870.306	40.14
870.473	30
870.641	20.08
870.808	17.01
870.975	19.83
871.143	23.72
871.31	2.21
871.478	-0.56
871.645	7.76
871.812	7.15
871.98	12.66
872.147	4.9
872.314	25.96
872.482	31.58
872.649	33.73
872.816	49.11
872.983	45.24
873.15	43.29
873.318	48.34
873.485	38.69
873.652	21.76
873.819	19.52
873.986	8.77
874.153	6.44
874.32	3.2
874.487	4.6
874.654	-2.58
874.821	-6.94
874.988	11.11
875.155	13.94
875.322	13.54
875.489	21.38
875.656	31.06
875.823	53.67
875.99	49.23
876.157	61.69
876.324	64.98
876.49	54.42
876.657	57.22
876.824	47.64
876.991	40.84
877.157	49.18
877.324	54.51
877.491	54.69
877.658	54.18
877.824	68.61
877.991	56.81
878.157	49.35
878.324	60.55
878.491	45
878.657	47.77
878.824	56.49
878.99	44.79
879.157	24.78
879.323	26.27
879.49	19.73
879.656	9.56
879.823	14.84
879.989	23.3
880.156	21.39
880.322	28.76
880.488	31.43
880.655	29.53
880.821	34.3
880.987	41.98
881.154	39.35
881.32	46.18
881.486	43.52
881.652	45.75
881.819	43.56
881.985	41.24
882.151	44
882.317	44.25
882.483	45.4
882.649	43.55
882.816	41.96
882.982	40.61
883.148	37.75
883.314	38.69
883.48	37.37
883.646	37.64
883.812	38.1
883.978	35.91
884.144	35.64
884.31	34.76
884.476	34.52
884.642	36.22
884.807	35.81
884.973	35.67
885.139	33.7
885.305	34.95
885.471	33.75
885.637	35.37
885.802	35.18
885.968	34.64
886.134	34.96
886.3	36.7
886.465	33.2
886.631	35.1
886.797	35.78
886.962	36.75
887.128	33.74
887.293	34.6
887.459	30.58
887.625	30.32
887.79	29.3
887.956	28.32
888.121	22.04
888.287	24.66
888.452	22.69
888.618	16.4
888.783	18.09
