Data from CB_046_Reflection_00001.txt Node
Date: Wed Nov 11 22:22:14 EST 2015
User: robert
Spectrometer: USB4E03001
Autoset integration time: false
Trigger mode: 4
Integration Time (sec): 1.000000E-1
Scans to average: 15
Electric dark correction enabled: true
Nonlinearity correction enabled: false
Boxcar width: 5
Stray light correction enabled: false
XAxis mode: Wavelengths
Stop averaging: false
Number of Pixels in Spectrum: 3648
>>>>>Begin Spectral Data<<<<<
177.566	-89.14
177.785	-819.74
178.005	96.21
178.225	9.9
178.445	71.7
178.665	43.92
178.885	-136.78
179.105	64.79
179.324	114
179.544	79.6
179.764	62.95
179.984	-3.73
180.204	7.22
180.423	37.27
180.643	38.37
180.863	43.96
181.083	36.6
181.302	30.77
181.522	32
181.742	32.2
181.961	39.42
182.181	34.77
182.401	42.03
182.621	34.59
182.84	25.24
183.06	39.25
183.279	38.16
183.499	43.43
183.719	40.56
183.938	37.66
184.158	50.71
184.377	44.5
184.597	53.98
184.816	80.27
185.036	58.01
185.256	68.92
185.475	58.96
185.695	68.44
185.914	56.9
186.134	97.42
186.353	111.79
186.572	48.2
186.792	75.61
187.011	52.28
187.231	62.42
187.45	116.64
187.67	69.04
187.889	77.44
188.108	80.83
188.328	82.55
188.547	60.6
188.766	56.1
188.986	88.38
189.205	42.52
189.424	54.72
189.644	31.01
189.863	44.01
190.082	58.54
190.302	34.27
190.521	22.97
190.74	21.16
190.959	42.08
191.178	53.5
191.398	42.02
191.617	63.38
191.836	70.95
192.055	65.94
192.274	62.44
192.494	60.11
192.713	80.02
192.932	76.18
193.151	71.84
193.37	73.72
193.589	78.62
193.808	81.2
194.027	64.21
194.246	60.18
194.465	77.75
194.685	67.04
194.904	67.85
195.123	56.69
195.342	39.05
195.561	50.67
195.78	42.84
195.999	19.65
196.218	39.66
196.436	38.09
196.655	23.05
196.874	23.2
197.093	16.27
197.312	39.14
197.531	47.14
197.75	50.67
197.969	47.51
198.188	32
198.407	25.89
198.625	23.87
198.844	37.31
199.063	33.78
199.282	17.38
199.501	24.81
199.719	0.11
199.938	29.87
200.157	54.6
200.376	45.21
200.594	117.03
200.813	99.32
201.032	105.58
201.251	129.45
201.469	123.77
201.688	123.32
201.907	103.28
202.125	88.7
202.344	72.53
202.563	82.72
202.781	82.48
203	61.88
203.218	76.16
203.437	98.42
203.656	80.47
203.874	78.72
204.093	74.49
204.311	75.35
204.53	72.76
204.748	66.13
204.967	53.01
205.185	50.37
205.404	56.74
205.622	54.75
205.841	41.42
206.059	40.12
206.278	55.99
206.496	55.72
206.715	56.69
206.933	74.33
207.151	70.3
207.37	61.78
207.588	63.96
207.806	69.53
208.025	63.84
208.243	57.93
208.461	55.56
208.68	45.35
208.898	42.61
209.116	30.68
209.335	28.76
209.553	33.8
209.771	49.53
209.989	36.44
210.208	11.21
210.426	27.2
210.644	38.36
210.862	38.81
211.081	39.93
211.299	38.41
211.517	73.61
211.735	48.12
211.953	43.23
212.171	40.58
212.39	51.43
212.608	68.62
212.826	56.29
213.044	61.09
213.262	53.23
213.48	48.88
213.698	45.3
213.916	24.67
214.134	45.12
214.352	65.49
214.57	52.4
214.788	115.39
215.006	123.02
215.224	77.38
215.442	41.15
215.66	99.34
215.878	65.52
216.096	67.37
216.314	82.96
216.532	77.79
216.75	61.4
216.968	68
217.185	36.99
217.403	54.7
217.621	55.76
217.839	56.07
218.057	54.6
218.275	66.48
218.492	66.22
218.71	54.98
218.928	55.98
219.146	61.06
219.363	66.45
219.581	85
219.799	63.3
220.017	71.96
220.234	82.23
220.452	76.03
220.67	58.8
220.887	53.52
221.105	88.52
221.323	84.09
221.54	69.95
221.758	66.43
221.976	54.27
222.193	48.56
222.411	42.96
222.629	50.49
222.846	47.75
223.064	38.43
223.281	48.99
223.499	41.05
223.716	47.76
223.934	53.79
224.151	48.35
224.369	47.89
224.586	49.98
224.804	57.29
225.021	45.93
225.239	49.67
225.456	50.17
225.674	26.35
225.891	19.48
226.108	15.08
226.326	3.6
226.543	-1.6
226.76	5.24
226.978	0.99
227.195	-1.03
227.413	2.47
227.63	6.79
227.847	5.38
228.064	11.7
228.282	13.23
228.499	11.29
228.716	13.92
228.934	13.47
229.151	9.55
229.368	10.4
229.585	11.36
229.802	12.85
230.02	9.58
230.237	11.58
230.454	8.92
230.671	5.38
230.888	6.39
231.105	5.29
231.323	10.37
231.54	15.12
231.757	13.67
231.974	12.84
232.191	8.63
232.408	14.59
232.625	13.19
232.842	20.54
233.059	23.61
233.276	26.4
233.493	27.49
233.71	19
233.927	18.2
234.144	21.32
234.361	22.25
234.578	25.3
234.795	23.52
235.012	25.46
235.229	20.73
235.446	23.7
235.663	16.25
235.879	15.41
236.096	14.37
236.313	11.32
236.53	11.9
236.747	13.54
236.964	14.94
237.181	12.61
237.397	14.69
237.614	15.44
237.831	12.45
238.048	19.57
238.264	18.41
238.481	17.32
238.698	20.36
238.915	16.86
239.131	9.74
239.348	6.46
239.565	9.01
239.781	7.9
239.998	8.14
240.215	7.53
240.431	7.96
240.648	10.64
240.865	9.88
241.081	12.62
241.298	13.22
241.514	14.51
241.731	17.76
241.947	13.26
242.164	13.6
242.38	11.68
242.597	11.23
242.814	11.25
243.03	11.29
243.246	11.93
243.463	10.15
243.679	10.68
243.896	11.31
244.112	10.46
244.329	15.26
244.545	12.39
244.762	14.54
244.978	16.49
245.194	15.81
245.411	12.26
245.627	12.92
245.843	13.36
246.06	13.05
246.276	12.51
246.492	10.79
246.709	8.22
246.925	10.94
247.141	11.75
247.357	10.73
247.574	10.44
247.79	10.98
248.006	10.61
248.222	10.18
248.439	10.03
248.655	11.03
248.871	10.74
249.087	12.3
249.303	11.16
249.519	9.53
249.736	9.05
249.952	8.54
250.168	9.27
250.384	9.92
250.6	11.31
250.816	11.28
251.032	10
251.248	12.52
251.464	11.44
251.68	10.68
251.896	11.36
252.112	11.24
252.328	10.41
252.544	10.65
252.76	9.82
252.976	10.11
253.192	8.38
253.408	8.91
253.624	9.9
253.84	10.53
254.056	9.82
254.272	12.77
254.487	13.6
254.703	15.82
254.919	15.98
255.135	16.34
255.351	14.89
255.567	17.03
255.782	14.94
255.998	11.04
256.214	10.03
256.43	13.3
256.646	8.37
256.861	8.51
257.077	7.7
257.293	5.5
257.508	6.64
257.724	8.09
257.94	8.54
258.155	8.88
258.371	9.14
258.587	9.49
258.802	8.67
259.018	9.02
259.234	8.45
259.449	9.3
259.665	9.8
259.88	9.73
260.096	9.17
260.312	8.73
260.527	8.8
260.743	9.12
260.958	9.45
261.174	8.86
261.389	9.78
261.605	10.6
261.82	9.92
262.036	10.46
262.251	11.75
262.466	12.29
262.682	13.24
262.897	13.88
263.113	12.42
263.328	12.42
263.543	12.75
263.759	11.74
263.974	12.2
264.189	12.11
264.405	11.55
264.62	9.59
264.835	8.74
265.051	8.53
265.266	9.37
265.481	11.54
265.696	11.58
265.912	13.13
266.127	13.42
266.342	13.39
266.557	13.62
266.773	12.81
266.988	13.02
267.203	13.13
267.418	13.01
267.633	13.03
267.848	12.56
268.064	11.11
268.279	10.46
268.494	9.27
268.709	8.59
268.924	9.91
269.139	10.31
269.354	10.91
269.569	9.2
269.784	10.32
269.999	8.63
270.214	8.8
270.429	9.39
270.644	9.11
270.859	10.06
271.074	9.47
271.289	10.28
271.504	10.39
271.719	9.64
271.934	10.7
272.149	9.59
272.363	10.07
272.578	10.55
272.793	10.16
273.008	10.67
273.223	10.73
273.438	11.15
273.653	10.38
273.867	10.9
274.082	10.86
274.297	11.11
274.512	11.19
274.726	10.08
274.941	10.34
275.156	11.37
275.371	10.56
275.585	10.56
275.8	9.85
276.015	8.78
276.229	8.38
276.444	8.67
276.659	8.65
276.873	9.7
277.088	11
277.302	10.55
277.517	10.79
277.732	11.45
277.946	10.92
278.161	12.82
278.375	13.07
278.59	13.19
278.804	13.02
279.019	12.79
279.233	11.47
279.448	10.15
279.662	9.57
279.877	8.61
280.091	8.55
280.306	10.12
280.52	8.71
280.735	8.84
280.949	8.73
281.163	8.01
281.378	7.42
281.592	7.61
281.806	9.3
282.021	8.38
282.235	7.93
282.449	7.81
282.664	6.04
282.878	5.13
283.092	5.62
283.307	6.48
283.521	6.41
283.735	7.25
283.949	7.56
284.164	6.89
284.378	8.74
284.592	9.19
284.806	9.21
285.02	9.37
285.234	11.47
285.449	10.78
285.663	10.4
285.877	11.42
286.091	10.99
286.305	10.24
286.519	10.62
286.733	10.47
286.947	10.95
287.161	10.82
287.375	11.75
287.589	11.23
287.803	10.77
288.017	10.11
288.231	10.36
288.445	11.06
288.659	11.89
288.873	13.04
289.087	12.17
289.301	12.36
289.515	13.52
289.729	12.98
289.943	12.38
290.157	13.15
290.371	13.02
290.584	12.47
290.798	12.32
291.012	13.25
291.226	13.32
291.44	13.6
291.654	12.73
291.867	11.14
292.081	11.05
292.295	12.39
292.509	12.16
292.722	12.1
292.936	11.82
293.15	12.71
293.364	11.65
293.577	10.78
293.791	11.04
294.005	10.88
294.218	11.98
294.432	13.44
294.645	12.86
294.859	12.3
295.073	12.07
295.286	12.48
295.5	11.64
295.713	11.08
295.927	9.86
296.14	10.51
296.354	11.14
296.568	10.81
296.781	9.27
296.994	8.85
297.208	10.38
297.421	11.55
297.635	11.16
297.848	11.24
298.062	12
298.275	12.61
298.489	12.08
298.702	12.2
298.915	12.99
299.129	14.69
299.342	15.07
299.555	14.76
299.769	14.83
299.982	15.53
300.195	15.87
300.409	15.73
300.622	16.58
300.835	16.66
301.048	15.88
301.262	15.89
301.475	15.14
301.688	15.74
301.901	15.58
302.115	14.9
302.328	14.82
302.541	14.65
302.754	14.24
302.967	14.17
303.18	15.13
303.393	15.41
303.607	14.87
303.82	14.25
304.033	13.44
304.246	12.22
304.459	12.5
304.672	12.28
304.885	12.99
305.098	12.84
305.311	12.25
305.524	11.9
305.737	12.47
305.95	12.6
306.163	12.87
306.376	14.18
306.589	15.06
306.802	15.3
307.015	15.95
307.228	15.83
307.44	15.92
307.653	16.94
307.866	16.7
308.079	16.48
308.292	15.97
308.505	15.99
308.718	14.72
308.93	15.75
309.143	15.43
309.356	15.3
309.569	14.62
309.781	14.54
309.994	14.02
310.207	14.36
310.42	14.89
310.632	16.16
310.845	16.17
311.058	16.02
311.27	15.35
311.483	15.42
311.696	15.37
311.908	15.83
312.121	16.42
312.333	16.55
312.546	15.93
312.759	15.69
312.971	14.68
313.184	14.67
313.396	14.94
313.609	15.38
313.821	15.17
314.034	14.81
314.246	14.88
314.459	14.85
314.671	14.49
314.884	15.69
315.096	16.24
315.309	14.9
315.521	14
315.733	14.38
315.946	13.53
316.158	12.77
316.371	13.45
316.583	12.33
316.795	11.37
317.008	11.54
317.22	11.31
317.432	11.42
317.644	13.15
317.857	14.36
318.069	14.41
318.281	13.85
318.494	14.37
318.706	14.97
318.918	16.09
319.13	17.43
319.342	17.17
319.555	16.08
319.767	15.85
319.979	15.1
320.191	15.16
320.403	16.78
320.615	16.91
320.827	17.58
321.039	16.34
321.252	15.51
321.464	14.78
321.676	14.26
321.888	14.52
322.1	14
322.312	14.81
322.524	14.58
322.736	13.27
322.948	14.54
323.16	13.97
323.372	14.72
323.584	15.61
323.796	16.11
324.007	16.88
324.219	17.81
324.431	18.03
324.643	18.11
324.855	18.87
325.067	17.88
325.279	18
325.491	19.21
325.702	18.93
325.914	18.56
326.126	18.98
326.338	17.95
326.55	17.34
326.761	17.99
326.973	18.37
327.185	18.47
327.396	20.73
327.608	19.85
327.82	20.64
328.032	20.73
328.243	21.44
328.455	21.79
328.666	23.57
328.878	23.79
329.09	22.95
329.301	22.18
329.513	21.27
329.725	20.42
329.936	21.8
330.148	20.92
330.359	21.14
330.571	20.79
330.782	20.56
330.994	20.4
331.205	20.36
331.417	21.43
331.628	21.65
331.84	22.23
332.051	22.52
332.262	21.99
332.474	22.2
332.685	22.54
332.897	22.85
333.108	23.37
333.319	22.88
333.531	23.64
333.742	23.66
333.953	23.66
334.165	23.9
334.376	23.46
334.587	23.76
334.799	23.64
335.01	24.15
335.221	23.81
335.432	23.3
335.644	23.3
335.855	22.85
336.066	22.93
336.277	24.06
336.488	23.98
336.7	23.54
336.911	23.75
337.122	23.31
337.333	23.12
337.544	23.88
337.755	23.87
337.966	24.17
338.177	24.43
338.388	24.29
338.599	23.96
338.811	22.8
339.022	23.06
339.233	23.06
339.444	22.84
339.655	22.09
339.866	21.82
340.076	21.36
340.287	21.46
340.498	21.33
340.709	21.81
340.92	22
341.131	23.26
341.342	24.33
341.553	24.5
341.764	24.4
341.975	25.05
342.185	25.07
342.396	25.48
342.607	25.8
342.818	25.45
343.029	24.37
343.239	23.71
343.45	23.16
343.661	22
343.872	21.4
344.082	22.17
344.293	22.27
344.504	21.74
344.714	21.4
344.925	20.77
345.136	21.08
345.346	21.96
345.557	21.98
345.768	22.68
345.978	23.43
346.189	23.85
346.399	22.99
346.61	22.09
346.821	22.55
347.031	22.76
347.242	23.75
347.452	24.27
347.663	24.1
347.873	24.68
348.084	23.92
348.294	23.81
348.504	23.1
348.715	23.69
348.925	24.33
349.136	23.95
349.346	23.74
349.557	22.73
349.767	22.28
349.977	21.6
350.188	20.93
350.398	20.7
350.608	20.24
350.819	20.82
351.029	20.71
351.239	19.43
351.449	19.94
351.66	19.24
351.87	19.63
352.08	19.61
352.29	20.14
352.501	20.43
352.711	21.2
352.921	21.12
353.131	20.73
353.341	20.32
353.552	21.14
353.762	20.62
353.972	21.66
354.182	20.63
354.392	20.86
354.602	20.5
354.812	19.48
355.022	19.03
355.232	19.56
355.442	19.98
355.652	20.53
355.862	20.79
356.072	20.96
356.282	20.47
356.492	21.67
356.702	21.09
356.912	20.72
357.122	21.09
357.332	21.6
357.542	21.3
357.752	21.16
357.962	21.41
358.171	21.37
358.381	20.95
358.591	20.74
358.801	20.47
359.011	20.02
359.221	20.64
359.43	20.91
359.64	19.58
359.85	19.57
360.06	19.38
360.269	18.88
360.479	18.26
360.689	18.62
360.899	18.57
361.108	18.5
361.318	18.96
361.528	18.79
361.737	18.19
361.947	19.07
362.156	18.67
362.366	18.97
362.576	18.44
362.785	18.99
362.995	18.7
363.204	19.01
363.414	19.35
363.623	19.26
363.833	18.99
364.042	19.56
364.252	19.94
364.461	19.91
364.671	19.86
364.88	20.75
365.09	20.21
365.299	20.45
365.509	20.19
365.718	19.48
365.927	19.39
366.137	19.46
366.346	19.33
366.555	18.46
366.765	18.45
366.974	18.27
367.183	17.95
367.393	18.56
367.602	18.43
367.811	18.5
368.021	18.39
368.23	18.03
368.439	17.95
368.648	18.22
368.857	18.04
369.067	18.27
369.276	17.38
369.485	17.45
369.694	17.29
369.903	17.09
370.112	16.96
370.321	17.14
370.531	17.65
370.74	17.74
370.949	17.19
371.158	16.77
371.367	16.82
371.576	17.8
371.785	17.4
371.994	17
372.203	16.71
372.412	16.88
372.621	16.91
372.83	16.42
373.039	16.44
373.248	16.36
373.457	16.91
373.666	16.47
373.874	15.69
374.083	15.47
374.292	15.13
374.501	15.33
374.71	15.02
374.919	14.86
375.128	15.11
375.336	15.13
375.545	15.08
375.754	15.13
375.963	15.03
376.171	15.19
376.38	14.97
376.589	15.08
376.798	14.84
377.006	14.74
377.215	14.64
377.424	14.92
377.632	14.61
377.841	14.62
378.05	14.1
378.258	14.43
378.467	14.34
378.675	14.77
378.884	14.7
379.093	14.43
379.301	14.28
379.51	14.07
379.718	13.97
379.927	14.04
380.135	13.89
380.344	13.69
380.552	13.41
380.761	12.94
380.969	12.48
381.177	12.63
381.386	12.96
381.594	12.95
381.803	12.78
382.011	12.3
382.219	12.27
382.428	12.53
382.636	13
382.845	12.88
383.053	13.18
383.261	13.13
383.469	12.66
383.678	12.03
383.886	11.92
384.094	12.19
384.302	12.42
384.511	11.97
384.719	11.31
384.927	11.35
385.135	11.54
385.343	11.6
385.552	11.79
385.76	11.8
385.968	11.83
386.176	11.87
386.384	11.44
386.592	11.2
386.8	11.31
387.008	11.9
387.216	12.09
387.424	11.9
387.633	11.45
387.841	11.11
388.049	11.07
388.257	11.74
388.465	11.63
388.672	12.02
388.88	11.82
389.088	11.79
389.296	11.55
389.504	10.93
389.712	10.7
389.92	10.73
390.128	10.64
390.336	10.75
390.544	10.41
390.751	10.47
390.959	10.28
391.167	10.29
391.375	10.4
391.583	10.47
391.79	10.53
391.998	10.66
392.206	10.81
392.414	11.07
392.621	10.64
392.829	10.74
393.037	10.68
393.244	10.55
393.452	10.43
393.66	10.01
393.867	9.68
394.075	9.35
394.283	9.25
394.49	9.23
394.698	9.25
394.905	9.4
395.113	9
395.32	9.12
395.528	9.21
395.735	9.2
395.943	9.56
396.15	9.7
396.358	9.95
396.565	10.12
396.773	10
396.98	9.73
397.188	9.73
397.395	9.91
397.602	9.76
397.81	9.73
398.017	9.44
398.225	9.09
398.432	8.88
398.639	8.93
398.847	8.54
399.054	8.38
399.261	8.57
399.468	8.85
399.676	8.8
399.883	8.67
400.09	8.26
400.297	8.32
400.505	8.1
400.712	7.92
400.919	7.85
401.126	7.89
401.333	7.84
401.54	7.35
401.748	7.23
401.955	7.21
402.162	7.35
402.369	7.48
402.576	7.72
402.783	7.92
402.99	7.99
403.197	7.54
403.404	7.58
403.611	7.98
403.818	7.88
404.025	7.82
404.232	7.72
404.439	7.47
404.646	7.05
404.853	6.81
405.06	6.87
405.267	6.85
405.474	7.17
405.681	7.18
405.887	7.23
406.094	7.55
406.301	7.48
406.508	7.24
406.715	7.21
406.922	7.91
407.128	8.25
407.335	8.17
407.542	8.33
407.749	8.13
407.955	8.08
408.162	7.32
408.369	6.95
408.575	6.8
408.782	7.22
408.989	7.38
409.195	7.07
409.402	6.69
409.609	6.84
409.815	6.63
410.022	6.73
410.228	6.93
410.435	7.36
410.642	7.45
410.848	7.43
411.055	7.44
411.261	7.24
411.468	7.18
411.674	7.31
411.881	7.18
412.087	7.3
412.294	7.46
412.5	7.37
412.706	7.3
412.913	7.3
413.119	7.45
413.326	7.51
413.532	7.69
413.738	7.98
413.945	7.95
414.151	7.76
414.357	7.62
414.564	7.53
414.77	7.51
414.976	7.4
415.182	7.46
415.389	7.32
415.595	7
415.801	7.03
416.007	6.74
416.214	6.64
416.42	6.84
416.626	6.77
416.832	6.69
417.038	6.72
417.244	6.86
417.45	6.78
417.657	7
417.863	7.04
418.069	6.84
418.275	6.94
418.481	6.87
418.687	6.92
418.893	6.99
419.099	7.06
419.305	6.83
419.511	6.65
419.717	6.83
419.923	6.66
420.129	6.56
420.335	6.7
420.541	6.75
420.746	6.69
420.952	6.49
421.158	6.36
421.364	6.22
421.57	6.23
421.776	6.27
421.982	6.16
422.187	6.15
422.393	6.27
422.599	6.16
422.805	6.02
423.01	6.17
423.216	6.2
423.422	6.26
423.628	6.2
423.833	6.16
424.039	6.15
424.245	6.14
424.45	6.1
424.656	6.08
424.862	5.99
425.067	6.16
425.273	6.28
425.478	6.31
425.684	6.39
425.889	6.46
426.095	6.61
426.301	6.5
426.506	6.55
426.712	6.55
426.917	6.43
427.123	6.48
427.328	6.11
427.533	5.71
427.739	5.7
427.944	5.6
428.15	5.54
428.355	5.34
428.561	5.42
428.766	5.26
428.971	5.48
429.177	5.54
429.382	5.44
429.587	5.58
429.793	5.73
429.998	5.67
430.203	5.56
430.408	5.64
430.614	5.88
430.819	5.75
431.024	5.97
431.229	5.89
431.434	5.99
431.64	6.42
431.845	6.45
432.05	6.32
432.255	6.4
432.46	6.39
432.665	6.3
432.87	6.35
433.076	6.73
433.281	6.72
433.486	6.57
433.691	6.5
433.896	6.07
434.101	6.08
434.306	6.25
434.511	6.21
434.716	6.21
434.921	6.37
435.126	6.17
435.331	5.89
435.535	5.79
435.74	5.71
435.945	5.45
436.15	5.77
436.355	5.78
436.56	5.7
436.765	5.51
436.97	5.5
437.174	5.2
437.379	5.23
437.584	5.21
437.789	5.14
437.993	5.51
438.198	5.61
438.403	5.5
438.608	5.39
438.812	5.48
439.017	5.72
439.222	5.84
439.426	6.04
439.631	6.07
439.836	6.15
440.04	6.03
440.245	5.78
440.45	5.81
440.654	5.82
440.859	5.9
441.063	5.65
441.268	5.53
441.472	5.52
441.677	5.55
441.881	5.6
442.086	5.64
442.29	5.79
442.495	5.91
442.699	6.02
442.904	5.81
443.108	5.81
443.312	6.02
443.517	6.06
443.721	6.03
443.925	5.86
444.13	5.61
444.334	5.51
444.538	5.36
444.743	5.15
444.947	5.08
445.151	5.23
445.356	5.22
445.56	5.26
445.764	5.29
445.968	5.33
446.173	5.29
446.377	5.31
446.581	5.33
446.785	5.32
446.989	5.45
447.193	5.59
447.398	5.47
447.602	5.32
447.806	5.25
448.01	5.18
448.214	5.19
448.418	5.16
448.622	5.23
448.826	5.09
449.03	5.17
449.234	5.14
449.438	4.9
449.642	4.98
449.846	5.25
450.05	5.29
450.254	5.15
450.458	5.14
450.662	5.3
450.866	5.1
451.069	5.09
451.273	4.88
451.477	4.74
451.681	4.84
451.885	4.94
452.089	4.69
452.292	4.67
452.496	4.79
452.7	4.73
452.904	4.65
453.107	4.93
453.311	5.01
453.515	5.26
453.719	5.42
453.922	5.35
454.126	5.27
454.33	5.34
454.533	5.41
454.737	5.47
454.94	5.46
455.144	5.36
455.348	5.37
455.551	5.32
455.755	5.14
455.958	5.21
456.162	5.36
456.365	5.53
456.569	5.78
456.772	5.77
456.976	5.58
457.179	5.57
457.383	5.56
457.586	5.42
457.79	5.5
457.993	5.54
458.196	5.53
458.4	5.39
458.603	5.28
458.807	5.07
459.01	5.01
459.213	5.22
459.417	5.2
459.62	5.34
459.823	5.31
460.026	5.36
460.23	5.36
460.433	5.32
460.636	5.29
460.839	5.33
461.042	5.4
461.246	5.38
461.449	5.36
461.652	5.33
461.855	5.28
462.058	5.35
462.261	5.25
462.464	5.37
462.668	5.28
462.871	5.29
463.074	5.07
463.277	5.03
463.48	5.15
463.683	5.44
463.886	5.47
464.089	5.47
464.292	5.57
464.495	5.46
464.698	5.4
464.901	5.37
465.104	5.41
465.306	5.48
465.509	5.46
465.712	5.34
465.915	5.11
466.118	5.12
466.321	5.21
466.524	5.19
466.726	5.19
466.929	5.19
467.132	5.28
467.335	5.2
467.538	5.36
467.74	5.51
467.943	5.59
468.146	5.53
468.348	5.56
468.551	5.49
468.754	5.65
468.956	5.63
469.159	5.55
469.362	5.5
469.564	5.76
469.767	5.52
469.969	5.43
470.172	5.28
470.375	5.28
470.577	5.41
470.78	5.43
470.982	5.3
471.185	5.53
471.387	5.53
471.59	5.56
471.792	5.39
471.995	5.53
472.197	5.56
472.399	5.54
472.602	5.51
472.804	5.65
473.007	5.81
473.209	5.69
473.411	5.65
473.614	5.64
473.816	5.57
474.018	5.73
474.22	5.93
474.423	5.86
474.625	5.82
474.827	5.89
475.03	5.6
475.232	5.26
475.434	5.35
475.636	5.26
475.838	5.38
476.04	5.31
476.243	5.07
476.445	4.63
476.647	4.71
476.849	5.02
477.051	4.95
477.253	5.01
477.455	5.06
477.657	4.91
477.859	4.93
478.061	5.03
478.263	5.03
478.465	5.21
478.667	5.39
478.869	5.24
479.071	5.12
479.273	5.3
479.475	5.26
479.677	5.3
479.879	5.32
480.081	5.36
480.283	5.25
480.485	5.4
480.686	5.18
480.888	5.32
481.09	5.38
481.292	5.4
481.494	5.29
481.695	5.3
481.897	5.36
482.099	5.33
482.301	5.22
482.502	5.12
482.704	5.09
482.906	5.13
483.107	5.03
483.309	4.98
483.511	4.96
483.712	4.99
483.914	4.97
484.115	4.94
484.317	4.94
484.519	4.96
484.72	5.03
484.922	4.98
485.123	5
485.325	5.04
485.526	5.08
485.728	5.11
485.929	5.05
486.131	5.07
486.332	5.07
486.534	5.02
486.735	5
486.936	4.95
487.138	5.03
487.339	4.93
487.541	4.9
487.742	4.93
487.943	4.87
488.144	4.85
488.346	4.84
488.547	4.88
488.748	4.89
488.95	4.9
489.151	4.83
489.352	4.77
489.553	4.89
489.755	4.88
489.956	4.82
490.157	4.85
490.358	4.93
490.559	4.85
490.76	4.78
490.961	4.82
491.163	4.82
491.364	4.88
491.565	4.93
491.766	4.89
491.967	4.93
492.168	4.89
492.369	4.87
492.57	4.77
492.771	4.8
492.972	4.83
493.173	4.85
493.374	4.83
493.575	4.88
493.776	4.77
493.976	4.78
494.177	4.79
494.378	4.87
494.579	4.87
494.78	4.98
494.981	5.02
495.182	4.96
495.382	5.08
495.583	5.12
495.784	5.09
495.985	5.15
496.185	5.23
496.386	5.25
496.587	5.24
496.788	5.22
496.988	5.18
497.189	5.19
497.39	5.29
497.59	5.37
497.791	5.44
497.992	5.5
498.192	5.55
498.393	5.46
498.593	5.59
498.794	5.63
498.994	5.79
499.195	5.95
499.395	5.89
499.596	5.92
499.796	5.72
499.997	5.75
500.197	5.88
500.398	5.98
500.598	5.97
500.799	5.78
500.999	5.71
501.199	5.73
501.4	5.73
501.6	5.86
501.801	5.69
502.001	5.79
502.201	5.79
502.402	5.57
502.602	5.43
502.802	5.51
503.002	5.65
503.203	5.69
503.403	5.63
503.603	5.63
503.803	5.93
504.003	5.96
504.204	6.09
504.404	6.34
504.604	6.41
504.804	6.69
505.004	6.87
505.204	6.96
505.404	7.13
505.604	7.08
505.804	7.22
506.005	6.97
506.205	7.25
506.405	7.31
506.605	7.16
506.805	7.31
507.005	7.26
507.204	7.29
507.404	7.31
507.604	7.2
507.804	7.52
508.004	7.51
508.204	7.64
508.404	7.54
508.604	7.49
508.804	7.54
509.003	7.61
509.203	7.59
509.403	7.6
509.603	7.74
509.803	7.9
510.002	7.79
510.202	7.89
510.402	8.09
510.602	8.23
510.801	8.35
511.001	8.4
511.201	8.37
511.4	8.57
511.6	8.71
511.8	8.61
511.999	8.74
512.199	8.76
512.398	8.87
512.598	8.79
512.797	8.94
512.997	9.14
513.197	9.19
513.396	9.34
513.596	9.39
513.795	9.44
513.994	9.61
514.194	9.62
514.393	9.87
514.593	9.92
514.792	9.99
514.992	10.08
515.191	10.09
515.39	10.3
515.59	10.43
515.789	10.45
515.988	10.51
516.188	10.51
516.387	10.4
516.586	10.61
516.786	10.67
516.985	10.91
517.184	10.97
517.383	11.08
517.582	11.16
517.782	11.21
517.981	11.35
518.18	11.37
518.379	11.56
518.578	11.82
518.777	11.74
518.976	11.78
519.176	11.77
519.375	11.89
519.574	11.87
519.773	11.91
519.972	11.97
520.171	12.13
520.37	12.27
520.569	12.36
520.768	12.32
520.967	12.64
521.166	12.78
521.365	12.95
521.564	13.1
521.762	13.22
521.961	13.42
522.16	13.54
522.359	13.47
522.558	13.6
522.757	13.55
522.956	13.71
523.154	13.66
523.353	13.75
523.552	13.92
523.751	13.82
523.949	13.93
524.148	13.95
524.347	14.17
524.546	14.46
524.744	14.53
524.943	14.64
525.142	14.73
525.34	14.86
525.539	15
525.737	15.09
525.936	15.24
526.135	15.46
526.333	15.59
526.532	15.56
526.73	15.58
526.929	15.72
527.127	15.92
527.326	16.07
527.524	16.13
527.723	16.2
527.921	16.24
528.12	16.28
528.318	16.28
528.516	16.3
528.715	16.38
528.913	16.46
529.112	16.48
529.31	16.46
529.508	16.44
529.707	16.5
529.905	16.51
530.103	16.56
530.301	16.67
530.5	16.77
530.698	16.92
530.896	16.97
531.094	17.06
531.293	17.21
531.491	17.42
531.689	17.59
531.887	17.59
532.085	17.82
532.283	17.79
532.481	17.88
532.68	17.9
532.878	17.91
533.076	18.06
533.274	18.07
533.472	18.11
533.67	18.09
533.868	18.19
534.066	18.36
534.264	18.36
534.462	18.58
534.66	18.62
534.858	18.73
535.056	18.87
535.253	18.92
535.451	18.99
535.649	19.02
535.847	19.16
536.045	19.21
536.243	19.28
536.441	19.33
536.638	19.45
536.836	19.48
537.034	19.52
537.232	19.57
537.43	19.66
537.627	19.72
537.825	19.82
538.023	19.81
538.22	19.82
538.418	19.97
538.616	19.85
538.813	19.81
539.011	19.85
539.209	20
539.406	20.1
539.604	20.31
539.801	20.51
539.999	20.61
540.196	20.82
540.394	20.92
540.591	20.91
540.789	21.1
540.986	21.12
541.184	21.19
541.381	21.19
541.579	21.22
541.776	21.16
541.974	21.13
542.171	21.22
542.368	21.27
542.566	21.34
542.763	21.31
542.96	21.35
543.158	21.39
543.355	21.47
543.552	21.52
543.75	21.63
543.947	21.63
544.144	21.73
544.341	21.69
544.539	21.73
544.736	21.64
544.933	21.81
545.13	21.91
545.327	21.98
545.524	21.91
545.722	22.02
545.919	21.94
546.116	21.99
546.313	22.04
546.51	22.11
546.707	22.16
546.904	22.35
547.101	22.41
547.298	22.49
547.495	22.57
547.692	22.66
547.889	22.64
548.086	22.77
548.283	22.9
548.48	22.9
548.677	23.07
548.874	23.08
549.07	23.13
549.267	23.13
549.464	23.21
549.661	23.25
549.858	23.49
550.055	23.57
550.251	23.52
550.448	23.48
550.645	23.52
550.842	23.38
551.038	23.41
551.235	23.4
551.432	23.42
551.628	23.44
551.825	23.47
552.022	23.45
552.218	23.47
552.415	23.67
552.612	23.85
552.808	24.06
553.005	24.29
553.201	24.44
553.398	24.4
553.594	24.53
553.791	24.54
553.987	24.48
554.184	24.57
554.38	24.6
554.577	24.45
554.773	24.56
554.97	24.55
555.166	24.25
555.362	24.14
555.559	24.2
555.755	23.88
555.952	23.93
556.148	24.32
556.344	24.31
556.541	24.45
556.737	24.62
556.933	24.65
557.129	24.65
557.326	24.75
557.522	24.75
557.718	24.75
557.914	25.24
558.11	25.36
558.307	25.17
558.503	25.16
558.699	25.18
558.895	25.08
559.091	25
559.287	25.27
559.483	25.36
559.679	25.72
559.876	26.03
560.072	25.69
560.268	25.49
560.464	25.56
560.66	25.56
560.856	25.65
561.052	25.64
561.247	25.72
561.443	25.52
561.639	25.75
561.835	25.69
562.031	25.41
562.227	25.77
562.423	25.81
562.619	25.62
562.815	25.63
563.01	25.42
563.206	25.76
563.402	25.8
563.598	25.75
563.793	25.62
563.989	25.47
564.185	25.77
564.381	25.69
564.576	25.66
564.772	25.78
564.968	25.84
565.163	25.95
565.359	25.64
565.555	25.69
565.75	25.61
565.946	25.63
566.141	25.68
566.337	25.57
566.532	25.63
566.728	25.7
566.923	25.83
567.119	25.96
567.314	26.17
567.51	26.27
567.705	26.13
567.901	26.29
568.096	26.27
568.292	26.28
568.487	26.33
568.682	26.28
568.878	26.37
569.073	26.18
569.268	26.21
569.464	26.07
569.659	26.13
569.854	26.31
570.05	26.47
570.245	26.64
570.44	26.54
570.635	26.73
570.831	26.79
571.026	26.89
571.221	27.1
571.416	26.95
571.611	26.95
571.806	27.04
572.002	26.88
572.197	26.72
572.392	26.63
572.587	26.8
572.782	26.62
572.977	26.65
573.172	26.48
573.367	26.45
573.562	26.55
573.757	26.54
573.952	26.51
574.147	26.89
574.342	27.09
574.537	27.19
574.732	27.1
574.927	27.32
575.121	27.26
575.316	27.56
575.511	27.6
575.706	27.52
575.901	27.69
576.096	27.73
576.29	27.56
576.485	27.46
576.68	27.42
576.875	27.57
577.069	27.51
577.264	27.72
577.459	27.78
577.654	27.91
577.848	28.12
578.043	28.16
578.238	28.39
578.432	28.58
578.627	28.65
578.821	29.03
579.016	29.29
579.21	29.09
579.405	28.84
579.6	28.73
579.794	28.5
579.989	28.31
580.183	28.07
580.378	27.98
580.572	27.75
580.766	27.89
580.961	28.05
581.155	27.8
581.35	27.95
581.544	28.03
581.738	28.19
581.933	28.35
582.127	28.78
582.321	29.02
582.516	28.84
582.71	28.85
582.904	28.59
583.099	28.09
583.293	28.29
583.487	28.2
583.681	28.41
583.875	28.1
584.07	28.18
584.264	28.13
584.458	27.99
584.652	28.07
584.846	28.18
585.04	28.5
585.234	28.52
585.428	28.42
585.623	28.49
585.817	28.46
586.011	28.55
586.205	28.4
586.399	28.37
586.593	28.61
586.787	28.73
586.981	28.76
587.174	28.65
587.368	28.82
587.562	28.9
587.756	29.16
587.95	28.98
588.144	29.13
588.338	28.91
588.532	28.75
588.725	28.74
588.919	28.6
589.113	28.7
589.307	28.43
589.501	28.52
589.694	28.4
589.888	28.34
590.082	28.53
590.275	28.5
590.469	28.82
590.663	28.79
590.856	28.81
591.05	28.99
591.244	29.09
591.437	29.37
591.631	29.29
591.824	29.16
592.018	28.92
592.212	28.79
592.405	28.59
592.599	28.5
592.792	28.68
592.986	28.58
593.179	28.68
593.372	28.66
593.566	28.57
593.759	28.33
593.953	28.62
594.146	28.71
594.339	28.67
594.533	28.92
594.726	28.87
594.92	28.79
595.113	29.05
595.306	29
595.499	28.71
595.693	28.79
595.886	29.19
596.079	29.18
596.272	29.15
596.466	29.35
596.659	29.24
596.852	29.54
597.045	29.63
597.238	29.56
597.431	29.4
597.624	29.66
597.818	29.8
598.011	29.56
598.204	29.64
598.397	29.94
598.59	29.78
598.783	29.91
598.976	29.64
599.169	29.49
599.362	29.26
599.555	29.54
599.748	29.44
599.941	29.45
600.134	29.27
600.326	29.09
600.519	29.25
600.712	29.35
600.905	29.21
601.098	29.38
601.291	29.5
601.483	29.66
601.676	29.65
601.869	29.81
602.062	29.85
602.255	30.24
602.447	30.29
602.64	30.23
602.833	30.36
603.025	30.52
603.218	30.58
603.411	30.45
603.603	30.43
603.796	30.3
603.989	30.31
604.181	30.14
604.374	30.04
604.566	29.99
604.759	30.02
604.951	29.9
605.144	29.81
605.336	29.77
605.529	29.55
605.721	29.5
605.914	29.61
606.106	29.37
606.299	29.51
606.491	29.59
606.683	29.81
606.876	29.62
607.068	29.64
607.26	29.93
607.453	29.99
607.645	30.33
607.837	30.51
608.03	30.32
608.222	30.46
608.414	30.49
608.606	30.42
608.799	30.27
608.991	30.3
609.183	30.34
609.375	30.11
609.567	29.91
609.759	29.98
609.952	29.98
610.144	29.99
610.336	30.11
610.528	29.97
610.72	30.42
610.912	30.59
611.104	30.59
611.296	30.78
611.488	30.79
611.68	31.1
611.872	31.26
612.064	30.94
612.256	31.09
612.448	31.08
612.64	31.11
612.832	30.61
613.023	30.34
613.215	30.37
613.407	29.95
613.599	29.8
613.791	29.56
613.983	29.73
614.174	29.95
614.366	30.06
614.558	30.03
614.75	30.12
614.941	30.48
615.133	30.8
615.325	30.96
615.516	31.24
615.708	31.47
615.9	31.61
616.091	31.23
616.283	31.32
616.475	31.34
616.666	31.32
616.858	31.18
617.049	30.97
617.241	30.72
617.432	30.58
617.624	30.68
617.815	30.61
618.007	30.59
618.198	31.11
618.39	31.13
618.581	30.98
618.773	31.22
618.964	31.27
619.155	31.33
619.347	31.58
619.538	31.54
619.729	31.43
619.921	31.68
620.112	31.96
620.303	31.51
620.494	31.36
620.686	31.46
620.877	31.14
621.068	31.54
621.259	31.57
621.451	31.55
621.642	31.53
621.833	32.13
622.024	32.36
622.215	32.29
622.406	32.5
622.597	32.86
622.788	32.62
622.98	32.69
623.171	32.34
623.362	32.21
623.553	31.93
623.744	31.77
623.935	31.54
624.126	31.3
624.317	30.96
624.508	31
624.698	30.82
624.889	31.32
625.08	31.48
625.271	31.65
625.462	31.64
625.653	31.71
625.844	32.11
626.034	31.89
626.225	31.77
626.416	31.81
626.607	31.64
626.798	31.47
626.988	31.13
627.179	30.98
627.37	30.63
627.56	30.77
627.751	30.67
627.942	30.46
628.132	30.37
628.323	30.43
628.514	30.38
628.704	30.44
628.895	30.4
629.085	30.75
629.276	30.71
629.466	30.92
629.657	31.14
629.847	31.43
630.038	31.47
630.228	31.63
630.419	31.65
630.609	31.87
630.8	31.78
630.99	31.93
631.181	31.45
631.371	31.57
631.561	31.54
631.752	31.3
631.942	31.48
632.132	31.58
632.323	31.69
632.513	31.8
632.703	31.85
632.893	32.12
633.084	31.94
633.274	32.09
633.464	31.62
633.654	31.82
633.844	31.55
634.034	31.46
634.225	31.52
634.415	31.43
634.605	31.57
634.795	31.74
634.985	31.79
635.175	32.27
635.365	32.49
635.555	33.14
635.745	33.26
635.935	33.39
636.125	33.07
636.315	32.77
636.505	32.56
636.695	32.43
636.885	31.95
637.075	31.86
637.265	31.7
637.455	31.54
637.644	31.29
637.834	31.12
638.024	31.35
638.214	31.68
638.404	31.69
638.593	31.87
638.783	31.74
638.973	31.94
639.163	31.91
639.352	31.81
639.542	31.59
639.732	31.45
639.921	31.39
640.111	31.15
640.301	30.89
640.49	31.05
640.68	30.75
640.87	30.76
641.059	31.1
641.249	30.73
641.438	30.71
641.628	31.2
641.817	31.48
642.007	31.7
642.196	31.86
642.386	31.38
642.575	31.7
642.764	31.92
642.954	32.31
643.143	32.12
643.333	32.6
643.522	32.9
643.711	32.65
643.901	32.67
644.09	32.45
644.279	32.48
644.469	33.02
644.658	32.23
644.847	32.1
645.036	32.12
645.226	31.62
645.415	31.25
645.604	31.1
645.793	31.09
645.982	31.33
646.171	31.41
646.361	31.24
646.55	31.4
646.739	31.8
646.928	31.94
647.117	31.33
647.306	31.83
647.495	32.37
647.684	32.24
647.873	32.71
648.062	32.59
648.251	32.66
648.44	32.92
648.629	33.17
648.818	33.41
649.007	33.2
649.196	33.69
649.384	33.91
649.573	33.69
649.762	33.87
649.951	33.41
650.14	33.4
650.328	33.7
650.517	33.79
650.706	33.37
650.895	33.48
651.083	33.56
651.272	33.37
651.461	33.04
651.65	33.05
651.838	32.89
652.027	32.93
652.216	33.05
652.404	32.52
652.593	32.47
652.781	32.57
652.97	32.28
653.158	32.45
653.347	32.39
653.535	32.35
653.724	32.21
653.912	32.45
654.101	32.83
654.289	32.55
654.478	33.2
654.666	32.99
654.855	32.92
655.043	33.15
655.231	33.05
655.42	33.42
655.608	33.56
655.796	33.61
655.985	33.64
656.173	33.28
656.361	33.13
656.55	32.49
656.738	32.5
656.926	32.62
657.114	32.41
657.302	32.57
657.491	32.47
657.679	32.53
657.867	32.86
658.055	32.75
658.243	32.99
658.431	32.98
658.619	33.4
658.807	33.36
658.996	33.26
659.184	33.37
659.372	33.25
659.56	33.47
659.748	33.58
659.936	33.12
660.124	33.18
660.311	32.86
660.499	32.9
660.687	32.57
660.875	32.35
661.063	32.38
661.251	32.36
661.439	32.76
661.627	32.42
661.814	32.31
662.002	32.77
662.19	32.49
662.378	32.7
662.565	32.12
662.753	32.2
662.941	32.25
663.129	32.39
663.316	32.52
663.504	31.71
663.692	31.92
663.879	31.69
664.067	31.55
664.254	32.02
664.442	32.49
664.63	33.26
664.817	33.56
665.005	33.99
665.192	34.37
665.38	34.32
665.567	34.83
665.755	34.38
665.942	34.67
666.13	34.67
666.317	34.9
666.504	34.27
666.692	34.77
666.879	34.47
667.067	34.49
667.254	33.98
667.441	34.14
667.629	34.18
667.816	34.5
668.003	34.51
668.19	34.61
668.378	34.09
668.565	34.46
668.752	34.32
668.939	34.59
669.127	34.38
669.314	34.82
669.501	34.4
669.688	34.07
669.875	33.86
670.062	33.62
670.249	33.43
670.436	33.57
670.623	33.54
670.81	33.78
670.997	33.58
671.184	33.4
671.371	32.77
671.558	33.01
671.745	33.33
671.932	33.62
672.119	33.65
672.306	33.4
672.493	33.14
672.68	32.81
672.867	32.32
673.054	32.15
673.24	32.41
673.427	33.2
673.614	33.12
673.801	33.95
673.988	34.47
674.174	34.41
674.361	35.3
674.548	35.76
674.734	35.62
674.921	35.97
675.108	35.9
675.294	35.98
675.481	34.81
675.668	34.76
675.854	33.94
676.041	33.23
676.227	33.36
676.414	32.46
676.601	32.03
676.787	32.2
676.974	31.86
677.16	32.11
677.347	32.11
677.533	33.06
677.719	33.29
677.906	33.21
678.092	33.18
678.279	33.42
678.465	33.55
678.651	34.21
678.838	34.61
679.024	34.48
679.21	34.33
679.397	34.51
679.583	33.76
679.769	33.75
679.955	33.38
680.142	33.2
680.328	33.4
680.514	33.47
680.7	33.21
680.886	33.15
681.073	32.97
681.259	33.22
681.445	33.07
681.631	33.31
681.817	33.31
682.003	34.02
682.189	34.33
682.375	34.05
682.561	33.96
682.747	33.84
682.933	33.52
683.119	33.69
683.305	34.15
683.491	34.28
683.677	34.79
683.863	34.49
684.049	34.42
684.235	34.08
684.42	34.49
684.606	35.18
684.792	35.28
684.978	35.32
685.164	35.17
685.349	34.86
685.535	34.68
685.721	34.58
685.907	34.71
686.092	34.31
686.278	34.43
686.464	34.03
686.649	33.67
686.835	33.15
687.021	33.16
687.206	33.24
687.392	32.72
687.577	32.99
687.763	32.88
687.948	33.15
688.134	33.14
688.319	33.23
688.505	33.01
688.69	33.37
688.876	33.89
689.061	33.96
689.247	33.93
689.432	34.38
689.618	34.09
689.803	34.29
689.988	34.32
690.174	34.83
690.359	34.98
690.544	34.74
690.73	34.6
690.915	34.54
691.1	34.43
691.285	35.4
691.471	35.38
691.656	35.71
691.841	35.58
692.026	35.54
692.211	35.53
692.396	35.53
692.582	35.85
692.767	35.69
692.952	35.97
693.137	36.32
693.322	35.62
693.507	35.46
693.692	35.26
693.877	34.95
694.062	35.03
694.247	34.81
694.432	34.63
694.617	34.77
694.802	34.5
694.987	34.55
695.172	34.35
695.357	34.35
695.541	34.16
695.726	34.29
695.911	35.3
696.096	35.7
696.281	34.98
696.466	35.38
696.65	34.65
696.835	34.37
697.02	34.26
697.204	34.03
697.389	34.02
697.574	34.52
697.759	34.41
697.943	33.69
698.128	33.55
698.312	33.99
698.497	33.68
698.682	34.41
698.866	34.83
699.051	34.55
699.235	34.58
699.42	34.45
699.604	34.16
699.789	33.94
699.973	34.39
700.158	34
700.342	34.04
700.527	34.41
700.711	34.27
700.895	34.23
701.08	34.33
701.264	34.78
701.448	35.1
701.633	35.06
701.817	35.18
702.001	34.74
702.186	35.16
702.37	35.23
702.554	34.64
702.738	34.36
702.923	33.79
703.107	33.81
703.291	33.36
703.475	33.05
703.659	33.54
703.843	33.86
704.027	33.86
704.212	33.64
704.396	33.86
704.58	34.42
704.764	33.98
704.948	34.36
705.132	34.54
705.316	34.49
705.5	34.22
705.684	33.43
705.868	33.07
706.052	33.23
706.235	33.18
706.419	33.61
706.603	33.1
706.787	33.45
706.971	33.95
707.155	33.49
707.339	34.22
707.522	34.74
707.706	34.92
707.89	34.79
708.074	35.25
708.257	35.68
708.441	35.04
708.625	35.01
708.808	35.42
708.992	35.16
709.176	35.28
709.359	34.51
709.543	34.64
709.727	34.19
709.91	34.81
710.094	34.8
710.277	34.7
710.461	35.15
710.644	35.49
710.828	35.31
711.011	35.46
711.195	35.36
711.378	35.28
711.562	35.32
711.745	35.88
711.928	35.49
712.112	34.94
712.295	34.39
712.478	33.49
712.662	33.43
712.845	33.66
713.028	33.37
713.212	33.36
713.395	33.38
713.578	33.08
713.761	32.81
713.945	33.4
714.128	33.28
714.311	33.82
714.494	34.29
714.677	34.94
714.86	35.11
715.043	34.94
715.227	35.68
715.41	35.69
715.593	35.72
715.776	35.75
715.959	35.17
716.142	35.23
716.325	35.04
716.508	34.99
716.691	34.5
716.874	34.31
717.057	34.59
717.239	34.52
717.422	34.55
717.605	34.68
717.788	34.14
717.971	34.53
718.154	34.89
718.337	35.06
718.519	35.21
718.702	35.57
718.885	35.79
719.068	35.66
719.25	35.49
719.433	35.72
719.616	35.71
719.798	37.3
719.981	37.43
720.164	36.78
720.346	36.68
720.529	36.36
720.712	36.32
720.894	36.35
721.077	36.3
721.259	35.74
721.442	36.6
721.624	35.81
721.807	35.2
721.989	35.71
722.172	36.19
722.354	35.73
722.537	36.43
722.719	36.29
722.901	34.78
723.084	34
723.266	34.36
723.448	33.42
723.631	34.09
723.813	33.91
723.995	32.25
724.178	32.12
724.36	32.56
724.542	32.71
724.724	31.99
724.907	33.17
725.089	34.15
725.271	34.05
725.453	33.8
725.635	34.08
725.817	34.67
725.999	35.76
726.181	35.56
726.364	35.82
726.546	35.28
726.728	35.88
726.91	36.07
727.092	35.81
727.274	35.82
727.456	36.35
727.638	36.58
727.819	36.1
728.001	35.28
728.183	34.99
728.365	34.39
728.547	34.51
728.729	34.44
728.911	34.17
729.093	34.47
729.274	34.61
729.456	34.18
729.638	33.58
729.82	33.56
730.001	34.03
730.183	34.72
730.365	35.92
730.546	35.68
730.728	36.1
730.91	35.73
731.091	36.04
731.273	35.63
731.455	35.54
731.636	35.57
731.818	35.49
731.999	35.32
732.181	35.09
732.362	34.78
732.544	34.58
732.725	33.88
732.907	34.39
733.088	34.28
733.27	34.96
733.451	35.08
733.633	35.32
733.814	36.23
733.995	36.4
734.177	37.34
734.358	36.65
734.539	37.13
734.721	36.89
734.902	36.8
735.083	36.88
735.264	36.69
735.446	36.97
735.627	36.96
735.808	36.16
735.989	36.59
736.17	35.7
736.351	35.95
736.533	36.04
736.714	36.23
736.895	36.13
737.076	36.19
737.257	36.03
737.438	37.17
737.619	36.92
737.8	36.65
737.981	35.77
738.162	35.3
738.343	35.12
738.524	34.97
738.705	35.97
738.886	35.79
739.067	36.38
739.247	36.64
739.428	35.9
739.609	36.17
739.79	36.4
739.971	37.99
740.151	38.54
740.332	39.26
740.513	39.5
740.694	37.92
740.874	38.35
741.055	37.22
741.236	36.26
741.417	35.46
741.597	35.63
741.778	36.08
741.958	35.24
742.139	34.08
742.32	33.34
742.5	32.78
742.681	33.13
742.861	32.04
743.042	32.37
743.222	32.88
743.403	33.22
743.583	34.1
743.764	33.98
743.944	33.18
744.124	35.22
744.305	35.08
744.485	35.15
744.666	34.32
744.846	34.94
745.026	34.97
745.207	36.29
745.387	36.28
745.567	36.47
745.747	35.37
745.928	36.68
746.108	35.46
746.288	35.53
746.468	34.84
746.648	36.44
746.829	35.97
747.009	35.68
747.189	34.73
747.369	34.82
747.549	33.68
747.729	34.92
747.909	33.43
748.089	33.44
748.269	33.33
748.449	34.16
748.629	34.85
748.809	34.99
748.989	35.68
749.169	35.1
749.349	35.79
749.529	34.99
749.709	34.58
749.889	35.18
750.068	35.28
750.248	36.31
750.428	36.63
750.608	36.01
750.788	36.45
750.967	35.74
751.147	36.09
751.327	35.37
751.507	36.32
751.686	36.94
751.866	37.9
752.046	38.56
752.225	37.91
752.405	37.5
752.585	36.98
752.764	38.07
752.944	38.9
753.123	39.38
753.303	40.14
753.482	40.4
753.662	40.23
753.841	39.46
754.021	37.98
754.2	37.59
754.38	38.12
754.559	37.68
754.739	36.1
754.918	35.52
755.097	34.91
755.277	33.93
755.456	34.16
755.635	33.16
755.815	33.26
755.994	34.55
756.173	34.26
756.352	34.04
756.532	34.01
756.711	36.27
756.89	35.88
757.069	36.56
757.248	36.4
757.427	34.54
757.607	35.95
757.786	35.79
757.965	36.43
758.144	37.66
758.323	37.37
758.502	37.27
758.681	36.11
758.86	36.09
759.039	35.96
759.218	36.36
759.397	37.88
759.576	37.44
759.755	37.35
759.934	36.4
760.113	36.16
760.291	36.53
760.47	37.98
760.649	36.93
760.828	37.6
761.007	37.9
761.186	38.13
761.364	37.62
761.543	36.79
761.722	37.37
761.901	37.3
762.079	37.82
762.258	38.01
762.437	36.69
762.615	36.84
762.794	36.32
762.972	35.49
763.151	35.17
763.33	35.17
763.508	35.04
763.687	34.31
763.865	34.91
764.044	34.46
764.222	33.87
764.401	34.56
764.579	34.86
764.758	35.5
764.936	35.37
765.114	35.69
765.293	35.98
765.471	36.69
765.65	37.09
765.828	36.38
766.006	36.45
766.184	36.23
766.363	34.99
766.541	34.42
766.719	34.4
766.898	34.89
767.076	35.15
767.254	35.29
767.432	35.36
767.61	35.23
767.788	36.48
767.967	35.75
768.145	35.74
768.323	35.6
768.501	35.61
768.679	33.58
768.857	33.74
769.035	33.05
769.213	32.78
769.391	33.04
769.569	31.89
769.747	30.89
769.925	30.66
770.103	30.85
770.281	32.65
770.459	32.75
770.636	35.09
770.814	34.16
770.992	33.77
771.17	32.24
771.348	31.37
771.525	32.53
771.703	31.94
771.881	32.22
772.059	32.72
772.236	32.51
772.414	31.17
772.592	29.42
772.769	32.18
772.947	31.95
773.125	33.46
773.302	34.38
773.48	35.04
773.657	33.83
773.835	34.94
774.013	35.36
774.19	36.22
774.368	36.62
774.545	37.45
774.723	35.63
774.9	35.39
775.077	36.08
775.255	35.96
775.432	35.35
775.61	38.1
775.787	37.46
775.964	37
776.142	35.34
776.319	37.02
776.496	37.12
776.674	36.68
776.851	37.46
777.028	36.75
777.205	36.06
777.382	37.39
777.56	35.15
777.737	35.55
777.914	35.51
778.091	36.55
778.268	37.29
778.445	35.52
778.622	36.37
778.8	36.23
778.977	37.28
779.154	36.68
779.331	35.69
779.508	36.9
779.685	38.03
779.862	38.71
780.038	38.79
780.215	37.09
780.392	39.12
780.569	38.41
780.746	38.67
780.923	36.37
781.1	37.08
781.277	36.99
781.453	35.12
781.63	32.27
781.807	31.05
781.984	30.67
782.16	31.98
782.337	30.96
782.514	31.84
782.691	30.44
782.867	30.85
783.044	30.74
783.221	30.43
783.397	32.19
783.574	33.46
783.75	33.99
783.927	34.73
784.103	35.87
784.28	35.68
784.456	36.13
784.633	38.81
784.809	39.17
784.986	37.89
785.162	36.72
785.339	36.43
785.515	36.61
785.692	37.77
785.868	38.44
786.044	35.6
786.221	35.5
786.397	35.85
786.573	34.56
786.749	33.26
786.926	34.86
787.102	41.06
787.278	40.34
787.454	39.31
787.631	39.5
787.807	38.02
787.983	39.4
788.159	40.98
788.335	38.47
788.511	40.62
788.687	40.58
788.863	41.06
789.039	35.65
789.216	36.28
789.392	36.38
789.568	35.7
789.744	35.83
789.919	36.36
790.095	34.74
790.271	36.1
790.447	34.16
790.623	33.31
790.799	32.15
790.975	34.85
791.151	36.67
791.327	38.31
791.502	38.16
791.678	39.01
791.854	38.95
792.03	40.26
792.205	38.65
792.381	38.12
792.557	42.6
792.733	42.13
792.908	40.56
793.084	39.69
793.259	41.34
793.435	38.7
793.611	39.27
793.786	38.79
793.962	36.96
794.137	39.36
794.313	38.49
794.488	35.58
794.664	37.3
794.839	39.12
795.015	38.22
795.19	36.48
795.366	36.36
795.541	36.21
795.716	35.23
795.892	36.4
796.067	36.27
796.242	37.21
796.418	35.91
796.593	37.15
796.768	37.65
796.944	38.34
797.119	37.33
797.294	39.17
797.469	36.79
797.644	37.23
797.82	37.17
797.995	36.49
798.17	38.64
798.345	40.33
798.52	38.59
798.695	36.46
798.87	34.29
799.045	33.79
799.22	34.01
799.395	35.55
799.57	34.34
799.745	35.31
799.92	36
800.095	34.1
800.27	36.02
800.445	35.04
800.62	37.09
800.795	38.22
800.97	39.86
801.145	38.84
801.319	39.15
801.494	39.52
801.669	40.3
801.844	40.14
802.018	41.27
802.193	39.19
802.368	41.01
802.543	41.37
802.717	41.96
802.892	39.87
803.067	40.64
803.241	40.81
803.416	41.84
803.59	39.46
803.765	38.44
803.94	34.69
804.114	33.58
804.289	33.11
804.463	30.36
804.638	29.9
804.812	32.05
804.986	34.62
805.161	32.66
805.335	33.62
805.51	33.96
805.684	33.33
805.858	36.85
806.033	39.47
806.207	39.68
806.381	39.58
806.556	37.46
806.73	36.08
806.904	35.08
807.078	36.86
807.253	36.53
807.427	35.88
807.601	36.7
807.775	35.67
807.949	35.4
808.123	37.16
808.298	37.81
808.472	39.29
808.646	40.24
808.82	38.78
808.994	35.27
809.168	34.49
809.342	36.81
809.516	34.97
809.69	36.16
809.864	34.18
810.038	30.45
810.212	30.67
810.385	32.74
810.559	31.32
810.733	35.97
810.907	40.14
811.081	39.52
811.255	35.93
811.428	37.72
811.602	36
811.776	35.99
811.95	37.89
812.123	35.61
812.297	33.91
812.471	34.41
812.644	30.56
812.818	30.42
812.992	33.35
813.165	36.65
813.339	37.7
813.512	37.86
813.686	36.68
813.86	37.95
814.033	40.77
814.207	41.12
814.38	45.81
814.554	46.37
814.727	45.57
814.9	44.19
815.074	43.23
815.247	41.88
815.421	41.88
815.594	43.38
815.767	44.47
815.941	41.05
816.114	38.71
816.287	34.57
816.46	31.66
816.634	30.52
816.807	28.32
816.98	28.09
817.153	32.54
817.327	34.05
817.5	34.22
817.673	31.46
817.846	35.65
818.019	39.06
818.192	40.19
818.365	39.89
818.538	41.88
818.711	45.1
818.884	47.95
819.057	44.5
819.23	43.64
819.403	45.15
819.576	45.48
819.749	43.55
819.922	43.34
820.095	41.62
820.268	42.88
820.441	43.46
820.614	42.29
820.786	40.15
820.959	38.94
821.132	38.66
821.305	37.68
821.477	37.51
821.65	36.25
821.823	35.3
821.996	35.43
822.168	35.13
822.341	34.77
822.514	34.94
822.686	35.5
822.859	35.58
823.031	35.65
823.204	36.21
823.376	35.55
823.549	35.8
823.722	35.86
823.894	36
824.067	36.48
824.239	36.71
824.411	36.81
824.584	36.77
824.756	37.01
824.929	36.93
825.101	35.81
825.273	36.06
825.446	36.61
825.618	37.01
825.79	36.45
825.963	36.05
826.135	36.27
826.307	35.08
826.479	33.92
826.652	33.48
826.824	33.84
826.996	34.08
827.168	35.69
827.34	35.77
827.512	34.86
827.684	35
827.856	34.95
828.029	33.84
828.201	34.35
828.373	35.31
828.545	36.17
828.717	35.77
828.889	36.77
829.061	35.84
829.232	35.27
829.404	35.82
829.576	37.26
829.748	37.44
829.92	38.37
830.092	39.36
830.264	39.83
830.436	39.76
830.607	39.35
830.779	38.86
830.951	38.71
831.123	37.25
831.294	37.12
831.466	37.13
831.638	38.66
831.809	40.79
831.981	41.64
832.153	41.53
832.324	42.69
832.496	43.74
832.667	45.07
832.839	43.31
833.011	47.97
833.182	48.08
833.354	43.03
833.525	41
833.697	39.72
833.868	39.85
834.039	38.99
834.211	36.98
834.382	37.34
834.554	37.79
834.725	37.97
834.896	35.34
835.068	36.39
835.239	38.63
835.41	40.12
835.581	40.58
835.753	39.88
835.924	39.64
836.095	39.6
836.266	37.88
836.438	36.06
836.609	37.08
836.78	37.22
836.951	36.44
837.122	37.3
837.293	37.08
837.464	35.61
837.635	34.64
837.806	34.28
837.977	35.92
838.148	36.85
838.319	40.66
838.49	38.93
838.661	39.95
838.832	40.71
839.003	38.83
839.174	38.27
839.345	37.23
839.516	38.92
839.687	39.77
839.857	39.84
840.028	40.78
840.199	35.84
840.37	36.84
840.54	39.64
840.711	35.97
840.882	37.73
841.053	37.92
841.223	40.49
841.394	39.62
841.564	37.98
841.735	38.96
841.906	36.76
842.076	38.07
842.247	39.98
842.417	34.11
842.588	37.61
842.758	35.67
842.929	31.14
843.099	26.43
843.27	28.97
843.44	34.26
843.611	34.26
843.781	32.51
843.951	31.12
844.122	29.03
844.292	32.45
844.462	36.68
844.633	40.67
844.803	42.85
844.973	46.47
845.144	46.05
845.314	40.5
845.484	34.7
845.654	41.91
845.824	46.53
845.995	52.4
846.165	53.91
846.335	44.62
846.505	42.31
846.675	48.23
846.845	46.97
847.015	48.67
847.185	56.01
847.355	61.39
847.525	59.26
847.695	51.53
847.865	45.28
848.035	42.13
848.205	47.36
848.375	50.72
848.545	45.34
848.715	45.92
848.884	40.36
849.054	39.05
849.224	38.32
849.394	39.9
849.564	38.17
849.733	35.85
849.903	41.03
850.073	39.33
850.243	29.68
850.412	23.91
850.582	22.91
850.752	19.68
850.921	18.49
851.091	19.58
851.26	18.56
851.43	21.49
851.599	19.72
851.769	10.11
851.939	15.34
852.108	25.29
852.278	34.48
852.447	35.23
852.616	37.06
852.786	36.34
852.955	33.17
853.125	36.95
853.294	36.78
853.463	38.05
853.633	39.51
853.802	36.99
853.971	42.71
854.141	32.38
854.31	32.18
854.479	34.13
854.648	31.75
854.818	36.35
854.987	32.82
855.156	35.32
855.325	40.97
855.494	44.71
855.663	46.94
855.832	40.62
856.001	46.06
856.171	42.67
856.34	45.03
856.509	47.74
856.678	49.06
856.847	51.89
857.016	53.52
857.185	51.94
857.353	47.95
857.522	43.69
857.691	35.37
857.86	46.93
858.029	53
858.198	53.65
858.367	54.08
858.535	50.07
858.704	52.83
858.873	57.25
859.042	55.37
859.21	67.91
859.379	72.4
859.548	74.6
859.717	62.77
859.885	61.72
860.054	65.42
860.222	67.75
860.391	61.87
860.56	57.12
860.728	50.69
860.897	51.49
861.065	48.55
861.234	49.78
861.402	46.11
861.571	43.5
861.739	44.32
861.908	41.27
862.076	33.82
862.244	40.38
862.413	41.97
862.581	47.74
862.749	46.94
862.918	46.74
863.086	44.23
863.254	47.37
863.423	48.75
863.591	43.25
863.759	30.88
863.927	34.24
864.096	30.8
864.264	28.63
864.432	27.72
864.6	33.4
864.768	21.58
864.936	14.09
865.104	20.1
865.272	16.35
865.44	16.5
865.608	27.04
865.776	31.6
865.944	30.96
866.112	24.34
866.28	17.31
866.448	8.9
866.616	12.99
866.784	21.62
866.952	23.65
867.12	22.15
867.288	18.48
867.455	24.11
867.623	25.19
867.791	26.43
867.959	34.75
868.127	36.93
868.294	43.03
868.462	48.65
868.63	54.91
868.797	45.76
868.965	47.79
869.133	53.22
869.3	50.51
869.468	51.36
869.636	49.67
869.803	51.65
869.971	63.99
870.138	72.41
870.306	70.39
870.473	64.38
870.641	72.83
870.808	70.4
870.975	64.15
871.143	67.45
871.31	66.71
871.478	67.02
871.645	74.41
871.812	63.49
871.98	49.75
872.147	59.16
872.314	60.34
872.482	45.9
872.649	51.21
872.816	60.53
872.983	61.25
873.15	53.21
873.318	50.59
873.485	45.38
873.652	45.59
873.819	46.63
873.986	40.52
874.153	43.5
874.32	47.32
874.487	44.66
874.654	37.96
874.821	37.49
874.988	38.12
875.155	39.3
875.322	23.72
875.489	28.22
875.656	30.01
875.823	29.49
875.99	32.01
876.157	40.57
876.324	46.07
876.49	56.35
876.657	54.92
876.824	61.36
876.991	56.76
877.157	71
877.324	66.09
877.491	53.44
877.658	51.51
877.824	27.7
877.991	31.52
878.157	34.68
878.324	25.98
878.491	18.81
878.657	19.77
878.824	29.94
878.99	28.45
879.157	36.62
879.323	37.19
879.49	38.16
879.656	44.94
879.823	35.9
879.989	30.04
880.156	33.04
880.322	36.37
880.488	31.96
880.655	28.76
880.821	32.02
880.987	30.79
881.154	30.74
881.32	32.08
881.486	40.68
881.652	43.76
881.819	44.53
881.985	42
882.151	42.44
882.317	42.27
882.483	41
882.649	39.03
882.816	40.38
882.982	40.44
883.148	38.46
883.314	35.48
883.48	33.62
883.646	33.79
883.812	33.33
883.978	33.03
884.144	33.52
884.31	35
884.476	35.92
884.642	35.2
884.807	35.67
884.973	36.69
885.139	36.24
885.305	36.26
885.471	35.91
885.637	35.01
885.802	35.67
885.968	37.45
886.134	36.33
886.3	34.22
886.465	36.49
886.631	35.62
886.797	36.82
886.962	38.78
887.128	42.35
887.293	44.53
887.459	49.76
887.625	45.82
887.79	41.24
887.956	37.77
888.121	41.46
888.287	36.58
888.452	36.16
888.618	31.96
888.783	27.87
