Data from CB_096_Reflection_3.txt Node
Date: Sat Nov 14 17:30:16 EST 2015
User: robert
Spectrometer: USB4E03001
Autoset integration time: false
Trigger mode: 4
Integration Time (sec): 1.000000E-1
Scans to average: 15
Electric dark correction enabled: true
Nonlinearity correction enabled: false
Boxcar width: 5
Stray light correction enabled: false
XAxis mode: Wavelengths
Stop averaging: false
Number of Pixels in Spectrum: 3648
>>>>>Begin Spectral Data<<<<<
177.566	-24.06
177.785	1155.67
178.005	-209.04
178.225	77.32
178.445	1850.53
178.665	-58.28
178.885	1204.12
179.105	-54.12
179.324	-114.95
179.544	-12.28
179.764	-0.45
179.984	-0.7
180.204	-15.41
180.423	-8.36
180.643	20.87
180.863	-53.03
181.083	-36.74
181.302	-18.35
181.522	-21.26
181.742	-22.4
181.961	-65.88
182.181	-109.91
182.401	-477.56
182.621	-289.34
182.84	-327.52
183.06	-146.46
183.279	-101.89
183.499	-119.13
183.719	-163.06
183.938	-137.83
184.158	-55.6
184.377	8.02
184.597	-0.83
184.816	43.12
185.036	45.82
185.256	41.79
185.475	54.18
185.695	46.8
185.914	34.63
186.134	35.24
186.353	62.6
186.572	47.22
186.792	35.52
187.011	36.3
187.231	27.31
187.45	35.75
187.67	38.33
187.889	25.49
188.108	41.71
188.328	50.13
188.547	70.72
188.766	54.63
188.986	54.57
189.205	54.89
189.424	51.07
189.644	60.55
189.863	63.75
190.082	50.11
190.302	49.99
190.521	47.68
190.74	33.59
190.959	-2.9
191.178	-6.82
191.398	-25.14
191.617	-19.9
191.836	-28.85
192.055	-35.38
192.274	-55.39
192.494	-27.24
192.713	-112.84
192.932	-109.87
193.151	-83.48
193.37	22.11
193.589	2.66
193.808	18.46
194.027	-110.15
194.246	117.51
194.465	38.89
194.685	31.4
194.904	1.07
195.123	-3.27
195.342	-7.1
195.561	15.22
195.78	-4
195.999	12.5
196.218	18.77
196.436	32.5
196.655	27.28
196.874	31.89
197.093	24.63
197.312	27.44
197.531	46.67
197.75	48.09
197.969	49.26
198.188	66.8
198.407	57.72
198.625	45.87
198.844	57.46
199.063	64.93
199.282	65.39
199.501	71.46
199.719	77.85
199.938	70.02
200.157	55.47
200.376	59.69
200.594	61.4
200.813	70.08
201.032	62.3
201.251	54.55
201.469	51.37
201.688	43.25
201.907	33.65
202.125	13.73
202.344	-3.12
202.563	15.56
202.781	-7.53
203	-30.95
203.218	1.57
203.437	36.34
203.656	32.11
203.874	7.41
204.093	-5.69
204.311	21.74
204.53	37.82
204.748	42.25
204.967	40.44
205.185	44.69
205.404	33.98
205.622	6.78
205.841	-8.46
206.059	-5.56
206.278	5.42
206.496	1.97
206.715	1.06
206.933	17.74
207.151	12.65
207.37	-3.79
207.588	2.19
207.806	16.05
208.025	16.35
208.243	20.44
208.461	20.86
208.68	20.52
208.898	32.2
209.116	31.57
209.335	24.86
209.553	21.81
209.771	26.18
209.989	24.37
210.208	0.91
210.426	4.79
210.644	23.44
210.862	12.62
211.081	7.83
211.299	20.5
211.517	31.9
211.735	31.11
211.953	35.34
212.171	46.31
212.39	49.31
212.608	69.76
212.826	88.39
213.044	76
213.262	85.99
213.48	94.57
213.698	77.09
213.916	74.72
214.134	58.26
214.352	53.2
214.57	39.54
214.788	48.99
215.006	22.19
215.224	0.65
215.442	-4.33
215.66	7.08
215.878	-23.67
216.096	-50.64
216.314	-23.93
216.532	-12.3
216.75	-8.13
216.968	-8.82
217.185	-41.35
217.403	-36.51
217.621	-65.88
217.839	-26.89
218.057	-92.3
218.275	-33.94
218.492	-26.88
218.71	36.33
218.928	23.08
219.146	71.84
219.363	60.59
219.581	73
219.799	68.28
220.017	82.73
220.234	71.32
220.452	98.15
220.67	95.11
220.887	159.97
221.105	119.69
221.323	1684.05
221.54	90.41
221.758	1133.57
221.976	427.16
222.193	114.23
222.411	167.51
222.629	145.02
222.846	205.98
223.064	-315.75
223.281	319.63
223.499	172.23
223.716	262.81
223.934	-57.02
224.151	43.41
224.369	19.36
224.586	30.65
224.804	56.32
225.021	40.17
225.239	54.73
225.456	81.89
225.674	47.4
225.891	19.9
226.108	-10.73
226.326	-23.09
226.543	7.99
226.76	31.34
226.978	25.24
227.195	14.92
227.413	17.11
227.63	14.82
227.847	13.54
228.064	24.05
228.282	22.4
228.499	27.75
228.716	25.58
228.934	20.89
229.151	17.72
229.368	16.46
229.585	15.01
229.802	13.12
230.02	12.52
230.237	10.78
230.454	8.88
230.671	9.91
230.888	7.35
231.105	1.3
231.323	-2.04
231.54	-9.24
231.757	-15.3
231.974	-18.77
232.191	-19.34
232.408	-13.34
232.625	-2.56
232.842	-1.83
233.059	3.2
233.276	-6.21
233.493	2.08
233.71	11.43
233.927	20.84
234.144	25.82
234.361	19.22
234.578	16.38
234.795	13.63
235.012	3.86
235.229	-2.29
235.446	-3.4
235.663	5.52
235.879	6.54
236.096	-0.54
236.313	-11.46
236.53	-8.7
236.747	-2.29
236.964	-1.81
237.181	-5.11
237.397	-4.06
237.614	-1.21
237.831	-3.34
238.048	-6.38
238.264	-9.36
238.481	-3.83
238.698	6.53
238.915	6.77
239.131	9.19
239.348	10.45
239.565	11.02
239.781	10.68
239.998	12.57
240.215	12.74
240.431	6.89
240.648	12.27
240.865	13.75
241.081	16.02
241.298	14.23
241.514	13.87
241.731	14.1
241.947	13.02
242.164	13.31
242.38	13.51
242.597	13.41
242.814	15.45
243.03	13.31
243.246	14.07
243.463	13.11
243.679	13.18
243.896	11.62
244.112	10.74
244.329	9.46
244.545	13.66
244.762	13
244.978	14.96
245.194	13.24
245.411	13.74
245.627	12.22
245.843	10.78
246.06	9.61
246.276	10.95
246.492	10.63
246.709	10.1
246.925	8.76
247.141	9.05
247.357	8.58
247.574	9.24
247.79	8.89
248.006	9.43
248.222	8.73
248.439	9
248.655	7.73
248.871	8.19
249.087	9.72
249.303	9.7
249.519	10.03
249.736	9.49
249.952	8.68
250.168	9.54
250.384	5.75
250.6	5.84
250.816	4.78
251.032	7.48
251.248	6.28
251.464	3.93
251.68	2.01
251.896	1.88
252.112	0.44
252.328	0.65
252.544	-1.62
252.76	-0.24
252.976	-0.7
253.192	0.72
253.408	1.52
253.624	3.4
253.84	6.71
254.056	8.06
254.272	8.12
254.487	9.72
254.703	11.17
254.919	11.9
255.135	11.28
255.351	12.64
255.567	14.79
255.782	12.49
255.998	10.72
256.214	4.25
256.43	7.43
256.646	7.56
256.861	10.01
257.077	8.37
257.293	13.73
257.508	15.45
257.724	13.81
257.94	15.1
258.155	13.25
258.371	9.99
258.587	9.63
258.802	8.55
259.018	8.75
259.234	8.2
259.449	7.83
259.665	6.6
259.88	6.33
260.096	6.73
260.312	6.14
260.527	6.57
260.743	7.27
260.958	8.03
261.174	7.65
261.389	7.73
261.605	7.86
261.82	8.16
262.036	8.06
262.251	7.33
262.466	7.72
262.682	6.82
262.897	5.99
263.113	6.76
263.328	8.01
263.543	7.66
263.759	3.56
263.974	2.07
264.189	0.55
264.405	-0.65
264.62	2.48
264.835	2.09
265.051	3.14
265.266	5.42
265.481	6.84
265.696	5.15
265.912	5.97
266.127	8.79
266.342	10.35
266.557	10.75
266.773	10.66
266.988	8.5
267.203	8.14
267.418	7.03
267.633	7.44
267.848	5.65
268.064	6.65
268.279	6.3
268.494	6.81
268.709	5.32
268.924	7.32
269.139	7.1
269.354	7.61
269.569	7.75
269.784	8.61
269.999	7.53
270.214	8.8
270.429	5.89
270.644	6.65
270.859	7.19
271.074	6.59
271.289	4.62
271.504	5.83
271.719	7.69
271.934	5.83
272.149	6.51
272.363	6.97
272.578	6.84
272.793	7.48
273.008	6.83
273.223	5.91
273.438	5.88
273.653	6.77
273.867	5.92
274.082	4.41
274.297	7.19
274.512	5.94
274.726	4.49
274.941	3.63
275.156	4.76
275.371	6
275.585	6.06
275.8	8.51
276.015	7.37
276.229	7.96
276.444	8.24
276.659	8.47
276.873	9.83
277.088	10.56
277.302	11.09
277.517	11.52
277.732	9.81
277.946	9.86
278.161	7.47
278.375	9.17
278.59	9.59
278.804	8.01
279.019	7.19
279.233	6.17
279.448	5.82
279.662	5.28
279.877	5.02
280.091	7.11
280.306	7.18
280.52	6.64
280.735	6.38
280.949	5.96
281.163	6.39
281.378	6
281.592	6.86
281.806	7.13
282.021	7.5
282.235	8.08
282.449	7.86
282.664	8.41
282.878	9.66
283.092	9.22
283.307	9.88
283.521	10.15
283.735	9.9
283.949	8.64
284.164	8.5
284.378	9.42
284.592	9.4
284.806	9.52
285.02	9.68
285.234	9.84
285.449	10.44
285.663	10.41
285.877	10.24
286.091	10.07
286.305	10.41
286.519	10.98
286.733	9.8
286.947	9.58
287.161	9.7
287.375	9.03
287.589	9.31
287.803	9.01
288.017	8.99
288.231	9.59
288.445	9.91
288.659	10.08
288.873	9.98
289.087	10.16
289.301	9.34
289.515	8.32
289.729	8.35
289.943	7.11
290.157	6.02
290.371	6.6
290.584	6.87
290.798	6.62
291.012	6.67
291.226	6.35
291.44	6.5
291.654	5.79
291.867	6.11
292.081	7.33
292.295	8.07
292.509	8.99
292.722	8.12
292.936	8.38
293.15	10.17
293.364	11.22
293.577	10.17
293.791	10.69
294.005	11.77
294.218	11.23
294.432	9.08
294.645	9.53
294.859	10.82
295.073	10.72
295.286	10.25
295.5	9.15
295.713	8.07
295.927	8.72
296.14	8.8
296.354	8.8
296.568	8.91
296.781	9.74
296.994	9.04
297.208	7.92
297.421	8.18
297.635	7.14
297.848	7.61
298.062	7.97
298.275	8.64
298.489	8.33
298.702	8.43
298.915	8.54
299.129	8.54
299.342	9.9
299.555	9.83
299.769	9.81
299.982	11
300.195	10.42
300.409	10.29
300.622	9.39
300.835	9.17
301.048	8.95
301.262	9.2
301.475	9.42
301.688	7.86
301.901	7.79
302.115	7.06
302.328	7.21
302.541	8.61
302.754	8.05
302.967	8.41
303.18	9.12
303.393	9.91
303.607	9.44
303.82	9.39
304.033	10.96
304.246	11.74
304.459	12.19
304.672	12.13
304.885	10.98
305.098	11.1
305.311	11.32
305.524	11.61
305.737	10.77
305.95	12.2
306.163	12.09
306.376	10.76
306.589	11.37
306.802	10.71
307.015	10.06
307.228	10.06
307.44	10.59
307.653	10.98
307.866	10.56
308.079	11.96
308.292	11.34
308.505	10.37
308.718	10.58
308.93	10.22
309.143	10.83
309.356	10.94
309.569	11.57
309.781	11.62
309.994	11.84
310.207	11.52
310.42	10.39
310.632	9.87
310.845	10.17
311.058	11.06
311.27	11.5
311.483	12.12
311.696	12.55
311.908	12.13
312.121	11.58
312.333	11.45
312.546	11.79
312.759	12.28
312.971	12.01
313.184	12.84
313.396	12.02
313.609	10.94
313.821	10.24
314.034	9.53
314.246	10.01
314.459	11.67
314.671	10.16
314.884	9.39
315.096	9.67
315.309	10.41
315.521	9.59
315.733	9.58
315.946	9.3
316.158	10.05
316.371	12.61
316.583	11.79
316.795	10.77
317.008	12.52
317.22	12.54
317.432	11.58
317.644	10.22
317.857	12.25
318.069	11.7
318.281	12.48
318.494	10.88
318.706	8.82
318.918	9.18
319.13	8.06
319.342	7.3
319.555	8.29
319.767	8.14
319.979	8.14
320.191	7.33
320.403	8.24
320.615	8.37
320.827	8.74
321.039	9.55
321.252	10.24
321.464	12.12
321.676	13.56
321.888	14.06
322.1	15.01
322.312	16.3
322.524	16.19
322.736	15.62
322.948	15.84
323.16	16.17
323.372	15.09
323.584	13.76
323.796	14.24
324.007	13.37
324.219	13.31
324.431	13.33
324.643	12.8
324.855	13.06
325.067	13.8
325.279	12.68
325.491	13.62
325.702	14.36
325.914	15.86
326.126	15.19
326.338	16.28
326.55	17.78
326.761	18.96
326.973	20.77
327.185	21
327.396	21.75
327.608	22.55
327.82	22.06
328.032	22.1
328.243	22.24
328.455	23.15
328.666	22.88
328.878	22.31
329.09	22.38
329.301	22.98
329.513	22.92
329.725	22.92
329.936	24.05
330.148	24.27
330.359	24.26
330.571	24.11
330.782	24.45
330.994	24.23
331.205	24.25
331.417	24.28
331.628	24.25
331.84	23.9
332.051	23.68
332.262	23.79
332.474	23.37
332.685	25.16
332.897	26.44
333.108	26.2
333.319	26.63
333.531	26.18
333.742	26.52
333.953	26.01
334.165	26.36
334.376	26.66
334.587	27.5
334.799	28.72
335.01	28.57
335.221	28.73
335.432	29.33
335.644	30.17
335.855	31.11
336.066	31.23
336.277	31.34
336.488	31.49
336.7	31.63
336.911	31.37
337.122	30.66
337.333	30.57
337.544	29.4
337.755	28.13
337.966	28.63
338.177	28.6
338.388	28.04
338.599	28.2
338.811	29.23
339.022	29.46
339.233	28.79
339.444	29.13
339.655	28.29
339.866	29.11
340.076	29.73
340.287	28.8
340.498	28.46
340.709	28.52
340.92	28.85
341.131	28.43
341.342	28.15
341.553	27.72
341.764	28.76
341.975	29.71
342.185	29.6
342.396	29.39
342.607	29.4
342.818	29.47
343.029	29.56
343.239	29.34
343.45	28.92
343.661	28.89
343.872	29.69
344.082	29.53
344.293	29.46
344.504	28.88
344.714	29.55
344.925	29.65
345.136	29.85
345.346	29.57
345.557	29.46
345.768	30.11
345.978	29.57
346.189	29.65
346.399	29.69
346.61	28.93
346.821	29.61
347.031	29.53
347.242	29.85
347.452	29.84
347.663	29.76
347.873	29.68
348.084	29.5
348.294	30.63
348.504	30.6
348.715	30.36
348.925	30.64
349.136	30.68
349.346	29.69
349.557	29.03
349.767	28.62
349.977	29.03
350.188	28.25
350.398	28.08
350.608	28.16
350.819	28.3
351.029	28.6
351.239	28.53
351.449	28.3
351.66	29.06
351.87	29.28
352.08	29.24
352.29	29.7
352.501	29.91
352.711	30.57
352.921	29.56
353.131	28.89
353.341	27.64
353.552	27.79
353.762	27.64
353.972	27.86
354.182	27.84
354.392	27.96
354.602	27.51
354.812	28.21
355.022	27.47
355.232	27.29
355.442	27.21
355.652	27.76
355.862	27.74
356.072	27.44
356.282	27.81
356.492	28.31
356.702	27.83
356.912	27.88
357.122	27.89
357.332	28.43
357.542	29.27
357.752	29.72
357.962	29.85
358.171	29.61
358.381	30.13
358.591	29.41
358.801	28.85
359.011	28.71
359.221	29
359.43	29.02
359.64	27.9
359.85	27.37
360.06	27.24
360.269	27.08
360.479	27.57
360.689	27.48
360.899	27.56
361.108	27.55
361.318	27.68
361.528	27.14
361.737	26.98
361.947	27.09
362.156	26.98
362.366	27.12
362.576	26.97
362.785	26.62
362.995	26.66
363.204	26.21
363.414	26.26
363.623	26.82
363.833	26.74
364.042	26.04
364.252	26.43
364.461	26.66
364.671	26.47
364.88	26.74
365.09	26.91
365.299	26.95
365.509	27.08
365.718	26.72
365.927	26.73
366.137	26.72
366.346	27.31
366.555	27.28
366.765	27.22
366.974	27.2
367.183	27.22
367.393	27.45
367.602	26.99
367.811	27.37
368.021	27.58
368.23	26.52
368.439	26.88
368.648	26.8
368.857	26.88
369.067	26.54
369.276	26.4
369.485	25.54
369.694	25.04
369.903	25.11
370.112	24.75
370.321	24.92
370.531	25.31
370.74	24.85
370.949	25.57
371.158	25.54
371.367	25.98
371.576	26.11
371.785	26.63
371.994	26.89
372.203	26.97
372.412	27.09
372.621	27.29
372.83	27.22
373.039	27.57
373.248	27.37
373.457	26.96
373.666	26.52
373.874	26.19
374.083	26.09
374.292	25.41
374.501	25.23
374.71	24.48
374.919	24
375.128	24.11
375.336	24.32
375.545	23.94
375.754	24.05
375.963	24.27
376.171	24.2
376.38	24.37
376.589	24.33
376.798	24
377.006	24.46
377.215	24.19
377.424	23.61
377.632	22.93
377.841	22.83
378.05	22.81
378.258	22.7
378.467	22.46
378.675	21.96
378.884	22.17
379.093	22.78
379.301	22.84
379.51	23.09
379.718	23.62
379.927	24
380.135	24.55
380.344	24.51
380.552	24.25
380.761	24.49
380.969	24.77
381.177	24.82
381.386	24
381.594	24.19
381.803	23.72
382.011	23.17
382.219	23.25
382.428	22.92
382.636	22.66
382.845	22.61
383.053	22.39
383.261	22.52
383.469	22.19
383.678	22.62
383.886	22.31
384.094	22.53
384.302	22.74
384.511	22.91
384.719	22.68
384.927	22.56
385.135	22.54
385.343	22.33
385.552	22.02
385.76	21.89
385.968	21.53
386.176	21.18
386.384	21.08
386.592	21.41
386.8	20.46
387.008	20.25
387.216	20.34
387.424	20.45
387.633	20.61
387.841	20.33
388.049	20.62
388.257	20.34
388.465	20.23
388.672	19.62
388.88	19.39
389.088	19.42
389.296	19.13
389.504	18.56
389.712	18.41
389.92	18.25
390.128	18.44
390.336	17.84
390.544	18.15
390.751	18.03
390.959	18.39
391.167	18.21
391.375	18.54
391.583	18.43
391.79	18.62
391.998	18.7
392.206	18.57
392.414	18.36
392.621	18.42
392.829	18.22
393.037	18.42
393.244	18.29
393.452	17.89
393.66	17.51
393.867	17.21
394.075	17.48
394.283	17.03
394.49	17.18
394.698	17.12
394.905	17.29
395.113	17.12
395.32	16.97
395.528	16.77
395.735	16.92
395.943	16.91
396.15	17.24
396.358	16.84
396.565	16.83
396.773	16.59
396.98	16.59
397.188	16.55
397.395	16.64
397.602	16.77
397.81	16.78
398.017	16.42
398.225	16.68
398.432	16.62
398.639	16.73
398.847	16.7
399.054	16.54
399.261	16.4
399.468	16.21
399.676	16.31
399.883	16.18
400.09	16.3
400.297	16.43
400.505	16.01
400.712	16.12
400.919	15.93
401.126	15.77
401.333	15.97
401.54	16.16
401.748	16.24
401.955	16
402.162	15.8
402.369	15.65
402.576	15.69
402.783	15.69
402.99	15.35
403.197	15.41
403.404	15.53
403.611	15.34
403.818	15.16
404.025	15.27
404.232	15.16
404.439	15.27
404.646	15.26
404.853	15.22
405.06	15.02
405.267	15.35
405.474	15.36
405.681	15.31
405.887	15.04
406.094	15.03
406.301	15.01
406.508	15.07
406.715	14.96
406.922	14.79
407.128	15.03
407.335	15.34
407.542	15.35
407.749	15.48
407.955	15.4
408.162	15.69
408.369	15.55
408.575	15.33
408.782	15.59
408.989	15.59
409.195	15.88
409.402	15.53
409.609	15.46
409.815	15.4
410.022	15.19
410.228	15.12
410.435	15.05
410.642	15.4
410.848	15.25
411.055	14.78
411.261	14.67
411.468	14.5
411.674	14.74
411.881	14.64
412.087	14.3
412.294	14.27
412.5	14.32
412.706	14.33
412.913	13.85
413.119	14.15
413.326	14.37
413.532	14.53
413.738	14.41
413.945	14.42
414.151	14.63
414.357	14.75
414.564	14.72
414.77	14.52
414.976	14.35
415.182	14.42
415.389	14.26
415.595	14.26
415.801	14.19
416.007	14.53
416.214	13.98
416.42	13.95
416.626	13.9
416.832	13.85
417.038	14.21
417.244	14.41
417.45	14.26
417.657	14.03
417.863	14.03
418.069	13.93
418.275	13.52
418.481	13.92
418.687	13.79
418.893	13.91
419.099	13.93
419.305	13.81
419.511	13.75
419.717	13.83
419.923	13.86
420.129	13.67
420.335	13.67
420.541	13.91
420.746	13.77
420.952	13.82
421.158	13.76
421.364	13.69
421.57	13.59
421.776	13.61
421.982	13.54
422.187	13.53
422.393	13.67
422.599	13.77
422.805	13.78
423.01	13.79
423.216	13.63
423.422	13.49
423.628	13.51
423.833	13.52
424.039	13.54
424.245	13.51
424.45	13.55
424.656	13.59
424.862	13.47
425.067	13.32
425.273	13.31
425.478	13.4
425.684	13.47
425.889	13.43
426.095	13.58
426.301	13.27
426.506	13.34
426.712	13.23
426.917	13.21
427.123	13.16
427.328	13.15
427.533	13.12
427.739	13.26
427.944	13.34
428.15	13.31
428.355	13.03
428.561	13.41
428.766	13.47
428.971	13.56
429.177	13.38
429.382	13.33
429.587	13.29
429.793	13.32
429.998	13.21
430.203	13.01
430.408	13.39
430.614	13.41
430.819	13.37
431.024	13.37
431.229	13.41
431.434	13.48
431.64	13.56
431.845	13.43
432.05	13.39
432.255	13.33
432.46	13.38
432.665	13.05
432.87	13
433.076	12.97
433.281	12.95
433.486	12.93
433.691	12.8
433.896	12.74
434.101	12.92
434.306	12.85
434.511	12.81
434.716	12.63
434.921	12.63
435.126	12.6
435.331	12.6
435.535	12.5
435.74	12.51
435.945	12.74
436.15	12.8
436.355	12.9
436.56	12.89
436.765	13.11
436.97	13.31
437.174	13.49
437.379	13.64
437.584	13.78
437.789	13.82
437.993	13.84
438.198	13.57
438.403	13.65
438.608	13.43
438.812	13.51
439.017	13.28
439.222	13.26
439.426	13.09
439.631	13.02
439.836	12.8
440.04	12.88
440.245	12.86
440.45	12.99
440.654	12.94
440.859	13.01
441.063	13.09
441.268	13.06
441.472	13.01
441.677	13.13
441.881	13.31
442.086	13.47
442.29	13.42
442.495	13.41
442.699	13.4
442.904	13.49
443.108	13.48
443.312	13.26
443.517	13.29
443.721	13.36
443.925	13.29
444.13	13.08
444.334	12.97
444.538	12.86
444.743	12.92
444.947	12.94
445.151	12.83
445.356	12.82
445.56	13.02
445.764	13.14
445.968	13.03
446.173	13.04
446.377	12.97
446.581	12.94
446.785	13.04
446.989	13.01
447.193	12.98
447.398	13.07
447.602	13.2
447.806	13.08
448.01	12.91
448.214	13.04
448.418	12.82
448.622	12.93
448.826	12.98
449.03	12.92
449.234	12.91
449.438	12.85
449.642	12.7
449.846	12.42
450.05	12.32
450.254	12.46
450.458	12.35
450.662	12.61
450.866	12.6
451.069	12.59
451.273	12.51
451.477	12.54
451.681	12.5
451.885	12.65
452.089	12.63
452.292	12.74
452.496	12.72
452.7	12.61
452.904	12.6
453.107	12.48
453.311	12.5
453.515	12.45
453.719	12.4
453.922	12.4
454.126	12.19
454.33	12.17
454.533	12.13
454.737	12.16
454.94	12.29
455.144	12.36
455.348	12.4
455.551	12.31
455.755	12.4
455.958	12.36
456.162	12.28
456.365	12.29
456.569	12.36
456.772	12.53
456.976	12.54
457.179	12.51
457.383	12.26
457.586	12.32
457.79	12.47
457.993	12.45
458.196	12.49
458.4	12.65
458.603	12.77
458.807	12.78
459.01	12.69
459.213	12.69
459.417	12.84
459.62	12.79
459.823	12.71
460.026	12.53
460.23	12.43
460.433	12.35
460.636	12.42
460.839	12.26
461.042	12.25
461.246	12.23
461.449	12.13
461.652	11.95
461.855	12.11
462.058	12.11
462.261	12.3
462.464	12.35
462.668	12.41
462.871	12.21
463.074	12.27
463.277	12.33
463.48	12.21
463.683	12.16
463.886	12.18
464.089	12.09
464.292	12.24
464.495	12.16
464.698	12.29
464.901	12.26
465.104	12.26
465.306	12.34
465.509	12.27
465.712	12.24
465.915	12.32
466.118	12.24
466.321	12.2
466.524	12.16
466.726	12.33
466.929	12.17
467.132	12.25
467.335	12.24
467.538	12.48
467.74	12.46
467.943	12.5
468.146	12.49
468.348	12.59
468.551	12.61
468.754	12.55
468.956	12.39
469.159	12.44
469.362	12.39
469.564	12.4
469.767	12.08
469.969	12.3
470.172	12.51
470.375	12.53
470.577	12.53
470.78	12.4
470.982	12.59
471.185	12.59
471.387	12.67
471.59	12.66
471.792	12.74
471.995	12.77
472.197	12.48
472.399	12.29
472.602	12.27
472.804	12.19
473.007	12.34
473.209	12.26
473.411	12.07
473.614	12.09
473.816	12.13
474.018	12.23
474.22	12.22
474.423	12.26
474.625	12.43
474.827	12.56
475.03	12.5
475.232	12.45
475.434	12.51
475.636	12.79
475.838	12.71
476.04	12.63
476.243	12.36
476.445	12.51
476.647	12.61
476.849	12.58
477.051	12.38
477.253	12.43
477.455	12.26
477.657	12.17
477.859	12.07
478.061	12.11
478.263	12.16
478.465	12.27
478.667	12.07
478.869	12.08
479.071	11.87
479.273	12.01
479.475	12.12
479.677	12.3
479.879	12.36
480.081	12.34
480.283	12.45
480.485	12.42
480.686	12.53
480.888	12.65
481.09	12.69
481.292	12.84
481.494	12.8
481.695	12.8
481.897	12.83
482.099	12.8
482.301	12.79
482.502	12.66
482.704	12.73
482.906	12.67
483.107	12.67
483.309	12.65
483.511	12.62
483.712	12.61
483.914	12.56
484.115	12.53
484.317	12.51
484.519	12.48
484.72	12.51
484.922	12.45
485.123	12.46
485.325	12.4
485.526	12.33
485.728	12.35
485.929	12.34
486.131	12.28
486.332	12.28
486.534	12.24
486.735	12.25
486.936	12.29
487.138	12.32
487.339	12.25
487.541	12.36
487.742	12.4
487.943	12.37
488.144	12.44
488.346	12.48
488.547	12.48
488.748	12.5
488.95	12.53
489.151	12.43
489.352	12.43
489.553	12.58
489.755	12.47
489.956	12.41
490.157	12.36
490.358	12.27
490.559	12.38
490.76	12.4
490.961	12.42
491.163	12.53
491.364	12.54
491.565	12.46
491.766	12.48
491.967	12.49
492.168	12.55
492.369	12.62
492.57	12.62
492.771	12.52
492.972	12.48
493.173	12.45
493.374	12.39
493.575	12.44
493.776	12.53
493.976	12.42
494.177	12.46
494.378	12.6
494.579	12.65
494.78	12.64
494.981	12.71
495.182	12.85
495.382	12.98
495.583	12.84
495.784	12.88
495.985	12.88
496.185	12.92
496.386	12.89
496.587	12.93
496.788	12.87
496.988	12.9
497.189	13.01
497.39	13.04
497.59	12.99
497.791	13
497.992	12.99
498.192	12.91
498.393	12.97
498.593	13.02
498.794	12.86
498.994	12.96
499.195	13.01
499.395	12.97
499.596	13.05
499.796	13.13
499.997	13.27
500.197	13.31
500.398	13.46
500.598	13.41
500.799	13.55
500.999	13.69
501.199	13.58
501.4	13.66
501.6	13.74
501.801	13.61
502.001	13.72
502.201	13.76
502.402	13.73
502.602	13.71
502.802	13.7
503.002	13.72
503.203	13.6
503.403	13.69
503.603	13.63
503.803	13.74
504.003	13.81
504.204	13.78
504.404	13.78
504.604	13.91
504.804	13.99
505.004	14.14
505.204	14.22
505.404	14.39
505.604	14.35
505.804	14.48
506.005	14.4
506.205	14.62
506.405	14.72
506.605	14.78
506.805	14.69
507.005	14.77
507.204	14.79
507.404	14.73
507.604	14.78
507.804	14.84
508.004	14.75
508.204	14.76
508.404	14.64
508.604	14.72
508.804	14.77
509.003	15.03
509.203	15.02
509.403	15.07
509.603	15.02
509.803	15.01
510.002	15.14
510.202	15.38
510.402	15.45
510.602	15.46
510.801	15.54
511.001	15.59
511.201	15.46
511.4	15.56
511.6	15.59
511.8	15.79
511.999	15.84
512.199	15.81
512.398	15.73
512.598	15.79
512.797	15.99
512.997	15.9
513.197	16.04
513.396	16.26
513.596	16.3
513.795	16.45
513.994	16.24
514.194	16.43
514.393	16.63
514.593	16.82
514.792	16.84
514.992	16.94
515.191	17.1
515.39	17.14
515.59	17.24
515.789	17.44
515.988	17.52
516.188	17.76
516.387	17.9
516.586	17.84
516.786	17.87
516.985	17.96
517.184	17.98
517.383	18.02
517.582	18.04
517.782	17.99
517.981	17.96
518.18	18
518.379	18.15
518.578	18.16
518.777	18.26
518.976	18.33
519.176	18.45
519.375	18.49
519.574	18.62
519.773	18.59
519.972	18.74
520.171	18.83
520.37	18.95
520.569	19.13
520.768	19.26
520.967	19.32
521.166	19.35
521.365	19.44
521.564	19.41
521.762	19.39
521.961	19.68
522.16	19.73
522.359	19.99
522.558	20.04
522.757	19.9
522.956	19.85
523.154	20.12
523.353	20.28
523.552	20.21
523.751	20.49
523.949	20.6
524.148	20.64
524.347	20.65
524.546	20.55
524.744	20.56
524.943	20.65
525.142	20.6
525.34	20.59
525.539	20.47
525.737	20.66
525.936	20.75
526.135	20.87
526.333	20.88
526.532	20.96
526.73	21.05
526.929	21.18
527.127	21.29
527.326	21.37
527.524	21.36
527.723	21.6
527.921	21.62
528.12	21.68
528.318	21.67
528.516	21.7
528.715	21.75
528.913	21.87
529.112	21.88
529.31	21.93
529.508	22.04
529.707	22.19
529.905	22.17
530.103	22.18
530.301	22.16
530.5	22.29
530.698	22.42
530.896	22.55
531.094	22.55
531.293	22.65
531.491	22.71
531.689	22.71
531.887	22.72
532.085	22.83
532.283	22.98
532.481	23.07
532.68	23.03
532.878	23.15
533.076	23.16
533.274	23.22
533.472	23.22
533.67	23.26
533.868	23.35
534.066	23.36
534.264	23.43
534.462	23.45
534.66	23.54
534.858	23.61
535.056	23.52
535.253	23.58
535.451	23.67
535.649	23.83
535.847	23.96
536.045	24.02
536.243	24.05
536.441	24.17
536.638	24.27
536.836	24.24
537.034	24.25
537.232	24.38
537.43	24.44
537.627	24.41
537.825	24.47
538.023	24.46
538.22	24.62
538.418	24.67
538.616	24.68
538.813	24.76
539.011	24.98
539.209	25.14
539.406	25.23
539.604	25.47
539.801	25.65
539.999	25.71
540.196	25.79
540.394	25.89
540.591	26.02
540.789	26.02
540.986	26.09
541.184	26.11
541.381	26.13
541.579	26.1
541.776	26.12
541.974	26.12
542.171	26.22
542.368	26.4
542.566	26.4
542.763	26.52
542.96	26.63
543.158	26.72
543.355	26.83
543.552	27
543.75	27.17
543.947	27.25
544.144	27.38
544.341	27.41
544.539	27.37
544.736	27.45
544.933	27.46
545.13	27.48
545.327	27.47
545.524	27.48
545.722	27.45
545.919	27.54
546.116	27.61
546.313	27.66
546.51	27.67
546.707	27.82
546.904	27.86
547.101	28.03
547.298	28.19
547.495	28.2
547.692	28.41
547.889	28.48
548.086	28.62
548.283	28.68
548.48	28.71
548.677	28.9
548.874	28.97
549.07	29.08
549.267	29.15
549.464	29.27
549.661	29.53
549.858	29.59
550.055	29.83
550.251	29.98
550.448	29.92
550.645	30.25
550.842	30.28
551.038	30.15
551.235	30.43
551.432	30.42
551.628	30.46
551.825	30.46
552.022	30.41
552.218	30.4
552.415	30.36
552.612	30.48
552.808	30.35
553.005	30.47
553.201	30.8
553.398	30.83
553.594	31.08
553.791	31.2
553.987	31.13
554.184	31.22
554.38	31.38
554.577	31.53
554.773	31.94
554.97	32.14
555.166	32.16
555.362	32.02
555.559	32.12
555.755	32.09
555.952	32.17
556.148	32.53
556.344	32.82
556.541	33.06
556.737	33.04
556.933	32.96
557.129	33.03
557.326	33.29
557.522	33.54
557.718	33.34
557.914	33.54
558.11	33.67
558.307	33.67
558.503	33.55
558.699	33.38
558.895	33.42
559.091	33.26
559.287	33.33
559.483	33.38
559.679	33.32
559.876	33.45
560.072	33.43
560.268	33.46
560.464	33.63
560.66	33.88
560.856	33.97
561.052	34.06
561.247	34.35
561.443	34.38
561.639	34.54
561.835	34.54
562.031	34.92
562.227	34.89
562.423	34.88
562.619	34.91
562.815	34.97
563.01	35.21
563.206	35.43
563.402	35.31
563.598	35.27
563.793	35.22
563.989	35.3
564.185	35.2
564.381	35.41
564.576	35.59
564.772	35.6
564.968	35.51
565.163	35.5
565.359	35.58
565.555	35.86
565.75	36.07
565.946	36.07
566.141	36.23
566.337	36.38
566.532	36.31
566.728	36.3
566.923	36.34
567.119	36.42
567.314	36.42
567.51	36.4
567.705	36.19
567.901	36.22
568.096	36.34
568.292	36.42
568.487	36.5
568.682	36.6
568.878	36.91
569.073	37.25
569.268	37.55
569.464	37.61
569.659	37.67
569.854	37.97
570.05	38.18
570.245	38.29
570.44	38.28
570.635	38.09
570.831	38.12
571.026	37.87
571.221	37.83
571.416	37.79
571.611	37.96
571.806	37.92
572.002	37.95
572.197	38.05
572.392	37.95
572.587	37.93
572.782	38.02
572.977	38.21
573.172	38.24
573.367	37.98
573.562	37.78
573.757	37.61
573.952	37.74
574.147	37.7
574.342	37.67
574.537	37.84
574.732	38.03
574.927	38.1
575.121	37.99
575.316	38.13
575.511	38.46
575.706	38.58
575.901	38.7
576.096	38.53
576.29	38.49
576.485	38.4
576.68	38.41
576.875	38.49
577.069	38.35
577.264	38.29
577.459	38.23
577.654	38.28
577.848	38.22
578.043	38.32
578.238	38.7
578.432	38.72
578.627	39.04
578.821	38.99
579.016	38.81
579.21	39.01
579.405	38.94
579.6	38.98
579.794	38.84
579.989	39.09
580.183	39.03
580.378	39.02
580.572	39.08
580.766	38.87
580.961	38.84
581.155	38.73
581.35	39.03
581.544	39.44
581.738	39.52
581.933	39.43
582.127	39.4
582.321	39.45
582.516	39.46
582.71	39.57
582.904	39.24
583.099	39.6
583.293	40.08
583.487	39.97
583.681	39.93
583.875	39.89
584.07	40.21
584.264	40.15
584.458	40.3
584.652	40.35
584.846	40.37
585.04	40.76
585.234	40.52
585.428	40.37
585.623	40.52
585.817	40.39
586.011	40.48
586.205	40.38
586.399	40.59
586.593	40.5
586.787	40.57
586.981	40.56
587.174	40.31
587.368	40.3
587.562	40.29
587.756	40.22
587.95	40.4
588.144	40.24
588.338	40.36
588.532	40.22
588.725	40.45
588.919	40.45
589.113	40.49
589.307	40.65
589.501	40.51
589.694	40.52
589.888	40.51
590.082	40.18
590.275	40.56
590.469	40.37
590.663	40.34
590.856	40.33
591.05	40.39
591.244	40.45
591.437	40.53
591.631	40.64
591.824	40.65
592.018	40.68
592.212	41.04
592.405	40.84
592.599	40.99
592.792	41.08
592.986	41.08
593.179	41.14
593.372	41.14
593.566	41.28
593.759	41.24
593.953	41.55
594.146	41.16
594.339	41.11
594.533	41.29
594.726	41.34
594.92	41.36
595.113	41.13
595.306	40.66
595.499	40.8
595.693	40.88
595.886	41.23
596.079	41.06
596.272	41.4
596.466	41.41
596.659	41.21
596.852	41.26
597.045	41.35
597.238	41.63
597.431	42.01
597.624	42.06
597.818	42
598.011	41.77
598.204	41.7
598.397	41.81
598.59	41.94
598.783	42.05
598.976	42.05
599.169	42.07
599.362	41.83
599.555	41.62
599.748	41.51
599.941	41.25
600.134	41.44
600.326	41.53
600.519	41.39
600.712	41.4
600.905	41.51
601.098	41.21
601.291	41.01
601.483	41.19
601.676	41.28
601.869	41.38
602.062	41.52
602.255	41.5
602.447	41.48
602.64	41.37
602.833	41.22
603.025	41.24
603.218	41.35
603.411	41.7
603.603	41.84
603.796	41.68
603.989	41.77
604.181	41.81
604.374	41.99
604.566	41.9
604.759	42.06
604.951	42.26
605.144	42.32
605.336	42.42
605.529	42.28
605.721	42.09
605.914	42.43
606.106	42.31
606.299	42.26
606.491	42.25
606.683	42.57
606.876	42.35
607.068	42.27
607.26	42.02
607.453	42.12
607.645	41.95
607.837	41.84
608.03	41.72
608.222	41.82
608.414	41.98
608.606	41.83
608.799	41.58
608.991	41.68
609.183	41.72
609.375	41.84
609.567	41.85
609.759	42.04
609.952	42.28
610.144	42.21
610.336	42.27
610.528	42.28
610.72	42.29
610.912	42.43
611.104	42.63
611.296	42.45
611.488	42.47
611.68	42.33
611.872	42.3
612.064	42.27
612.256	42.19
612.448	41.98
612.64	41.84
612.832	41.85
613.023	41.95
613.215	41.65
613.407	41.69
613.599	41.64
613.791	41.89
613.983	41.99
614.174	42.11
614.366	42.36
614.558	42.72
614.75	42.85
614.941	42.87
615.133	42.61
615.325	42.78
615.516	43.08
615.708	43.24
615.9	43.03
616.091	42.85
616.283	42.65
616.475	42.63
616.666	42.05
616.858	42.03
617.049	41.85
617.241	41.9
617.432	41.98
617.624	41.83
617.815	41.71
618.007	41.67
618.198	41.73
618.39	41.94
618.581	41.81
618.773	42.16
618.964	42.16
619.155	42.65
619.347	42.48
619.538	42.49
619.729	42.48
619.921	42.92
620.112	43.08
620.303	43.1
620.494	43.11
620.686	43.29
620.877	43.38
621.068	43.18
621.259	42.86
621.451	43.26
621.642	43.13
621.833	43.14
622.024	42.84
622.215	42.9
622.406	43.02
622.597	42.81
622.788	42.7
622.98	42.63
623.171	43.22
623.362	43
623.553	42.97
623.744	43.03
623.935	42.93
624.126	42.9
624.317	42.6
624.508	42.76
624.698	43.1
624.889	42.82
625.08	42.69
625.271	42.45
625.462	42.39
625.653	42.36
625.844	42.25
626.034	42.43
626.225	42.47
626.416	42.78
626.607	42.83
626.798	42.48
626.988	42.85
627.179	42.83
627.37	42.87
627.56	43.21
627.751	43.15
627.942	43.2
628.132	43.12
628.323	43.1
628.514	42.88
628.704	42.78
628.895	42.77
629.085	42.42
629.276	42.66
629.466	42.81
629.657	42.54
629.847	42.64
630.038	42.81
630.228	42.72
630.419	42.72
630.609	43.09
630.8	42.88
630.99	43.06
631.181	43.25
631.371	43.12
631.561	42.98
631.752	43.35
631.942	43.25
632.132	43.33
632.323	43.34
632.513	43.49
632.703	43.45
632.893	43.62
633.084	43.35
633.274	43.17
633.464	43.47
633.654	43.41
633.844	43.29
634.034	43.28
634.225	43.16
634.415	43.26
634.605	43.23
634.795	42.84
634.985	42.64
635.175	43.21
635.365	43.39
635.555	43.21
635.745	43.13
635.935	43.28
636.125	43.38
636.315	43.41
636.505	43.76
636.695	43.55
636.885	43.72
637.075	44.11
637.265	43.94
637.455	44.15
637.644	44.58
637.834	44.73
638.024	44.22
638.214	44.65
638.404	44.42
638.593	44.21
638.783	44.41
638.973	44.67
639.163	44.41
639.352	43.94
639.542	43.86
639.732	43.42
639.921	43.11
640.111	43.24
640.301	42.59
640.49	42.69
640.68	42.73
640.87	42.59
641.059	42.29
641.249	42.52
641.438	42.87
641.628	42.88
641.817	42.83
642.007	42.9
642.196	43.59
642.386	43.93
642.575	43.83
642.764	43.88
642.954	44.16
643.143	44.39
643.333	44.08
643.522	43.64
643.711	43.88
643.901	43.97
644.09	44.5
644.279	44.06
644.469	44.03
644.658	44.29
644.847	44.09
645.036	43.6
645.226	43.38
645.415	43.53
645.604	43.84
645.793	43.66
645.982	43.22
646.171	42.61
646.361	42.48
646.55	42.29
646.739	41.93
646.928	42
647.117	42.53
647.306	42.76
647.495	42.38
647.684	42.55
647.873	42.79
648.062	43.27
648.251	43.93
648.44	44.04
648.629	44.15
648.818	44.53
649.007	44.58
649.196	44.5
649.384	44.28
649.573	44.71
649.762	44.86
649.951	44.49
650.14	44.25
650.328	43.88
650.517	43.92
650.706	43.81
650.895	43.9
651.083	44.3
651.272	43.87
651.461	43.98
651.65	43.95
651.838	43.82
652.027	43.96
652.216	44.12
652.404	44.2
652.593	44.64
652.781	44.57
652.97	44.07
653.158	43.38
653.347	43.39
653.535	43.58
653.724	43.47
653.912	43.18
654.101	43.04
654.289	43.16
654.478	43.31
654.666	42.9
654.855	43.12
655.043	43.38
655.231	43.64
655.42	44.12
655.608	44.1
655.796	43.93
655.985	44.06
656.173	44.08
656.361	44.02
656.55	43.74
656.738	43.81
656.926	43.86
657.114	43.83
657.302	43.61
657.491	43.43
657.679	43.17
657.867	43.66
658.055	43.85
658.243	43.54
658.431	43.17
658.619	43.31
658.807	43.47
658.996	43.25
659.184	43.35
659.372	43.4
659.56	43.05
659.748	43.29
659.936	43.29
660.124	43.17
660.311	43.32
660.499	43.83
660.687	43.54
660.875	43.2
661.063	43.1
661.251	43.35
661.439	43.34
661.627	44.14
661.814	44.17
662.002	43.97
662.19	44
662.378	44.46
662.565	43.87
662.753	44.17
662.941	44.41
663.129	44.12
663.316	43.68
663.504	43.91
663.692	43.48
663.879	43.29
664.067	43.18
664.254	43.66
664.442	43.34
664.63	43.33
664.817	43.04
665.005	42.55
665.192	43.13
665.38	43.59
665.567	43.77
665.755	43.98
665.942	44.05
666.13	43.67
666.317	43.21
666.504	42.98
666.692	43.5
666.879	44.02
667.067	44.61
667.254	44.58
667.441	44.66
667.629	44.31
667.816	44.4
668.003	44.06
668.19	44.42
668.378	44.58
668.565	44.63
668.752	44.25
668.939	44.31
669.127	44.1
669.314	43.81
669.501	43.44
669.688	43.64
669.875	43.12
670.062	43.43
670.249	44.06
670.436	44.04
670.623	44.43
670.81	44.82
670.997	44.57
671.184	44.72
671.371	45.09
671.558	44.97
671.745	45.31
671.932	45.57
672.119	45.5
672.306	44.98
672.493	45.05
672.68	45.09
672.867	44.75
673.054	44.68
673.24	44.46
673.427	44.16
673.614	44.64
673.801	44.47
673.988	44.3
674.174	44.2
674.361	44.17
674.548	43.97
674.734	43.71
674.921	43.88
675.108	44
675.294	44.14
675.481	44.25
675.668	43.83
675.854	43.72
676.041	43.67
676.227	43.7
676.414	43.7
676.601	44.21
676.787	44.37
676.974	44.14
677.16	43.92
677.347	44.16
677.533	44.18
677.719	44.47
677.906	44.05
678.092	44.5
678.279	44.7
678.465	44.44
678.651	43.65
678.838	43.62
679.024	43.82
679.21	44.02
679.397	44.03
679.583	43.5
679.769	43.28
679.955	43.44
680.142	43.64
680.328	43.59
680.514	43.84
680.7	44.04
680.886	44.12
681.073	43.82
681.259	43.59
681.445	42.68
681.631	43.25
681.817	43.06
682.003	42.92
682.189	42.28
682.375	42.13
682.561	42.5
682.747	42.8
682.933	42.39
683.119	43.17
683.305	43.24
683.491	43.9
683.677	44
683.863	44.85
684.049	44.72
684.235	44.91
684.42	45.07
684.606	44.6
684.792	43.95
684.978	43.81
685.164	43.07
685.349	43.07
685.535	43.3
685.721	43.6
685.907	43.04
686.092	43.93
686.278	43.91
686.464	43.67
686.649	43.32
686.835	44.66
687.021	45.07
687.206	45.6
687.392	45.55
687.577	45.3
687.763	45.14
687.948	45.23
688.134	45.01
688.319	45.23
688.505	45.13
688.69	45.18
688.876	43.73
689.061	44.4
689.247	44.17
689.432	43.95
689.618	44.16
689.803	44.13
689.988	44.66
690.174	44.54
690.359	44.09
690.544	44.21
690.73	44.53
690.915	45.33
691.1	44.46
691.285	44.52
691.471	45.08
691.656	45.22
691.841	45.32
692.026	44.64
692.211	44.07
692.396	44.73
692.582	44.9
692.767	44.7
692.952	44.55
693.137	44.51
693.322	44.13
693.507	43.86
693.692	43.86
693.877	43.64
694.062	43.77
694.247	44.7
694.432	44.67
694.617	44.45
694.802	44.62
694.987	44.77
695.172	45.29
695.357	45.79
695.541	45.68
695.726	45.42
695.911	45.58
696.096	45.81
696.281	45.38
696.466	45.43
696.65	45.83
696.835	45.81
697.02	45.65
697.204	45.34
697.389	45.17
697.574	45.37
697.759	45.67
697.943	45.21
698.128	45.21
698.312	45.15
698.497	45.09
698.682	44.65
698.866	44.41
699.051	44.22
699.235	44.32
699.42	44.32
699.604	43.81
699.789	43.7
699.973	44.16
700.158	44.33
700.342	44.43
700.527	44.29
700.711	44.95
700.895	45.41
701.08	45.84
701.264	46.2
701.448	46.58
701.633	47.2
701.817	46.8
702.001	46.56
702.186	45.88
702.37	45.72
702.554	45.58
702.738	45.46
702.923	45.13
703.107	44.75
703.291	44.48
703.475	43.59
703.659	43.56
703.843	43.87
704.027	43.77
704.212	43.92
704.396	43.54
704.58	43.69
704.764	42.92
704.948	42.87
705.132	43.41
705.316	44.02
705.5	44.44
705.684	45.29
705.868	45.81
706.052	45.85
706.235	45.76
706.419	46.3
706.603	45.96
706.787	46.04
706.971	46.27
707.155	46.05
707.339	44.98
707.522	45.19
707.706	44.21
707.89	43.38
708.074	43.57
708.257	43.71
708.441	43.74
708.625	44.19
708.808	44.32
708.992	44.84
709.176	44.16
709.359	43.63
709.543	43.52
709.727	43.46
709.91	43.22
710.094	42.72
710.277	43.02
710.461	42.67
710.644	42.9
710.828	43.34
711.011	42.74
711.195	42.8
711.378	43.43
711.562	43.38
711.745	43.5
711.928	44.1
712.112	44.61
712.295	43.89
712.478	44
712.662	43.84
712.845	43.85
713.028	44
713.212	44.19
713.395	43.72
713.578	42.99
713.761	43.01
713.945	43.58
714.128	43.52
714.311	44.51
714.494	44.44
714.677	44.64
714.86	44.4
715.043	44.45
715.227	44.92
715.41	45.68
715.593	46.04
715.776	46.52
715.959	46.25
716.142	46.2
716.325	45.42
716.508	45.67
716.691	45.27
716.874	45.25
717.057	45.17
717.239	44.74
717.422	44.82
717.605	45.3
717.788	44.47
717.971	44.1
718.154	43.98
718.337	44.6
718.519	44.82
718.702	45.06
718.885	44.83
719.068	44.51
719.25	44.7
719.433	44.08
719.616	43.79
719.798	44.28
719.981	44.36
720.164	44.1
720.346	43.88
720.529	43.12
720.712	43.02
720.894	43.17
721.077	43.8
721.259	42.79
721.442	42.93
721.624	43.04
721.807	42.49
721.989	42.54
722.172	43.11
722.354	42.96
722.537	43.74
722.719	43.71
722.901	44.63
723.084	44.37
723.266	44.84
723.448	44.29
723.631	44.34
723.813	44.87
723.995	43.69
724.178	42.89
724.36	43.83
724.542	43.44
724.724	43.26
724.907	42.27
725.089	43.46
725.271	44.36
725.453	44.47
725.635	44.17
725.817	43.96
725.999	44
726.181	44.66
726.364	44.65
726.546	44.17
726.728	44.17
726.91	44.12
727.092	43.03
727.274	42.56
727.456	43.31
727.638	43.79
727.819	44.15
728.001	44.69
728.183	44.81
728.365	43.95
728.547	44.81
728.729	44.81
728.911	45.06
729.093	45.19
729.274	45.7
729.456	45.02
729.638	44.6
729.82	44.47
730.001	44.65
730.183	45.11
730.365	44.85
730.546	45
730.728	45.66
730.91	45.43
731.091	44.42
731.273	43.97
731.455	44.33
731.636	44.61
731.818	44.56
731.999	44.75
732.181	44.62
732.362	45.16
732.544	44.41
732.725	43.36
732.907	43.71
733.088	44.13
733.27	44.05
733.451	44.03
733.633	43.82
733.814	43.36
733.995	43.15
734.177	42.39
734.358	42.31
734.539	42.25
734.721	42.75
734.902	42.2
735.083	42.8
735.264	43.11
735.446	43.7
735.627	44.49
735.808	44.91
735.989	44.72
736.17	45.77
736.351	45.26
736.533	46.31
736.714	46.7
736.895	47.16
737.076	47.42
737.257	47.1
737.438	46.82
737.619	45.99
737.8	46.91
737.981	47.84
738.162	46.17
738.343	46.56
738.524	46.79
738.705	45.9
738.886	46
739.067	45
739.247	45.36
739.428	44.54
739.609	44.57
739.79	43.6
739.971	43.02
740.151	43.4
740.332	42.8
740.513	42.39
740.694	42.45
740.874	41.65
741.055	41.68
741.236	41.71
741.417	42.66
741.597	42.99
741.778	43.23
741.958	43.42
742.139	43.95
742.32	44.58
742.5	44.39
742.681	45
742.861	46.01
743.042	45.96
743.222	46.44
743.403	46.29
743.583	46.63
743.764	46.01
743.944	45.73
744.124	46.75
744.305	46.67
744.485	47.23
744.666	47.34
744.846	47.69
745.026	48.47
745.207	48.92
745.387	49.74
745.567	48.79
745.747	49.9
745.928	50.91
746.108	49.43
746.288	50.1
746.468	50.39
746.648	50.11
746.829	50.03
747.009	49.59
747.189	49.63
747.369	48.8
747.549	50.03
747.729	49.41
747.909	49.36
748.089	50.05
748.269	49.2
748.449	48.16
748.629	48.63
748.809	47.38
748.989	48.37
749.169	48.06
749.349	47.54
749.529	47.57
749.709	47.45
749.889	47.43
750.068	47.55
750.248	48.11
750.428	47.71
750.608	46.88
750.788	48.61
750.967	46.39
751.147	45.6
751.327	46.66
751.507	45.83
751.686	46.68
751.866	46.19
752.046	45.55
752.225	44.61
752.405	45.24
752.585	47.16
752.764	46.66
752.944	47.24
753.123	48.02
753.303	46.81
753.482	45.96
753.662	45.5
753.841	45.54
754.021	45.91
754.2	45.95
754.38	45.91
754.559	45.24
754.739	44.3
754.918	44.94
755.097	43.53
755.277	44.86
755.456	45.14
755.635	45.08
755.815	44.76
755.994	44.87
756.173	45.5
756.352	45.31
756.532	44.73
756.711	45.79
756.89	45.75
757.069	47.05
757.248	45.66
757.427	46.36
757.607	45.37
757.786	46.42
757.965	47.03
758.144	47.22
758.323	47.05
758.502	48.08
758.681	48.25
758.86	48.43
759.039	47.91
759.218	47.79
759.397	48.06
759.576	48.37
759.755	47.36
759.934	46.52
760.113	45.89
760.291	47.22
760.47	46.11
760.649	45.36
760.828	46.07
761.007	45.91
761.186	47.53
761.364	46.8
761.543	47.24
761.722	46.85
761.901	46.1
762.079	47.08
762.258	46.04
762.437	46.75
762.615	45.5
762.794	44.48
762.972	43.93
763.151	43.45
763.33	43.74
763.508	44.12
763.687	44.54
763.865	44.43
764.044	43.7
764.222	42.5
764.401	42.14
764.579	43.62
764.758	43.8
764.936	44.74
765.114	45.55
765.293	46.11
765.471	46.82
765.65	46.9
765.828	47.44
766.006	48.42
766.184	50.44
766.363	50.25
766.541	50.44
766.719	50.82
766.898	50.52
767.076	49.6
767.254	48.72
767.432	47.71
767.61	48.66
767.788	49.35
767.967	48.98
768.145	48.02
768.323	47.39
768.501	47.81
768.679	48.28
768.857	47.52
769.035	47.71
769.213	47.98
769.391	47.1
769.569	46.86
769.747	46.15
769.925	45.19
770.103	44.56
770.281	45.12
770.459	41.48
770.636	41.67
770.814	43.98
770.992	43.83
771.17	43.18
771.348	44.83
771.525	43.67
771.703	42.84
771.881	43.02
772.059	44.14
772.236	43.4
772.414	43.79
772.592	43.29
772.769	43.2
772.947	42.33
773.125	44.06
773.302	45.2
773.48	45.4
773.657	47.5
773.835	49.66
774.013	49.22
774.19	48.81
774.368	50.48
774.545	49.98
774.723	47.73
774.9	47.23
775.077	44.52
775.255	42.04
775.432	40
775.61	40.45
775.787	37.35
775.964	36.95
776.142	39.25
776.319	40.29
776.496	41.36
776.674	42.3
776.851	44.53
777.028	45.72
777.205	46.37
777.382	48.68
777.56	47.86
777.737	49.47
777.914	47.84
778.091	47.08
778.268	45.93
778.445	46.35
778.622	46.72
778.8	46.78
778.977	47.71
779.154	47.91
779.331	47.17
779.508	48.24
779.685	45.57
779.862	47.85
780.038	49.07
780.215	47.45
780.392	47.95
780.569	48.64
780.746	47.92
780.923	47.16
781.1	45.25
781.277	46.16
781.453	45.6
781.63	48.9
781.807	48.12
781.984	49.19
782.16	53.34
782.337	53.59
782.514	52.85
782.691	53.45
782.867	54.07
783.044	54
783.221	53.88
783.397	52.91
783.574	51.11
783.75	54.1
783.927	53.04
784.103	49.99
784.28	48.71
784.456	50.06
784.633	48.35
784.809	47.66
784.986	49.07
785.162	47.54
785.339	48.2
785.515	48.35
785.692	45.61
785.868	43.67
786.044	44.35
786.221	44.18
786.397	43.03
786.573	41.58
786.749	41.8
786.926	42.83
787.102	43.99
787.278	45.18
787.454	44.02
787.631	44.98
787.807	47.55
787.983	47.81
788.159	47.63
788.335	44.88
788.511	45.83
788.687	45.81
788.863	46.72
789.039	46.52
789.216	45.19
789.392	45.88
789.568	45.77
789.744	43.14
789.919	43
790.095	45.18
790.271	47.36
790.447	49.93
790.623	49.58
790.799	48.32
790.975	47.28
791.151	46.42
791.327	50.48
791.502	52.77
791.678	55.23
791.854	55.1
792.03	52.15
792.205	52.23
792.381	51.34
792.557	52.68
792.733	52.61
792.908	56.65
793.084	58.37
793.259	55.96
793.435	55.59
793.611	54.78
793.786	52.32
793.962	53.02
794.137	53.81
794.313	52.4
794.488	51.44
794.664	51.94
794.839	46.59
795.015	46.95
795.19	46.56
795.366	44.31
795.541	44.61
795.716	47.5
795.892	46.72
796.067	44.29
796.242	47.5
796.418	44.94
796.593	44.14
796.768	46.77
796.944	46.12
797.119	45.45
797.294	45.36
797.469	44.85
797.644	44.46
797.82	44.22
797.995	46.17
798.17	42.32
798.345	46.17
798.52	46.24
798.695	44.41
798.87	42.55
799.045	42.52
799.22	44.24
799.395	44.98
799.57	46.87
799.745	47.79
799.92	47.07
800.095	47.16
800.27	46.14
800.445	43.41
800.62	44.22
800.795	46.13
800.97	46.14
801.145	45.26
801.319	43.46
801.494	41.69
801.669	41.29
801.844	40.92
802.018	43.14
802.193	43.39
802.368	46.08
802.543	45.29
802.717	47.81
802.892	47.02
803.067	46.56
803.241	49.37
803.416	49.32
803.59	47.66
803.765	47.58
803.94	46.61
804.114	45.86
804.289	46.39
804.463	45.89
804.638	42.84
804.812	42.7
804.986	46.58
805.161	45.71
805.335	44.92
805.51	46.8
805.684	46.33
805.858	44.95
806.033	43.49
806.207	40.64
806.381	40.83
806.556	41.29
806.73	42.41
806.904	39.12
807.078	35.82
807.253	38.49
807.427	38.1
807.601	38.11
807.775	39.29
807.949	41.82
808.123	42.48
808.298	45.46
808.472	43.34
808.646	41.94
808.82	43.97
808.994	42.53
809.168	40.68
809.342	42.24
809.516	46.94
809.69	47.59
809.864	46.27
810.038	49.17
810.212	45
810.385	49.83
810.559	51.44
810.733	49.53
810.907	52.24
811.081	52.31
811.255	51.48
811.428	48.81
811.602	47.6
811.776	49.31
811.95	53.12
812.123	56.93
812.297	52.55
812.471	55.52
812.644	54.44
812.818	54.53
812.992	51.08
813.165	48.61
813.339	48.26
813.512	46.77
813.686	46.28
813.86	44.07
814.033	40.37
814.207	42.59
814.38	38.11
814.554	39.3
814.727	41.63
814.9	40.38
815.074	46.71
815.247	43.08
815.421	44.65
815.594	41.72
815.767	35.79
815.941	35.73
816.114	32.64
816.287	37.72
816.46	40.41
816.634	41.99
816.807	46.79
816.98	46.14
817.153	52.01
817.327	53.07
817.5	54.02
817.673	54.75
817.846	53.76
818.019	58.52
818.192	56.28
818.365	54.08
818.538	55.68
818.711	52.44
818.884	49.65
819.057	45.14
819.23	44.57
819.403	43.81
819.576	44.96
819.749	45.11
819.922	42.57
820.095	43.9
820.268	42.84
820.441	38.75
820.614	42.68
820.786	42.46
820.959	44.4
821.132	42.46
821.305	42.64
821.477	44.15
821.65	44.31
821.823	44.47
821.996	44.46
822.168	44.25
822.341	44.8
822.514	43.54
822.686	43.55
822.859	43.26
823.031	44.26
823.204	44.19
823.376	43.62
823.549	43.88
823.722	43.78
823.894	43.61
824.067	44.2
824.239	43.87
824.411	44.34
824.584	43.95
824.756	43.78
824.929	43.65
825.101	43.45
825.273	43.59
825.446	43.27
825.618	43.39
825.79	43.22
825.963	42.64
826.135	43.48
826.307	43.38
826.479	43.65
826.652	44.41
826.824	44.22
826.996	45.13
827.168	44.99
827.34	44.82
827.512	44.84
827.684	44
827.856	44.4
828.029	43.94
828.201	43.5
828.373	43.52
828.545	42.77
828.717	42.45
828.889	42.64
829.061	43.41
829.232	44.3
829.404	44.17
829.576	44.54
829.748	43.98
829.92	45.11
830.092	46.9
830.264	46.42
830.436	45.76
830.607	44.99
830.779	42.83
830.951	41.48
831.123	42.05
831.294	43.65
831.466	44.35
831.638	42.6
831.809	43.72
831.981	44.54
832.153	47.87
832.324	49.94
832.496	50.86
832.667	50.67
832.839	48.79
833.011	46.57
833.182	43.83
833.354	42.47
833.525	46.39
833.697	45.64
833.868	43.11
834.039	43.69
834.211	44.27
834.382	45.53
834.554	47.47
834.725	49.16
834.896	48.09
835.068	48.75
835.239	49.72
835.41	48.95
835.581	46.61
835.753	46.44
835.924	45.43
836.095	43.42
836.266	45.55
836.438	46.15
836.609	45.05
836.78	46.4
836.951	45.12
837.122	44.57
837.293	43.44
837.464	46.36
837.635	46.93
837.806	45.62
837.977	45.73
838.148	42.66
838.319	39.53
838.49	40.68
838.661	38.77
838.832	41.57
839.003	42.29
839.174	39.6
839.345	33.3
839.516	30.81
839.687	29.62
839.857	38.9
840.028	37.78
840.199	39.04
840.37	39.79
840.54	48.21
840.711	50.35
840.882	51.28
841.053	53.35
841.223	58.32
841.394	65.14
841.564	65.7
841.735	59.84
841.906	60.38
842.076	58.01
842.247	59.66
842.417	50.68
842.588	45.9
842.758	47.14
842.929	45.17
843.099	36
843.27	28.79
843.44	28.21
843.611	35.5
843.781	33.17
843.951	48.28
844.122	50.18
844.292	57.78
844.462	59.55
844.633	64.03
844.803	68.69
844.973	78.24
845.144	79.2
845.314	86.84
845.484	87.39
845.654	103.92
845.824	93.9
845.995	95.67
846.165	88.8
846.335	101.08
846.505	89.64
846.675	89.04
846.845	104.25
847.015	111.62
847.185	112.81
847.355	96.33
847.525	78.88
847.695	84.95
847.865	74.07
848.035	87.23
848.205	83.35
848.375	92.5
848.545	107.32
848.715	79.72
848.884	73.11
849.054	54.06
849.224	68.48
849.394	80.2
849.564	75.55
849.733	85.43
849.903	63.6
850.073	52.88
850.243	46.78
850.412	31.39
850.582	21.71
850.752	7.25
850.921	44.05
851.091	53.57
851.26	62.98
851.43	67.74
851.599	68.88
851.769	72.15
851.939	96.71
852.108	104.63
852.278	129.09
852.447	128.62
852.616	133.32
852.786	113.77
852.955	87.47
853.125	65.58
853.294	62.58
853.463	26.31
853.633	27.97
853.802	2.6
853.971	14.83
854.141	-2.52
854.31	-18.33
854.479	-58.38
854.648	-87.62
854.818	-78.22
854.987	-62.34
855.156	-50.69
855.325	2.81
855.494	-16.51
855.663	-21.44
855.832	-30.02
856.001	4.13
856.171	4.89
856.34	39.43
856.509	67.91
856.678	59.62
856.847	49.01
857.016	-3.89
857.185	-12.12
857.353	18.47
857.522	17.96
857.691	25.22
857.86	8.96
858.029	34.38
858.198	17.55
858.367	4.28
858.535	-6.66
858.704	1.53
858.873	22.13
859.042	30.78
859.21	33.41
859.379	42.2
859.548	31.11
859.717	48.64
859.885	37.57
860.054	38.94
860.222	40.68
860.391	70.03
860.56	64.7
860.728	62.16
860.897	59.69
861.065	62.35
861.234	56.6
861.402	58.68
861.571	47.96
861.739	53.49
861.908	57.89
862.076	64.92
862.244	56.3
862.413	49.05
862.581	50.38
862.749	42.02
862.918	-2.37
863.086	0.23
863.254	17.51
863.423	-49.36
863.591	0.35
863.759	-43.42
863.927	-143.9
864.096	-811.36
864.264	227.22
864.432	314.73
864.6	-8.42
864.768	204.76
864.936	84.65
865.104	66.72
865.272	97.94
865.44	115.71
865.608	107.42
865.776	90.55
865.944	106.77
866.112	94.15
866.28	91.23
866.448	70.29
866.616	97.45
866.784	117.09
866.952	126.09
867.12	111.15
867.288	90.15
867.455	92.33
867.623	106.62
867.791	90.08
867.959	91.46
868.127	100.56
868.294	116.81
868.462	66.03
868.63	30.87
868.797	42.72
868.965	18.79
869.133	4.49
869.3	-18.66
869.468	-7.32
869.636	20.47
869.803	15.74
869.971	-11.89
870.138	-7.53
870.306	-6.17
870.473	15.01
870.641	6.48
870.808	15.13
870.975	27.49
871.143	39.75
871.31	76.03
871.478	54
871.645	26.08
871.812	9.73
871.98	-5.24
872.147	36.28
872.314	62.35
872.482	99.58
872.649	134.66
872.816	84.51
872.983	153.12
873.15	79.09
873.318	75.35
873.485	186.98
873.652	306.56
873.819	183.85
873.986	126.44
874.153	133.27
874.32	122.37
874.487	126.6
874.654	138.81
874.821	118.51
874.988	126.01
875.155	130.29
875.322	104.9
875.489	96.47
875.656	108.35
875.823	108.54
875.99	101.17
876.157	118.15
876.324	137.15
876.49	129.14
876.657	150.26
876.824	124.57
876.991	125.42
877.157	143.91
877.324	128.9
877.491	108.9
877.658	111.25
877.824	116.22
877.991	98.02
878.157	69.1
878.324	82.68
878.491	61.85
878.657	78.12
878.824	74.79
878.99	82.81
879.157	86.36
879.323	81.94
879.49	94.75
879.656	87.54
879.823	73.86
879.989	71.03
880.156	37.83
880.322	29.66
880.488	51.33
880.655	68.12
880.821	46.09
880.987	65.44
881.154	71.92
881.32	56.91
881.486	54.88
881.652	60.46
881.819	61.16
881.985	61.07
882.151	56.1
882.317	46.07
882.483	42.78
882.649	46.6
882.816	43.61
882.982	42.94
883.148	43.88
883.314	42.33
883.48	41.07
883.646	40.05
883.812	41.4
883.978	41.62
884.144	41.61
884.31	43.84
884.476	42.76
884.642	43.47
884.807	45.02
884.973	44.85
885.139	46.53
885.305	47.59
885.471	48.93
885.637	47.85
885.802	49.18
885.968	50.7
886.134	48
886.3	46.34
886.465	44.6
886.631	41.41
886.797	41.81
886.962	40.6
887.128	37.82
887.293	38.35
887.459	41.96
887.625	40.28
887.79	42.83
887.956	44.47
888.121	52.82
888.287	55.39
888.452	62.51
888.618	67.19
888.783	75.95
