Data from CB_003_Reflection_2.txt Node
Date: Wed Nov 11 18:17:10 EST 2015
User: robert
Spectrometer: USB4E03001
Autoset integration time: false
Trigger mode: 4
Integration Time (sec): 1.000000E-1
Scans to average: 15
Electric dark correction enabled: true
Nonlinearity correction enabled: false
Boxcar width: 5
Stray light correction enabled: false
XAxis mode: Wavelengths
Stop averaging: false
Number of Pixels in Spectrum: 3648
>>>>>Begin Spectral Data<<<<<
177.566	-78.4
177.785	-203.44
178.005	17.22
178.225	-420.53
178.445	-134.68
178.665	-661.65
178.885	-186.9
179.105	426.28
179.324	215.32
179.544	-109.72
179.764	-102.73
179.984	-95.23
180.204	210.17
180.423	-59.66
180.643	-206.88
180.863	476.9
181.083	1429.75
181.302	556.24
181.522	-2320.06
181.742	-726.65
181.961	476.05
182.181	211.43
182.401	263.3
182.621	1608.99
182.84	263.45
183.06	296.98
183.279	325.67
183.499	857.56
183.719	849.57
183.938	430.8
184.158	1016.83
184.377	-1621.89
184.597	-403.4
184.816	-245.08
185.036	-534.77
185.256	-156.5
185.475	599.22
185.695	-5783.91
185.914	196.43
186.134	91.58
186.353	139.16
186.572	161.7
186.792	87.14
187.011	46.61
187.231	77.92
187.45	70.18
187.67	72.23
187.889	263.61
188.108	296.2
188.328	377.99
188.547	-356.81
188.766	-680.81
188.986	406.32
189.205	-25531.82
189.424	539.17
189.644	2611.57
189.863	275.09
190.082	277.74
190.302	224.1
190.521	179.01
190.74	166.05
190.959	100.74
191.178	100.68
191.398	66.35
191.617	60.53
191.836	70.42
192.055	75.33
192.274	47.82
192.494	30.97
192.713	45.53
192.932	57.07
193.151	57.96
193.37	77.7
193.589	71.48
193.808	108.18
194.027	103.02
194.246	130.65
194.465	121.31
194.685	109.63
194.904	118.78
195.123	267.39
195.342	574.44
195.561	97.24
195.78	93.15
195.999	50.75
196.218	-365.45
196.436	193.77
196.655	1412.1
196.874	-190.99
197.093	33.7
197.312	-27.87
197.531	168.15
197.75	83.46
197.969	71.66
198.188	89.93
198.407	58.59
198.625	-5.22
198.844	45.56
199.063	-41.6
199.282	-70.47
199.501	25.35
199.719	7.85
199.938	-1513.67
200.157	210.27
200.376	238.29
200.594	390.87
200.813	-11814.29
201.032	484.73
201.251	140.2
201.469	155.63
201.688	83.46
201.907	44.12
202.125	54.97
202.344	46.9
202.563	10.75
202.781	-0.64
203	3.21
203.218	10.73
203.437	31.26
203.656	79.34
203.874	64.22
204.093	84.76
204.311	92.4
204.53	76.42
204.748	63.34
204.967	88.51
205.185	87.06
205.404	96.78
205.622	112.7
205.841	123.99
206.059	114.8
206.278	165.36
206.496	109.93
206.715	182.44
206.933	303.03
207.151	238.24
207.37	282.08
207.588	255.51
207.806	365.85
208.025	375.31
208.243	351.26
208.461	148.29
208.68	174.19
208.898	216.69
209.116	175.22
209.335	96.03
209.553	-133.53
209.771	148.97
209.989	-1605.65
210.208	-663.73
210.426	-398.07
210.644	-49
210.862	-23.03
211.081	-3.7
211.299	6.16
211.517	-152.61
211.735	-162.54
211.953	-230.56
212.171	-30.74
212.39	-272.16
212.608	-1467.97
212.826	247.43
213.044	247.65
213.262	238
213.48	221.01
213.698	355.78
213.916	-1229
214.134	-543.75
214.352	-1067.42
214.57	753.01
214.788	158.99
215.006	176.62
215.224	131.21
215.442	67.43
215.66	79.59
215.878	78.04
216.096	68.59
216.314	83.1
216.532	91.28
216.75	108.15
216.968	108.4
217.185	154.6
217.403	169.62
217.621	228.89
217.839	299.73
218.057	4357.79
218.275	-1672.84
218.492	-157.51
218.71	-77.15
218.928	-35.38
219.146	11.1
219.363	27.33
219.581	-7.35
219.799	15.69
220.017	17.39
220.234	10.65
220.452	19.19
220.67	6.78
220.887	-47.1
221.105	-43.36
221.323	-51.05
221.54	21.06
221.758	32.09
221.976	10.5
222.193	19.92
222.411	-29.26
222.629	-57.66
222.846	-74.31
223.064	-50.04
223.281	-37.95
223.499	4.85
223.716	-48.85
223.934	-489.44
224.151	-841.96
224.369	-331.91
224.586	217450
224.804	-355.28
225.021	-124.97
225.239	-121.07
225.456	-142.02
225.674	-145.32
225.891	-56.49
226.108	-42.17
226.326	-5.45
226.543	-4.18
226.76	-9.28
226.978	2.64
227.195	3.43
227.413	4.24
227.63	6
227.847	3.96
228.064	5.96
228.282	6.1
228.499	11.49
228.716	11.71
228.934	10.22
229.151	8.99
229.368	11.16
229.585	7.01
229.802	8.51
230.02	8.8
230.237	8.11
230.454	11.88
230.671	11.02
230.888	5.83
231.105	5.94
231.323	8.98
231.54	12.55
231.757	5.39
231.974	11.3
232.191	6.97
232.408	7.51
232.625	8.5
232.842	0.93
233.059	-1.59
233.276	9.85
233.493	7.61
233.71	2.03
233.927	-2.72
234.144	5.11
234.361	2.55
234.578	0.57
234.795	-4.01
235.012	-4.39
235.229	-3.08
235.446	-8.32
235.663	-21.63
235.879	-20.3
236.096	-21.95
236.313	-28.61
236.53	-33.51
236.747	-28.51
236.964	-26.96
237.181	-34.11
237.397	-23.17
237.614	-23.41
237.831	-17.85
238.048	-12.59
238.264	-17.15
238.481	-9.1
238.698	-5.1
238.915	-8.99
239.131	-17.25
239.348	-16.38
239.565	-7.63
239.781	-13.35
239.998	-8.12
240.215	-7.76
240.431	-5.08
240.648	-0.54
240.865	0.8
241.081	0.39
241.298	2.96
241.514	4.66
241.731	6.6
241.947	7.06
242.164	8.03
242.38	5.85
242.597	5.45
242.814	5.58
243.03	4.18
243.246	4.75
243.463	6.15
243.679	6.29
243.896	7.54
244.112	6.25
244.329	5.65
244.545	4.96
244.762	5.92
244.978	7.41
245.194	5.13
245.411	4
245.627	1.38
245.843	0.36
246.06	1.83
246.276	2.24
246.492	2.49
246.709	3.04
246.925	3.67
247.141	3.61
247.357	3.92
247.574	5.02
247.79	6.34
248.006	6.52
248.222	7.53
248.439	6.83
248.655	7.15
248.871	7.59
249.087	8.42
249.303	7.61
249.519	8.47
249.736	6.71
249.952	6
250.168	3.45
250.384	2.9
250.6	0.46
250.816	1.81
251.032	1.84
251.248	2.62
251.464	2.74
251.68	2.49
251.896	3.19
252.112	4.26
252.328	5.29
252.544	5.36
252.76	5.09
252.976	6.75
253.192	7.16
253.408	4.34
253.624	3.05
253.84	0.08
254.056	1.54
254.272	-2.25
254.487	-2.3
254.703	-2.27
254.919	0.16
255.135	1.61
255.351	-0.09
255.567	-2.62
255.782	-2.29
255.998	1.3
256.214	2.84
256.43	4.71
256.646	6.5
256.861	4.35
257.077	2.37
257.293	0.51
257.508	1.39
257.724	0.95
257.94	0.22
258.155	1.64
258.371	1.24
258.587	1.16
258.802	1
259.018	1.04
259.234	2.98
259.449	3.59
259.665	3.9
259.88	3.35
260.096	3.92
260.312	4.89
260.527	4.78
260.743	4.39
260.958	4.37
261.174	3.81
261.389	3.83
261.605	3.57
261.82	4.1
262.036	3.34
262.251	3.97
262.466	3.63
262.682	1.39
262.897	1.15
263.113	0.54
263.328	1.24
263.543	2.28
263.759	1.86
263.974	0.85
264.189	-0.08
264.405	0.88
264.62	-0.27
264.835	-0.81
265.051	1.43
265.266	-0.28
265.481	0.84
265.696	-1.28
265.912	-4.38
266.127	-4.18
266.342	-4.84
266.557	-6.25
266.773	-7
266.988	-6.54
267.203	-8.08
267.418	-7.88
267.633	-7.01
267.848	-6.75
268.064	-5.32
268.279	-4.28
268.494	-4.16
268.709	-3.58
268.924	-2.22
269.139	-0.62
269.354	1.53
269.569	4.67
269.784	4.71
269.999	4.87
270.214	3.63
270.429	2.81
270.644	3.82
270.859	4.14
271.074	4.77
271.289	4.42
271.504	3.41
271.719	1.67
271.934	0.76
272.149	0.29
272.363	0.69
272.578	1.48
272.793	3.09
273.008	3.07
273.223	3.07
273.438	3.6
273.653	3.75
273.867	5.73
274.082	5.6
274.297	6.33
274.512	5.96
274.726	8.05
274.941	8.97
275.156	7.72
275.371	7.1
275.585	6.67
275.8	4.9
276.015	4.11
276.229	0.56
276.444	1.37
276.659	-0.35
276.873	-1.24
277.088	-3.98
277.302	-5.47
277.517	-6.02
277.732	-6.98
277.946	-6.67
278.161	-6.82
278.375	-6.39
278.59	-4.55
278.804	-5.8
279.019	-3.71
279.233	-0.33
279.448	0.37
279.662	0.59
279.877	2.44
280.091	4.9
280.306	5.39
280.52	5.88
280.735	6.42
280.949	6.87
281.163	7.21
281.378	4.94
281.592	4.72
281.806	5.66
282.021	5.46
282.235	4.16
282.449	2.6
282.664	2.81
282.878	3.48
283.092	4.82
283.307	4.9
283.521	5.56
283.735	8.17
283.949	6.62
284.164	4.74
284.378	6.72
284.592	6.69
284.806	7.04
285.02	7.39
285.234	7.72
285.449	7.33
285.663	6.81
285.877	6.54
286.091	5.77
286.305	5.91
286.519	6.78
286.733	5.76
286.947	6.15
287.161	6.91
287.375	5.23
287.589	3.91
287.803	2.85
288.017	2.66
288.231	2.72
288.445	2.3
288.659	2.28
288.873	1.94
289.087	1.26
289.301	0.59
289.515	-0.21
289.729	0.94
289.943	2.33
290.157	1.55
290.371	1.7
290.584	2.51
290.798	2.46
291.012	2.84
291.226	3.94
291.44	4.68
291.654	5.08
291.867	5.72
292.081	5.16
292.295	4.22
292.509	5.02
292.722	5.39
292.936	4.34
293.15	5.27
293.364	6.2
293.577	6.42
293.791	6.03
294.005	6.21
294.218	6.15
294.432	7.09
294.645	8.2
294.859	8.05
295.073	7.61
295.286	8.11
295.5	6.98
295.713	6.1
295.927	5.44
296.14	5.88
296.354	6.1
296.568	5.66
296.781	4.57
296.994	3.47
297.208	3.34
297.421	4.11
297.635	4.16
297.848	5.25
298.062	5.98
298.275	6.12
298.489	4.79
298.702	5.79
298.915	6.61
299.129	7.27
299.342	7.67
299.555	8.77
299.769	9.07
299.982	8.59
300.195	9.79
300.409	9.08
300.622	9.32
300.835	11.18
301.048	10.97
301.262	10.17
301.475	10.01
301.688	10.53
301.901	10.09
302.115	9.47
302.328	10.31
302.541	8.3
302.754	8.05
302.967	6.66
303.18	5.86
303.393	5.36
303.607	5.86
303.82	6.37
304.033	5
304.246	4.13
304.459	2.92
304.672	2.24
304.885	2.34
305.098	2.8
305.311	4.87
305.524	5.03
305.737	4.79
305.95	4.9
306.163	5.54
306.376	6.91
306.589	7.9
306.802	8.81
307.015	8.79
307.228	8.47
307.44	9.21
307.653	8.61
307.866	8.62
308.079	8.48
308.292	9.31
308.505	10.41
308.718	9.97
308.93	9
309.143	8.71
309.356	8.86
309.569	9.34
309.781	8.97
309.994	9.04
310.207	9.49
310.42	9.62
310.632	9.12
310.845	8.62
311.058	8.42
311.27	9.32
311.483	9.84
311.696	9.52
311.908	9.11
312.121	9.38
312.333	8.4
312.546	9.19
312.759	8.67
312.971	7.43
313.184	5.99
313.396	7.32
313.609	7.72
313.821	8.51
314.034	9.96
314.246	10.21
314.459	9.34
314.671	9.48
314.884	8.17
315.096	9.08
315.309	9.23
315.521	9.39
315.733	7.85
315.946	7.17
316.158	6.81
316.371	4.66
316.583	3.59
316.795	4.02
317.008	4.17
317.22	5.03
317.432	4.82
317.644	4.67
317.857	4.93
318.069	5.81
318.281	6.65
318.494	5.18
318.706	5.88
318.918	6.72
319.13	6.81
319.342	6.48
319.555	4.63
319.767	3.33
319.979	5.26
320.191	6.38
320.403	5.72
320.615	4.25
320.827	4.94
321.039	5.04
321.252	5.4
321.464	5.37
321.676	5.98
321.888	6.42
322.1	6.57
322.312	6.05
322.524	6.49
322.736	7.7
322.948	7.75
323.16	8.35
323.372	8.52
323.584	8.21
323.796	7.37
324.007	7.44
324.219	7.75
324.431	8.06
324.643	7.37
324.855	6.35
325.067	6.32
325.279	6.96
325.491	6.65
325.702	7.55
325.914	8.32
326.126	9.33
326.338	9.25
326.55	10.36
326.761	12.13
326.973	13.22
327.185	12.61
327.396	11.77
327.608	11.06
327.82	12.43
328.032	11.67
328.243	11.9
328.455	12.39
328.666	13.24
328.878	13.37
329.09	12.14
329.301	10.27
329.513	11.35
329.725	12
329.936	12.16
330.148	10.29
330.359	10.14
330.571	10.04
330.782	10.12
330.994	9.94
331.205	8.98
331.417	8.94
331.628	10.46
331.84	10.84
332.051	10.81
332.262	11.52
332.474	13.34
332.685	14.56
332.897	14.37
333.108	14.9
333.319	15.23
333.531	15.17
333.742	14.89
333.953	16.17
334.165	15.98
334.376	16.12
334.587	15.74
334.799	14.07
335.01	13.47
335.221	14
335.432	13.34
335.644	13.6
335.855	13.67
336.066	13.64
336.277	12.92
336.488	13.13
336.7	12.71
336.911	13.64
337.122	14.92
337.333	14.81
337.544	14.78
337.755	14.9
337.966	13.78
338.177	13.16
338.388	13.15
338.599	13.56
338.811	13.38
339.022	14.21
339.233	12.84
339.444	12.58
339.655	14.07
339.866	14.38
340.076	13.62
340.287	14.6
340.498	16.44
340.709	17.06
340.92	15.79
341.131	15.6
341.342	14.47
341.553	14.58
341.764	14.57
341.975	12.73
342.185	11.86
342.396	12.67
342.607	12.07
342.818	10.77
343.029	9.95
343.239	10.89
343.45	10.95
343.661	11.47
343.872	12.39
344.082	11.36
344.293	11.43
344.504	11.92
344.714	11.54
344.925	12.01
345.136	12
345.346	13.18
345.557	13.43
345.768	13.48
345.978	13.78
346.189	13.82
346.399	15.55
346.61	15.81
346.821	15.94
347.031	16.39
347.242	17.24
347.452	17.29
347.663	16.2
347.873	15.49
348.084	15.91
348.294	15.95
348.504	14.91
348.715	13.76
348.925	13.98
349.136	13.53
349.346	13.82
349.557	13.22
349.767	13.32
349.977	13.25
350.188	13.03
350.398	12.82
350.608	13.03
350.819	13.56
351.029	12.9
351.239	13.22
351.449	12.56
351.66	11.95
351.87	11.54
352.08	11.85
352.29	12.98
352.501	12.55
352.711	13.69
352.921	12.89
353.131	12.44
353.341	13.09
353.552	12.69
353.762	13.45
353.972	13.58
354.182	14.32
354.392	14.1
354.602	13.4
354.812	14.35
355.022	13.44
355.232	13.85
355.442	14.51
355.652	14.55
355.862	14.93
356.072	14.37
356.282	14.75
356.492	14.07
356.702	14.98
356.912	15.29
357.122	14.64
357.332	14.5
357.542	14.59
357.752	14.57
357.962	14.85
358.171	15.25
358.381	15.46
358.591	15.37
358.801	15.3
359.011	14.68
359.221	14.98
359.43	15.31
359.64	15.38
359.85	16.12
360.06	15.85
360.269	15.95
360.479	15.33
360.689	15.13
360.899	15.25
361.108	15.85
361.318	15.68
361.528	15.27
361.737	15.09
361.947	15.45
362.156	14.77
362.366	15.26
362.576	14.61
362.785	14.5
362.995	14.72
363.204	14.3
363.414	13.72
363.623	13.7
363.833	13.59
364.042	14.28
364.252	13.57
364.461	13.79
364.671	13.19
364.88	13.45
365.09	13.44
365.299	13.78
365.509	13.22
365.718	12.99
365.927	13.05
366.137	13.18
366.346	12.05
366.555	11.62
366.765	11.62
366.974	11.91
367.183	11.86
367.393	11.73
367.602	11.59
367.811	11.56
368.021	11.66
368.23	11.5
368.439	11.33
368.648	11.71
368.857	12.24
369.067	11.59
369.276	11.61
369.485	11.57
369.694	12.05
369.903	11.44
370.112	11.79
370.321	11.62
370.531	11.49
370.74	10.55
370.949	10.64
371.158	10.59
371.367	10.35
371.576	9.61
371.785	9.16
371.994	8.92
372.203	9.17
372.412	9.58
372.621	9.96
372.83	10.38
373.039	11.25
373.248	11.6
373.457	11.48
373.666	11.72
373.874	12.03
374.083	12.66
374.292	12
374.501	11.85
374.71	11.51
374.919	10.95
375.128	10.73
375.336	10.14
375.545	9.58
375.754	9.37
375.963	9.14
376.171	8.53
376.38	8.4
376.589	8.94
376.798	8.54
377.006	7.82
377.215	8.09
377.424	8.11
377.632	8.5
377.841	8.58
378.05	8.01
378.258	8.31
378.467	8.63
378.675	8.18
378.884	7.64
379.093	7.45
379.301	8.08
379.51	8.21
379.718	7.85
379.927	7.76
380.135	7.56
380.344	8.22
380.552	8.55
380.761	8.81
380.969	8.87
381.177	9.07
381.386	9.61
381.594	9.17
381.803	8.22
382.011	8.21
382.219	8.24
382.428	8.13
382.636	8.46
382.845	7.6
383.053	7.03
383.261	6.69
383.469	7.12
383.678	6.98
383.886	7.28
384.094	7.62
384.302	7.64
384.511	7.35
384.719	7.32
384.927	7.5
385.135	7.79
385.343	8.01
385.552	8.69
385.76	8.11
385.968	8.08
386.176	7.95
386.384	7.86
386.592	7.87
386.8	7.82
387.008	7.84
387.216	7.41
387.424	7.83
387.633	7.88
387.841	7.31
388.049	7.25
388.257	7.44
388.465	7.46
388.672	7.28
388.88	7
389.088	6.72
389.296	6.81
389.504	6.99
389.712	6.27
389.92	6.27
390.128	6.37
390.336	6.14
390.544	5.86
390.751	5.82
390.959	6.28
391.167	6.54
391.375	7.19
391.583	7.15
391.79	6.69
391.998	6.73
392.206	6.71
392.414	6.82
392.621	7.12
392.829	7.25
393.037	7.11
393.244	6.68
393.452	6.34
393.66	5.64
393.867	5.63
394.075	5.93
394.283	5.92
394.49	5.98
394.698	5.92
394.905	6.01
395.113	5.61
395.32	6.01
395.528	6.09
395.735	6.3
395.943	6.49
396.15	6.18
396.358	5.91
396.565	5.85
396.773	5.83
396.98	5.46
397.188	5.28
397.395	5.56
397.602	5.01
397.81	5.2
398.017	4.9
398.225	5.05
398.432	5.28
398.639	5.27
398.847	5.72
399.054	5.3
399.261	5.84
399.468	5.66
399.676	5.93
399.883	5.87
400.09	5.93
400.297	6.07
400.505	5.93
400.712	5.89
400.919	5.92
401.126	5.49
401.333	5.98
401.54	5.63
401.748	5.27
401.955	4.76
402.162	4.79
402.369	4.56
402.576	4.59
402.783	4.68
402.99	4.5
403.197	4.54
403.404	4.1
403.611	3.61
403.818	3.56
404.025	4.23
404.232	4.29
404.439	4.42
404.646	4.49
404.853	4.49
405.06	4.45
405.267	4.38
405.474	4.31
405.681	4.63
405.887	4.72
406.094	4.94
406.301	4.61
406.508	4.64
406.715	4.66
406.922	4.66
407.128	4.63
407.335	4.59
407.542	4.63
407.749	4.64
407.955	4.68
408.162	4.99
408.369	4.92
408.575	4.78
408.782	4.92
408.989	4.97
409.195	4.94
409.402	5.06
409.609	4.99
409.815	5.25
410.022	5.27
410.228	5.39
410.435	5.06
410.642	4.9
410.848	5.44
411.055	5.41
411.261	5.31
411.468	5.3
411.674	5.12
411.881	5.16
412.087	5.04
412.294	5
412.5	4.93
412.706	5.22
412.913	4.82
413.119	4.43
413.326	4.26
413.532	4.3
413.738	4.4
413.945	4.1
414.151	3.94
414.357	3.97
414.564	3.79
414.77	3.86
414.976	3.68
415.182	4.03
415.389	4.17
415.595	4.37
415.801	4.22
416.007	3.81
416.214	3.94
416.42	3.97
416.626	3.8
416.832	4.1
417.038	3.82
417.244	3.83
417.45	4.03
417.657	4.01
417.863	3.87
418.069	3.86
418.275	4.08
418.481	4.16
418.687	4.18
418.893	4.05
419.099	3.87
419.305	4.11
419.511	4.07
419.717	4.13
419.923	4.13
420.129	4.32
420.335	4.31
420.541	4.34
420.746	4.41
420.952	4.52
421.158	4.71
421.364	4.69
421.57	4.53
421.776	4.49
421.982	4.3
422.187	4.27
422.393	4.07
422.599	4.18
422.805	3.99
423.01	3.95
423.216	3.76
423.422	3.55
423.628	3.66
423.833	3.75
424.039	3.9
424.245	3.89
424.45	3.77
424.656	3.72
424.862	3.64
425.067	3.78
425.273	3.89
425.478	4.01
425.684	4.11
425.889	4.02
426.095	3.88
426.301	3.76
426.506	3.84
426.712	3.94
426.917	4.22
427.123	4.25
427.328	4.11
427.533	3.98
427.739	4.09
427.944	4.18
428.15	4.19
428.355	4.41
428.561	4.43
428.766	4.19
428.971	4.13
429.177	3.88
429.382	3.71
429.587	3.84
429.793	3.65
429.998	3.45
430.203	3.48
430.408	3.24
430.614	3.05
430.819	3.19
431.024	3.16
431.229	3.26
431.434	3.35
431.64	3.48
431.845	3.4
432.05	3.53
432.255	3.64
432.46	3.68
432.665	4.03
432.87	4.13
433.076	4.06
433.281	4.11
433.486	3.98
433.691	3.7
433.896	3.6
434.101	3.64
434.306	3.83
434.511	3.48
434.716	3.28
434.921	3.01
435.126	2.99
435.331	2.8
435.535	3.05
435.74	3.25
435.945	3.54
436.15	3.71
436.355	3.81
436.56	3.39
436.765	3.53
436.97	3.53
437.174	3.73
437.379	3.74
437.584	3.85
437.789	3.68
437.993	3.54
438.198	3.5
438.403	3.54
438.608	3.54
438.812	3.63
439.017	3.67
439.222	3.81
439.426	3.88
439.631	3.82
439.836	3.9
440.04	3.92
440.245	3.96
440.45	3.86
440.654	3.82
440.859	3.78
441.063	3.79
441.268	3.82
441.472	3.88
441.677	3.67
441.881	3.71
442.086	3.62
442.29	3.41
442.495	3.46
442.699	3.35
442.904	3.23
443.108	3.25
443.312	3.23
443.517	3.2
443.721	3.17
443.925	3.24
444.13	3.29
444.334	3.25
444.538	3.49
444.743	3.56
444.947	3.6
445.151	3.61
445.356	3.72
445.56	3.75
445.764	3.67
445.968	3.64
446.173	3.66
446.377	3.63
446.581	3.8
446.785	3.84
446.989	3.77
447.193	3.91
447.398	3.93
447.602	3.83
447.806	3.89
448.01	4.03
448.214	4.08
448.418	4.06
448.622	4.11
448.826	4.04
449.03	3.96
449.234	3.86
449.438	3.69
449.642	3.82
449.846	3.74
450.05	3.52
450.254	3.39
450.458	3.38
450.662	3.42
450.866	3.26
451.069	3.27
451.273	3.45
451.477	3.51
451.681	3.63
451.885	3.44
452.089	3.23
452.292	3.47
452.496	3.65
452.7	3.59
452.904	3.56
453.107	3.52
453.311	3.31
453.515	3.06
453.719	3.18
453.922	3.03
454.126	3.15
454.33	3.27
454.533	3.11
454.737	3.09
454.94	2.97
455.144	2.78
455.348	2.8
455.551	2.93
455.755	2.91
455.958	2.73
456.162	2.74
456.365	2.59
456.569	2.58
456.772	2.74
456.976	2.58
457.179	2.57
457.383	2.7
457.586	2.66
457.79	2.54
457.993	2.55
458.196	2.59
458.4	2.69
458.603	2.82
458.807	3.07
459.01	3
459.213	3.02
459.417	3.07
459.62	3.25
459.823	3.2
460.026	3.21
460.23	3.29
460.433	3.16
460.636	3.04
460.839	3.08
461.042	2.93
461.246	2.91
461.449	3.01
461.652	3.01
461.855	2.79
462.058	2.84
462.261	2.92
462.464	2.86
462.668	3.02
462.871	3.23
463.074	3.13
463.277	3.24
463.48	3.3
463.683	3.19
463.886	3.08
464.089	3.16
464.292	2.98
464.495	2.94
464.698	3.02
464.901	3.18
465.104	3.13
465.306	3.14
465.509	2.97
465.712	2.9
465.915	2.95
466.118	3.22
466.321	3.08
466.524	3.24
466.726	3.44
466.929	3.37
467.132	3.1
467.335	3.16
467.538	3.14
467.74	3.38
467.943	3.44
468.146	3.43
468.348	3.23
468.551	3.41
468.754	3.69
468.956	3.57
469.159	3.51
469.362	3.76
469.564	3.72
469.767	3.73
469.969	3.69
470.172	3.67
470.375	3.58
470.577	3.6
470.78	3.4
470.982	3.12
471.185	3.12
471.387	3.31
471.59	3.24
471.792	3.32
471.995	3.33
472.197	3.2
472.399	3.29
472.602	3.43
472.804	3.37
473.007	3.45
473.209	3.54
473.411	3.45
473.614	3.31
473.816	3.26
474.018	3.13
474.22	3.06
474.423	3.15
474.625	3.04
474.827	2.95
475.03	2.84
475.232	2.88
475.434	2.85
475.636	2.89
475.838	2.89
476.04	3.01
476.243	3.12
476.445	3.33
476.647	3.22
476.849	3.24
477.051	3.29
477.253	3.54
477.455	3.67
477.657	3.71
477.859	3.75
478.061	3.77
478.263	3.72
478.465	3.58
478.667	3.46
478.869	3.7
479.071	3.65
479.273	3.64
479.475	3.49
479.677	3.38
479.879	3.28
480.081	3.21
480.283	3.12
480.485	3.16
480.686	3.18
480.888	3.03
481.09	2.82
481.292	2.95
481.494	2.99
481.695	2.96
481.897	3.02
482.099	3.12
482.301	3.24
482.502	3.34
482.704	3.34
482.906	3.45
483.107	3.54
483.309	3.62
483.511	3.62
483.712	3.59
483.914	3.59
484.115	3.58
484.317	3.59
484.519	3.54
484.72	3.46
484.922	3.47
485.123	3.42
485.325	3.46
485.526	3.4
485.728	3.38
485.929	3.38
486.131	3.43
486.332	3.39
486.534	3.31
486.735	3.37
486.936	3.46
487.138	3.48
487.339	3.5
487.541	3.39
487.742	3.39
487.943	3.4
488.144	3.42
488.346	3.43
488.547	3.53
488.748	3.63
488.95	3.59
489.151	3.57
489.352	3.58
489.553	3.5
489.755	3.52
489.956	3.5
490.157	3.46
490.358	3.41
490.559	3.38
490.76	3.32
490.961	3.3
491.163	3.32
491.364	3.4
491.565	3.36
491.766	3.45
491.967	3.41
492.168	3.51
492.369	3.52
492.57	3.57
492.771	3.58
492.972	3.58
493.173	3.55
493.374	3.54
493.575	3.42
493.776	3.38
493.976	3.33
494.177	3.4
494.378	3.22
494.579	3.05
494.78	3.01
494.981	2.94
495.182	2.85
495.382	2.75
495.583	2.86
495.784	3.02
495.985	3.11
496.185	3.08
496.386	2.87
496.587	2.97
496.788	2.99
496.988	2.98
497.189	3.03
497.39	3.02
497.59	3.15
497.791	3.12
497.992	3.1
498.192	3.03
498.393	3.11
498.593	3.43
498.794	3.52
498.994	3.64
499.195	3.69
499.395	3.78
499.596	3.87
499.796	3.89
499.997	3.86
500.197	3.77
500.398	3.89
500.598	4.08
500.799	4.04
500.999	3.89
501.199	4.24
501.4	4.18
501.6	4.28
501.801	4.37
502.001	4.23
502.201	4.27
502.402	4.27
502.602	4.21
502.802	4.08
503.002	4.18
503.203	4.29
503.403	4.04
503.603	4.13
503.803	3.87
504.003	3.82
504.204	4.01
504.404	4.39
504.604	4.55
504.804	4.59
505.004	4.59
505.204	4.39
505.404	4.35
505.604	4.24
505.804	4.31
506.005	4.53
506.205	4.73
506.405	4.64
506.605	4.5
506.805	4.41
507.005	4.4
507.204	4.4
507.404	4.61
507.604	4.67
507.804	4.89
508.004	5.02
508.204	5.03
508.404	4.9
508.604	4.85
508.804	4.81
509.003	4.9
509.203	4.98
509.403	4.92
509.603	4.81
509.803	4.83
510.002	4.88
510.202	4.83
510.402	4.83
510.602	4.92
510.801	5.16
511.001	5.17
511.201	5.04
511.4	5.17
511.6	5.45
511.8	5.5
511.999	5.35
512.199	5.29
512.398	5.22
512.598	5.3
512.797	5.43
512.997	5.34
513.197	5.34
513.396	5.64
513.596	5.73
513.795	5.57
513.994	5.62
514.194	5.87
514.393	6.01
514.593	6.22
514.792	6.28
514.992	6.31
515.191	6.43
515.39	6.55
515.59	6.57
515.789	6.64
515.988	6.68
516.188	6.91
516.387	7.04
516.586	7.13
516.786	7.09
516.985	7.21
517.184	7.2
517.383	7.32
517.582	7.27
517.782	7.24
517.981	7.21
518.18	7.35
518.379	7.34
518.578	7.35
518.777	7.32
518.976	7.41
519.176	7.39
519.375	7.49
519.574	7.56
519.773	7.65
519.972	7.67
520.171	7.67
520.37	7.63
520.569	7.69
520.768	7.71
520.967	7.66
521.166	7.68
521.365	7.62
521.564	7.44
521.762	7.38
521.961	7.36
522.16	7.48
522.359	7.5
522.558	7.65
522.757	7.76
522.956	7.82
523.154	8.03
523.353	8.12
523.552	8.19
523.751	8.49
523.949	8.6
524.148	8.67
524.347	8.82
524.546	8.99
524.744	9.13
524.943	9.17
525.142	9.23
525.34	9.36
525.539	9.4
525.737	9.52
525.936	9.42
526.135	9.37
526.333	9.39
526.532	9.42
526.73	9.39
526.929	9.34
527.127	9.35
527.326	9.46
527.524	9.44
527.723	9.5
527.921	9.57
528.12	9.72
528.318	9.76
528.516	9.87
528.715	9.89
528.913	9.92
529.112	9.99
529.31	10.04
529.508	10.04
529.707	10.06
529.905	10.06
530.103	10.08
530.301	10.01
530.5	10.1
530.698	10.09
530.896	10.02
531.094	10.13
531.293	10.15
531.491	10.14
531.689	10.23
531.887	10.24
532.085	10.32
532.283	10.32
532.481	10.48
532.68	10.54
532.878	10.59
533.076	10.8
533.274	10.84
533.472	10.83
533.67	10.87
533.868	10.87
534.066	11.04
534.264	11.07
534.462	11.15
534.66	11.14
534.858	11.2
535.056	11.29
535.253	11.3
535.451	11.24
535.649	11.34
535.847	11.53
536.045	11.52
536.243	11.51
536.441	11.64
536.638	11.63
536.836	11.74
537.034	11.77
537.232	11.71
537.43	11.76
537.627	11.87
537.825	11.94
538.023	11.93
538.22	12.09
538.418	12.14
538.616	12.19
538.813	12.44
539.011	12.48
539.209	12.43
539.406	12.54
539.604	12.72
539.801	12.79
539.999	12.83
540.196	12.93
540.394	12.98
540.591	13.09
540.789	13.07
540.986	13.07
541.184	13.15
541.381	13.29
541.579	13.37
541.776	13.39
541.974	13.53
542.171	13.57
542.368	13.57
542.566	13.65
542.763	13.63
542.96	13.68
543.158	13.73
543.355	13.75
543.552	13.74
543.75	13.82
543.947	13.76
544.144	13.75
544.341	13.9
544.539	14.01
544.736	14.02
544.933	14.07
545.13	14.26
545.327	14.38
545.524	14.48
545.722	14.61
545.919	14.64
546.116	14.86
546.313	14.94
546.51	14.89
546.707	14.94
546.904	15.08
547.101	15.27
547.298	15.26
547.495	15.35
547.692	15.46
547.889	15.67
548.086	15.76
548.283	15.73
548.48	15.8
548.677	15.93
548.874	16.1
549.07	16.16
549.267	16.33
549.464	16.42
549.661	16.52
549.858	16.6
550.055	16.34
550.251	16.54
550.448	16.76
550.645	16.89
550.842	16.95
551.038	16.77
551.235	16.74
551.432	16.54
551.628	16.65
551.825	16.58
552.022	16.76
552.218	16.86
552.415	16.83
552.612	16.63
552.808	16.54
553.005	16.65
553.201	16.94
553.398	17.09
553.594	17.17
553.791	16.98
553.987	17.17
554.184	17.15
554.38	17.29
554.577	17.21
554.773	17.48
554.97	17.72
555.166	17.57
555.362	17.48
555.559	17.62
555.755	17.53
555.952	17.85
556.148	17.81
556.344	17.69
556.541	17.94
556.737	18.09
556.933	17.82
557.129	17.66
557.326	17.84
557.522	18.07
557.718	17.96
557.914	18.31
558.11	18.21
558.307	18.3
558.503	18.55
558.699	18.66
558.895	18.85
559.091	19.12
559.287	19.3
559.483	19.41
559.679	19.61
559.876	19.63
560.072	19.53
560.268	19.66
560.464	19.61
560.66	19.65
560.856	19.46
561.052	19.62
561.247	19.74
561.443	19.82
561.639	19.96
561.835	19.79
562.031	19.98
562.227	19.98
562.423	20.15
562.619	20.39
562.815	20.44
563.01	20.45
563.206	20.36
563.402	20.45
563.598	20.51
563.793	20.36
563.989	20.27
564.185	20.32
564.381	20.4
564.576	20.5
564.772	20.61
564.968	20.56
565.163	20.72
565.359	20.63
565.555	20.38
565.75	20.42
565.946	20.52
566.141	20.64
566.337	20.56
566.532	20.69
566.728	20.7
566.923	20.63
567.119	20.73
567.314	20.8
567.51	21.01
567.705	21.28
567.901	21.17
568.096	21.31
568.292	21.35
568.487	21.41
568.682	21.4
568.878	21.27
569.073	21.31
569.268	21.2
569.464	21.45
569.659	21.42
569.854	21.42
570.05	21.51
570.245	21.45
570.44	21.54
570.635	21.67
570.831	22
571.026	22.2
571.221	22.24
571.416	22.35
571.611	22.3
571.806	22.32
572.002	22.41
572.197	22.41
572.392	22.63
572.587	22.64
572.782	22.44
572.977	22.27
573.172	22.2
573.367	22.38
573.562	22.31
573.757	22.11
573.952	22.33
574.147	22.14
574.342	22.29
574.537	22.07
574.732	22.15
574.927	22.51
575.121	22.54
575.316	22.69
575.511	22.61
575.706	22.68
575.901	22.8
576.096	22.48
576.29	22.65
576.485	22.86
576.68	23.02
576.875	22.94
577.069	22.92
577.264	22.9
577.459	22.93
577.654	23.28
577.848	23.43
578.043	23.44
578.238	23.59
578.432	23.8
578.627	23.82
578.821	23.83
579.016	24.09
579.21	23.96
579.405	24.2
579.6	24.02
579.794	23.7
579.989	23.68
580.183	23.57
580.378	23.87
580.572	23.89
580.766	23.89
580.961	23.93
581.155	23.7
581.35	23.48
581.544	22.97
581.738	23.16
581.933	22.92
582.127	22.99
582.321	23.47
582.516	23.42
582.71	23.31
582.904	23
583.099	23.22
583.293	23.25
583.487	23.58
583.681	24
583.875	24.09
584.07	23.98
584.264	23.86
584.458	23.92
584.652	23.75
584.846	23.86
585.04	24.09
585.234	23.75
585.428	23.78
585.623	23.69
585.817	23.59
586.011	23.42
586.205	23.59
586.399	23.74
586.593	23.46
586.787	23.55
586.981	23.65
587.174	23.65
587.368	23.86
587.562	24.16
587.756	24.16
587.95	24.11
588.144	24.4
588.338	24.52
588.532	24.55
588.725	24.67
588.919	24.79
589.113	24.69
589.307	24.6
589.501	24.66
589.694	24.71
589.888	24.84
590.082	24.93
590.275	24.79
590.469	25.04
590.663	24.95
590.856	24.81
591.05	24.79
591.244	24.81
591.437	25.01
591.631	25.01
591.824	24.92
592.018	25.06
592.212	25.29
592.405	25.37
592.599	25.18
592.792	25.2
592.986	25.44
593.179	25.52
593.372	25.47
593.566	25.42
593.759	25.62
593.953	25.84
594.146	25.76
594.339	25.64
594.533	25.52
594.726	25.63
594.92	25.91
595.113	25.67
595.306	25.4
595.499	25.59
595.693	25.68
595.886	25.49
596.079	25.44
596.272	25.54
596.466	25.76
596.659	26.04
596.852	25.85
597.045	25.61
597.238	25.78
597.431	25.82
597.624	25.69
597.818	25.75
598.011	25.69
598.204	25.63
598.397	25.55
598.59	25.26
598.783	25.11
598.976	25.15
599.169	25.05
599.362	25.13
599.555	25.3
599.748	25.48
599.941	25.38
600.134	25.35
600.326	25.3
600.519	25.25
600.712	25.38
600.905	25.21
601.098	25.48
601.291	25.36
601.483	25.13
601.676	25.12
601.869	24.98
602.062	25.03
602.255	25.02
602.447	24.9
602.64	24.88
602.833	24.85
603.025	25.24
603.218	25.35
603.411	25.7
603.603	25.86
603.796	25.79
603.989	25.84
604.181	25.86
604.374	26.03
604.566	26.13
604.759	26.21
604.951	26.29
605.144	26.1
605.336	25.83
605.529	25.84
605.721	25.92
605.914	25.98
606.106	25.86
606.299	25.84
606.491	25.76
606.683	25.86
606.876	25.92
607.068	25.87
607.26	25.92
607.453	25.98
607.645	26.1
607.837	25.86
608.03	26.29
608.222	26.5
608.414	26.57
608.606	26.78
608.799	26.93
608.991	26.86
609.183	27.02
609.375	27.25
609.567	27.53
609.759	27.66
609.952	27.96
610.144	27.8
610.336	27.94
610.528	28.13
610.72	28.19
610.912	28.21
611.104	28.38
611.296	28.41
611.488	28.26
611.68	28.2
611.872	28.1
612.064	27.83
612.256	27.66
612.448	27.74
612.64	27.92
612.832	27.58
613.023	27.24
613.215	26.96
613.407	26.66
613.599	26.52
613.791	26.49
613.983	26.75
614.174	26.79
614.366	27.21
614.558	27.05
614.75	26.48
614.941	26.89
615.133	27.13
615.325	27.32
615.516	27.68
615.708	27.76
615.9	27.79
616.091	27.39
616.283	27.27
616.475	27.02
616.666	26.76
616.858	26.75
617.049	26.84
617.241	26.6
617.432	26.64
617.624	26.47
617.815	26.23
618.007	26.09
618.198	25.89
618.39	25.84
618.581	25.67
618.773	26.02
618.964	26.16
619.155	26.04
619.347	25.98
619.538	26.1
619.729	25.98
619.921	26.33
620.112	26.37
620.303	26.68
620.494	26.85
620.686	26.81
620.877	26.59
621.068	26.6
621.259	26.3
621.451	26.41
621.642	26.28
621.833	26.4
622.024	26.47
622.215	26.44
622.406	26.16
622.597	26.29
622.788	26.33
622.98	26.21
623.171	25.93
623.362	26.03
623.553	26.12
623.744	26.06
623.935	26.27
624.126	26.19
624.317	26.19
624.508	26.44
624.698	26.36
624.889	26.34
625.08	26.39
625.271	26.56
625.462	26.66
625.653	26.57
625.844	26.49
626.034	26.31
626.225	26.31
626.416	26.48
626.607	26.83
626.798	26.92
626.988	26.93
627.179	27.26
627.37	27.43
627.56	27.32
627.751	27.32
627.942	27.54
628.132	27.7
628.323	27.9
628.514	28.03
628.704	27.6
628.895	27.52
629.085	27.51
629.276	27.14
629.466	27.19
629.657	27.09
629.847	27.44
630.038	27.56
630.228	27.39
630.419	27.23
630.609	26.8
630.8	26.76
630.99	27.13
631.181	27.28
631.371	27.83
631.561	27.58
631.752	27.97
631.942	27.38
632.132	27.36
632.323	27.64
632.513	27.67
632.703	27.91
632.893	27.66
633.084	27.13
633.274	27.15
633.464	26.55
633.654	26.43
633.844	26.01
634.034	26.21
634.225	26.09
634.415	25.74
634.605	25.59
634.795	25.66
634.985	26.02
635.175	26.2
635.365	25.96
635.555	26.14
635.745	26.17
635.935	26.21
636.125	26.23
636.315	26.22
636.505	26.34
636.695	26.39
636.885	26.39
637.075	26.24
637.265	26.32
637.455	26.68
637.644	26.45
637.834	26.7
638.024	27.06
638.214	26.84
638.404	26.71
638.593	26.51
638.783	26.73
638.973	26.5
639.163	26.49
639.352	26.72
639.542	26.74
639.732	26.76
639.921	26.92
640.111	26.78
640.301	27.02
640.49	26.98
640.68	27.41
640.87	27.36
641.059	27.62
641.249	27.75
641.438	27.6
641.628	27.13
641.817	27.37
642.007	27.02
642.196	27.23
642.386	27.42
642.575	27.44
642.764	27.35
642.954	27.2
643.143	27.11
643.333	27.08
643.522	26.61
643.711	26.89
643.901	26.93
644.09	27.12
644.279	26.64
644.469	26.56
644.658	26.79
644.847	26.46
645.036	26.24
645.226	25.96
645.415	25.89
645.604	26.03
645.793	26.26
645.982	26.39
646.171	26.09
646.361	26.36
646.55	26.64
646.739	26.56
646.928	27.24
647.117	27.42
647.306	27.33
647.495	27.62
647.684	27.33
647.873	27.04
648.062	27.37
648.251	27.81
648.44	27.47
648.629	27.17
648.818	27.01
649.007	26.15
649.196	26.25
649.384	26.72
649.573	26.45
649.762	26.88
649.951	26.86
650.14	26.16
650.328	26.04
650.517	26.23
650.706	26.45
650.895	26.43
651.083	26.79
651.272	26.82
651.461	26.82
651.65	26.92
651.838	26.91
652.027	27
652.216	27.14
652.404	27.31
652.593	27.58
652.781	27.78
652.97	28
653.158	28
653.347	27.96
653.535	27.74
653.724	28
653.912	27.88
654.101	27.39
654.289	27.85
654.478	27.72
654.666	27.39
654.855	26.78
655.043	26.55
655.231	26.54
655.42	26.52
655.608	26.35
655.796	26.26
655.985	26.4
656.173	26.91
656.361	26.44
656.55	26.52
656.738	26.65
656.926	26.99
657.114	27.15
657.302	27.5
657.491	27.51
657.679	27.79
657.867	28.13
658.055	28.16
658.243	28.45
658.431	28.27
658.619	28.26
658.807	28.34
658.996	27.86
659.184	28
659.372	28.01
659.56	27.97
659.748	28.19
659.936	28.16
660.124	28.19
660.311	28.09
660.499	28.61
660.687	28.72
660.875	28.71
661.063	29.25
661.251	29.21
661.439	28.99
661.627	29.14
661.814	28.83
662.002	28.58
662.19	28.79
662.378	28.47
662.565	28.08
662.753	28.23
662.941	28.13
663.129	28.13
663.316	28.04
663.504	28.17
663.692	27.96
663.879	28.34
664.067	28.21
664.254	28.44
664.442	28.74
664.63	28.56
664.817	27.91
665.005	28.07
665.192	27.66
665.38	27.95
665.567	27.71
665.755	27.77
665.942	27.16
666.13	27.23
666.317	27.12
666.504	27.38
666.692	27.74
666.879	27.95
667.067	27.98
667.254	28.13
667.441	27.53
667.629	27.68
667.816	27.64
668.003	27.8
668.19	27.21
668.378	26.95
668.565	26.6
668.752	26.55
668.939	26.79
669.127	26.64
669.314	27.24
669.501	27.7
669.688	27.23
669.875	27.19
670.062	27.12
670.249	27.72
670.436	27.69
670.623	27.78
670.81	27.81
670.997	28
671.184	28.03
671.371	27.59
671.558	26.86
671.745	27.66
671.932	27.42
672.119	27.95
672.306	28.13
672.493	28.12
672.68	27.66
672.867	27.51
673.054	27.18
673.24	26.68
673.427	26.22
673.614	26.64
673.801	26.45
673.988	26.99
674.174	27.02
674.361	26.71
674.548	26.9
674.734	27.74
674.921	27.92
675.108	27.85
675.294	28.69
675.481	29.14
675.668	29.53
675.854	29.38
676.041	29.29
676.227	29.08
676.414	28.86
676.601	28.55
676.787	28.04
676.974	28.12
677.16	28.28
677.347	28.19
677.533	28.31
677.719	28.4
677.906	28.34
678.092	28.11
678.279	27.91
678.465	28.11
678.651	28.61
678.838	28.77
679.024	28.82
679.21	28.33
679.397	27.78
679.583	27.47
679.769	27.37
679.955	27.73
680.142	27.76
680.328	27.62
680.514	27.41
680.7	27.23
680.886	27.22
681.073	27.26
681.259	27.47
681.445	27.72
681.631	27.98
681.817	27.68
682.003	27.54
682.189	28.18
682.375	28.69
682.561	28.86
682.747	28.79
682.933	28.65
683.119	28.19
683.305	28
683.491	28.38
683.677	28.43
683.863	29.01
684.049	29.25
684.235	28.61
684.42	28.71
684.606	28.55
684.792	28.33
684.978	28.28
685.164	28.22
685.349	28.75
685.535	28.1
685.721	28.09
685.907	27.81
686.092	27.5
686.278	28.26
686.464	28.22
686.649	28.45
686.835	28.32
687.021	28.59
687.206	29.01
687.392	28.16
687.577	28.96
687.763	28.78
687.948	28.85
688.134	28.52
688.319	27.69
688.505	27.32
688.69	27.49
688.876	28
689.061	27.84
689.247	28.03
689.432	28.52
689.618	28.13
689.803	28.15
689.988	28.68
690.174	29.31
690.359	29.76
690.544	29.91
690.73	30.04
690.915	29.78
691.1	30.03
691.285	29.68
691.471	30.1
691.656	30.57
691.841	31.3
692.026	30.5
692.211	30.19
692.396	29.61
692.582	29.63
692.767	29.92
692.952	30.43
693.137	30.54
693.322	30.5
693.507	30.2
693.692	29.64
693.877	28.95
694.062	28.9
694.247	29.07
694.432	29.92
694.617	29.77
694.802	29.22
694.987	28.38
695.172	28.66
695.357	28.86
695.541	28.72
695.726	28.79
695.911	28.45
696.096	29
696.281	29.2
696.466	29.15
696.65	29.24
696.835	29.39
697.02	29.52
697.204	28.84
697.389	29.09
697.574	29.23
697.759	29.25
697.943	29.49
698.128	29.42
698.312	29.54
698.497	29.3
698.682	29.13
698.866	29.36
699.051	29.66
699.235	29.72
699.42	29.85
699.604	29.64
699.789	29.83
699.973	30
700.158	29.79
700.342	29.85
700.527	29.8
700.711	29.75
700.895	29.47
701.08	29.25
701.264	29.05
701.448	28.92
701.633	29.3
701.817	29.11
702.001	29.05
702.186	29.33
702.37	28.61
702.554	28.76
702.738	29.42
702.923	29.52
703.107	29.57
703.291	29.72
703.475	30.01
703.659	29.69
703.843	29.97
704.027	29.28
704.212	28.9
704.396	29.09
704.58	28.56
704.764	28.08
704.948	28.58
705.132	28.98
705.316	29.23
705.5	29.13
705.684	28.93
705.868	28.81
706.052	29.1
706.235	29.12
706.419	30.06
706.603	30.15
706.787	31.03
706.971	29.91
707.155	29.88
707.339	29.76
707.522	29.82
707.706	30.36
707.89	30.05
708.074	30.31
708.257	30.15
708.441	29.26
708.625	29.35
708.808	28.96
708.992	29.28
709.176	28.83
709.359	29.43
709.543	28.93
709.727	28.87
709.91	29.06
710.094	29.71
710.277	29.68
710.461	29.99
710.644	30.45
710.828	29.83
711.011	30.23
711.195	30.56
711.378	30.53
711.562	30.22
711.745	30.36
711.928	30.26
712.112	30.08
712.295	29.92
712.478	30.33
712.662	30.23
712.845	30.37
713.028	30.81
713.212	30.48
713.395	29.73
713.578	30
713.761	29.17
713.945	29.49
714.128	29.66
714.311	29.89
714.494	29.42
714.677	29.28
714.86	29.03
715.043	28.97
715.227	29.14
715.41	29.38
715.593	29.04
715.776	30.05
715.959	29.76
716.142	29.27
716.325	29.49
716.508	29.06
716.691	29.73
716.874	29.9
717.057	28.95
717.239	29.19
717.422	29.53
717.605	29.08
717.788	28.36
717.971	28.54
718.154	28.53
718.337	28.93
718.519	29.24
718.702	27.95
718.885	28.18
719.068	28.68
719.25	28.1
719.433	28.54
719.616	29.42
719.798	30.07
719.981	29.93
720.164	29.63
720.346	28.58
720.529	28.57
720.712	28.97
720.894	28.89
721.077	28.06
721.259	28.57
721.442	28.19
721.624	28.14
721.807	28.51
721.989	28.08
722.172	28.52
722.354	29.24
722.537	29.48
722.719	29.37
722.901	28.96
723.084	29.1
723.266	28.8
723.448	29.28
723.631	28.61
723.813	27.24
723.995	28.74
724.178	29.2
724.36	28.89
724.542	28.64
724.724	28.35
724.907	28.28
725.089	27.91
725.271	27.04
725.453	26.24
725.635	27.96
725.817	28.39
725.999	26.93
726.181	26.79
726.364	25.79
726.546	25.52
726.728	25.86
726.91	26.84
727.092	28.05
727.274	28.47
727.456	28.9
727.638	28.17
727.819	28.07
728.001	28.22
728.183	27.78
728.365	28.39
728.547	28.43
728.729	28.75
728.911	28.82
729.093	28.87
729.274	28.94
729.456	29.03
729.638	29.71
729.82	30
730.001	29.44
730.183	29.15
730.365	29.87
730.546	30.27
730.728	30.58
730.91	30.23
731.091	30.14
731.273	30.01
731.455	29.57
731.636	28.36
731.818	27.79
731.999	28.18
732.181	29.16
732.362	29.05
732.544	28.61
732.725	28.48
732.907	27.95
733.088	27.16
733.27	27.73
733.451	27.32
733.633	28.07
733.814	29.31
733.995	29.95
734.177	29.12
734.358	29.33
734.539	28.7
734.721	28.92
734.902	29.36
735.083	29.55
735.264	30.1
735.446	30.07
735.627	29.62
735.808	28.57
735.989	27.42
736.17	27.66
736.351	27.13
736.533	26.97
736.714	26.25
736.895	26.21
737.076	27.16
737.257	26.08
737.438	25.83
737.619	26.37
737.8	25.88
737.981	27.51
738.162	26.77
738.343	27.17
738.524	27.79
738.705	26.58
738.886	26.94
739.067	25.38
739.247	25.52
739.428	26.29
739.609	25.64
739.79	27.25
739.971	26.7
740.151	27.28
740.332	26.27
740.513	26.87
740.694	28.12
740.874	26.75
741.055	27.39
741.236	27.64
741.417	28.83
741.597	28.77
741.778	28.4
741.958	28.47
742.139	28.87
742.32	30.14
742.5	30.44
742.681	31.21
742.861	31.69
743.042	32.51
743.222	31.34
743.403	30.3
743.583	30.68
743.764	30.35
743.944	30.17
744.124	30.84
744.305	30.93
744.485	29.45
744.666	28.31
744.846	28.73
745.026	28.13
745.207	28.64
745.387	28.72
745.567	28.78
745.747	27.73
745.928	27.43
746.108	26.96
746.288	26.48
746.468	28.03
746.648	29.36
746.829	29.55
747.009	29.43
747.189	30.51
747.369	28.71
747.549	29.02
747.729	29.86
747.909	30.06
748.089	29.82
748.269	30.05
748.449	28.81
748.629	29.39
748.809	30.13
748.989	30.71
749.169	30.73
749.349	30.85
749.529	30.06
749.709	29.19
749.889	29.1
750.068	28.64
750.248	27.69
750.428	27.7
750.608	26.28
750.788	25.48
750.967	25.53
751.147	25.04
751.327	26.61
751.507	26.98
751.686	28.02
751.866	28.92
752.046	29.84
752.225	32.18
752.405	32.31
752.585	32.97
752.764	33.18
752.944	32.66
753.123	32.45
753.303	31.5
753.482	30.48
753.662	30.6
753.841	30.3
754.021	30
754.2	28.38
754.38	28.11
754.559	27.72
754.739	27.77
754.918	26.81
755.097	27.25
755.277	26.61
755.456	27.92
755.635	27.28
755.815	27.01
755.994	25.64
756.173	26.43
756.352	27.32
756.532	27.74
756.711	27.03
756.89	27.8
757.069	28.16
757.248	28.93
757.427	28.63
757.607	28.72
757.786	28.26
757.965	29.38
758.144	28.73
758.323	28.55
758.502	28.31
758.681	28.07
758.86	29.08
759.039	29.56
759.218	30.62
759.397	31.36
759.576	30.86
759.755	30.47
759.934	31.43
760.113	31.92
760.291	32.18
760.47	32.87
760.649	33.86
760.828	31.98
761.007	31.09
761.186	30.88
761.364	29.87
761.543	31.24
761.722	30.94
761.901	30.27
762.079	30.54
762.258	30.67
762.437	30.88
762.615	30.07
762.794	31.26
762.972	31.45
763.151	31.22
763.33	31.87
763.508	31.75
763.687	32.75
763.865	32.35
764.044	31.83
764.222	31.49
764.401	30.54
764.579	31
764.758	30.99
764.936	30.21
765.114	29.65
765.293	29.49
765.471	28.72
765.65	28.16
765.828	28.26
766.006	28.52
766.184	28.33
766.363	28.27
766.541	27.93
766.719	27.78
766.898	28.11
767.076	29.49
767.254	29.33
767.432	29.34
767.61	29.98
767.788	29.84
767.967	28.55
768.145	29.63
768.323	29.57
768.501	30.69
768.679	30.56
768.857	30.36
769.035	28.46
769.213	28.7
769.391	27.51
769.569	26.43
769.747	25.49
769.925	26
770.103	23.81
770.281	24.9
770.459	22.9
770.636	22.72
770.814	24.25
770.992	24.24
771.17	24.46
771.348	25.49
771.525	24.69
771.703	25.12
771.881	25.38
772.059	25.29
772.236	24.78
772.414	26.58
772.592	25.76
772.769	24.8
772.947	25.67
773.125	24.11
773.302	23.14
773.48	25.37
773.657	28.03
773.835	28.49
774.013	31.48
774.19	31.2
774.368	29.8
774.545	29.97
774.723	30.66
774.9	29.27
775.077	29.22
775.255	31.75
775.432	29.71
775.61	28.47
775.787	29.44
775.964	27.26
776.142	28.31
776.319	27.98
776.496	28.07
776.674	28.35
776.851	29.04
777.028	29.76
777.205	28.76
777.382	30.33
777.56	29.06
777.737	26.9
777.914	26.51
778.091	25.36
778.268	24.96
778.445	24.2
778.622	23.71
778.8	24.63
778.977	27.27
779.154	20.3
779.331	17.89
779.508	17.93
779.685	19.67
779.862	21.18
780.038	22.15
780.215	21.41
780.392	23.71
780.569	23.31
780.746	21.23
780.923	17.75
781.1	25.56
781.277	27.88
781.453	28.01
781.63	26.9
781.807	25.16
781.984	23.99
782.16	25.63
782.337	23.96
782.514	22.66
782.691	26.36
782.867	27.42
783.044	25.53
783.221	26.32
783.397	25.91
783.574	27.39
783.75	29.35
783.927	29.7
784.103	29.06
784.28	29.34
784.456	30.07
784.633	29.6
784.809	30.61
784.986	32.09
785.162	30.59
785.339	29.42
785.515	26.75
785.692	28.6
785.868	29.18
786.044	29.67
786.221	29.03
786.397	29.85
786.573	26.97
786.749	26.26
786.926	28.12
787.102	29.25
787.278	32.24
787.454	35.28
787.631	32.03
787.807	32.52
787.983	34.09
788.159	36.92
788.335	35.11
788.511	36.39
788.687	35.28
788.863	34.37
789.039	33.43
789.216	32.92
789.392	31.39
789.568	30.71
789.744	30.3
789.919	28.65
790.095	25.93
790.271	27.78
790.447	27.25
790.623	28.04
790.799	28.24
790.975	28.97
791.151	28.74
791.327	28.17
791.502	29.22
791.678	29.91
791.854	29.39
792.03	31.04
792.205	30.66
792.381	31.48
792.557	31.22
792.733	31.4
792.908	32.14
793.084	32.52
793.259	32.5
793.435	30.38
793.611	28.98
793.786	29.35
793.962	27
794.137	27.81
794.313	24.61
794.488	23.07
794.664	25.14
794.839	22.8
795.015	21.11
795.19	21.99
795.366	26.44
795.541	26.91
795.716	26.23
795.892	29.28
796.067	27.21
796.242	29.96
796.418	30.63
796.593	27.27
796.768	25.11
796.944	23.83
797.119	24.13
797.294	22.67
797.469	23.04
797.644	22.97
797.82	19.79
797.995	20.1
798.17	20.74
798.345	21.11
798.52	22.7
798.695	25.79
798.87	29.44
799.045	28.21
799.22	28.14
799.395	26.54
799.57	27.06
799.745	29.45
799.92	29.92
800.095	30.37
800.27	28.93
800.445	28.34
800.62	28.17
800.795	24.39
800.97	26.24
801.145	26.29
801.319	26.85
801.494	28.6
801.669	28.34
801.844	27.19
802.018	25.28
802.193	26.92
802.368	29.14
802.543	28.2
802.717	28.15
802.892	28.57
803.067	28.57
803.241	29.25
803.416	27.98
803.59	25.59
803.765	25.04
803.94	26
804.114	26.52
804.289	23.57
804.463	24.72
804.638	27.22
804.812	24.75
804.986	21.72
805.161	22.54
805.335	22.25
805.51	24.49
805.684	24.84
805.858	24.71
806.033	23.22
806.207	23.5
806.381	20.65
806.556	20.83
806.73	20.72
806.904	20.85
807.078	19.4
807.253	20.84
807.427	17.7
807.601	18.24
807.775	16.58
807.949	19.66
808.123	20.63
808.298	20.93
808.472	18.91
808.646	19.69
808.82	21.68
808.994	21.98
809.168	20.69
809.342	26.21
809.516	27.68
809.69	26.71
809.864	24.87
810.038	21.85
810.212	23.2
810.385	24.39
810.559	24.45
810.733	23.61
810.907	25.08
811.081	26.19
811.255	22.4
811.428	20.51
811.602	21.43
811.776	22.4
811.95	22.36
812.123	26.38
812.297	27.37
812.471	27.35
812.644	29.41
812.818	28.31
812.992	22.93
813.165	24.7
813.339	28.23
813.512	33.77
813.686	32.35
813.86	34.94
814.033	29.67
814.207	30.2
814.38	32.04
814.554	31.91
814.727	31.75
814.9	34.79
815.074	33.6
815.247	30.93
815.421	27.94
815.594	24.79
815.767	25.09
815.941	25.36
816.114	22.87
816.287	24.16
816.46	20.88
816.634	21.54
816.807	23.74
816.98	26.23
817.153	25.27
817.327	22.42
817.5	29.59
817.673	26.91
817.846	28.87
818.019	32.39
818.192	30.33
818.365	33.57
818.538	32.14
818.711	31.82
818.884	30.53
819.057	30.1
819.23	28.71
819.403	26.36
819.576	29.34
819.749	29.31
819.922	25.6
820.095	23.05
820.268	22.03
820.441	24.64
820.614	25.47
820.786	26.16
820.959	29.27
821.132	31.23
821.305	29.65
821.477	29.39
821.65	29.63
821.823	31.15
821.996	32.46
822.168	32.05
822.341	32.75
822.514	32.69
822.686	32.76
822.859	31.46
823.031	31.99
823.204	32.08
823.376	32
823.549	31.71
823.722	31.45
823.894	31.28
824.067	31.12
824.239	30.08
824.411	29.99
824.584	29.7
824.756	30.49
824.929	30.07
825.101	29.86
825.273	29.83
825.446	30.36
825.618	30.4
825.79	30.26
825.963	30.46
826.135	30.52
826.307	31.16
826.479	31.31
826.652	30.44
826.824	30.85
826.996	31.2
827.168	32
827.34	31.2
827.512	31.35
827.684	32.01
827.856	33.25
828.029	33.78
828.201	33.37
828.373	32.43
828.545	33.14
828.717	34.11
828.889	35.94
829.061	35.62
829.232	34.74
829.404	34.57
829.576	32.82
829.748	32.59
829.92	31.33
830.092	30.21
830.264	31.15
830.436	32.1
830.607	30.28
830.779	28.9
830.951	26.68
831.123	28.17
831.294	28.07
831.466	29.14
831.638	26.13
831.809	27.49
831.981	27.79
832.153	28.93
832.324	25.6
832.496	24.62
832.667	22.5
832.839	26.07
833.011	25.44
833.182	27.01
833.354	30.13
833.525	30.63
833.697	30.62
833.868	30.81
834.039	29.65
834.211	31.87
834.382	31.14
834.554	31.57
834.725	30.76
834.896	32.65
835.068	31.06
835.239	27.98
835.41	31.12
835.581	30.67
835.753	30.23
835.924	30.81
836.095	30.75
836.266	32.23
836.438	32.67
836.609	33.21
836.78	31.6
836.951	30.63
837.122	34.14
837.293	32.11
837.464	32.22
837.635	34.06
837.806	34.54
837.977	33.76
838.148	34.15
838.319	34.86
838.49	33.37
838.661	35.94
838.832	39.09
839.003	37.99
839.174	35.29
839.345	35.47
839.516	33.11
839.687	29.81
839.857	28.93
840.028	23.5
840.199	23.38
840.37	23.03
840.54	20.64
840.711	18.85
840.882	16.79
841.053	12.72
841.223	10.75
841.394	11.74
841.564	15.01
841.735	16.42
841.906	11.64
842.076	8.79
842.247	4.09
842.417	4.2
842.588	1.23
842.758	0.1
842.929	7.5
843.099	8.14
843.27	5.92
843.44	3.13
843.611	2.62
843.781	13.53
843.951	20.35
844.122	23.03
844.292	22.35
844.462	23.59
844.633	23.35
844.803	19.8
844.973	21.97
845.144	24.31
845.314	21.58
845.484	24.87
845.654	17.77
845.824	7.95
845.995	12.69
846.165	7.87
846.335	10.53
846.505	5.53
846.675	7.52
846.845	10.69
847.015	0.81
847.185	22.95
847.355	15.71
847.525	10.34
847.695	7.89
847.865	10.64
848.035	11.22
848.205	4.19
848.375	9.69
848.545	3.15
848.715	14.36
848.884	24.91
849.054	-1.88
849.224	2.77
849.394	16.04
849.564	12.26
849.733	9.9
849.903	15.11
850.073	19.47
850.243	27.55
850.412	35.94
850.582	15.45
850.752	3.24
850.921	12.21
851.091	12.11
851.26	7.85
851.43	-3.56
851.599	-3.72
851.769	-20.25
851.939	-12.69
852.108	-20.85
852.278	-7.69
852.447	-5.03
852.616	18.78
852.786	25.92
852.955	28.46
853.125	17.59
853.294	29.84
853.463	32.77
853.633	29.66
853.802	32.93
853.971	38.43
854.141	33.6
854.31	34.61
854.479	31.17
854.648	31.22
854.818	18.97
854.987	30.56
855.156	29.62
855.325	25.48
855.494	35.9
855.663	33.5
855.832	25.34
856.001	23.62
856.171	26.61
856.34	16
856.509	15.59
856.678	19.74
856.847	9.4
857.016	26.65
857.185	38.79
857.353	49.62
857.522	41.93
857.691	39.95
857.86	39.85
858.029	40.26
858.198	35.41
858.367	34.25
858.535	33.83
858.704	42.01
858.873	22.31
859.042	-14.3
859.21	-52.18
859.379	-46.22
859.548	-66.46
859.717	-76.9
859.885	-55.91
860.054	-45.85
860.222	-35.72
860.391	-18.13
860.56	-46.17
860.728	-35.28
860.897	-4.65
861.065	-5.96
861.234	2.93
861.402	20.32
861.571	23.66
861.739	7.49
861.908	4.37
862.076	1.8
862.244	8.23
862.413	15.05
862.581	14.93
862.749	8.85
862.918	16.18
863.086	13.4
863.254	-2.38
863.423	-17.56
863.591	3.51
863.759	-14.64
863.927	-7.2
864.096	-31.26
864.264	-79.34
864.432	-56.35
864.6	-62.03
864.768	-39.53
864.936	-18.68
865.104	-16.48
865.272	-23.86
865.44	-21.8
865.608	-9.22
865.776	-35.55
865.944	-30.82
866.112	-15.74
866.28	-0.21
866.448	10.46
866.616	-1.29
866.784	-24.79
866.952	-30.99
867.12	-31.21
867.288	-29.26
867.455	-19.83
867.623	-28.44
867.791	-21.54
867.959	-44.34
868.127	-88.84
868.294	-81.66
868.462	-53.37
868.63	-28.03
868.797	-18.85
868.965	-20.08
869.133	-33.11
869.3	-19.72
869.468	-0.36
869.636	-7.43
869.803	14.26
869.971	22.15
870.138	12.53
870.306	11.9
870.473	11.17
870.641	3.75
870.808	11.6
870.975	11.73
871.143	-12.42
871.31	-38.42
871.478	-36.87
871.645	-60.28
871.812	-71.04
871.98	-45.58
872.147	-50.93
872.314	-49.19
872.482	-25.47
872.649	-28.48
872.816	-5.68
872.983	4.98
873.15	19.49
873.318	25.1
873.485	28.87
873.652	31.58
873.819	32.35
873.986	30.93
874.153	40.32
874.32	24.98
874.487	20.94
874.654	16.73
874.821	5.52
874.988	10.72
875.155	22.3
875.322	26.9
875.489	22.01
875.656	17.68
875.823	24.89
875.99	20.38
876.157	33.07
876.324	38.89
876.49	37.23
876.657	41.47
876.824	45.08
876.991	18.51
877.157	31.35
877.324	38.86
877.491	44.33
877.658	35.15
877.824	40.98
877.991	43.93
878.157	47.07
878.324	41.36
878.491	43.32
878.657	41.54
878.824	76.12
878.99	65.04
879.157	62.71
879.323	50.48
879.49	50.73
879.656	46.74
879.823	45.21
879.989	39.52
880.156	34.12
880.322	36.58
880.488	32.13
880.655	28.19
880.821	23.31
880.987	27.05
881.154	23.2
881.32	24.97
881.486	23.64
881.652	22.22
881.819	23.61
881.985	25.72
882.151	24.7
882.317	25.19
882.483	27.28
882.649	29.32
882.816	28.02
882.982	27.73
883.148	26.01
883.314	25.46
883.48	26.53
883.646	25.83
883.812	27.09
883.978	26.9
884.144	27.41
884.31	25.28
884.476	24.75
884.642	26.02
884.807	26
884.973	25.92
885.139	25.49
885.305	25.11
885.471	26.66
885.637	26.46
885.802	24.69
885.968	23.95
886.134	25.14
886.3	26.28
886.465	23.4
886.631	23.82
886.797	25.4
886.962	26.19
887.128	25.46
887.293	23.26
887.459	19.94
887.625	25.5
887.79	21.7
887.956	22.04
888.121	18.23
888.287	19.04
888.452	20.94
888.618	16.19
888.783	13.76
