Data from CB_009_Reflection_3.txt Node
Date: Wed Nov 11 18:39:52 EST 2015
User: robert
Spectrometer: USB4E03001
Autoset integration time: false
Trigger mode: 4
Integration Time (sec): 1.000000E-1
Scans to average: 15
Electric dark correction enabled: true
Nonlinearity correction enabled: false
Boxcar width: 5
Stray light correction enabled: false
XAxis mode: Wavelengths
Stop averaging: false
Number of Pixels in Spectrum: 3648
>>>>>Begin Spectral Data<<<<<
177.566	211.18
177.785	645.25
178.005	181.03
178.225	1749.67
178.445	-202.77
178.665	-174.69
178.885	94.53
179.105	20.92
179.324	58.75
179.544	66.47
179.764	103.72
179.984	221.82
180.204	-234.59
180.423	207.61
180.643	437.02
180.863	-722.38
181.083	-1809.09
181.302	-196.83
181.522	577.54
181.742	93.34
181.961	12.19
182.181	27.1
182.401	52.43
182.621	-11.14
182.84	68.62
183.06	52.77
183.279	56.64
183.499	73.7
183.719	224.13
183.938	133.61
184.158	-31.39
184.377	-511.28
184.597	-126.88
184.816	-56.87
185.036	-83.37
185.256	3.4
185.475	139.98
185.695	-1757.47
185.914	94.94
186.134	51.23
186.353	116.92
186.572	197.62
186.792	90.96
187.011	63.76
187.231	94.16
187.45	173.84
187.67	151.58
187.889	1940.19
188.108	541.53
188.328	988.4
188.547	-704.98
188.766	-609.76
188.986	247.09
189.205	-12268.18
189.424	387.75
189.644	651.24
189.863	104.55
190.082	142.26
190.302	63.42
190.521	34.48
190.74	22.26
190.959	21.22
191.178	41.35
191.398	46.03
191.617	30.72
191.836	21.35
192.055	42.15
192.274	20.49
192.494	10.31
192.713	45.1
192.932	46.19
193.151	58.44
193.37	92.57
193.589	72.79
193.808	66.15
194.027	84.38
194.246	93.69
194.465	72.29
194.685	52.53
194.904	51.12
195.123	-31.77
195.342	-505.38
195.561	-13.87
195.78	-49.52
195.999	-45.87
196.218	-781.77
196.436	504.75
196.655	1492.51
196.874	-436.54
197.093	-221.33
197.312	-224.52
197.531	102.24
197.75	79.44
197.969	80.54
198.188	71.12
198.407	117.06
198.625	136
198.844	102.55
199.063	77.46
199.282	60.71
199.501	77.3
199.719	109.34
199.938	905.86
200.157	-10.23
200.376	-22.14
200.594	-103.45
200.813	-4851.43
201.032	575.82
201.251	204.48
201.469	190.25
201.688	207.83
201.907	232.38
202.125	186.68
202.344	150.46
202.563	158.17
202.781	148.5
203	113.45
203.218	62.94
203.437	49.52
203.656	15.94
203.874	35.13
204.093	7.77
204.311	-8.25
204.53	-4.2
204.748	-84.87
204.967	-136.91
205.185	-69.86
205.404	-13.76
205.622	-17.54
205.841	-14.32
206.059	-15.98
206.278	-6.3
206.496	-10.09
206.715	51.84
206.933	21.94
207.151	70.69
207.37	53.79
207.588	101.56
207.806	76.48
208.025	-94.27
208.243	-227.47
208.461	-73.52
208.68	-83.92
208.898	-68.3
209.116	-158.02
209.335	-77.64
209.553	684.16
209.771	-127.15
209.989	3178.7
210.208	2318.39
210.426	520.44
210.644	183.24
210.862	130.06
211.081	164.8
211.299	173.42
211.517	202.88
211.735	159.51
211.953	199.04
212.171	180.86
212.39	639.04
212.608	875.39
212.826	76.31
213.044	98.6
213.262	40.1
213.48	21.73
213.698	-40.14
213.916	535.39
214.134	321.37
214.352	300.65
214.57	-16.45
214.788	30.29
215.006	0.69
215.224	-1.85
215.442	-38.99
215.66	8.28
215.878	43.12
216.096	69.27
216.314	53.63
216.532	62.14
216.75	57.29
216.968	65.36
217.185	82.55
217.403	114.57
217.621	101.01
217.839	165.33
218.057	2205.53
218.275	-626.51
218.492	-28.57
218.71	-19.91
218.928	-30.32
219.146	-10.42
219.363	10.53
219.581	-34.42
219.799	-14.23
220.017	-11.84
220.234	-4.75
220.452	-24.44
220.67	-21.37
220.887	-56.77
221.105	-24.26
221.323	-2.64
221.54	27.99
221.758	23.34
221.976	36.52
222.193	40.31
222.411	-3.53
222.629	-32.06
222.846	-6.11
223.064	30.74
223.281	34.16
223.499	0.53
223.716	-40.64
223.934	-241.23
224.151	-383.29
224.369	-190.57
224.586	134100
224.804	-377.96
225.021	-119.03
225.239	-61.74
225.456	-98.93
225.674	-147.92
225.891	-10.97
226.108	-23.54
226.326	-1.72
226.543	-17.12
226.76	-19.95
226.978	-8.75
227.195	-7.56
227.413	-8.89
227.63	-14.25
227.847	-18.18
228.064	-7.54
228.282	-5.94
228.499	-0.8
228.716	1.29
228.934	2.49
229.151	3.54
229.368	5.9
229.585	6.16
229.802	8.79
230.02	11.01
230.237	12.12
230.454	12.04
230.671	12.06
230.888	11.74
231.105	9.14
231.323	14.44
231.54	16.35
231.757	7.55
231.974	5.75
232.191	-1.73
232.408	-5.89
232.625	-5.89
232.842	-12.1
233.059	-9.89
233.276	-2.84
233.493	-3.92
233.71	-5.55
233.927	-7.99
234.144	4.68
234.361	7.28
234.578	9.49
234.795	13.38
235.012	11
235.229	15.71
235.446	9.69
235.663	2.12
235.879	7.31
236.096	6.42
236.313	4.72
236.53	-2.5
236.747	1.18
236.964	1.95
237.181	-3.65
237.397	7.2
237.614	7.34
237.831	9.88
238.048	8.03
238.264	5.24
238.481	-0.28
238.698	0.2
238.915	-1.65
239.131	-9.44
239.348	-15.27
239.565	-15.97
239.781	-22.14
239.998	-18.94
240.215	-12.95
240.431	-7.87
240.648	-4.38
240.865	1.48
241.081	1.76
241.298	5.61
241.514	5.87
241.731	8.13
241.947	9.18
242.164	9.93
242.38	9.23
242.597	7.82
242.814	6.63
243.03	5.01
243.246	4.43
243.463	6.12
243.679	6.1
243.896	5.43
244.112	5.91
244.329	6.41
244.545	9.45
244.762	11.36
244.978	13.83
245.194	13.94
245.411	14.11
245.627	11.51
245.843	10.75
246.06	11.64
246.276	13.3
246.492	12.47
246.709	13.11
246.925	9.62
247.141	7.94
247.357	7.55
247.574	8.32
247.79	8.64
248.006	9.17
248.222	9.42
248.439	8.23
248.655	8.15
248.871	8.72
249.087	8.42
249.303	10.25
249.519	10.62
249.736	10.21
249.952	9.47
250.168	7.97
250.384	9.37
250.6	8.76
250.816	8.47
251.032	6.57
251.248	4.23
251.464	2.9
251.68	3.21
251.896	6.25
252.112	5.93
252.328	8.03
252.544	9.59
252.76	7.92
252.976	7.08
253.192	8.14
253.408	8.6
253.624	9.9
253.84	9.12
254.056	9.82
254.272	5.77
254.487	5.44
254.703	6.39
254.919	4.74
255.135	4.75
255.351	4.91
255.567	3.02
255.782	5.02
255.998	5.36
256.214	6.1
256.43	5.75
256.646	5.85
256.861	5.39
257.077	-0.91
257.293	-4
257.508	-1.38
257.724	-2.54
257.94	-1.23
258.155	-1.21
258.371	-0.85
258.587	0.07
258.802	-0.21
259.018	0.31
259.234	2.11
259.449	3.75
259.665	4.69
259.88	4.07
260.096	3.99
260.312	4.24
260.527	4.37
260.743	4.06
260.958	3.82
261.174	3.77
261.389	4.43
261.605	3.58
261.82	3.86
262.036	3.15
262.251	3.95
262.466	5.25
262.682	3.55
262.897	2.82
263.113	1.27
263.328	1.1
263.543	3.39
263.759	4.46
263.974	4.45
264.189	5.2
264.405	6.52
264.62	4.32
264.835	4.33
265.051	5.72
265.266	5.22
265.481	7.54
265.696	8.2
265.912	5.38
266.127	3.76
266.342	5.13
266.557	2.88
266.773	2.87
266.988	3.32
267.203	1.05
267.418	2.24
267.633	2.96
267.848	2.89
268.064	3.26
268.279	3.03
268.494	3.09
268.709	1.36
268.924	1.15
269.139	1.97
269.354	1.97
269.569	4.75
269.784	4.16
269.999	3.74
270.214	2.66
270.429	2.23
270.644	2.33
270.859	2.63
271.074	3.14
271.289	4.45
271.504	4.1
271.719	4.18
271.934	3.12
272.149	3.18
272.363	3.06
272.578	3.97
272.793	5.6
273.008	5.36
273.223	6.04
273.438	7.06
273.653	7.78
273.867	9.02
274.082	8.14
274.297	8.27
274.512	7.07
274.726	8.2
274.941	7.14
275.156	4.54
275.371	4.32
275.585	2.5
275.8	0.58
276.015	-2.38
276.229	-6.93
276.444	-4.62
276.659	-4.33
276.873	-4.7
277.088	-5.43
277.302	-4.77
277.517	-4.99
277.732	-5.09
277.946	-5.13
278.161	-5
278.375	-2.74
278.59	0.32
278.804	-0.93
279.019	-0.56
279.233	1.95
279.448	2.19
279.662	3.36
279.877	2.71
280.091	4.14
280.306	5.53
280.52	5.84
280.735	3.69
280.949	4.74
281.163	6
281.378	6.03
281.592	5.99
281.806	6.55
282.021	5.71
282.235	6.55
282.449	6.11
282.664	4.83
282.878	5.39
283.092	6.89
283.307	7.08
283.521	7.24
283.735	8.29
283.949	7.52
284.164	5.93
284.378	7.26
284.592	8.15
284.806	8.16
285.02	9.41
285.234	9.43
285.449	9.15
285.663	7.72
285.877	6.33
286.091	5.64
286.305	5.86
286.519	7.35
286.733	7.54
286.947	7.53
287.161	6.99
287.375	6.51
287.589	5.57
287.803	6.7
288.017	7.24
288.231	8.24
288.445	8.17
288.659	7.84
288.873	7.82
289.087	6.39
289.301	6.78
289.515	8.35
289.729	8.35
289.943	9.17
290.157	7.91
290.371	7.68
290.584	8.02
290.798	8.49
291.012	8.6
291.226	7.93
291.44	7.97
291.654	6.7
291.867	5.11
292.081	5.02
292.295	4.34
292.509	4.85
292.722	4.88
292.936	3.62
293.15	3.55
293.364	3.84
293.577	3.28
293.791	3.93
294.005	4.27
294.218	6.54
294.432	7.19
294.645	8.16
294.859	7.85
295.073	8.25
295.286	8.71
295.5	8.41
295.713	9.12
295.927	9.99
296.14	9.33
296.354	10.24
296.568	8.68
296.781	8.24
296.994	7.16
297.208	6.79
297.421	7.68
297.635	7.76
297.848	7.7
298.062	8.02
298.275	7.34
298.489	7.61
298.702	7.07
298.915	8.35
299.129	8.91
299.342	9.37
299.555	9.12
299.769	8.38
299.982	8.95
300.195	10.36
300.409	9.02
300.622	10.89
300.835	10.18
301.048	9.77
301.262	9.28
301.475	8.99
301.688	9.37
301.901	10.89
302.115	11.32
302.328	11.11
302.541	9.51
302.754	10.43
302.967	8.44
303.18	8.57
303.393	8.66
303.607	8.46
303.82	8.71
304.033	8.79
304.246	7.97
304.459	6.42
304.672	7.04
304.885	7.59
305.098	6.42
305.311	7.17
305.524	7.63
305.737	8.15
305.95	7.92
306.163	7.76
306.376	8.75
306.589	10.8
306.802	12.47
307.015	11.77
307.228	11.84
307.44	12.66
307.653	12.72
307.866	12.3
308.079	11.87
308.292	12.73
308.505	13.67
308.718	12.99
308.93	11.28
309.143	10.97
309.356	10.57
309.569	10.62
309.781	10.61
309.994	9.42
310.207	10.76
310.42	10.88
310.632	10.77
310.845	10.82
311.058	11.06
311.27	11.26
311.483	11.91
311.696	11.91
311.908	11.39
312.121	11.24
312.333	11.98
312.546	12.14
312.759	12.42
312.971	11.97
313.184	10.93
313.396	11.57
313.609	11.98
313.821	11.47
314.034	13.1
314.246	13.96
314.459	14.08
314.671	15.02
314.884	14.68
315.096	15.68
315.309	14.65
315.521	15.67
315.733	13.91
315.946	13.61
316.158	14.18
316.371	13.11
316.583	12.15
316.795	12.63
317.008	10.93
317.22	9.94
317.432	9
317.644	9.51
317.857	9.08
318.069	10.09
318.281	10.48
318.494	10.06
318.706	10.12
318.918	10.75
319.13	10.07
319.342	11.01
319.555	11.56
319.767	11.03
319.979	12.18
320.191	11.55
320.403	11.42
320.615	10.65
320.827	10.83
321.039	11.61
321.252	11.17
321.464	11.78
321.676	10.42
321.888	9.86
322.1	11.13
322.312	10.23
322.524	11.72
322.736	11.81
322.948	12.46
323.16	12.8
323.372	13.09
323.584	13.86
323.796	14.32
324.007	15.41
324.219	15.96
324.431	16.01
324.643	16.94
324.855	16.44
325.067	16.73
325.279	17.17
325.491	17.13
325.702	16.3
325.914	16.49
326.126	16.74
326.338	17.54
326.55	18.77
326.761	18.46
326.973	17.68
327.185	18.07
327.396	18.6
327.608	19.01
327.82	19.93
328.032	21.57
328.243	21.87
328.455	22.7
328.666	23.54
328.878	23.37
329.09	23.51
329.301	24.57
329.513	24.42
329.725	24.7
329.936	24.56
330.148	24.35
330.359	23.37
330.571	23.58
330.782	22.79
330.994	23.62
331.205	24.03
331.417	24.94
331.628	25.2
331.84	25.66
332.051	25.87
332.262	25.82
332.474	26.62
332.685	27.71
332.897	27.94
333.108	27.51
333.319	27.74
333.531	27.92
333.742	27.56
333.953	29.1
334.165	29.16
334.376	28.75
334.587	28.71
334.799	27.77
335.01	27.91
335.221	28.23
335.432	28.81
335.644	27.55
335.855	26.8
336.066	28.13
336.277	26.98
336.488	27.73
336.7	28.09
336.911	28.63
337.122	29.07
337.333	28.71
337.544	28.12
337.755	28.7
337.966	28.71
338.177	29.42
338.388	28.13
338.599	28.92
338.811	28.7
339.022	29.32
339.233	29.44
339.444	29.35
339.655	29.86
339.866	31.55
340.076	31.14
340.287	31.44
340.498	32.82
340.709	32.86
340.92	31.51
341.131	30.94
341.342	30.25
341.553	30.03
341.764	30.53
341.975	29.93
342.185	29.57
342.396	30.29
342.607	30.03
342.818	28.13
343.029	28.24
343.239	29.62
343.45	29.25
343.661	29.49
343.872	29.81
344.082	28.65
344.293	28.84
344.504	29.85
344.714	29.57
344.925	29.75
345.136	30.42
345.346	30.78
345.557	30.81
345.768	30.8
345.978	31.18
346.189	31.1
346.399	32.07
346.61	31.95
346.821	30.9
347.031	30.7
347.242	31.17
347.452	31.12
347.663	31.11
347.873	30.54
348.084	30.48
348.294	30.12
348.504	29.38
348.715	28.82
348.925	29.38
349.136	28.26
349.346	28.13
349.557	28.4
349.767	27.49
349.977	27.66
350.188	27.69
350.398	28.53
350.608	28.83
350.819	28.87
351.029	28.85
351.239	28.99
351.449	29.02
351.66	29.1
351.87	28.93
352.08	30.18
352.29	30.16
352.501	29.75
352.711	29.58
352.921	28.75
353.131	28.8
353.341	28.65
353.552	27.96
353.762	29.1
353.972	28.91
354.182	29.48
354.392	28.31
354.602	27.66
354.812	27.79
355.022	27.59
355.232	27.77
355.442	27.77
355.652	28.21
355.862	28.69
356.072	27.57
356.282	28.27
356.492	27.61
356.702	28.35
356.912	28.48
357.122	28.29
357.332	28.62
357.542	28.37
357.752	28.75
357.962	28.68
358.171	28.74
358.381	28.55
358.591	28.28
358.801	27.79
359.011	27.63
359.221	27.62
359.43	27.77
359.64	27.93
359.85	28.64
360.06	28.76
360.269	29.07
360.479	28.52
360.689	29.24
360.899	29.32
361.108	29.89
361.318	29.49
361.528	29.44
361.737	29.11
361.947	28.34
362.156	27.96
362.366	28.12
362.576	27.23
362.785	27.07
362.995	26.86
363.204	26.28
363.414	25.64
363.623	25.76
363.833	26.18
364.042	26.4
364.252	26.86
364.461	27.25
364.671	26.65
364.88	26.73
365.09	26.61
365.299	26.09
365.509	25.86
365.718	26.25
365.927	25.76
366.137	24.9
366.346	24.42
366.555	23.81
366.765	23.22
366.974	23.7
367.183	24.29
367.393	24.72
367.602	24.89
367.811	24.36
368.021	23.58
368.23	23.74
368.439	24.13
368.648	24.7
368.857	25.16
369.067	24.84
369.276	24.32
369.485	24.19
369.694	24.12
369.903	23.78
370.112	24.34
370.321	24.21
370.531	24.03
370.74	23.47
370.949	22.72
371.158	22.42
371.367	22.33
371.576	22.15
371.785	21.95
371.994	22.1
372.203	22.41
372.412	22.52
372.621	23.21
372.83	23.52
373.039	24.19
373.248	24.86
373.457	24.54
373.666	24.73
373.874	24.99
374.083	25.19
374.292	24.46
374.501	24.57
374.71	24.05
374.919	23.98
375.128	23.79
375.336	23.07
375.545	21.91
375.754	21.97
375.963	21.73
376.171	21.49
376.38	21.26
376.589	21.38
376.798	21.4
377.006	21.23
377.215	20.89
377.424	20.56
377.632	20.62
377.841	20.92
378.05	20.53
378.258	20.46
378.467	20.01
378.675	19.34
378.884	19.22
379.093	18.51
379.301	18.85
379.51	18.9
379.718	18.76
379.927	18.3
380.135	18.36
380.344	18.42
380.552	18.33
380.761	18.12
380.969	18.34
381.177	18.53
381.386	18.56
381.594	18.33
381.803	17.81
382.011	18.17
382.219	18.58
382.428	18.6
382.636	18.95
382.845	18.69
383.053	18.83
383.261	18.5
383.469	18.31
383.678	18.1
383.886	18.11
384.094	17.97
384.302	17.81
384.511	17.52
384.719	17.32
384.927	17.32
385.135	17.43
385.343	17.16
385.552	17.59
385.76	17.09
385.968	17.36
386.176	17.08
386.384	16.7
386.592	16.59
386.8	16.47
387.008	16.1
387.216	15.84
387.424	15.88
387.633	16.11
387.841	15.85
388.049	15.57
388.257	15.48
388.465	15.31
388.672	15.42
388.88	15.2
389.088	15.24
389.296	15.34
389.504	15.31
389.712	15.04
389.92	14.84
390.128	14.64
390.336	14.84
390.544	14.56
390.751	14.64
390.959	14.4
391.167	14.59
391.375	14.42
391.583	14.35
391.79	13.86
391.998	13.97
392.206	13.78
392.414	13.81
392.621	13.84
392.829	13.9
393.037	13.6
393.244	13.71
393.452	13.52
393.66	13.21
393.867	13.07
394.075	13.45
394.283	13.36
394.49	13.65
394.698	13.66
394.905	13.5
395.113	13.14
395.32	13.22
395.528	12.87
395.735	12.54
395.943	12.62
396.15	12.61
396.358	12.48
396.565	12.13
396.773	11.85
396.98	11.53
397.188	11.53
397.395	11.84
397.602	11.77
397.81	12.04
398.017	12.07
398.225	12.05
398.432	12.33
398.639	12.36
398.847	12.71
399.054	12.43
399.261	12.32
399.468	12.35
399.676	12.33
399.883	12.2
400.09	12.3
400.297	12.19
400.505	11.83
400.712	11.69
400.919	11.8
401.126	11.41
401.333	11.59
401.54	11.72
401.748	11.6
401.955	11.41
402.162	11.35
402.369	11.25
402.576	11.32
402.783	11.75
402.99	11.69
403.197	11.43
403.404	11.14
403.611	11.1
403.818	10.93
404.025	10.8
404.232	11.07
404.439	11.1
404.646	11.06
404.853	11.08
405.06	10.99
405.267	11.23
405.474	11.04
405.681	11.57
405.887	11.33
406.094	11.56
406.301	11.81
406.508	11.56
406.715	11.6
406.922	11.7
407.128	11.51
407.335	11.41
407.542	10.92
407.749	11.15
407.955	10.81
408.162	11.07
408.369	11.01
408.575	10.94
408.782	11.13
408.989	11.11
409.195	11.06
409.402	11.27
409.609	11.23
409.815	11.5
410.022	11.31
410.228	11.36
410.435	11.35
410.642	11.11
410.848	11.25
411.055	10.94
411.261	10.77
411.468	11.08
411.674	10.77
411.881	10.72
412.087	10.58
412.294	10.64
412.5	10.61
412.706	10.6
412.913	10.58
413.119	10.24
413.326	10.22
413.532	10.33
413.738	10.31
413.945	10.4
414.151	10.54
414.357	10.49
414.564	10.47
414.77	10.53
414.976	10.47
415.182	10.43
415.389	10.76
415.595	10.93
415.801	11.05
416.007	10.96
416.214	10.85
416.42	10.64
416.626	10.68
416.832	10.63
417.038	10.36
417.244	10.11
417.45	10.16
417.657	9.91
417.863	9.68
418.069	9.58
418.275	9.51
418.481	9.64
418.687	9.69
418.893	9.61
419.099	9.59
419.305	9.85
419.511	10.17
419.717	10.2
419.923	10.25
420.129	10.38
420.335	10.3
420.541	10.32
420.746	10.4
420.952	10.33
421.158	10.29
421.364	10.26
421.57	10.03
421.776	9.73
421.982	9.62
422.187	9.59
422.393	9.5
422.599	9.6
422.805	9.53
423.01	9.52
423.216	9.49
423.422	9.42
423.628	9.49
423.833	9.59
424.039	9.75
424.245	9.79
424.45	9.8
424.656	9.79
424.862	9.85
425.067	9.77
425.273	9.76
425.478	9.82
425.684	10.02
425.889	9.98
426.095	10
426.301	10.05
426.506	10.28
426.712	10.29
426.917	10.45
427.123	10.23
427.328	10.06
427.533	10.01
427.739	10.05
427.944	9.91
428.15	10
428.355	10.06
428.561	9.87
428.766	9.44
428.971	9.34
429.177	9.18
429.382	9.28
429.587	9.48
429.793	9.12
429.998	9.06
430.203	9.06
430.408	8.62
430.614	8.39
430.819	8.52
431.024	8.46
431.229	8.46
431.434	8.48
431.64	8.54
431.845	8.44
432.05	8.87
432.255	8.77
432.46	8.75
432.665	8.99
432.87	9.19
433.076	9.41
433.281	9.45
433.486	9.42
433.691	9.28
433.896	9.23
434.101	9.4
434.306	9.35
434.511	9.3
434.716	9.27
434.921	9.16
435.126	9.03
435.331	8.75
435.535	8.81
435.74	8.85
435.945	8.93
436.15	8.88
436.355	8.93
436.56	8.86
436.765	8.97
436.97	8.95
437.174	8.98
437.379	9.01
437.584	8.92
437.789	8.94
437.993	8.87
438.198	8.99
438.403	9.16
438.608	9
438.812	8.94
439.017	9.01
439.222	9.13
439.426	9.22
439.631	9.13
439.836	9.3
440.04	9.49
440.245	9.54
440.45	9.42
440.654	9.42
440.859	9.41
441.063	9.36
441.268	9.39
441.472	9.43
441.677	9.41
441.881	9.46
442.086	9.42
442.29	9.21
442.495	9.17
442.699	9.17
442.904	8.99
443.108	8.99
443.312	9.03
443.517	8.88
443.721	8.9
443.925	8.89
444.13	8.89
444.334	8.88
444.538	8.88
444.743	8.86
444.947	8.93
445.151	8.94
445.356	9.04
445.56	9.07
445.764	9.08
445.968	8.9
446.173	8.88
446.377	8.93
446.581	8.81
446.785	8.9
446.989	8.96
447.193	8.97
447.398	8.96
447.602	8.84
447.806	8.82
448.01	8.78
448.214	8.94
448.418	8.9
448.622	9
448.826	9.07
449.03	9.07
449.234	9
449.438	8.9
449.642	8.93
449.846	8.92
450.05	9
450.254	9.13
450.458	9.04
450.662	9
450.866	8.71
451.069	8.63
451.273	8.57
451.477	8.53
451.681	8.6
451.885	8.32
452.089	8.29
452.292	8.23
452.496	8.27
452.7	8.36
452.904	8.5
453.107	8.43
453.311	8.42
453.515	8.33
453.719	8.43
453.922	8.3
454.126	8.45
454.33	8.5
454.533	8.42
454.737	8.33
454.94	8.14
455.144	7.93
455.348	7.95
455.551	8.25
455.755	8.38
455.958	8.27
456.162	8.32
456.365	8.34
456.569	8.46
456.772	8.42
456.976	8.19
457.179	8.1
457.383	8.24
457.586	8.26
457.79	7.98
457.993	7.82
458.196	7.94
458.4	8.09
458.603	8.32
458.807	8.32
459.01	8.44
459.213	8.66
459.417	8.69
459.62	8.78
459.823	8.74
460.026	8.84
460.23	8.89
460.433	8.81
460.636	8.65
460.839	8.62
461.042	8.49
461.246	8.37
461.449	8.34
461.652	8.39
461.855	8.27
462.058	8.27
462.261	8.22
462.464	8.36
462.668	8.48
462.871	8.55
463.074	8.5
463.277	8.76
463.48	8.81
463.683	8.78
463.886	8.79
464.089	8.67
464.292	8.78
464.495	8.69
464.698	8.63
464.901	8.6
465.104	8.65
465.306	8.7
465.509	8.58
465.712	8.65
465.915	8.67
466.118	8.89
466.321	9
466.524	9.07
466.726	9.08
466.929	8.98
467.132	8.9
467.335	9.12
467.538	8.95
467.74	9.1
467.943	9.09
468.146	9.09
468.348	8.79
468.551	8.93
468.754	8.97
468.956	9.04
469.159	9.09
469.362	9.18
469.564	9.03
469.767	9.08
469.969	8.9
470.172	8.91
470.375	8.86
470.577	8.95
470.78	8.85
470.982	8.93
471.185	9.05
471.387	9.12
471.59	9
471.792	8.85
471.995	8.96
472.197	9.01
472.399	9.15
472.602	9.06
472.804	9.02
473.007	8.97
473.209	8.83
473.411	8.6
473.614	8.59
473.816	8.56
474.018	8.63
474.22	8.37
474.423	8.47
474.625	8.35
474.827	8.51
475.03	8.48
475.232	8.41
475.434	8.42
475.636	8.64
475.838	8.5
476.04	8.65
476.243	8.8
476.445	8.97
476.647	8.81
476.849	8.86
477.051	8.86
477.253	8.93
477.455	8.98
477.657	8.89
477.859	8.83
478.061	8.82
478.263	8.73
478.465	8.47
478.667	8.59
478.869	8.62
479.071	8.55
479.273	8.5
479.475	8.52
479.677	8.44
479.879	8.4
480.081	8.41
480.283	8.42
480.485	8.7
480.686	8.79
480.888	8.6
481.09	8.65
481.292	8.74
481.494	8.81
481.695	8.67
481.897	8.85
482.099	8.91
482.301	8.9
482.502	8.95
482.704	8.77
482.906	8.85
483.107	8.88
483.309	8.87
483.511	8.9
483.712	8.85
483.914	8.88
484.115	8.83
484.317	8.82
484.519	8.81
484.72	8.73
484.922	8.75
485.123	8.73
485.325	8.74
485.526	8.72
485.728	8.67
485.929	8.7
486.131	8.75
486.332	8.77
486.534	8.82
486.735	8.81
486.936	8.9
487.138	8.9
487.339	8.86
487.541	8.8
487.742	8.84
487.943	8.85
488.144	8.85
488.346	8.82
488.547	8.8
488.748	8.84
488.95	8.82
489.151	8.83
489.352	8.81
489.553	8.82
489.755	8.95
489.956	8.85
490.157	8.8
490.358	8.79
490.559	8.78
490.76	8.76
490.961	8.76
491.163	8.82
491.364	8.81
491.565	8.84
491.766	8.89
491.967	8.82
492.168	8.89
492.369	8.93
492.57	8.93
492.771	9.01
492.972	9.02
493.173	9
493.374	9.01
493.575	9.03
493.776	8.95
493.976	8.9
494.177	8.94
494.378	8.97
494.579	8.83
494.78	8.81
494.981	8.76
495.182	8.86
495.382	8.71
495.583	8.7
495.784	8.72
495.985	8.86
496.185	8.88
496.386	8.72
496.587	8.67
496.788	8.71
496.988	8.73
497.189	8.78
497.39	8.72
497.59	8.76
497.791	8.75
497.992	8.78
498.192	8.74
498.393	8.79
498.593	9.03
498.794	9.11
498.994	9.18
499.195	9.29
499.395	9.37
499.596	9.39
499.796	9.48
499.997	9.55
500.197	9.49
500.398	9.52
500.598	9.56
500.799	9.43
500.999	9.46
501.199	9.77
501.4	9.63
501.6	9.66
501.801	9.78
502.001	9.73
502.201	9.75
502.402	9.82
502.602	9.93
502.802	9.9
503.002	10.09
503.203	10.23
503.403	10.14
503.603	10.23
503.803	10.2
504.003	10.14
504.204	10.31
504.404	10.49
504.604	10.56
504.804	10.61
505.004	10.5
505.204	10.49
505.404	10.36
505.604	10.38
505.804	10.52
506.005	10.56
506.205	10.7
506.405	10.7
506.605	10.79
506.805	10.84
507.005	10.88
507.204	11.11
507.404	11.13
507.604	11.1
507.804	11.18
508.004	11.25
508.204	11.33
508.404	11.32
508.604	11.27
508.804	11.2
509.003	11.35
509.203	11.54
509.403	11.55
509.603	11.73
509.803	12.06
510.002	12.07
510.202	12
510.402	12.04
510.602	12.1
510.801	12.37
511.001	12.51
511.201	12.39
511.4	12.29
511.6	12.49
511.8	12.44
511.999	12.29
512.199	12.35
512.398	12.49
512.598	12.56
512.797	12.74
512.997	12.67
513.197	12.69
513.396	12.86
513.596	13.04
513.795	13.09
513.994	13.15
514.194	13.45
514.393	13.66
514.593	13.8
514.792	13.95
514.992	14.23
515.191	14.44
515.39	14.58
515.59	15
515.789	15.05
515.988	15.19
516.188	15.4
516.387	15.44
516.586	15.46
516.786	15.44
516.985	15.5
517.184	15.38
517.383	15.42
517.582	15.39
517.782	15.22
517.981	15.28
518.18	15.26
518.379	15.28
518.578	15.4
518.777	15.59
518.976	15.81
519.176	15.86
519.375	15.93
519.574	16.02
519.773	16.2
519.972	16.25
520.171	16.33
520.37	16.47
520.569	16.55
520.768	16.47
520.967	16.44
521.166	16.41
521.365	16.52
521.564	16.6
521.762	16.63
521.961	16.67
522.16	16.89
522.359	17.05
522.558	17.22
522.757	17.3
522.956	17.41
523.154	17.4
523.353	17.59
523.552	17.75
523.751	17.88
523.949	18.13
524.148	18.19
524.347	18.24
524.546	18.41
524.744	18.53
524.943	18.7
525.142	18.77
525.34	18.93
525.539	18.91
525.737	18.95
525.936	19.1
526.135	19.1
526.333	19.21
526.532	19.31
526.73	19.22
526.929	19.27
527.127	19.3
527.326	19.48
527.524	19.58
527.723	19.75
527.921	19.81
528.12	19.84
528.318	19.88
528.516	19.98
528.715	20.03
528.913	20.11
529.112	20.15
529.31	20.21
529.508	20.23
529.707	20.23
529.905	20.24
530.103	20.34
530.301	20.37
530.5	20.51
530.698	20.59
530.896	20.65
531.094	20.81
531.293	20.95
531.491	20.97
531.689	21.01
531.887	21.17
532.085	21.2
532.283	21.1
532.481	21.27
532.68	21.32
532.878	21.34
533.076	21.46
533.274	21.54
533.472	21.54
533.67	21.6
533.868	21.7
534.066	21.73
534.264	21.82
534.462	22.03
534.66	22.02
534.858	21.98
535.056	22.07
535.253	22.09
535.451	22.11
535.649	22.2
535.847	22.34
536.045	22.42
536.243	22.55
536.441	22.76
536.638	22.79
536.836	22.81
537.034	23.04
537.232	23.02
537.43	23.12
537.627	23.21
537.825	23.2
538.023	23.26
538.22	23.39
538.418	23.38
538.616	23.31
538.813	23.37
539.011	23.51
539.209	23.38
539.406	23.42
539.604	23.48
539.801	23.53
539.999	23.75
540.196	23.89
540.394	23.91
540.591	24.09
540.789	24.12
540.986	24.17
541.184	24.21
541.381	24.26
541.579	24.33
541.776	24.42
541.974	24.57
542.171	24.56
542.368	24.56
542.566	24.55
542.763	24.51
542.96	24.59
543.158	24.63
543.355	24.66
543.552	24.82
543.75	24.85
543.947	24.8
544.144	24.78
544.341	24.87
544.539	24.92
544.736	25.08
544.933	25.2
545.13	25.25
545.327	25.38
545.524	25.42
545.722	25.31
545.919	25.43
546.116	25.61
546.313	25.72
546.51	25.73
546.707	25.83
546.904	25.87
547.101	26.05
547.298	26.1
547.495	26.23
547.692	26.37
547.889	26.6
548.086	26.73
548.283	26.87
548.48	26.88
548.677	26.82
548.874	27.04
549.07	27.19
549.267	27.08
549.464	27.19
549.661	27.02
549.858	27.14
550.055	27.17
550.251	27.07
550.448	27.03
550.645	27.12
550.842	27.43
551.038	27.4
551.235	27.38
551.432	27.57
551.628	27.68
551.825	27.96
552.022	28.11
552.218	28.2
552.415	28.36
552.612	28.47
552.808	28.35
553.005	28.39
553.201	28.31
553.398	28.39
553.594	28.31
553.791	28.13
553.987	28.06
554.184	28.09
554.38	28.12
554.577	28.11
554.773	28.2
554.97	28.39
555.166	28.29
555.362	28.43
555.559	28.65
555.755	28.74
555.952	29.09
556.148	29.21
556.344	29.2
556.541	29.5
556.737	29.76
556.933	29.63
557.129	29.58
557.326	29.8
557.522	29.98
557.718	29.89
557.914	30.1
558.11	30.12
558.307	30.19
558.503	30.29
558.699	30.14
558.895	30.17
559.091	30.27
559.287	30.33
559.483	30.28
559.679	30.43
559.876	30.54
560.072	30.43
560.268	30.34
560.464	30.24
560.66	30.27
560.856	30.05
561.052	30.04
561.247	30.3
561.443	30.3
561.639	30.56
561.835	30.37
562.031	30.34
562.227	30.48
562.423	30.81
562.619	30.96
562.815	31.26
563.01	31.46
563.206	31.58
563.402	31.46
563.598	31.8
563.793	31.74
563.989	31.87
564.185	32.11
564.381	32.22
564.576	32.2
564.772	32.42
564.968	32.19
565.163	32.47
565.359	32.54
565.555	32.56
565.75	32.41
565.946	32.45
566.141	32.47
566.337	32.35
566.532	32.4
566.728	32.33
566.923	32.26
567.119	32.32
567.314	32.39
567.51	32.41
567.705	32.66
567.901	32.66
568.096	32.7
568.292	32.79
568.487	32.98
568.682	33.11
568.878	33.04
569.073	33.17
569.268	33.26
569.464	33.35
569.659	33.39
569.854	33.16
570.05	33.25
570.245	33.36
570.44	33.38
570.635	33.19
570.831	33.2
571.026	33.54
571.221	33.51
571.416	33.57
571.611	33.38
571.806	33.39
572.002	33.66
572.197	33.59
572.392	33.75
572.587	33.88
572.782	34.16
572.977	34.3
573.172	34.38
573.367	34.48
573.562	34.57
573.757	34.91
573.952	35.05
574.147	34.85
574.342	35.18
574.537	35.05
574.732	35
574.927	34.87
575.121	34.79
575.316	34.8
575.511	34.71
575.706	34.71
575.901	34.39
576.096	34.14
576.29	34.38
576.485	34.29
576.68	34.33
576.875	34.23
577.069	34.36
577.264	34.39
577.459	34.15
577.654	34.39
577.848	34.24
578.043	34.39
578.238	34.65
578.432	34.43
578.627	34.41
578.821	34.47
579.016	34.68
579.21	34.64
579.405	34.79
579.6	35
579.794	34.93
579.989	35.18
580.183	35.34
580.378	35.66
580.572	35.72
580.766	35.89
580.961	36.01
581.155	36.1
581.35	36.06
581.544	35.87
581.738	35.72
581.933	35.75
582.127	35.8
582.321	35.79
582.516	35.95
582.71	36.19
582.904	36.24
583.099	36.26
583.293	36.05
583.487	36.24
583.681	36.41
583.875	36.68
584.07	36.67
584.264	36.51
584.458	36.66
584.652	36.28
584.846	36.4
585.04	36.41
585.234	36.35
585.428	36.58
585.623	36.49
585.817	36.48
586.011	36.27
586.205	36.1
586.399	36.17
586.593	35.97
586.787	36.06
586.981	35.85
587.174	35.95
587.368	36.05
587.562	35.87
587.756	35.97
587.95	36.1
588.144	36.47
588.338	36.68
588.532	37.1
588.725	37.53
588.919	37.48
589.113	37.75
589.307	37.69
589.501	37.84
589.694	38.12
589.888	38.21
590.082	38.07
590.275	37.88
590.469	38.21
590.663	38.17
590.856	37.83
591.05	38.17
591.244	38.1
591.437	38.11
591.631	37.94
591.824	37.74
592.018	37.87
592.212	38.1
592.405	38.42
592.599	37.96
592.792	37.85
592.986	37.99
593.179	37.64
593.372	37.83
593.566	37.68
593.759	38.01
593.953	38.51
594.146	38.4
594.339	38.38
594.533	38.13
594.726	38.09
594.92	38.09
595.113	37.98
595.306	38.16
595.499	38.16
595.693	38.37
595.886	38.26
596.079	38.09
596.272	38.27
596.466	38.31
596.659	38.47
596.852	38.65
597.045	38.78
597.238	38.95
597.431	38.76
597.624	38.65
597.818	38.62
598.011	38.68
598.204	38.57
598.397	38.47
598.59	38.34
598.783	38.43
598.976	38.37
599.169	38.02
599.362	38.07
599.555	38.32
599.748	38.34
599.941	38.52
600.134	38.43
600.326	38.71
600.519	38.78
600.712	38.84
600.905	38.68
601.098	39
601.291	39.21
601.483	39.08
601.676	39.16
601.869	39.14
602.062	39.2
602.255	39.02
602.447	39.02
602.64	38.87
602.833	39.12
603.025	39.09
603.218	39.08
603.411	39.26
603.603	39.39
603.796	39.39
603.989	39.4
604.181	39.39
604.374	39.65
604.566	39.61
604.759	39.71
604.951	39.39
605.144	39.28
605.336	39.08
605.529	38.98
605.721	38.9
605.914	38.91
606.106	38.88
606.299	38.72
606.491	38.58
606.683	38.65
606.876	38.65
607.068	38.94
607.26	39.26
607.453	39.52
607.645	39.54
607.837	39.61
608.03	39.87
608.222	39.96
608.414	40.03
608.606	40.2
608.799	40.36
608.991	40.31
609.183	40.28
609.375	40.13
609.567	39.95
609.759	40.07
609.952	40.06
610.144	39.73
610.336	39.63
610.528	39.74
610.72	39.83
610.912	39.64
611.104	39.64
611.296	39.72
611.488	39.64
611.68	39.76
611.872	39.56
612.064	39.51
612.256	39.71
612.448	40.09
612.64	39.77
612.832	39.69
613.023	39.78
613.215	39.44
613.407	39.08
613.599	39.24
613.791	39.36
613.983	39.74
614.174	39.69
614.366	39.58
614.558	39.59
614.75	40.06
614.941	40.21
615.133	40.26
615.325	40.7
615.516	41.05
615.708	41.22
615.9	41.33
616.091	41.04
616.283	41.23
616.475	41.03
616.666	40.87
616.858	40.59
617.049	40.52
617.241	40.13
617.432	40.16
617.624	39.82
617.815	39.7
618.007	39.47
618.198	39.57
618.39	39.41
618.581	39.7
618.773	39.75
618.964	40.02
619.155	39.81
619.347	39.91
619.538	40.21
619.729	40.6
619.921	40.55
620.112	40.75
620.303	40.48
620.494	40.63
620.686	40.62
620.877	40.48
621.068	40.63
621.259	40.48
621.451	40.61
621.642	40.26
621.833	40.31
622.024	40.46
622.215	40.11
622.406	40.21
622.597	40.15
622.788	40.18
622.98	40.18
623.171	39.77
623.362	40.11
623.553	40.36
623.744	40.6
623.935	40.5
624.126	40.5
624.317	40.61
624.508	40.9
624.698	41.08
624.889	41.03
625.08	41.05
625.271	41.11
625.462	40.73
625.653	40.35
625.844	40.11
626.034	40.17
626.225	40.01
626.416	40.33
626.607	40.26
626.798	40.1
626.988	40.09
627.179	40.11
627.37	40.25
627.56	40.35
627.751	40.45
627.942	40.49
628.132	40.74
628.323	40.71
628.514	40.73
628.704	40.58
628.895	40.44
629.085	40.43
629.276	40.24
629.466	40.28
629.657	40.44
629.847	40.57
630.038	40.86
630.228	40.59
630.419	40.63
630.609	40.22
630.8	40.31
630.99	40.75
631.181	40.99
631.371	41.45
631.561	41.4
631.752	41.39
631.942	41.3
632.132	41.02
632.323	41.05
632.513	41.25
632.703	41.44
632.893	41.37
633.084	41.3
633.274	41.07
633.464	40.68
633.654	40.79
633.844	40.42
634.034	40.26
634.225	40.48
634.415	40.36
634.605	40.42
634.795	40.57
634.985	40.52
635.175	40.44
635.365	40.67
635.555	40.85
635.745	40.81
635.935	41.18
636.125	41.48
636.315	41.41
636.505	41.62
636.695	41.53
636.885	41.54
637.075	41.94
637.265	42.04
637.455	41.97
637.644	41.91
637.834	41.79
638.024	42.05
638.214	41.96
638.404	42.08
638.593	42.15
638.783	42.32
638.973	42.18
639.163	41.66
639.352	41.74
639.542	41.93
639.732	42.04
639.921	42.63
640.111	42.66
640.301	42.67
640.49	42.58
640.68	42.78
640.87	42.63
641.059	43.04
641.249	43.73
641.438	43.76
641.628	43.57
641.817	43.58
642.007	43.01
642.196	42.78
642.386	42.58
642.575	42.73
642.764	42.58
642.954	42.38
643.143	42.16
643.333	41.89
643.522	41.74
643.711	41.74
643.901	41.52
644.09	41.77
644.279	42.02
644.469	42.39
644.658	42.27
644.847	41.7
645.036	41.97
645.226	41.96
645.415	42.15
645.604	42.36
645.793	42.74
645.982	42.93
646.171	42.68
646.361	42.45
646.55	42.44
646.739	42.26
646.928	42.82
647.117	42.84
647.306	42.91
647.495	42.53
647.684	42.35
647.873	41.95
648.062	42.09
648.251	42.09
648.44	41.78
648.629	41.86
648.818	41.65
649.007	41.22
649.196	41.06
649.384	40.91
649.573	41.05
649.762	41.12
649.951	40.72
650.14	40.47
650.328	40.94
650.517	41.22
650.706	40.93
650.895	41.44
651.083	41.66
651.272	41.86
651.461	41.83
651.65	41.86
651.838	41.69
652.027	42.39
652.216	42.4
652.404	42.15
652.593	42.43
652.781	42.54
652.97	42.36
653.158	42.36
653.347	42.49
653.535	42.69
653.724	42.49
653.912	42.37
654.101	42.34
654.289	42.79
654.478	43.08
654.666	42.59
654.855	42.21
655.043	42.17
655.231	42.18
655.42	41.91
655.608	41.64
655.796	41.63
655.985	42.43
656.173	42.26
656.361	41.71
656.55	41.61
656.738	41.46
656.926	41.61
657.114	41.57
657.302	41.78
657.491	42.01
657.679	42.15
657.867	42.54
658.055	42.29
658.243	42.45
658.431	42.45
658.619	42.28
658.807	42.46
658.996	42.58
659.184	42.73
659.372	42.56
659.56	42.56
659.748	42.57
659.936	42.42
660.124	41.9
660.311	41.71
660.499	42.3
660.687	42.39
660.875	42.46
661.063	42.41
661.251	42.29
661.439	42.28
661.627	42.12
661.814	42.1
662.002	42.18
662.19	42.95
662.378	43.23
662.565	42.69
662.753	42.59
662.941	42.47
663.129	42.93
663.316	42.86
663.504	42.8
663.692	42.74
663.879	43.2
664.067	42.54
664.254	42.44
664.442	42.08
664.63	42.3
664.817	42.56
665.005	42.83
665.192	42.72
665.38	42.97
665.567	43.08
665.755	42.77
665.942	42.66
666.13	43.14
666.317	42.58
666.504	42.67
666.692	42.94
666.879	43.09
667.067	43.12
667.254	42.87
667.441	42.51
667.629	42.67
667.816	42.83
668.003	42.29
668.19	42.23
668.378	43.05
668.565	43.04
668.752	42.84
668.939	42.85
669.127	42.74
669.314	42.75
669.501	42.81
669.688	42.52
669.875	42.53
670.062	42.72
670.249	42.47
670.436	41.61
670.623	41.42
670.81	40.98
670.997	40.9
671.184	40.84
671.371	41.01
671.558	41.39
671.745	41.71
671.932	41.98
672.119	41.93
672.306	42.85
672.493	43.01
672.68	42.95
672.867	43.02
673.054	42.5
673.24	42.55
673.427	42.36
673.614	41.88
673.801	42.04
673.988	42.03
674.174	42.32
674.361	41.78
674.548	42.03
674.734	42.22
674.921	42.45
675.108	42.41
675.294	42.54
675.481	42.87
675.668	43.25
675.854	42.73
676.041	41.99
676.227	41.85
676.414	41.81
676.601	41.47
676.787	41.39
676.974	41.63
677.16	41.55
677.347	41.48
677.533	41.01
677.719	41.37
677.906	41.96
678.092	42.57
678.279	42.52
678.465	42.83
678.651	43.12
678.838	43.5
679.024	43.35
679.21	43.79
679.397	43.96
679.583	44.68
679.769	44.6
679.955	44.36
680.142	44.12
680.328	44.48
680.514	44.01
680.7	44.07
680.886	43.83
681.073	43.93
681.259	43.74
681.445	43.68
681.631	43.53
681.817	43.26
682.003	43.24
682.189	43.88
682.375	43.9
682.561	44.27
682.747	43.99
682.933	43.91
683.119	43.45
683.305	43.6
683.491	43.26
683.677	43.08
683.863	43.4
684.049	43.3
684.235	42.8
684.42	43.04
684.606	43.47
684.792	43.3
684.978	43.14
685.164	43.26
685.349	43.33
685.535	43.62
685.721	43.25
685.907	43.09
686.092	43.06
686.278	43.15
686.464	42.77
686.649	42.45
686.835	42.61
687.021	42.83
687.206	42.89
687.392	42.58
687.577	42.68
687.763	43
687.948	43.22
688.134	43.52
688.319	43.23
688.505	42.45
688.69	42.46
688.876	42.92
689.061	43.54
689.247	44.08
689.432	44.39
689.618	44.46
689.803	44.12
689.988	43.74
690.174	43.82
690.359	44.09
690.544	44.79
690.73	44.88
690.915	44.69
691.1	44.18
691.285	43.35
691.471	43.7
691.656	43.84
691.841	44.38
692.026	44.01
692.211	43.6
692.396	43.46
692.582	43.27
692.767	43.18
692.952	43.48
693.137	43.83
693.322	44.61
693.507	44.03
693.692	43.69
693.877	43.55
694.062	43.96
694.247	44.21
694.432	44.67
694.617	45.07
694.802	44.75
694.987	43.89
695.172	43.54
695.357	42.99
695.541	43.2
695.726	43.11
695.911	42.51
696.096	42.88
696.281	42.87
696.466	42.55
696.65	42.24
696.835	42.62
697.02	43.06
697.204	43.49
697.389	43.3
697.574	43.66
697.759	43.86
697.943	43.94
698.128	43.94
698.312	44.35
698.497	44.28
698.682	44.46
698.866	44.44
699.051	44.65
699.235	44.34
699.42	44.77
699.604	44.14
699.789	44.09
699.973	44.4
700.158	44.27
700.342	44.38
700.527	44.47
700.711	44.39
700.895	44.3
701.08	44.02
701.264	44.18
701.448	43.85
701.633	44.32
701.817	44.52
702.001	44.76
702.186	44.75
702.37	44.04
702.554	44.26
702.738	44.75
702.923	44.66
703.107	44.7
703.291	44.46
703.475	45.06
703.659	45.36
703.843	44.7
704.027	44.16
704.212	44.44
704.396	44.72
704.58	44.24
704.764	43.65
704.948	44.65
705.132	44.95
705.316	44.83
705.5	44.16
705.684	43.36
705.868	43.9
706.052	44.04
706.235	43.78
706.419	43.54
706.603	44.23
706.787	44.73
706.971	43.35
707.155	43.51
707.339	43.81
707.522	44.43
707.706	44.96
707.89	44.84
708.074	44.61
708.257	43.81
708.441	44.26
708.625	43.73
708.808	43.57
708.992	44.02
709.176	43.82
709.359	44.26
709.543	44
709.727	43.86
709.91	43.76
710.094	44.46
710.277	44.83
710.461	45.11
710.644	45.47
710.828	44.83
711.011	45.13
711.195	45.55
711.378	45.36
711.562	45.46
711.745	46
711.928	45.58
712.112	45.14
712.295	45.35
712.478	44.71
712.662	44.39
712.845	44.71
713.028	44.81
713.212	43.63
713.395	43.15
713.578	43.33
713.761	42.8
713.945	42.78
714.128	42.99
714.311	43.45
714.494	43.6
714.677	44.6
714.86	44.47
715.043	43.98
715.227	44.79
715.41	44.53
715.593	44.54
715.776	45.19
715.959	45.42
716.142	45.3
716.325	45.24
716.508	45.09
716.691	44.09
716.874	44.44
717.057	43.93
717.239	43.72
717.422	44.66
717.605	44.05
717.788	43.13
717.971	43.48
718.154	43.44
718.337	43.21
718.519	43.47
718.702	43.46
718.885	43.67
719.068	43.56
719.25	43.26
719.433	43.32
719.616	43.71
719.798	43.37
719.981	44.1
720.164	44.27
720.346	44.44
720.529	43.72
720.712	44.08
720.894	44.24
721.077	44.97
721.259	44.99
721.442	45.1
721.624	44.77
721.807	45.53
721.989	44.61
722.172	44.54
722.354	43.96
722.537	43.29
722.719	42.8
722.901	41.41
723.084	41.36
723.266	41.92
723.448	40.91
723.631	40.43
723.813	39.71
723.995	41.28
724.178	40.94
724.36	41.3
724.542	42.45
724.724	43.35
724.907	44.18
725.089	43.96
725.271	43.45
725.453	43.97
725.635	44.85
725.817	44.97
725.999	42.92
726.181	43.02
726.364	43.58
726.546	43.67
726.728	42
726.91	42.74
727.092	42.74
727.274	43.27
727.456	43.47
727.638	43.25
727.819	43.75
728.001	44.16
728.183	44.47
728.365	43.56
728.547	43.7
728.729	44.72
728.911	44.22
729.093	44.62
729.274	44.43
729.456	44.57
729.638	45.02
729.82	44.69
730.001	44.2
730.183	44.37
730.365	45.08
730.546	44.7
730.728	44.15
730.91	44.35
731.091	45.08
731.273	44.51
731.455	43.63
731.636	43.79
731.818	44.16
731.999	43.65
732.181	43.82
732.362	43.17
732.544	43.51
732.725	44.31
732.907	43.57
733.088	42.55
733.27	43.26
733.451	43.77
733.633	43.6
733.814	43.78
733.995	45.12
734.177	45.2
734.358	46.09
734.539	45.33
734.721	45.55
734.902	46.28
735.083	47.03
735.264	47.06
735.446	46.75
735.627	46
735.808	46.11
735.989	45.63
736.17	45.07
736.351	44.8
736.533	45.89
736.714	46.19
736.895	45.23
737.076	44.58
737.257	44.03
737.438	43.91
737.619	44.6
737.8	43.89
737.981	44.86
738.162	45.13
738.343	45.46
738.524	44.86
738.705	43.44
738.886	43.49
739.067	43.1
739.247	43.8
739.428	43.02
739.609	42.75
739.79	43.3
739.971	42.51
740.151	42.41
740.332	41.43
740.513	41.67
740.694	42.12
740.874	41.82
741.055	43.07
741.236	42.66
741.417	44.02
741.597	44.42
741.778	43.92
741.958	45.1
742.139	44.64
742.32	45.1
742.5	46.38
742.681	45.81
742.861	46.4
743.042	45.25
743.222	44.3
743.403	44.59
743.583	45
743.764	44.64
743.944	43.83
744.124	43.95
744.305	44.56
744.485	42.68
744.666	43.7
744.846	44.1
745.026	44.88
745.207	45.34
745.387	45.3
745.567	44.46
745.747	44.68
745.928	43.8
746.108	44.34
746.288	42.79
746.468	43.05
746.648	42.99
746.829	43.18
747.009	43.13
747.189	44.04
747.369	44.04
747.549	43.44
747.729	43.3
747.909	44.17
748.089	45.47
748.269	46.37
748.449	46.28
748.629	46.3
748.809	46.65
748.989	46.45
749.169	47.1
749.349	46.08
749.529	46.73
749.709	46.98
749.889	46.5
750.068	44.86
750.248	44.49
750.428	43.91
750.608	43.73
750.788	43.29
750.967	43.64
751.147	43.42
751.327	43.45
751.507	43.03
751.686	43.39
751.866	43.85
752.046	43.93
752.225	44.98
752.405	46.38
752.585	47.1
752.764	47.05
752.944	46.55
753.123	44.94
753.303	45.27
753.482	45.52
753.662	46.13
753.841	46.4
754.021	45.44
754.2	45.27
754.38	44.57
754.559	44.75
754.739	44.29
754.918	44.83
755.097	46.04
755.277	45.24
755.456	45.97
755.635	45.83
755.815	45.98
755.994	46.74
756.173	45.99
756.352	45.63
756.532	44.25
756.711	44.69
756.89	44.57
757.069	44.69
757.248	46.13
757.427	45.43
757.607	44.19
757.786	43.86
757.965	44.41
758.144	44.23
758.323	44.97
758.502	45.67
758.681	46.34
758.86	45.91
759.039	45.16
759.218	45.21
759.397	45.76
759.576	46.7
759.755	46.35
759.934	46.58
760.113	47.16
760.291	48.04
760.47	48.43
760.649	47.59
760.828	47.51
761.007	48.78
761.186	48.59
761.364	47.48
761.543	47.37
761.722	46.77
761.901	46.89
762.079	46.52
762.258	45.99
762.437	45.89
762.615	46.54
762.794	47.03
762.972	45.95
763.151	45.09
763.33	45.09
763.508	45.23
763.687	45.74
763.865	44.67
764.044	45.11
764.222	44.84
764.401	44.42
764.579	43.49
764.758	43.71
764.936	43.95
765.114	44.43
765.293	45.11
765.471	45.34
765.65	45.31
765.828	45.86
766.006	45.32
766.184	44.99
766.363	44.67
766.541	45.76
766.719	45.23
766.898	44.68
767.076	45.24
767.254	44.88
767.432	44.4
767.61	44.24
767.788	44.73
767.967	43.27
768.145	42.93
768.323	44.49
768.501	44.36
768.679	44.42
768.857	44.83
769.035	45.35
769.213	45.59
769.391	43.72
769.569	44.47
769.747	44.82
769.925	48.13
770.103	47.89
770.281	47.06
770.459	46.44
770.636	45.04
770.814	46.35
770.992	44.67
771.17	44
771.348	46.37
771.525	45.65
771.703	45.1
771.881	43.7
772.059	43.95
772.236	43.99
772.414	45.21
772.592	45.96
772.769	44.73
772.947	44.42
773.125	44.84
773.302	44.25
773.48	43.92
773.657	43.63
773.835	44.02
774.013	46.18
774.19	44.22
774.368	42.11
774.545	43.23
774.723	44.31
774.9	44.86
775.077	44.19
775.255	43.81
775.432	44.24
775.61	46.19
775.787	44.95
775.964	41.92
776.142	43.33
776.319	44.16
776.496	43.44
776.674	43.38
776.851	43.39
777.028	44.65
777.205	46.05
777.382	46.44
777.56	44.73
777.737	43.93
777.914	45
778.091	46.62
778.268	46.68
778.445	47.52
778.622	46.18
778.8	47.53
778.977	47.74
779.154	59.79
779.331	59.49
779.508	59.31
779.685	61.78
779.862	63.64
780.038	63.37
780.215	63.03
780.392	63.06
780.569	62.27
780.746	61.97
780.923	60.47
781.1	44.41
781.277	44.71
781.453	43.29
781.63	41.37
781.807	40.02
781.984	38.3
782.16	39.5
782.337	36.79
782.514	37.54
782.691	38.79
782.867	39.11
783.044	41.46
783.221	41.45
783.397	43.24
783.574	44.57
783.75	42.93
783.927	43.18
784.103	42.94
784.28	45.44
784.456	47.29
784.633	48.33
784.809	50.46
784.986	49.55
785.162	49.64
785.339	47.8
785.515	46.24
785.692	47.75
785.868	47.08
786.044	46.71
786.221	46.45
786.397	44.81
786.573	44.51
786.749	44.41
786.926	45.05
787.102	43.57
787.278	44.77
787.454	46.4
787.631	47
787.807	49.02
787.983	49.72
788.159	49.01
788.335	47.58
788.511	45.42
788.687	45.43
788.863	43.88
789.039	45.47
789.216	45.29
789.392	44.59
789.568	43.04
789.744	41.65
789.919	40.22
790.095	39.86
790.271	41.54
790.447	42.27
790.623	40.3
790.799	43.17
790.975	43.36
791.151	40.99
791.327	42.32
791.502	44.22
791.678	46.28
791.854	46.13
792.03	45.83
792.205	45.22
792.381	43.54
792.557	45.87
792.733	43.71
792.908	44.37
793.084	47.42
793.259	45.36
793.435	44.07
793.611	41.7
793.786	41.07
793.962	41.7
794.137	43.48
794.313	43.43
794.488	44.6
794.664	46
794.839	45.57
795.015	45.35
795.19	47.27
795.366	46.89
795.541	47.77
795.716	46.85
795.892	48.21
796.067	45.48
796.242	48.2
796.418	48.22
796.593	45.64
796.768	43.07
796.944	42.28
797.119	40.2
797.294	40.7
797.469	42.01
797.644	43.73
797.82	41.19
797.995	42.61
798.17	41.65
798.345	41.85
798.52	43.7
798.695	44.37
798.87	46.49
799.045	48.07
799.22	49.55
799.395	47.52
799.57	47.21
799.745	47.66
799.92	49.18
800.095	48.81
800.27	47.01
800.445	48.49
800.62	48.91
800.795	46.57
800.97	45.57
801.145	44.54
801.319	46.22
801.494	45.13
801.669	44.18
801.844	44.8
802.018	42.37
802.193	43.52
802.368	42.4
802.543	42.65
802.717	43.59
802.892	43.66
803.067	42.45
803.241	41.03
803.416	42.13
803.59	41.56
803.765	38.87
803.94	41.12
804.114	38.5
804.289	39.34
804.463	40.76
804.638	39.22
804.812	40.24
804.986	41.48
805.161	42.3
805.335	43.28
805.51	45.36
805.684	44.17
805.858	43.23
806.033	44.89
806.207	42.71
806.381	40.94
806.556	43.39
806.73	43.35
806.904	44.94
807.078	45.04
807.253	44.7
807.427	44.36
807.601	44.21
807.775	44.6
807.949	44.77
808.123	46.93
808.298	45.67
808.472	42.54
808.646	42.77
808.82	39.56
808.994	39.2
809.168	37.39
809.342	40.54
809.516	40.88
809.69	40.42
809.864	43.33
810.038	38.81
810.212	41.79
810.385	44.96
810.559	43.47
810.733	46.2
810.907	47.38
811.081	52.89
811.255	50.68
811.428	51.4
811.602	56.69
811.776	54.41
811.95	57.05
812.123	57.25
812.297	54.4
812.471	57.46
812.644	59.17
812.818	55.15
812.992	51.09
813.165	54.32
813.339	57.44
813.512	53.74
813.686	56.68
813.86	55.07
814.033	54.09
814.207	56.56
814.38	55.56
814.554	50.32
814.727	50.58
814.9	49.49
815.074	47.08
815.247	47.97
815.421	46.9
815.594	43.13
815.767	45.18
815.941	42.76
816.114	43.42
816.287	38.06
816.46	41.72
816.634	44.01
816.807	44.77
816.98	44.97
817.153	43.9
817.327	41.5
817.5	44.33
817.673	46.82
817.846	47.22
818.019	48.11
818.192	50.35
818.365	47.72
818.538	48.6
818.711	48.19
818.884	46.51
819.057	42.92
819.23	43.9
819.403	40.04
819.576	36.56
819.749	38.35
819.922	38.04
820.095	36.36
820.268	36.45
820.441	38.54
820.614	39.26
820.786	40.75
820.959	42.74
821.132	44.39
821.305	44.8
821.477	45.94
821.65	45.81
821.823	45.6
821.996	46.37
822.168	46.91
822.341	46.77
822.514	46.74
822.686	46.27
822.859	45.77
823.031	45.71
823.204	45.93
823.376	45.85
823.549	46.19
823.722	45.83
823.894	45.98
824.067	45.8
824.239	44.9
824.411	44.88
824.584	44.74
824.756	45.3
824.929	45.72
825.101	45.79
825.273	45.5
825.446	45.34
825.618	46.16
825.79	46.11
825.963	45.35
826.135	46.99
826.307	47.76
826.479	48.42
826.652	47.57
826.824	47.23
826.996	46.84
827.168	47.39
827.34	47.04
827.512	46.27
827.684	46.59
827.856	47.72
828.029	46.27
828.201	45.52
828.373	44.77
828.545	45.12
828.717	45.19
828.889	46.69
829.061	46.42
829.232	46.12
829.404	45.4
829.576	43.34
829.748	42.41
829.92	41.76
830.092	42.5
830.264	42.65
830.436	42.98
830.607	40.76
830.779	40.16
830.951	39.75
831.123	39.28
831.294	42.38
831.466	44.1
831.638	46.34
831.809	48.64
831.981	46.94
832.153	48.12
832.324	49.02
832.496	50.52
832.667	48.02
832.839	48.59
833.011	49.44
833.182	44.49
833.354	46.66
833.525	44.1
833.697	41.93
833.868	40.63
834.039	40.32
834.211	39.96
834.382	40.46
834.554	40.49
834.725	40.38
834.896	38.18
835.068	40.57
835.239	39.7
835.41	39.58
835.581	41.09
835.753	43.28
835.924	44.45
836.095	45.58
836.266	45.4
836.438	46.68
836.609	45.81
836.78	48.16
836.951	47.04
837.122	46.19
837.293	47.66
837.464	46.22
837.635	44.42
837.806	42.06
837.977	40.8
838.148	43.08
838.319	44.33
838.49	46.81
838.661	47.72
838.832	52
839.003	53.49
839.174	50.07
839.345	52.83
839.516	55.06
839.687	56
839.857	54.62
840.028	47.95
840.199	45.95
840.37	44.06
840.54	45.59
840.711	38.95
840.882	40.46
841.053	40.6
841.223	41.45
841.394	39
841.564	41.22
841.735	38.78
841.906	43.45
842.076	42.39
842.247	46.09
842.417	45.74
842.588	47.96
842.758	46.68
842.929	56.29
843.099	52.83
843.27	52.26
843.44	47.1
843.611	51.56
843.781	54.93
843.951	55.74
844.122	56.65
844.292	57.39
844.462	58.08
844.633	52.53
844.803	46.1
844.973	41.28
845.144	47.87
845.314	51.64
845.484	54.63
845.654	47.16
845.824	45.44
845.995	45.29
846.165	51.81
846.335	56.78
846.505	58.64
846.675	58.03
846.845	57.37
847.015	48.73
847.185	53.9
847.355	45.29
847.525	52.51
847.695	42.14
847.865	34.28
848.035	25.25
848.205	21.3
848.375	20.86
848.545	20.39
848.715	33.56
848.884	31.24
849.054	30.05
849.224	31.85
849.394	26.03
849.564	47.48
849.733	38.59
849.903	40.23
850.073	27.63
850.243	27.65
850.412	25.31
850.582	27.42
850.752	17.57
850.921	11.68
851.091	22.25
851.26	42.1
851.43	23.96
851.599	43.79
851.769	53.63
851.939	60.53
852.108	65.2
852.278	70.14
852.447	50.31
852.616	54.12
852.786	68.03
852.955	69.26
853.125	58.13
853.294	75.59
853.463	75.7
853.633	58.19
853.802	60.27
853.971	71.99
854.141	77.93
854.31	94.2
854.479	104.02
854.648	91.3
854.818	84.28
854.987	77.25
855.156	63.35
855.325	62.04
855.494	67.85
855.663	70.59
855.832	67.14
856.001	57.76
856.171	47.59
856.34	41.67
856.509	41.53
856.678	46.12
856.847	70.27
857.016	67.11
857.185	76.8
857.353	85.86
857.522	79.68
857.691	85.66
857.86	78.94
858.029	87.09
858.198	77.16
858.367	73.76
858.535	61.55
858.704	54.05
858.873	57.59
859.042	39.49
859.21	29.65
859.379	23.64
859.548	9.09
859.717	20.75
859.885	25.96
860.054	33.51
860.222	46.81
860.391	63.62
860.56	48.7
860.728	39.21
860.897	56.35
861.065	52.9
861.234	57.76
861.402	46.61
861.571	43.82
861.739	41.92
861.908	48.97
862.076	48.15
862.244	43.52
862.413	48.55
862.581	62.8
862.749	59.25
862.918	64.51
863.086	75.26
863.254	85.97
863.423	95.15
863.591	87.6
863.759	83.52
863.927	70.58
864.096	76.93
864.264	58.28
864.432	34.08
864.6	-3.1
864.768	-8.82
864.936	-1.59
865.104	3.42
865.272	4.38
865.44	-22.46
865.608	-12.94
865.776	-12.62
865.944	-13.18
866.112	11.16
866.28	24.18
866.448	33.11
866.616	41.93
866.784	62.53
866.952	58.46
867.12	59.74
867.288	60.39
867.455	82.03
867.623	77.46
867.791	90.8
867.959	74.58
868.127	62.53
868.294	50.24
868.462	67.55
868.63	46.46
868.797	59.79
868.965	55.16
869.133	59.69
869.3	48.31
869.468	53.98
869.636	51.05
869.803	55.45
869.971	65.84
870.138	79.7
870.306	74.16
870.473	93.22
870.641	91.06
870.808	95.67
870.975	114.11
871.143	106.18
871.31	97.8
871.478	79.2
871.645	93.43
871.812	87.9
871.98	71.46
872.147	62.09
872.314	55.5
872.482	44.05
872.649	27.08
872.816	33.8
872.983	35.45
873.15	30.75
873.318	43.49
873.485	32.77
873.652	24.46
873.819	21.96
873.986	16.51
874.153	6.28
874.32	13.42
874.487	20.66
874.654	17.7
874.821	28.78
874.988	39.32
875.155	47.47
875.322	47.48
875.489	49.18
875.656	57.72
875.823	56.98
875.99	52.29
876.157	48.58
876.324	47.06
876.49	37.19
876.657	32.86
876.824	30.26
876.991	8.93
877.157	23.2
877.324	37.47
877.491	48.19
877.658	60.77
877.824	78.13
877.991	86.19
878.157	89.72
878.324	87.41
878.491	67.14
878.657	82.33
878.824	103.28
878.99	91.25
879.157	65.15
879.323	46.82
879.49	39.57
879.656	40.18
879.823	37.89
879.989	46.46
880.156	39.45
880.322	54.33
880.488	41.24
880.655	44.2
880.821	44.03
880.987	49.09
881.154	49.62
881.32	57.23
881.486	53.04
881.652	54.79
881.819	49.3
881.985	52.33
882.151	51.32
882.317	52.99
882.483	53.02
882.649	50.63
882.816	47.24
882.982	48.22
883.148	45.69
883.314	44.48
883.48	42.91
883.646	43.5
883.812	42.24
883.978	40.97
884.144	40.34
884.31	38.75
884.476	40.79
884.642	42.11
884.807	41.73
884.973	39.43
885.139	40.2
885.305	40.16
885.471	41.53
885.637	43.28
885.802	42.34
885.968	43.38
886.134	46.2
886.3	46.54
886.465	43.89
886.631	44.31
886.797	46.54
886.962	44.24
887.128	47.16
887.293	44.48
887.459	44.35
887.625	46.75
887.79	45.29
887.956	43.55
888.121	38.23
888.287	42.89
888.452	41.19
888.618	40.1
888.783	48.71
