Data from CB_044_Reflection_00005.txt Node
Date: Wed Nov 11 22:17:09 EST 2015
User: robert
Spectrometer: USB4E03001
Autoset integration time: false
Trigger mode: 4
Integration Time (sec): 1.000000E-1
Scans to average: 15
Electric dark correction enabled: true
Nonlinearity correction enabled: false
Boxcar width: 5
Stray light correction enabled: false
XAxis mode: Wavelengths
Stop averaging: false
Number of Pixels in Spectrum: 3648
>>>>>Begin Spectral Data<<<<<
177.566	155.66
177.785	-335.53
178.005	-181.66
178.225	-571.67
178.445	99.8
178.665	38.36
178.885	74.11
179.105	22.72
179.324	43.32
179.544	55.99
179.764	33.18
179.984	-0.66
180.204	-18.76
180.423	26.1
180.643	4.47
180.863	26.73
181.083	10.76
181.302	0.3
181.522	3.91
181.742	21.44
181.961	36.29
182.181	38.29
182.401	54.98
182.621	42.09
182.84	17.79
183.06	34.07
183.279	37.21
183.499	57.44
183.719	64.04
183.938	75.62
184.158	56
184.377	36.34
184.597	44.88
184.816	36.87
185.036	48.7
185.256	73.53
185.475	97
185.695	64.05
185.914	22.56
186.134	38.61
186.353	-10.44
186.572	-5.58
186.792	-20.92
187.011	-26.16
187.231	-10.99
187.45	10.72
187.67	-15.67
187.889	-32.41
188.108	10.42
188.328	28.87
188.547	32.1
188.766	38.94
188.986	60.73
189.205	41.39
189.424	57.1
189.644	34.34
189.863	6.59
190.082	22.41
190.302	23.01
190.521	28.89
190.74	19.22
190.959	24.81
191.178	36.23
191.398	18.95
191.617	40.17
191.836	28.36
192.055	41.85
192.274	51.46
192.494	57.38
192.713	66.62
192.932	67.69
193.151	43.1
193.37	31.31
193.589	38.17
193.808	35.67
194.027	18.7
194.246	47.67
194.465	48.66
194.685	39.1
194.904	33.07
195.123	23.54
195.342	-2.87
195.561	23.26
195.78	18.45
195.999	32.27
196.218	43.56
196.436	62.8
196.655	70.9
196.874	90
197.093	86.08
197.312	83.13
197.531	99.63
197.75	106.61
197.969	113.16
198.188	101.66
198.407	86.84
198.625	82.15
198.844	72.31
199.063	65.83
199.282	45.36
199.501	56.48
199.719	54.47
199.938	46.33
200.157	30.74
200.376	41.24
200.594	54.57
200.813	61.63
201.032	65.94
201.251	87.99
201.469	85.38
201.688	105.24
201.907	83.9
202.125	60.1
202.344	44.81
202.563	51.79
202.781	35.34
203	36.56
203.218	27.9
203.437	42.99
203.656	40.99
203.874	26.67
204.093	15.87
204.311	10.31
204.53	-16.75
204.748	-1.51
204.967	8.11
205.185	8.39
205.404	1.37
205.622	9.34
205.841	1.31
206.059	-29.12
206.278	-9.2
206.496	6
206.715	9.16
206.933	37.67
207.151	46.42
207.37	45.38
207.588	44.37
207.806	41.81
208.025	40.88
208.243	52.39
208.461	64.54
208.68	58.34
208.898	63.25
209.116	57.02
209.335	63.43
209.553	40.26
209.771	56.91
209.989	56.85
210.208	51.29
210.426	52.51
210.644	55.83
210.862	59.87
211.081	76.96
211.299	65.92
211.517	105.49
211.735	77.3
211.953	96.41
212.171	74.32
212.39	76.81
212.608	86.53
212.826	75.05
213.044	79.69
213.262	74.05
213.48	78.45
213.698	78.01
213.916	46.49
214.134	42.98
214.352	32.23
214.57	21.62
214.788	39.32
215.006	41.85
215.224	40.83
215.442	-2.09
215.66	-37.69
215.878	-15.4
216.096	5.7
216.314	8.97
216.532	14.45
216.75	29.8
216.968	54.34
217.185	34.38
217.403	38.46
217.621	34.63
217.839	36.05
218.057	41.28
218.275	46.11
218.492	47.54
218.71	47.37
218.928	48.32
219.146	42.27
219.363	37.02
219.581	32.58
219.799	11.71
220.017	21.56
220.234	8.03
220.452	-0.41
220.67	10.84
220.887	-4.17
221.105	-19.9
221.323	-57.74
221.54	-42.22
221.758	-19.21
221.976	-1.37
222.193	11.8
222.411	0.14
222.629	7.53
222.846	-1.64
223.064	-2.14
223.281	11
223.499	15.64
223.716	32.28
223.934	29.51
224.151	20.05
224.369	7.09
224.586	3.16
224.804	15.46
225.021	9.39
225.239	27.71
225.456	19.45
225.674	16.08
225.891	28.38
226.108	17.32
226.326	14.63
226.543	18.02
226.76	24.73
226.978	15.24
227.195	12.15
227.413	13.79
227.63	13.31
227.847	12.98
228.064	7.64
228.282	3.3
228.499	2.9
228.716	3.55
228.934	5.5
229.151	2.42
229.368	2.25
229.585	1.97
229.802	-0.51
230.02	-3.55
230.237	-5.41
230.454	-1.77
230.671	-4.28
230.888	-4.78
231.105	-4.29
231.323	-7.43
231.54	0.08
231.757	-0.9
231.974	-3.62
232.191	-2.59
232.408	2.72
232.625	4.78
232.842	2.68
233.059	4.38
233.276	4.55
233.493	2.39
233.71	4
233.927	-3.48
234.144	1.23
234.361	4.31
234.578	9.57
234.795	5.18
235.012	4.89
235.229	3.64
235.446	6.56
235.663	6.89
235.879	3.71
236.096	1.15
236.313	3.71
236.53	0.46
236.747	5.22
236.964	2.07
237.181	1.68
237.397	0.38
237.614	3.52
237.831	3.21
238.048	3.92
238.264	8.45
238.481	11.18
238.698	12.11
238.915	12.38
239.131	8.97
239.348	8.37
239.565	12.89
239.781	10.99
239.998	12.47
240.215	9.59
240.431	11.28
240.648	15.5
240.865	13.11
241.081	12.64
241.298	12.84
241.514	10.93
241.731	11.32
241.947	8.76
242.164	10.18
242.38	7.88
242.597	8.95
242.814	8.55
243.03	7.26
243.246	6.47
243.463	7.07
243.679	7.93
243.896	9.72
244.112	10.14
244.329	12.51
244.545	10.89
244.762	9.69
244.978	10.5
245.194	8.61
245.411	8.09
245.627	8.96
245.843	9.86
246.06	9.21
246.276	9.37
246.492	7.53
246.709	6
246.925	6.77
247.141	8.23
247.357	7.39
247.574	8.03
247.79	7.54
248.006	7.75
248.222	7.67
248.439	8
248.655	7.93
248.871	8.37
249.087	8.23
249.303	8.02
249.519	7.3
249.736	7.85
249.952	7.53
250.168	7.44
250.384	5.3
250.6	3.43
250.816	3.58
251.032	1.71
251.248	3.23
251.464	2.75
251.68	3.77
251.896	3.38
252.112	3.19
252.328	2.59
252.544	3.43
252.76	6.38
252.976	6.8
253.192	5.37
253.408	6.82
253.624	6.69
253.84	8.4
254.056	8.67
254.272	11.99
254.487	11.59
254.703	12.8
254.919	14.62
255.135	13.51
255.351	12.39
255.567	14.74
255.782	15.04
255.998	15.97
256.214	15.82
256.43	17.66
256.646	15.38
256.861	13.24
257.077	13.86
257.293	10.26
257.508	9.48
257.724	10.72
257.94	9.5
258.155	8.43
258.371	6.76
258.587	7.83
258.802	7.54
259.018	6.22
259.234	6.61
259.449	6.42
259.665	7.24
259.88	6.84
260.096	6.95
260.312	5.96
260.527	6.04
260.743	6.24
260.958	5.16
261.174	4.6
261.389	5.66
261.605	5.96
261.82	5.26
262.036	5.31
262.251	6.77
262.466	6.4
262.682	7.23
262.897	6.97
263.113	5.26
263.328	6.47
263.543	5.33
263.759	3.52
263.974	3.23
264.189	5.36
264.405	3.54
264.62	1.22
264.835	-0.49
265.051	-0.53
265.266	0.23
265.481	2.05
265.696	2.07
265.912	2.65
266.127	5.02
266.342	6.15
266.557	3.92
266.773	5.17
266.988	6.31
267.203	6.66
267.418	7.36
267.633	7.22
267.848	7.77
268.064	6.89
268.279	7.06
268.494	5.02
268.709	4.96
268.924	6.64
269.139	5.88
269.354	5.99
269.569	5.87
269.784	6.3
269.999	5.68
270.214	4.64
270.429	5.48
270.644	6.34
270.859	7.3
271.074	7.09
271.289	7.59
271.504	8.76
271.719	8.26
271.934	7.61
272.149	6.73
272.363	7.76
272.578	8.08
272.793	8.16
273.008	7.56
273.223	6.99
273.438	5.83
273.653	5.76
273.867	5.43
274.082	5.01
274.297	5.6
274.512	5.65
274.726	4.38
274.941	4.63
275.156	4.23
275.371	4.62
275.585	5.8
275.8	8.39
276.015	6.74
276.229	6.41
276.444	6.55
276.659	6.97
276.873	7.65
277.088	8
277.302	8.18
277.517	8.73
277.732	8.38
277.946	7
278.161	6.16
278.375	7.03
278.59	6.89
278.804	6.2
279.019	5.07
279.233	3.49
279.448	3.89
279.662	4.57
279.877	3.73
280.091	3.81
280.306	6.05
280.52	4.95
280.735	5.78
280.949	5.64
281.163	7.08
281.378	6.19
281.592	6.76
281.806	7.61
282.021	6.55
282.235	6.18
282.449	6.46
282.664	4.36
282.878	4.76
283.092	3.91
283.307	4.47
283.521	4.19
283.735	6.52
283.949	7.28
284.164	6.42
284.378	6.52
284.592	7.27
284.806	6.74
285.02	6.2
285.234	6.73
285.449	6.22
285.663	5.91
285.877	5.43
286.091	5.03
286.305	4.48
286.519	4.68
286.733	5.07
286.947	5.09
287.161	5.25
287.375	6.5
287.589	5.96
287.803	6.03
288.017	4.96
288.231	5.45
288.445	5.74
288.659	5.96
288.873	5.6
289.087	5.3
289.301	5.63
289.515	6.61
289.729	6.07
289.943	5.75
290.157	5.79
290.371	5.81
290.584	6.71
290.798	6.18
291.012	6.9
291.226	7.49
291.44	7.41
291.654	6.09
291.867	5.03
292.081	4.65
292.295	5.38
292.509	6.15
292.722	7.32
292.936	5.52
293.15	5.79
293.364	5.58
293.577	4.94
293.791	5
294.005	4.76
294.218	4.91
294.432	7.2
294.645	7.02
294.859	6.15
295.073	5.28
295.286	5.45
295.5	5.65
295.713	4.53
295.927	3.68
296.14	4.3
296.354	5
296.568	4.99
296.781	3.81
296.994	3.61
297.208	4.84
297.421	5.05
297.635	5.15
297.848	4.62
298.062	5.04
298.275	5.86
298.489	5.67
298.702	7.09
298.915	6.9
299.129	8
299.342	8.33
299.555	8.1
299.769	9.86
299.982	10.38
300.195	10.32
300.409	9.6
300.622	9.37
300.835	9.67
301.048	6.98
301.262	7.22
301.475	6.62
301.688	6.63
301.901	5.88
302.115	4.16
302.328	3.95
302.541	3.87
302.754	4.82
302.967	4.4
303.18	5.2
303.393	6.27
303.607	6.06
303.82	5.11
304.033	4.38
304.246	3.82
304.459	4.36
304.672	4.5
304.885	6.23
305.098	6.08
305.311	6.17
305.524	4.22
305.737	4.47
305.95	4.39
306.163	5.17
306.376	6.61
306.589	7.4
306.802	6.97
307.015	7.9
307.228	6.64
307.44	7.64
307.653	9.13
307.866	9.68
308.079	10.47
308.292	9.78
308.505	9.34
308.718	9.35
308.93	10.04
309.143	9.17
309.356	8.56
309.569	8.62
309.781	7.81
309.994	7.12
310.207	7.93
310.42	7.36
310.632	8.81
310.845	9.12
311.058	8.47
311.27	8.1
311.483	8.58
311.696	8.69
311.908	9.24
312.121	9.36
312.333	9.8
312.546	9.56
312.759	9
312.971	8.31
313.184	8.1
313.396	7.99
313.609	8.02
313.821	8.51
314.034	8.43
314.246	8.23
314.459	8.92
314.671	8.86
314.884	9.13
315.096	9.93
315.309	8.06
315.521	6.98
315.733	7.78
315.946	7.05
316.158	5.89
316.371	5.88
316.583	5.09
316.795	4.46
317.008	4.09
317.22	3.07
317.432	3.4
317.644	5.09
317.857	6.01
318.069	4.67
318.281	4.01
318.494	5.64
318.706	6.26
318.918	7.04
319.13	8.1
319.342	7.35
319.555	7.78
319.767	6.75
319.979	6.82
320.191	7.35
320.403	9.85
320.615	10.78
320.827	9.89
321.039	9.58
321.252	9.48
321.464	8.99
321.676	8.94
321.888	8.82
322.1	10.22
322.312	10.09
322.524	10.15
322.736	8.25
322.948	9.1
323.16	8.49
323.372	7.51
323.584	6.54
323.796	7.18
324.007	7.28
324.219	8.04
324.431	7.12
324.643	8.24
324.855	8.37
325.067	8.39
325.279	7.86
325.491	9.05
325.702	10.19
325.914	11.29
326.126	10.39
326.338	9.71
326.55	9
326.761	9.64
326.973	9.23
327.185	9.55
327.396	9.91
327.608	9.54
327.82	9.91
328.032	9.59
328.243	9.47
328.455	10.38
328.666	11.35
328.878	10.97
329.09	11.41
329.301	11.03
329.513	9.89
329.725	9.37
329.936	10.38
330.148	9.56
330.359	9.03
330.571	9.25
330.782	8.6
330.994	9
331.205	10.27
331.417	10.12
331.628	10.13
331.84	10.86
332.051	12.84
332.262	13.43
332.474	14.34
332.685	15.26
332.897	14.94
333.108	15.83
333.319	16.07
333.531	15.74
333.742	15.81
333.953	16.77
334.165	16.32
334.376	15.96
334.587	14.58
334.799	14.49
335.01	13.65
335.221	13.75
335.432	12.93
335.644	12.5
335.855	11.98
336.066	11.91
336.277	12.12
336.488	12.36
336.7	11.36
336.911	12.41
337.122	12.15
337.333	12.63
337.544	12.56
337.755	12.88
337.966	12.97
338.177	13.75
338.388	13.43
338.599	13.73
338.811	12.3
339.022	13.11
339.233	12.41
339.444	12.16
339.655	11.95
339.866	11.71
340.076	10.39
340.287	11.19
340.498	10.52
340.709	10.87
340.92	10.33
341.131	11.77
341.342	11.08
341.553	11.36
341.764	11.41
341.975	11.35
342.185	11.79
342.396	13.29
342.607	12.76
342.818	12.38
343.029	11.36
343.239	11.54
343.45	11.53
343.661	11.51
343.872	10.74
344.082	10.62
344.293	11.22
344.504	10.77
344.714	10.47
344.925	9.91
345.136	10.44
345.346	12.02
345.557	10.85
345.768	10.62
345.978	11.2
346.189	12.6
346.399	12.73
346.61	12.31
346.821	13.32
347.031	13.14
347.242	13.93
347.452	14.35
347.663	14.17
347.873	15.39
348.084	15.58
348.294	15.35
348.504	14.69
348.715	14.91
348.925	15.07
349.136	14.21
349.346	13.52
349.557	12.95
349.767	12.96
349.977	12.83
350.188	11.98
350.398	12.4
350.608	11.63
350.819	11.9
351.029	11.2
351.239	10.73
351.449	10.99
351.66	10.44
351.87	11.03
352.08	11.01
352.29	10.91
352.501	11.76
352.711	11.79
352.921	12.42
353.131	11.77
353.341	12.37
353.552	12.92
353.762	13.21
353.972	14.71
354.182	14.35
354.392	14.62
354.602	14.04
354.812	13.2
355.022	12.94
355.232	13.21
355.442	14.08
355.652	14.32
355.862	14.03
356.072	13.25
356.282	13.12
356.492	13.43
356.702	13.15
356.912	12.87
357.122	13.01
357.332	13.49
357.542	13.54
357.752	12.77
357.962	11.7
358.171	11.31
358.381	11.64
358.591	11.21
358.801	10.77
359.011	10.18
359.221	10.84
359.43	11.36
359.64	10.63
359.85	10.69
360.06	10.63
360.269	11.19
360.479	11.42
360.689	11.37
360.899	11.67
361.108	12.15
361.318	12.55
361.528	12.29
361.737	12.03
361.947	11.9
362.156	11.52
362.366	11.97
362.576	12
362.785	12.5
362.995	12.77
363.204	12.98
363.414	12.76
363.623	12.22
363.833	11.9
364.042	11.59
364.252	12.58
364.461	12.58
364.671	12.51
364.88	12.56
365.09	12.23
365.299	12.23
365.509	11.75
365.718	12
365.927	12.13
366.137	11.82
366.346	11.93
366.555	11.48
366.765	10.99
366.974	10.84
367.183	10.94
367.393	11.23
367.602	10.68
367.811	10.72
368.021	9.88
368.23	9.65
368.439	10.4
368.648	10.34
368.857	9.55
369.067	9.36
369.276	8.76
369.485	8.87
369.694	8.18
369.903	8.07
370.112	7.99
370.321	7.81
370.531	7.91
370.74	7.89
370.949	8.29
371.158	8.22
371.367	8.75
371.576	9.4
371.785	9.2
371.994	9.27
372.203	9.42
372.412	9.76
372.621	10.45
372.83	10.08
373.039	10.09
373.248	9.71
373.457	10.35
373.666	10.21
373.874	9.89
374.083	9.11
374.292	8.65
374.501	8.86
374.71	8.45
374.919	7.85
375.128	8.59
375.336	8.62
375.545	8.8
375.754	8.79
375.963	8.83
376.171	8.58
376.38	8.76
376.589	9.24
376.798	9.01
377.006	8.77
377.215	9.01
377.424	8.91
377.632	8.94
377.841	8.54
378.05	8.17
378.258	8.17
378.467	7.95
378.675	8.2
378.884	8.42
379.093	8
379.301	8.41
379.51	8.49
379.718	8.32
379.927	8.16
380.135	8.32
380.344	8.48
380.552	8.54
380.761	8.13
380.969	7.87
381.177	7.52
381.386	7.37
381.594	7.37
381.803	6.98
382.011	6.92
382.219	6.88
382.428	6.91
382.636	6.3
382.845	6.16
383.053	6.48
383.261	6.35
383.469	6.19
383.678	6.05
383.886	5.54
384.094	5.86
384.302	6.23
384.511	5.83
384.719	5.73
384.927	6.06
385.135	6.12
385.343	6.48
385.552	6.85
385.76	7.22
385.968	7.44
386.176	7.62
386.384	7.41
386.592	7.11
386.8	7.61
387.008	7.71
387.216	7.83
387.424	7.99
387.633	7.6
387.841	7.37
388.049	6.8
388.257	7.14
388.465	7.16
388.672	6.98
388.88	6.68
389.088	6.1
389.296	5.36
389.504	5.33
389.712	5.4
389.92	5.49
390.128	5.47
390.336	5.56
390.544	5.35
390.751	5.28
390.959	5.55
391.167	5.64
391.375	5.95
391.583	6.59
391.79	6.48
391.998	6.1
392.206	6.09
392.414	6.08
392.621	5.57
392.829	5.46
393.037	5.29
393.244	5.38
393.452	5.46
393.66	5.26
393.867	5.19
394.075	5.47
394.283	5.48
394.49	5.75
394.698	5.54
394.905	6.23
395.113	6.11
395.32	6.14
395.528	5.81
395.735	5.77
395.943	5.66
396.15	5.59
396.358	5.09
396.565	5.24
396.773	4.88
396.98	5.02
397.188	4.52
397.395	4.82
397.602	5.14
397.81	5.39
398.017	5.1
398.225	4.85
398.432	4.89
398.639	4.87
398.847	4.76
399.054	4.78
399.261	4.67
399.468	4.78
399.676	4.32
399.883	4.1
400.09	3.48
400.297	3.87
400.505	4
400.712	3.75
400.919	3.93
401.126	3.72
401.333	3.42
401.54	3.35
401.748	3.47
401.955	4.03
402.162	3.93
402.369	4.48
402.576	4.35
402.783	5.07
402.99	5.21
403.197	5.05
403.404	5.3
403.611	5.93
403.818	6.05
404.025	6.11
404.232	6.07
404.439	6.14
404.646	5.94
404.853	5.94
405.06	5.4
405.267	5.31
405.474	5.28
405.681	4.94
405.887	4.83
406.094	4.84
406.301	4.79
406.508	4.57
406.715	4.53
406.922	4.76
407.128	4.76
407.335	4.54
407.542	4.68
407.749	4.66
407.955	4.79
408.162	4.39
408.369	4.16
408.575	4.13
408.782	4.19
408.989	4.12
409.195	3.67
409.402	3.38
409.609	3.63
409.815	3.24
410.022	3.4
410.228	3.55
410.435	3.74
410.642	3.68
410.848	3.67
411.055	3.71
411.261	3.59
411.468	3.79
411.674	4
411.881	4
412.087	4.23
412.294	4.22
412.5	4.35
412.706	4.2
412.913	4.09
413.119	3.84
413.326	3.71
413.532	3.69
413.738	3.76
413.945	3.3
414.151	3.4
414.357	3.23
414.564	3.13
414.77	3.1
414.976	3.31
415.182	3.64
415.389	3.8
415.595	3.5
415.801	3.7
416.007	3.86
416.214	4.05
416.42	4.01
416.626	4.09
416.832	4.11
417.038	4.15
417.244	4.04
417.45	3.95
417.657	4.1
417.863	4.46
418.069	4.3
418.275	4.09
418.481	4.11
418.687	4.26
418.893	4.24
419.099	4.42
419.305	4.06
419.511	4.13
419.717	4.26
419.923	3.99
420.129	3.85
420.335	3.96
420.541	4
420.746	3.94
420.952	3.72
421.158	3.69
421.364	3.44
421.57	3.51
421.776	3.62
421.982	3.63
422.187	3.84
422.393	3.9
422.599	3.75
422.805	3.73
423.01	3.85
423.216	3.88
423.422	3.9
423.628	3.94
423.833	3.94
424.039	3.72
424.245	3.7
424.45	3.66
424.656	3.67
424.862	3.78
425.067	3.99
425.273	4.06
425.478	4.13
425.684	4.18
425.889	4.15
426.095	4.26
426.301	4.35
426.506	4.24
426.712	4.13
426.917	4.1
427.123	4.06
427.328	3.73
427.533	3.44
427.739	3.27
427.944	3.22
428.15	3.22
428.355	3.11
428.561	2.91
428.766	3.09
428.971	3.44
429.177	3.46
429.382	3.36
429.587	3.42
429.793	3.62
429.998	3.76
430.203	3.52
430.408	3.58
430.614	3.76
430.819	3.84
431.024	3.77
431.229	3.51
431.434	3.25
431.64	3.46
431.845	3.59
432.05	3.57
432.255	3.4
432.46	3.52
432.665	3.43
432.87	3.43
433.076	3.6
433.281	3.36
433.486	3.24
433.691	3.46
433.896	3.26
434.101	3.13
434.306	3.25
434.511	3.33
434.716	3.45
434.921	3.7
435.126	3.54
435.331	3.4
435.535	3.57
435.74	3.63
435.945	3.63
436.15	3.83
436.355	3.92
436.56	3.82
436.765	3.72
436.97	3.56
437.174	3.45
437.379	3.47
437.584	3.52
437.789	3.41
437.993	3.49
438.198	3.39
438.403	3.28
438.608	3.21
438.812	3.31
439.017	3.46
439.222	3.53
439.426	3.46
439.631	3.36
439.836	3.38
440.04	3.42
440.245	3.39
440.45	3.37
440.654	3.55
440.859	3.49
441.063	3.29
441.268	3.41
441.472	3.48
441.677	3.57
441.881	3.73
442.086	3.73
442.29	3.74
442.495	3.75
442.699	3.92
442.904	3.63
443.108	3.57
443.312	3.6
443.517	3.49
443.721	3.32
443.925	3.26
444.13	3.25
444.334	3.26
444.538	3.15
444.743	2.96
444.947	2.8
445.151	2.89
445.356	2.98
445.56	3.1
445.764	3.1
445.968	3.1
446.173	3.16
446.377	3.05
446.581	3.1
446.785	3.18
446.989	3.26
447.193	3.38
447.398	3.31
447.602	3.22
447.806	3.07
448.01	3.15
448.214	3.17
448.418	3.02
448.622	2.9
448.826	2.87
449.03	2.94
449.234	3.01
449.438	2.93
449.642	3.04
449.846	3.15
450.05	3.35
450.254	3.14
450.458	3.3
450.662	3.28
450.866	3.35
451.069	3.22
451.273	2.88
451.477	2.75
451.681	2.87
451.885	2.8
452.089	2.68
452.292	2.69
452.496	2.7
452.7	2.67
452.904	2.84
453.107	3.12
453.311	3.14
453.515	3.32
453.719	3.48
453.922	3.47
454.126	3.65
454.33	3.79
454.533	3.86
454.737	4.06
454.94	3.9
455.144	3.79
455.348	3.7
455.551	3.81
455.755	3.79
455.958	3.82
456.162	3.65
456.365	3.62
456.569	3.77
456.772	3.57
456.976	3.38
457.179	3.43
457.383	3.38
457.586	3.41
457.79	3.43
457.993	3.39
458.196	3.37
458.4	3.26
458.603	3.12
458.807	3.05
459.01	3.08
459.213	3.17
459.417	3.16
459.62	3.29
459.823	3.26
460.026	3.2
460.23	3.21
460.433	3.14
460.636	3.24
460.839	3.29
461.042	3.32
461.246	3.28
461.449	3.27
461.652	3.16
461.855	3.08
462.058	2.93
462.261	2.86
462.464	2.82
462.668	2.97
462.871	3.07
463.074	2.9
463.277	2.67
463.48	2.76
463.683	2.67
463.886	2.78
464.089	2.97
464.292	3.2
464.495	3
464.698	3.26
464.901	3.15
465.104	3.01
465.306	3.13
465.509	3.26
465.712	3.16
465.915	3.16
466.118	3.2
466.321	2.99
466.524	2.8
466.726	2.88
466.929	2.77
467.132	2.57
467.335	2.56
467.538	2.74
467.74	2.82
467.943	2.8
468.146	2.85
468.348	2.89
468.551	2.83
468.754	3.08
468.956	3.22
469.159	3.09
469.362	3.27
469.564	3.47
469.767	3.23
469.969	3.26
470.172	3.3
470.375	3.23
470.577	3.3
470.78	3.52
470.982	3.25
471.185	3.39
471.387	3.4
471.59	3.39
471.792	3.23
471.995	3.28
472.197	3.26
472.399	3.09
472.602	3.08
472.804	3.2
473.007	3.15
473.209	3.2
473.411	3.02
473.614	3.07
473.816	2.88
474.018	2.84
474.22	2.93
474.423	2.91
474.625	2.86
474.827	2.98
475.03	2.77
475.232	2.66
475.434	2.6
475.636	2.54
475.838	2.57
476.04	2.61
476.243	2.59
476.445	2.53
476.647	2.48
476.849	2.96
477.051	2.89
477.253	2.84
477.455	2.68
477.657	2.74
477.859	2.93
478.061	3.15
478.263	3.2
478.465	3.39
478.667	3.27
478.869	3.26
479.071	3.09
479.273	3.22
479.475	3.41
479.677	3.56
479.879	3.63
480.081	3.59
480.283	3.33
480.485	3.55
480.686	3.38
480.888	3.55
481.09	3.63
481.292	3.67
481.494	3.62
481.695	3.52
481.897	3.61
482.099	3.64
482.301	3.56
482.502	3.62
482.704	3.52
482.906	3.47
483.107	3.46
483.309	3.34
483.511	3.24
483.712	3.17
483.914	3.18
484.115	3.15
484.317	3.07
484.519	3.08
484.72	3.08
484.922	3.04
485.123	3.12
485.325	3.1
485.526	3.14
485.728	3.18
485.929	3.23
486.131	3.2
486.332	3.22
486.534	3.26
486.735	3.27
486.936	3.31
487.138	3.36
487.339	3.37
487.541	3.4
487.742	3.44
487.943	3.42
488.144	3.42
488.346	3.39
488.547	3.39
488.748	3.41
488.95	3.4
489.151	3.28
489.352	3.22
489.553	3.1
489.755	3.05
489.956	3
490.157	2.97
490.358	3.03
490.559	3.07
490.76	3.05
490.961	3.05
491.163	3.06
491.364	3.16
491.565	3.19
491.766	3.21
491.967	3.24
492.168	3.22
492.369	3.2
492.57	3.08
492.771	3.13
492.972	3.07
493.173	2.99
493.374	3.03
493.575	2.92
493.776	2.83
493.976	2.79
494.177	2.69
494.378	2.77
494.579	2.93
494.78	2.98
494.981	2.81
495.182	2.9
495.382	3.22
495.583	3.12
495.784	3.22
495.985	3.35
496.185	3.47
496.386	3.59
496.587	3.55
496.788	3.48
496.988	3.36
497.189	3.4
497.39	3.53
497.59	3.41
497.791	3.48
497.992	3.5
498.192	3.52
498.393	3.35
498.593	3.34
498.794	3.28
498.994	3.27
499.195	3.43
499.395	3.6
499.596	3.55
499.796	3.47
499.997	3.69
500.197	3.78
500.398	3.85
500.598	3.92
500.799	3.85
500.999	4.02
501.199	4.13
501.4	4.09
501.6	4.03
501.801	3.96
502.001	3.97
502.201	3.62
502.402	3.5
502.602	3.47
502.802	3.6
503.002	3.76
503.203	3.54
503.403	3.46
503.603	3.66
503.803	3.91
504.003	3.84
504.204	3.86
504.404	4.27
504.604	4.31
504.804	4.45
505.004	4.43
505.204	4.34
505.404	4.47
505.604	4.49
505.804	4.61
506.005	4.43
506.205	4.58
506.405	4.68
506.605	4.34
506.805	4.59
507.005	4.55
507.204	4.59
507.404	4.69
507.604	4.74
507.804	4.95
508.004	4.81
508.204	4.77
508.404	4.85
508.604	4.86
508.804	4.97
509.003	4.99
509.203	4.95
509.403	5.01
509.603	5.12
509.803	5.2
510.002	5.23
510.202	5.42
510.402	5.58
510.602	5.68
510.801	5.73
511.001	5.77
511.201	5.75
511.4	5.93
511.6	6.07
511.8	6.09
511.999	6.21
512.199	6.21
512.398	6.19
512.598	6.33
512.797	6.35
512.997	6.55
513.197	6.68
513.396	6.63
513.596	6.57
513.795	6.62
513.994	6.7
514.194	6.6
514.393	6.5
514.593	6.56
514.792	6.48
514.992	6.57
515.191	6.48
515.39	6.55
515.59	6.88
515.789	7.07
515.988	7.15
516.188	7.19
516.387	7.27
516.586	7.61
516.786	7.59
516.985	7.82
517.184	7.82
517.383	8.09
517.582	8.12
517.782	8.07
517.981	8.13
518.18	8.15
518.379	8.35
518.578	8.54
518.777	8.46
518.976	8.59
519.176	8.55
519.375	8.83
519.574	8.87
519.773	9
519.972	9.09
520.171	9.13
520.37	9.35
520.569	9.25
520.768	9.24
520.967	9.62
521.166	9.73
521.365	9.89
521.564	9.82
521.762	9.79
521.961	9.97
522.16	10.26
522.359	10.2
522.558	10.14
522.757	10.17
522.956	10.35
523.154	10.22
523.353	10.37
523.552	10.63
523.751	10.7
523.949	10.79
524.148	10.77
524.347	10.78
524.546	11.12
524.744	11.23
524.943	11.46
525.142	11.47
525.34	11.53
525.539	11.54
525.737	11.55
525.936	11.64
526.135	11.93
526.333	12.03
526.532	12.01
526.73	12.07
526.929	12.21
527.127	12.31
527.326	12.48
527.524	12.6
527.723	12.83
527.921	12.92
528.12	13.02
528.318	12.98
528.516	13.02
528.715	13.12
528.913	13.17
529.112	13.21
529.31	13.25
529.508	13.27
529.707	13.34
529.905	13.28
530.103	13.27
530.301	13.25
530.5	13.31
530.698	13.43
530.896	13.52
531.094	13.61
531.293	13.7
531.491	13.83
531.689	14.07
531.887	14.14
532.085	14.39
532.283	14.46
532.481	14.64
532.68	14.75
532.878	14.89
533.076	14.98
533.274	15.05
533.472	15.1
533.67	15.2
533.868	15.22
534.066	15.34
534.264	15.35
534.462	15.57
534.66	15.59
534.858	15.72
535.056	15.78
535.253	15.83
535.451	15.84
535.649	15.92
535.847	15.9
536.045	15.96
536.243	15.94
536.441	15.98
536.638	15.97
536.836	16.15
537.034	16.13
537.232	16.18
537.43	16.35
537.627	16.5
537.825	16.76
538.023	16.91
538.22	17
538.418	17.28
538.616	17.32
538.813	17.5
539.011	17.5
539.209	17.53
539.406	17.59
539.604	17.73
539.801	17.85
539.999	17.8
540.196	17.98
540.394	18.04
540.591	18.06
540.789	18.23
540.986	18.2
541.184	18.34
541.381	18.52
541.579	18.62
541.776	18.52
541.974	18.51
542.171	18.59
542.368	18.62
542.566	18.75
542.763	18.85
542.96	18.91
543.158	19
543.355	19.08
543.552	19.11
543.75	19.2
543.947	19.27
544.144	19.44
544.341	19.52
544.539	19.62
544.736	19.56
544.933	19.53
545.13	19.59
545.327	19.84
545.524	19.82
545.722	19.74
545.919	19.7
546.116	19.89
546.313	19.96
546.51	20.02
546.707	20.14
546.904	20.4
547.101	20.51
547.298	20.61
547.495	20.51
547.692	20.55
547.889	20.78
548.086	20.99
548.283	20.99
548.48	21.2
548.677	21.34
548.874	21.22
549.07	21.18
549.267	21.28
549.464	21.48
549.661	21.74
549.858	22.03
550.055	22.17
550.251	22.17
550.448	22.51
550.645	22.62
550.842	22.42
551.038	22.81
551.235	22.96
551.432	22.97
551.628	23.08
551.825	22.93
552.022	22.91
552.218	22.78
552.415	22.94
552.612	22.95
552.808	22.96
553.005	23.34
553.201	23.26
553.398	23.25
553.594	23.51
553.791	23.3
553.987	23.37
554.184	23.37
554.38	23.59
554.577	23.6
554.773	23.56
554.97	23.45
555.166	23.32
555.362	23.51
555.559	23.67
555.755	23.46
555.952	23.71
556.148	23.9
556.344	24.14
556.541	24.18
556.737	24.24
556.933	24.38
557.129	24.55
557.326	24.7
557.522	24.55
557.718	24.43
557.914	24.75
558.11	24.87
558.307	24.99
558.503	25.12
558.699	25.17
558.895	25.2
559.091	25.32
559.287	25.33
559.483	25.34
559.679	25.56
559.876	26.01
560.072	25.96
560.268	26.01
560.464	26.1
560.66	26.05
560.856	26.27
561.052	26.12
561.247	26.1
561.443	26.23
561.639	26.32
561.835	26.41
562.031	26.25
562.227	26.29
562.423	26.22
562.619	26.1
562.815	26.19
563.01	26.24
563.206	26.64
563.402	26.8
563.598	26.93
563.793	26.92
563.989	26.72
564.185	26.92
564.381	27.11
564.576	27.2
564.772	27.17
564.968	27.31
565.163	27.21
565.359	27.01
565.555	27.1
565.75	27.01
565.946	27.07
566.141	27.33
566.337	27.14
566.532	27.09
566.728	27.38
566.923	27.65
567.119	27.84
567.314	28.02
567.51	28.16
567.705	28.14
567.901	28.17
568.096	28.4
568.292	28.37
568.487	28.34
568.682	28.49
568.878	28.27
569.073	28.34
569.268	28.12
569.464	28.07
569.659	28.13
569.854	28.05
570.05	28.42
570.245	28.45
570.44	28.65
570.635	28.93
570.831	28.99
571.026	29.32
571.221	29.38
571.416	29.39
571.611	29.47
571.806	29.64
572.002	29.92
572.197	29.66
572.392	29.63
572.587	29.49
572.782	29.41
572.977	29.3
573.172	29.15
573.367	29.09
573.562	29.16
573.757	29.23
573.952	29.17
574.147	29.2
574.342	29.45
574.537	29.45
574.732	29.64
574.927	30.01
575.121	30.27
575.316	30.24
575.511	30.38
575.706	30.29
575.901	30.43
576.096	30.61
576.29	30.65
576.485	30.68
576.68	30.74
576.875	30.75
577.069	30.61
577.264	30.55
577.459	30.77
577.654	30.88
577.848	31.05
578.043	30.93
578.238	30.91
578.432	30.85
578.627	30.73
578.821	30.95
579.016	31.15
579.21	30.95
579.405	30.73
579.6	30.56
579.794	30.47
579.989	30.56
580.183	30.32
580.378	30.29
580.572	30.25
580.766	30.57
580.961	30.86
581.155	30.74
581.35	30.97
581.544	31.16
581.738	31.23
581.933	31.38
582.127	31.49
582.321	31.8
582.516	31.71
582.71	31.94
582.904	31.79
583.099	31.45
583.293	31.52
583.487	31.69
583.681	31.89
583.875	32.04
584.07	31.98
584.264	31.9
584.458	31.73
584.652	31.81
584.846	31.45
585.04	31.5
585.234	31.47
585.428	31.47
585.623	31.26
585.817	31.27
586.011	31.04
586.205	30.99
586.399	31.19
586.593	31.41
586.787	31.41
586.981	31.54
587.174	31.54
587.368	31.75
587.562	31.81
587.756	32.11
587.95	31.84
588.144	32.14
588.338	31.89
588.532	31.78
588.725	31.97
588.919	31.99
589.113	32.03
589.307	32.02
589.501	32.19
589.694	32.26
589.888	32.08
590.082	32.21
590.275	32.29
590.469	32.49
590.663	32.43
590.856	32.42
591.05	32.39
591.244	32.6
591.437	32.29
591.631	32.36
591.824	32.17
592.018	32.15
592.212	32.17
592.405	32.04
592.599	32.18
592.792	32.16
592.986	32.2
593.179	32.55
593.372	32.72
593.566	32.97
593.759	32.49
593.953	32.4
594.146	32.4
594.339	32.43
594.533	32.49
594.726	32.4
594.92	32.39
595.113	32.57
595.306	32.55
595.499	32.18
595.693	32.13
595.886	32.24
596.079	32.37
596.272	32.36
596.466	32.32
596.659	32.31
596.852	32.47
597.045	32.72
597.238	32.5
597.431	32.39
597.624	32.55
597.818	32.75
598.011	32.74
598.204	32.8
598.397	32.97
598.59	32.92
598.783	33.01
598.976	33
599.169	32.86
599.362	32.87
599.555	33.02
599.748	33.24
599.941	33.48
600.134	33.74
600.326	33.82
600.519	33.97
600.712	34.05
600.905	33.93
601.098	33.84
601.291	34.03
601.483	34.06
601.676	34
601.869	33.82
602.062	33.62
602.255	33.54
602.447	33.38
602.64	33.27
602.833	33.39
603.025	33.51
603.218	33.57
603.411	33.54
603.603	33.72
603.796	33.79
603.989	33.83
604.181	33.82
604.374	33.83
604.566	33.94
604.759	34.21
604.951	34.26
605.144	34.28
605.336	34.25
605.529	34.17
605.721	34.15
605.914	34.07
606.106	34.06
606.299	34.21
606.491	34.29
606.683	34.44
606.876	34.16
607.068	34.12
607.26	34.31
607.453	34.44
607.645	34.51
607.837	34.62
608.03	34.48
608.222	34.61
608.414	34.53
608.606	34.3
608.799	34.6
608.991	34.54
609.183	34.59
609.375	34.37
609.567	34.36
609.759	34.36
609.952	34.34
610.144	34.53
610.336	34.21
610.528	34.14
610.72	34.42
610.912	34.07
611.104	34
611.296	34.08
611.488	34.11
611.68	34.12
611.872	34.08
612.064	33.79
612.256	33.7
612.448	34.15
612.64	34.35
612.832	34.19
613.023	34.14
613.215	34.28
613.407	34.06
613.599	34.16
613.791	33.93
613.983	34.39
614.174	34.5
614.366	34.64
614.558	34.59
614.75	34.44
614.941	34.68
615.133	34.69
615.325	34.57
615.516	34.68
615.708	34.72
615.9	34.94
616.091	34.56
616.283	34.66
616.475	34.42
616.666	34.53
616.858	34.65
617.049	34.53
617.241	34.86
617.432	34.85
617.624	34.83
617.815	34.86
618.007	35.02
618.198	35.33
618.39	35.43
618.581	35.77
618.773	35.72
618.964	35.61
619.155	35.59
619.347	35.27
619.538	35.57
619.729	35.58
619.921	35.53
620.112	35.71
620.303	35.64
620.494	35.19
620.686	35.2
620.877	35.21
621.068	35.36
621.259	35.47
621.451	35.34
621.642	35.19
621.833	35.62
622.024	35.71
622.215	35.33
622.406	35.19
622.597	35.5
622.788	35.12
622.98	35.07
623.171	34.93
623.362	34.98
623.553	35.16
623.744	35.36
623.935	35.09
624.126	34.85
624.317	34.95
624.508	35.02
624.698	35
624.889	35.44
625.08	35.31
625.271	35.5
625.462	35.28
625.653	35.4
625.844	35.35
626.034	35.48
626.225	35.66
626.416	35.74
626.607	35.63
626.798	35.56
626.988	35.55
627.179	35.66
627.37	35.68
627.56	35.93
627.751	35.76
627.942	35.74
628.132	35.38
628.323	35.33
628.514	35.34
628.704	35.37
628.895	35.61
629.085	35.71
629.276	35.67
629.466	35.42
629.657	35.24
629.847	35.28
630.038	35.21
630.228	35.73
630.419	35.82
630.609	35.87
630.8	35.86
630.99	35.81
631.181	35.52
631.371	35.51
631.561	35.86
631.752	36.16
631.942	36.45
632.132	36.67
632.323	36.38
632.513	36.5
632.703	36.38
632.893	36.46
633.084	36.24
633.274	36.35
633.464	36.27
633.654	35.96
633.844	35.66
634.034	35.46
634.225	35.24
634.415	35.33
634.605	35.24
634.795	35.46
634.985	35.36
635.175	35.57
635.365	35.59
635.555	35.66
635.745	35.74
635.935	35.91
636.125	36.08
636.315	36.11
636.505	36.21
636.695	36.07
636.885	35.89
637.075	36.09
637.265	36.11
637.455	36.05
637.644	36.1
637.834	36.17
638.024	35.89
638.214	35.88
638.404	35.89
638.593	35.78
638.783	35.33
638.973	35.33
639.163	35.31
639.352	34.93
639.542	35.17
639.732	35.33
639.921	35.16
640.111	35.29
640.301	35.22
640.49	35.38
640.68	35.48
640.87	36.11
641.059	35.97
641.249	35.68
641.438	35.71
641.628	35.44
641.817	35.26
642.007	35.45
642.196	35.79
642.386	35.56
642.575	35.28
642.764	34.67
642.954	34.86
643.143	34.92
643.333	35.05
643.522	35.24
643.711	35.47
643.901	35.43
644.09	35.34
644.279	35.41
644.469	35.2
644.658	35.14
644.847	35.58
645.036	35.29
645.226	35.48
645.415	35.49
645.604	35.35
645.793	35.25
645.982	35.31
646.171	35.06
646.361	34.72
646.55	35.12
646.739	35.73
646.928	35.93
647.117	35.82
647.306	35.52
647.495	36.07
647.684	36.22
647.873	36.27
648.062	36.71
648.251	36.63
648.44	36.69
648.629	36.99
648.818	36.55
649.007	36.49
649.196	36.61
649.384	36.83
649.573	36.4
649.762	36.5
649.951	36.23
650.14	35.77
650.328	36.57
650.517	36.68
650.706	36.32
650.895	36.62
651.083	36.2
651.272	36.18
651.461	36.09
651.65	36.17
651.838	36.39
652.027	36.77
652.216	37.07
652.404	36.83
652.593	36.73
652.781	36.67
652.97	36.33
653.158	36.76
653.347	36.81
653.535	37.06
653.724	37.15
653.912	36.85
654.101	36.8
654.289	36.72
654.478	36.99
654.666	36.66
654.855	36.97
655.043	36.98
655.231	36.87
655.42	36.93
655.608	36.99
655.796	36.71
655.985	36.5
656.173	36.59
656.361	36.39
656.55	35.77
656.738	35.99
656.926	36.06
657.114	36.13
657.302	36.21
657.491	36.11
657.679	35.71
657.867	35.86
658.055	36.24
658.243	36.19
658.431	36.17
658.619	36.34
658.807	36.79
658.996	36.69
659.184	36.75
659.372	36.68
659.56	36.71
659.748	36.85
659.936	36.8
660.124	36.6
660.311	36.56
660.499	36.49
660.687	36.49
660.875	35.92
661.063	35.85
661.251	36.15
661.439	36.42
661.627	36.77
661.814	36.9
662.002	37.18
662.19	37.45
662.378	37.17
662.565	37.24
662.753	37.33
662.941	37.65
663.129	37.94
663.316	37.43
663.504	36.94
663.692	36.41
663.879	36.26
664.067	35.82
664.254	35.54
664.442	35.83
664.63	36.15
664.817	36.22
665.005	36.1
665.192	35.69
665.38	35.6
665.567	36.07
665.755	36.45
665.942	36.45
666.13	36.53
666.317	36.47
666.504	36.16
666.692	36.19
666.879	35.68
667.067	36.01
667.254	36.07
667.441	36.33
667.629	36.3
667.816	35.93
668.003	36.41
668.19	36.34
668.378	36.72
668.565	36.78
668.752	36.48
668.939	36.97
669.127	36.61
669.314	37.01
669.501	37.13
669.688	36.93
669.875	37.35
670.062	36.99
670.249	36.9
670.436	36.49
670.623	36.79
670.81	36.67
670.997	36.67
671.184	36.43
671.371	36.4
671.558	36.22
671.745	36.04
671.932	35.72
672.119	35.58
672.306	35.8
672.493	36.08
672.68	35.79
672.867	35.8
673.054	35.45
673.24	35.5
673.427	35.44
673.614	35.44
673.801	35.93
673.988	36.56
674.174	36.8
674.361	36.54
674.548	36.23
674.734	36.16
674.921	36.46
675.108	36.49
675.294	36.95
675.481	36.5
675.668	36.27
675.854	36.15
676.041	35.39
676.227	35.04
676.414	35.08
676.601	35.2
676.787	35.41
676.974	35.02
677.16	35.62
677.347	35.79
677.533	36.19
677.719	36.76
677.906	36.44
678.092	36.51
678.279	36.88
678.465	37.28
678.651	37.78
678.838	37.56
679.024	37.58
679.21	36.97
679.397	36.79
679.583	36.67
679.769	36.35
679.955	36.56
680.142	36.21
680.328	35.76
680.514	35.71
680.7	35.77
680.886	36.04
681.073	36.19
681.259	36.65
681.445	36.53
681.631	36.7
681.817	36.49
682.003	36.29
682.189	36.67
682.375	36.82
682.561	36.64
682.747	36.24
682.933	36.12
683.119	35.89
683.305	35.74
683.491	36.02
683.677	35.74
683.863	35.9
684.049	36.17
684.235	36.4
684.42	36.77
684.606	36.93
684.792	36.87
684.978	37.15
685.164	37.67
685.349	37.57
685.535	37.07
685.721	37.43
685.907	37.51
686.092	37.37
686.278	36.9
686.464	36.8
686.649	36.76
686.835	36.8
687.021	36.84
687.206	36.47
687.392	36.34
687.577	36.5
687.763	36.01
687.948	36.62
688.134	36.55
688.319	36.78
688.505	36.84
688.69	37.54
688.876	37.39
689.061	37.08
689.247	36.91
689.432	37.21
689.618	37.54
689.803	37.81
689.988	36.91
690.174	36.69
690.359	36.31
690.544	35.59
690.73	35.14
690.915	35.66
691.1	35.63
691.285	36.58
691.471	36.76
691.656	36.23
691.841	36.48
692.026	36.49
692.211	36.86
692.396	37.59
692.582	38.52
692.767	37.88
692.952	37.25
693.137	37.08
693.322	36.62
693.507	36.31
693.692	36.49
693.877	36.48
694.062	36.69
694.247	36.41
694.432	36.21
694.617	35.91
694.802	36.58
694.987	36.82
695.172	37.44
695.357	37.63
695.541	37.43
695.726	38.04
695.911	38.08
696.096	38.5
696.281	38.06
696.466	38.29
696.65	38.32
696.835	37.87
697.02	38.04
697.204	37.8
697.389	37.59
697.574	38.08
697.759	37.78
697.943	37.15
698.128	37.35
698.312	37.96
698.497	37.65
698.682	37.56
698.866	37.82
699.051	37.9
699.235	37.58
699.42	37
699.604	36.89
699.789	36.41
699.973	36.93
700.158	36.31
700.342	35.92
700.527	35.73
700.711	35.79
700.895	35.7
701.08	35.19
701.264	35.59
701.448	36.37
701.633	36.14
701.817	36.35
702.001	35.81
702.186	35.97
702.37	35.99
702.554	35.75
702.738	35.7
702.923	35.12
703.107	35.77
703.291	35.71
703.475	35.19
703.659	35.45
703.843	35.88
704.027	35.92
704.212	35.85
704.396	36.17
704.58	37.16
704.764	36.86
704.948	37.26
705.132	37.15
705.316	37.02
705.5	37.31
705.684	37.63
705.868	37.97
706.052	38.74
706.235	39.46
706.419	40.12
706.603	39.92
706.787	39.58
706.971	39.58
707.155	39.54
707.339	39.71
707.522	40.71
707.706	40.49
707.89	40.74
708.074	40.86
708.257	40.95
708.441	40.58
708.625	40.77
708.808	41.01
708.992	41.48
709.176	41.61
709.359	41.41
709.543	41.44
709.727	40.8
709.91	40.36
710.094	40.44
710.277	40.47
710.461	40.18
710.644	40.11
710.828	41.01
711.011	41.43
711.195	41.37
711.378	41.27
711.562	40.3
711.745	40.52
711.928	40.73
712.112	40.27
712.295	39.71
712.478	39.5
712.662	39.07
712.845	37.91
713.028	36.92
713.212	36.54
713.395	36.66
713.578	36.81
713.761	36.47
713.945	36.46
714.128	36.16
714.311	36.1
714.494	36.22
714.677	36.3
714.86	37.08
715.043	36.73
715.227	36.7
715.41	36.31
715.593	36.39
715.776	35.72
715.959	35.25
716.142	35.41
716.325	34.77
716.508	34.84
716.691	35.17
716.874	35.22
717.057	35.59
717.239	35.87
717.422	35.33
717.605	34.21
717.788	33.65
717.971	33.86
718.154	33.26
718.337	33.82
718.519	33.43
718.702	32.45
718.885	32.59
719.068	32.32
719.25	31.84
719.433	32.95
719.616	34.48
719.798	35.33
719.981	34.26
720.164	34.9
720.346	35.52
720.529	35.75
720.712	35.55
720.894	34.43
721.077	33.77
721.259	33.69
721.442	33.18
721.624	32.61
721.807	33.15
721.989	34.36
722.172	33.58
722.354	32.86
722.537	32.82
722.719	33.25
722.901	34.01
723.084	34.96
723.266	34.36
723.448	34.69
723.631	33.85
723.813	33.86
723.995	32.55
724.178	32.7
724.36	33.58
724.542	33.67
724.724	33.83
724.907	33.79
725.089	33.77
725.271	34.54
725.453	33.26
725.635	34.52
725.817	34.08
725.999	34.88
726.181	34.9
726.364	33.91
726.546	33.19
726.728	34.25
726.91	34.17
727.092	33.55
727.274	34.14
727.456	35.18
727.638	34.59
727.819	35.96
728.001	35.07
728.183	34.69
728.365	35.16
728.547	35.7
728.729	35.52
728.911	35.78
729.093	36.47
729.274	35.74
729.456	35.81
729.638	35.79
729.82	34.64
730.001	35.74
730.183	36.36
730.365	36.69
730.546	36.44
730.728	36.71
730.91	35.7
731.091	35.6
731.273	35.59
731.455	35.36
731.636	35.55
731.818	36.59
731.999	36.49
732.181	35.94
732.362	36.11
732.544	36.48
732.725	35.77
732.907	36.97
733.088	36.77
733.27	37.15
733.451	37.84
733.633	37.7
733.814	37.75
733.995	36.85
734.177	37.26
734.358	36.01
734.539	36.36
734.721	35.77
734.902	34.62
735.083	34.39
735.264	34.34
735.446	34.4
735.627	34.79
735.808	33.74
735.989	34.35
736.17	33.83
736.351	35.04
736.533	35.5
736.714	36.46
736.895	36.97
737.076	37.55
737.257	37.76
737.438	37.44
737.619	37.9
737.8	37.6
737.981	37.56
738.162	37.82
738.343	37
738.524	35.41
738.705	35.9
738.886	35.82
739.067	35.93
739.247	35.65
739.428	35.87
739.609	34.65
739.79	35.36
739.971	36.06
740.151	37.6
740.332	38.11
740.513	38.22
740.694	36.29
740.874	36.4
741.055	35.73
741.236	35.73
741.417	34.25
741.597	33.6
741.778	33.33
741.958	32.47
742.139	31.34
742.32	31.43
742.5	32.9
742.681	34.31
742.861	33.51
743.042	34.39
743.222	33.12
743.403	34.07
743.583	35.48
743.764	35.21
743.944	35.17
744.124	35.78
744.305	34.71
744.485	33.27
744.666	32.07
744.846	32.13
745.026	31.55
745.207	32.16
745.387	30.94
745.567	31.25
745.747	31.21
745.928	31.79
746.108	31.29
746.288	31.51
746.468	31.44
746.648	32.11
746.829	32.67
747.009	33.38
747.189	33.69
747.369	35.4
747.549	34.78
747.729	34.71
747.909	33.42
748.089	32.08
748.269	32.4
748.449	31.64
748.629	32.49
748.809	31.75
748.989	30.67
749.169	29.89
749.349	29.26
749.529	28.08
749.709	29.18
749.889	30.39
750.068	32.12
750.248	32.47
750.428	33.77
750.608	33.1
750.788	33.44
750.967	34.14
751.147	35.36
751.327	35.41
751.507	35.84
751.686	35.49
751.866	35.5
752.046	34.8
752.225	34.12
752.405	34.24
752.585	34.56
752.764	35.38
752.944	35.58
753.123	35.25
753.303	36.22
753.482	36.7
753.662	36.3
753.841	36.3
754.021	36.11
754.2	36.81
754.38	36.29
754.559	35.23
754.739	34
754.918	33.91
755.097	33.7
755.277	31.97
755.456	32.96
755.635	32.37
755.815	31.79
755.994	31.49
756.173	30.56
756.352	31.79
756.532	31.59
756.711	32.66
756.89	32.51
757.069	31.72
757.248	32.07
757.427	30.85
757.607	32.63
757.786	33.2
757.965	33.15
758.144	33.89
758.323	32.69
758.502	32.88
758.681	32.85
758.86	32.24
759.039	33.96
759.218	34.76
759.397	35.33
759.576	33.6
759.755	33.1
759.934	33
760.113	33.79
760.291	33.61
760.47	34.35
760.649	34.45
760.828	34.85
761.007	34
761.186	32.63
761.364	31.58
761.543	32.12
761.722	31.82
761.901	32.35
762.079	31.47
762.258	32.27
762.437	32.17
762.615	31.11
762.794	31.37
762.972	31.67
763.151	32.64
763.33	33.36
763.508	33.53
763.687	33.72
763.865	34.18
764.044	33.71
764.222	33.37
764.401	33.17
764.579	33.92
764.758	33.23
764.936	33.21
765.114	33.05
765.293	32.95
765.471	33.44
765.65	34.95
765.828	34.82
766.006	35.42
766.184	35.4
766.363	34.83
766.541	34.48
766.719	36.05
766.898	36.44
767.076	36.55
767.254	36.57
767.432	36.7
767.61	35.07
767.788	34.07
767.967	34.41
768.145	33.61
768.323	33.84
768.501	34.35
768.679	31.82
768.857	31.46
769.035	31.81
769.213	32.23
769.391	31.51
769.569	31.04
769.747	31.46
769.925	30.76
770.103	31.6
770.281	32.08
770.459	32
770.636	33.51
770.814	32.8
770.992	32.31
771.17	30.24
771.348	29.05
771.525	29.53
771.703	29.11
771.881	28.66
772.059	29.64
772.236	28.96
772.414	29.58
772.592	28.33
772.769	30.21
772.947	28.51
773.125	31.11
773.302	31.82
773.48	31.96
773.657	32
773.835	31.78
774.013	30.96
774.19	32.25
774.368	31.62
774.545	32.68
774.723	29.66
774.9	31.79
775.077	32.53
775.255	31.81
775.432	31.29
775.61	32
775.787	33.5
775.964	33.81
776.142	33.12
776.319	33.77
776.496	32.51
776.674	33.74
776.851	31.95
777.028	30.01
777.205	30.11
777.382	31.97
777.56	31.67
777.737	32.51
777.914	31.99
778.091	34.06
778.268	32.16
778.445	33.02
778.622	32.82
778.8	33.86
778.977	32.62
779.154	33.8
779.331	32.03
779.508	33.52
779.685	33.28
779.862	32.83
780.038	30.89
780.215	30.5
780.392	31.27
780.569	30.45
780.746	30.15
780.923	31.77
781.1	31.32
781.277	29.72
781.453	24.71
781.63	22.92
781.807	22.95
781.984	21.18
782.16	23.32
782.337	23.3
782.514	25.59
782.691	26.1
782.867	26.46
783.044	26.58
783.221	27.14
783.397	30.97
783.574	31.18
783.75	32.99
783.927	35.23
784.103	33.18
784.28	33.57
784.456	33.95
784.633	36.28
784.809	34.16
784.986	32.31
785.162	32.63
785.339	30.56
785.515	30.48
785.692	27.74
785.868	28.5
786.044	29.02
786.221	26.78
786.397	26.9
786.573	23.89
786.749	23.96
786.926	26.37
787.102	30.14
787.278	29.87
787.454	28.29
787.631	29.03
787.807	27.04
787.983	27.84
788.159	28.33
788.335	27.11
788.511	28.43
788.687	28.88
788.863	28.61
789.039	25.92
789.216	26.25
789.392	25.49
789.568	26.28
789.744	27.57
789.919	26.07
790.095	26.47
790.271	26.03
790.447	25.93
790.623	25
790.799	23.72
790.975	23.72
791.151	25.62
791.327	27.05
791.502	26.3
791.678	26.37
791.854	27.66
792.03	28.93
792.205	29.8
792.381	29.27
792.557	30.84
792.733	30.18
792.908	30.12
793.084	29.48
793.259	30.81
793.435	31.46
793.611	31.64
793.786	30.7
793.962	28.75
794.137	27.19
794.313	24.53
794.488	22.71
794.664	25.5
794.839	27.01
795.015	26.35
795.19	25.93
795.366	25.73
795.541	25.52
795.716	27.3
795.892	28.68
796.067	28.93
796.242	30.32
796.418	31.04
796.593	29.44
796.768	29.7
796.944	30.61
797.119	30.8
797.294	31.98
797.469	31.3
797.644	30.21
797.82	29.45
797.995	29.42
798.17	30.93
798.345	31.97
798.52	31.82
798.695	29.3
798.87	28.76
799.045	29.06
799.22	29.71
799.395	27.88
799.57	28.89
799.745	29.31
799.92	28.88
800.095	26.73
800.27	26.92
800.445	27.77
800.62	30.12
800.795	29.9
800.97	28.54
801.145	26.24
801.319	30.78
801.494	29.87
801.669	29.86
801.844	30.47
802.018	32.89
802.193	32.78
802.368	33.49
802.543	34.08
802.717	34.27
802.892	32.27
803.067	31.7
803.241	29.32
803.416	30.2
803.59	29.28
803.765	29.79
803.94	26.11
804.114	23.83
804.289	24.77
804.463	23.57
804.638	24.66
804.812	26.79
804.986	28.37
805.161	26.4
805.335	27.48
805.51	27.29
805.684	28.39
805.858	30.56
806.033	32.11
806.207	30.87
806.381	31.71
806.556	29.88
806.73	31.28
806.904	31.8
807.078	34
807.253	31
807.427	31.22
807.601	31.11
807.775	31.04
807.949	31.67
808.123	33.25
808.298	31.35
808.472	30.43
808.646	30.15
808.82	29.32
808.994	29.15
809.168	29.62
809.342	29.83
809.516	28.24
809.69	28.38
809.864	30.34
810.038	26.84
810.212	28.31
810.385	31.24
810.559	28.63
810.733	27.22
810.907	26.66
811.081	26.94
811.255	26.18
811.428	27.39
811.602	27.12
811.776	22.73
811.95	23.34
812.123	22.16
812.297	17.71
812.471	20.06
812.644	20.91
812.818	24.43
812.992	26.82
813.165	29.62
813.339	29.22
813.512	30.93
813.686	31.68
813.86	34.36
814.033	35.44
814.207	39.82
814.38	42.5
814.554	44.14
814.727	40.75
814.9	40.87
815.074	42.01
815.247	41.61
815.421	36.7
815.594	37.96
815.767	35.41
815.941	35.53
816.114	34.69
816.287	31.07
816.46	29.04
816.634	30.7
816.807	27.87
816.98	28
817.153	27.79
817.327	30.58
817.5	28.03
817.673	30.69
817.846	29.63
818.019	29.64
818.192	32.12
818.365	32.2
818.538	33.63
818.711	38.38
818.884	32.63
819.057	32.72
819.23	35.59
819.403	40.04
819.576	35.67
819.749	36.11
819.922	33.6
820.095	32.48
820.268	33.91
820.441	32.94
820.614	30.72
820.786	33.53
820.959	34.19
821.132	33.94
821.305	33.49
821.477	35.57
821.65	34.6
821.823	36.5
821.996	37.02
822.168	37.23
822.341	37.54
822.514	37.25
822.686	37.13
822.859	36.35
823.031	36.38
823.204	36.62
823.376	36.56
823.549	36.98
823.722	35.93
823.894	35.13
824.067	34.49
824.239	33.83
824.411	33.48
824.584	33.15
824.756	33.76
824.929	33.25
825.101	32
825.273	31.29
825.446	31.35
825.618	31.95
825.79	32.1
825.963	32.81
826.135	33.02
826.307	33.08
826.479	32.72
826.652	31.42
826.824	31.87
826.996	32.61
827.168	33.12
827.34	33.11
827.512	31.79
827.684	31.5
827.856	30.83
828.029	30.9
828.201	30.87
828.373	31.55
828.545	33.18
828.717	34.26
828.889	33.92
829.061	32.92
829.232	32.96
829.404	33.24
829.576	34.01
829.748	34.26
829.92	33.96
830.092	34.9
830.264	34.22
830.436	32.04
830.607	31.27
830.779	32.78
830.951	34.96
831.123	34.25
831.294	35.51
831.466	34.71
831.638	34.53
831.809	35.03
831.981	34.5
832.153	33.5
832.324	35.25
832.496	32.57
832.667	32.36
832.839	29.26
833.011	30.37
833.182	29.4
833.354	27.79
833.525	28.53
833.697	27.69
833.868	28.11
834.039	30.22
834.211	27.92
834.382	28.01
834.554	26.89
834.725	27.8
834.896	25.66
835.068	26.58
835.239	29.23
835.41	29.19
835.581	29.27
835.753	27.37
835.924	24.9
836.095	26.85
836.266	26.49
836.438	24.89
836.609	23.72
836.78	24.75
836.951	23.36
837.122	21.44
837.293	20.52
837.464	21.32
837.635	22.8
837.806	24.07
837.977	24.33
838.148	23.85
838.319	25.56
838.49	28.54
838.661	28.59
838.832	30.86
839.003	31.59
839.174	31.61
839.345	30.47
839.516	26.21
839.687	24.95
839.857	26.43
840.028	27.85
840.199	28.47
840.37	27.18
840.54	31.14
840.711	29.15
840.882	29.06
841.053	26.79
841.223	28.31
841.394	34.26
841.564	32.45
841.735	31.08
841.906	30.89
842.076	29.84
842.247	32.41
842.417	24.19
842.588	28.14
842.758	27.69
842.929	32.71
843.099	26.24
843.27	24.89
843.44	28.37
843.611	29.85
843.781	30.37
843.951	29.39
844.122	26.13
844.292	31.81
844.462	25.84
844.633	28.69
844.803	26.7
844.973	28.08
845.144	26.29
845.314	24.29
845.484	13.67
845.654	12.96
845.824	14.93
845.995	15.36
846.165	17.19
846.335	12.58
846.505	11.94
846.675	13.53
846.845	21.02
847.015	19.91
847.185	19.72
847.355	30.78
847.525	34.23
847.695	27.82
847.865	26.46
848.035	23.04
848.205	28.09
848.375	30.74
848.545	27.62
848.715	29.01
848.884	26.16
849.054	26.34
849.224	28
849.394	25.39
849.564	25.89
849.733	20.44
849.903	25.4
850.073	28.06
850.243	17.53
850.412	10.3
850.582	2.57
850.752	6.6
850.921	8.84
851.091	5.47
851.26	7.72
851.43	9.19
851.599	8.58
851.769	5.51
851.939	6.72
852.108	8.29
852.278	15.87
852.447	20.21
852.616	21.77
852.786	21.27
852.955	20.67
853.125	12.78
853.294	18.24
853.463	27.17
853.633	23.52
853.802	23.77
853.971	26.05
854.141	17.86
854.31	15.96
854.479	17.73
854.648	20.86
854.818	29.76
854.987	40.43
855.156	37.26
855.325	34.37
855.494	31.73
855.663	32.2
855.832	31.33
856.001	39.99
856.171	38.94
856.34	32.46
856.509	29.43
856.678	27.63
856.847	24.35
857.016	25.13
857.185	28.81
857.353	34.6
857.522	32.55
857.691	22.62
857.86	20.37
858.029	31.5
858.198	46.25
858.367	45.87
858.535	30.38
858.704	34.85
858.873	38.71
859.042	36.56
859.21	37.35
859.379	42.39
859.548	52.94
859.717	50.35
859.885	41.15
860.054	40.35
860.222	41.32
860.391	45.42
860.56	47.36
860.728	43.98
860.897	38.67
861.065	46.17
861.234	46.27
861.402	46.06
861.571	47.68
861.739	48.74
861.908	45.67
862.076	44.56
862.244	51.07
862.413	42.98
862.581	41.85
862.749	48.58
862.918	50.01
863.086	43.21
863.254	43.23
863.423	38.77
863.591	32.77
863.759	27.9
863.927	20.79
864.096	24.7
864.264	22.07
864.432	22.14
864.6	22.53
864.768	-2.32
864.936	-4.64
865.104	-1.88
865.272	2.18
865.44	6.2
865.608	4.72
865.776	21.28
865.944	10.28
866.112	14.67
866.28	15.89
866.448	14.92
866.616	23.22
866.784	32.56
866.952	30.18
867.12	18.11
867.288	13.84
867.455	20.45
867.623	17.61
867.791	23.46
867.959	27.95
868.127	24.98
868.294	28.76
868.462	30.91
868.63	25.71
868.797	42.23
868.965	49.03
869.133	56.38
869.3	60.38
869.468	60.02
869.636	61.96
869.803	54.67
869.971	58.62
870.138	51.42
870.306	44.44
870.473	39.97
870.641	34.55
870.808	37.65
870.975	32.85
871.143	24.67
871.31	21.53
871.478	19.54
871.645	28.4
871.812	29.13
871.98	36.45
872.147	50.65
872.314	43.47
872.482	43.91
872.649	40.24
872.816	52.25
872.983	51.88
873.15	49.2
873.318	34.43
873.485	34.75
873.652	33.98
873.819	33.02
873.986	24.94
874.153	30.22
874.32	27.85
874.487	30.98
874.654	18.81
874.821	24.62
874.988	17.21
875.155	18.16
875.322	10.27
875.489	9.43
875.656	3.68
875.823	6.76
875.99	4.82
876.157	3
876.324	0.2
876.49	10.46
876.657	5.22
876.824	12.3
876.991	19.28
877.157	20.33
877.324	7.51
877.491	9.93
877.658	13.85
877.824	6.86
877.991	14.09
878.157	16.74
878.324	6.74
878.491	-1.88
878.657	14.24
878.824	5.92
878.99	10.82
879.157	20.22
879.323	18.63
879.49	15.31
879.656	20.48
879.823	21.45
879.989	16.89
880.156	21.64
880.322	26.76
880.488	17.85
880.655	24.36
880.821	17.74
880.987	17.63
881.154	25.53
881.32	31.64
881.486	34.25
881.652	32.25
881.819	33.93
881.985	30.39
882.151	26.65
882.317	28.63
882.483	28.4
882.649	29.93
882.816	32.02
882.982	30.4
883.148	27.96
883.314	27.94
883.48	27.21
883.646	26.15
883.812	26.65
883.978	29.46
884.144	30.27
884.31	28.47
884.476	28.05
884.642	26.07
884.807	26.27
884.973	26.48
885.139	25.89
885.305	27.12
885.471	27.34
885.637	26.71
885.802	25.14
885.968	23.17
886.134	26.94
886.3	25.22
886.465	25.69
886.631	23.36
886.797	23.54
886.962	24.32
887.128	21.32
887.293	22.47
887.459	26.86
887.625	28.55
887.79	28.54
887.956	20.96
888.121	25.4
888.287	25.54
888.452	26.83
888.618	26.8
888.783	19.35
