Data from CB_105_Reflection_3.txt Node
Date: Sat Nov 14 17:59:53 EST 2015
User: robert
Spectrometer: USB4E03001
Autoset integration time: false
Trigger mode: 4
Integration Time (sec): 1.000000E-1
Scans to average: 15
Electric dark correction enabled: true
Nonlinearity correction enabled: false
Boxcar width: 5
Stray light correction enabled: false
XAxis mode: Wavelengths
Stop averaging: false
Number of Pixels in Spectrum: 3648
>>>>>Begin Spectral Data<<<<<
177.566	192.06
177.785	-694.58
178.005	38.08
178.225	122.97
178.445	256.84
178.665	26.2
178.885	-1137.11
179.105	130.03
179.324	134.59
179.544	59.66
179.764	75.15
179.984	84.94
180.204	26.75
180.423	24.57
180.643	38.85
180.863	72.57
181.083	56.42
181.302	50.5
181.522	66.75
181.742	72.93
181.961	110.64
182.181	132.75
182.401	143.03
182.621	207.85
182.84	239.83
183.06	135.64
183.279	89.81
183.499	150.81
183.719	136.15
183.938	84.97
184.158	107.15
184.377	109.5
184.597	135.38
184.816	122.92
185.036	129.06
185.256	138.69
185.475	136.03
185.695	113.67
185.914	101.15
186.134	93.62
186.353	95.72
186.572	80.23
186.792	70.01
187.011	61.2
187.231	45.35
187.45	53.2
187.67	47.07
187.889	48.62
188.108	49.17
188.328	52.96
188.547	66.41
188.766	62.76
188.986	75.32
189.205	74.95
189.424	78.19
189.644	95.91
189.863	89.17
190.082	103.54
190.302	92.37
190.521	84.4
190.74	81.79
190.959	51.78
191.178	69.56
191.398	94.17
191.617	100.89
191.836	83.31
192.055	42.69
192.274	40.56
192.494	30.86
192.713	-2.84
192.932	20.21
193.151	-8.46
193.37	65.4
193.589	-8.86
193.808	-68.56
194.027	-299.55
194.246	304.85
194.465	-404.25
194.685	7.87
194.904	70.33
195.123	39.93
195.342	7.59
195.561	31.08
195.78	41.2
195.999	57.07
196.218	44.51
196.436	57.91
196.655	38.97
196.874	43.81
197.093	41.25
197.312	21.87
197.531	42.25
197.75	55.98
197.969	52.47
198.188	47.31
198.407	50.34
198.625	46.62
198.844	54
199.063	51.55
199.282	68.66
199.501	70.93
199.719	85.08
199.938	66.65
200.157	65.36
200.376	81.01
200.594	90.38
200.813	113.98
201.032	100.39
201.251	107.81
201.469	122.61
201.688	109.75
201.907	108.01
202.125	138.51
202.344	213.3
202.563	194.84
202.781	135.68
203	158.62
203.218	126.57
203.437	133.23
203.656	99.67
203.874	60.15
204.093	64.11
204.311	69.79
204.53	61.12
204.748	41.3
204.967	56.59
205.185	93.14
205.404	71.47
205.622	60.74
205.841	79.36
206.059	77.85
206.278	78.32
206.496	59.51
206.715	63.41
206.933	50.45
207.151	42.13
207.37	24.91
207.588	19.41
207.806	32.23
208.025	34.95
208.243	22.54
208.461	26.58
208.68	47.04
208.898	56.17
209.116	63.19
209.335	57.67
209.553	77.39
209.771	81.42
209.989	72.6
210.208	53.03
210.426	36.62
210.644	51.79
210.862	45.33
211.081	28.78
211.299	26.96
211.517	13.2
211.735	26.04
211.953	19.31
212.171	23.76
212.39	30.87
212.608	42.61
212.826	57.06
213.044	54.1
213.262	62.26
213.48	65.83
213.698	64.9
213.916	77.17
214.134	62.76
214.352	70.14
214.57	56.4
214.788	65.37
215.006	61.05
215.224	49.74
215.442	37.39
215.66	28.47
215.878	13.5
216.096	1.93
216.314	18.28
216.532	34.39
216.75	27.51
216.968	56.45
217.185	52.62
217.403	70.32
217.621	121.05
217.839	111.63
218.057	191.54
218.275	166.43
218.492	187.43
218.71	217.5
218.928	198.82
219.146	284.36
219.363	198.2
219.581	221.74
219.799	245.36
220.017	168.68
220.234	166.83
220.452	176.59
220.67	176.69
220.887	262.41
221.105	391.74
221.323	6530.67
221.54	494.38
221.758	1949.29
221.976	603.13
222.193	155.19
222.411	226.27
222.629	429.7
222.846	480.45
223.064	-481.72
223.281	584.54
223.499	257.69
223.716	373.47
223.934	-395.63
224.151	-164.24
224.369	-120.46
224.586	-53.26
224.804	-18.38
225.021	-16.91
225.239	-15.16
225.456	-50.97
225.674	-45.2
225.891	-58.73
226.108	-102.78
226.326	-67.27
226.543	-37.73
226.76	-20.42
226.978	-18.73
227.195	-22.74
227.413	-22.31
227.63	-15.9
227.847	2.61
228.064	5.62
228.282	7.51
228.499	8.37
228.716	2.7
228.934	1.28
229.151	1.71
229.368	3.46
229.585	0.5
229.802	3.18
230.02	2.61
230.237	1.79
230.454	3.75
230.671	3.78
230.888	5.41
231.105	3.93
231.323	1.9
231.54	-1.45
231.757	-5.62
231.974	-1.74
232.191	-7
232.408	-8.11
232.625	-9.59
232.842	-12.31
233.059	-20.18
233.276	-23.77
233.493	-16.96
233.71	-10.96
233.927	-2.24
234.144	-4.5
234.361	-11.13
234.578	-5.01
234.795	-2.24
235.012	-5.41
235.229	-9.26
235.446	-5.28
235.663	-2.95
235.879	-4.64
236.096	-9.56
236.313	-10.15
236.53	-7.71
236.747	-2.83
236.964	-11.34
237.181	-11.93
237.397	-15.47
237.614	-10.95
237.831	-5.17
238.048	-7.3
238.264	-14.64
238.481	-11.08
238.698	-8.15
238.915	3.02
239.131	-0.21
239.348	4.13
239.565	7.96
239.781	8.64
239.998	7.4
240.215	3.18
240.431	3.02
240.648	11.62
240.865	11.92
241.081	10.3
241.298	7.15
241.514	7.31
241.731	9.74
241.947	9.49
242.164	9.58
242.38	10.88
242.597	11.89
242.814	13.69
243.03	11.99
243.246	11.38
243.463	12.3
243.679	12.44
243.896	12.66
244.112	10.31
244.329	8.94
244.545	9.34
244.762	10.2
244.978	12.92
245.194	11.49
245.411	10.93
245.627	9.23
245.843	7.77
246.06	7.39
246.276	8.3
246.492	10.77
246.709	10.45
246.925	9.94
247.141	9.75
247.357	9.08
247.574	9.29
247.79	10.42
248.006	11.59
248.222	11.39
248.439	11.57
248.655	11.03
248.871	10.41
249.087	11.96
249.303	12.28
249.519	12.13
249.736	12.39
249.952	12.68
250.168	10.66
250.384	10.46
250.6	11.49
250.816	11.47
251.032	11.5
251.248	10.73
251.464	8.11
251.68	8.15
251.896	8.29
252.112	5.96
252.328	4.17
252.544	4.58
252.76	4.39
252.976	1.64
253.192	1.55
253.408	1.55
253.624	1.75
253.84	2.44
254.056	2.69
254.272	0.65
254.487	-2.25
254.703	0.75
254.919	-2.62
255.135	-4.11
255.351	-4.32
255.567	-1.84
255.782	-4.26
255.998	-6.36
256.214	-7.94
256.43	-3.62
256.646	-2.18
256.861	5.47
257.077	0.6
257.293	3.69
257.508	6.47
257.724	7.76
257.94	6.26
258.155	6.86
258.371	7.55
258.587	7.4
258.802	5.68
259.018	5.64
259.234	5.87
259.449	7.27
259.665	7.43
259.88	7.45
260.096	7.74
260.312	7.65
260.527	8.64
260.743	8.75
260.958	9.13
261.174	9.55
261.389	9.51
261.605	8.37
261.82	7.89
262.036	7.43
262.251	5.46
262.466	4.96
262.682	4.6
262.897	2.62
263.113	2.03
263.328	2.29
263.543	-0.16
263.759	-1.49
263.974	-2.45
264.189	-2.66
264.405	-3.48
264.62	-1.33
264.835	-0.24
265.051	3.05
265.266	3.91
265.481	3.46
265.696	2.39
265.912	5.61
266.127	8.09
266.342	10.46
266.557	10.38
266.773	10.13
266.988	9.61
267.203	9.89
267.418	8.89
267.633	9.32
267.848	8.99
268.064	10.95
268.279	10.62
268.494	9.64
268.709	8.74
268.924	9.2
269.139	8.83
269.354	8.95
269.569	9.74
269.784	8.94
269.999	6.72
270.214	7.97
270.429	6.47
270.644	6.25
270.859	6.78
271.074	7.1
271.289	5.99
271.504	7.79
271.719	8.75
271.934	6.62
272.149	7.21
272.363	8.45
272.578	8.51
272.793	8.63
273.008	8.07
273.223	8.5
273.438	8.26
273.653	9.88
273.867	9.03
274.082	8.85
274.297	10.29
274.512	9.97
274.726	9.46
274.941	9.92
275.156	9.73
275.371	10.92
275.585	9.54
275.8	10.33
276.015	9.88
276.229	10.42
276.444	9.56
276.659	9.7
276.873	9.56
277.088	10.96
277.302	9.47
277.517	9.74
277.732	7.65
277.946	7.14
278.161	6.33
278.375	6.57
278.59	6.04
278.804	3.73
279.019	2.16
279.233	2.53
279.448	1.37
279.662	2.02
279.877	2.83
280.091	4.99
280.306	5.86
280.52	6.71
280.735	6.77
280.949	6.51
281.163	8.81
281.378	9.25
281.592	10.46
281.806	11.17
282.021	12.09
282.235	11.76
282.449	10.8
282.664	10.7
282.878	11.14
283.092	10.95
283.307	10.54
283.521	9.76
283.735	9.86
283.949	8.58
284.164	9.34
284.378	8.92
284.592	8.52
284.806	8.41
285.02	8.43
285.234	8.08
285.449	8.53
285.663	9.07
285.877	9.64
286.091	8.94
286.305	9.13
286.519	7.92
286.733	7.44
286.947	7.67
287.161	8.74
287.375	9.44
287.589	9.7
287.803	9.56
288.017	10.11
288.231	10.7
288.445	11.75
288.659	11.45
288.873	11.41
289.087	12.1
289.301	10.98
289.515	9.65
289.729	8.01
289.943	6.57
290.157	5.19
290.371	4.35
290.584	4.04
290.798	2.99
291.012	4.47
291.226	4.94
291.44	4.69
291.654	4.92
291.867	6.37
292.081	8.75
292.295	9.71
292.509	10.61
292.722	11.7
292.936	12.08
293.15	13.05
293.364	12.19
293.577	11.61
293.791	11.38
294.005	11.62
294.218	11.15
294.432	9.33
294.645	8.78
294.859	10.19
295.073	8.97
295.286	8.43
295.5	9.02
295.713	9.15
295.927	9.58
296.14	8.96
296.354	9.28
296.568	8.84
296.781	9.73
296.994	10.89
297.208	9.41
297.421	10.14
297.635	9.93
297.848	9.16
298.062	9.11
298.275	9.13
298.489	9.55
298.702	10.13
298.915	9.86
299.129	9.95
299.342	10.01
299.555	10.04
299.769	9.72
299.982	9.96
300.195	10.39
300.409	10.11
300.622	8.97
300.835	7.4
301.048	6.34
301.262	6.71
301.475	5.47
301.688	3.11
301.901	3.37
302.115	3.07
302.328	4.46
302.541	4.86
302.754	4.4
302.967	6.3
303.18	8.14
303.393	9.1
303.607	8.71
303.82	10.08
304.033	11.89
304.246	12.87
304.459	13.25
304.672	13.07
304.885	12.73
305.098	13.35
305.311	13.42
305.524	12.53
305.737	11.81
305.95	11.83
306.163	10.14
306.376	8.48
306.589	8.22
306.802	7.65
307.015	5.78
307.228	6.61
307.44	7.03
307.653	8.01
307.866	9.27
308.079	9.14
308.292	9.67
308.505	10.08
308.718	11.28
308.93	11.62
309.143	11.64
309.356	12.07
309.569	11.71
309.781	11.9
309.994	10.09
310.207	10.6
310.42	10.62
310.632	11.68
310.845	11.23
311.058	11.51
311.27	11.86
311.483	12.87
311.696	12.98
311.908	13.81
312.121	12.45
312.333	13.15
312.546	12.94
312.759	13.46
312.971	11.46
313.184	11.7
313.396	11.83
313.609	10.63
313.821	9.36
314.034	8.73
314.246	7.51
314.459	9.37
314.671	8.29
314.884	7.95
315.096	8.17
315.309	8.74
315.521	10.04
315.733	9.73
315.946	9.86
316.158	10.03
316.371	11.06
316.583	10.13
316.795	9.93
317.008	11.14
317.22	11.18
317.432	10.74
317.644	10.23
317.857	10.57
318.069	9.89
318.281	10.82
318.494	10.84
318.706	10.35
318.918	11.17
319.13	10.59
319.342	10.85
319.555	10.47
319.767	9.57
319.979	10.48
320.191	10.23
320.403	10.54
320.615	9.87
320.827	8.92
321.039	9.15
321.252	10.48
321.464	12.04
321.676	10.77
321.888	11.89
322.1	11.35
322.312	12.41
322.524	11.64
322.736	10.26
322.948	9.49
323.16	11.17
323.372	10.64
323.584	8.92
323.796	7.04
324.007	7.4
324.219	6.89
324.431	8.36
324.643	7.96
324.855	8.98
325.067	10.29
325.279	10.86
325.491	11.29
325.702	11.74
325.914	12.4
326.126	12.58
326.338	13.45
326.55	14.35
326.761	15.58
326.973	16.08
327.185	16.69
327.396	16.67
327.608	16.95
327.82	16.31
328.032	17.1
328.243	17.45
328.455	19.13
328.666	19.34
328.878	19.79
329.09	19.74
329.301	20.37
329.513	19.89
329.725	20.56
329.936	21.71
330.148	21.86
330.359	21.59
330.571	21.45
330.782	21.72
330.994	22.08
331.205	21.5
331.417	19.57
331.628	19.68
331.84	18.47
332.051	18.25
332.262	18.08
332.474	19
332.685	20.11
332.897	20.68
333.108	19.23
333.319	18.18
333.531	17.75
333.742	19.02
333.953	19.04
334.165	18.92
334.376	18.93
334.587	19.56
334.799	20.32
335.01	19.5
335.221	19.15
335.432	20.66
335.644	21.68
335.855	22.5
336.066	22.97
336.277	22.94
336.488	23.71
336.7	23.47
336.911	22.93
337.122	22.53
337.333	23.94
337.544	24.1
337.755	22.23
337.966	22.83
338.177	23.42
338.388	23.24
338.599	23.28
338.811	23.22
339.022	24.37
339.233	23.76
339.444	22.08
339.655	20.58
339.866	20.92
340.076	22.26
340.287	21.41
340.498	21.91
340.709	22.02
340.92	22.56
341.131	22.06
341.342	21.89
341.553	22.01
341.764	24.06
341.975	24.34
342.185	24.71
342.396	23.28
342.607	24.58
342.818	24.08
343.029	23.57
343.239	23.07
343.45	24.09
343.661	24.03
343.872	25.57
344.082	24.91
344.293	25.36
344.504	25.76
344.714	27.89
344.925	26.82
345.136	26.91
345.346	27.2
345.557	26.64
345.768	26.67
345.978	25.72
346.189	25.45
346.399	25.37
346.61	24.59
346.821	24.29
347.031	24.06
347.242	23.84
347.452	22.23
347.663	22.2
347.873	22.09
348.084	21.51
348.294	22.84
348.504	21.9
348.715	21.49
348.925	21.66
349.136	21.27
349.346	20.78
349.557	21.05
349.767	22.05
349.977	22.4
350.188	22.16
350.398	22.16
350.608	21.64
350.819	21.3
351.029	21.27
351.239	21.57
351.449	21.72
351.66	21.23
351.87	21.42
352.08	20.73
352.29	20.2
352.501	21.01
352.711	21.4
352.921	21.36
353.131	21.82
353.341	21.57
353.552	21.2
353.762	20.91
353.972	21.33
354.182	20.75
354.392	21.22
354.602	21.21
354.812	21.16
355.022	21.49
355.232	21.49
355.442	21.53
355.652	21.95
355.862	22.33
356.072	22.44
356.282	22.71
356.492	22.93
356.702	23.11
356.912	23.11
357.122	23.32
357.332	22.74
357.542	22.7
357.752	22.56
357.962	23.19
358.171	23.41
358.381	23.4
358.591	23.09
358.801	23.46
359.011	23.52
359.221	23.71
359.43	22.79
359.64	22.49
359.85	21.84
360.06	21.79
360.269	21.63
360.479	21.5
360.689	21.85
360.899	21.72
361.108	21.9
361.318	21.16
361.528	20.99
361.737	21.77
361.947	21.9
362.156	22.26
362.366	22.39
362.576	21.6
362.785	21.29
362.995	21.1
363.204	21.03
363.414	20.42
363.623	21.17
363.833	21.1
364.042	20.67
364.252	21.25
364.461	21.32
364.671	21.39
364.88	21.7
365.09	21.41
365.299	20.83
365.509	20.73
365.718	20.44
365.927	19.83
366.137	19.94
366.346	19.66
366.555	18.99
366.765	18.51
366.974	17.93
367.183	17.68
367.393	18.04
367.602	18.46
367.811	18.62
368.021	18.93
368.23	19.12
368.439	18.45
368.648	18.56
368.857	18.86
369.067	19.06
369.276	18.93
369.485	18.83
369.694	18.92
369.903	18.79
370.112	18.77
370.321	18.77
370.531	18.46
370.74	18.72
370.949	19.15
371.158	19.49
371.367	19.01
371.576	19.48
371.785	19.93
371.994	19.88
372.203	19.84
372.412	19.3
372.621	18.87
372.83	18.89
373.039	19.16
373.248	19.08
373.457	18.49
373.666	18.55
373.874	17.54
374.083	17.4
374.292	16.61
374.501	16.42
374.71	16.18
374.919	16.74
375.128	16.67
375.336	16.62
375.545	16.01
375.754	16.17
375.963	16.5
376.171	16.82
376.38	16.68
376.589	16.58
376.798	16.56
377.006	16.69
377.215	16.23
377.424	16.13
377.632	15.24
377.841	15.6
378.05	14.92
378.258	14.71
378.467	14.73
378.675	14.58
378.884	14.24
379.093	14.51
379.301	14.69
379.51	14.58
379.718	14.79
379.927	15.53
380.135	15.8
380.344	16.18
380.552	15.92
380.761	16.14
380.969	16.42
381.177	16.95
381.386	16.54
381.594	16.59
381.803	16.2
382.011	15.7
382.219	15.51
382.428	14.85
382.636	14.63
382.845	14.44
383.053	14.49
383.261	14.4
383.469	14.26
383.678	14.39
383.886	14.3
384.094	14.87
384.302	15.14
384.511	15.44
384.719	15.63
384.927	15.76
385.135	15.89
385.343	15.64
385.552	15.2
385.76	14.55
385.968	13.91
386.176	13.51
386.384	13.52
386.592	13.37
386.8	12.55
387.008	12.29
387.216	12.46
387.424	12.29
387.633	12.15
387.841	12.29
388.049	12.92
388.257	13.16
388.465	13.13
388.672	12.82
388.88	12.52
389.088	12.59
389.296	12.34
389.504	11.76
389.712	11.84
389.92	11.81
390.128	11.58
390.336	11.23
390.544	10.96
390.751	10.79
390.959	10.51
391.167	10.64
391.375	10.48
391.583	10.39
391.79	10.47
391.998	10.5
392.206	10.51
392.414	10.27
392.621	10.27
392.829	10.41
393.037	10.83
393.244	10.88
393.452	10.42
393.66	10.69
393.867	10.55
394.075	10.63
394.283	10.45
394.49	10.23
394.698	10.32
394.905	10.47
395.113	10.26
395.32	9.81
395.528	9.6
395.735	9.93
395.943	9.91
396.15	9.77
396.358	9.75
396.565	9.89
396.773	10.02
396.98	9.95
397.188	9.89
397.395	10.22
397.602	10.54
397.81	10.87
398.017	10.86
398.225	10.66
398.432	10.89
398.639	10.85
398.847	10.64
399.054	10.62
399.261	10.75
399.468	10.61
399.676	10.66
399.883	10.34
400.09	10.35
400.297	10.3
400.505	10.01
400.712	9.9
400.919	9.29
401.126	9.3
401.333	9.31
401.54	9.43
401.748	9.47
401.955	9.01
402.162	9.3
402.369	8.68
402.576	8.42
402.783	8.83
402.99	8.95
403.197	9.27
403.404	8.86
403.611	8.43
403.818	8.28
404.025	8.3
404.232	8.41
404.439	8.32
404.646	8.62
404.853	8.68
405.06	8.41
405.267	8.4
405.474	8.35
405.681	8.71
405.887	8.82
406.094	8.57
406.301	8.58
406.508	8.53
406.715	8.45
406.922	8.23
407.128	8.52
407.335	8.81
407.542	8.95
407.749	9.06
407.955	8.92
408.162	9.08
408.369	9.15
408.575	8.82
408.782	8.75
408.989	8.64
409.195	9
409.402	8.7
409.609	8.74
409.815	8.56
410.022	8.33
410.228	8.45
410.435	8.43
410.642	8.63
410.848	8.86
411.055	8.89
411.261	8.89
411.468	8.56
411.674	8.52
411.881	8.2
412.087	8.29
412.294	8.68
412.5	8.68
412.706	8.6
412.913	8.34
413.119	8.26
413.326	8.37
413.532	8.85
413.738	9.11
413.945	9.17
414.151	9.27
414.357	9.35
414.564	9.4
414.77	9.1
414.976	9.11
415.182	9.19
415.389	9.11
415.595	9.19
415.801	8.76
416.007	8.71
416.214	8.53
416.42	8.59
416.626	8.36
416.832	8.14
417.038	8.49
417.244	8.64
417.45	8.75
417.657	8.61
417.863	8.56
418.069	8.44
418.275	8.34
418.481	8.5
418.687	8.52
418.893	8.63
419.099	8.69
419.305	8.54
419.511	8.43
419.717	8.36
419.923	8.53
420.129	8.44
420.335	8.49
420.541	8.66
420.746	8.66
420.952	8.57
421.158	8.47
421.364	8.24
421.57	8.23
421.776	8.25
421.982	8.28
422.187	8.16
422.393	8.16
422.599	8.19
422.805	8.03
423.01	8.18
423.216	8.11
423.422	8.25
423.628	8.47
423.833	8.45
424.039	8.51
424.245	8.51
424.45	8.6
424.656	8.7
424.862	8.75
425.067	8.71
425.273	8.57
425.478	8.66
425.684	8.53
425.889	8.38
426.095	8.57
426.301	8.36
426.506	8.29
426.712	8.25
426.917	8.2
427.123	7.97
427.328	8.16
427.533	8.24
427.739	8.26
427.944	8.44
428.15	8.52
428.355	8.19
428.561	8.42
428.766	8.43
428.971	8.33
429.177	8.35
429.382	8.49
429.587	8.35
429.793	8.34
429.998	8.32
430.203	8.24
430.408	8.28
430.614	8.13
430.819	8.13
431.024	8.2
431.229	8.33
431.434	8.24
431.64	8.28
431.845	8.14
432.05	7.9
432.255	7.94
432.46	7.75
432.665	7.71
432.87	7.91
433.076	7.81
433.281	7.72
433.486	7.66
433.691	7.51
433.896	7.48
434.101	7.58
434.306	7.46
434.511	7.32
434.716	7.46
434.921	7.49
435.126	7.42
435.331	7.46
435.535	7.56
435.74	7.64
435.945	7.8
436.15	7.79
436.355	7.8
436.56	7.93
436.765	8.04
436.97	7.74
437.174	7.77
437.379	7.92
437.584	7.94
437.789	8.02
437.993	7.95
438.198	7.84
438.403	7.92
438.608	7.82
438.812	8.11
439.017	8.08
439.222	8.42
439.426	8.19
439.631	8.04
439.836	7.9
440.04	7.8
440.245	7.77
440.45	7.78
440.654	7.66
440.859	7.81
441.063	7.65
441.268	7.54
441.472	7.43
441.677	7.68
441.881	7.67
442.086	7.77
442.29	7.79
442.495	7.91
442.699	8
442.904	8.15
443.108	7.96
443.312	7.88
443.517	7.96
443.721	7.9
443.925	7.81
444.13	7.92
444.334	7.93
444.538	8.01
444.743	7.89
444.947	7.84
445.151	7.76
445.356	8.04
445.56	8.12
445.764	8.31
445.968	8.31
446.173	8.28
446.377	8.08
446.581	7.99
446.785	7.7
446.989	7.73
447.193	7.8
447.398	7.8
447.602	7.67
447.806	7.65
448.01	7.43
448.214	7.52
448.418	7.41
448.622	7.45
448.826	7.4
449.03	7.68
449.234	7.73
449.438	7.58
449.642	7.5
449.846	7.36
450.05	7.06
450.254	7.15
450.458	6.89
450.662	6.97
450.866	7.03
451.069	7.16
451.273	6.88
451.477	6.94
451.681	6.89
451.885	6.99
452.089	7.06
452.292	7.36
452.496	7.19
452.7	7.22
452.904	7.29
453.107	7.33
453.311	7.37
453.515	7.76
453.719	7.65
453.922	7.64
454.126	7.42
454.33	7.36
454.533	7.37
454.737	7.38
454.94	7.65
455.144	7.54
455.348	7.64
455.551	7.39
455.755	7.12
455.958	7.19
456.162	7.2
456.365	7.41
456.569	7.38
456.772	7.48
456.976	7.58
457.179	7.33
457.383	7.31
457.586	7.35
457.79	7.64
457.993	7.62
458.196	7.52
458.4	7.62
458.603	7.59
458.807	7.71
459.01	7.55
459.213	7.59
459.417	7.73
459.62	7.64
459.823	7.55
460.026	7.4
460.23	7.36
460.433	7.43
460.636	7.48
460.839	7.42
461.042	7.34
461.246	7.38
461.449	7.31
461.652	7.11
461.855	7.38
462.058	7.39
462.261	7.5
462.464	7.59
462.668	7.55
462.871	7.47
463.074	7.6
463.277	7.8
463.48	7.63
463.683	7.46
463.886	7.54
464.089	7.22
464.292	7.18
464.495	7.27
464.698	7.19
464.901	7.28
465.104	7.15
465.306	7.01
465.509	6.73
465.712	6.86
465.915	7.13
466.118	7.12
466.321	7.22
466.524	7.33
466.726	7.15
466.929	7.06
467.132	6.94
467.335	7.09
467.538	7.26
467.74	7.29
467.943	7.32
468.146	7.23
468.348	7.34
468.551	7.43
468.754	7.38
468.956	7.51
469.159	7.6
469.362	7.65
469.564	7.74
469.767	7.57
469.969	7.78
470.172	7.79
470.375	7.77
470.577	7.71
470.78	7.62
470.982	7.78
471.185	7.78
471.387	7.73
471.59	7.64
471.792	7.48
471.995	7.42
472.197	7.21
472.399	6.97
472.602	6.89
472.804	6.81
473.007	6.68
473.209	6.66
473.411	6.55
473.614	6.66
473.816	6.67
474.018	6.69
474.22	6.81
474.423	6.93
474.625	7.14
474.827	7.13
475.03	7.07
475.232	7.17
475.434	7.2
475.636	7.21
475.838	7.27
476.04	7.27
476.243	7.27
476.445	7.31
476.647	7.38
476.849	7.33
477.051	7.38
477.253	7.33
477.455	7.28
477.657	7.16
477.859	7.18
478.061	7.14
478.263	7.3
478.465	7.31
478.667	7.23
478.869	7.17
479.071	7.2
479.273	7.28
479.475	7.41
479.677	7.53
479.879	7.61
480.081	7.66
480.283	7.61
480.485	7.46
480.686	7.57
480.888	7.62
481.09	7.61
481.292	7.73
481.494	7.73
481.695	7.83
481.897	7.82
482.099	7.82
482.301	7.79
482.502	7.83
482.704	7.89
482.906	7.84
483.107	7.87
483.309	7.89
483.511	7.81
483.712	7.85
483.914	7.79
484.115	7.83
484.317	7.82
484.519	7.8
484.72	7.76
484.922	7.7
485.123	7.69
485.325	7.63
485.526	7.6
485.728	7.6
485.929	7.56
486.131	7.49
486.332	7.41
486.534	7.35
486.735	7.37
486.936	7.47
487.138	7.55
487.339	7.51
487.541	7.61
487.742	7.58
487.943	7.57
488.144	7.61
488.346	7.62
488.547	7.61
488.748	7.58
488.95	7.64
489.151	7.52
489.352	7.43
489.553	7.55
489.755	7.5
489.956	7.52
490.157	7.62
490.358	7.56
490.559	7.65
490.76	7.7
490.961	7.83
491.163	7.78
491.364	7.78
491.565	7.7
491.766	7.66
491.967	7.63
492.168	7.67
492.369	7.63
492.57	7.65
492.771	7.59
492.972	7.52
493.173	7.46
493.374	7.5
493.575	7.51
493.776	7.66
493.976	7.5
494.177	7.4
494.378	7.42
494.579	7.46
494.78	7.43
494.981	7.59
495.182	7.75
495.382	7.86
495.583	7.71
495.784	7.74
495.985	7.89
496.185	8.03
496.386	8.14
496.587	8.01
496.788	8.03
496.988	8.09
497.189	8.04
497.39	8.14
497.59	8.04
497.791	8.08
497.992	8.15
498.192	8.08
498.393	8.1
498.593	8.13
498.794	8.11
498.994	8.04
499.195	7.92
499.395	7.9
499.596	7.77
499.796	7.75
499.997	7.86
500.197	7.75
500.398	7.78
500.598	7.86
500.799	7.88
500.999	7.9
501.199	7.98
501.4	8.16
501.6	8.21
501.801	8.28
502.001	8.45
502.201	8.46
502.402	8.7
502.602	8.61
502.802	8.53
503.002	8.59
503.203	8.7
503.403	8.6
503.603	8.42
503.803	8.48
504.003	8.56
504.204	8.43
504.404	8.54
504.604	8.5
504.804	8.39
505.004	8.41
505.204	8.38
505.404	8.33
505.604	8.35
505.804	8.4
506.005	8.35
506.205	8.42
506.405	8.44
506.605	8.4
506.805	8.41
507.005	8.64
507.204	8.64
507.404	8.62
507.604	8.7
507.804	8.67
508.004	8.82
508.204	8.84
508.404	8.72
508.604	8.81
508.804	8.79
509.003	8.88
509.203	8.85
509.403	9.1
509.603	9.14
509.803	9.25
510.002	9.28
510.202	9.28
510.402	9.22
510.602	9.29
510.801	9.38
511.001	9.4
511.201	9.45
511.4	9.53
511.6	9.57
511.8	9.8
511.999	9.89
512.199	10.04
512.398	10.01
512.598	10.19
512.797	10.31
512.997	10.33
513.197	10.37
513.396	10.37
513.596	10.42
513.795	10.36
513.994	10.25
514.194	10.23
514.393	10.38
514.593	10.59
514.792	10.69
514.992	10.62
515.191	10.77
515.39	10.78
515.59	10.83
515.789	11.08
515.988	11.14
516.188	11.35
516.387	11.56
516.586	11.62
516.786	11.65
516.985	11.83
517.184	11.89
517.383	11.81
517.582	12.03
517.782	12.09
517.981	12.06
518.18	12.2
518.379	12.24
518.578	12.28
518.777	12.3
518.976	12.47
519.176	12.48
519.375	12.64
519.574	12.87
519.773	12.83
519.972	13
520.171	13.12
520.37	13.15
520.569	13.28
520.768	13.49
520.967	13.68
521.166	13.73
521.365	13.83
521.564	13.85
521.762	13.93
521.961	14.08
522.16	14.22
522.359	14.38
522.558	14.52
522.757	14.55
522.956	14.5
523.154	14.79
523.353	14.82
523.552	14.98
523.751	15.32
523.949	15.54
524.148	15.82
524.347	15.9
524.546	15.97
524.744	16.07
524.943	16.24
525.142	16.23
525.34	16.23
525.539	16.38
525.737	16.56
525.936	16.62
526.135	16.67
526.333	16.82
526.532	17.01
526.73	17.2
526.929	17.39
527.127	17.67
527.326	17.95
527.524	18.05
527.723	18.27
527.921	18.36
528.12	18.53
528.318	18.63
528.516	18.69
528.715	18.74
528.913	18.83
529.112	18.91
529.31	18.95
529.508	19.04
529.707	19.21
529.905	19.27
530.103	19.35
530.301	19.41
530.5	19.56
530.698	19.66
530.896	19.79
531.094	19.91
531.293	20.07
531.491	20.15
531.689	20.28
531.887	20.42
532.085	20.59
532.283	20.74
532.481	20.92
532.68	21.04
532.878	21.25
533.076	21.43
533.274	21.5
533.472	21.6
533.67	21.73
533.868	21.79
534.066	21.8
534.264	21.87
534.462	22
534.66	22.04
534.858	22.04
535.056	22.14
535.253	22.2
535.451	22.36
535.649	22.52
535.847	22.69
536.045	22.86
536.243	23
536.441	23.23
536.638	23.4
536.836	23.51
537.034	23.72
537.232	23.72
537.43	23.9
537.627	23.95
537.825	24.03
538.023	24.05
538.22	24.15
538.418	24.15
538.616	24.17
538.813	24.22
539.011	24.29
539.209	24.44
539.406	24.55
539.604	24.74
539.801	24.97
539.999	25.1
540.196	25.28
540.394	25.51
540.591	25.75
540.789	25.83
540.986	25.94
541.184	26.05
541.381	26.04
541.579	26.1
541.776	26.07
541.974	26.11
542.171	26.17
542.368	26.25
542.566	26.29
542.763	26.37
542.96	26.41
543.158	26.52
543.355	26.63
543.552	26.69
543.75	26.8
543.947	26.98
544.144	27.12
544.341	27.25
544.539	27.33
544.736	27.4
544.933	27.54
545.13	27.59
545.327	27.63
545.524	27.69
545.722	27.83
545.919	27.93
546.116	27.97
546.313	27.94
546.51	27.93
546.707	27.89
546.904	27.82
547.101	27.72
547.298	27.93
547.495	27.88
547.692	28.05
547.889	28.14
548.086	28.3
548.283	28.2
548.48	28.38
548.677	28.49
548.874	28.66
549.07	28.85
549.267	29.14
549.464	29.2
549.661	29.34
549.858	29.26
550.055	29.35
550.251	29.31
550.448	29.42
550.645	29.47
550.842	29.47
551.038	29.46
551.235	29.59
551.432	29.46
551.628	29.25
551.825	29.38
552.022	29.42
552.218	29.52
552.415	29.41
552.612	29.45
552.808	29.36
553.005	29.43
553.201	29.59
553.398	29.44
553.594	29.5
553.791	29.78
553.987	29.65
554.184	29.75
554.38	29.85
554.577	30.17
554.773	30.41
554.97	30.5
555.166	30.45
555.362	30.43
555.559	30.52
555.755	30.63
555.952	30.48
556.148	30.57
556.344	30.52
556.541	30.46
556.737	30.43
556.933	30.28
557.129	30.3
557.326	30.56
557.522	30.83
557.718	30.85
557.914	30.91
558.11	31.12
558.307	31.21
558.503	31.29
558.699	31.33
558.895	31.29
559.091	31.42
559.287	31.73
559.483	31.63
559.679	31.46
559.876	31.69
560.072	31.59
560.268	31.58
560.464	31.95
560.66	32.07
560.856	32.09
561.052	32.34
561.247	32.29
561.443	32.03
561.639	32.36
561.835	32.34
562.031	32.45
562.227	32.54
562.423	32.48
562.619	32.37
562.815	32.44
563.01	32.58
563.206	32.38
563.402	32.51
563.598	32.56
563.793	32.28
563.989	32.38
564.185	32.22
564.381	32.28
564.576	32.33
564.772	32.32
564.968	32.12
565.163	32.12
565.359	32.31
565.555	32.37
565.75	32.7
565.946	32.92
566.141	32.87
566.337	32.96
566.532	33.11
566.728	33.16
566.923	33.06
567.119	33.28
567.314	33.16
567.51	33.17
567.705	33.09
567.901	32.84
568.096	32.75
568.292	32.78
568.487	32.87
568.682	32.61
568.878	32.66
569.073	32.89
569.268	32.89
569.464	32.96
569.659	33.02
569.854	33.2
570.05	33.34
570.245	33.62
570.44	33.57
570.635	33.41
570.831	33.48
571.026	33.58
571.221	33.4
571.416	33.34
571.611	33.45
571.806	33.28
572.002	33.16
572.197	33.27
572.392	32.97
572.587	33.03
572.782	33.05
572.977	33.16
573.172	33.12
573.367	33.26
573.562	33.37
573.757	33.24
573.952	33.24
574.147	33.19
574.342	33.25
574.537	33.36
574.732	33.51
574.927	33.61
575.121	33.58
575.316	33.45
575.511	33.51
575.706	33.53
575.901	33.66
576.096	34.06
576.29	34.36
576.485	34.31
576.68	34.4
576.875	34.45
577.069	34.36
577.264	34.55
577.459	34.7
577.654	34.74
577.848	34.77
578.043	34.98
578.238	34.76
578.432	34.56
578.627	34.58
578.821	34.51
579.016	34.21
579.21	34.5
579.405	34.31
579.6	34.33
579.794	34.41
579.989	34.27
580.183	33.92
580.378	33.85
580.572	33.94
580.766	34.01
580.961	34.18
581.155	34.37
581.35	34.19
581.544	34.25
581.738	34.29
581.933	34.27
582.127	34.13
582.321	34.13
582.516	33.9
582.71	33.64
582.904	33.37
583.099	33.17
583.293	33.41
583.487	33.48
583.681	33.43
583.875	33.32
584.07	33.3
584.264	33.7
584.458	34.02
584.652	34.24
584.846	34.56
585.04	34.55
585.234	34.64
585.428	34.43
585.623	34.74
585.817	34.82
586.011	35.05
586.205	34.88
586.399	34.58
586.593	34.54
586.787	34.86
586.981	34.93
587.174	35.05
587.368	35.06
587.562	35.21
587.756	34.95
587.95	35.04
588.144	34.92
588.338	34.91
588.532	35.02
588.725	35.26
588.919	35.26
589.113	35.12
589.307	35.14
589.501	35.1
589.694	34.96
589.888	35.3
590.082	35.26
590.275	35.33
590.469	35.3
590.663	35.15
590.856	34.99
591.05	34.89
591.244	35.02
591.437	35.19
591.631	35.22
591.824	35.45
592.018	35.17
592.212	34.96
592.405	35.1
592.599	35.34
592.792	35.52
592.986	35.62
593.179	35.89
593.372	36.04
593.566	36.08
593.759	36.23
593.953	36.28
594.146	36.2
594.339	36.49
594.533	36.27
594.726	36.2
594.92	36.24
595.113	36.04
595.306	35.71
595.499	35.52
595.693	35.57
595.886	35.54
596.079	35.49
596.272	35.7
596.466	35.68
596.659	35.8
596.852	35.99
597.045	36.13
597.238	36.24
597.431	36.46
597.624	36.5
597.818	36.45
598.011	36.47
598.204	36.4
598.397	36.41
598.59	36.47
598.783	36.5
598.976	36.28
599.169	36.05
599.362	35.95
599.555	35.68
599.748	35.7
599.941	35.49
600.134	35.7
600.326	35.85
600.519	35.58
600.712	35.45
600.905	35.51
601.098	35.63
601.291	35.86
601.483	35.81
601.676	35.78
601.869	35.85
602.062	36.03
602.255	35.94
602.447	36.06
602.64	36.39
602.833	36.62
603.025	36.68
603.218	36.61
603.411	36.77
603.603	37.11
603.796	37.23
603.989	37.3
604.181	37.43
604.374	37.48
604.566	37.27
604.759	37.03
604.951	37.05
605.144	36.98
605.336	37.06
605.529	36.96
605.721	36.91
605.914	36.99
606.106	36.96
606.299	36.82
606.491	36.81
606.683	36.96
606.876	37.2
607.068	37.22
607.26	37.36
607.453	37.38
607.645	37.26
607.837	37.04
608.03	37.15
608.222	37.05
608.414	37.33
608.606	37.3
608.799	37.09
608.991	37.06
609.183	37.06
609.375	37.17
609.567	37.36
609.759	37.63
609.952	37.79
610.144	37.79
610.336	38.18
610.528	38.08
610.72	38.21
610.912	38.41
611.104	38.61
611.296	38.33
611.488	38.39
611.68	38.32
611.872	38.07
612.064	38.05
612.256	37.82
612.448	37.53
612.64	37.51
612.832	37.22
613.023	37.37
613.215	36.92
613.407	37.03
613.599	36.82
613.791	36.86
613.983	36.79
614.174	37
614.366	37.25
614.558	37.28
614.75	37.01
614.941	37.33
615.133	37.25
615.325	37.67
615.516	38.08
615.708	38.25
615.9	38.17
616.091	38.38
616.283	38.16
616.475	38.11
616.666	37.99
616.858	38.29
617.049	38
617.241	37.75
617.432	37.54
617.624	37.33
617.815	37.15
618.007	37.08
618.198	37
618.39	36.76
618.581	36.69
618.773	36.63
618.964	36.63
619.155	36.97
619.347	37.28
619.538	37.34
619.729	37.69
619.921	37.82
620.112	37.64
620.303	37.38
620.494	37.71
620.686	37.76
620.877	37.82
621.068	37.77
621.259	37.44
621.451	37.5
621.642	37.49
621.833	37.09
622.024	36.87
622.215	37.22
622.406	37.52
622.597	37.33
622.788	37.44
622.98	37.41
623.171	37.73
623.362	37.69
623.553	37.79
623.744	38.16
623.935	37.94
624.126	37.99
624.317	37.81
624.508	37.78
624.698	38.07
624.889	37.57
625.08	37.55
625.271	37.49
625.462	37.54
625.653	37.43
625.844	37.13
626.034	37.61
626.225	37.81
626.416	37.73
626.607	37.94
626.798	37.9
626.988	38.39
627.179	38.59
627.37	38.63
627.56	39.05
627.751	39.01
627.942	39.1
628.132	39
628.323	38.8
628.514	38.94
628.704	38.79
628.895	38.44
629.085	38.42
629.276	38.21
629.466	38.01
629.657	37.49
629.847	37.64
630.038	37.45
630.228	37.43
630.419	37.62
630.609	37.63
630.8	37.59
630.99	38.05
631.181	37.86
631.371	38.02
631.561	37.87
631.752	38.04
631.942	37.99
632.132	38.02
632.323	37.68
632.513	37.64
632.703	37.55
632.893	37.62
633.084	37.13
633.274	37.01
633.464	37.01
633.654	37.15
633.844	37.17
634.034	36.66
634.225	36.66
634.415	37.03
634.605	36.79
634.795	36.81
634.985	37
635.175	37.57
635.365	37.9
635.555	37.76
635.745	37.86
635.935	37.71
636.125	38.04
636.315	38.22
636.505	38.23
636.695	38.44
636.885	38.62
637.075	38.6
637.265	38.59
637.455	38.42
637.644	38.73
637.834	38.66
638.024	38.88
638.214	39.32
638.404	39.42
638.593	39.33
638.783	39.22
638.973	39.41
639.163	39.33
639.352	38.99
639.542	38.84
639.732	38.72
639.921	38.6
640.111	38.42
640.301	37.69
640.49	37.31
640.68	37.53
640.87	37.61
641.059	37.34
641.249	37.6
641.438	37.97
641.628	38.15
641.817	38.12
642.007	38.22
642.196	38.77
642.386	39.43
642.575	39.44
642.764	39.27
642.954	39.44
643.143	39.32
643.333	39.37
643.522	38.8
643.711	38.75
643.901	39.11
644.09	39.11
644.279	38.94
644.469	38.92
644.658	38.9
644.847	39
645.036	38.8
645.226	38.96
645.415	38.51
645.604	39
645.793	38.95
645.982	38.48
646.171	38.16
646.361	38.02
646.55	37.57
646.739	37.53
646.928	37.43
647.117	37.64
647.306	37.65
647.495	37.52
647.684	37.54
647.873	37.54
648.062	37.8
648.251	38.19
648.44	37.78
648.629	38.34
648.818	38.5
649.007	38.45
649.196	38.43
649.384	38.25
649.573	38.59
649.762	38.49
649.951	38.47
650.14	38.09
650.328	38.19
650.517	38.51
650.706	38.33
650.895	38.27
651.083	38.51
651.272	38.54
651.461	38.5
651.65	37.94
651.838	37.98
652.027	38.12
652.216	38.43
652.404	38.57
652.593	38.67
652.781	38.52
652.97	38.79
653.158	38.62
653.347	38.72
653.535	38.91
653.724	39.42
653.912	39.73
654.101	39.99
654.289	39.69
654.478	39.36
654.666	39.62
654.855	39.82
655.043	39.8
655.231	39.39
655.42	39.07
655.608	38.87
655.796	38.85
655.985	38.5
656.173	38.05
656.361	38.23
656.55	38.07
656.738	37.69
656.926	37.75
657.114	37.44
657.302	37.53
657.491	37.4
657.679	37.46
657.867	37.84
658.055	37.96
658.243	37.93
658.431	37.98
658.619	37.99
658.807	38.05
658.996	37.76
659.184	37.98
659.372	38.21
659.56	38.46
659.748	38.7
659.936	38.51
660.124	38.3
660.311	38.44
660.499	38.48
660.687	38.37
660.875	38.13
661.063	38.5
661.251	38.68
661.439	38.4
661.627	38.72
661.814	38.98
662.002	39.03
662.19	38.84
662.378	39.01
662.565	39.18
662.753	39.65
662.941	39.97
663.129	39.59
663.316	39.65
663.504	40.03
663.692	39.63
663.879	39.44
664.067	39.21
664.254	39.71
664.442	39.54
664.63	39.38
664.817	38.86
665.005	39.14
665.192	39.25
665.38	39.45
665.567	39.72
665.755	39.87
665.942	39.34
666.13	39.44
666.317	39.35
666.504	39.02
666.692	39.13
666.879	39.94
667.067	39.82
667.254	39.75
667.441	39.17
667.629	38.99
667.816	39.12
668.003	39.15
668.19	38.8
668.378	38.61
668.565	38.84
668.752	38.91
668.939	38.74
669.127	38.43
669.314	38.61
669.501	38.86
669.688	38.92
669.875	38.86
670.062	39.14
670.249	39.63
670.436	39.86
670.623	39.95
670.81	39.98
670.997	39.91
671.184	39.92
671.371	39.86
671.558	40.11
671.745	39.96
671.932	39.88
672.119	39.54
672.306	39.24
672.493	39.66
672.68	39.74
672.867	39.44
673.054	39.3
673.24	39.52
673.427	39.6
673.614	39.51
673.801	39.8
673.988	39.8
674.174	40.13
674.361	40.32
674.548	39.99
674.734	40.61
674.921	40.42
675.108	40.66
675.294	40.49
675.481	40.19
675.668	39.95
675.854	39.88
676.041	39.5
676.227	39.9
676.414	39.64
676.601	39.56
676.787	38.92
676.974	39.16
677.16	39.28
677.347	39.59
677.533	40.32
677.719	40.34
677.906	40.2
678.092	40.65
678.279	40.61
678.465	40.62
678.651	40.42
678.838	40.57
679.024	40.7
679.21	40.42
679.397	40.28
679.583	39.23
679.769	39.12
679.955	38.87
680.142	38.84
680.328	38.6
680.514	38.62
680.7	38.71
680.886	38.55
681.073	38.53
681.259	38.36
681.445	37.85
681.631	38.13
681.817	37.75
682.003	37.96
682.189	37.69
682.375	37.55
682.561	37.63
682.747	37.19
682.933	37.06
683.119	36.88
683.305	37.17
683.491	37.45
683.677	37.98
683.863	38.74
684.049	38.97
684.235	38.96
684.42	39.16
684.606	38.82
684.792	39.1
684.978	39
685.164	39.56
685.349	39.52
685.535	39.39
685.721	39.3
685.907	38.84
686.092	38.9
686.278	39.15
686.464	38.93
686.649	38.97
686.835	39.17
687.021	39.13
687.206	38.77
687.392	38.5
687.577	38.66
687.763	38.81
687.948	38.69
688.134	38.44
688.319	38.29
688.505	38.27
688.69	38.55
688.876	38.52
689.061	39.49
689.247	39.12
689.432	39.3
689.618	39.46
689.803	39.21
689.988	39.64
690.174	39.09
690.359	39.06
690.544	38.89
690.73	38.73
690.915	38.96
691.1	38.24
691.285	38.13
691.471	38.48
691.656	38.94
691.841	38.75
692.026	37.98
692.211	38.33
692.396	38.17
692.582	38.86
692.767	38.78
692.952	38.19
693.137	38.02
693.322	38.8
693.507	38.48
693.692	38.02
693.877	38.05
694.062	38.62
694.247	38.98
694.432	39.65
694.617	38.84
694.802	39.47
694.987	40.54
695.172	40.76
695.357	40.79
695.541	40.95
695.726	40.63
695.911	40.47
696.096	40.59
696.281	40.42
696.466	40.2
696.65	40.76
696.835	40.75
697.02	40.09
697.204	39.82
697.389	39.4
697.574	38.67
697.759	39.05
697.943	39.07
698.128	39.21
698.312	39.08
698.497	38.79
698.682	38.65
698.866	38.37
699.051	38.49
699.235	38.61
699.42	38.69
699.604	39.1
699.789	39.18
699.973	39.22
700.158	39.22
700.342	39.28
700.527	39.25
700.711	38.98
700.895	38.86
701.08	38.79
701.264	38.92
701.448	38.98
701.633	38.84
701.817	38.51
702.001	38.09
702.186	37.95
702.37	38.24
702.554	38.33
702.738	39.14
702.923	39.32
703.107	39.59
703.291	39.72
703.475	38.97
703.659	38.67
703.843	39.13
704.027	40.24
704.212	40.6
704.396	40.01
704.58	40.05
704.764	39.17
704.948	39.39
705.132	38.78
705.316	39.24
705.5	40.23
705.684	41.07
705.868	41.16
706.052	40.65
706.235	39.97
706.419	40.19
706.603	40.69
706.787	40.76
706.971	40.23
707.155	41.26
707.339	40.71
707.522	40.85
707.706	40.18
707.89	39.35
708.074	39.23
708.257	39.71
708.441	39.6
708.625	39.25
708.808	39.89
708.992	40.32
709.176	39.53
709.359	38.82
709.543	38.88
709.727	39.24
709.91	39.53
710.094	39.62
710.277	39.76
710.461	39.39
710.644	39.47
710.828	39.07
711.011	38.92
711.195	39.18
711.378	39.86
711.562	39.13
711.745	39.23
711.928	39.11
712.112	39.77
712.295	38.86
712.478	39.76
712.662	39.91
712.845	39.85
713.028	39.36
713.212	38.93
713.395	38.52
713.578	38.38
713.761	38.83
713.945	39.07
714.128	38.02
714.311	38.7
714.494	38.39
714.677	38.08
714.86	38.47
715.043	38.52
715.227	38.63
715.41	38.49
715.593	38.56
715.776	38.28
715.959	38.38
716.142	39.05
716.325	39.12
716.508	39.14
716.691	38.97
716.874	38.23
717.057	39.13
717.239	39.1
717.422	39.46
717.605	39.88
717.788	39.71
717.971	39.3
718.154	39.02
718.337	38.48
718.519	38.07
718.702	38.63
718.885	39.97
719.068	39.34
719.25	39.62
719.433	39.58
719.616	39.59
719.798	39.77
719.981	39.88
720.164	39.52
720.346	39.9
720.529	39.94
720.712	39.65
720.894	39.01
721.077	38.57
721.259	37.66
721.442	36.74
721.624	36.77
721.807	37.12
721.989	37.03
722.172	37
722.354	37.15
722.537	37.04
722.719	37.33
722.901	37.41
723.084	38.34
723.266	39.49
723.448	39.74
723.631	39.8
723.813	39.37
723.995	39.44
724.178	40.17
724.36	40.31
724.542	40.28
724.724	40.05
724.907	39.79
725.089	39.92
725.271	39.18
725.453	39.91
725.635	39.57
725.817	39.27
725.999	39.01
726.181	38.61
726.364	38.46
726.546	38.62
726.728	38.18
726.91	38.39
727.092	37.83
727.274	38.3
727.456	38.11
727.638	38.66
727.819	38.65
728.001	39.09
728.183	39.39
728.365	39.28
728.547	39.8
728.729	39.6
728.911	39.18
729.093	39.65
729.274	39.14
729.456	39.53
729.638	39.48
729.82	38.93
730.001	39.18
730.183	40.19
730.365	40.06
730.546	39.58
730.728	40.12
730.91	40.21
731.091	39.15
731.273	39.31
731.455	39.78
731.636	39.3
731.818	40.26
731.999	40.52
732.181	39.4
732.362	39.53
732.544	39.34
732.725	39.18
732.907	39.12
733.088	39.84
733.27	39.62
733.451	38.87
733.633	38.28
733.814	37.72
733.995	37.39
734.177	36.56
734.358	36.91
734.539	36.9
734.721	36.54
734.902	36.62
735.083	36.51
735.264	36.88
735.446	37.91
735.627	38.03
735.808	38.57
735.989	36.39
736.17	37.42
736.351	36.88
736.533	36.98
736.714	37.11
736.895	36.93
737.076	37.02
737.257	38.1
737.438	37.06
737.619	37.3
737.8	36.77
737.981	38.86
738.162	37.78
738.343	37.53
738.524	38.44
738.705	38.34
738.886	37.99
739.067	37.57
739.247	37.17
739.428	36.29
739.609	36.53
739.79	36.53
739.971	37.07
740.151	37
740.332	37
740.513	37.05
740.694	37.81
740.874	38.06
741.055	37.96
741.236	37.27
741.417	39.11
741.597	39.73
741.778	40.35
741.958	39.95
742.139	40.35
742.32	40.84
742.5	40.01
742.681	39.74
742.861	40.71
743.042	39.86
743.222	40.51
743.403	38.91
743.583	38.93
743.764	38.12
743.944	37.83
744.124	39.23
744.305	39.2
744.485	39.91
744.666	40.1
744.846	38.36
745.026	39.77
745.207	38.9
745.387	39.11
745.567	38.38
745.747	38.46
745.928	38.86
746.108	37.94
746.288	38.4
746.468	36.86
746.648	36.13
746.829	38.05
747.009	37.14
747.189	36.96
747.369	37.32
747.549	38.08
747.729	37.66
747.909	37.13
748.089	36.92
748.269	35
748.449	35.36
748.629	36.35
748.809	36.04
748.989	37.36
749.169	37.9
749.349	38.34
749.529	38.24
749.709	38.49
749.889	38.71
750.068	39.34
750.248	40.19
750.428	40.44
750.608	40.51
750.788	40.63
750.967	39.77
751.147	39.05
751.327	39.73
751.507	38.95
751.686	38.85
751.866	38.67
752.046	37.59
752.225	37.85
752.405	37.97
752.585	39.03
752.764	38.41
752.944	38.85
753.123	39.08
753.303	36.75
753.482	36.84
753.662	36.98
753.841	38.18
754.021	38.42
754.2	39.14
754.38	39.68
754.559	37.58
754.739	37.5
754.918	37.26
755.097	37.47
755.277	37.97
755.456	37.32
755.635	37.16
755.815	35.36
755.994	36.04
756.173	35.88
756.352	36.13
756.532	37.15
756.711	36.37
756.89	36.21
757.069	37.13
757.248	37.58
757.427	39.33
757.607	39.65
757.786	41.37
757.965	42.01
758.144	41.69
758.323	41.94
758.502	42.97
758.681	43.43
758.86	43.66
759.039	42.69
759.218	42.82
759.397	42.2
759.576	42.24
759.755	40.2
759.934	39.83
760.113	38.78
760.291	39.02
760.47	38.55
760.649	38.42
760.828	38.45
761.007	38.75
761.186	38.55
761.364	38.73
761.543	39.49
761.722	40.46
761.901	39.93
762.079	40.98
762.258	39.25
762.437	38.06
762.615	37.86
762.794	37.82
762.972	37.65
763.151	38.04
763.33	38.02
763.508	37.47
763.687	37.87
763.865	37.52
764.044	37.06
764.222	37.07
764.401	37.4
764.579	38.82
764.758	38.62
764.936	38.8
765.114	39.22
765.293	39.45
765.471	40.54
765.65	39.85
765.828	40.09
766.006	40.93
766.184	42.13
766.363	42.08
766.541	41.62
766.719	42.44
766.898	43.22
767.076	41.8
767.254	40.96
767.432	38.98
767.61	39.56
767.788	39.44
767.967	37.88
768.145	37.36
768.323	36.43
768.501	36.15
768.679	36.68
768.857	36.06
769.035	37.21
769.213	38.42
769.391	40.1
769.569	40.05
769.747	40.19
769.925	40.51
770.103	38.83
770.281	38.52
770.459	37.05
770.636	38.01
770.814	38.58
770.992	38.95
771.17	37.23
771.348	36.17
771.525	36.38
771.703	35.75
771.881	36.7
772.059	38.32
772.236	39.09
772.414	39.19
772.592	37.49
772.769	35.05
772.947	35.34
773.125	36.07
773.302	36.26
773.48	36.17
773.657	37.04
773.835	36.48
774.013	34.17
774.19	32.97
774.368	35.12
774.545	33.98
774.723	33.94
774.9	33.96
775.077	33.12
775.255	32.35
775.432	30.28
775.61	31.39
775.787	30.63
775.964	32.53
776.142	34.18
776.319	31.88
776.496	31.47
776.674	33.99
776.851	33.36
777.028	34.79
777.205	35.76
777.382	37.02
777.56	35.35
777.737	35.66
777.914	35.28
778.091	34.92
778.268	35.24
778.445	35.76
778.622	35.41
778.8	36.32
778.977	37.18
779.154	36.34
779.331	37.62
779.508	38.22
779.685	37.06
779.862	37.13
780.038	38.34
780.215	39.11
780.392	39.1
780.569	36.7
780.746	37.53
780.923	35.38
781.1	36.36
781.277	35.29
781.453	37.04
781.63	40
781.807	41.78
781.984	41.44
782.16	39.84
782.337	40.34
782.514	41.18
782.691	40.16
782.867	39.83
783.044	37.8
783.221	37.71
783.397	34.65
783.574	31.36
783.75	29.47
783.927	30.9
784.103	32.64
784.28	32.67
784.456	34.8
784.633	32.58
784.809	34.48
784.986	37.66
785.162	36.7
785.339	41
785.515	42.94
785.692	44.02
785.868	41.88
786.044	41.42
786.221	40.09
786.397	38.47
786.573	40.46
786.749	40.09
786.926	37.8
787.102	39.31
787.278	37.38
787.454	37.16
787.631	36.2
787.807	34.3
787.983	35.86
788.159	37.43
788.335	36.38
788.511	36.2
788.687	34.85
788.863	35.93
789.039	37.42
789.216	35.64
789.392	35.74
789.568	35.01
789.744	36.82
789.919	34.1
790.095	33.99
790.271	35.2
790.447	34.91
790.623	37.61
790.799	37.49
790.975	35.1
791.151	35.14
791.327	38.08
791.502	37.79
791.678	39.74
791.854	40.7
792.03	39.34
792.205	40.89
792.381	39.3
792.557	37.99
792.733	37.62
792.908	37.58
793.084	38.52
793.259	34.62
793.435	35.51
793.611	37.84
793.786	35.87
793.962	37.59
794.137	38.7
794.313	40.61
794.488	40.53
794.664	42.75
794.839	42.51
795.015	43.04
795.19	43.73
795.366	44.28
795.541	42.79
795.716	44.06
795.892	43.31
796.067	39.73
796.242	38.87
796.418	37.9
796.593	35.19
796.768	34.5
796.944	33.02
797.119	33.61
797.294	30.87
797.469	29.18
797.644	31.15
797.82	29.95
797.995	30.59
798.17	29.41
798.345	30.3
798.52	31.77
798.695	32.44
798.87	31.23
799.045	32.37
799.22	34.06
799.395	31.64
799.57	32.8
799.745	34.91
799.92	35.36
800.095	36.8
800.27	36.15
800.445	34.02
800.62	35.73
800.795	35.69
800.97	34.67
801.145	37.72
801.319	40.42
801.494	37.68
801.669	34.13
801.844	33.61
802.018	35.73
802.193	36.86
802.368	37.15
802.543	33.97
802.717	38.29
802.892	37.86
803.067	36.24
803.241	37.83
803.416	38.04
803.59	40.01
803.765	40.8
803.94	38.76
804.114	37.21
804.289	35.5
804.463	34.8
804.638	31.64
804.812	31.03
804.986	31.62
805.161	29.59
805.335	28.49
805.51	29.21
805.684	28.73
805.858	28.81
806.033	29.62
806.207	31.3
806.381	32.89
806.556	34.99
806.73	37.15
806.904	37.31
807.078	34.8
807.253	37.05
807.427	35.85
807.601	33.78
807.775	34.26
807.949	33.83
808.123	34.92
808.298	37.57
808.472	35.53
808.646	29.96
808.82	28.7
808.994	28.17
809.168	26.37
809.342	28.24
809.516	30.59
809.69	28.94
809.864	26.77
810.038	28.53
810.212	26.56
810.385	26.82
810.559	30.64
810.733	29.31
810.907	31.05
811.081	31.48
811.255	28.48
811.428	29.38
811.602	29.39
811.776	33.89
811.95	32.1
812.123	34.71
812.297	36.27
812.471	34.75
812.644	35.93
812.818	35.43
812.992	31.93
813.165	32.99
813.339	33.18
813.512	34.83
813.686	40.23
813.86	43.6
814.033	37.91
814.207	35.28
814.38	39.01
814.554	39.57
814.727	43.15
814.9	46.09
815.074	47.46
815.247	43.08
815.421	41.66
815.594	32.92
815.767	26.92
815.941	27.16
816.114	26.99
816.287	25.36
816.46	25.53
816.634	23.65
816.807	22.67
816.98	22.25
817.153	29.91
817.327	30.02
817.5	33.62
817.673	36.21
817.846	35.34
818.019	39.34
818.192	38.96
818.365	41.95
818.538	45.4
818.711	45.05
818.884	40.51
819.057	35.1
819.23	32.79
819.403	33
819.576	32.08
819.749	34.43
819.922	33.2
820.095	36.36
820.268	33.16
820.441	28.39
820.614	32.23
820.786	35.16
820.959	37.58
821.132	38.06
821.305	37.02
821.477	37.55
821.65	37.51
821.823	37.51
821.996	37.58
822.168	38.05
822.341	39.16
822.514	38.08
822.686	38.56
822.859	38.51
823.031	39.09
823.204	38.93
823.376	39.19
823.549	39.66
823.722	39.47
823.894	39.44
824.067	39.29
824.239	38.59
824.411	39.2
824.584	38.47
824.756	37.88
824.929	37.4
825.101	37.4
825.273	36.91
825.446	36.75
825.618	37.08
825.79	36.23
825.963	35.35
826.135	35.66
826.307	34.67
826.479	34.41
826.652	34.2
826.824	33.93
826.996	33.23
827.168	33
827.34	31.83
827.512	31.91
827.684	32.2
827.856	33.12
828.029	33.38
828.201	34.68
828.373	35.5
828.545	35.28
828.717	35.55
828.889	36.46
829.061	36.58
829.232	36.61
829.404	35.75
829.576	35.78
829.748	35.28
829.92	35.68
830.092	35.49
830.264	34.96
830.436	35.58
830.607	35.51
830.779	34.79
830.951	33.29
831.123	34.41
831.294	34.06
831.466	31.55
831.638	29.29
831.809	28.04
831.981	28.03
832.153	28.07
832.324	26.25
832.496	24.89
832.667	26.49
832.839	31.34
833.011	31.41
833.182	31.01
833.354	33.51
833.525	36.57
833.697	38.17
833.868	36.94
834.039	36.33
834.211	40.26
834.382	41.73
834.554	43.22
834.725	40.91
834.896	41.52
835.068	43
835.239	41.81
835.41	41.75
835.581	41.11
835.753	40.23
835.924	41.35
836.095	40.78
836.266	40.38
836.438	37.61
836.609	38.05
836.78	36.66
836.951	36.86
837.122	40.45
837.293	42.56
837.464	42.38
837.635	43.1
837.806	40.04
837.977	36.76
838.148	36.04
838.319	35.8
838.49	38.45
838.661	39.97
838.832	36.84
839.003	30.82
839.174	21.78
839.345	24.53
839.516	21.44
839.687	19.35
839.857	29.77
840.028	29.8
840.199	26.8
840.37	25.44
840.54	29.88
840.711	32.55
840.882	31.09
841.053	30.95
841.223	28.26
841.394	33.54
841.564	34.75
841.735	27.48
841.906	25.94
842.076	35.65
842.247	31.45
842.417	24.54
842.588	22.35
842.758	22.93
842.929	22.12
843.099	11.74
843.27	4.85
843.44	12.07
843.611	12.07
843.781	1.64
843.951	-2.16
844.122	5.21
844.292	3.96
844.462	4.11
844.633	13.05
844.803	27.28
844.973	42.86
845.144	51.25
845.314	48.26
845.484	61.29
845.654	88.51
845.824	95.8
845.995	85.69
846.165	90.27
846.335	99.8
846.505	92.59
846.675	74.43
846.845	69.71
847.015	47.31
847.185	48.92
847.355	34.98
847.525	15.77
847.695	12.97
847.865	2.89
848.035	7.73
848.205	-15.86
848.375	-1.36
848.545	1.57
848.715	11.62
848.884	7.37
849.054	-6.55
849.224	-17.74
849.394	-3.98
849.564	-16.03
849.733	12.24
849.903	-7.75
850.073	-0.57
850.243	3.44
850.412	-3.38
850.582	-34.54
850.752	-31.56
850.921	-11.61
851.091	-13.71
851.26	-17.37
851.43	0.4
851.599	-13.55
851.769	-14.28
851.939	0.02
852.108	-39.88
852.278	-9.58
852.447	-3.9
852.616	-4.41
852.786	-19.52
852.955	13.36
853.125	-12.49
853.294	-26.31
853.463	-2.76
853.633	14.03
853.802	-10.3
853.971	12.71
854.141	-10.86
854.31	-28.91
854.479	-56.52
854.648	-79.18
854.818	-109.43
854.987	-49.21
855.156	-73.64
855.325	-63.76
855.494	-84.74
855.663	-112.47
855.832	-176.4
856.001	-193.97
856.171	-166.87
856.34	-109.46
856.509	-78.39
856.678	-74.9
856.847	-28.62
857.016	-20.87
857.185	-49.85
857.353	-28.32
857.522	-31.64
857.691	-2.62
857.86	0.49
858.029	21.4
858.198	16.69
858.367	0.86
858.535	-21.36
858.704	-48.78
858.873	-40.5
859.042	-30.37
859.21	-49.48
859.379	-36.57
859.548	-59.49
859.717	-54.98
859.885	-47.97
860.054	-46.12
860.222	-59.34
860.391	-36.25
860.56	-26.42
860.728	-7.17
860.897	-6.87
861.065	8.26
861.234	9.25
861.402	23.33
861.571	25.24
861.739	15.28
861.908	15.56
862.076	21.95
862.244	30.73
862.413	22.04
862.581	-2.28
862.749	-51.72
862.918	-135.1
863.086	-173.6
863.254	-222.09
863.423	-367.35
863.591	-203.25
863.759	-356.07
863.927	-275.28
864.096	-1493.18
864.264	346.95
864.432	572.9
864.6	-269.2
864.768	73.61
864.936	154.86
865.104	105.85
865.272	89.3
865.44	64.23
865.608	69.59
865.776	-7.19
865.944	-0.68
866.112	11.69
866.28	15.66
866.448	18.61
866.616	30.96
866.784	11.6
866.952	1.83
867.12	-3.8
867.288	17.42
867.455	10.86
867.623	29.59
867.791	27.61
867.959	22.16
868.127	17.98
868.294	8.01
868.462	-12.5
868.63	-21.81
868.797	-13.14
868.965	-78.31
869.133	-45.65
869.3	-39.31
869.468	1.27
869.636	30.09
869.803	9.56
869.971	11.25
870.138	6.17
870.306	20.52
870.473	20.33
870.641	3.31
870.808	5.5
870.975	-14.97
871.143	6.1
871.31	-20.02
871.478	-128.98
871.645	-21.75
871.812	-30.76
871.98	-16.66
872.147	-77.65
872.314	-44.81
872.482	-50.16
872.649	-51.53
872.816	5.3
872.983	-93.15
873.15	-9.46
873.318	1.43
873.485	-18.27
873.652	46.94
873.819	-29.53
873.986	-12.79
874.153	-3.18
874.32	6.4
874.487	15.47
874.654	-3.54
874.821	7.63
874.988	0.77
875.155	9.96
875.322	21.95
875.489	11.84
875.656	18.08
875.823	29.96
875.99	21.54
876.157	23.17
876.324	27.22
876.49	43.37
876.657	29.47
876.824	16.31
876.991	19.25
877.157	17.75
877.324	12.39
877.491	23.64
877.658	32.94
877.824	39.64
877.991	38.42
878.157	22.36
878.324	10.17
878.491	31.19
878.657	46.29
878.824	32.5
878.99	47.08
879.157	58.34
879.323	48.73
879.49	64.17
879.656	50.3
879.823	44.26
879.989	50.8
880.156	42.98
880.322	41.42
880.488	52.71
880.655	61.44
880.821	45.75
880.987	44.3
881.154	51.56
881.32	22.12
881.486	18.69
881.652	18.7
881.819	18.27
881.985	22.5
882.151	23.5
882.317	17.02
882.483	19.51
882.649	21.91
882.816	21.87
882.982	24.52
883.148	25.8
883.314	27.43
883.48	28.1
883.646	28.7
883.812	31.14
883.978	30.78
884.144	33.06
884.31	34.15
884.476	36.18
884.642	37.92
884.807	37.4
884.973	39.5
885.139	41.22
885.305	43.02
885.471	42.67
885.637	40.6
885.802	43.11
885.968	43.99
886.134	44.43
886.3	41.45
886.465	42.41
886.631	44.27
886.797	44.28
886.962	46
887.128	42.57
887.293	46.22
887.459	45.27
887.625	41.48
887.79	44.8
887.956	44.93
888.121	51.86
888.287	49.39
888.452	43.08
888.618	44.92
888.783	27.45
