Data from CB_108_Reflection_3.txt Node
Date: Sat Nov 14 18:08:16 EST 2015
User: robert
Spectrometer: USB4E03001
Autoset integration time: false
Trigger mode: 4
Integration Time (sec): 1.000000E-1
Scans to average: 15
Electric dark correction enabled: true
Nonlinearity correction enabled: false
Boxcar width: 5
Stray light correction enabled: false
XAxis mode: Wavelengths
Stop averaging: false
Number of Pixels in Spectrum: 3648
>>>>>Begin Spectral Data<<<<<
177.566	200.54
177.785	-1720.69
178.005	559.32
178.225	457.06
178.445	-1380
178.665	134.78
178.885	-573.2
179.105	167.26
179.324	229.25
179.544	96.55
179.764	115.36
179.984	81.73
180.204	93.79
180.423	109.56
180.643	124.69
180.863	167.6
181.083	122.31
181.302	135.94
181.522	145.2
181.742	135.24
181.961	201.16
182.181	251.44
182.401	770.02
182.621	508.93
182.84	611.6
183.06	286.45
183.279	193.09
183.499	261.65
183.719	196.97
183.938	138.54
184.158	171.58
184.377	152.54
184.597	174.15
184.816	132.7
185.036	122.81
185.256	122.17
185.475	118.08
185.695	126.9
185.914	124.57
186.134	121.05
186.353	128.21
186.572	107.22
186.792	102.38
187.011	114.23
187.231	113.3
187.45	124.31
187.67	115.74
187.889	114.36
188.108	115.75
188.328	126.79
188.547	134.66
188.766	127.9
188.986	121.53
189.205	113.51
189.424	91.94
189.644	101.15
189.863	107.32
190.082	109.32
190.302	109.18
190.521	80.21
190.74	79.1
190.959	77.13
191.178	86.5
191.398	105.53
191.617	115
191.836	128.27
192.055	77.23
192.274	35.91
192.494	68.81
192.713	80.21
192.932	118.41
193.151	105.29
193.37	123.59
193.589	88.98
193.808	149.29
194.027	278.48
194.246	-380.59
194.465	1507.19
194.685	135.07
194.904	142.37
195.123	96.93
195.342	123.67
195.561	107.36
195.78	103.92
195.999	108.6
196.218	82.84
196.436	76.13
196.655	86.34
196.874	84.62
197.093	100.81
197.312	84.72
197.531	92.77
197.75	93.53
197.969	103.33
198.188	99.74
198.407	104.58
198.625	115.73
198.844	124.96
199.063	111.32
199.282	116.88
199.501	143.96
199.719	144.5
199.938	125.36
200.157	117.22
200.376	114
200.594	109.98
200.813	124.18
201.032	119.76
201.251	133.72
201.469	135.11
201.688	123.32
201.907	124.06
202.125	139.77
202.344	206.24
202.563	194.04
202.781	208.89
203	259.25
203.218	276.6
203.437	247.24
203.656	207.05
203.874	164.45
204.093	212.4
204.311	187.97
204.53	210.49
204.748	150.56
204.967	175.87
205.185	178.35
205.404	156.56
205.622	121.6
205.841	107.74
206.059	122.35
206.278	115.74
206.496	106.65
206.715	122.04
206.933	103.43
207.151	102.76
207.37	117.77
207.588	121.34
207.806	133.28
208.025	133.22
208.243	141.65
208.461	172.5
208.68	176.97
208.898	173.12
209.116	139.79
209.335	151.6
209.553	186.36
209.771	180.42
209.989	160.23
210.208	140.6
210.426	132.67
210.644	120.24
210.862	90.6
211.081	113.26
211.299	121.87
211.517	128.63
211.735	128.01
211.953	121.72
212.171	111.94
212.39	116.63
212.608	121.4
212.826	123.76
213.044	122.47
213.262	129.58
213.48	124.76
213.698	107.62
213.916	128.93
214.134	119.45
214.352	126.33
214.57	125.77
214.788	133.31
215.006	146.2
215.224	163.58
215.442	213.63
215.66	193.83
215.878	216.26
216.096	277.73
216.314	228.59
216.532	258.55
216.75	222.82
216.968	233.09
217.185	229.05
217.403	299.25
217.621	399.89
217.839	311.79
218.057	379.5
218.275	297.07
218.492	309.48
218.71	319.73
218.928	297.32
219.146	437.17
219.363	302.76
219.581	329.42
219.799	329.05
220.017	259.89
220.234	234.26
220.452	275.41
220.67	302.04
220.887	431.57
221.105	563.68
221.323	8109.2
221.54	623.32
221.758	3170
221.976	1359.7
222.193	253.31
222.411	372.58
222.629	753.42
222.846	905.83
223.064	-867.7
223.281	1210.36
223.499	902.14
223.716	1708.64
223.934	-1520.61
224.151	-502.01
224.369	-333.55
224.586	-189.03
224.804	-120.93
225.021	-115.47
225.239	-118.09
225.456	-138.14
225.674	-106.5
225.891	-97.39
226.108	-133.36
226.326	-118.5
226.543	-87.55
226.76	-44.28
226.978	-30.09
227.195	-38.45
227.413	-34.6
227.63	-20.3
227.847	-14.86
228.064	-2.17
228.282	-2.91
228.499	1.3
228.716	1.34
228.934	-0.96
229.151	-0.7
229.368	-2.87
229.585	-4.08
229.802	-1.44
230.02	-0.26
230.237	-1.72
230.454	-2.49
230.671	-0.89
230.888	-1.65
231.105	-5.13
231.323	-6.83
231.54	-17.93
231.757	-20.56
231.974	-28.11
232.191	-34.89
232.408	-40.13
232.625	-35.61
232.842	-45.19
233.059	-46.11
233.276	-48.27
233.493	-45.21
233.71	-30.99
233.927	-14.4
234.144	-12.08
234.361	-9.06
234.578	-11.74
234.795	-10.1
235.012	-13.7
235.229	-14.44
235.446	-19.21
235.663	-14.66
235.879	-23.79
236.096	-31.29
236.313	-40.67
236.53	-35.88
236.747	-34.02
236.964	-32.88
237.181	-39.34
237.397	-40.74
237.614	-38.81
237.831	-30.96
238.048	-33.02
238.264	-33.08
238.481	-38.93
238.698	-32.31
238.915	-25.96
239.131	-20.1
239.348	-18.6
239.565	-11.77
239.781	-8.54
239.998	-3.81
240.215	-4.09
240.431	-7.2
240.648	-0.35
240.865	4.72
241.081	8.09
241.298	4.71
241.514	3.91
241.731	3.96
241.947	3.54
242.164	3.88
242.38	4.45
242.597	2.67
242.814	4.71
243.03	3.7
243.246	3.07
243.463	2.17
243.679	0.7
243.896	0.95
244.112	-0.31
244.329	-1.72
244.545	-0.75
244.762	-1.3
244.978	1.48
245.194	2.06
245.411	0.66
245.627	1
245.843	-0.67
246.06	0.55
246.276	2.29
246.492	4.89
246.709	5.57
246.925	4.62
247.141	5.2
247.357	5.43
247.574	4.65
247.79	5.03
248.006	5.2
248.222	4.95
248.439	4.99
248.655	3.72
248.871	2.48
249.087	2.33
249.303	1.35
249.519	-0.95
249.736	-3.52
249.952	-4.16
250.168	-2.5
250.384	-4.63
250.6	-3.48
250.816	-4.42
251.032	-4.81
251.248	-6.08
251.464	-8.93
251.68	-5.26
251.896	-4.41
252.112	-5.84
252.328	-6.99
252.544	-8.68
252.76	-8.91
252.976	-10.55
253.192	-10.38
253.408	-9.35
253.624	-7.14
253.84	-4.86
254.056	-8.62
254.272	-8.31
254.487	-7.14
254.703	-3.91
254.919	-8.65
255.135	-8.9
255.351	-10.99
255.567	-6.36
255.782	-7.15
255.998	-8.52
256.214	-11.54
256.43	-5.84
256.646	-6.26
256.861	-1.35
257.077	-5.85
257.293	0.44
257.508	3.98
257.724	4.51
257.94	4.29
258.155	3.71
258.371	4.6
258.587	4.34
258.802	3.25
259.018	2.88
259.234	2.03
259.449	3.96
259.665	3.5
259.88	2.88
260.096	3.91
260.312	3.4
260.527	4.19
260.743	3.63
260.958	3.78
261.174	4.12
261.389	4.26
261.605	3.99
261.82	2.74
262.036	2.02
262.251	2.19
262.466	2.6
262.682	2.55
262.897	0.53
263.113	1.16
263.328	3.44
263.543	-0.38
263.759	-3.14
263.974	-4.06
264.189	-6.18
264.405	-5.89
264.62	-6.6
264.835	-7.5
265.051	-6.78
265.266	-5.68
265.481	-5.11
265.696	-6.5
265.912	-3.16
266.127	-0.06
266.342	0.46
266.557	2.29
266.773	1.83
266.988	1.02
267.203	1.16
267.418	1.25
267.633	3.36
267.848	2.78
268.064	2.8
268.279	2.04
268.494	1.38
268.709	1.96
268.924	4.34
269.139	2.81
269.354	3.42
269.569	2.85
269.784	1.03
269.999	-1.57
270.214	-1.9
270.429	-4.77
270.644	-4.38
270.859	-3.1
271.074	-3.37
271.289	-5.48
271.504	-1.77
271.719	-1.76
271.934	-2.82
272.149	-0.72
272.363	0.1
272.578	1.65
272.793	3.81
273.008	2.99
273.223	3.22
273.438	2.83
273.653	3.48
273.867	1.99
274.082	2.74
274.297	3.53
274.512	2.52
274.726	0.94
274.941	-0.55
275.156	0.95
275.371	2.69
275.585	2.27
275.8	3.43
276.015	2.92
276.229	2.79
276.444	1.3
276.659	1.32
276.873	1.19
277.088	3.22
277.302	3.03
277.517	2.5
277.732	1.98
277.946	2.25
278.161	1.6
278.375	2.82
278.59	3.3
278.804	3.93
279.019	3.64
279.233	4.62
279.448	4.13
279.662	4.71
279.877	3.06
280.091	3.46
280.306	2.1
280.52	2.65
280.735	2.74
280.949	2.43
281.163	2.94
281.378	4
281.592	4.71
281.806	4.6
282.021	3.94
282.235	4.83
282.449	4.35
282.664	5.63
282.878	5.89
283.092	5.38
283.307	5.32
283.521	4.71
283.735	4.8
283.949	3.2
284.164	2.11
284.378	3.08
284.592	3.64
284.806	4.44
285.02	4.08
285.234	3.47
285.449	3.21
285.663	3.25
285.877	3.51
286.091	3.05
286.305	2.89
286.519	3.7
286.733	2.89
286.947	2.35
287.161	1.86
287.375	1.96
287.589	3.29
287.803	4.28
288.017	4.53
288.231	4.73
288.445	5.27
288.659	5.67
288.873	5.61
289.087	6
289.301	4.37
289.515	4.37
289.729	3.07
289.943	0.73
290.157	-0.41
290.371	-0.41
290.584	-0.34
290.798	-1.73
291.012	-0.22
291.226	-0.45
291.44	-0.52
291.654	1.15
291.867	1.73
292.081	3.52
292.295	4.19
292.509	3.95
292.722	3.75
292.936	4.14
293.15	5.93
293.364	5.23
293.577	5.02
293.791	5.62
294.005	4.2
294.218	4.15
294.432	2.26
294.645	3.01
294.859	4.18
295.073	4.08
295.286	3.69
295.5	3.1
295.713	2.61
295.927	3.47
296.14	2.88
296.354	2.96
296.568	2.86
296.781	4.04
296.994	3.82
297.208	2.67
297.421	3.82
297.635	3.61
297.848	3.83
298.062	4.36
298.275	4.06
298.489	4.36
298.702	5.09
298.915	4.42
299.129	4.55
299.342	5.64
299.555	5.68
299.769	4.98
299.982	6.01
300.195	5.74
300.409	5.94
300.622	5.91
300.835	5.46
301.048	4.74
301.262	5.16
301.475	3.69
301.688	2.42
301.901	4.53
302.115	4.3
302.328	4.28
302.541	4.53
302.754	3.18
302.967	3.75
303.18	3.71
303.393	4.9
303.607	5.24
303.82	6.24
304.033	7.62
304.246	6.64
304.459	6.74
304.672	6.68
304.885	6.82
305.098	7.37
305.311	7.44
305.524	8.21
305.737	6.84
305.95	7.32
306.163	6.5
306.376	5.21
306.589	5.11
306.802	3.99
307.015	3.02
307.228	3.1
307.44	4.61
307.653	4.8
307.866	6
308.079	6.63
308.292	6.9
308.505	7.11
308.718	7.05
308.93	7.87
309.143	8.59
309.356	7.89
309.569	7.99
309.781	8.02
309.994	7.17
310.207	5.71
310.42	5.68
310.632	5.43
310.845	5.34
311.058	5.78
311.27	5.84
311.483	6.47
311.696	7.92
311.908	8.48
312.121	7.31
312.333	7.35
312.546	8.72
312.759	8.92
312.971	9.26
313.184	10.44
313.396	10.22
313.609	8.9
313.821	8.21
314.034	5.93
314.246	5.84
314.459	6.55
314.671	6.02
314.884	4.54
315.096	4.76
315.309	3.16
315.521	2.7
315.733	2.61
315.946	3.45
316.158	3.19
316.371	5.44
316.583	4.39
316.795	4.48
317.008	5.78
317.22	6.75
317.432	6.85
317.644	6.31
317.857	7.15
318.069	8.16
318.281	7.96
318.494	7.5
318.706	7.04
318.918	5.91
319.13	6.92
319.342	6.54
319.555	5.66
319.767	5.18
319.979	5.77
320.191	5.63
320.403	4.29
320.615	4.42
320.827	5.11
321.039	4.83
321.252	7.27
321.464	6.63
321.676	6.59
321.888	6.6
322.1	6.78
322.312	8.42
322.524	7.39
322.736	8.86
322.948	9.2
323.16	9.44
323.372	8.73
323.584	7.73
323.796	7.3
324.007	7.18
324.219	7.27
324.431	7.39
324.643	6.4
324.855	6.7
325.067	6.83
325.279	6.05
325.491	7.35
325.702	8.21
325.914	8.07
326.126	7.41
326.338	9.29
326.55	10.7
326.761	10.28
326.973	11.36
327.185	12.1
327.396	11.49
327.608	11.34
327.82	9.54
328.032	10.65
328.243	11.04
328.455	12.28
328.666	10.43
328.878	10.65
329.09	11.62
329.301	10.77
329.513	9.89
329.725	9.81
329.936	10.31
330.148	10.56
330.359	8.94
330.571	9.14
330.782	9.35
330.994	9.9
331.205	8.93
331.417	9.3
331.628	10.03
331.84	9.55
332.051	9.2
332.262	10.41
332.474	11.21
332.685	12.05
332.897	12.42
333.108	13.27
333.319	13.53
333.531	13.4
333.742	12.99
333.953	14.28
334.165	14.58
334.376	15.71
334.587	15.87
334.799	17.24
335.01	17.21
335.221	17.14
335.432	17.14
335.644	17.8
335.855	18.2
336.066	18.42
336.277	16.45
336.488	16.89
336.7	16.2
336.911	15.25
337.122	14
337.333	14.04
337.544	12.6
337.755	10.97
337.966	10.37
338.177	9.65
338.388	9.34
338.599	10.24
338.811	9.49
339.022	10.43
339.233	10.5
339.444	9.86
339.655	9.32
339.866	10.06
340.076	10.47
340.287	10.52
340.498	11.12
340.709	11.35
340.92	12
341.131	11.48
341.342	11.75
341.553	11.58
341.764	12.77
341.975	13.15
342.185	13.64
342.396	13.42
342.607	13.13
342.818	13.28
343.029	13.55
343.239	12.63
343.45	13.91
343.661	13.14
343.872	14.24
344.082	14.38
344.293	14.8
344.504	14.6
344.714	15.55
344.925	15.76
345.136	15.27
345.346	14.59
345.557	14.39
345.768	14.36
345.978	13.81
346.189	13.84
346.399	13.43
346.61	12.48
346.821	12.38
347.031	12.58
347.242	12.94
347.452	12.51
347.663	12.22
347.873	12.4
348.084	12.5
348.294	13.25
348.504	12.92
348.715	12.44
348.925	12.82
349.136	13.17
349.346	12.38
349.557	12.18
349.767	12.34
349.977	12.65
350.188	11.62
350.398	11.24
350.608	10.78
350.819	10.72
351.029	10.92
351.239	11.15
351.449	11.36
351.66	11.46
351.87	11.17
352.08	11.55
352.29	12.05
352.501	13.58
352.711	13.9
352.921	13.78
353.131	13.93
353.341	13.36
353.552	13.61
353.762	13.29
353.972	13.25
354.182	13.5
354.392	13.52
354.602	13.42
354.812	13.49
355.022	13.67
355.232	14.28
355.442	14.57
355.652	15.46
355.862	14.84
356.072	14.56
356.282	14.21
356.492	14.08
356.702	14.45
356.912	14.73
357.122	14.25
357.332	14.04
357.542	13.66
357.752	12.72
357.962	12.58
358.171	12.64
358.381	13.21
358.591	13.82
358.801	13.95
359.011	13.56
359.221	14.06
359.43	13.99
359.64	13.23
359.85	13.16
360.06	13.36
360.269	13.01
360.479	13.72
360.689	13.66
360.899	13.29
361.108	13.17
361.318	13.18
361.528	12.73
361.737	13.25
361.947	13.81
362.156	13.98
362.366	14.43
362.576	14
362.785	13.89
362.995	14.07
363.204	14.16
363.414	14.07
363.623	14.06
363.833	14.05
364.042	13.38
364.252	13.9
364.461	14.16
364.671	13.95
364.88	14.43
365.09	13.94
365.299	13.65
365.509	13.74
365.718	14.23
365.927	13.93
366.137	13.49
366.346	13.86
366.555	13.23
366.765	12.66
366.974	12.44
367.183	11.72
367.393	11.94
367.602	11.83
367.811	12.37
368.021	11.42
368.23	11.6
368.439	12.1
368.648	12.34
368.857	12.42
369.067	12.34
369.276	12.65
369.485	13.32
369.694	13.07
369.903	13.1
370.112	12.4
370.321	12.75
370.531	12.98
370.74	13.01
370.949	12.95
371.158	13.39
371.367	13.35
371.576	13.25
371.785	13.32
371.994	13.07
372.203	12.64
372.412	12.48
372.621	12.81
372.83	12.69
373.039	12.01
373.248	11.69
373.457	10.76
373.666	10.48
373.874	10.16
374.083	10.31
374.292	9.86
374.501	10.1
374.71	9.38
374.919	8.64
375.128	8.72
375.336	9.49
375.545	9.46
375.754	9.71
375.963	9.93
376.171	9.94
376.38	9.9
376.589	10.63
376.798	10.17
377.006	10.52
377.215	10.74
377.424	10.29
377.632	9.73
377.841	9.7
378.05	9.24
378.258	9.43
378.467	9.01
378.675	9.09
378.884	8.41
379.093	8.73
379.301	8.81
379.51	8.63
379.718	8.39
379.927	8.5
380.135	8.76
380.344	8.99
380.552	8.31
380.761	8.85
380.969	8.62
381.177	9.32
381.386	8.84
381.594	9.38
381.803	9.66
382.011	9.82
382.219	10.06
382.428	9.68
382.636	9.72
382.845	10.3
383.053	10.35
383.261	10.25
383.469	9.87
383.678	10.75
383.886	10.63
384.094	10.26
384.302	9.94
384.511	9.93
384.719	10.02
384.927	10.02
385.135	9.76
385.343	9.39
385.552	9.1
385.76	8.89
385.968	8.26
386.176	7.73
386.384	7.85
386.592	8.2
386.8	7.56
387.008	7.31
387.216	7.36
387.424	7.02
387.633	7.18
387.841	7.21
388.049	7.27
388.257	7.25
388.465	7.1
388.672	6.84
388.88	6.67
389.088	6.87
389.296	6.71
389.504	6.4
389.712	7.04
389.92	7.02
390.128	6.98
390.336	6.78
390.544	6.75
390.751	6.72
390.959	6.49
391.167	6.55
391.375	6.71
391.583	6.7
391.79	6.67
391.998	6.3
392.206	6.2
392.414	6.18
392.621	6.13
392.829	6.05
393.037	6.25
393.244	6.54
393.452	6.06
393.66	5.83
393.867	5.73
394.075	5.95
394.283	5.86
394.49	5.75
394.698	5.52
394.905	5.63
395.113	5.56
395.32	5.39
395.528	4.99
395.735	5.47
395.943	5.33
396.15	5.32
396.358	5.07
396.565	4.84
396.773	4.82
396.98	4.85
397.188	5.16
397.395	5.16
397.602	5.06
397.81	5.12
398.017	5.05
398.225	5.25
398.432	5.12
398.639	5.19
398.847	5.23
399.054	5.41
399.261	5.48
399.468	4.97
399.676	5.22
399.883	5.28
400.09	5.43
400.297	5.18
400.505	4.97
400.712	5.11
400.919	4.86
401.126	4.94
401.333	4.75
401.54	5.18
401.748	5.37
401.955	4.9
402.162	4.96
402.369	4.95
402.576	5.04
402.783	5.2
402.99	5.19
403.197	5.39
403.404	5.42
403.611	5.37
403.818	4.92
404.025	4.83
404.232	4.85
404.439	4.92
404.646	5.14
404.853	5
405.06	4.63
405.267	4.78
405.474	4.62
405.681	4.7
405.887	4.63
406.094	4.44
406.301	4.43
406.508	4.5
406.715	4.14
406.922	3.92
407.128	4.13
407.335	4.57
407.542	4.55
407.749	4.62
407.955	4.56
408.162	4.54
408.369	4.76
408.575	4.65
408.782	4.91
408.989	5.02
409.195	5.11
409.402	4.83
409.609	4.49
409.815	4.52
410.022	4.45
410.228	4.23
410.435	4.29
410.642	4.68
410.848	4.34
411.055	4.13
411.261	4.01
411.468	3.86
411.674	4.23
411.881	4.26
412.087	3.85
412.294	4.16
412.5	4.2
412.706	4.19
412.913	3.57
413.119	4
413.326	3.82
413.532	3.86
413.738	3.86
413.945	3.48
414.151	3.69
414.357	3.84
414.564	3.59
414.77	3.6
414.976	3.71
415.182	3.88
415.389	3.97
415.595	4.16
415.801	4.35
416.007	4.38
416.214	4.27
416.42	4.25
416.626	4.27
416.832	4.18
417.038	4.38
417.244	4.47
417.45	4.66
417.657	4.59
417.863	4.71
418.069	4.61
418.275	4.41
418.481	4.68
418.687	4.65
418.893	4.82
419.099	4.92
419.305	4.95
419.511	4.81
419.717	4.69
419.923	4.5
420.129	4.41
420.335	4.38
420.541	4.7
420.746	4.66
420.952	4.74
421.158	4.76
421.364	4.72
421.57	4.61
421.776	4.67
421.982	4.59
422.187	4.69
422.393	4.71
422.599	4.81
422.805	4.68
423.01	4.85
423.216	4.77
423.422	4.77
423.628	4.75
423.833	4.81
424.039	4.87
424.245	4.84
424.45	4.93
424.656	4.96
424.862	4.86
425.067	4.76
425.273	4.59
425.478	4.53
425.684	4.42
425.889	4.36
426.095	4.41
426.301	4.13
426.506	4.21
426.712	4.18
426.917	4.27
427.123	4.27
427.328	4.48
427.533	4.48
427.739	4.55
427.944	4.41
428.15	4.44
428.355	4.12
428.561	4.28
428.766	4.32
428.971	4.13
429.177	3.85
429.382	3.97
429.587	3.78
429.793	3.66
429.998	3.52
430.203	3.5
430.408	3.6
430.614	3.47
430.819	3.53
431.024	3.62
431.229	3.69
431.434	3.64
431.64	3.55
431.845	3.59
432.05	3.43
432.255	3.55
432.46	3.68
432.665	3.53
432.87	3.92
433.076	3.9
433.281	3.77
433.486	3.72
433.691	3.77
433.896	3.72
434.101	3.79
434.306	3.8
434.511	3.64
434.716	3.64
434.921	3.6
435.126	3.45
435.331	3.5
435.535	3.57
435.74	3.5
435.945	3.65
436.15	3.67
436.355	3.72
436.56	3.84
436.765	4.09
436.97	4.03
437.174	4.23
437.379	4.26
437.584	4.15
437.789	4.15
437.993	4.28
438.198	4.1
438.403	4.26
438.608	4.08
438.812	4.25
439.017	4.07
439.222	4.25
439.426	4.11
439.631	4.02
439.836	3.97
440.04	4.03
440.245	3.86
440.45	3.98
440.654	3.93
440.859	3.85
441.063	3.74
441.268	3.71
441.472	3.59
441.677	3.67
441.881	3.7
442.086	3.82
442.29	3.66
442.495	3.97
442.699	3.93
442.904	3.99
443.108	3.91
443.312	3.81
443.517	3.86
443.721	3.91
443.925	3.88
444.13	4.04
444.334	3.91
444.538	4
444.743	3.87
444.947	3.98
445.151	3.85
445.356	4.05
445.56	4.16
445.764	4.4
445.968	4.31
446.173	4.32
446.377	4.1
446.581	4.1
446.785	4.01
446.989	3.93
447.193	3.83
447.398	3.87
447.602	3.97
447.806	3.94
448.01	3.76
448.214	3.88
448.418	3.71
448.622	3.7
448.826	3.63
449.03	3.79
449.234	3.98
449.438	3.97
449.642	3.94
449.846	3.72
450.05	3.56
450.254	3.42
450.458	3.18
450.662	3.39
450.866	3.42
451.069	3.6
451.273	3.45
451.477	3.36
451.681	3.21
451.885	3.33
452.089	3.35
452.292	3.51
452.496	3.41
452.7	3.53
452.904	3.39
453.107	3.36
453.311	3.36
453.515	3.46
453.719	3.41
453.922	3.38
454.126	3.22
454.33	3.29
454.533	3.37
454.737	3.45
454.94	3.42
455.144	3.48
455.348	3.56
455.551	3.32
455.755	3.26
455.958	3.28
456.162	3.38
456.365	3.51
456.569	3.43
456.772	3.41
456.976	3.52
457.179	3.53
457.383	3.72
457.586	3.78
457.79	3.97
457.993	4.06
458.196	4.13
458.4	4.2
458.603	3.98
458.807	4.1
459.01	4.04
459.213	4.04
459.417	4.02
459.62	3.78
459.823	3.7
460.026	3.59
460.23	3.53
460.433	3.48
460.636	3.55
460.839	3.57
461.042	3.39
461.246	3.28
461.449	3.27
461.652	3.18
461.855	3.44
462.058	3.52
462.261	3.7
462.464	3.73
462.668	3.73
462.871	3.58
463.074	3.65
463.277	3.71
463.48	3.69
463.683	3.58
463.886	3.8
464.089	3.53
464.292	3.49
464.495	3.49
464.698	3.52
464.901	3.59
465.104	3.73
465.306	3.84
465.509	3.68
465.712	3.82
465.915	3.76
466.118	3.56
466.321	3.73
466.524	3.76
466.726	3.63
466.929	3.51
467.132	3.39
467.335	3.25
467.538	3.31
467.74	3.28
467.943	3.25
468.146	3.42
468.348	3.52
468.551	3.42
468.754	3.44
468.956	3.47
469.159	3.6
469.362	3.63
469.564	3.68
469.767	3.57
469.969	3.8
470.172	4.03
470.375	3.86
470.577	3.84
470.78	3.77
470.982	3.79
471.185	3.75
471.387	3.54
471.59	3.52
471.792	3.41
471.995	3.28
472.197	3.16
472.399	2.73
472.602	2.77
472.804	2.78
473.007	2.73
473.209	2.87
473.411	2.71
473.614	2.76
473.816	2.61
474.018	2.74
474.22	2.77
474.423	2.88
474.625	3.12
474.827	3.06
475.03	2.93
475.232	3.07
475.434	2.96
475.636	3.09
475.838	3.23
476.04	3.42
476.243	3.32
476.445	3.36
476.647	3.39
476.849	3.37
477.051	3.51
477.253	3.5
477.455	3.39
477.657	3.24
477.859	3.25
478.061	3.21
478.263	3.14
478.465	3.11
478.667	3.18
478.869	3.07
479.071	3.12
479.273	3.22
479.475	3.27
479.677	3.36
479.879	3.44
480.081	3.49
480.283	3.44
480.485	3.49
480.686	3.69
480.888	3.63
481.09	3.67
481.292	3.61
481.494	3.45
481.695	3.56
481.897	3.71
482.099	3.71
482.301	3.73
482.502	3.83
482.704	3.85
482.906	3.87
483.107	3.91
483.309	3.94
483.511	4.03
483.712	4.09
483.914	4.06
484.115	4.03
484.317	4.05
484.519	4.05
484.72	4.01
484.922	3.99
485.123	3.95
485.325	3.9
485.526	3.89
485.728	3.82
485.929	3.82
486.131	3.83
486.332	3.8
486.534	3.83
486.735	3.83
486.936	3.88
487.138	3.97
487.339	3.94
487.541	4.08
487.742	4.1
487.943	4.08
488.144	4.09
488.346	4.08
488.547	4.06
488.748	4.01
488.95	4.08
489.151	3.98
489.352	3.91
489.553	3.95
489.755	3.85
489.956	3.84
490.157	3.88
490.358	3.78
490.559	3.85
490.76	3.82
490.961	3.88
491.163	3.79
491.364	3.83
491.565	3.78
491.766	3.78
491.967	3.76
492.168	3.76
492.369	3.73
492.57	3.75
492.771	3.68
492.972	3.75
493.173	3.63
493.374	3.65
493.575	3.69
493.776	3.82
493.976	3.78
494.177	3.68
494.378	3.69
494.579	3.73
494.78	3.84
494.981	3.85
495.182	3.81
495.382	3.85
495.583	3.83
495.784	3.69
495.985	3.62
496.185	3.6
496.386	3.61
496.587	3.57
496.788	3.55
496.988	3.53
497.189	3.65
497.39	3.7
497.59	3.86
497.791	3.88
497.992	4.07
498.192	3.99
498.393	4.05
498.593	4.27
498.794	4.25
498.994	4.3
499.195	3.97
499.395	3.84
499.596	3.77
499.796	3.76
499.997	3.72
500.197	3.6
500.398	3.75
500.598	3.72
500.799	3.62
500.999	3.65
501.199	3.57
501.4	3.85
501.6	3.99
501.801	3.87
502.001	3.9
502.201	3.92
502.402	4.01
502.602	3.86
502.802	3.79
503.002	3.89
503.203	3.88
503.403	3.9
503.603	3.83
503.803	3.79
504.003	3.94
504.204	3.91
504.404	3.8
504.604	3.8
504.804	3.96
505.004	4.02
505.204	3.91
505.404	3.96
505.604	3.99
505.804	4.03
506.005	3.89
506.205	3.98
506.405	3.86
506.605	4.01
506.805	4.03
507.005	3.96
507.204	3.99
507.404	3.98
507.604	4.04
507.804	4.13
508.004	4.2
508.204	4.33
508.404	4.25
508.604	4.42
508.804	4.44
509.003	4.5
509.203	4.57
509.403	4.62
509.603	4.55
509.803	4.59
510.002	4.52
510.202	4.59
510.402	4.5
510.602	4.51
510.801	4.53
511.001	4.41
511.201	4.35
511.4	4.36
511.6	4.33
511.8	4.59
511.999	4.56
512.199	4.67
512.398	4.73
512.598	4.94
512.797	5.1
512.997	5.14
513.197	5.41
513.396	5.46
513.596	5.64
513.795	5.89
513.994	5.78
514.194	5.83
514.393	5.89
514.593	5.94
514.792	5.99
514.992	6.09
515.191	6.13
515.39	6.03
515.59	6.29
515.789	6.35
515.988	6.35
516.188	6.66
516.387	6.74
516.586	6.81
516.786	6.71
516.985	6.63
517.184	6.45
517.383	6.42
517.582	6.47
517.782	6.43
517.981	6.41
518.18	6.44
518.379	6.41
518.578	6.51
518.777	6.49
518.976	6.65
519.176	6.8
519.375	6.95
519.574	7.05
519.773	7.1
519.972	7.08
520.171	7.06
520.37	7.08
520.569	7.19
520.768	7.15
520.967	7.34
521.166	7.42
521.365	7.54
521.564	7.68
521.762	7.75
521.961	7.89
522.16	8.12
522.359	8.33
522.558	8.62
522.757	8.55
522.956	8.81
523.154	8.95
523.353	9.02
523.552	9.18
523.751	9.3
523.949	9.4
524.148	9.59
524.347	9.64
524.546	9.82
524.744	9.86
524.943	9.97
525.142	9.88
525.34	9.9
525.539	9.92
525.737	10.01
525.936	10.17
526.135	10.29
526.333	10.35
526.532	10.53
526.73	10.58
526.929	10.69
527.127	10.88
527.326	11.04
527.524	11.17
527.723	11.38
527.921	11.5
528.12	11.56
528.318	11.67
528.516	11.81
528.715	11.88
528.913	11.94
529.112	11.94
529.31	12.06
529.508	12.13
529.707	12.29
529.905	12.34
530.103	12.34
530.301	12.38
530.5	12.47
530.698	12.51
530.896	12.6
531.094	12.66
531.293	12.82
531.491	12.82
531.689	12.96
531.887	12.91
532.085	13.09
532.283	13.28
532.481	13.46
532.68	13.58
532.878	13.66
533.076	13.77
533.274	13.88
533.472	13.95
533.67	14.11
533.868	14.21
534.066	14.3
534.264	14.32
534.462	14.36
534.66	14.38
534.858	14.36
535.056	14.44
535.253	14.44
535.451	14.6
535.649	14.76
535.847	14.73
536.045	14.78
536.243	14.88
536.441	14.99
536.638	15.13
536.836	15.25
537.034	15.29
537.232	15.38
537.43	15.54
537.627	15.52
537.825	15.54
538.023	15.67
538.22	15.85
538.418	15.9
538.616	15.96
538.813	15.97
539.011	16.07
539.209	16.27
539.406	16.5
539.604	16.62
539.801	16.9
539.999	17.03
540.196	17.17
540.394	17.28
540.591	17.45
540.789	17.54
540.986	17.68
541.184	17.83
541.381	17.94
541.579	17.95
541.776	18.04
541.974	18.01
542.171	18.07
542.368	18.19
542.566	18.28
542.763	18.34
542.96	18.4
543.158	18.54
543.355	18.58
543.552	18.74
543.75	18.82
543.947	18.88
544.144	18.99
544.341	19.04
544.539	19.07
544.736	19.11
544.933	19.22
545.13	19.3
545.327	19.23
545.524	19.28
545.722	19.17
545.919	19.24
546.116	19.3
546.313	19.32
546.51	19.28
546.707	19.32
546.904	19.36
547.101	19.31
547.298	19.5
547.495	19.46
547.692	19.58
547.889	19.74
548.086	19.85
548.283	19.96
548.48	20.08
548.677	20.39
548.874	20.51
549.07	20.63
549.267	20.97
549.464	21.04
549.661	21.28
549.858	21.3
550.055	21.45
550.251	21.53
550.448	21.44
550.645	21.65
550.842	21.58
551.038	21.58
551.235	21.82
551.432	21.59
551.628	21.54
551.825	21.58
552.022	21.63
552.218	21.64
552.415	21.56
552.612	21.79
552.808	21.77
553.005	21.99
553.201	22.16
553.398	22.08
553.594	22.28
553.791	22.29
553.987	22.23
554.184	22.44
554.38	22.57
554.577	22.94
554.773	22.9
554.97	22.88
555.166	22.78
555.362	22.77
555.559	22.92
555.755	22.86
555.952	23.1
556.148	23.3
556.344	23.41
556.541	23.39
556.737	23.39
556.933	23.5
557.129	23.58
557.326	23.78
557.522	23.99
557.718	24
557.914	24.23
558.11	24.27
558.307	24.44
558.503	24.28
558.699	24.33
558.895	24.31
559.091	24.36
559.287	24.61
559.483	24.6
559.679	24.59
559.876	24.75
560.072	24.69
560.268	24.69
560.464	24.9
560.66	25.12
560.856	25.12
561.052	25.23
561.247	25.3
561.443	25.47
561.639	25.69
561.835	25.54
562.031	25.62
562.227	25.74
562.423	25.94
562.619	25.85
562.815	25.99
563.01	26.11
563.206	26.24
563.402	26.19
563.598	26.04
563.793	25.93
563.989	26.08
564.185	26.07
564.381	26.06
564.576	25.79
564.772	25.73
564.968	25.48
565.163	25.5
565.359	25.4
565.555	25.51
565.75	25.71
565.946	25.81
566.141	25.96
566.337	26.1
566.532	26.1
566.728	26.42
566.923	26.46
567.119	26.63
567.314	26.69
567.51	26.76
567.705	26.78
567.901	26.68
568.096	26.69
568.292	26.75
568.487	26.75
568.682	26.96
568.878	27.01
569.073	27.27
569.268	27.4
569.464	27.41
569.659	27.38
569.854	27.55
570.05	27.62
570.245	27.85
570.44	27.89
570.635	27.87
570.831	27.95
571.026	27.74
571.221	27.64
571.416	27.68
571.611	27.71
571.806	27.89
572.002	27.98
572.197	28.19
572.392	28.15
572.587	28.03
572.782	28.02
572.977	28.02
573.172	28.12
573.367	27.95
573.562	27.92
573.757	27.95
573.952	27.83
574.147	27.77
574.342	27.74
574.537	27.66
574.732	28.03
574.927	28
575.121	27.93
575.316	28.03
575.511	28.5
575.706	28.58
575.901	28.73
576.096	28.82
576.29	29
576.485	29.04
576.68	29.28
576.875	29.32
577.069	29.38
577.264	29.46
577.459	29.36
577.654	29.34
577.848	29.21
578.043	29.23
578.238	29.39
578.432	29.26
578.627	29.11
578.821	29.06
579.016	28.82
579.21	29.03
579.405	28.9
579.6	29.02
579.794	28.74
579.989	28.99
580.183	28.79
580.378	28.61
580.572	28.62
580.766	28.91
580.961	28.64
581.155	28.54
581.35	28.43
581.544	28.74
581.738	28.72
581.933	28.96
582.127	28.77
582.321	29.15
582.516	29.09
582.71	29.11
582.904	28.83
583.099	29.08
583.293	29.46
583.487	29.54
583.681	29.34
583.875	29.44
584.07	29.51
584.264	29.85
584.458	29.72
584.652	29.92
584.846	30.02
585.04	30.01
585.234	29.99
585.428	29.77
585.623	30
585.817	30.19
586.011	30.26
586.205	30.04
586.399	29.81
586.593	29.51
586.787	29.7
586.981	29.59
587.174	29.64
587.368	29.57
587.562	29.44
587.756	29.27
587.95	29.26
588.144	29.56
588.338	29.62
588.532	29.72
588.725	30.26
588.919	30.38
589.113	30.6
589.307	30.77
589.501	30.87
589.694	31.23
589.888	31.38
590.082	31.33
590.275	31.15
590.469	31.04
590.663	30.7
590.856	30.66
591.05	30.59
591.244	30.55
591.437	30.71
591.631	30.58
591.824	30.51
592.018	30.35
592.212	30.26
592.405	30.3
592.599	30.41
592.792	30.79
592.986	30.5
593.179	30.35
593.372	30.32
593.566	30.28
593.759	30.58
593.953	30.63
594.146	30.51
594.339	30.71
594.533	30.81
594.726	30.93
594.92	30.94
595.113	31
595.306	31.1
595.499	31.14
595.693	31.16
595.886	31.23
596.079	31.25
596.272	31.52
596.466	31.68
596.659	31.62
596.852	31.59
597.045	31.77
597.238	31.94
597.431	32.24
597.624	32.26
597.818	32.38
598.011	32.39
598.204	32.37
598.397	32.38
598.59	32.31
598.783	32.26
598.976	32.51
599.169	32.39
599.362	32.12
599.555	31.79
599.748	31.7
599.941	31.38
600.134	31.45
600.326	31.24
600.519	31.01
600.712	30.85
600.905	30.89
601.098	30.56
601.291	30.25
601.483	30.42
601.676	30.39
601.869	30.69
602.062	30.73
602.255	30.66
602.447	30.95
602.64	30.85
602.833	30.91
603.025	31.14
603.218	31.27
603.411	31.53
603.603	31.76
603.796	32.03
603.989	32.12
604.181	32.29
604.374	32.37
604.566	32.29
604.759	32.37
604.951	32.54
605.144	32.37
605.336	32.37
605.529	32.48
605.721	32.5
605.914	32.28
606.106	32.11
606.299	31.91
606.491	31.94
606.683	32.12
606.876	32.26
607.068	32.33
607.26	32.39
607.453	32.55
607.645	32.32
607.837	32.23
608.03	32.39
608.222	32.62
608.414	32.89
608.606	32.87
608.799	32.68
608.991	32.87
609.183	32.69
609.375	32.9
609.567	32.94
609.759	33.26
609.952	33.47
610.144	33.58
610.336	33.57
610.528	33.45
610.72	33.51
610.912	33.68
611.104	33.65
611.296	33.64
611.488	33.62
611.68	33.52
611.872	33.31
612.064	32.99
612.256	32.81
612.448	32.54
612.64	32.63
612.832	32.45
613.023	32.31
613.215	32.27
613.407	32.26
613.599	32.03
613.791	31.99
613.983	32.07
614.174	32.18
614.366	32.08
614.558	32.18
614.75	32.24
614.941	32.35
615.133	32.51
615.325	32.3
615.516	32.53
615.708	32.68
615.9	32.75
616.091	32.84
616.283	33.06
616.475	33.21
616.666	33.29
616.858	32.98
617.049	33.21
617.241	32.8
617.432	33.01
617.624	32.83
617.815	32.49
618.007	32.53
618.198	32.21
618.39	31.74
618.581	31.59
618.773	31.65
618.964	31.92
619.155	31.86
619.347	32
619.538	31.96
619.729	32.08
619.921	32.75
620.112	32.73
620.303	32.76
620.494	33.05
620.686	33.34
620.877	33.19
621.068	33.21
621.259	33.01
621.451	33.17
621.642	33.25
621.833	33.12
622.024	32.74
622.215	33.01
622.406	33.39
622.597	33.34
622.788	33.28
622.98	33.38
623.171	33.66
623.362	33.68
623.553	33.58
623.744	33.55
623.935	33.6
624.126	33.81
624.317	33.65
624.508	33.66
624.698	33.96
624.889	33.73
625.08	33.72
625.271	33.46
625.462	33.49
625.653	33.96
625.844	34.03
626.034	34.3
626.225	34.15
626.416	33.99
626.607	33.9
626.798	33.7
626.988	34.14
627.179	34.12
627.37	34.52
627.56	34.44
627.751	34.03
627.942	33.9
628.132	33.79
628.323	33.81
628.514	33.9
628.704	33.85
628.895	33.56
629.085	33.21
629.276	33.3
629.466	33.1
629.657	33.2
629.847	33.55
630.038	33.43
630.228	33.2
630.419	33.3
630.609	33.38
630.8	33.29
630.99	33.63
631.181	33.75
631.371	33.61
631.561	33.39
631.752	33.48
631.942	33.1
632.132	33.3
632.323	33.37
632.513	33.42
632.703	33.4
632.893	33.35
633.084	33.37
633.274	33.17
633.464	33.39
633.654	33.23
633.844	33.12
634.034	33.2
634.225	33.1
634.415	33.18
634.605	32.85
634.795	33.02
634.985	33.43
635.175	33.23
635.365	33.61
635.555	33.5
635.745	33.52
635.935	33.56
636.125	33.7
636.315	33.71
636.505	33.64
636.695	34.01
636.885	33.86
637.075	33.53
637.265	33.86
637.455	33.59
637.644	33.56
637.834	33.7
638.024	33.75
638.214	33.97
638.404	34.06
638.593	34.12
638.783	33.94
638.973	33.96
639.163	34.24
639.352	34.02
639.542	34.12
639.732	34.21
639.921	33.81
640.111	33.68
640.301	33.4
640.49	33.15
640.68	33.33
640.87	33.17
641.059	32.83
641.249	32.77
641.438	32.9
641.628	32.88
641.817	32.8
642.007	33.03
642.196	33.32
642.386	33.28
642.575	33.17
642.764	33.08
642.954	33.24
643.143	33.94
643.333	33.79
643.522	33.32
643.711	33.68
643.901	33.95
644.09	34.03
644.279	33.79
644.469	33.92
644.658	34.27
644.847	34.55
645.036	34.67
645.226	34.21
645.415	34.28
645.604	34.75
645.793	34.56
645.982	34.27
646.171	34.37
646.361	34.23
646.55	33.74
646.739	34
646.928	33.36
647.117	33.48
647.306	33.45
647.495	33.39
647.684	33.22
647.873	33.15
648.062	33.37
648.251	33.32
648.44	33.12
648.629	33.97
648.818	33.85
649.007	34.5
649.196	34.23
649.384	34.13
649.573	34.38
649.762	34.55
649.951	34.57
650.14	34.29
650.328	34.01
650.517	34.21
650.706	33.72
650.895	33.21
651.083	32.85
651.272	32.96
651.461	33.21
651.65	32.56
651.838	33.27
652.027	33.14
652.216	33.38
652.404	34.16
652.593	34.57
652.781	34.36
652.97	34.56
653.158	34.58
653.347	34.58
653.535	34.73
653.724	35.11
653.912	34.44
654.101	34.56
654.289	34.31
654.478	33.89
654.666	33.64
654.855	34.39
655.043	34.51
655.231	34.4
655.42	34.47
655.608	34.33
655.796	34.45
655.985	34.43
656.173	34.33
656.361	34.28
656.55	34.25
656.738	34.46
656.926	34.09
657.114	34.11
657.302	34.3
657.491	34.36
657.679	34.19
657.867	34.45
658.055	34.42
658.243	34.31
658.431	34.21
658.619	34.59
658.807	34.38
658.996	34.5
659.184	34.55
659.372	34.42
659.56	34.17
659.748	34.57
659.936	34.48
660.124	34.31
660.311	34.45
660.499	34.85
660.687	34.34
660.875	34.11
661.063	34.11
661.251	34.27
661.439	34.12
661.627	34.51
661.814	34.22
662.002	34.14
662.19	34.16
662.378	34.09
662.565	33.88
662.753	34.17
662.941	34.34
663.129	33.77
663.316	33.87
663.504	34
663.692	33.79
663.879	33.9
664.067	33.62
664.254	33.98
664.442	34.24
664.63	34.01
664.817	33.66
665.005	33.74
665.192	34.1
665.38	34.41
665.567	34.7
665.755	34.73
665.942	34.48
666.13	34.54
666.317	34.44
666.504	33.91
666.692	33.76
666.879	34.38
667.067	34.69
667.254	34.84
667.441	34.24
667.629	33.84
667.816	34.2
668.003	34.2
668.19	34.18
668.378	34.22
668.565	34.36
668.752	35.04
668.939	34.72
669.127	34.21
669.314	33.65
669.501	33.89
669.688	34.43
669.875	34.03
670.062	34.24
670.249	34.54
670.436	34.39
670.623	34.37
670.81	34.03
670.997	34.41
671.184	34.88
671.371	35.11
671.558	34.85
671.745	34.41
671.932	34.11
672.119	33.87
672.306	33.67
672.493	34.01
672.68	34.06
672.867	34.06
673.054	33.73
673.24	33.87
673.427	34.26
673.614	34.08
673.801	34.18
673.988	34.23
674.174	34.46
674.361	34.62
674.548	34.74
674.734	35.09
674.921	34.79
675.108	34.89
675.294	34.4
675.481	33.71
675.668	34.21
675.854	34.51
676.041	34.58
676.227	34.55
676.414	34.28
676.601	34.04
676.787	33.9
676.974	34.01
677.16	33.4
677.347	33.58
677.533	34.25
677.719	34.12
677.906	34.18
678.092	34.76
678.279	35.21
678.465	35.3
678.651	35.11
678.838	34.9
679.024	35.35
679.21	35.65
679.397	35.68
679.583	35.45
679.769	35.64
679.955	35.39
680.142	35.36
680.328	35.04
680.514	35.21
680.7	35.02
680.886	35.28
681.073	34.87
681.259	35.02
681.445	34.82
681.631	34.78
681.817	34.52
682.003	34.24
682.189	33.92
682.375	33.42
682.561	33.44
682.747	33.92
682.933	33.69
683.119	33.8
683.305	33.9
683.491	34.3
683.677	34.64
683.863	34.83
684.049	34.85
684.235	34.88
684.42	35.4
684.606	35.31
684.792	35.15
684.978	34.98
685.164	35.04
685.349	34.81
685.535	34.2
685.721	34.24
685.907	33.72
686.092	34.34
686.278	34.23
686.464	34.03
686.649	33.34
686.835	33.44
687.021	33.69
687.206	34.02
687.392	34.07
687.577	34.64
687.763	34.27
687.948	34.32
688.134	34.13
688.319	33.86
688.505	33.77
688.69	34.06
688.876	34.06
689.061	34.64
689.247	34.53
689.432	34.71
689.618	34.57
689.803	34.89
689.988	35.22
690.174	35.43
690.359	35.54
690.544	35.64
690.73	36.16
690.915	36.09
691.1	35.51
691.285	34.83
691.471	35.3
691.656	35.49
691.841	35.5
692.026	34.88
692.211	34.43
692.396	33.88
692.582	34.13
692.767	33.94
692.952	33.96
693.137	33.51
693.322	34.2
693.507	33.34
693.692	33.47
693.877	33.27
694.062	34.09
694.247	34.46
694.432	35.92
694.617	34.98
694.802	34.99
694.987	34.81
695.172	35.11
695.357	35.03
695.541	35.27
695.726	35.24
695.911	35.26
696.096	35.33
696.281	35.32
696.466	34.85
696.65	35.8
696.835	35.57
697.02	35.67
697.204	35.65
697.389	35.36
697.574	35.26
697.759	35.38
697.943	35.46
698.128	35.14
698.312	34.96
698.497	35.09
698.682	34.98
698.866	34.78
699.051	34.22
699.235	34.4
699.42	34.53
699.604	34.51
699.789	34.42
699.973	34.36
700.158	34.57
700.342	34.53
700.527	34.39
700.711	34.34
700.895	34.62
701.08	35.24
701.264	34.92
701.448	34.92
701.633	34.82
701.817	33.85
702.001	33.46
702.186	33.04
702.37	33.27
702.554	32.9
702.738	32.67
702.923	33.07
703.107	33.73
703.291	33.78
703.475	33.79
703.659	33.87
703.843	34.15
704.027	35.02
704.212	34.98
704.396	34.47
704.58	34.28
704.764	34.32
704.948	33.45
705.132	32.69
705.316	33.16
705.5	33.11
705.684	33.1
705.868	33.99
706.052	34.16
706.235	34.18
706.419	34.95
706.603	36.07
706.787	36.27
706.971	36.8
707.155	36.83
707.339	36.84
707.522	37.01
707.706	36.74
707.89	36.03
708.074	35.32
708.257	35.81
708.441	35.28
708.625	34.39
708.808	34.76
708.992	34.77
709.176	34.65
709.359	33.92
709.543	34.51
709.727	35.03
709.91	35.17
710.094	34.88
710.277	35.04
710.461	34.71
710.644	35.38
710.828	34.76
711.011	35.01
711.195	35.07
711.378	35.34
711.562	34.71
711.745	34.44
711.928	34.57
712.112	35.28
712.295	34.86
712.478	35.44
712.662	34.94
712.845	35.39
713.028	34.93
713.212	34.8
713.395	34.93
713.578	35.18
713.761	35.04
713.945	35.45
714.128	34.95
714.311	34.63
714.494	35.14
714.677	34.72
714.86	34.72
715.043	34.81
715.227	35.34
715.41	35.13
715.593	34.65
715.776	34.82
715.959	34.45
716.142	34.58
716.325	35.03
716.508	33.92
716.691	34
716.874	33.61
717.057	33.4
717.239	32.92
717.422	32.91
717.605	33.26
717.788	32.75
717.971	32.24
718.154	32.34
718.337	32.72
718.519	32.49
718.702	32.56
718.885	32.27
719.068	32.58
719.25	33.35
719.433	32.9
719.616	32.65
719.798	32.81
719.981	32.91
720.164	32.9
720.346	31.99
720.529	31.87
720.712	32.28
720.894	32.99
721.077	32.99
721.259	32.05
721.442	32.18
721.624	32.05
721.807	32.86
721.989	33.13
722.172	32.92
722.354	33.76
722.537	34.41
722.719	32.81
722.901	32.17
723.084	32.23
723.266	32.32
723.448	32.04
723.631	32.85
723.813	32.71
723.995	31.7
724.178	31.76
724.36	31.08
724.542	31.36
724.724	32.43
724.907	32.76
725.089	33
725.271	33.11
725.453	34.94
725.635	33.67
725.817	33.77
725.999	34.39
726.181	34.47
726.364	34.43
726.546	34.74
726.728	35.2
726.91	35.78
727.092	35.27
727.274	34.62
727.456	33.68
727.638	34.6
727.819	34.28
728.001	35.1
728.183	34.74
728.365	34.67
728.547	34.52
728.729	34.19
728.911	33.37
729.093	33.65
729.274	34.45
729.456	34.43
729.638	33.99
729.82	33.55
730.001	33.45
730.183	34.05
730.365	33.49
730.546	33.44
730.728	33.4
730.91	33.43
731.091	31.89
731.273	31.76
731.455	31.33
731.636	30.82
731.818	31.57
731.999	31.96
732.181	31.2
732.362	31.17
732.544	30.92
732.725	30.35
732.907	30.62
733.088	31.78
733.27	31.6
733.451	31.61
733.633	31.82
733.814	30.96
733.995	30.66
734.177	29.79
734.358	30.66
734.539	30.48
734.721	30.94
734.902	30.33
735.083	30.52
735.264	30.33
735.446	31.59
735.627	31.41
735.808	32.16
735.989	30.59
736.17	32.4
736.351	32.12
736.533	33.56
736.714	34.59
736.895	35.1
737.076	35.26
737.257	35.61
737.438	34.71
737.619	34.37
737.8	35.01
737.981	36.25
738.162	35.73
738.343	35.7
738.524	35.63
738.705	34.72
738.886	33.99
739.067	32.76
739.247	33.24
739.428	33.12
739.609	33.75
739.79	33.42
739.971	33.83
740.151	33.26
740.332	32.92
740.513	32.12
740.694	32.82
740.874	33.41
741.055	33.81
741.236	32.81
741.417	33.29
741.597	34.14
741.778	32.79
741.958	32.06
742.139	32.05
742.32	31.93
742.5	31.94
742.681	31.54
742.861	31.42
743.042	32.38
743.222	33.11
743.403	32.01
743.583	31.91
743.764	32.15
743.944	31.85
744.124	32.97
744.305	33.57
744.485	33.44
744.666	33.7
744.846	34.99
745.026	34.14
745.207	34.02
745.387	34.91
745.567	34.26
745.747	34.02
745.928	34.58
746.108	33.99
746.288	34.33
746.468	33.9
746.648	32.73
746.829	32.02
747.009	33.19
747.189	31.96
747.369	30.45
747.549	30.4
747.729	30.85
747.909	30.83
748.089	29.07
748.269	28.69
748.449	28.89
748.629	29.88
748.809	30.65
748.989	30.73
749.169	31.6
749.349	31.59
749.529	32.07
749.709	32.32
749.889	31.84
750.068	33.18
750.248	32.29
750.428	32
750.608	32.05
750.788	31.85
750.967	31.05
751.147	30.66
751.327	33.33
751.507	31.41
751.686	30.04
751.866	30.94
752.046	29.63
752.225	30.96
752.405	31.11
752.585	31.53
752.764	30.94
752.944	31.04
753.123	31.67
753.303	29.11
753.482	30.64
753.662	31.26
753.841	30.98
754.021	31.7
754.2	30.74
754.38	32.1
754.559	31.62
754.739	31.37
754.918	31.05
755.097	30.48
755.277	32.2
755.456	31.99
755.635	32.26
755.815	31.64
755.994	32.88
756.173	32.63
756.352	31.01
756.532	30.58
756.711	30.9
756.89	31.07
757.069	31.77
757.248	31.38
757.427	31.42
757.607	30.98
757.786	32.86
757.965	32.88
758.144	34.13
758.323	34.7
758.502	36.69
758.681	35.93
758.86	36.26
759.039	36.42
759.218	35.26
759.397	36.43
759.576	37.21
759.755	34.87
759.934	35.23
760.113	33.91
760.291	34.13
760.47	32.53
760.649	31.76
760.828	30.9
761.007	30.74
761.186	32.02
761.364	31.5
761.543	32.83
761.722	35.11
761.901	34.19
762.079	36.31
762.258	36.02
762.437	37.29
762.615	38.35
762.794	38.86
762.972	37.77
763.151	37.48
763.33	37.27
763.508	35.96
763.687	34.95
763.865	34.8
764.044	33.95
764.222	33.93
764.401	32.65
764.579	33.36
764.758	33.93
764.936	34.15
765.114	34.52
765.293	34.55
765.471	35.97
765.65	35.96
765.828	36.79
766.006	37.21
766.184	37.45
766.363	37.59
766.541	37.28
766.719	36.59
766.898	37.91
767.076	36.99
767.254	36.57
767.432	35.03
767.61	35.61
767.788	34.89
767.967	33.78
768.145	33.56
768.323	33.16
768.501	32.25
768.679	32.45
768.857	31.77
769.035	32.8
769.213	33.57
769.391	33.17
769.569	33.33
769.747	32.17
769.925	32.15
770.103	32.4
770.281	32.72
770.459	32.49
770.636	32.11
770.814	33.26
770.992	33.27
771.17	31.6
771.348	31.93
771.525	31.26
771.703	31.74
771.881	32.67
772.059	31.26
772.236	30.04
772.414	29.88
772.592	30.35
772.769	28.24
772.947	28.22
773.125	27.99
773.302	27.74
773.48	28.44
773.657	30.53
773.835	30.47
774.013	32.68
774.19	33.2
774.368	32.09
774.545	30.7
774.723	29.34
774.9	28.93
775.077	28.67
775.255	29.65
775.432	25.9
775.61	24
775.787	22.18
775.964	21.88
776.142	21.98
776.319	26.09
776.496	26.64
776.674	28.97
776.851	27.74
777.028	27.85
777.205	27.32
777.382	30.38
777.56	28.63
777.737	29.01
777.914	28.21
778.091	28.53
778.268	25.23
778.445	24.75
778.622	23.77
778.8	26.24
778.977	28.7
779.154	28.29
779.331	27.13
779.508	28.98
779.685	30.61
779.862	30.2
780.038	29.33
780.215	30.3
780.392	30.74
780.569	29.08
780.746	28.43
780.923	27.5
781.1	27.38
781.277	27.6
781.453	29.04
781.63	28.83
781.807	28.85
781.984	31.35
782.16	31.68
782.337	31.29
782.514	32.22
782.691	30.45
782.867	28.46
783.044	28.38
783.221	28.83
783.397	27.34
783.574	23.79
783.75	22.52
783.927	22.85
784.103	23.72
784.28	23.27
784.456	25.67
784.633	24.28
784.809	24.84
784.986	25.27
785.162	23.18
785.339	24.1
785.515	25.86
785.692	28.65
785.868	24.01
786.044	22.88
786.221	24.7
786.397	22.93
786.573	23.7
786.749	24.98
786.926	25.43
787.102	26.23
787.278	27.78
787.454	28.42
787.631	27.41
787.807	29.58
787.983	28.36
788.159	27
788.335	24.54
788.511	26.16
788.687	26.63
788.863	25
789.039	25.13
789.216	22.73
789.392	24.02
789.568	21.99
789.744	23.12
789.919	24.86
790.095	26.13
790.271	29.94
790.447	30.04
790.623	29.92
790.799	31.89
790.975	31.74
791.151	32.3
791.327	34.24
791.502	34.58
791.678	32.53
791.854	29.28
792.03	27.2
792.205	29
792.381	29.77
792.557	29.61
792.733	29.16
792.908	29.23
793.084	30.39
793.259	26.11
793.435	27.24
793.611	30.92
793.786	32.57
793.962	33.16
794.137	30.09
794.313	30.24
794.488	31.13
794.664	32.42
794.839	32.41
795.015	31.28
795.19	32.83
795.366	32.8
795.541	29.33
795.716	28.97
795.892	28.24
796.067	29.78
796.242	30.86
796.418	28.16
796.593	26.08
796.768	26.33
796.944	24.45
797.119	25.07
797.294	25.23
797.469	28.13
797.644	27.07
797.82	27.62
797.995	24.68
798.17	23.15
798.345	23.6
798.52	23.66
798.695	24.27
798.87	25.56
799.045	24.35
799.22	24.23
799.395	23.12
799.57	26.79
799.745	26.62
799.92	29.96
800.095	28.31
800.27	28.45
800.445	27.92
800.62	27.84
800.795	24.97
800.97	24.22
801.145	25.52
801.319	23.47
801.494	19.81
801.669	22.12
801.844	21.48
802.018	22.62
802.193	25.24
802.368	27.01
802.543	26.71
802.717	32.48
802.892	32.64
803.067	29.35
803.241	31.38
803.416	34.13
803.59	32.22
803.765	29.94
803.94	27.43
804.114	25.07
804.289	23.13
804.463	22.93
804.638	19.9
804.812	17.36
804.986	20.53
805.161	19.04
805.335	17.13
805.51	17.57
805.684	15.94
805.858	18.03
806.033	15.58
806.207	14.54
806.381	16.13
806.556	17.52
806.73	23.23
806.904	21.76
807.078	20.82
807.253	19.38
807.427	19.45
807.601	21.46
807.775	22.96
807.949	25.89
808.123	26.34
808.298	26.03
808.472	24.59
808.646	20.7
808.82	22.42
808.994	25.5
809.168	29.84
809.342	29.21
809.516	31.76
809.69	30.11
809.864	29.69
810.038	34.23
810.212	31.85
810.385	31.06
810.559	29.96
810.733	29.5
810.907	25.41
811.081	24.1
811.255	24.56
811.428	19.79
811.602	19.56
811.776	20.24
811.95	17.29
812.123	20.21
812.297	20.81
812.471	20.05
812.644	18.56
812.818	20.79
812.992	16.96
813.165	12.52
813.339	14.17
813.512	15.15
813.686	18.23
813.86	18.62
814.033	13.55
814.207	13.36
814.38	15.3
814.554	16.1
814.727	18.97
814.9	17.37
815.074	23.13
815.247	21.46
815.421	21.58
815.594	17.79
815.767	14.93
815.941	20.41
816.114	21.38
816.287	24.76
816.46	24.07
816.634	20.85
816.807	21.31
816.98	23.05
817.153	26.33
817.327	25.52
817.5	25.62
817.673	28.85
817.846	23.24
818.019	24.83
818.192	22.34
818.365	23.06
818.538	25.41
818.711	25.79
818.884	22.23
819.057	15.62
819.23	14.12
819.403	12.53
819.576	9.66
819.749	11.18
819.922	12.26
820.095	14.73
820.268	17.01
820.441	15.39
820.614	20.13
820.786	22.63
820.959	26.75
821.132	26.71
821.305	29.89
821.477	31.07
821.65	31.76
821.823	31.67
821.996	31.32
822.168	31.02
822.341	32.2
822.514	31.84
822.686	31.82
822.859	32.66
823.031	33.59
823.204	32.73
823.376	32.97
823.549	33.4
823.722	33.22
823.894	33.63
824.067	33.43
824.239	33.22
824.411	34.09
824.584	33.77
824.756	33.12
824.929	32.62
825.101	32.99
825.273	33.74
825.446	33.36
825.618	34.37
825.79	34.47
825.963	34.78
826.135	35.09
826.307	33.92
826.479	33.79
826.652	33.14
826.824	32.92
826.996	32.75
827.168	31.59
827.34	30.48
827.512	30.35
827.684	29.56
827.856	29.73
828.029	29.72
828.201	30.45
828.373	30.39
828.545	30
828.717	30.33
828.889	30.24
829.061	30.93
829.232	31.88
829.404	30.05
829.576	30.1
829.748	29.85
829.92	29.02
830.092	27.93
830.264	27.38
830.436	26.82
830.607	26.36
830.779	26.96
830.951	26.62
831.123	27.05
831.294	27.57
831.466	25.07
831.638	23.5
831.809	21.43
831.981	22.35
832.153	23.1
832.324	22.82
832.496	22.57
832.667	18.42
832.839	16.18
833.011	17.07
833.182	17.97
833.354	19.01
833.525	21.71
833.697	24.75
833.868	23.44
834.039	24.96
834.211	29.1
834.382	29.26
834.554	32.2
834.725	33.04
834.896	31.28
835.068	31.28
835.239	33.24
835.41	32.57
835.581	31.25
835.753	30.73
835.924	30.07
836.095	28.74
836.266	28.74
836.438	27.6
836.609	26.56
836.78	25.85
836.951	25.75
837.122	22.52
837.293	23.21
837.464	23.46
837.635	23.2
837.806	25.16
837.977	21.59
838.148	20.43
838.319	16.54
838.49	17.73
838.661	17.61
838.832	13.71
839.003	10.45
839.174	1.23
839.345	-5.72
839.516	-12.87
839.687	-28.97
839.857	-22.41
840.028	-16.53
840.199	-9.26
840.37	-10.25
840.54	2.92
840.711	9.71
840.882	16.28
841.053	17.42
841.223	18.42
841.394	24.89
841.564	23.25
841.735	19.48
841.906	11.05
842.076	5.08
842.247	2.28
842.417	-12.12
842.588	-18.27
842.758	-24.54
842.929	-32.13
843.099	-38.32
843.27	-47.43
843.44	-36.31
843.611	-39.24
843.781	-40.31
843.951	-31.73
844.122	-29.88
844.292	-26.58
844.462	-29.75
844.633	-22.67
844.803	-5.63
844.973	-0.24
845.144	3.6
845.314	-1.8
845.484	9
845.654	19.01
845.824	17.12
845.995	6.74
846.165	2.66
846.335	7
846.505	-11.4
846.675	-33.51
846.845	-45.87
847.015	-54.58
847.185	-47.2
847.355	-54.04
847.525	-51.69
847.695	-66.82
847.865	-75.88
848.035	-77.37
848.205	-99.94
848.375	-74.83
848.545	-80.17
848.715	-73.67
848.884	-83.17
849.054	-117.44
849.224	-125.86
849.394	-143.31
849.564	-104.33
849.733	-66.12
849.903	-76.31
850.073	-49.66
850.243	-49.8
850.412	-40.72
850.582	-55.52
850.752	-52.83
850.921	-27.78
851.091	-32.1
851.26	-31.83
851.43	-37.92
851.599	-73.47
851.769	-70.75
851.939	-81.9
852.108	-135.22
852.278	-120.81
852.447	-105.41
852.616	-95.91
852.786	-100.52
852.955	-103.19
853.125	-122.78
853.294	-116.6
853.463	-101.51
853.633	-117.32
853.802	-113.77
853.971	-95.87
854.141	-110.3
854.31	-147.87
854.479	-223.15
854.648	-251.07
854.818	-245.01
854.987	-197.11
855.156	-217.33
855.325	-170.16
855.494	-185.82
855.663	-212.89
855.832	-255.61
856.001	-244.36
856.171	-200.73
856.34	-146.17
856.509	-151.01
856.678	-159.72
856.847	-119.34
857.016	-124.99
857.185	-109
857.353	-51.98
857.522	-49.27
857.691	-20.18
857.86	-23.18
858.029	-10.63
858.198	-11.75
858.367	-6.58
858.535	-21.83
858.704	-30.97
858.873	-14.74
859.042	-6.64
859.21	-29.01
859.379	-23.04
859.548	-55.46
859.717	-58.95
859.885	-50
860.054	-47.3
860.222	-70.44
860.391	-51.7
860.56	-38.39
860.728	-32.65
860.897	-27.22
861.065	-16.24
861.234	-29.97
861.402	-13.58
861.571	-11.67
861.739	-15.93
861.908	-17.23
862.076	-7.62
862.244	-0.78
862.413	-6.32
862.581	-23.14
862.749	-100.05
862.918	-166.36
863.086	-154.46
863.254	-174.91
863.423	-296.07
863.591	-184.33
863.759	-401.74
863.927	-404.26
864.096	-1814.65
864.264	575.51
864.432	1113.76
864.6	-1900
864.768	-522.68
864.936	-168
865.104	-74.34
865.272	-43.62
865.44	-91.65
865.608	-24.27
865.776	-90.79
865.944	-122.96
866.112	-52.68
866.28	-56.21
866.448	-49.71
866.616	-53.96
866.784	-61.85
866.952	-110.65
867.12	-85.69
867.288	-51.39
867.455	-72.54
867.623	-59.14
867.791	-33.25
867.959	-54.24
868.127	-28.18
868.294	-25.3
868.462	-38.48
868.63	-60.73
868.797	-74.81
868.965	-219.46
869.133	-245.65
869.3	-191
869.468	-99.7
869.636	-61.3
869.803	-83.37
869.971	-94.92
870.138	-59.05
870.306	-58.27
870.473	-38.87
870.641	-25.11
870.808	-25.61
870.975	-28.76
871.143	-21.13
871.31	-49.13
871.478	-164.99
871.645	-47.47
871.812	-52.92
871.98	-108.22
872.147	-112.69
872.314	-81.64
872.482	-125.31
872.649	-153.93
872.816	-97.78
872.983	-323.14
873.15	-102.69
873.318	-84.45
873.485	-175.43
873.652	-226.6
873.819	-114.2
873.986	-86.84
874.153	-83.64
874.32	-61.37
874.487	-41.86
874.654	-48.62
874.821	-30.21
874.988	-49.38
875.155	-54.17
875.322	-33.95
875.489	-26.39
875.656	-31.03
875.823	-33.77
875.99	-34.4
876.157	-37.9
876.324	-46.9
876.49	-30.78
876.657	-24.99
876.824	-26.96
876.991	-13.05
877.157	-6.8
877.324	-2.92
877.491	5.9
877.658	-12.09
877.824	-20.87
877.991	-15.13
878.157	-7.53
878.324	-12.2
878.491	-10.78
878.657	-16.18
878.824	-14.43
878.99	-0.92
879.157	0.54
879.323	-18.68
879.49	20.58
879.656	9.32
879.823	-3.73
879.989	-2.45
880.156	-19.04
880.322	-29.65
880.488	-8.14
880.655	-13.93
880.821	-43.38
880.987	-24.65
881.154	-15.69
881.32	-16.54
881.486	-6.18
881.652	-3.81
881.819	-0.92
881.985	10.13
882.151	17.33
882.317	17.7
882.483	19.71
882.649	22.31
882.816	20.77
882.982	23.3
883.148	23.27
883.314	25.09
883.48	26.03
883.646	25.86
883.812	25.98
883.978	25.16
884.144	24.78
884.31	26.28
884.476	27.21
884.642	28.72
884.807	29.12
884.973	31.91
885.139	32.55
885.305	34.61
885.471	36.26
885.637	35.13
885.802	36.78
885.968	37.29
886.134	37.77
886.3	37.35
886.465	36.91
886.631	37.14
886.797	35.02
886.962	33.61
887.128	31.9
887.293	28.59
887.459	29.87
887.625	29.13
887.79	30.99
887.956	26.47
888.121	27.31
888.287	24.18
888.452	19.65
888.618	14.28
888.783	5.46
