Data from CB_109_Reflection_1.txt Node
Date: Sat Nov 14 18:10:47 EST 2015
User: robert
Spectrometer: USB4E03001
Autoset integration time: false
Trigger mode: 4
Integration Time (sec): 1.000000E-1
Scans to average: 15
Electric dark correction enabled: true
Nonlinearity correction enabled: false
Boxcar width: 5
Stray light correction enabled: false
XAxis mode: Wavelengths
Stop averaging: false
Number of Pixels in Spectrum: 3648
>>>>>Begin Spectral Data<<<<<
177.566	118.88
177.785	-102.96
178.005	-74.38
178.225	364.19
178.445	-1170.53
178.665	36.19
178.885	36.08
179.105	-10.64
179.324	-79.76
179.544	5.75
179.764	42.5
179.984	25.46
180.204	-35.32
180.423	-30.8
180.643	19.4
180.863	13.82
181.083	6.76
181.302	13.54
181.522	41.8
181.742	52.35
181.961	120.3
182.181	148.27
182.401	402.45
182.621	369.16
182.84	597.25
183.06	266.52
183.279	199.6
183.499	322.45
183.719	216.24
183.938	104.82
184.158	145.49
184.377	72.53
184.597	82.18
184.816	74.54
185.036	73.15
185.256	74.08
185.475	59.67
185.695	51.3
185.914	49.22
186.134	78.8
186.353	81.7
186.572	66.03
186.792	86.42
187.011	80.69
187.231	69.92
187.45	77.96
187.67	72.02
187.889	82.65
188.108	86.33
188.328	106.9
188.547	108.74
188.766	109.49
188.986	101.72
189.205	93.47
189.424	93.68
189.644	110.22
189.863	123.37
190.082	158.15
190.302	146.85
190.521	119.24
190.74	92.81
190.959	89.05
191.178	86.29
191.398	85.33
191.617	107.01
191.836	123.76
192.055	95.02
192.274	44.91
192.494	49.58
192.713	105.08
192.932	210.61
193.151	375.02
193.37	231.91
193.589	188.98
193.808	326.98
194.027	538.03
194.246	-1278.9
194.465	2010.78
194.685	238.42
194.904	213.27
195.123	128.37
195.342	106.83
195.561	93.33
195.78	84.81
195.999	124.17
196.218	103.75
196.436	98.26
196.655	91.89
196.874	97.5
197.093	99.72
197.312	87.93
197.531	88.95
197.75	102.04
197.969	93.84
198.188	83.68
198.407	65
198.625	68.36
198.844	71.2
199.063	75.6
199.282	87.73
199.501	92.24
199.719	101.89
199.938	87.19
200.157	70.32
200.376	70.58
200.594	84.63
200.813	105.6
201.032	89.39
201.251	97.38
201.469	88.13
201.688	81.34
201.907	73.66
202.125	77.37
202.344	117.94
202.563	133.19
202.781	154.08
203	198.47
203.218	186.81
203.437	172.37
203.656	167.19
203.874	133.74
204.093	161.44
204.311	165.58
204.53	173.6
204.748	113.63
204.967	126.43
205.185	146.99
205.404	131.12
205.622	92.03
205.841	98.3
206.059	87.38
206.278	84.02
206.496	61.63
206.715	48.06
206.933	52.73
207.151	67.16
207.37	70.91
207.588	59.62
207.806	66.72
208.025	81.17
208.243	63.44
208.461	68.32
208.68	70.46
208.898	95.66
209.116	87.4
209.335	90.92
209.553	97.1
209.771	104.51
209.989	100.16
210.208	82.86
210.426	75.89
210.644	105.01
210.862	89.42
211.081	103.5
211.299	97.08
211.517	109.18
211.735	88.5
211.953	79.78
212.171	74.28
212.39	66.31
212.608	85.61
212.826	92.93
213.044	73.25
213.262	77.66
213.48	74.94
213.698	64.66
213.916	71.63
214.134	78.05
214.352	79.19
214.57	70.3
214.788	93.05
215.006	94.91
215.224	95.52
215.442	125.96
215.66	102.75
215.878	113.9
216.096	147.59
216.314	121.85
216.532	148.5
216.75	159.39
216.968	168.34
217.185	148.07
217.403	174.97
217.621	234.54
217.839	175.72
218.057	249.84
218.275	192.98
218.492	188.96
218.71	215.47
218.928	202.31
219.146	251.84
219.363	194.79
219.581	235.19
219.799	205.52
220.017	156.95
220.234	177.11
220.452	224.48
220.67	253.6
220.887	385.1
221.105	481.32
221.323	6638.04
221.54	473.21
221.758	2322.86
221.976	670
222.193	184.05
222.411	234.38
222.629	330.51
222.846	187.42
223.064	-171.24
223.281	186.17
223.499	176
223.716	434.17
223.934	-443.15
224.151	-115.42
224.369	-59.72
224.586	-27.26
224.804	-18.09
225.021	-12.47
225.239	-28.56
225.456	-45.47
225.674	-49.8
225.891	-43
226.108	-88.25
226.326	-98.27
226.543	-70.65
226.76	-57.29
226.978	-40.9
227.195	-45.1
227.413	-36.61
227.63	-26.95
227.847	-16.51
228.064	-3.87
228.282	-0.43
228.499	8.25
228.716	7.24
228.934	3.04
229.151	1.46
229.368	1.01
229.585	-0.54
229.802	0.08
230.02	0.53
230.237	2.1
230.454	2.91
230.671	-1.42
230.888	-4.74
231.105	-6.34
231.323	-5.25
231.54	-9.46
231.757	-15.37
231.974	-18.39
232.191	-19.38
232.408	-15.36
232.625	-15.44
232.842	-30.71
233.059	-19.09
233.276	-16.72
233.493	-19.44
233.71	-14.04
233.927	-2.6
234.144	0.99
234.361	-2.42
234.578	-4.58
234.795	0.7
235.012	-3.69
235.229	1.57
235.446	-1.01
235.663	-1.99
235.879	1.07
236.096	-6.38
236.313	-14.13
236.53	-13.66
236.747	-14.16
236.964	-21.07
237.181	-33.26
237.397	-30.93
237.614	-37.14
237.831	-33.55
238.048	-30.96
238.264	-34.43
238.481	-33.74
238.698	-23.08
238.915	-15.06
239.131	-6.5
239.348	0.63
239.565	3.12
239.781	3.03
239.998	5.25
240.215	1.06
240.431	-2.53
240.648	3.24
240.865	6.06
241.081	4.7
241.298	3.17
241.514	2.6
241.731	4.06
241.947	3.44
242.164	3.75
242.38	6.25
242.597	8.71
242.814	10.41
243.03	6.72
243.246	5.67
243.463	6.22
243.679	4.29
243.896	5.61
244.112	3.04
244.329	2.46
244.545	2.71
244.762	0.13
244.978	0.37
245.194	-1.67
245.411	0.39
245.627	2.28
245.843	1.72
246.06	3.31
246.276	3.44
246.492	6.26
246.709	6.53
246.925	6.55
247.141	7.32
247.357	7.15
247.574	6.81
247.79	7.84
248.006	8.24
248.222	8.17
248.439	8.51
248.655	8.15
248.871	7.45
249.087	7.52
249.303	6.43
249.519	4.86
249.736	3.12
249.952	5.3
250.168	5.83
250.384	5.06
250.6	6.12
250.816	5.38
251.032	5.98
251.248	3.79
251.464	2.08
251.68	3.34
251.896	3.27
252.112	2.27
252.328	-0.32
252.544	-2.98
252.76	-4.57
252.976	-6.31
253.192	-6.23
253.408	-7.78
253.624	-4.19
253.84	-2.16
254.056	-1.18
254.272	1.15
254.487	0.69
254.703	3.08
254.919	1.02
255.135	0.95
255.351	-1.33
255.567	0.45
255.782	2.48
255.998	-0.15
256.214	-1.12
256.43	0.26
256.646	1.18
256.861	5.79
257.077	2.54
257.293	7.42
257.508	9.75
257.724	10.85
257.94	12.66
258.155	11.83
258.371	11.43
258.587	9.41
258.802	8.1
259.018	7.34
259.234	6.94
259.449	7.94
259.665	7.55
259.88	7.23
260.096	8.15
260.312	7.52
260.527	7.68
260.743	7.52
260.958	8.31
261.174	9.08
261.389	9.11
261.605	9.57
261.82	8.98
262.036	8.79
262.251	8.22
262.466	8.36
262.682	7.72
262.897	6.62
263.113	6.06
263.328	7.02
263.543	3.76
263.759	0.4
263.974	-0.12
264.189	-1.69
264.405	-3.11
264.62	-3.49
264.835	-4.43
265.051	-4.2
265.266	-3.65
265.481	-2.04
265.696	-2.79
265.912	-0.11
266.127	2.69
266.342	4.08
266.557	5.71
266.773	5.32
266.988	6.14
267.203	4.79
267.418	4.87
267.633	7.98
267.848	6.89
268.064	7.69
268.279	8.18
268.494	8.8
268.709	6.9
268.924	8.16
269.139	7.31
269.354	9.4
269.569	9.94
269.784	9.5
269.999	7.01
270.214	6.3
270.429	5.7
270.644	4.65
270.859	4.28
271.074	5.26
271.289	3.52
271.504	6.1
271.719	4.78
271.934	3.84
272.149	5.68
272.363	5.14
272.578	7.2
272.793	6.18
273.008	5.24
273.223	5.29
273.438	4.04
273.653	5.8
273.867	4.03
274.082	2.86
274.297	4.3
274.512	2.89
274.726	1.7
274.941	0.31
275.156	2.1
275.371	3.05
275.585	3.26
275.8	4.49
276.015	2.31
276.229	4.1
276.444	5.07
276.659	5.85
276.873	6.51
277.088	7.67
277.302	7.38
277.517	6.66
277.732	5.63
277.946	4.85
278.161	4.72
278.375	7.31
278.59	7.29
278.804	5.81
279.019	4.82
279.233	3.77
279.448	2.82
279.662	2.23
279.877	2.97
280.091	5.03
280.306	6.26
280.52	5.41
280.735	3.99
280.949	3.34
281.163	4.68
281.378	4.81
281.592	5.99
281.806	7.8
282.021	8.44
282.235	8.73
282.449	8.55
282.664	8.09
282.878	9
283.092	9.5
283.307	8.58
283.521	8.43
283.735	8.4
283.949	7.36
284.164	7.82
284.378	7.73
284.592	7.21
284.806	7.03
285.02	7.51
285.234	6.91
285.449	7
285.663	8.26
285.877	8.26
286.091	7.94
286.305	8.31
286.519	8.09
286.733	7.66
286.947	8.5
287.161	8.87
287.375	8.95
287.589	9.61
287.803	8.88
288.017	8.06
288.231	8.34
288.445	8.23
288.659	7.98
288.873	7.66
289.087	8.35
289.301	6.28
289.515	5.56
289.729	4.56
289.943	3
290.157	2.33
290.371	2.88
290.584	3.83
290.798	3.94
291.012	5.02
291.226	4.96
291.44	4.14
291.654	4.07
291.867	4.72
292.081	5.59
292.295	7.06
292.509	8.42
292.722	7.86
292.936	7.39
293.15	8.01
293.364	7.12
293.577	6.54
293.791	7
294.005	8.57
294.218	8.71
294.432	8.16
294.645	7.84
294.859	8.94
295.073	9.32
295.286	8.64
295.5	8.84
295.713	8.39
295.927	9.17
296.14	10
296.354	9.56
296.568	9.33
296.781	9.74
296.994	10.1
297.208	9.13
297.421	9.62
297.635	9.47
297.848	9.41
298.062	10.05
298.275	10.15
298.489	10.02
298.702	9.96
298.915	10.03
299.129	10.69
299.342	10.34
299.555	8.74
299.769	8.13
299.982	8.45
300.195	9.06
300.409	8.37
300.622	6.81
300.835	5.42
301.048	5.72
301.262	5.39
301.475	3.85
301.688	2.96
301.901	4.77
302.115	4.78
302.328	4.5
302.541	4.03
302.754	3.95
302.967	5.31
303.18	6.62
303.393	6.72
303.607	6.55
303.82	7.36
304.033	9.29
304.246	9.71
304.459	10.2
304.672	11.07
304.885	11.2
305.098	11.4
305.311	11.38
305.524	11.83
305.737	10.79
305.95	11.25
306.163	11.17
306.376	9.52
306.589	9.36
306.802	7.68
307.015	5.88
307.228	5.92
307.44	7.05
307.653	7.81
307.866	6.37
308.079	7.74
308.292	8.86
308.505	8.44
308.718	9.5
308.93	10.31
309.143	12.38
309.356	12.37
309.569	12.01
309.781	12.36
309.994	11.91
310.207	12.76
310.42	11.89
310.632	11.42
310.845	11.7
311.058	12.51
311.27	12.28
311.483	12.09
311.696	12.91
311.908	13.62
312.121	12.87
312.333	12.58
312.546	12.86
312.759	13.32
312.971	13.05
313.184	12.87
313.396	11.83
313.609	10.85
313.821	10.42
314.034	9.89
314.246	8.59
314.459	8.88
314.671	7.94
314.884	7.33
315.096	7.6
315.309	7.66
315.521	7.93
315.733	6.63
315.946	6.88
316.158	7.13
316.371	8.27
316.583	8.01
316.795	7.85
317.008	9.27
317.22	9.31
317.432	7.81
317.644	6.3
317.857	7.36
318.069	9.37
318.281	9.08
318.494	8.13
318.706	6.35
318.918	6.2
319.13	6.57
319.342	6.95
319.555	6.46
319.767	8.36
319.979	8.76
320.191	9.44
320.403	8.86
320.615	10
320.827	9.48
321.039	10.65
321.252	11.85
321.464	12.37
321.676	11.59
321.888	12.21
322.1	11.45
322.312	12.96
322.524	11.58
322.736	11.87
322.948	10.44
323.16	10.77
323.372	9.94
323.584	9.89
323.796	9.09
324.007	9.84
324.219	9.58
324.431	9.91
324.643	9.19
324.855	9.56
325.067	10.03
325.279	10.48
325.491	12.61
325.702	12.53
325.914	11.28
326.126	11.83
326.338	12.42
326.55	13.95
326.761	14.41
326.973	15.49
327.185	16.08
327.396	16.27
327.608	17.05
327.82	14.97
328.032	16.68
328.243	18.22
328.455	19.65
328.666	19.71
328.878	20.27
329.09	21.28
329.301	21.61
329.513	20.52
329.725	20.5
329.936	21.32
330.148	23.45
330.359	22.94
330.571	22.59
330.782	21.22
330.994	22.05
331.205	20.32
331.417	19.56
331.628	19.21
331.84	20.13
332.051	19.99
332.262	19.82
332.474	18.76
332.685	19.38
332.897	19.56
333.108	20.52
333.319	19.75
333.531	19.96
333.742	20.1
333.953	21.1
334.165	20.62
334.376	21.32
334.587	21.65
334.799	23.91
335.01	24.04
335.221	25.04
335.432	25.03
335.644	24.75
335.855	26.02
336.066	26.17
336.277	25.56
336.488	26.39
336.7	25.53
336.911	25.4
337.122	24.14
337.333	25.12
337.544	24.17
337.755	23.12
337.966	24.17
338.177	23.95
338.388	23.82
338.599	23.62
338.811	23.9
339.022	24.3
339.233	24.14
339.444	23.89
339.655	23.13
339.866	23.63
340.076	24.4
340.287	23.74
340.498	24.17
340.709	23.63
340.92	24.56
341.131	23.65
341.342	24.03
341.553	24.01
341.764	23.97
341.975	23.77
342.185	24.71
342.396	24.31
342.607	24.41
342.818	23.73
343.029	24.92
343.239	24.87
343.45	25.87
343.661	25.83
343.872	25.78
344.082	25.93
344.293	26.45
344.504	26.17
344.714	26.92
344.925	27.03
345.136	27.26
345.346	26.77
345.557	26.11
345.768	25.59
345.978	25.5
346.189	25.58
346.399	25.4
346.61	25.08
346.821	24.93
347.031	24.71
347.242	23.93
347.452	23.24
347.663	22.44
347.873	22.73
348.084	22.51
348.294	22.66
348.504	22.12
348.715	22.15
348.925	21.44
349.136	20.98
349.346	20.25
349.557	20.59
349.767	21.36
349.977	22.31
350.188	21.43
350.398	21.6
350.608	21.11
350.819	21.87
351.029	21.7
351.239	22.32
351.449	22.3
351.66	22.35
351.87	22.87
352.08	21.83
352.29	21.8
352.501	22.21
352.711	22.66
352.921	23.41
353.131	23.72
353.341	24.12
353.552	24.63
353.762	24.77
353.972	25.02
354.182	24.94
354.392	25.15
354.602	24.88
354.812	25.24
355.022	24.99
355.232	25.04
355.442	24.91
355.652	24.74
355.862	23.47
356.072	23.43
356.282	23.62
356.492	23.55
356.702	24.18
356.912	24.19
357.122	24.27
357.332	24.35
357.542	24.07
357.752	23.76
357.962	23.81
358.171	24.97
358.381	25.08
358.591	24.63
358.801	23.76
359.011	23.08
359.221	22.94
359.43	22.71
359.64	22.36
359.85	22.02
360.06	21.63
360.269	21.62
360.479	21.27
360.689	20.94
360.899	21.23
361.108	21.84
361.318	22.28
361.528	22.46
361.737	22.43
361.947	22.61
362.156	22.86
362.366	23.04
362.576	22.85
362.785	22.69
362.995	22.94
363.204	22.73
363.414	22.66
363.623	22.72
363.833	22.23
364.042	22.07
364.252	22.28
364.461	22.3
364.671	22.18
364.88	22.01
365.09	22.02
365.299	21.93
365.509	22.3
365.718	21.74
365.927	21.39
366.137	21.55
366.346	21.84
366.555	21.8
366.765	21.26
366.974	21.13
367.183	20.92
367.393	21.3
367.602	21.09
367.811	20.74
368.021	20.58
368.23	20.49
368.439	20.88
368.648	21.27
368.857	20.61
369.067	20.19
369.276	19.92
369.485	20.05
369.694	19.4
369.903	19.26
370.112	18.95
370.321	19.97
370.531	19.37
370.74	18.94
370.949	18.07
371.158	18.42
371.367	18.95
371.576	19.14
371.785	19.33
371.994	19.47
372.203	19.72
372.412	19.85
372.621	19.34
372.83	19.76
373.039	20.21
373.248	20.77
373.457	20.68
373.666	20.63
373.874	20.22
374.083	20.17
374.292	19.37
374.501	18.72
374.71	18.18
374.919	18.44
375.128	18.52
375.336	18.18
375.545	17.78
375.754	17.72
375.963	17.99
376.171	18.86
376.38	19.35
376.589	20
376.798	20.42
377.006	20.85
377.215	20.25
377.424	20.22
377.632	20.03
377.841	20.12
378.05	19.8
378.258	19.35
378.467	18.45
378.675	17.98
378.884	17.27
379.093	16.97
379.301	16.73
379.51	17.18
379.718	17.42
379.927	17.41
380.135	17.56
380.344	17.68
380.552	17.44
380.761	17.8
380.969	17.66
381.177	18.46
381.386	18.34
381.594	18.58
381.803	18.18
382.011	17.57
382.219	17.77
382.428	17.23
382.636	17.21
382.845	17.39
383.053	17.39
383.261	17.7
383.469	16.99
383.678	17.22
383.886	16.9
384.094	17.07
384.302	17.05
384.511	16.89
384.719	16.95
384.927	16.96
385.135	16.98
385.343	16.51
385.552	15.82
385.76	15.83
385.968	15.47
386.176	15.29
386.384	15.12
386.592	15
386.8	14.62
387.008	14.53
387.216	14.62
387.424	14.44
387.633	14.85
387.841	15.24
388.049	15.21
388.257	15.21
388.465	14.88
388.672	14.29
388.88	14.22
389.088	14.13
389.296	13.89
389.504	13.37
389.712	13.33
389.92	13.13
390.128	13.02
390.336	13.22
390.544	13.32
390.751	13.53
390.959	13.55
391.167	13.63
391.375	13.92
391.583	13.99
391.79	13.95
391.998	13.96
392.206	13.58
392.414	13.07
392.621	12.84
392.829	12.66
393.037	12.79
393.244	13.03
393.452	12.8
393.66	12.6
393.867	12.59
394.075	12.86
394.283	12.83
394.49	13
394.698	13.09
394.905	13.14
395.113	12.99
395.32	12.86
395.528	12.84
395.735	13.08
395.943	13.1
396.15	12.86
396.358	12.92
396.565	13.04
396.773	13.17
396.98	13.01
397.188	12.93
397.395	13.11
397.602	13.1
397.81	12.97
398.017	12.67
398.225	12.61
398.432	12.58
398.639	12.19
398.847	11.68
399.054	11.56
399.261	11.75
399.468	11.69
399.676	11.9
399.883	11.88
400.09	12.11
400.297	11.99
400.505	11.87
400.712	12.15
400.919	12.09
401.126	12.68
401.333	12.65
401.54	12.75
401.748	12.78
401.955	12.45
402.162	12.45
402.369	12.06
402.576	12.13
402.783	12.34
402.99	12.23
403.197	12.48
403.404	11.98
403.611	11.78
403.818	11.74
404.025	11.98
404.232	11.81
404.439	11.89
404.646	12.02
404.853	11.88
405.06	11.63
405.267	11.44
405.474	11.04
405.681	11.15
405.887	11.22
406.094	10.91
406.301	10.64
406.508	10.97
406.715	10.63
406.922	10.62
407.128	10.79
407.335	10.9
407.542	11.11
407.749	11.33
407.955	11.26
408.162	11.4
408.369	11.6
408.575	11.61
408.782	11.32
408.989	11.48
409.195	11.57
409.402	11.44
409.609	11.46
409.815	11.24
410.022	11.14
410.228	11.06
410.435	10.82
410.642	10.98
410.848	10.77
411.055	10.72
411.261	10.74
411.468	10.56
411.674	10.63
411.881	10.45
412.087	10.31
412.294	10.41
412.5	10.66
412.706	10.78
412.913	10.43
413.119	10.84
413.326	10.99
413.532	10.97
413.738	11.11
413.945	11.07
414.151	11.14
414.357	11.6
414.564	11.48
414.77	11.25
414.976	11.42
415.182	11.47
415.389	11.29
415.595	11.17
415.801	10.98
416.007	10.86
416.214	10.71
416.42	10.85
416.626	10.5
416.832	10.65
417.038	10.8
417.244	10.76
417.45	11.05
417.657	10.95
417.863	10.98
418.069	11
418.275	10.79
418.481	10.89
418.687	10.84
418.893	10.96
419.099	10.91
419.305	10.78
419.511	10.7
419.717	10.58
419.923	10.57
420.129	10.67
420.335	10.71
420.541	10.92
420.746	10.9
420.952	10.89
421.158	10.94
421.364	10.82
421.57	10.9
421.776	10.85
421.982	10.72
422.187	10.64
422.393	10.56
422.599	10.65
422.805	10.55
423.01	10.7
423.216	10.58
423.422	10.5
423.628	10.67
423.833	10.58
424.039	10.73
424.245	10.85
424.45	10.96
424.656	11.03
424.862	10.95
425.067	10.86
425.273	10.75
425.478	10.81
425.684	10.79
425.889	10.71
426.095	11
426.301	10.89
426.506	10.89
426.712	10.89
426.917	10.96
427.123	10.86
427.328	11.16
427.533	11.22
427.739	11.21
427.944	11.19
428.15	11
428.355	10.4
428.561	10.35
428.766	10.38
428.971	10.33
429.177	10.22
429.382	10.36
429.587	10.09
429.793	10.18
429.998	10.27
430.203	10.25
430.408	10.44
430.614	10.67
430.819	10.65
431.024	10.58
431.229	10.66
431.434	10.5
431.64	10.44
431.845	10.56
432.05	10.29
432.255	10.05
432.46	10.09
432.665	10.06
432.87	10
433.076	10.03
433.281	9.95
433.486	9.86
433.691	9.83
433.896	9.67
434.101	9.54
434.306	9.43
434.511	9.56
434.716	9.5
434.921	9.52
435.126	9.52
435.331	9.51
435.535	9.57
435.74	9.56
435.945	9.66
436.15	9.77
436.355	9.93
436.56	10.23
436.765	10.24
436.97	10.36
437.174	10.35
437.379	10.4
437.584	10.42
437.789	10.41
437.993	10.46
438.198	10.48
438.403	10.56
438.608	10.5
438.812	10.43
439.017	10.37
439.222	10.45
439.426	10.24
439.631	10.18
439.836	10.12
440.04	10.17
440.245	10.1
440.45	10.04
440.654	9.96
440.859	9.93
441.063	9.88
441.268	9.82
441.472	9.68
441.677	9.97
441.881	10
442.086	10.07
442.29	9.89
442.495	9.89
442.699	9.93
442.904	9.97
443.108	9.96
443.312	9.94
443.517	9.96
443.721	9.7
443.925	9.48
444.13	9.52
444.334	9.51
444.538	9.7
444.743	9.71
444.947	9.75
445.151	9.82
445.356	10.02
445.56	10.12
445.764	10.18
445.968	10.33
446.173	10.39
446.377	10.22
446.581	10.14
446.785	10.02
446.989	9.99
447.193	9.85
447.398	9.76
447.602	9.66
447.806	9.62
448.01	9.51
448.214	9.64
448.418	9.54
448.622	9.42
448.826	9.35
449.03	9.63
449.234	9.78
449.438	9.92
449.642	9.95
449.846	9.81
450.05	9.62
450.254	9.66
450.458	9.35
450.662	9.57
450.866	9.84
451.069	9.94
451.273	9.54
451.477	9.41
451.681	9.35
451.885	9.49
452.089	9.48
452.292	9.68
452.496	9.63
452.7	9.76
452.904	9.67
453.107	9.57
453.311	9.67
453.515	9.84
453.719	9.84
453.922	9.63
454.126	9.41
454.33	9.51
454.533	9.48
454.737	9.71
454.94	9.74
455.144	9.65
455.348	9.85
455.551	9.44
455.755	9.44
455.958	9.34
456.162	9.51
456.365	9.5
456.569	9.33
456.772	9.3
456.976	9.18
457.179	9.07
457.383	9.05
457.586	9
457.79	9.31
457.993	9.18
458.196	9.23
458.4	9.34
458.603	9.21
458.807	9.34
459.01	9.44
459.213	9.53
459.417	9.65
459.62	9.62
459.823	9.52
460.026	9.5
460.23	9.54
460.433	9.52
460.636	9.62
460.839	9.73
461.042	9.74
461.246	9.67
461.449	9.61
461.652	9.55
461.855	9.61
462.058	9.66
462.261	9.71
462.464	9.75
462.668	9.83
462.871	9.56
463.074	9.6
463.277	9.6
463.48	9.36
463.683	9.29
463.886	9.43
464.089	9.38
464.292	9.27
464.495	9.38
464.698	9.45
464.901	9.51
465.104	9.54
465.306	9.59
465.509	9.52
465.712	9.58
465.915	9.56
466.118	9.5
466.321	9.52
466.524	9.69
466.726	9.61
466.929	9.36
467.132	9.44
467.335	9.38
467.538	9.49
467.74	9.5
467.943	9.57
468.146	9.68
468.348	9.62
468.551	9.53
468.754	9.61
468.956	9.68
469.159	9.82
469.362	9.72
469.564	9.83
469.767	9.63
469.969	9.78
470.172	9.81
470.375	9.5
470.577	9.57
470.78	9.65
470.982	9.63
471.185	9.42
471.387	9.42
471.59	9.38
471.792	9.15
471.995	9.21
472.197	9.13
472.399	8.9
472.602	9.23
472.804	9.06
473.007	9.22
473.209	9.29
473.411	9.28
473.614	9.16
473.816	9.18
474.018	9.5
474.22	9.39
474.423	9.36
474.625	9.71
474.827	9.7
475.03	9.66
475.232	9.32
475.434	9.44
475.636	9.58
475.838	9.66
476.04	9.73
476.243	9.63
476.445	9.71
476.647	9.69
476.849	9.68
477.051	9.65
477.253	9.8
477.455	9.89
477.657	9.65
477.859	9.48
478.061	9.52
478.263	9.51
478.465	9.36
478.667	9.31
478.869	9.42
479.071	9.35
479.273	9.33
479.475	9.31
479.677	9.3
479.879	9.35
480.081	9.39
480.283	9.37
480.485	9.31
480.686	9.54
480.888	9.49
481.09	9.5
481.292	9.5
481.494	9.49
481.695	9.48
481.897	9.69
482.099	9.62
482.301	9.61
482.502	9.6
482.704	9.58
482.906	9.53
483.107	9.53
483.309	9.49
483.511	9.47
483.712	9.49
483.914	9.54
484.115	9.52
484.317	9.56
484.519	9.59
484.72	9.6
484.922	9.56
485.123	9.58
485.325	9.59
485.526	9.62
485.728	9.61
485.929	9.6
486.131	9.48
486.332	9.38
486.534	9.32
486.735	9.3
486.936	9.33
487.138	9.41
487.339	9.37
487.541	9.46
487.742	9.43
487.943	9.48
488.144	9.48
488.346	9.53
488.547	9.52
488.748	9.52
488.95	9.53
489.151	9.47
489.352	9.44
489.553	9.45
489.755	9.42
489.956	9.47
490.157	9.44
490.358	9.45
490.559	9.48
490.76	9.53
490.961	9.62
491.163	9.67
491.364	9.68
491.565	9.67
491.766	9.7
491.967	9.63
492.168	9.67
492.369	9.72
492.57	9.7
492.771	9.66
492.972	9.67
493.173	9.58
493.374	9.53
493.575	9.47
493.776	9.47
493.976	9.41
494.177	9.37
494.378	9.2
494.579	9.13
494.78	9.12
494.981	9.29
495.182	9.4
495.382	9.52
495.583	9.47
495.784	9.54
495.985	9.49
496.185	9.39
496.386	9.43
496.587	9.51
496.788	9.59
496.988	9.59
497.189	9.52
497.39	9.56
497.59	9.48
497.791	9.61
497.992	9.7
498.192	9.69
498.393	9.79
498.593	9.87
498.794	9.75
498.994	9.8
499.195	9.68
499.395	9.68
499.596	9.56
499.796	9.59
499.997	9.56
500.197	9.48
500.398	9.63
500.598	9.6
500.799	9.64
500.999	9.81
501.199	9.57
501.4	9.78
501.6	9.79
501.801	9.74
502.001	9.84
502.201	9.97
502.402	9.9
502.602	9.81
502.802	9.87
503.002	9.82
503.203	9.83
503.403	10.03
503.603	10.17
503.803	10.23
504.003	10.35
504.204	10.33
504.404	10.31
504.604	10.53
504.804	10.48
505.004	10.59
505.204	10.62
505.404	10.7
505.604	10.71
505.804	10.68
506.005	10.65
506.205	10.83
506.405	10.82
506.605	10.81
506.805	10.81
507.005	10.89
507.204	10.98
507.404	10.89
507.604	10.86
507.804	10.73
508.004	10.7
508.204	10.84
508.404	10.61
508.604	10.65
508.804	10.76
509.003	10.89
509.203	10.88
509.403	10.9
509.603	10.95
509.803	11.1
510.002	11.16
510.202	11.23
510.402	11.03
510.602	11.13
510.801	11.27
511.001	11.11
511.201	10.88
511.4	10.95
511.6	10.93
511.8	11.11
511.999	11.01
512.199	11.16
512.398	11.13
512.598	11.38
512.797	11.58
512.997	11.66
513.197	11.91
513.396	12.13
513.596	12.34
513.795	12.63
513.994	12.54
514.194	12.64
514.393	12.73
514.593	12.93
514.792	12.99
514.992	12.9
515.191	12.93
515.39	12.96
515.59	13.01
515.789	13.02
515.988	12.85
516.188	13.03
516.387	13.2
516.586	13.21
516.786	13.12
516.985	13.16
517.184	13.28
517.383	13.28
517.582	13.24
517.782	13.42
517.981	13.5
518.18	13.56
518.379	13.67
518.578	13.62
518.777	13.52
518.976	13.62
519.176	13.63
519.375	13.73
519.574	13.91
519.773	13.97
519.972	13.89
520.171	13.86
520.37	13.9
520.569	13.95
520.768	14.08
520.967	14.36
521.166	14.45
521.365	14.63
521.564	14.72
521.762	14.67
521.961	14.77
522.16	14.86
522.359	14.98
522.558	15.09
522.757	15.1
522.956	15.32
523.154	15.48
523.353	15.54
523.552	15.68
523.751	15.73
523.949	15.86
524.148	15.94
524.347	15.95
524.546	16.1
524.744	16.14
524.943	16.21
525.142	16.05
525.34	15.98
525.539	16.03
525.737	15.97
525.936	16.03
526.135	16.13
526.333	16.19
526.532	16.42
526.73	16.47
526.929	16.56
527.127	16.69
527.326	16.83
527.524	17.02
527.723	17.21
527.921	17.31
528.12	17.45
528.318	17.47
528.516	17.6
528.715	17.61
528.913	17.7
529.112	17.73
529.31	17.8
529.508	17.91
529.707	18
529.905	18
530.103	18.08
530.301	18.08
530.5	18.2
530.698	18.2
530.896	18.31
531.094	18.37
531.293	18.48
531.491	18.49
531.689	18.55
531.887	18.55
532.085	18.69
532.283	18.8
532.481	18.89
532.68	18.95
532.878	19.09
533.076	19.16
533.274	19.16
533.472	19.27
533.67	19.34
533.868	19.34
534.066	19.4
534.264	19.39
534.462	19.46
534.66	19.43
534.858	19.41
535.056	19.39
535.253	19.38
535.451	19.47
535.649	19.63
535.847	19.75
536.045	19.92
536.243	19.98
536.441	20.13
536.638	20.16
536.836	20.37
537.034	20.44
537.232	20.43
537.43	20.48
537.627	20.5
537.825	20.44
538.023	20.48
538.22	20.44
538.418	20.44
538.616	20.46
538.813	20.57
539.011	20.5
539.209	20.69
539.406	20.96
539.604	21.2
539.801	21.28
539.999	21.47
540.196	21.46
540.394	21.64
540.591	21.85
540.789	21.96
540.986	21.99
541.184	22.2
541.381	22.17
541.579	22.06
541.776	22.11
541.974	22.26
542.171	22.2
542.368	22.28
542.566	22.34
542.763	22.42
542.96	22.43
543.158	22.52
543.355	22.67
543.552	22.83
543.75	22.98
543.947	23.01
544.144	23.11
544.341	23.32
544.539	23.39
544.736	23.44
544.933	23.34
545.13	23.31
545.327	23.31
545.524	23.16
545.722	23.12
545.919	23.33
546.116	23.28
546.313	23.16
546.51	23.19
546.707	23.3
546.904	23.25
547.101	23.33
547.298	23.51
547.495	23.57
547.692	23.66
547.889	23.88
548.086	23.77
548.283	23.96
548.48	24.01
548.677	24
548.874	23.97
549.07	24.03
549.267	24.07
549.464	24.1
549.661	24.08
549.858	24.12
550.055	24.02
550.251	24.38
550.448	24.41
550.645	24.58
550.842	24.59
551.038	24.77
551.235	25.18
551.432	25.18
551.628	25.19
551.825	25.41
552.022	25.3
552.218	25.32
552.415	25.01
552.612	25.15
552.808	25.18
553.005	25.24
553.201	25.3
553.398	25.1
553.594	25.26
553.791	25.31
553.987	25.15
554.184	25.16
554.38	25.34
554.577	25.63
554.773	25.66
554.97	25.8
555.166	26.02
555.362	25.92
555.559	25.98
555.755	26
555.952	26.08
556.148	26.19
556.344	26.48
556.541	26.54
556.737	26.47
556.933	26.44
557.129	26.37
557.326	26.43
557.522	26.75
557.718	26.85
557.914	27.1
558.11	27.33
558.307	27.49
558.503	27.51
558.699	27.61
558.895	27.66
559.091	27.79
559.287	28.08
559.483	28.2
559.679	28.11
559.876	28.08
560.072	27.98
560.268	27.87
560.464	28.06
560.66	28.13
560.856	28.23
561.052	28.6
561.247	28.71
561.443	28.71
561.639	28.74
561.835	28.81
562.031	29.09
562.227	29.07
562.423	29.06
562.619	29.09
562.815	29.05
563.01	28.84
563.206	28.82
563.402	28.73
563.598	28.7
563.793	28.6
563.989	28.69
564.185	28.61
564.381	28.62
564.576	28.65
564.772	28.68
564.968	28.79
565.163	29.05
565.359	29.14
565.555	29.37
565.75	29.46
565.946	29.52
566.141	29.47
566.337	29.64
566.532	29.79
566.728	30.06
566.923	29.9
567.119	29.89
567.314	29.69
567.51	29.49
567.705	29.26
567.901	29.12
568.096	29.23
568.292	29.34
568.487	29.39
568.682	29.41
568.878	29.38
569.073	29.57
569.268	29.6
569.464	29.7
569.659	29.82
569.854	30.13
570.05	30.54
570.245	30.79
570.44	30.85
570.635	30.79
570.831	30.96
571.026	30.88
571.221	30.95
571.416	31.1
571.611	31.3
571.806	31.42
572.002	31.51
572.197	31.51
572.392	31.28
572.587	31.18
572.782	31.21
572.977	31.13
573.172	31.21
573.367	31.25
573.562	31.23
573.757	31.22
573.952	31.14
574.147	30.89
574.342	30.92
574.537	31.02
574.732	31.29
574.927	31.44
575.121	31.4
575.316	31.32
575.511	31.35
575.706	31.35
575.901	31.4
576.096	31.49
576.29	31.65
576.485	31.51
576.68	31.45
576.875	31.6
577.069	31.52
577.264	31.56
577.459	31.73
577.654	32
577.848	32.24
578.043	32.3
578.238	32.5
578.432	32.43
578.627	32.62
578.821	32.8
579.016	32.44
579.21	32.42
579.405	32.61
579.6	32.55
579.794	32.19
579.989	32.06
580.183	31.69
580.378	31.58
580.572	31.82
580.766	31.76
580.961	31.59
581.155	31.6
581.35	31.76
581.544	31.75
581.738	31.82
581.933	32.08
582.127	32.23
582.321	32.71
582.516	32.71
582.71	32.64
582.904	32.46
583.099	32.5
583.293	32.86
583.487	32.67
583.681	32.96
583.875	32.85
584.07	32.64
584.264	32.73
584.458	32.63
584.652	32.49
584.846	32.44
585.04	32.3
585.234	32.42
585.428	32.2
585.623	32.58
585.817	32.34
586.011	32.38
586.205	32.43
586.399	32.24
586.593	32.14
586.787	32.48
586.981	32.74
587.174	33.06
587.368	32.73
587.562	32.72
587.756	32.48
587.95	32.54
588.144	32.91
588.338	32.96
588.532	32.94
588.725	33.44
588.919	33.48
589.113	33.35
589.307	33.41
589.501	33.66
589.694	33.8
589.888	33.92
590.082	33.78
590.275	33.59
590.469	33.33
590.663	33.34
590.856	33.09
591.05	32.92
591.244	32.87
591.437	32.94
591.631	33.03
591.824	33.2
592.018	33.12
592.212	33.21
592.405	33.2
592.599	33.32
592.792	33.15
592.986	33.14
593.179	33.27
593.372	33.42
593.566	33.52
593.759	33.48
593.953	33.5
594.146	33.32
594.339	33.58
594.533	33.8
594.726	34.04
594.92	34.21
595.113	34.13
595.306	33.88
595.499	33.98
595.693	33.91
595.886	33.88
596.079	33.75
596.272	33.96
596.466	33.85
596.659	33.86
596.852	33.75
597.045	33.88
597.238	34
597.431	34.31
597.624	34.34
597.818	34.4
598.011	34.46
598.204	34.6
598.397	34.64
598.59	34.7
598.783	34.61
598.976	34.9
599.169	34.94
599.362	34.89
599.555	34.74
599.748	34.63
599.941	34.34
600.134	34.6
600.326	34.57
600.519	34.42
600.712	34.03
600.905	34.02
601.098	33.73
601.291	33.53
601.483	33.76
601.676	33.73
601.869	33.85
602.062	34.2
602.255	33.99
602.447	34
602.64	34.15
602.833	34.41
603.025	34.46
603.218	34.51
603.411	34.72
603.603	34.7
603.796	34.66
603.989	34.68
604.181	34.66
604.374	34.86
604.566	34.87
604.759	34.89
604.951	35.03
605.144	34.9
605.336	34.9
605.529	34.83
605.721	34.88
605.914	34.72
606.106	34.7
606.299	34.63
606.491	34.44
606.683	34.5
606.876	34.47
607.068	34.33
607.26	34.53
607.453	34.79
607.645	34.78
607.837	34.51
608.03	34.95
608.222	34.97
608.414	35.13
608.606	35.16
608.799	34.83
608.991	34.88
609.183	35.16
609.375	35.2
609.567	35.19
609.759	35.4
609.952	35.61
610.144	35.39
610.336	35.5
610.528	35.59
610.72	35.69
610.912	35.94
611.104	35.83
611.296	35.44
611.488	35.22
611.68	35
611.872	34.69
612.064	34.61
612.256	34.64
612.448	34.46
612.64	34.28
612.832	34.1
613.023	34.04
613.215	33.94
613.407	34.17
613.599	34.3
613.791	34.39
613.983	34.4
614.174	34.53
614.366	34.55
614.558	34.39
614.75	34.31
614.941	34.45
615.133	34.6
615.325	34.95
615.516	35.18
615.708	35.27
615.9	35.28
616.091	35.62
616.283	35.4
616.475	35.8
616.666	35.95
616.858	35.82
617.049	35.7
617.241	35.58
617.432	35.32
617.624	35.06
617.815	34.85
618.007	34.98
618.198	34.87
618.39	34.57
618.581	34
618.773	34.11
618.964	34.35
619.155	34.63
619.347	34.54
619.538	34.77
619.729	35.03
619.921	35.38
620.112	35.11
620.303	35.04
620.494	35.32
620.686	35.64
620.877	35.71
621.068	35.53
621.259	35.31
621.451	35.39
621.642	35.24
621.833	34.98
622.024	34.89
622.215	35.21
622.406	35.61
622.597	35.65
622.788	35.98
622.98	35.98
623.171	36.4
623.362	36.59
623.553	36.48
623.744	36.57
623.935	36.64
624.126	36.51
624.317	36.48
624.508	36.43
624.698	36.6
624.889	36.25
625.08	35.75
625.271	35.67
625.462	35.64
625.653	35.74
625.844	35.82
626.034	36.09
626.225	36.35
626.416	36.3
626.607	35.9
626.798	35.67
626.988	35.91
627.179	36.2
627.37	36.59
627.56	36.64
627.751	36.68
627.942	36.72
628.132	36.45
628.323	36.36
628.514	36.43
628.704	36.77
628.895	36.84
629.085	36.75
629.276	36.81
629.466	36.34
629.657	36.14
629.847	36.33
630.038	36.16
630.228	36.32
630.419	36.42
630.609	36.18
630.8	36.25
630.99	36.48
631.181	36.2
631.371	36.1
631.561	35.97
631.752	36.14
631.942	35.86
632.132	36.16
632.323	35.98
632.513	35.82
632.703	36.17
632.893	35.83
633.084	35.62
633.274	35.83
633.464	36.26
633.654	36.51
633.844	36.31
634.034	36.41
634.225	36.44
634.415	36.33
634.605	36.52
634.795	36.3
634.985	36.56
635.175	36.76
635.365	36.61
635.555	36.34
635.745	36.02
635.935	36.37
636.125	36.38
636.315	36.1
636.505	36.42
636.695	36.32
636.885	36.26
637.075	36.08
637.265	36.14
637.455	36.32
637.644	36.56
637.834	36.58
638.024	36.11
638.214	36.39
638.404	36.63
638.593	36.41
638.783	36.23
638.973	36.57
639.163	36.75
639.352	36.63
639.542	36.49
639.732	36.41
639.921	36.59
640.111	36.73
640.301	36.37
640.49	36.04
640.68	36.12
640.87	36.31
641.059	36.25
641.249	36.66
641.438	36.63
641.628	36.63
641.817	36.58
642.007	36.61
642.196	36.85
642.386	37.04
642.575	36.9
642.764	36.7
642.954	36.88
643.143	36.94
643.333	36.22
643.522	36.06
643.711	36.27
643.901	36.27
644.09	36.47
644.279	36.47
644.469	36.3
644.658	36.45
644.847	37
645.036	36.94
645.226	36.53
645.415	36.91
645.604	37.17
645.793	36.84
645.982	36.97
646.171	36.82
646.361	36.57
646.55	36.7
646.739	36.75
646.928	36.22
647.117	36.07
647.306	36.51
647.495	36.25
647.684	36.3
647.873	36.44
648.062	36.24
648.251	36.06
648.44	36.16
648.629	36.42
648.818	36.79
649.007	37.23
649.196	37.39
649.384	36.92
649.573	37.16
649.762	37.13
649.951	37.52
650.14	37.48
650.328	37.72
650.517	37.63
650.706	37.06
650.895	36.27
651.083	36.09
651.272	35.86
651.461	36.3
651.65	35.61
651.838	36.03
652.027	35.77
652.216	36.04
652.404	35.85
652.593	35.92
652.781	35.79
652.97	36.3
653.158	36.3
653.347	36.19
653.535	36.08
653.724	36.88
653.912	36.34
654.101	36.62
654.289	36.28
654.478	36.53
654.666	36.86
654.855	37.31
655.043	36.98
655.231	36.73
655.42	37.26
655.608	37.26
655.796	37.23
655.985	37.38
656.173	37.08
656.361	37.06
656.55	37.13
656.738	37.15
656.926	37.55
657.114	37.73
657.302	37.83
657.491	37.67
657.679	37.74
657.867	37.88
658.055	38
658.243	37.73
658.431	37.86
658.619	37.97
658.807	37.76
658.996	37.44
659.184	37.17
659.372	37.49
659.56	37.23
659.748	37.28
659.936	37.08
660.124	36.93
660.311	37.35
660.499	37.68
660.687	37.38
660.875	37.37
661.063	37.23
661.251	37.86
661.439	37.68
661.627	38.17
661.814	38.18
662.002	38.06
662.19	37.9
662.378	37.87
662.565	37.19
662.753	37.47
662.941	37.87
663.129	37.86
663.316	37.95
663.504	37.6
663.692	37.01
663.879	37.09
664.067	37.22
664.254	37.32
664.442	37.14
664.63	37.56
664.817	36.99
665.005	36.48
665.192	36.6
665.38	36.35
665.567	36.66
665.755	37.35
665.942	36.95
666.13	36.57
666.317	37.01
666.504	37.01
666.692	36.94
666.879	37.46
667.067	37.78
667.254	37.85
667.441	38.03
667.629	38.02
667.816	37.8
668.003	37.84
668.19	38.04
668.378	37.67
668.565	38.01
668.752	38.35
668.939	38.28
669.127	37.77
669.314	37.46
669.501	37.48
669.688	37.99
669.875	37.8
670.062	37.87
670.249	37.96
670.436	37.93
670.623	37.87
670.81	37.62
670.997	37.53
671.184	37.99
671.371	38.7
671.558	38.35
671.745	38.07
671.932	38.31
672.119	37.91
672.306	37.79
672.493	38.23
672.68	38.14
672.867	37.68
673.054	37.49
673.24	37.23
673.427	37.31
673.614	37.41
673.801	37.28
673.988	36.75
674.174	36.82
674.361	37.06
674.548	36.66
674.734	36.63
674.921	36.74
675.108	37
675.294	37.56
675.481	36.7
675.668	36.8
675.854	36.6
676.041	37.17
676.227	37.83
676.414	37.27
676.601	37.24
676.787	37.22
676.974	37.54
677.16	37.33
677.347	37.13
677.533	37.46
677.719	37.55
677.906	37.51
678.092	37.15
678.279	37.86
678.465	38.11
678.651	38.42
678.838	38.4
679.024	38.51
679.21	38.43
679.397	38.71
679.583	38.49
679.769	38.23
679.955	38.2
680.142	38.49
680.328	37.96
680.514	38.12
680.7	37.73
680.886	37.98
681.073	37.82
681.259	37.49
681.445	36.9
681.631	37.01
681.817	36.66
682.003	36.65
682.189	36.34
682.375	35.95
682.561	36.02
682.747	36.42
682.933	35.99
683.119	36.16
683.305	36.6
683.491	36.74
683.677	37
683.863	38
684.049	38.14
684.235	38.14
684.42	37.96
684.606	38.17
684.792	37.73
684.978	37.42
685.164	37.02
685.349	37.34
685.535	37.31
685.721	37.58
685.907	37.36
686.092	38.09
686.278	38.25
686.464	38.58
686.649	37.59
686.835	38.26
687.021	38.45
687.206	38.68
687.392	38.5
687.577	38.9
687.763	38.78
687.948	38.58
688.134	38.32
688.319	38.19
688.505	37.92
688.69	38.36
688.876	37.95
689.061	38.64
689.247	38.26
689.432	37.72
689.618	37.44
689.803	37.18
689.988	37.17
690.174	36.62
690.359	36.45
690.544	36.71
690.73	36.64
690.915	36.64
691.1	35.88
691.285	35.95
691.471	37.04
691.656	37.23
691.841	37.57
692.026	36.9
692.211	36.54
692.396	36.46
692.582	36.65
692.767	37.08
692.952	36.7
693.137	37.17
693.322	36.92
693.507	36.15
693.692	35.98
693.877	36
694.062	36.62
694.247	37.47
694.432	38.47
694.617	38.15
694.802	37.95
694.987	38.39
695.172	38.08
695.357	38.74
695.541	38.8
695.726	38.84
695.911	38.59
696.096	38.67
696.281	38.6
696.466	38.1
696.65	38.67
696.835	38.41
697.02	38.42
697.204	38.44
697.389	38.34
697.574	38.11
697.759	38.24
697.943	38.23
698.128	38.39
698.312	38.14
698.497	38.25
698.682	37.95
698.866	38.05
699.051	37.86
699.235	37.88
699.42	37.94
699.604	37.85
699.789	37.53
699.973	37.55
700.158	37.34
700.342	37.06
700.527	37.04
700.711	36.67
700.895	36.78
701.08	36.72
701.264	36.54
701.448	36.34
701.633	36.21
701.817	36.11
702.001	35.72
702.186	35.79
702.37	35.95
702.554	35.84
702.738	36.46
702.923	36.27
703.107	36.39
703.291	36.31
703.475	35.95
703.659	36.89
703.843	37.02
704.027	38.03
704.212	38.01
704.396	38.08
704.58	38.28
704.764	37.57
704.948	37.44
705.132	36.91
705.316	37.98
705.5	38.17
705.684	38.23
705.868	39.04
706.052	37.59
706.235	37.02
706.419	37.34
706.603	37.79
706.787	37.6
706.971	37.84
707.155	38.74
707.339	38.18
707.522	38.82
707.706	37.99
707.89	37.89
708.074	38.64
708.257	39.08
708.441	39.25
708.625	38.43
708.808	39.19
708.992	39.46
709.176	39.35
709.359	39.44
709.543	38.56
709.727	38.83
709.91	37.95
710.094	37.9
710.277	38.34
710.461	37.9
710.644	37.74
710.828	37.19
711.011	37.16
711.195	36.93
711.378	36.39
711.562	36.48
711.745	36.63
711.928	37.08
712.112	37.3
712.295	36.82
712.478	37.38
712.662	37.04
712.845	37.13
713.028	36.8
713.212	36.79
713.395	36.95
713.578	37.14
713.761	37.12
713.945	36.62
714.128	36.4
714.311	36.65
714.494	36.18
714.677	36.18
714.86	37.03
715.043	37.13
715.227	37.2
715.41	37.2
715.593	37.45
715.776	37.85
715.959	38.15
716.142	38.06
716.325	38.13
716.508	38.07
716.691	38.4
716.874	37.51
717.057	37.22
717.239	37
717.422	37.05
717.605	36.88
717.788	36.55
717.971	36.36
718.154	36.08
718.337	35.29
718.519	36.06
718.702	36.51
718.885	37.49
719.068	37.55
719.25	37.22
719.433	36.93
719.616	36.84
719.798	37.26
719.981	37.54
720.164	37.32
720.346	37.43
720.529	35.84
720.712	35.62
720.894	35.37
721.077	35.55
721.259	34.91
721.442	35.08
721.624	34.78
721.807	33.47
721.989	34.05
722.172	34.83
722.354	36.02
722.537	36.95
722.719	36.9
722.901	37
723.084	37.54
723.266	38.66
723.448	38.22
723.631	38.98
723.813	39.74
723.995	38.61
724.178	38.72
724.36	38.47
724.542	37.58
724.724	37.13
724.907	36.25
725.089	36.34
725.271	36.33
725.453	37.47
725.635	37.01
725.817	37.16
725.999	37.02
726.181	36.15
726.364	34.96
726.546	36.36
726.728	36.58
726.91	37.17
727.092	36.48
727.274	37.22
727.456	36.27
727.638	36.17
727.819	36.53
728.001	37.25
728.183	36.93
728.365	38.17
728.547	37.77
728.729	37.53
728.911	37.17
729.093	37.08
729.274	37.22
729.456	37.26
729.638	37.57
729.82	36.52
730.001	36.47
730.183	38.32
730.365	37.7
730.546	38.44
730.728	38.53
730.91	38.91
731.091	38.66
731.273	37.61
731.455	38.12
731.636	37.46
731.818	38.61
731.999	38.7
732.181	37.69
732.362	37.53
732.544	36.33
732.725	36.36
732.907	36.65
733.088	37.05
733.27	37.12
733.451	36.64
733.633	37.2
733.814	36.2
733.995	36.43
734.177	35.08
734.358	35.31
734.539	35.35
734.721	34.82
734.902	33.79
735.083	33.64
735.264	33.71
735.446	34.5
735.627	34.62
735.808	35.08
735.989	32.84
736.17	34.17
736.351	32.98
736.533	34.32
736.714	34.77
736.895	34.82
737.076	34.56
737.257	34.69
737.438	34.11
737.619	33.32
737.8	33.33
737.981	35.67
738.162	35.94
738.343	37.32
738.524	36.19
738.705	36.57
738.886	36.66
739.067	36.5
739.247	36.92
739.428	36.54
739.609	37.58
739.79	37.56
739.971	37.63
740.151	37.53
740.332	36.67
740.513	37.1
740.694	36.93
740.874	37.64
741.055	37.82
741.236	37.39
741.417	38.18
741.597	37.05
741.778	37.25
741.958	36.32
742.139	35.7
742.32	36.81
742.5	36.15
742.681	36.65
742.861	36.37
743.042	36.38
743.222	36.3
743.403	35.09
743.583	36.47
743.764	35.82
743.944	35.66
744.124	35.8
744.305	35.2
744.485	34.89
744.666	34.08
744.846	32.7
745.026	32.89
745.207	32.29
745.387	33.15
745.567	32.29
745.747	32.97
745.928	33.08
746.108	33.79
746.288	35.12
746.468	35.89
746.648	35.8
746.829	37.96
747.009	39.04
747.189	40.02
747.369	39.72
747.549	39.99
747.729	38.95
747.909	39.54
748.089	38.87
748.269	37.33
748.449	37.8
748.629	37.33
748.809	37
748.989	36.26
749.169	36.37
749.349	36.24
749.529	37.54
749.709	38.29
749.889	38.94
750.068	38.22
750.248	37.94
750.428	36.07
750.608	37.82
750.788	38.18
750.967	38
751.147	37.52
751.327	38.77
751.507	36.98
751.686	37.2
751.866	36.31
752.046	36.68
752.225	37.06
752.405	39.51
752.585	40.57
752.764	40.4
752.944	41.36
753.123	41.33
753.303	39.77
753.482	40.57
753.662	40.99
753.841	41.45
754.021	41.33
754.2	41.47
754.38	40
754.559	37.55
754.739	36.97
754.918	36.25
755.097	36.14
755.277	37.56
755.456	37.27
755.635	36.47
755.815	36.42
755.994	38.11
756.173	38.83
756.352	39.48
756.532	40.8
756.711	41.2
756.89	40.23
757.069	40.26
757.248	39
757.427	39.84
757.607	39.51
757.786	39.25
757.965	38.76
758.144	37.26
758.323	37.21
758.502	37.88
758.681	36.79
758.86	38.46
759.039	38.07
759.218	38.48
759.397	37.82
759.576	37.76
759.755	37.44
759.934	37.69
760.113	38.24
760.291	38.13
760.47	36.72
760.649	37.42
760.828	36.01
761.007	35.95
761.186	36.86
761.364	36.78
761.543	38.11
761.722	38.74
761.901	38.74
762.079	39.68
762.258	39.32
762.437	39.58
762.615	39.45
762.794	40.01
762.972	39.99
763.151	39.33
763.33	39.52
763.508	38.03
763.687	38.33
763.865	37.17
764.044	36.63
764.222	35.93
764.401	36
764.579	36.81
764.758	36.63
764.936	37.51
765.114	37.94
765.293	38.69
765.471	39.78
765.65	38.93
765.828	40.03
766.006	40.36
766.184	41.71
766.363	41.71
766.541	41.1
766.719	40.43
766.898	40.33
767.076	38.8
767.254	37.92
767.432	37.57
767.61	37.64
767.788	37.11
767.967	36.97
768.145	36.78
768.323	35.41
768.501	36.38
768.679	37.48
768.857	36
769.035	37.48
769.213	37.27
769.391	36.09
769.569	36.24
769.747	35.74
769.925	35.95
770.103	35.79
770.281	36.5
770.459	34.05
770.636	34.55
770.814	36.2
770.992	36.33
771.17	35.07
771.348	34.63
771.525	35.09
771.703	35.33
771.881	35.42
772.059	34.47
772.236	33.46
772.414	33.82
772.592	32.81
772.769	32.78
772.947	33.36
773.125	35.2
773.302	36.88
773.48	36.07
773.657	37.39
773.835	36.99
774.013	37.26
774.19	37.15
774.368	36.69
774.545	36.35
774.723	34.03
774.9	31.75
775.077	30.28
775.255	31.58
775.432	30.34
775.61	30.37
775.787	28.02
775.964	29.35
776.142	30.11
776.319	30.45
776.496	31.83
776.674	33.6
776.851	35.41
777.028	33.65
777.205	31.75
777.382	33.94
777.56	31.41
777.737	31.64
777.914	29.11
778.091	29.56
778.268	28.84
778.445	27.68
778.622	26.8
778.8	26.76
778.977	29.21
779.154	29.46
779.331	29.23
779.508	31.05
779.685	32.29
779.862	34.3
780.038	34.52
780.215	37.08
780.392	37.16
780.569	37.1
780.746	36.63
780.923	36.98
781.1	38.53
781.277	38.73
781.453	40.89
781.63	43.91
781.807	41.92
781.984	42.06
782.16	41.35
782.337	42.13
782.514	41.09
782.691	40.64
782.867	40.61
783.044	40.42
783.221	39.89
783.397	37.86
783.574	32.2
783.75	34.83
783.927	35.86
784.103	35.27
784.28	35.68
784.456	38.53
784.633	37.78
784.809	38.5
784.986	36
785.162	35.22
785.339	35.9
785.515	38.46
785.692	39.86
785.868	40.21
786.044	39.01
786.221	34.99
786.397	32.83
786.573	35.23
786.749	32.92
786.926	33.57
787.102	34.94
787.278	36.36
787.454	38.2
787.631	33.56
787.807	29.82
787.983	30.72
788.159	33.64
788.335	32.87
788.511	34.13
788.687	34.49
788.863	35.64
789.039	35.75
789.216	30.95
789.392	27.98
789.568	27.76
789.744	29.35
789.919	28.61
790.095	29.83
790.271	30.48
790.447	28.05
790.623	30.64
790.799	30.62
790.975	29.64
791.151	32.06
791.327	34.82
791.502	37.04
791.678	36.62
791.854	35.96
792.03	34.7
792.205	37.43
792.381	36.06
792.557	36.17
792.733	36.01
792.908	38.86
793.084	39.9
793.259	37.75
793.435	39.17
793.611	43.92
793.786	44.32
793.962	44.32
794.137	41.99
794.313	41.64
794.488	38.23
794.664	39.23
794.839	35.67
795.015	35.11
795.19	34.82
795.366	31.36
795.541	28.74
795.716	30.64
795.892	30.21
796.067	30.83
796.242	34.35
796.418	35.24
796.593	34.06
796.768	35.36
796.944	35.45
797.119	38.24
797.294	39.93
797.469	40.63
797.644	39.15
797.82	37.81
797.995	37.72
798.17	35.26
798.345	35.32
798.52	33.76
798.695	33.13
798.87	32.48
799.045	28.79
799.22	28.74
799.395	28.02
799.57	30.48
799.745	30.98
799.92	31.38
800.095	30.79
800.27	30.15
800.445	30
800.62	27.9
800.795	26.93
800.97	29.88
801.145	31.91
801.319	31.49
801.494	28.63
801.669	30.52
801.844	30.91
802.018	35.34
802.193	38.03
802.368	40.27
802.543	40.54
802.717	44.12
802.892	43.72
803.067	40.57
803.241	41.52
803.416	44.04
803.59	41.01
803.765	41.7
803.94	37.49
804.114	34.55
804.289	30.91
804.463	30.36
804.638	29.32
804.812	27.87
804.986	32.7
805.161	32.12
805.335	30.66
805.51	32.29
805.684	30.86
805.858	32.11
806.033	32.6
806.207	35.13
806.381	37.14
806.556	34.56
806.73	36.2
806.904	35.18
807.078	36.12
807.253	37.63
807.427	37.85
807.601	38.42
807.775	37.45
807.949	38.51
808.123	37.7
808.298	38.53
808.472	40.46
808.646	38.87
808.82	37.16
808.994	36.36
809.168	34.59
809.342	34.33
809.516	33.87
809.69	33.18
809.864	29.77
810.038	30.24
810.212	29.13
810.385	29.88
810.559	29.74
810.733	26.8
810.907	24.37
811.081	25.87
811.255	23.58
811.428	23.89
811.602	23.33
811.776	25.35
811.95	28.68
812.123	33.27
812.297	33.04
812.471	34
812.644	34.99
812.818	33.93
812.992	28.27
813.165	26.07
813.339	26.12
813.512	25.73
813.686	29.21
813.86	29.67
814.033	25.66
814.207	23.76
814.38	24.71
814.554	27.72
814.727	28.6
814.9	31.33
815.074	40.16
815.247	39.09
815.421	41.38
815.594	36.56
815.767	32.97
815.941	28.35
816.114	25.71
816.287	25.88
816.46	21.2
816.634	21.19
816.807	17.4
816.98	11.24
817.153	14.85
817.327	13.92
817.5	20.32
817.673	23.53
817.846	25.08
818.019	28.45
818.192	24.01
818.365	26.58
818.538	31.2
818.711	35.4
818.884	36.35
819.057	28.13
819.23	24.87
819.403	20.69
819.576	19.46
819.749	21.17
819.922	22.62
820.095	27.1
820.268	30.32
820.441	26.07
820.614	28.4
820.786	30.81
820.959	35.5
821.132	37.86
821.305	39.78
821.477	40.45
821.65	40.61
821.823	40.12
821.996	39.56
822.168	38.86
822.341	40.55
822.514	39.65
822.686	40.14
822.859	40.27
823.031	40.12
823.204	39.13
823.376	38.49
823.549	38.33
823.722	38.07
823.894	38.23
824.067	38.14
824.239	37.27
824.411	38.02
824.584	36.65
824.756	35.47
824.929	35.3
825.101	35.4
825.273	34.99
825.446	34.7
825.618	35.44
825.79	34.91
825.963	35.31
826.135	35.02
826.307	33.73
826.479	33.07
826.652	33.69
826.824	32.76
826.996	32.9
827.168	33.53
827.34	32.92
827.512	32.31
827.684	32.48
827.856	31.75
828.029	32.35
828.201	32.54
828.373	34.5
828.545	33.94
828.717	35.27
828.889	34.93
829.061	34.53
829.232	34.27
829.404	33.04
829.576	32.57
829.748	31.22
829.92	29.99
830.092	31.67
830.264	28.14
830.436	28.26
830.607	26.55
830.779	27.37
830.951	27.87
831.123	30.34
831.294	30.84
831.466	30.52
831.638	32.28
831.809	31.62
831.981	30.2
832.153	33.2
832.324	32.65
832.496	31.57
832.667	28.96
832.839	27.29
833.011	28.44
833.182	29.12
833.354	30.73
833.525	31.91
833.697	34.59
833.868	34.21
834.039	33.81
834.211	36.98
834.382	36.97
834.554	38.5
834.725	40.55
834.896	38.19
835.068	38.31
835.239	36.55
835.41	36.87
835.581	36.51
835.753	35.41
835.924	34.85
836.095	33.44
836.266	34.53
836.438	33.37
836.609	33.12
836.78	34.01
836.951	32.84
837.122	34.57
837.293	35.09
837.464	31.89
837.635	27.97
837.806	29.04
837.977	26.15
838.148	22.45
838.319	19.66
838.49	18.04
838.661	15.88
838.832	14.18
839.003	10.28
839.174	1.42
839.345	1.63
839.516	7.96
839.687	5.79
839.857	16.13
840.028	21.46
840.199	25.2
840.37	24.85
840.54	25.68
840.711	29.51
840.882	27.03
841.053	23.92
841.223	25.62
841.394	29.02
841.564	25.38
841.735	20.58
841.906	16.6
842.076	19.79
842.247	17.03
842.417	17.67
842.588	11.91
842.758	9.47
842.929	11.83
843.099	6.27
843.27	-0.47
843.44	2.14
843.611	-2.13
843.781	-12.89
843.951	-13.22
844.122	-3.7
844.292	-4.66
844.462	-1.56
844.633	7.88
844.803	15.08
844.973	25.39
845.144	30.58
845.314	27.74
845.484	33.7
845.654	56.18
845.824	55.37
845.995	31.96
846.165	15.75
846.335	21.2
846.505	11.76
846.675	1.16
846.845	-14.66
847.015	-24.13
847.185	-11.33
847.355	-22.67
847.525	-20.71
847.695	-23.1
847.865	-17.2
848.035	-5.11
848.205	-19.27
848.375	-17.04
848.545	-20.57
848.715	-9.64
848.884	-20.34
849.054	-44.7
849.224	-19.47
849.394	-40.23
849.564	-41.29
849.733	-14.06
849.903	-14.7
850.073	9.99
850.243	16.71
850.412	15.62
850.582	-11.59
850.752	-11.1
850.921	15.85
851.091	-3.81
851.26	-0.56
851.43	-7.2
851.599	-44.32
851.769	-28.39
851.939	-63.32
852.108	-105.22
852.278	-102.85
852.447	-65.89
852.616	-14.24
852.786	-2.26
852.955	3.7
853.125	2.85
853.294	27.8
853.463	17.51
853.633	-8.11
853.802	-14.14
853.971	-19.54
854.141	-34.44
854.31	-43.3
854.479	-88.38
854.648	-166.4
854.818	-139.87
854.987	-136.34
855.156	-164.76
855.325	-100.14
855.494	-93.81
855.663	-83.15
855.832	-98.31
856.001	-79.85
856.171	-73.86
856.34	-73.5
856.509	-66.18
856.678	-106.57
856.847	-64.16
857.016	-48.52
857.185	-38.83
857.353	-12.63
857.522	-4.44
857.691	26.32
857.86	33.38
858.029	47.38
858.198	41.97
858.367	37.72
858.535	24.79
858.704	17.87
858.873	21.21
859.042	17.29
859.21	-4
859.379	-15.46
859.548	-63.45
859.717	-60.32
859.885	-62.77
860.054	-47.43
860.222	-60.54
860.391	-35.28
860.56	-20.89
860.728	-13.26
860.897	-4.89
861.065	6.47
861.234	8.43
861.402	27.48
861.571	18.12
861.739	14.84
861.908	12.85
862.076	20.39
862.244	23.98
862.413	7.73
862.581	-26.32
862.749	-87.04
862.918	-156.21
863.086	-181.53
863.254	-234.28
863.423	-280.37
863.591	-132.39
863.759	-191.92
863.927	-220.25
864.096	-1346.97
864.264	305.05
864.432	295.38
864.6	-516.02
864.768	10.33
864.936	48.65
865.104	45.75
865.272	32.78
865.44	-10.49
865.608	-6.84
865.776	-36.21
865.944	-3.41
866.112	23.98
866.28	22.31
866.448	27.28
866.616	27.18
866.784	29.35
866.952	22.63
867.12	19.63
867.288	26.37
867.455	33.83
867.623	50.41
867.791	40.53
867.959	41.97
868.127	54.38
868.294	63.33
868.462	43.58
868.63	40.04
868.797	21.77
868.965	-49.03
869.133	-23.09
869.3	-101.02
869.468	-69.57
869.636	-33.41
869.803	-70.46
869.971	-87.79
870.138	-66.5
870.306	-56.67
870.473	-51.67
870.641	-29.68
870.808	-10.75
870.975	-12.75
871.143	17.86
871.31	42.28
871.478	41.78
871.645	42.88
871.812	37.58
871.98	40.09
872.147	61.72
872.314	59.65
872.482	32.1
872.649	28.46
872.816	15.05
872.983	-85.87
873.15	-56.37
873.318	-67.19
873.485	-113.55
873.652	-18.32
873.819	8.29
873.986	20.85
874.153	40.27
874.32	54.01
874.487	60.44
874.654	39.78
874.821	20.97
874.988	42.47
875.155	52.35
875.322	44.79
875.489	33.84
875.656	26.73
875.823	23.95
875.99	16.76
876.157	16.5
876.324	29.59
876.49	49.19
876.657	49.9
876.824	25.6
876.991	5.89
877.157	0.32
877.324	-5.53
877.491	3.04
877.658	-17.61
877.824	-34.75
877.991	-31.14
878.157	-51.42
878.324	-72.46
878.491	-28.26
878.657	-29.89
878.824	-4.43
878.99	13.27
879.157	19.16
879.323	12.43
879.49	43.57
879.656	51.48
879.823	36.81
879.989	50.66
880.156	37.91
880.322	34.57
880.488	41.11
880.655	29.75
880.821	14.06
880.987	15.12
881.154	38.32
881.32	20.33
881.486	20.36
881.652	24.77
881.819	25.21
881.985	28
882.151	29.09
882.317	28.16
882.483	29.93
882.649	27.79
882.816	27.07
882.982	25.31
883.148	26.51
883.314	27.55
883.48	27.31
883.646	27.97
883.812	29.67
883.978	29.76
884.144	29.74
884.31	29.42
884.476	31.93
884.642	33.06
884.807	34.11
884.973	34.88
885.139	37.15
885.305	38.78
885.471	37.76
885.637	37.62
885.802	37.86
885.968	39.68
886.134	41.59
886.3	40.38
886.465	40.54
886.631	39.68
886.797	40.92
886.962	39.24
887.128	34.42
887.293	33.13
887.459	31.21
887.625	34.36
887.79	34.18
887.956	32.56
888.121	35.32
888.287	34.43
888.452	33.01
888.618	32.38
888.783	20.67
