Data from CB_107_Reflection_3.txt Node
Date: Sat Nov 14 18:05:05 EST 2015
User: robert
Spectrometer: USB4E03001
Autoset integration time: false
Trigger mode: 4
Integration Time (sec): 1.000000E-1
Scans to average: 15
Electric dark correction enabled: true
Nonlinearity correction enabled: false
Boxcar width: 5
Stray light correction enabled: false
XAxis mode: Wavelengths
Stop averaging: false
Number of Pixels in Spectrum: 3648
>>>>>Begin Spectral Data<<<<<
177.566	183.3
177.785	-433.99
178.005	198.22
178.225	214.84
178.445	158.95
178.665	7.52
178.885	-1153.61
179.105	107.82
179.324	104.59
179.544	73.29
179.764	95.78
179.984	75.39
180.204	54.36
180.423	61.98
180.643	99.1
180.863	155.85
181.083	119.3
181.302	140.85
181.522	176.12
181.742	156.94
181.961	231.53
182.181	348.72
182.401	1000.54
182.621	582.6
182.84	901.57
183.06	384.52
183.279	249.71
183.499	388.88
183.719	263.76
183.938	189.53
184.158	245.11
184.377	223.25
184.597	222.97
184.816	157.92
185.036	172.2
185.256	155.97
185.475	141.3
185.695	124.04
185.914	113.58
186.134	126.52
186.353	128.02
186.572	114.62
186.792	112.61
187.011	118.14
187.231	121.26
187.45	116.39
187.67	112.93
187.889	132.02
188.108	152.39
188.328	173.33
188.547	177.79
188.766	186.63
188.986	170.25
189.205	153.14
189.424	125.8
189.644	142.77
189.863	160.04
190.082	191.19
190.302	182.93
190.521	167.09
190.74	157.25
190.959	156.65
191.178	155.24
191.398	209.54
191.617	250.05
191.836	283.34
192.055	218.72
192.274	230.77
192.494	237.96
192.713	500.55
192.932	550.43
193.151	919.44
193.37	567.76
193.589	537.97
193.808	759.9
194.027	1457.65
194.246	-3590.3
194.465	5374.51
194.685	376.24
194.904	400.99
195.123	201.28
195.342	217.46
195.561	155.5
195.78	159.17
195.999	129.3
196.218	100.37
196.436	92.91
196.655	94.15
196.874	106.51
197.093	106
197.312	91.24
197.531	97.03
197.75	97.51
197.969	100.53
198.188	106.76
198.407	108.92
198.625	105.75
198.844	127.01
199.063	117.42
199.282	123.7
199.501	176.99
199.719	162.25
199.938	143.24
200.157	107.07
200.376	101.41
200.594	116.76
200.813	142.43
201.032	117.43
201.251	123.49
201.469	122.42
201.688	102.63
201.907	98.63
202.125	114.42
202.344	171.46
202.563	187.02
202.781	214.13
203	215.89
203.218	177.07
203.437	195.49
203.656	185.21
203.874	159.47
204.093	214.3
204.311	180.83
204.53	199.35
204.748	145.36
204.967	189.07
205.185	181.49
205.404	151.57
205.622	148.15
205.841	160.05
206.059	138.1
206.278	112.78
206.496	89.63
206.715	112.63
206.933	99.18
207.151	106.09
207.37	90.59
207.588	89.16
207.806	90.25
208.025	77.36
208.243	84.79
208.461	110.18
208.68	116.53
208.898	128.74
209.116	107.95
209.335	99.26
209.553	115.79
209.771	129.05
209.989	123.23
210.208	128.55
210.426	133.7
210.644	106.47
210.862	91.46
211.081	113.2
211.299	103.29
211.517	122.92
211.735	137.8
211.953	105.9
212.171	97.25
212.39	95.66
212.608	105.72
212.826	114.44
213.044	126.62
213.262	118.04
213.48	125.39
213.698	122.02
213.916	126.65
214.134	118.46
214.352	141.05
214.57	140.31
214.788	159.42
215.006	153.32
215.224	162.55
215.442	208.26
215.66	192.13
215.878	193.59
216.096	229.97
216.314	181.28
216.532	205.41
216.75	169.41
216.968	194.37
217.185	199.83
217.403	253.25
217.621	288.54
217.839	225.92
218.057	244.67
218.275	224.63
218.492	252.89
218.71	270.46
218.928	251.52
219.146	356.22
219.363	238.75
219.581	244.6
219.799	261.83
220.017	246.91
220.234	209.87
220.452	267.97
220.67	281.04
220.887	397.59
221.105	610.31
221.323	9938.04
221.54	938.15
221.758	5548.57
221.976	2126.72
222.193	385.62
222.411	472.04
222.629	934.18
222.846	1060.76
223.064	-999.49
223.281	1320.17
223.499	799.83
223.716	1324.92
223.934	-943.65
224.151	-325.67
224.369	-236.89
224.586	-124.57
224.804	-82.92
225.021	-75.89
225.239	-84.43
225.456	-119.43
225.674	-103.52
225.891	-136.55
226.108	-178.27
226.326	-195.24
226.543	-139.05
226.76	-108.73
226.978	-79.4
227.195	-97.8
227.413	-91.63
227.63	-53.87
227.847	-35.38
228.064	-23.38
228.282	-19.18
228.499	-11.16
228.716	-9.59
228.934	-10.27
229.151	-6.99
229.368	-8.22
229.585	-6.88
229.802	-3.12
230.02	-6.6
230.237	-7.76
230.454	-4.79
230.671	-5.43
230.888	-6.89
231.105	-7.46
231.323	-9.11
231.54	-22.83
231.757	-29.71
231.974	-37.54
232.191	-49.47
232.408	-50.4
232.625	-49.19
232.842	-47.03
233.059	-40.16
233.276	-44.4
233.493	-47.23
233.71	-37.22
233.927	-16.81
234.144	-17.71
234.361	-11.44
234.578	-10.29
234.795	-3.72
235.012	-10.4
235.229	-19.73
235.446	-23.75
235.663	-22.21
235.879	-20.1
236.096	-26.29
236.313	-36.83
236.53	-27.63
236.747	-27.98
236.964	-29.57
237.181	-41.99
237.397	-38.7
237.614	-37.45
237.831	-35.83
238.048	-39.89
238.264	-46.79
238.481	-49.54
238.698	-36.18
238.915	-31.44
239.131	-24.86
239.348	-17.46
239.565	-8.39
239.781	-3.05
239.998	-2.48
240.215	0.42
240.431	1.66
240.648	6.28
240.865	7.69
241.081	7.72
241.298	5.78
241.514	4.07
241.731	4.36
241.947	4.35
242.164	2.8
242.38	5.56
242.597	6.85
242.814	7.55
243.03	6.4
243.246	6.36
243.463	7.51
243.679	5.19
243.896	6.17
244.112	4.29
244.329	1.99
244.545	4.07
244.762	3.19
244.978	2.43
245.194	0.88
245.411	0.12
245.627	1.69
245.843	0.88
246.06	3.33
246.276	3.51
246.492	6
246.709	6.28
246.925	5.88
247.141	6.13
247.357	6.78
247.574	7.29
247.79	8.41
248.006	9.01
248.222	8.45
248.439	8.56
248.655	8.07
248.871	8.23
249.087	9.3
249.303	8.27
249.519	7.53
249.736	5.69
249.952	6.59
250.168	5.31
250.384	1.78
250.6	1.88
250.816	0.47
251.032	2.34
251.248	-0.09
251.464	-4.04
251.68	-2.55
251.896	-2.29
252.112	-3.63
252.328	-5.9
252.544	-6.03
252.76	-4.53
252.976	-5.39
253.192	-4.64
253.408	-5.67
253.624	-6.82
253.84	-4.84
254.056	-5.86
254.272	-6.83
254.487	-5.53
254.703	-5.64
254.919	-8.38
255.135	-9.56
255.351	-12.37
255.567	-9.01
255.782	-9.39
255.998	-5.22
256.214	-5.52
256.43	-0.28
256.646	-2.95
256.861	1.44
257.077	1.08
257.293	3.44
257.508	5.84
257.724	7.74
257.94	7.21
258.155	6.46
258.371	4.53
258.587	4.1
258.802	3.63
259.018	5.66
259.234	5.07
259.449	5.57
259.665	5.83
259.88	5.82
260.096	5.75
260.312	5.19
260.527	6
260.743	5.99
260.958	6.52
261.174	6.18
261.389	5.66
261.605	5.09
261.82	4.86
262.036	4.72
262.251	3.77
262.466	4.47
262.682	4.36
262.897	1.6
263.113	1.68
263.328	1.23
263.543	-0.55
263.759	-3.88
263.974	-4.37
264.189	-5.36
264.405	-8.52
264.62	-8.67
264.835	-8.8
265.051	-7.8
265.266	-6.66
265.481	-5.33
265.696	-5.85
265.912	-3.93
266.127	0.01
266.342	1.48
266.557	1.76
266.773	2.63
266.988	2.56
267.203	2.53
267.418	2.07
267.633	3.22
267.848	3.19
268.064	4.44
268.279	4.63
268.494	3.39
268.709	2.5
268.924	3.98
269.139	3.36
269.354	4.34
269.569	4.88
269.784	4.31
269.999	3.64
270.214	3.16
270.429	0.81
270.644	1.14
270.859	1.91
271.074	0.97
271.289	-0.82
271.504	1.43
271.719	1.45
271.934	0.34
272.149	1.82
272.363	2.09
272.578	2.75
272.793	3.55
273.008	2.07
273.223	2.38
273.438	2.39
273.653	3.71
273.867	2.09
274.082	1.69
274.297	2.21
274.512	0.32
274.726	-0.69
274.941	-1.85
275.156	-1.06
275.371	1.09
275.585	-1.51
275.8	-0.66
276.015	-0.76
276.229	-0.55
276.444	-1.76
276.659	-2.82
276.873	-1.12
277.088	-1.19
277.302	-1.28
277.517	-1.39
277.732	-3.66
277.946	-0.45
278.161	-0.85
278.375	-1.36
278.59	-0.12
278.804	0.02
279.019	0.7
279.233	1.29
279.448	1.43
279.662	1.58
279.877	0.15
280.091	1.67
280.306	0.52
280.52	1.36
280.735	2.56
280.949	1.99
281.163	3.76
281.378	4.3
281.592	4.03
281.806	3.9
282.021	3.34
282.235	5.15
282.449	4.91
282.664	5.31
282.878	4.81
283.092	3.84
283.307	4.1
283.521	3.35
283.735	3.1
283.949	3.89
284.164	5.05
284.378	6.38
284.592	6.5
284.806	7.57
285.02	6.05
285.234	5.96
285.449	5.78
285.663	6.12
285.877	6.5
286.091	6.31
286.305	4.74
286.519	4.69
286.733	3.93
286.947	3.25
287.161	2.9
287.375	4.35
287.589	5.64
287.803	6.35
288.017	5.82
288.231	5.26
288.445	5.38
288.659	5.77
288.873	5.02
289.087	6.21
289.301	5.64
289.515	4.9
289.729	4.67
289.943	3.13
290.157	1.74
290.371	2.2
290.584	3.09
290.798	2.98
291.012	3.67
291.226	4.04
291.44	3.28
291.654	2.93
291.867	3.99
292.081	4.68
292.295	5.23
292.509	6.22
292.722	5.53
292.936	4.44
293.15	4.56
293.364	4.72
293.577	4.1
293.791	5.12
294.005	4.4
294.218	3.75
294.432	2.78
294.645	2.74
294.859	3.94
295.073	3.84
295.286	3.74
295.5	4.89
295.713	4.8
295.927	5.7
296.14	4.82
296.354	6.42
296.568	6.59
296.781	7.34
296.994	7.3
297.208	6.48
297.421	7.62
297.635	7.76
297.848	7.84
298.062	7.89
298.275	8.45
298.489	8.33
298.702	8.29
298.915	7.82
299.129	7.23
299.342	7.85
299.555	6.91
299.769	6.4
299.982	6.48
300.195	5.07
300.409	5.4
300.622	4.16
300.835	3.89
301.048	3.43
301.262	3.41
301.475	2.43
301.688	2.17
301.901	3.3
302.115	3.34
302.328	4.49
302.541	6.13
302.754	5.65
302.967	6.06
303.18	6.35
303.393	6.21
303.607	5.66
303.82	6.88
304.033	7.67
304.246	7.29
304.459	6.79
304.672	6.18
304.885	4.96
305.098	5.82
305.311	5.78
305.524	6.19
305.737	5.72
305.95	7.14
306.163	6.13
306.376	4.13
306.589	5.95
306.802	4.71
307.015	3.85
307.228	4.99
307.44	3.94
307.653	4.78
307.866	5.63
308.079	6.12
308.292	6.08
308.505	7.19
308.718	7.94
308.93	7.7
309.143	8.77
309.356	8.86
309.569	8.94
309.781	9.33
309.994	9.09
310.207	8.67
310.42	8.77
310.632	8.2
310.845	7.91
311.058	8.47
311.27	8.25
311.483	9.05
311.696	10.06
311.908	9.19
312.121	8.36
312.333	7.76
312.546	7.44
312.759	6.74
312.971	6.49
313.184	6.06
313.396	4.91
313.609	4.46
313.821	3.64
314.034	2.62
314.246	3.25
314.459	4.13
314.671	3.72
314.884	3.55
315.096	3.93
315.309	3.52
315.521	4.3
315.733	4.9
315.946	4.39
316.158	4.17
316.371	5.33
316.583	3.95
316.795	4.03
317.008	3.73
317.22	4.29
317.432	3.57
317.644	3.5
317.857	3.21
318.069	3.29
318.281	2.85
318.494	1.99
318.706	0.45
318.918	1.53
319.13	2.72
319.342	5.87
319.555	5.43
319.767	7.19
319.979	7.62
320.191	8.47
320.403	9.27
320.615	9.71
320.827	9.59
321.039	9.76
321.252	10.24
321.464	9.48
321.676	7.6
321.888	7.81
322.1	7.03
322.312	8.5
322.524	8.26
322.736	8.43
322.948	9.17
323.16	10.22
323.372	9.73
323.584	9.13
323.796	8.57
324.007	8.67
324.219	9.02
324.431	9.2
324.643	7.78
324.855	7.79
325.067	8
325.279	6.76
325.491	8.21
325.702	9.07
325.914	9.55
326.126	10.07
326.338	10.56
326.55	11.57
326.761	12.88
326.973	14.49
327.185	14.92
327.396	14.69
327.608	16.08
327.82	15.19
328.032	16
328.243	16.14
328.455	16.99
328.666	17.7
328.878	18.36
329.09	18.59
329.301	18.46
329.513	18.21
329.725	18.17
329.936	19
330.148	19.8
330.359	18.95
330.571	19.18
330.782	18.67
330.994	18.59
331.205	17.61
331.417	17.83
331.628	18.1
331.84	17.41
332.051	18.22
332.262	18.6
332.474	18.29
332.685	19.46
332.897	20.34
333.108	21.02
333.319	20.47
333.531	20.89
333.742	20.75
333.953	20.53
334.165	21.59
334.376	21.81
334.587	22.1
334.799	22.08
335.01	21.12
335.221	21.34
335.432	21.57
335.644	22.7
335.855	23.22
336.066	23.6
336.277	23.8
336.488	23.6
336.7	23.6
336.911	22.76
337.122	23.49
337.333	25.02
337.544	24.38
337.755	22.88
337.966	22.54
338.177	22.7
338.388	22.25
338.599	21.8
338.811	22.1
339.022	21.91
339.233	21.3
339.444	20.57
339.655	19.55
339.866	19.04
340.076	20.08
340.287	19.3
340.498	18.6
340.709	18.84
340.92	19.09
341.131	19.31
341.342	19.8
341.553	20.7
341.764	21.05
341.975	21.4
342.185	22.39
342.396	21.95
342.607	22.77
342.818	22.46
343.029	22.19
343.239	22.83
343.45	22.11
343.661	21.71
343.872	21.99
344.082	21.84
344.293	21.96
344.504	21.45
344.714	21.81
344.925	21.52
345.136	22.05
345.346	22.06
345.557	22
345.768	22.32
345.978	21.55
346.189	21.74
346.399	22
346.61	20.53
346.821	20.19
347.031	20.68
347.242	20.79
347.452	19.99
347.663	19.27
347.873	18.29
348.084	18.7
348.294	19.07
348.504	18.87
348.715	18.67
348.925	19.8
349.136	20.76
349.346	19.64
349.557	18.95
349.767	18.61
349.977	18.91
350.188	19.28
350.398	18.76
350.608	19.17
350.819	18.56
351.029	17.91
351.239	17.96
351.449	17.18
351.66	17.54
351.87	18.74
352.08	18.76
352.29	19.09
352.501	19.69
352.711	20.57
352.921	20.27
353.131	20.71
353.341	20.93
353.552	20.35
353.762	20.38
353.972	20.19
354.182	19.55
354.392	19.94
354.602	19.98
354.812	19.53
355.022	19.32
355.232	19.61
355.442	19.63
355.652	19.35
355.862	19.78
356.072	20
356.282	20.46
356.492	21.08
356.702	21.17
356.912	21.33
357.122	22.23
357.332	22.14
357.542	21.59
357.752	21.44
357.962	22.05
358.171	22.23
358.381	22.43
358.591	22.1
358.801	21.39
359.011	21.31
359.221	21.12
359.43	20.57
359.64	20.3
359.85	20.78
360.06	20.3
360.269	19.98
360.479	19.84
360.689	19.53
360.899	20.41
361.108	20.24
361.318	20.63
361.528	20.57
361.737	20.37
361.947	20.54
362.156	20.57
362.366	21.03
362.576	21.25
362.785	21.34
362.995	21.96
363.204	21.06
363.414	21.14
363.623	20.81
363.833	20.67
364.042	20.68
364.252	20.63
364.461	20.22
364.671	19.93
364.88	19.57
365.09	19.03
365.299	18.1
365.509	18.22
365.718	17.98
365.927	17.17
366.137	17.32
366.346	17.4
366.555	17.01
366.765	17.18
366.974	16.87
367.183	16.21
367.393	16.6
367.602	17.41
367.811	18.12
368.021	17.79
368.23	18.03
368.439	17.77
368.648	17.77
368.857	17.46
369.067	16.63
369.276	16.13
369.485	16.39
369.694	15.54
369.903	15.43
370.112	15.16
370.321	16.17
370.531	16.54
370.74	16.61
370.949	16.4
371.158	17.01
371.367	17.41
371.576	17.99
371.785	18.24
371.994	18.74
372.203	18.48
372.412	18
372.621	17.44
372.83	17.29
373.039	17.04
373.248	17.19
373.457	16.94
373.666	16.93
373.874	16.19
374.083	16.03
374.292	15.33
374.501	14.74
374.71	14.04
374.919	14.47
375.128	14.69
375.336	14.59
375.545	14.1
375.754	13.91
375.963	14.19
376.171	14.53
376.38	14.57
376.589	15.31
376.798	15.72
377.006	16
377.215	15.54
377.424	15.3
377.632	15
377.841	15.34
378.05	14.64
378.258	14.56
378.467	14.25
378.675	14.28
378.884	13.34
379.093	13.05
379.301	13.54
379.51	13.34
379.718	13.19
379.927	14.17
380.135	14.46
380.344	15.2
380.552	14.42
380.761	14.91
380.969	14.8
381.177	15.43
381.386	15.75
381.594	15.58
381.803	15.5
382.011	15.26
382.219	14.6
382.428	14.24
382.636	14.04
382.845	13.99
383.053	13.79
383.261	13.62
383.469	13.4
383.678	12.78
383.886	12.61
384.094	12.61
384.302	12.41
384.511	12.2
384.719	11.93
384.927	11.93
385.135	12.31
385.343	12.05
385.552	12.2
385.76	11.91
385.968	11.9
386.176	11.4
386.384	11.47
386.592	11.81
386.8	11.61
387.008	11.66
387.216	11.88
387.424	11.88
387.633	11.84
387.841	11.56
388.049	11.89
388.257	11.49
388.465	11.21
388.672	11.29
388.88	11.12
389.088	11.59
389.296	10.99
389.504	10.22
389.712	10.03
389.92	10.01
390.128	9.78
390.336	9.46
390.544	9.53
390.751	9.58
390.959	8.89
391.167	8.75
391.375	8.54
391.583	8.83
391.79	9.04
391.998	8.93
392.206	9
392.414	8.92
392.621	8.69
392.829	8.61
393.037	8.96
393.244	9.1
393.452	9.19
393.66	9.27
393.867	9.1
394.075	9.04
394.283	9.09
394.49	8.87
394.698	8.6
394.905	9.03
395.113	9
395.32	8.95
395.528	9.08
395.735	9.03
395.943	8.67
396.15	8.57
396.358	8.67
396.565	8.78
396.773	8.94
396.98	9.09
397.188	8.78
397.395	9
397.602	9.04
397.81	9.12
398.017	8.9
398.225	8.95
398.432	9.05
398.639	8.96
398.847	8.84
399.054	8.66
399.261	8.82
399.468	8.79
399.676	8.87
399.883	8.44
400.09	8.11
400.297	7.91
400.505	7.92
400.712	7.72
400.919	7.66
401.126	7.31
401.333	7.47
401.54	7.72
401.748	7.55
401.955	7.08
402.162	7.39
402.369	7.49
402.576	7.71
402.783	7.48
402.99	7.43
403.197	7.46
403.404	7.55
403.611	7.19
403.818	7.24
404.025	7.35
404.232	7.3
404.439	7.11
404.646	7.17
404.853	7.21
405.06	7.17
405.267	7.24
405.474	7.15
405.681	6.94
405.887	7.14
406.094	6.62
406.301	6.6
406.508	6.65
406.715	6.51
406.922	6.37
407.128	6.54
407.335	6.69
407.542	6.6
407.749	6.51
407.955	6.7
408.162	6.89
408.369	7.15
408.575	7.14
408.782	7.05
408.989	7.05
409.195	7.16
409.402	6.88
409.609	6.89
409.815	7.09
410.022	7
410.228	7.08
410.435	6.73
410.642	6.75
410.848	6.46
411.055	6.47
411.261	6.38
411.468	6.15
411.674	6.05
411.881	5.78
412.087	5.87
412.294	6.16
412.5	6.22
412.706	6.24
412.913	5.92
413.119	6.03
413.326	6.04
413.532	6.27
413.738	6.63
413.945	6.62
414.151	6.8
414.357	6.76
414.564	6.49
414.77	6.13
414.976	6.25
415.182	6.35
415.389	6.62
415.595	6.86
415.801	6.79
416.007	6.69
416.214	6.61
416.42	6.83
416.626	6.6
416.832	6.76
417.038	7.12
417.244	7.13
417.45	7.39
417.657	7.19
417.863	7.13
418.069	7.3
418.275	7.08
418.481	7.11
418.687	6.88
418.893	6.97
419.099	6.93
419.305	6.66
419.511	6.52
419.717	6.39
419.923	6.46
420.129	6.34
420.335	6.17
420.541	6.34
420.746	6.42
420.952	6.5
421.158	6.5
421.364	6.48
421.57	6.58
421.776	6.6
421.982	6.47
422.187	6.36
422.393	6.5
422.599	6.47
422.805	6.45
423.01	6.54
423.216	6.57
423.422	6.54
423.628	6.5
423.833	6.6
424.039	6.76
424.245	6.83
424.45	6.94
424.656	6.87
424.862	6.97
425.067	6.88
425.273	6.75
425.478	6.71
425.684	6.74
425.889	6.72
426.095	6.69
426.301	6.57
426.506	6.58
426.712	6.6
426.917	6.69
427.123	6.61
427.328	6.77
427.533	6.83
427.739	6.83
427.944	6.67
428.15	6.68
428.355	6.26
428.561	6.15
428.766	6.14
428.971	6.07
429.177	5.95
429.382	6.05
429.587	5.83
429.793	5.83
429.998	5.82
430.203	5.75
430.408	5.89
430.614	6.04
430.819	6.17
431.024	6.16
431.229	5.99
431.434	5.78
431.64	5.64
431.845	5.65
432.05	5.57
432.255	5.62
432.46	5.76
432.665	5.61
432.87	5.69
433.076	5.62
433.281	5.55
433.486	5.62
433.691	5.59
433.896	5.59
434.101	5.67
434.306	5.48
434.511	5.4
434.716	5.31
434.921	5.33
435.126	5.32
435.331	5.34
435.535	5.49
435.74	5.56
435.945	5.71
436.15	5.77
436.355	5.59
436.56	5.77
436.765	5.79
436.97	5.93
437.174	6.04
437.379	6.08
437.584	6.06
437.789	5.94
437.993	5.96
438.198	5.91
438.403	5.98
438.608	6.08
438.812	6.31
439.017	6.31
439.222	6.4
439.426	6.18
439.631	6.15
439.836	6.23
440.04	6.24
440.245	6.22
440.45	6.33
440.654	6.31
440.859	6.33
441.063	6.15
441.268	6.02
441.472	5.84
441.677	6.06
441.881	6.17
442.086	6.22
442.29	6.21
442.495	6.29
442.699	6.21
442.904	6.15
443.108	6.07
443.312	6.12
443.517	6.14
443.721	6.07
443.925	6.04
444.13	5.99
444.334	5.88
444.538	5.89
444.743	5.7
444.947	5.75
445.151	5.72
445.356	5.8
445.56	5.89
445.764	6.07
445.968	6.14
446.173	6.1
446.377	5.91
446.581	5.86
446.785	5.78
446.989	5.83
447.193	5.88
447.398	5.98
447.602	6.06
447.806	5.96
448.01	5.74
448.214	5.88
448.418	5.7
448.622	5.83
448.826	5.78
449.03	5.98
449.234	6.02
449.438	5.95
449.642	5.72
449.846	5.62
450.05	5.42
450.254	5.59
450.458	5.22
450.662	5.41
450.866	5.31
451.069	5.43
451.273	5.26
451.477	5.36
451.681	5.34
451.885	5.57
452.089	5.34
452.292	5.42
452.496	5.31
452.7	5.61
452.904	5.68
453.107	5.63
453.311	5.64
453.515	5.7
453.719	5.61
453.922	5.41
454.126	5.28
454.33	5.53
454.533	5.59
454.737	5.65
454.94	5.54
455.144	5.39
455.348	5.53
455.551	5.41
455.755	5.3
455.958	5.37
456.162	5.48
456.365	5.53
456.569	5.44
456.772	5.55
456.976	5.45
457.179	5.51
457.383	5.56
457.586	5.6
457.79	5.75
457.993	5.82
458.196	5.58
458.4	5.68
458.603	5.69
458.807	5.66
459.01	5.76
459.213	5.91
459.417	6.03
459.62	5.94
459.823	5.85
460.026	5.78
460.23	5.8
460.433	5.82
460.636	5.94
460.839	5.96
461.042	6.13
461.246	5.86
461.449	5.8
461.652	5.57
461.855	5.72
462.058	5.66
462.261	5.7
462.464	5.73
462.668	5.87
462.871	5.63
463.074	5.5
463.277	5.32
463.48	5.31
463.683	5.15
463.886	5.16
464.089	4.85
464.292	5
464.495	5.07
464.698	4.94
464.901	4.95
465.104	4.98
465.306	4.99
465.509	5.04
465.712	5.22
465.915	5.26
466.118	5.26
466.321	5.45
466.524	5.44
466.726	5.28
466.929	5.39
467.132	5.47
467.335	5.31
467.538	5.5
467.74	5.45
467.943	5.3
468.146	5.36
468.348	5.49
468.551	5.62
468.754	5.67
468.956	5.71
469.159	5.58
469.362	5.51
469.564	5.72
469.767	5.58
469.969	5.74
470.172	6.03
470.375	5.9
470.577	5.73
470.78	5.6
470.982	5.73
471.185	5.71
471.387	5.81
471.59	5.75
471.792	5.54
471.995	5.43
472.197	5.17
472.399	4.92
472.602	5.05
472.804	5.03
473.007	5.01
473.209	4.98
473.411	4.83
473.614	4.94
473.816	5.09
474.018	5.21
474.22	5.34
474.423	5.51
474.625	5.63
474.827	5.74
475.03	5.7
475.232	5.76
475.434	5.58
475.636	5.9
475.838	5.84
476.04	5.78
476.243	5.71
476.445	5.78
476.647	5.76
476.849	5.76
477.051	5.77
477.253	5.83
477.455	5.62
477.657	5.66
477.859	5.56
478.061	5.39
478.263	5.36
478.465	5.34
478.667	5.16
478.869	5.14
479.071	5.07
479.273	5.05
479.475	5.07
479.677	5.27
479.879	5.27
480.081	5.23
480.283	5.31
480.485	5.28
480.686	5.5
480.888	5.62
481.09	5.6
481.292	5.67
481.494	5.63
481.695	5.71
481.897	5.79
482.099	5.78
482.301	5.82
482.502	5.81
482.704	5.84
482.906	5.8
483.107	5.88
483.309	5.93
483.511	5.97
483.712	6.01
483.914	5.96
484.115	5.98
484.317	6.01
484.519	6
484.72	6.01
484.922	6.01
485.123	6.05
485.325	6.01
485.526	6.03
485.728	6.03
485.929	6.03
486.131	6.02
486.332	5.93
486.534	5.96
486.735	5.97
486.936	6.01
487.138	6.04
487.339	5.94
487.541	5.96
487.742	5.94
487.943	5.93
488.144	5.98
488.346	6.04
488.547	6.08
488.748	6.01
488.95	6.08
489.151	6.01
489.352	5.97
489.553	6.01
489.755	6.01
489.956	5.97
490.157	5.95
490.358	5.85
490.559	5.87
490.76	5.77
490.961	5.83
491.163	5.8
491.364	5.9
491.565	5.91
491.766	5.94
491.967	5.87
492.168	5.93
492.369	5.98
492.57	5.96
492.771	5.96
492.972	6.03
493.173	6
493.374	5.95
493.575	5.86
493.776	5.85
493.976	5.74
494.177	5.77
494.378	5.77
494.579	5.75
494.78	5.79
494.981	5.87
495.182	5.95
495.382	5.91
495.583	5.84
495.784	5.87
495.985	5.86
496.185	5.92
496.386	5.92
496.587	5.9
496.788	5.86
496.988	5.77
497.189	5.75
497.39	5.79
497.59	5.89
497.791	5.89
497.992	5.91
498.192	5.87
498.393	6.03
498.593	6.09
498.794	5.95
498.994	6
499.195	5.91
499.395	5.93
499.596	5.95
499.796	5.9
499.997	6.14
500.197	6.21
500.398	6.35
500.598	6.26
500.799	6.34
500.999	6.39
501.199	6.33
501.4	6.56
501.6	6.48
501.801	6.43
502.001	6.41
502.201	6.36
502.402	6.48
502.602	6.5
502.802	6.4
503.002	6.48
503.203	6.46
503.403	6.39
503.603	6.36
503.803	6.49
504.003	6.41
504.204	6.53
504.404	6.44
504.604	6.39
504.804	6.3
505.004	6.3
505.204	6.25
505.404	6.47
505.604	6.57
505.804	6.7
506.005	6.57
506.205	6.82
506.405	6.7
506.605	6.8
506.805	6.74
507.005	6.79
507.204	7
507.404	7
507.604	6.96
507.804	7.07
508.004	7.01
508.204	7.19
508.404	7.05
508.604	7.34
508.804	7.45
509.003	7.66
509.203	7.76
509.403	7.9
509.603	7.92
509.803	7.98
510.002	8.04
510.202	8.28
510.402	8.3
510.602	8.42
510.801	8.46
511.001	8.46
511.201	8.44
511.4	8.59
511.6	8.53
511.8	8.76
511.999	8.75
512.199	8.73
512.398	8.52
512.598	8.62
512.797	8.71
512.997	8.7
513.197	8.86
513.396	8.92
513.596	8.97
513.795	9.18
513.994	9
514.194	9.17
514.393	9.41
514.593	9.67
514.792	9.69
514.992	9.79
515.191	9.85
515.39	9.87
515.59	9.88
515.789	9.88
515.988	9.98
516.188	10.36
516.387	10.48
516.586	10.42
516.786	10.51
516.985	10.57
517.184	10.7
517.383	10.72
517.582	10.79
517.782	10.95
517.981	11.17
518.18	11.29
518.379	11.29
518.578	11.28
518.777	11.39
518.976	11.48
519.176	11.51
519.375	11.59
519.574	11.73
519.773	11.83
519.972	11.88
520.171	11.83
520.37	11.72
520.569	11.82
520.768	12
520.967	12.04
521.166	12.1
521.365	12.27
521.564	12.26
521.762	12.42
521.961	12.47
522.16	12.8
522.359	12.98
522.558	13.14
522.757	13.07
522.956	13.25
523.154	13.56
523.353	13.62
523.552	13.73
523.751	13.94
523.949	14.05
524.148	14.27
524.347	14.23
524.546	14.35
524.744	14.51
524.943	14.58
525.142	14.49
525.34	14.48
525.539	14.54
525.737	14.77
525.936	14.81
526.135	14.91
526.333	14.99
526.532	15.13
526.73	15.23
526.929	15.28
527.127	15.56
527.326	15.75
527.524	15.82
527.723	16.08
527.921	16.15
528.12	16.3
528.318	16.35
528.516	16.46
528.715	16.54
528.913	16.66
529.112	16.77
529.31	16.86
529.508	16.97
529.707	17.12
529.905	17.15
530.103	17.18
530.301	17.27
530.5	17.43
530.698	17.45
530.896	17.55
531.094	17.53
531.293	17.63
531.491	17.56
531.689	17.6
531.887	17.59
532.085	17.68
532.283	17.78
532.481	17.83
532.68	17.84
532.878	18.07
533.076	18.21
533.274	18.36
533.472	18.4
533.67	18.6
533.868	18.7
534.066	18.84
534.264	18.9
534.462	19.01
534.66	19.1
534.858	19.2
535.056	19.12
535.253	19.11
535.451	19.17
535.649	19.38
535.847	19.45
536.045	19.58
536.243	19.67
536.441	19.85
536.638	19.97
536.836	20.02
537.034	20.15
537.232	20.36
537.43	20.42
537.627	20.53
537.825	20.56
538.023	20.58
538.22	20.57
538.418	20.61
538.616	20.59
538.813	20.61
539.011	20.72
539.209	20.82
539.406	20.97
539.604	21.18
539.801	21.26
539.999	21.38
540.196	21.55
540.394	21.65
540.591	21.85
540.789	21.94
540.986	22.07
541.184	22.14
541.381	22.2
541.579	22.16
541.776	22.29
541.974	22.37
542.171	22.39
542.368	22.47
542.566	22.6
542.763	22.59
542.96	22.64
543.158	22.67
543.355	22.81
543.552	22.88
543.75	22.99
543.947	22.93
544.144	22.95
544.341	22.99
544.539	23.02
544.736	23.09
544.933	23.22
545.13	23.25
545.327	23.44
545.524	23.4
545.722	23.4
545.919	23.49
546.116	23.54
546.313	23.62
546.51	23.67
546.707	23.69
546.904	23.66
547.101	23.57
547.298	23.7
547.495	23.56
547.692	23.72
547.889	23.91
548.086	23.89
548.283	23.97
548.48	24.07
548.677	24.07
548.874	24.04
549.07	24.18
549.267	24.32
549.464	24.27
549.661	24.3
549.858	24.2
550.055	24.18
550.251	24.18
550.448	24.13
550.645	24.07
550.842	24.2
551.038	24.56
551.235	24.67
551.432	24.7
551.628	24.88
551.825	24.89
552.022	24.85
552.218	24.88
552.415	24.99
552.612	24.88
552.808	25.03
553.005	25.11
553.201	24.88
553.398	24.83
553.594	24.88
553.791	24.87
553.987	25.15
554.184	25.28
554.38	25.46
554.577	25.7
554.773	25.84
554.97	25.81
555.166	25.91
555.362	26.04
555.559	26.15
555.755	26.27
555.952	26.27
556.148	26.13
556.344	26.19
556.541	26.2
556.737	26.04
556.933	26.28
557.129	26.37
557.326	26.35
557.522	26.56
557.718	26.64
557.914	26.86
558.11	27.1
558.307	27.2
558.503	27.11
558.699	27.05
558.895	26.94
559.091	26.82
559.287	26.92
559.483	27.2
559.679	27.2
559.876	27.2
560.072	26.96
560.268	26.77
560.464	26.98
560.66	27.3
560.856	27.28
561.052	27.52
561.247	27.71
561.443	27.55
561.639	27.36
561.835	27.26
562.031	27.19
562.227	27.11
562.423	27.3
562.619	27.32
562.815	27.13
563.01	27.14
563.206	27.14
563.402	27.03
563.598	27
563.793	27.22
563.989	27.3
564.185	27.25
564.381	27.35
564.576	27.26
564.772	27.38
564.968	27.4
565.163	27.38
565.359	27.65
565.555	27.79
565.75	28.06
565.946	28.01
566.141	27.96
566.337	28.14
566.532	28.21
566.728	28.33
566.923	28.11
567.119	28.15
567.314	28.18
567.51	28
567.705	27.88
567.901	27.84
568.096	27.93
568.292	28.18
568.487	28.21
568.682	28.25
568.878	28.48
569.073	28.7
569.268	28.87
569.464	28.94
569.659	29.15
569.854	29.3
570.05	29.48
570.245	29.53
570.44	29.38
570.635	29.33
570.831	29.39
571.026	29.13
571.221	29.22
571.416	29.3
571.611	29.41
571.806	29.26
572.002	29.48
572.197	29.53
572.392	29.4
572.587	29.44
572.782	29.55
572.977	29.53
573.172	29.58
573.367	29.55
573.562	29.48
573.757	29.49
573.952	29.51
574.147	29.3
574.342	29.42
574.537	29.58
574.732	29.64
574.927	29.46
575.121	29.55
575.316	29.68
575.511	29.9
575.706	30.05
575.901	30.09
576.096	30.16
576.29	30.2
576.485	29.81
576.68	29.86
576.875	30.15
577.069	30.19
577.264	30.21
577.459	30.23
577.654	30.04
577.848	29.85
578.043	29.89
578.238	29.99
578.432	30.07
578.627	30.23
578.821	30.32
579.016	30.19
579.21	30.42
579.405	30.51
579.6	30.53
579.794	30.43
579.989	30.59
580.183	30.28
580.378	29.97
580.572	29.93
580.766	30.02
580.961	29.81
581.155	29.61
581.35	29.7
581.544	29.8
581.738	29.61
581.933	29.61
582.127	29.6
582.321	29.86
582.516	29.71
582.71	29.63
582.904	29.43
583.099	29.64
583.293	29.85
583.487	29.94
583.681	29.59
583.875	29.68
584.07	29.5
584.264	29.63
584.458	29.61
584.652	29.9
584.846	30.02
585.04	30.11
585.234	29.97
585.428	29.94
585.623	29.91
585.817	30.33
586.011	30.31
586.205	30.37
586.399	30.23
586.593	30.03
586.787	30.09
586.981	30.19
587.174	30.31
587.368	30.03
587.562	29.82
587.756	29.42
587.95	29.29
588.144	29.42
588.338	29.64
588.532	29.59
588.725	30.04
588.919	30.33
589.113	30.3
589.307	30.41
589.501	30.76
589.694	31.02
589.888	31.35
590.082	31.34
590.275	31.32
590.469	31.25
590.663	31.26
590.856	31.16
591.05	31.11
591.244	31.16
591.437	31.07
591.631	31.13
591.824	31.15
592.018	31.08
592.212	31.32
592.405	31.54
592.599	31.43
592.792	31.43
592.986	31.43
593.179	31.65
593.372	31.64
593.566	31.78
593.759	31.81
593.953	31.82
594.146	31.86
594.339	31.53
594.533	31.41
594.726	31.61
594.92	31.86
595.113	31.98
595.306	31.64
595.499	31.57
595.693	31.69
595.886	31.64
596.079	31.62
596.272	31.75
596.466	31.83
596.659	31.88
596.852	32.12
597.045	31.92
597.238	31.85
597.431	31.92
597.624	32.01
597.818	32.02
598.011	31.86
598.204	31.97
598.397	31.96
598.59	32.06
598.783	32.06
598.976	31.94
599.169	32.31
599.362	32.3
599.555	32.36
599.748	32.43
599.941	32.08
600.134	32.49
600.326	32.35
600.519	32.02
600.712	31.93
600.905	31.86
601.098	31.66
601.291	31.33
601.483	31.46
601.676	31.21
601.869	31.24
602.062	31.42
602.255	30.99
602.447	31.05
602.64	31.62
602.833	31.58
603.025	31.62
603.218	31.62
603.411	31.69
603.603	31.68
603.796	31.74
603.989	31.78
604.181	31.88
604.374	32.22
604.566	32.15
604.759	31.75
604.951	31.99
605.144	32.1
605.336	32.23
605.529	32.38
605.721	32.2
605.914	32.42
606.106	32.41
606.299	32.28
606.491	32.24
606.683	32.23
606.876	32.37
607.068	32.24
607.26	32.1
607.453	32.21
607.645	32.16
607.837	32.31
608.03	32.35
608.222	32.44
608.414	32.7
608.606	32.7
608.799	32.82
608.991	33.02
609.183	33.09
609.375	33.39
609.567	33.34
609.759	33.27
609.952	33.58
610.144	33.79
610.336	34.13
610.528	34.27
610.72	34.38
610.912	34.62
611.104	34.72
611.296	34.75
611.488	34.73
611.68	34.6
611.872	34.79
612.064	34.74
612.256	34.26
612.448	33.84
612.64	33.67
612.832	33.24
613.023	32.99
613.215	32.47
613.407	32.46
613.599	32.2
613.791	32.07
613.983	32
614.174	32.02
614.366	32.43
614.558	32.2
614.75	32.03
614.941	32.26
615.133	32.22
615.325	32.58
615.516	32.59
615.708	32.81
615.9	32.92
616.091	32.84
616.283	32.63
616.475	32.71
616.666	33
616.858	33.23
617.049	33.33
617.241	33.55
617.432	33.58
617.624	33.47
617.815	33.17
618.007	33.29
618.198	33.33
618.39	33.24
618.581	33
618.773	32.92
618.964	32.85
619.155	33.03
619.347	32.75
619.538	32.54
619.729	32.81
619.921	32.96
620.112	32.89
620.303	32.65
620.494	32.97
620.686	32.88
620.877	33.02
621.068	32.94
621.259	32.87
621.451	32.95
621.642	33.16
621.833	32.87
622.024	32.81
622.215	32.9
622.406	33.32
622.597	32.88
622.788	32.95
622.98	32.62
623.171	32.75
623.362	32.41
623.553	32.51
623.744	32.54
623.935	32.52
624.126	32.74
624.317	32.45
624.508	32.49
624.698	32.62
624.889	32.36
625.08	32.58
625.271	32.54
625.462	32.61
625.653	32.62
625.844	32.41
626.034	32.63
626.225	32.4
626.416	32.74
626.607	32.62
626.798	32.78
626.988	33.12
627.179	33.31
627.37	33.39
627.56	33.65
627.751	33.56
627.942	33.82
628.132	33.62
628.323	33.74
628.514	33.7
628.704	33.82
628.895	33.61
629.085	33.43
629.276	33.43
629.466	33.67
629.657	33.32
629.847	33.39
630.038	33.11
630.228	33.21
630.419	33.28
630.609	33.23
630.8	33.03
630.99	33.11
631.181	33.18
631.371	32.96
631.561	32.38
631.752	32.41
631.942	32.57
632.132	32.72
632.323	32.63
632.513	32.72
632.703	32.82
632.893	32.84
633.084	32.88
633.274	32.84
633.464	33.07
633.654	33.34
633.844	33.55
634.034	33.2
634.225	33.12
634.415	33.34
634.605	33.1
634.795	32.89
634.985	33.17
635.175	33.36
635.365	33.34
635.555	33.05
635.745	32.74
635.935	32.61
636.125	32.88
636.315	32.72
636.505	32.86
636.695	32.88
636.885	32.76
637.075	32.61
637.265	32.52
637.455	32.64
637.644	32.73
637.834	33.12
638.024	33.26
638.214	33.32
638.404	33.65
638.593	33.23
638.783	33.25
638.973	33.34
639.163	33.06
639.352	32.86
639.542	32.51
639.732	32.85
639.921	32.67
640.111	32.45
640.301	32
640.49	31.81
640.68	32.27
640.87	32.55
641.059	33.08
641.249	33.27
641.438	33.44
641.628	33.63
641.817	33.43
642.007	33.33
642.196	33.51
642.386	33.81
642.575	33.74
642.764	33.83
642.954	33.67
643.143	33.42
643.333	33.41
643.522	33.16
643.711	33.17
643.901	33.29
644.09	33.33
644.279	33.43
644.469	33.7
644.658	33.51
644.847	32.9
645.036	32.78
645.226	32.58
645.415	32.74
645.604	32.81
645.793	32.87
645.982	32.39
646.171	32.25
646.361	32
646.55	31.5
646.739	31.77
646.928	31.64
647.117	31.98
647.306	32
647.495	31.84
647.684	32.19
647.873	32.31
648.062	32.49
648.251	32.62
648.44	32.36
648.629	32.74
648.818	33.2
649.007	33.69
649.196	32.86
649.384	32.9
649.573	32.91
649.762	32.89
649.951	32.86
650.14	32.58
650.328	32.43
650.517	32.94
650.706	32.56
650.895	31.94
651.083	31.83
651.272	32.46
651.461	32.63
651.65	32.44
651.838	32.87
652.027	32.94
652.216	33.28
652.404	33.63
652.593	33.39
652.781	33.38
652.97	33.71
653.158	33.87
653.347	33.86
653.535	33.68
653.724	34.22
653.912	33.42
654.101	33.39
654.289	33.25
654.478	33.09
654.666	33.49
654.855	33.88
655.043	33.7
655.231	33.65
655.42	33.55
655.608	33.43
655.796	32.82
655.985	33.15
656.173	32.8
656.361	33.25
656.55	33.13
656.738	33.24
656.926	33.67
657.114	33.62
657.302	33.32
657.491	33.41
657.679	33.39
657.867	33.59
658.055	33.53
658.243	33.44
658.431	33.08
658.619	33.49
658.807	33.41
658.996	32.93
659.184	33.2
659.372	33.47
659.56	33.21
659.748	33.37
659.936	33.38
660.124	33.47
660.311	33.94
660.499	34.1
660.687	33.79
660.875	33.47
661.063	33.31
661.251	33.5
661.439	33.38
661.627	33.66
661.814	33.94
662.002	34.12
662.19	33.92
662.378	33.97
662.565	33.91
662.753	34.21
662.941	34.51
663.129	34.81
663.316	34.48
663.504	34.41
663.692	34.63
663.879	34.42
664.067	34.11
664.254	34.32
664.442	34.43
664.63	34.48
664.817	34.08
665.005	33.85
665.192	33.88
665.38	33.65
665.567	33.75
665.755	33.66
665.942	32.89
666.13	33.14
666.317	32.83
666.504	32.05
666.692	32.26
666.879	32.81
667.067	32.8
667.254	32.65
667.441	32.93
667.629	32.81
667.816	32.66
668.003	33.3
668.19	33.11
668.378	33.69
668.565	34.26
668.752	34.11
668.939	33.94
669.127	34.02
669.314	33.64
669.501	33.88
669.688	34.17
669.875	34.06
670.062	34.07
670.249	34.3
670.436	34.46
670.623	33.97
670.81	34.04
670.997	34.01
671.184	34.11
671.371	34.52
671.558	34.16
671.745	34.08
671.932	34.04
672.119	33.45
672.306	33.05
672.493	32.9
672.68	33.34
672.867	32.79
673.054	32.31
673.24	32.29
673.427	32.34
673.614	32.9
673.801	32.94
673.988	32.82
674.174	33.54
674.361	34.09
674.548	33.93
674.734	34.26
674.921	34.46
675.108	34.62
675.294	34.53
675.481	34.54
675.668	33.85
675.854	33.42
676.041	33.35
676.227	32.85
676.414	32.33
676.601	31.82
676.787	31.84
676.974	32.06
677.16	32.04
677.347	32.07
677.533	32.16
677.719	32.38
677.906	32.3
678.092	32.91
678.279	33.42
678.465	33.26
678.651	33.21
678.838	33.05
679.024	33.26
679.21	33.55
679.397	33.76
679.583	33.25
679.769	33.17
679.955	33.63
680.142	33.78
680.328	33.67
680.514	33.87
680.7	34.16
680.886	34.02
681.073	33.72
681.259	33.31
681.445	32.77
681.631	32.9
681.817	32.63
682.003	32.31
682.189	31.73
682.375	31.59
682.561	31.69
682.747	31.42
682.933	31.18
683.119	31.07
683.305	31.22
683.491	31.5
683.677	32.09
683.863	32.71
684.049	32.93
684.235	32.94
684.42	33.13
684.606	33.32
684.792	33.42
684.978	33.17
685.164	33.59
685.349	34
685.535	33.95
685.721	33.94
685.907	33.28
686.092	33.6
686.278	33.81
686.464	33.44
686.649	32.76
686.835	33.14
687.021	33.65
687.206	33.27
687.392	32.83
687.577	33.34
687.763	33.29
687.948	33.43
688.134	33.49
688.319	33.07
688.505	33.25
688.69	33.73
688.876	33.54
689.061	33.62
689.247	33.65
689.432	33.66
689.618	33.32
689.803	33.15
689.988	33.18
690.174	32.91
690.359	32.95
690.544	33.02
690.73	33.21
690.915	33.35
691.1	32.99
691.285	32.65
691.471	32.87
691.656	32.97
691.841	32.87
692.026	32.15
692.211	31.47
692.396	31.83
692.582	31.69
692.767	31.7
692.952	31.36
693.137	31.41
693.322	31.63
693.507	31.56
693.692	31.7
693.877	31.57
694.062	32.65
694.247	33.42
694.432	33.94
694.617	34.03
694.802	33.61
694.987	33.75
695.172	34.17
695.357	34.46
695.541	35.12
695.726	34.93
695.911	35.53
696.096	35.84
696.281	35.87
696.466	35.33
696.65	35.24
696.835	35.4
697.02	35.27
697.204	34.99
697.389	34.87
697.574	34.02
697.759	34.17
697.943	33.88
698.128	33.67
698.312	33.31
698.497	33.48
698.682	33.63
698.866	33.55
699.051	33.44
699.235	33.88
699.42	34.05
699.604	34.57
699.789	34.57
699.973	34.38
700.158	34.33
700.342	34.42
700.527	34.58
700.711	34.71
700.895	34.42
701.08	34.31
701.264	33.8
701.448	33.63
701.633	33.22
701.817	33.18
702.001	33.14
702.186	33.38
702.37	33.38
702.554	33.03
702.738	32.67
702.923	33.22
703.107	33.47
703.291	33.23
703.475	32.64
703.659	32.43
703.843	32.11
704.027	32.83
704.212	32.15
704.396	31.99
704.58	31.97
704.764	32.65
704.948	32.24
705.132	32.36
705.316	33.05
705.5	33.57
705.684	34.2
705.868	34.54
706.052	33.73
706.235	33.13
706.419	33.47
706.603	33.53
706.787	32.67
706.971	32.84
707.155	32.84
707.339	32.44
707.522	32.95
707.706	32.11
707.89	31.74
708.074	32.01
708.257	33.24
708.441	32.68
708.625	32.63
708.808	33.39
708.992	33.37
709.176	33.13
709.359	32.71
709.543	32.56
709.727	33.14
709.91	33.07
710.094	32.43
710.277	32.65
710.461	32.77
710.644	32.71
710.828	32.35
711.011	32.09
711.195	32.38
711.378	32.71
711.562	32.25
711.745	32.18
711.928	32.96
712.112	33.45
712.295	32.58
712.478	33.15
712.662	33.02
712.845	32.64
713.028	32.63
713.212	32.81
713.395	32.62
713.578	32.35
713.761	32.68
713.945	32.33
714.128	32.13
714.311	32.63
714.494	32.45
714.677	31.55
714.86	32.02
715.043	32.32
715.227	31.69
715.41	32.12
715.593	32.08
715.776	31.49
715.959	31.29
716.142	32.05
716.325	31.56
716.508	31.21
716.691	31.92
716.874	31.97
717.057	31.83
717.239	31.91
717.422	31.67
717.605	31.76
717.788	31.32
717.971	31.14
718.154	30.62
718.337	30.79
718.519	31.07
718.702	31.46
718.885	31.3
719.068	31.06
719.25	30.8
719.433	30.99
719.616	31.15
719.798	31.93
719.981	31.78
720.164	31.84
720.346	31.73
720.529	30.67
720.712	30.55
720.894	30.97
721.077	31.47
721.259	31.27
721.442	30.71
721.624	30.58
721.807	30.47
721.989	30.71
722.172	30.48
722.354	30.73
722.537	31.62
722.719	31.94
722.901	31.95
723.084	32.12
723.266	32.64
723.448	32.96
723.631	33.3
723.813	32.63
723.995	32.18
724.178	32.05
724.36	32.17
724.542	32.31
724.724	31.33
724.907	30.69
725.089	30.04
725.271	30.75
725.453	30.71
725.635	30.28
725.817	30.88
725.999	31.34
726.181	32.36
726.364	32.37
726.546	32.44
726.728	32.43
726.91	32.22
727.092	32.21
727.274	32.2
727.456	32.47
727.638	33.22
727.819	33.57
728.001	33.5
728.183	32.39
728.365	32.74
728.547	32.14
728.729	31.71
728.911	31.42
729.093	31.93
729.274	31.29
729.456	30.98
729.638	31.09
729.82	30.36
730.001	30.83
730.183	31.68
730.365	31.35
730.546	31.92
730.728	33
730.91	33.56
731.091	32.31
731.273	32.53
731.455	32.72
731.636	32.21
731.818	33.15
731.999	32.97
732.181	32.7
732.362	32.03
732.544	31.84
732.725	31.68
732.907	31.41
733.088	31.96
733.27	32.42
733.451	31.83
733.633	31.9
733.814	31.41
733.995	31.17
734.177	30.9
734.358	31.68
734.539	31.63
734.721	31.58
734.902	31.72
735.083	31.71
735.264	31.06
735.446	32.55
735.627	32.93
735.808	32.55
735.989	31.35
736.17	31.68
736.351	30.77
736.533	31.21
736.714	30.38
736.895	30.24
737.076	31.14
737.257	31.73
737.438	30.53
737.619	29.53
737.8	30.34
737.981	30.86
738.162	30.48
738.343	30.88
738.524	31.27
738.705	32.54
738.886	31.96
739.067	30.39
739.247	29.62
739.428	29.16
739.609	29.81
739.79	29.36
739.971	30.9
740.151	31.35
740.332	31.37
740.513	30.84
740.694	30.48
740.874	31.43
741.055	31.44
741.236	32.09
741.417	32.96
741.597	33.53
741.778	33.23
741.958	32.05
742.139	31.98
742.32	32.1
742.5	31.42
742.681	32.56
742.861	31.31
743.042	31.43
743.222	31.15
743.403	29.94
743.583	29.77
743.764	30.43
743.944	30.48
744.124	29.77
744.305	30.47
744.485	30.55
744.666	28.39
744.846	28.78
745.026	29.27
745.207	28.72
745.387	29.53
745.567	28.42
745.747	27.81
745.928	28.58
746.108	28.4
746.288	28.61
746.468	29.28
746.648	30.58
746.829	30.32
747.009	30.99
747.189	31.24
747.369	30.76
747.549	31.61
747.729	31.32
747.909	29.96
748.089	31.06
748.269	30.39
748.449	30.31
748.629	30.6
748.809	31.28
748.989	30.76
749.169	31.57
749.349	32.05
749.529	31.15
749.709	31.94
749.889	32.33
750.068	31.66
750.248	30.52
750.428	29.8
750.608	28.92
750.788	29.59
750.967	30.02
751.147	29.66
751.327	30.09
751.507	30.99
751.686	30.74
751.866	30.71
752.046	30.64
752.225	31.6
752.405	31.93
752.585	33.22
752.764	32.62
752.944	32.58
753.123	32.76
753.303	31.17
753.482	29.67
753.662	29.02
753.841	29.22
754.021	29.53
754.2	29.16
754.38	29.06
754.559	27.32
754.739	26.16
754.918	25.66
755.097	24.2
755.277	25.62
755.456	27.03
755.635	27.02
755.815	26.47
755.994	27.24
756.173	27.43
756.352	27.57
756.532	28.34
756.711	28.59
756.89	28.06
757.069	28.15
757.248	26.89
757.427	26.32
757.607	26.5
757.786	27.44
757.965	26.49
758.144	26.26
758.323	26.13
758.502	27.37
758.681	28.1
758.86	29.5
759.039	29.1
759.218	30.38
759.397	31.39
759.576	31.72
759.755	31.08
759.934	31.91
760.113	32.32
760.291	33.15
760.47	32.43
760.649	32.46
760.828	31.87
761.007	33.05
761.186	32.96
761.364	32.11
761.543	32.79
761.722	32.93
761.901	32.25
762.079	32.24
762.258	31.5
762.437	31.87
762.615	31.42
762.794	32.16
762.972	31.84
763.151	31.76
763.33	31.96
763.508	32.04
763.687	31.89
763.865	31.94
764.044	31.36
764.222	31.18
764.401	30.33
764.579	31.7
764.758	31.07
764.936	31.38
765.114	31.74
765.293	31.13
765.471	31.84
765.65	31.58
765.828	31.65
766.006	32.76
766.184	32.89
766.363	33.07
766.541	32.47
766.719	33.09
766.898	32.63
767.076	31.38
767.254	31.71
767.432	30.47
767.61	30.79
767.788	29.8
767.967	28.74
768.145	28.19
768.323	28.02
768.501	28.79
768.679	27.91
768.857	27.07
769.035	28.9
769.213	30.44
769.391	28.75
769.569	29.34
769.747	29.67
769.925	29.59
770.103	29.98
770.281	28.37
770.459	25.99
770.636	26.29
770.814	28.27
770.992	27.39
771.17	25.08
771.348	24.56
771.525	25.53
771.703	25.05
771.881	25.33
772.059	26.12
772.236	26.15
772.414	25.4
772.592	25.56
772.769	23.67
772.947	23.76
773.125	24.95
773.302	26.84
773.48	23.95
773.657	25.74
773.835	28.27
774.013	26.14
774.19	27.15
774.368	29.04
774.545	27.13
774.723	26.14
774.9	26.04
775.077	24.34
775.255	24.98
775.432	25.52
775.61	24.7
775.787	20.51
775.964	22.08
776.142	22.68
776.319	22.36
776.496	24.83
776.674	26.88
776.851	27.22
777.028	27.94
777.205	25.74
777.382	25.76
777.56	24.33
777.737	25.45
777.914	24.21
778.091	24.34
778.268	23.55
778.445	22.48
778.622	23.7
778.8	22.56
778.977	24.33
779.154	25.23
779.331	24.9
779.508	27.07
779.685	26.21
779.862	27.45
780.038	27.39
780.215	27.96
780.392	27.29
780.569	24.32
780.746	25.25
780.923	22.74
781.1	22.31
781.277	24.25
781.453	23.14
781.63	24.41
781.807	25.15
781.984	26.11
782.16	25.77
782.337	26.8
782.514	26.7
782.691	26.55
782.867	26.34
783.044	26.82
783.221	25.38
783.397	24.6
783.574	21.79
783.75	20.46
783.927	22.13
784.103	23.19
784.28	22.59
784.456	24.93
784.633	22.23
784.809	25.77
784.986	25.98
785.162	24.77
785.339	26.89
785.515	27.47
785.692	30.4
785.868	26.06
786.044	25.15
786.221	24.38
786.397	21.68
786.573	23.86
786.749	20.85
786.926	19.79
787.102	19.63
787.278	20.94
787.454	22.84
787.631	20.4
787.807	20.66
787.983	19.35
788.159	19.81
788.335	18.61
788.511	21.31
788.687	21.45
788.863	22.96
789.039	25.07
789.216	22.84
789.392	22.47
789.568	21.07
789.744	22.18
789.919	22.67
790.095	23.74
790.271	28.09
790.447	24.35
790.623	26.59
790.799	29.1
790.975	27.98
791.151	27.27
791.327	29.81
791.502	30.99
791.678	31.77
791.854	31.6
792.03	29.19
792.205	28.32
792.381	27.07
792.557	25.83
792.733	23.83
792.908	26.61
793.084	24.14
793.259	20.61
793.435	20.79
793.611	22.68
793.786	23.54
793.962	26.16
794.137	25.05
794.313	27.14
794.488	28.13
794.664	27.19
794.839	23.61
795.015	26.62
795.19	28.44
795.366	27.89
795.541	26.14
795.716	26.39
795.892	25.82
796.067	25.2
796.242	27.63
796.418	26.51
796.593	26.32
796.768	26.52
796.944	27.3
797.119	28.21
797.294	28.52
797.469	31.72
797.644	30.75
797.82	29.72
797.995	30.6
798.17	27.56
798.345	26.44
798.52	24.62
798.695	25.51
798.87	25.17
799.045	24.27
799.22	23.5
799.395	19.86
799.57	24.92
799.745	24.91
799.92	26.41
800.095	26.64
800.27	26.65
800.445	27.31
800.62	26.81
800.795	25.58
800.97	25.99
801.145	27.07
801.319	24.58
801.494	20.13
801.669	20.98
801.844	20.06
802.018	20.33
802.193	22.67
802.368	21.73
802.543	21.59
802.717	24.09
802.892	23.95
803.067	22.87
803.241	26.45
803.416	26.61
803.59	26.04
803.765	27.62
803.94	24.18
804.114	20.41
804.289	22.43
804.463	21.07
804.638	17.6
804.812	16.01
804.986	20.98
805.161	18.5
805.335	16.73
805.51	18.33
805.684	13.71
805.858	17.86
806.033	20.45
806.207	20.4
806.381	23.73
806.556	23.74
806.73	25.99
806.904	22.14
807.078	23.8
807.253	23.78
807.427	22.24
807.601	25.19
807.775	23.35
807.949	23.02
808.123	22.96
808.298	22.05
808.472	23.79
808.646	21.28
808.82	21.06
808.994	18.51
809.168	19.66
809.342	19.24
809.516	21.42
809.69	19.53
809.864	17.23
810.038	17.83
810.212	18.39
810.385	17.47
810.559	20.23
810.733	19.16
810.907	18.76
811.081	20.78
811.255	19.73
811.428	17.06
811.602	22.72
811.776	27.17
811.95	26.42
812.123	27
812.297	27.47
812.471	26.2
812.644	28.34
812.818	28.3
812.992	21.21
813.165	19.82
813.339	18.45
813.512	12.38
813.686	15.78
813.86	18.71
814.033	15.74
814.207	17.36
814.38	20.17
814.554	20.56
814.727	21.53
814.9	25.37
815.074	29.32
815.247	27.56
815.421	31.55
815.594	24.33
815.767	21.69
815.941	21.65
816.114	19.35
816.287	15.68
816.46	9.77
816.634	11.08
816.807	8.15
816.98	5.21
817.153	9.68
817.327	7.52
817.5	5.63
817.673	6.93
817.846	6.93
818.019	8.84
818.192	7.64
818.365	14.84
818.538	16.98
818.711	17.92
818.884	17.97
819.057	8.86
819.23	6
819.403	11.75
819.576	9.47
819.749	11.57
819.922	11.86
820.095	15.3
820.268	14.46
820.441	13.09
820.614	18.81
820.786	20.52
820.959	26.7
821.132	26.87
821.305	27.87
821.477	30.6
821.65	30.94
821.823	31.5
821.996	31.46
822.168	31.22
822.341	32.19
822.514	32.05
822.686	32.44
822.859	32.3
823.031	33.7
823.204	32.83
823.376	32.42
823.549	32.85
823.722	32.8
823.894	32.41
824.067	32.61
824.239	31.79
824.411	32.03
824.584	31.71
824.756	31.4
824.929	30.59
825.101	31.45
825.273	31.54
825.446	30.3
825.618	29.58
825.79	30.16
825.963	29.39
826.135	29.46
826.307	28.6
826.479	28.26
826.652	28.4
826.824	28.18
826.996	27.43
827.168	27.38
827.34	27.88
827.512	28.15
827.684	27.69
827.856	28.38
828.029	27.84
828.201	28.09
828.373	28.43
828.545	28.4
828.717	28.61
828.889	28.28
829.061	28.25
829.232	27.64
829.404	28.28
829.576	27.83
829.748	27.9
829.92	27.68
830.092	27.71
830.264	24.96
830.436	24.21
830.607	20.91
830.779	19.96
830.951	17.22
831.123	17.54
831.294	14.38
831.466	13.7
831.638	12.68
831.809	12.38
831.981	13.21
832.153	17.53
832.324	15.01
832.496	16.48
832.667	14.96
832.839	15.92
833.011	16.06
833.182	18.33
833.354	17.55
833.525	17.71
833.697	19.63
833.868	18.35
834.039	19.08
834.211	21.79
834.382	22.91
834.554	26.83
834.725	28.67
834.896	28.25
835.068	29.3
835.239	30.08
835.41	31.99
835.581	30.85
835.753	31.22
835.924	30.04
836.095	28.93
836.266	31.24
836.438	30.27
836.609	27.34
836.78	26.3
836.951	23.08
837.122	20.61
837.293	18.32
837.464	19.94
837.635	17.43
837.806	16.53
837.977	14.71
838.148	13.39
838.319	10.49
838.49	16.13
838.661	15.66
838.832	10.25
839.003	11.3
839.174	4.48
839.345	1.51
839.516	-3.52
839.687	-7.21
839.857	-1.72
840.028	0.4
840.199	1.82
840.37	-2.91
840.54	2.45
840.711	12.95
840.882	12.88
841.053	13.68
841.223	14
841.394	20.78
841.564	22.73
841.735	23.33
841.906	17.62
842.076	11.79
842.247	12.79
842.417	9.07
842.588	6.56
842.758	5.22
842.929	4.9
843.099	-4.71
843.27	-13.3
843.44	-9.51
843.611	-14.51
843.781	-21.54
843.951	-13.28
844.122	-16.1
844.292	-24.12
844.462	-33.81
844.633	-19.89
844.803	-12.48
844.973	-4.96
845.144	-5.23
845.314	-23.51
845.484	-18.68
845.654	-9.92
845.824	-15.43
845.995	-22.05
846.165	-25.49
846.335	-13.68
846.505	-53.65
846.675	-57.34
846.845	-53.09
847.015	-53.18
847.185	-37.1
847.355	-53.65
847.525	-46.39
847.695	-60.4
847.865	-69.85
848.035	-55.24
848.205	-76.16
848.375	-49.83
848.545	-75.61
848.715	-83.14
848.884	-106.95
849.054	-162.47
849.224	-171.01
849.394	-201.87
849.564	-169.85
849.733	-107.62
849.903	-120.12
850.073	-89.75
850.243	-91.89
850.412	-66.39
850.582	-92.22
850.752	-118.84
850.921	-66.93
851.091	-56.32
851.26	-52.85
851.43	-49.6
851.599	-87.65
851.769	-71.14
851.939	-96.73
852.108	-158.6
852.278	-167.17
852.447	-125.45
852.616	-57.52
852.786	-72.2
852.955	-79.12
853.125	-103.45
853.294	-114.39
853.463	-140.33
853.633	-192.36
853.802	-201.72
853.971	-174.5
854.141	-156.36
854.31	-218.62
854.479	-303.54
854.648	-354.52
854.818	-352.44
854.987	-292.79
855.156	-299.33
855.325	-204.52
855.494	-204.02
855.663	-201.39
855.832	-259.81
856.001	-246.98
856.171	-183.38
856.34	-152.71
856.509	-138.23
856.678	-135.01
856.847	-92.4
857.016	-118.37
857.185	-118.33
857.353	-58.11
857.522	-64.45
857.691	-19.33
857.86	-42.4
858.029	-15.9
858.198	-33.8
858.367	-35.99
858.535	-51.31
858.704	-84.79
858.873	-52.41
859.042	-52.94
859.21	-90.75
859.379	-66.28
859.548	-87.36
859.717	-87.66
859.885	-94.58
860.054	-73.52
860.222	-83.79
860.391	-56.83
860.56	-28.86
860.728	-36.82
860.897	-29.06
861.065	-27.12
861.234	-36.07
861.402	-34.27
861.571	-31.51
861.739	-36.82
861.908	-40.87
862.076	-28.24
862.244	-28.77
862.413	-47.32
862.581	-57.18
862.749	-131.43
862.918	-179.03
863.086	-164.78
863.254	-212.41
863.423	-338.4
863.591	-195.55
863.759	-382.92
863.927	-513.66
864.096	-2682.32
864.264	779.45
864.432	1539.14
864.6	-2811.09
864.768	-990.78
864.936	-454.21
865.104	-259.74
865.272	-154.59
865.44	-300.17
865.608	-166.1
865.776	-251.66
865.944	-235.32
866.112	-101.46
866.28	-74.38
866.448	-72.3
866.616	-66.98
866.784	-43.66
866.952	-58.24
867.12	-53.68
867.288	-30.16
867.455	-33.1
867.623	-36.82
867.791	-25.91
867.959	-47.29
868.127	-55.57
868.294	-57.97
868.462	-70.33
868.63	-129.18
868.797	-204.9
868.965	-438.1
869.133	-367.69
869.3	-459.12
869.468	-215.85
869.636	-140.48
869.803	-177.66
869.971	-141.8
870.138	-101.06
870.306	-89.32
870.473	-66.91
870.641	-36.9
870.808	-29.81
870.975	-49.1
871.143	-24.25
871.31	-47.11
871.478	-196.33
871.645	-65.57
871.812	-81.08
871.98	-108.45
872.147	-148.84
872.314	-121
872.482	-176.61
872.649	-282.44
872.816	-111.6
872.983	-343.42
873.15	-134.23
873.318	-106.42
873.485	-186.16
873.652	-166.32
873.819	-118.25
873.986	-65.61
874.153	-72.01
874.32	-61.41
874.487	-32.24
874.654	-63.03
874.821	-49.06
874.988	-47.41
875.155	-15.29
875.322	-10.16
875.489	-12.32
875.656	-6.22
875.823	-22.77
875.99	-27.6
876.157	-26.79
876.324	-33.7
876.49	-24.19
876.657	-20.77
876.824	-30.61
876.991	-60.49
877.157	-60.77
877.324	-52.54
877.491	-35.83
877.658	-44.24
877.824	-49.54
877.991	-53.8
878.157	-37.66
878.324	-50.78
878.491	-42.07
878.657	-55.38
878.824	-56.69
878.99	-70.84
879.157	-95.09
879.323	-98.75
879.49	-76.49
879.656	-44.97
879.823	-32.11
879.989	-30.16
880.156	-47.38
880.322	-54.03
880.488	-32.65
880.655	-19.77
880.821	-35.66
880.987	-11.08
881.154	-1.54
881.32	-5.7
881.486	-7.94
881.652	-4.85
881.819	1.6
881.985	10.25
882.151	11.43
882.317	9.85
882.483	8.08
882.649	14.41
882.816	11.28
882.982	14.04
883.148	18.72
883.314	20.17
883.48	20.21
883.646	20.4
883.812	22.54
883.978	23.58
884.144	25.64
884.31	26.86
884.476	26.78
884.642	28.27
884.807	27.14
884.973	27.63
885.139	28.46
885.305	30.38
885.471	31.12
885.637	30.45
885.802	31.72
885.968	31.2
886.134	30.26
886.3	28.87
886.465	27.72
886.631	27.73
886.797	27.92
886.962	28.68
887.128	25.67
887.293	24.68
887.459	23.36
887.625	16.67
887.79	16.06
887.956	20.26
888.121	25.11
888.287	25.27
888.452	31.03
888.618	17.01
888.783	-6.01
