Data from CB_102_Reflection_3.txt Node
Date: Sat Nov 14 17:51:37 EST 2015
User: robert
Spectrometer: USB4E03001
Autoset integration time: false
Trigger mode: 4
Integration Time (sec): 1.000000E-1
Scans to average: 15
Electric dark correction enabled: true
Nonlinearity correction enabled: false
Boxcar width: 5
Stray light correction enabled: false
XAxis mode: Wavelengths
Stop averaging: false
Number of Pixels in Spectrum: 3648
>>>>>Begin Spectral Data<<<<<
177.566	213.08
177.785	-1222.66
178.005	355.75
178.225	587.16
178.445	-2825.26
178.665	480.14
178.885	2135.05
179.105	129.93
179.324	73.45
179.544	23.45
179.764	32.51
179.984	43.53
180.204	-4.75
180.423	15.17
180.643	36.84
180.863	32.97
181.083	33.67
181.302	41.43
181.522	17.33
181.742	29.35
181.961	56.09
182.181	73.48
182.401	178.7
182.621	161.89
182.84	234.11
183.06	100.97
183.279	87.95
183.499	108.38
183.719	-27.87
183.938	-34.66
184.158	48.69
184.377	44.45
184.597	30.05
184.816	52.09
185.036	57.28
185.256	50.49
185.475	56.8
185.695	34.61
185.914	54.37
186.134	66.84
186.353	83.98
186.572	65.98
186.792	71.52
187.011	70.4
187.231	54.28
187.45	58.6
187.67	55.39
187.889	64.97
188.108	92.19
188.328	98.72
188.547	110.71
188.766	111.35
188.986	101.94
189.205	100.39
189.424	83.4
189.644	81.31
189.863	82.51
190.082	86.38
190.302	39.04
190.521	12.18
190.74	10.15
190.959	-40.63
191.178	-43.76
191.398	-89.8
191.617	-104.52
191.836	-72.17
192.055	-49.24
192.274	-76.6
192.494	-56.13
192.713	-120.58
192.932	-67.17
193.151	-204.65
193.37	0.25
193.589	-4.67
193.808	96.39
194.027	139.55
194.246	-276.16
194.465	759.15
194.685	150.57
194.904	162.99
195.123	133.76
195.342	146.77
195.561	125.04
195.78	115.57
195.999	108.97
196.218	77.49
196.436	63.83
196.655	64.18
196.874	83.28
197.093	85.91
197.312	71.16
197.531	67
197.75	71.78
197.969	63.46
198.188	64.06
198.407	53.12
198.625	54.17
198.844	71.34
199.063	66.29
199.282	54.51
199.501	26.82
199.719	39.9
199.938	27.71
200.157	25.6
200.376	14.43
200.594	29.22
200.813	36.41
201.032	31.93
201.251	25.89
201.469	22.88
201.688	29.62
201.907	31.61
202.125	38.44
202.344	71.67
202.563	93.34
202.781	73.96
203	113.55
203.218	109.21
203.437	124.17
203.656	119.05
203.874	85.89
204.093	150.28
204.311	125.79
204.53	103.59
204.748	79.87
204.967	66.71
205.185	96.2
205.404	63.72
205.622	65.13
205.841	42.35
206.059	35.91
206.278	61.03
206.496	35.71
206.715	45.39
206.933	66.99
207.151	69.37
207.37	83.03
207.588	77.56
207.806	79.13
208.025	75.47
208.243	80.34
208.461	107.32
208.68	89.19
208.898	78.68
209.116	68.52
209.335	65.78
209.553	69.4
209.771	59.68
209.989	54.2
210.208	47.86
210.426	40.49
210.644	41.62
210.862	32.03
211.081	28.08
211.299	36.17
211.517	35.78
211.735	21.84
211.953	33.64
212.171	42.17
212.39	43.84
212.608	44.07
212.826	43.54
213.044	52.64
213.262	47.32
213.48	48.72
213.698	45.88
213.916	59.79
214.134	56.61
214.352	51.54
214.57	55
214.788	60.53
215.006	48.17
215.224	55.99
215.442	73.28
215.66	79.06
215.878	86.36
216.096	85.76
216.314	70.57
216.532	85.6
216.75	77.74
216.968	59.8
217.185	57.64
217.403	101
217.621	123.21
217.839	69.72
218.057	73.06
218.275	85.9
218.492	135.22
218.71	167.88
218.928	148.84
219.146	258.43
219.363	204.99
219.581	211.64
219.799	175.42
220.017	151.63
220.234	141.86
220.452	127.68
220.67	127.71
220.887	155.35
221.105	134.83
221.323	2318.4
221.54	-28.89
221.758	-600.36
221.976	-621.49
222.193	18.59
222.411	47.33
222.629	87.98
222.846	325.68
223.064	-343.5
223.281	390.49
223.499	253.92
223.716	450.35
223.934	-452.31
224.151	-145.03
224.369	-142.73
224.586	-62.45
224.804	-16.43
225.021	-14.24
225.239	-15.72
225.456	-26.18
225.674	-35.01
225.891	-34.2
226.108	-39.2
226.326	-59.05
226.543	-34.58
226.76	-18.8
226.978	-19.15
227.195	-27.94
227.413	-32.91
227.63	-11.77
227.847	-3.06
228.064	6.92
228.282	5.18
228.499	5.36
228.716	6.89
228.934	5.48
229.151	4.84
229.368	4.61
229.585	3.26
229.802	6.51
230.02	6.62
230.237	7.04
230.454	7.88
230.671	10.02
230.888	11.32
231.105	9.83
231.323	8.04
231.54	3.49
231.757	0.42
231.974	-1.91
232.191	-5.99
232.408	-14.61
232.625	-13.69
232.842	-17.87
233.059	-24.71
233.276	-24.9
233.493	-20.16
233.71	-0.55
233.927	7.6
234.144	5.37
234.361	-2.58
234.578	-0.96
234.795	6.43
235.012	1.84
235.229	-1.66
235.446	4.68
235.663	4.3
235.879	2.92
236.096	-9.7
236.313	-15.76
236.53	-6.98
236.747	-0.75
236.964	-7.62
237.181	-12.04
237.397	-9.86
237.614	-13.28
237.831	-13.39
238.048	-9.25
238.264	-15.38
238.481	-15.51
238.698	-2.66
238.915	2.92
239.131	8.75
239.348	7.59
239.565	11.82
239.781	12.13
239.998	10
240.215	7.3
240.431	2.58
240.648	8.49
240.865	11.27
241.081	8.29
241.298	6.32
241.514	6.69
241.731	10.21
241.947	9.5
242.164	9.19
242.38	11.56
242.597	12.06
242.814	14.74
243.03	13.61
243.246	13.5
243.463	13.01
243.679	12.5
243.896	12.78
244.112	11.64
244.329	10.9
244.545	12.63
244.762	13.24
244.978	15.82
245.194	11.7
245.411	9.65
245.627	9.4
245.843	8.12
246.06	7.37
246.276	6.21
246.492	6.78
246.709	6.36
246.925	5.98
247.141	4.57
247.357	4.11
247.574	3.68
247.79	5.04
248.006	5.37
248.222	5.7
248.439	5.67
248.655	5.78
248.871	5.91
249.087	7.19
249.303	6.78
249.519	7.95
249.736	6.87
249.952	8.72
250.168	8.05
250.384	6.07
250.6	6.7
250.816	7.05
251.032	6.26
251.248	3.9
251.464	-0.92
251.68	-2.87
251.896	-3.26
252.112	-4.69
252.328	-5.15
252.544	-7.61
252.76	-9.15
252.976	-11.22
253.192	-11.4
253.408	-11.69
253.624	-10.29
253.84	-7.89
254.056	-6.2
254.272	-8.05
254.487	-6.91
254.703	-4.45
254.919	-2.15
255.135	1.14
255.351	1.71
255.567	5.95
255.782	6.96
255.998	6.9
256.214	6.51
256.43	8.58
256.646	11.52
256.861	12.1
257.077	6.36
257.293	10.95
257.508	11.45
257.724	11.39
257.94	10.45
258.155	9.25
258.371	7.71
258.587	5.67
258.802	4.87
259.018	5.49
259.234	5.67
259.449	6.74
259.665	4.82
259.88	4.4
260.096	5.39
260.312	4.65
260.527	5.35
260.743	5.8
260.958	6.93
261.174	6.78
261.389	6.26
261.605	6.42
261.82	6.51
262.036	6.8
262.251	7.64
262.466	7.03
262.682	7.65
262.897	6.74
263.113	6.17
263.328	7.3
263.543	6.91
263.759	5.24
263.974	2.86
264.189	1.09
264.405	0.95
264.62	1.72
264.835	1.66
265.051	2.72
265.266	3
265.481	3.96
265.696	1.95
265.912	3.68
266.127	6.05
266.342	8.32
266.557	8.68
266.773	7.89
266.988	6.13
267.203	5.95
267.418	6.25
267.633	7.51
267.848	7.56
268.064	6.74
268.279	5.1
268.494	3.64
268.709	3.2
268.924	6.3
269.139	5.08
269.354	6.02
269.569	6.71
269.784	5.3
269.999	3.45
270.214	3.12
270.429	3.16
270.644	3.64
270.859	4.63
271.074	4.33
271.289	1.51
271.504	3.71
271.719	3.82
271.934	1.91
272.149	2.9
272.363	3.7
272.578	3.99
272.793	3.52
273.008	3.19
273.223	4.02
273.438	3.14
273.653	4.05
273.867	2.96
274.082	2.28
274.297	5.07
274.512	3.94
274.726	2.56
274.941	1.58
275.156	2.5
275.371	4.32
275.585	3.37
275.8	4.82
276.015	5.1
276.229	6.22
276.444	6.46
276.659	4.4
276.873	5.38
277.088	5.18
277.302	5.79
277.517	6.98
277.732	4.36
277.946	3.47
278.161	2.67
278.375	1.59
278.59	3.69
278.804	2.44
279.019	2.68
279.233	1.87
279.448	1.76
279.662	1.37
279.877	0.47
280.091	2.01
280.306	2.3
280.52	3.1
280.735	4.99
280.949	2.93
281.163	3.34
281.378	4.6
281.592	6.23
281.806	7.19
282.021	6.88
282.235	6.74
282.449	7.09
282.664	7.73
282.878	7.62
283.092	6.36
283.307	6.54
283.521	8.52
283.735	8.66
283.949	7.92
284.164	8.08
284.378	9.02
284.592	9.31
284.806	9.29
285.02	8.54
285.234	8.28
285.449	9.21
285.663	9.5
285.877	8.74
286.091	8.01
286.305	6.63
286.519	6.53
286.733	5.64
286.947	5.59
287.161	6.94
287.375	7.78
287.589	8.27
287.803	7.9
288.017	7.47
288.231	7.11
288.445	6.88
288.659	7.78
288.873	8.02
289.087	8.45
289.301	7.67
289.515	5.51
289.729	5.06
289.943	3.88
290.157	2.09
290.371	2.68
290.584	2.58
290.798	1.96
291.012	1.78
291.226	2.21
291.44	3.03
291.654	3.55
291.867	4.82
292.081	6.15
292.295	7.28
292.509	8.25
292.722	7.64
292.936	7.73
293.15	9.37
293.364	10.71
293.577	9.62
293.791	9.38
294.005	10.87
294.218	9.97
294.432	8.89
294.645	8.5
294.859	10.67
295.073	10.48
295.286	10.19
295.5	9.7
295.713	9.94
295.927	10.69
296.14	10.15
296.354	9.95
296.568	10
296.781	10.11
296.994	10.66
297.208	9.23
297.421	9.95
297.635	10.58
297.848	10.51
298.062	10.46
298.275	10.93
298.489	11.06
298.702	10.62
298.915	10.12
299.129	9.81
299.342	10.4
299.555	10.21
299.769	9.94
299.982	9.99
300.195	9.35
300.409	9.69
300.622	8.24
300.835	8.35
301.048	8.46
301.262	9.85
301.475	10.39
301.688	8.69
301.901	9.67
302.115	8.66
302.328	8.81
302.541	9.92
302.754	8.88
302.967	9.52
303.18	9.79
303.393	9.71
303.607	8.57
303.82	8.73
304.033	11.08
304.246	10.84
304.459	11.33
304.672	11.79
304.885	11.75
305.098	12.43
305.311	12.27
305.524	11.99
305.737	10.99
305.95	11.68
306.163	11.7
306.376	10.08
306.589	11.51
306.802	10.61
307.015	9.41
307.228	9.63
307.44	9.6
307.653	11.08
307.866	11.46
308.079	12.58
308.292	13.08
308.505	12.78
308.718	12.72
308.93	11.9
309.143	13.24
309.356	13.45
309.569	13.64
309.781	14.81
309.994	14.14
310.207	13.75
310.42	13.65
310.632	13.35
310.845	12.94
311.058	13.69
311.27	13.85
311.483	14.64
311.696	15.06
311.908	15
312.121	14.01
312.333	14.07
312.546	14.22
312.759	14.15
312.971	13.6
313.184	13.54
313.396	11.78
313.609	10.84
313.821	9.36
314.034	9.21
314.246	9.64
314.459	10.29
314.671	9.84
314.884	9.88
315.096	10.04
315.309	10.01
315.521	10.59
315.733	12.25
315.946	12.8
316.158	13.51
316.371	13.53
316.583	12.25
316.795	11.78
317.008	12.33
317.22	12.09
317.432	12.1
317.644	11.86
317.857	13.47
318.069	13.99
318.281	13.95
318.494	12.96
318.706	11.57
318.918	12.23
319.13	12.86
319.342	12.92
319.555	12.68
319.767	12.47
319.979	12.39
320.191	12.75
320.403	11.62
320.615	12.3
320.827	12.16
321.039	12.11
321.252	13.2
321.464	12.98
321.676	11.86
321.888	12.96
322.1	13.17
322.312	13.64
322.524	11.1
322.736	12.68
322.948	11.49
323.16	11.98
323.372	12.63
323.584	11.75
323.796	11.18
324.007	11.7
324.219	12.23
324.431	12.82
324.643	13.09
324.855	14.51
325.067	14.2
325.279	14.47
325.491	15.72
325.702	15.06
325.914	15.63
326.126	16.42
326.338	18.66
326.55	19.42
326.761	21.12
326.973	22.03
327.185	22.14
327.396	23.31
327.608	24.23
327.82	23.88
328.032	25.67
328.243	25.75
328.455	27.17
328.666	26.72
328.878	27.48
329.09	25.8
329.301	26.25
329.513	26.83
329.725	25.84
329.936	25.77
330.148	27.09
330.359	27.17
330.571	27.56
330.782	27.42
330.994	27.21
331.205	26.09
331.417	27.16
331.628	27.94
331.84	27.36
332.051	27.41
332.262	28.99
332.474	28.46
332.685	28.99
332.897	29.34
333.108	29.89
333.319	30.23
333.531	31.33
333.742	32.56
333.953	32.32
334.165	32.77
334.376	34.16
334.587	33.78
334.799	34.33
335.01	34.97
335.221	35.41
335.432	35.28
335.644	35.88
335.855	36.68
336.066	35.8
336.277	35.84
336.488	36.67
336.7	35.34
336.911	35.12
337.122	35.45
337.333	35.74
337.544	35.43
337.755	33.8
337.966	33.46
338.177	33.21
338.388	33.81
338.599	34.05
338.811	33.59
339.022	34.11
339.233	34.14
339.444	33.58
339.655	33.49
339.866	33.74
340.076	35.37
340.287	34.86
340.498	34.53
340.709	33.55
340.92	33.61
341.131	33.33
341.342	33.46
341.553	33.98
341.764	34.32
341.975	33.92
342.185	33.87
342.396	33
342.607	33.39
342.818	33.99
343.029	34.21
343.239	34.49
343.45	34.42
343.661	35.2
343.872	35.11
344.082	35.06
344.293	35.36
344.504	35.01
344.714	35.86
344.925	35.66
345.136	34.65
345.346	35.18
345.557	34.43
345.768	34.8
345.978	34.21
346.189	34.09
346.399	33.53
346.61	32.98
346.821	33.47
347.031	33.49
347.242	33.89
347.452	33.56
347.663	33.52
347.873	33.86
348.084	33.78
348.294	33.56
348.504	32.71
348.715	33.26
348.925	33.55
349.136	34.09
349.346	32.96
349.557	32.55
349.767	33.07
349.977	32.82
350.188	31.98
350.398	32.49
350.608	33.23
350.819	34.41
351.029	34.52
351.239	33.97
351.449	33.61
351.66	35.29
351.87	36.3
352.08	36.25
352.29	36.26
352.501	36.89
352.711	36.83
352.921	36.16
353.131	35.58
353.341	34.79
353.552	35.45
353.762	35.66
353.972	34.51
354.182	33.24
354.392	32.91
354.602	33.03
354.812	33.36
355.022	33.45
355.232	33.33
355.442	33.71
355.652	34.07
355.862	33.8
356.072	33.16
356.282	33.49
356.492	34.02
356.702	34.01
356.912	33.74
357.122	33.89
357.332	33.32
357.542	33.65
357.752	33.04
357.962	33.29
358.171	33.23
358.381	33.5
358.591	33.39
358.801	32.49
359.011	33.26
359.221	33.32
359.43	32.71
359.64	32.73
359.85	32.44
360.06	32.31
360.269	31.53
360.479	31.61
360.689	31.47
360.899	31.14
361.108	32
361.318	31.5
361.528	31.57
361.737	31.53
361.947	31.59
362.156	31.47
362.366	31.64
362.576	31.71
362.785	31.3
362.995	31.47
363.204	31.48
363.414	31.29
363.623	31.06
363.833	30.98
364.042	31.18
364.252	31.13
364.461	31.38
364.671	32.28
364.88	32.56
365.09	32.73
365.299	32.17
365.509	32.01
365.718	31.46
365.927	31.67
366.137	31.29
366.346	30.91
366.555	30.75
366.765	30.53
366.974	29.01
367.183	28.4
367.393	28.87
367.602	29.16
367.811	29.34
368.021	29.48
368.23	29.05
368.439	28.95
368.648	29.13
368.857	28.19
369.067	28.03
369.276	28.13
369.485	28.41
369.694	27.99
369.903	27.12
370.112	26.62
370.321	26.63
370.531	26.96
370.74	26.45
370.949	26.47
371.158	26.81
371.367	26.41
371.576	26.81
371.785	26.66
371.994	25.96
372.203	26.31
372.412	26.4
372.621	25.82
372.83	25.28
373.039	25.2
373.248	24.67
373.457	24.54
373.666	24.63
373.874	24.06
374.083	23.81
374.292	23.64
374.501	23.41
374.71	23.11
374.919	23.4
375.128	23.51
375.336	24.03
375.545	24.17
375.754	23.83
375.963	24.09
376.171	24.23
376.38	24.28
376.589	24.63
376.798	24.57
377.006	24.67
377.215	24.02
377.424	23.98
377.632	23.33
377.841	23.71
378.05	23.71
378.258	23.43
378.467	23.17
378.675	23.58
378.884	23.02
379.093	23.3
379.301	23.08
379.51	23.27
379.718	23.11
379.927	23.5
380.135	23.17
380.344	23.61
380.552	23.05
380.761	22.89
380.969	22.69
381.177	23.11
381.386	22.75
381.594	23.15
381.803	23.12
382.011	22.84
382.219	22.94
382.428	22.53
382.636	22.35
382.845	22.9
383.053	22.67
383.261	22.25
383.469	21.61
383.678	21.37
383.886	21.24
384.094	21.15
384.302	20.81
384.511	20.42
384.719	20.37
384.927	20.38
385.135	19.86
385.343	19.81
385.552	19.58
385.76	19.59
385.968	19.55
386.176	18.72
386.384	18.65
386.592	18.99
386.8	18.73
387.008	18.57
387.216	18.35
387.424	18.41
387.633	18.66
387.841	18.92
388.049	19.62
388.257	19.58
388.465	19.91
388.672	19.4
388.88	19.19
389.088	19.1
389.296	18.85
389.504	18.44
389.712	18.25
389.92	18.11
390.128	17.82
390.336	17.16
390.544	17.2
390.751	17.1
390.959	17.22
391.167	17.36
391.375	17.54
391.583	17.54
391.79	17.69
391.998	17.4
392.206	17.37
392.414	16.9
392.621	16.69
392.829	16.25
393.037	16.21
393.244	16.29
393.452	15.69
393.66	15.59
393.867	15.3
394.075	15.39
394.283	15.61
394.49	15.45
394.698	15.54
394.905	15.78
395.113	15.86
395.32	15.64
395.528	15.54
395.735	15.66
395.943	15.51
396.15	15.68
396.358	15.6
396.565	15.56
396.773	15.47
396.98	15.44
397.188	15.43
397.395	15.64
397.602	15.81
397.81	15.78
398.017	15.83
398.225	15.98
398.432	15.78
398.639	15.44
398.847	15.19
399.054	15.12
399.261	15.34
399.468	15.3
399.676	15.19
399.883	14.95
400.09	14.79
400.297	14.62
400.505	14.47
400.712	14.67
400.919	14.31
401.126	14.2
401.333	14.29
401.54	14.26
401.748	14.12
401.955	13.74
402.162	13.95
402.369	13.78
402.576	13.85
402.783	13.69
402.99	14
403.197	14.38
403.404	14.63
403.611	14.27
403.818	14.16
404.025	14.06
404.232	14.18
404.439	14.06
404.646	14.27
404.853	14.22
405.06	14.18
405.267	13.97
405.474	14.01
405.681	13.75
405.887	13.9
406.094	13.61
406.301	13.61
406.508	13.56
406.715	13.26
406.922	13.3
407.128	13.2
407.335	13.3
407.542	13.15
407.749	13.14
407.955	13.33
408.162	13.46
408.369	13.55
408.575	13.38
408.782	13.13
408.989	13.12
409.195	13.07
409.402	13.17
409.609	13.11
409.815	13.09
410.022	12.92
410.228	12.8
410.435	12.64
410.642	12.92
410.848	12.86
411.055	13.08
411.261	13.24
411.468	13.2
411.674	13.16
411.881	12.82
412.087	12.57
412.294	12.58
412.5	12.52
412.706	12.53
412.913	11.99
413.119	12.07
413.326	12.08
413.532	12.12
413.738	12.21
413.945	12.4
414.151	12.55
414.357	12.8
414.564	12.75
414.77	12.57
414.976	12.48
415.182	12.72
415.389	12.76
415.595	12.77
415.801	12.8
416.007	12.66
416.214	12.35
416.42	12.34
416.626	12.07
416.832	12.08
417.038	12.24
417.244	12.32
417.45	12.47
417.657	12.38
417.863	12.27
418.069	12.21
418.275	12.06
418.481	12.24
418.687	12.38
418.893	12.68
419.099	12.68
419.305	12.68
419.511	12.55
419.717	12.38
419.923	12.39
420.129	12.38
420.335	12.24
420.541	12.41
420.746	12.28
420.952	12.12
421.158	11.99
421.364	11.83
421.57	11.73
421.776	11.8
421.982	11.68
422.187	11.56
422.393	11.52
422.599	11.56
422.805	11.41
423.01	11.56
423.216	11.59
423.422	11.53
423.628	11.59
423.833	11.66
424.039	11.71
424.245	11.77
424.45	11.87
424.656	11.92
424.862	12.04
425.067	12.11
425.273	11.97
425.478	11.97
425.684	11.99
425.889	11.99
426.095	12.14
426.301	11.87
426.506	12.02
426.712	12.01
426.917	12.03
427.123	11.92
427.328	12
427.533	12.08
427.739	12.11
427.944	12.14
428.15	12.13
428.355	11.67
428.561	12.01
428.766	11.91
428.971	11.88
429.177	11.93
429.382	11.91
429.587	11.76
429.793	11.67
429.998	11.73
430.203	11.73
430.408	11.92
430.614	11.91
430.819	11.69
431.024	11.65
431.229	11.7
431.434	11.45
431.64	11.37
431.845	11.23
432.05	11.12
432.255	11.06
432.46	11
432.665	10.75
432.87	10.98
433.076	10.88
433.281	10.75
433.486	10.66
433.691	10.71
433.896	10.79
434.101	10.82
434.306	10.79
434.511	10.5
434.716	10.47
434.921	10.61
435.126	10.58
435.331	10.78
435.535	10.89
435.74	10.87
435.945	10.89
436.15	10.8
436.355	10.85
436.56	11
436.765	11.3
436.97	11.31
437.174	11.32
437.379	11.26
437.584	11.18
437.789	11.2
437.993	11.28
438.198	11.21
438.403	11.42
438.608	11.42
438.812	11.35
439.017	11.27
439.222	11.35
439.426	11.25
439.631	11.25
439.836	11.31
440.04	11.4
440.245	11.32
440.45	11.32
440.654	11.04
440.859	11.09
441.063	11.09
441.268	11.02
441.472	10.84
441.677	11.04
441.881	11.15
442.086	11.21
442.29	11.07
442.495	11.16
442.699	11.21
442.904	11.38
443.108	11.17
443.312	11.04
443.517	11.07
443.721	11.05
443.925	10.89
444.13	10.88
444.334	10.74
444.538	10.92
444.743	10.93
444.947	10.93
445.151	10.86
445.356	11.04
445.56	11.17
445.764	11.35
445.968	11.46
446.173	11.43
446.377	11.23
446.581	11.17
446.785	11.05
446.989	10.89
447.193	10.82
447.398	10.93
447.602	10.9
447.806	10.79
448.01	10.66
448.214	10.65
448.418	10.46
448.622	10.45
448.826	10.46
449.03	10.54
449.234	10.79
449.438	10.86
449.642	10.63
449.846	10.4
450.05	10.45
450.254	10.37
450.458	10.23
450.662	10.41
450.866	10.47
451.069	10.71
451.273	10.64
451.477	10.52
451.681	10.39
451.885	10.66
452.089	10.62
452.292	10.61
452.496	10.69
452.7	10.76
452.904	10.83
453.107	10.88
453.311	10.67
453.515	10.64
453.719	10.48
453.922	10.54
454.126	10.32
454.33	10.55
454.533	10.44
454.737	10.36
454.94	10.43
455.144	10.37
455.348	10.23
455.551	10.29
455.755	10.29
455.958	10.59
456.162	10.53
456.365	10.49
456.569	10.56
456.772	10.8
456.976	10.8
457.179	10.63
457.383	10.58
457.586	10.74
457.79	10.75
457.993	10.73
458.196	10.47
458.4	10.65
458.603	10.69
458.807	10.62
459.01	10.56
459.213	10.72
459.417	10.85
459.62	10.77
459.823	10.7
460.026	10.56
460.23	10.55
460.433	10.49
460.636	10.52
460.839	10.47
461.042	10.53
461.246	10.51
461.449	10.28
461.652	10.13
461.855	10.25
462.058	10.16
462.261	10.29
462.464	10.14
462.668	10.29
462.871	10.16
463.074	10.26
463.277	10.25
463.48	10.17
463.683	10.31
463.886	10.44
464.089	10.24
464.292	10.41
464.495	10.43
464.698	10.65
464.901	10.57
465.104	10.55
465.306	10.56
465.509	10.32
465.712	10.43
465.915	10.35
466.118	10.31
466.321	10.39
466.524	10.31
466.726	10.24
466.929	10.01
467.132	10.12
467.335	10.1
467.538	10.1
467.74	10.27
467.943	10.25
468.146	10.32
468.348	10.27
468.551	10.35
468.754	10.43
468.956	10.49
469.159	10.47
469.362	10.55
469.564	10.48
469.767	10.4
469.969	10.38
470.172	10.59
470.375	10.49
470.577	10.46
470.78	10.49
470.982	10.43
471.185	10.55
471.387	10.73
471.59	10.51
471.792	10.43
471.995	10.54
472.197	10.58
472.399	10.32
472.602	10.48
472.804	10.47
473.007	10.45
473.209	10.53
473.411	10.26
473.614	10.16
473.816	10.26
474.018	10.37
474.22	10.37
474.423	10.28
474.625	10.47
474.827	10.36
475.03	10.43
475.232	10.18
475.434	10.28
475.636	10.38
475.838	10.52
476.04	10.55
476.243	10.48
476.445	10.51
476.647	10.68
476.849	10.57
477.051	10.66
477.253	10.51
477.455	10.6
477.657	10.52
477.859	10.45
478.061	10.33
478.263	10.3
478.465	10.4
478.667	10.34
478.869	10.26
479.071	10.23
479.273	10.1
479.475	10.24
479.677	10.21
479.879	10.16
480.081	10.21
480.283	10.28
480.485	10.31
480.686	10.29
480.888	10.36
481.09	10.35
481.292	10.54
481.494	10.58
481.695	10.61
481.897	10.76
482.099	10.79
482.301	10.79
482.502	10.78
482.704	10.72
482.906	10.7
483.107	10.69
483.309	10.64
483.511	10.59
483.712	10.6
483.914	10.56
484.115	10.51
484.317	10.48
484.519	10.48
484.72	10.43
484.922	10.42
485.123	10.49
485.325	10.44
485.526	10.48
485.728	10.42
485.929	10.45
486.131	10.44
486.332	10.45
486.534	10.43
486.735	10.4
486.936	10.46
487.138	10.48
487.339	10.36
487.541	10.43
487.742	10.41
487.943	10.41
488.144	10.38
488.346	10.38
488.547	10.38
488.748	10.4
488.95	10.49
489.151	10.4
489.352	10.41
489.553	10.47
489.755	10.44
489.956	10.48
490.157	10.53
490.358	10.5
490.559	10.61
490.76	10.57
490.961	10.57
491.163	10.5
491.364	10.5
491.565	10.47
491.766	10.58
491.967	10.58
492.168	10.6
492.369	10.53
492.57	10.59
492.771	10.48
492.972	10.47
493.173	10.49
493.374	10.5
493.575	10.53
493.776	10.55
493.976	10.39
494.177	10.36
494.378	10.28
494.579	10.38
494.78	10.38
494.981	10.49
495.182	10.54
495.382	10.48
495.583	10.44
495.784	10.5
495.985	10.66
496.185	10.55
496.386	10.54
496.587	10.57
496.788	10.48
496.988	10.4
497.189	10.57
497.39	10.74
497.59	10.7
497.791	10.78
497.992	10.93
498.192	10.77
498.393	10.96
498.593	11.01
498.794	10.97
498.994	11.06
499.195	10.95
499.395	10.81
499.596	10.74
499.796	10.85
499.997	10.95
500.197	10.85
500.398	10.94
500.598	10.91
500.799	11.02
500.999	11.09
501.199	10.92
501.4	11.25
501.6	11.08
501.801	10.99
502.001	11.1
502.201	11.06
502.402	11.09
502.602	11.02
502.802	10.98
503.002	10.91
503.203	10.9
503.403	11.04
503.603	10.94
503.803	11.16
504.003	11.21
504.204	11.13
504.404	11.14
504.604	11.24
504.804	11.39
505.004	11.41
505.204	11.37
505.404	11.45
505.604	11.5
505.804	11.6
506.005	11.56
506.205	11.66
506.405	11.81
506.605	11.91
506.805	11.89
507.005	11.94
507.204	12.15
507.404	12.29
507.604	12.13
507.804	12.19
508.004	12.24
508.204	12.34
508.404	12.21
508.604	12.28
508.804	12.33
509.003	12.52
509.203	12.54
509.403	12.61
509.603	12.56
509.803	12.83
510.002	12.86
510.202	12.81
510.402	12.87
510.602	13.04
510.801	13.09
511.001	13.06
511.201	13.04
511.4	13.06
511.6	13.1
511.8	13.25
511.999	13.2
512.199	13.19
512.398	13.22
512.598	13.31
512.797	13.45
512.997	13.46
513.197	13.66
513.396	13.64
513.596	13.73
513.795	13.88
513.994	13.88
514.194	14.08
514.393	14.36
514.593	14.62
514.792	14.65
514.992	14.71
515.191	14.82
515.39	14.87
515.59	15.07
515.789	15.27
515.988	15.28
516.188	15.51
516.387	15.73
516.586	15.8
516.786	15.91
516.985	16.07
517.184	16.19
517.383	16.29
517.582	16.34
517.782	16.41
517.981	16.44
518.18	16.53
518.379	16.58
518.578	16.54
518.777	16.56
518.976	16.63
519.176	16.71
519.375	16.84
519.574	16.96
519.773	17.06
519.972	17.23
520.171	17.36
520.37	17.44
520.569	17.62
520.768	17.82
520.967	18.01
521.166	18.08
521.365	18.18
521.564	18.25
521.762	18.4
521.961	18.49
522.16	18.62
522.359	18.83
522.558	18.9
522.757	18.89
522.956	19.02
523.154	19.32
523.353	19.36
523.552	19.62
523.751	19.84
523.949	19.97
524.148	20.22
524.347	20.35
524.546	20.53
524.744	20.83
524.943	20.93
525.142	21.02
525.34	21.12
525.539	21.29
525.737	21.54
525.936	21.64
526.135	21.82
526.333	21.96
526.532	22.11
526.73	22.23
526.929	22.31
527.127	22.5
527.326	22.63
527.524	22.77
527.723	22.98
527.921	22.99
528.12	23.18
528.318	23.16
528.516	23.24
528.715	23.36
528.913	23.45
529.112	23.48
529.31	23.62
529.508	23.75
529.707	23.84
529.905	23.9
530.103	24.01
530.301	24.06
530.5	24.28
530.698	24.38
530.896	24.42
531.094	24.49
531.293	24.7
531.491	24.85
531.689	25.02
531.887	25.19
532.085	25.37
532.283	25.47
532.481	25.61
532.68	25.65
532.878	25.8
533.076	26.02
533.274	26.14
533.472	26.22
533.67	26.2
533.868	26.24
534.066	26.23
534.264	26.22
534.462	26.32
534.66	26.37
534.858	26.49
535.056	26.48
535.253	26.44
535.451	26.62
535.649	26.83
535.847	26.99
536.045	27.14
536.243	27.29
536.441	27.52
536.638	27.6
536.836	27.67
537.034	27.84
537.232	28.06
537.43	28.19
537.627	28.21
537.825	28.33
538.023	28.41
538.22	28.42
538.418	28.52
538.616	28.61
538.813	28.73
539.011	28.89
539.209	28.87
539.406	28.93
539.604	29.02
539.801	29.04
539.999	29.11
540.196	29.22
540.394	29.43
540.591	29.44
540.789	29.42
540.986	29.56
541.184	29.62
541.381	29.69
541.579	29.68
541.776	29.78
541.974	29.82
542.171	29.82
542.368	29.92
542.566	29.89
542.763	29.99
542.96	30.17
543.158	30.19
543.355	30.31
543.552	30.36
543.75	30.4
543.947	30.29
544.144	30.4
544.341	30.41
544.539	30.4
544.736	30.53
544.933	30.49
545.13	30.39
545.327	30.46
545.524	30.4
545.722	30.41
545.919	30.58
546.116	30.69
546.313	30.73
546.51	30.83
546.707	30.78
546.904	30.65
547.101	30.78
547.298	30.83
547.495	30.86
547.692	30.98
547.889	31.32
548.086	31.37
548.283	31.51
548.48	31.49
548.677	31.29
548.874	31.55
549.07	31.7
549.267	31.65
549.464	31.83
549.661	31.78
549.858	31.91
550.055	31.7
550.251	31.79
550.448	31.64
550.645	31.87
550.842	32.33
551.038	32.34
551.235	32.62
551.432	32.56
551.628	32.36
551.825	32.52
552.022	32.41
552.218	32.36
552.415	32.41
552.612	32.57
552.808	32.58
553.005	32.5
553.201	32.47
553.398	32.32
553.594	32.53
553.791	32.8
553.987	32.78
554.184	32.78
554.38	32.95
554.577	33.09
554.773	33.39
554.97	33.33
555.166	33.41
555.362	33.62
555.559	33.69
555.755	33.84
555.952	33.76
556.148	33.84
556.344	33.93
556.541	33.96
556.737	33.78
556.933	33.58
557.129	33.66
557.326	33.69
557.522	33.68
557.718	33.83
557.914	33.94
558.11	34.22
558.307	34.22
558.503	34.26
558.699	34.24
558.895	34.16
559.091	34
559.287	34.02
559.483	34.22
559.679	34.23
559.876	34.19
560.072	34
560.268	33.81
560.464	34.2
560.66	34.2
560.856	34.26
561.052	34.49
561.247	34.74
561.443	34.64
561.639	34.54
561.835	34.39
562.031	34.54
562.227	34.64
562.423	34.68
562.619	34.4
562.815	34.56
563.01	34.86
563.206	34.8
563.402	34.85
563.598	34.88
563.793	34.94
563.989	35.2
564.185	34.83
564.381	34.85
564.576	34.93
564.772	34.94
564.968	34.75
565.163	34.49
565.359	34.56
565.555	34.6
565.75	34.68
565.946	34.77
566.141	34.57
566.337	34.84
566.532	34.76
566.728	34.88
566.923	34.91
567.119	34.96
567.314	34.82
567.51	34.85
567.705	34.79
567.901	34.88
568.096	34.71
568.292	34.93
568.487	35.01
568.682	35.14
568.878	35.38
569.073	35.34
569.268	35.47
569.464	35.65
569.659	35.78
569.854	35.97
570.05	36.2
570.245	36.39
570.44	36.53
570.635	36.43
570.831	36.47
571.026	36.08
571.221	36.27
571.416	36.36
571.611	36.44
571.806	36.43
572.002	36.51
572.197	36.34
572.392	36.28
572.587	36.12
572.782	36.05
572.977	36.04
573.172	36.2
573.367	36.07
573.562	35.96
573.757	35.8
573.952	35.71
574.147	35.41
574.342	35.45
574.537	35.36
574.732	35.69
574.927	35.77
575.121	35.67
575.316	35.56
575.511	35.76
575.706	35.82
575.901	36.09
576.096	36.14
576.29	36.3
576.485	36.3
576.68	36.57
576.875	36.5
577.069	36.43
577.264	36.5
577.459	36.55
577.654	36.61
577.848	36.51
578.043	36.42
578.238	36.4
578.432	36.2
578.627	36.43
578.821	36.35
579.016	35.88
579.21	36.13
579.405	36.36
579.6	36.35
579.794	35.99
579.989	36.2
580.183	36.26
580.378	36.16
580.572	36.52
580.766	36.23
580.961	36.28
581.155	36.59
581.35	36.63
581.544	36.61
581.738	36.65
581.933	37.06
582.127	37.22
582.321	37.07
582.516	37.07
582.71	36.97
582.904	37.07
583.099	37.14
583.293	37.42
583.487	37.34
583.681	37.34
583.875	37.29
584.07	36.92
584.264	36.74
584.458	37.02
584.652	37.22
584.846	37.21
585.04	37.09
585.234	36.76
585.428	36.47
585.623	36.7
585.817	36.66
586.011	36.73
586.205	37.05
586.399	37.08
586.593	36.87
586.787	36.88
586.981	36.96
587.174	37.02
587.368	37.14
587.562	37.03
587.756	36.78
587.95	36.95
588.144	37.05
588.338	36.97
588.532	37.04
588.725	37.23
588.919	37.39
589.113	37.64
589.307	37.9
589.501	38.14
589.694	38.36
589.888	38.37
590.082	38.16
590.275	38.21
590.469	38.05
590.663	37.86
590.856	38
591.05	38.08
591.244	37.94
591.437	37.81
591.631	37.52
591.824	37.58
592.018	37.51
592.212	37.54
592.405	37.43
592.599	37.43
592.792	37.49
592.986	37.45
593.179	37.55
593.372	37.55
593.566	37.66
593.759	37.89
593.953	37.97
594.146	38.01
594.339	37.94
594.533	38.05
594.726	38.19
594.92	38.16
595.113	38.02
595.306	37.83
595.499	37.81
595.693	37.86
595.886	38.05
596.079	37.78
596.272	38.01
596.466	38.05
596.659	38.08
596.852	38.24
597.045	38.54
597.238	38.68
597.431	38.67
597.624	38.65
597.818	38.88
598.011	38.69
598.204	38.99
598.397	38.91
598.59	39.06
598.783	39.01
598.976	38.9
599.169	38.73
599.362	38.7
599.555	38.54
599.748	38.68
599.941	38.25
600.134	38.31
600.326	38.12
600.519	38.17
600.712	38.28
600.905	38.31
601.098	38.31
601.291	38.25
601.483	38.37
601.676	38.49
601.869	38.64
602.062	38.66
602.255	38.61
602.447	38.76
602.64	38.56
602.833	38.4
603.025	38.55
603.218	38.44
603.411	38.71
603.603	38.84
603.796	39.03
603.989	39.13
604.181	39.11
604.374	39.38
604.566	39.34
604.759	39.35
604.951	39.53
605.144	39.54
605.336	39.67
605.529	39.57
605.721	39.28
605.914	39.24
606.106	38.97
606.299	39.13
606.491	38.96
606.683	38.87
606.876	39.07
607.068	39.22
607.26	39.31
607.453	39.33
607.645	39.47
607.837	39.56
608.03	39.63
608.222	39.88
608.414	39.93
608.606	39.97
608.799	39.82
608.991	39.91
609.183	39.71
609.375	39.66
609.567	39.83
609.759	39.59
609.952	39.76
610.144	39.77
610.336	39.82
610.528	39.67
610.72	39.47
610.912	39.68
611.104	39.54
611.296	39.51
611.488	39.34
611.68	38.79
611.872	38.82
612.064	38.68
612.256	38.52
612.448	38.25
612.64	38.26
612.832	38.43
613.023	38.7
613.215	38.73
613.407	38.57
613.599	38.63
613.791	39.19
613.983	39.06
614.174	39.12
614.366	39.26
614.558	39.59
614.75	39.72
614.941	39.86
615.133	39.74
615.325	39.93
615.516	40.4
615.708	40.56
615.9	40.58
616.091	41.15
616.283	41.04
616.475	41.14
616.666	41.11
616.858	41.02
617.049	40.95
617.241	40.82
617.432	40.77
617.624	40.56
617.815	40.47
618.007	40.65
618.198	40.42
618.39	40.57
618.581	40.43
618.773	40.31
618.964	40.39
619.155	40.65
619.347	40.58
619.538	40.58
619.729	40.99
619.921	41.04
620.112	40.69
620.303	40.47
620.494	40.62
620.686	40.5
620.877	40.45
621.068	40.25
621.259	40.29
621.451	40.5
621.642	40.38
621.833	39.94
622.024	39.81
622.215	39.96
622.406	40.13
622.597	39.91
622.788	39.99
622.98	39.95
623.171	40.15
623.362	39.71
623.553	39.77
623.744	39.87
623.935	39.85
624.126	39.98
624.317	39.86
624.508	40.15
624.698	40.34
624.889	40.07
625.08	40.03
625.271	40.17
625.462	40.07
625.653	40.04
625.844	40.1
626.034	40.42
626.225	40.41
626.416	40.38
626.607	40.34
626.798	40.17
626.988	40.43
627.179	40.51
627.37	40.71
627.56	41.14
627.751	41.1
627.942	40.95
628.132	40.71
628.323	40.74
628.514	40.84
628.704	40.7
628.895	40.65
629.085	40.7
629.276	40.55
629.466	40.37
629.657	40.07
629.847	40.1
630.038	40.01
630.228	40.05
630.419	40.35
630.609	40.62
630.8	40.69
630.99	40.77
631.181	40.64
631.371	40.99
631.561	41.05
631.752	40.91
631.942	40.96
632.132	41.33
632.323	41.24
632.513	41
632.703	40.84
632.893	40.92
633.084	40.92
633.274	40.89
633.464	40.92
633.654	40.81
633.844	41.22
634.034	41.16
634.225	41.07
634.415	41.11
634.605	40.99
634.795	40.95
634.985	40.72
635.175	40.92
635.365	41.15
635.555	41.12
635.745	41.11
635.935	40.73
636.125	40.82
636.315	40.95
636.505	41.24
636.695	41.36
636.885	41.45
637.075	41.32
637.265	41.14
637.455	41.24
637.644	41.38
637.834	41.3
638.024	41.31
638.214	41.19
638.404	40.9
638.593	40.58
638.783	40.65
638.973	40.68
639.163	41
639.352	41.03
639.542	40.89
639.732	40.91
639.921	41.01
640.111	41.17
640.301	40.92
640.49	41.06
640.68	41.28
640.87	41
641.059	40.72
641.249	40.75
641.438	40.58
641.628	40.59
641.817	40.59
642.007	40.57
642.196	40.73
642.386	41.13
642.575	40.76
642.764	40.78
642.954	40.75
643.143	40.96
643.333	41.26
643.522	41.24
643.711	41.36
643.901	41.37
644.09	41.29
644.279	41.39
644.469	41.39
644.658	41.84
644.847	41.94
645.036	41.98
645.226	41.91
645.415	41.74
645.604	42.21
645.793	41.91
645.982	41.55
646.171	41.4
646.361	41.22
646.55	41.15
646.739	40.97
646.928	40.7
647.117	41.08
647.306	41.35
647.495	41.25
647.684	41.03
647.873	41.29
648.062	41.35
648.251	41.62
648.44	41.74
648.629	41.67
648.818	42.04
649.007	42.54
649.196	42.53
649.384	41.87
649.573	42.07
649.762	41.96
649.951	41.92
650.14	41.88
650.328	41.71
650.517	41.94
650.706	42.31
650.895	41.67
651.083	41.56
651.272	41.44
651.461	41.86
651.65	41.3
651.838	41.55
652.027	41.54
652.216	41.87
652.404	42.22
652.593	42.27
652.781	41.79
652.97	42.09
653.158	41.69
653.347	41.73
653.535	41.73
653.724	42.26
653.912	42.04
654.101	42.27
654.289	42.13
654.478	42.1
654.666	42.15
654.855	42.41
655.043	42.46
655.231	42.31
655.42	42.16
655.608	41.97
655.796	41.57
655.985	41.89
656.173	41.69
656.361	41.81
656.55	41.71
656.738	41.16
656.926	41.09
657.114	41.28
657.302	41.25
657.491	41.13
657.679	41.04
657.867	41.47
658.055	41.44
658.243	41.37
658.431	41.07
658.619	41.02
658.807	41.29
658.996	41.33
659.184	41.3
659.372	41.62
659.56	41.67
659.748	41.94
659.936	41.93
660.124	42.06
660.311	42.18
660.499	42.61
660.687	42.56
660.875	42.7
661.063	42.59
661.251	42.84
661.439	42.31
661.627	42.58
661.814	42.88
662.002	42.76
662.19	42.46
662.378	42.52
662.565	42.23
662.753	42.49
662.941	42.08
663.129	41.74
663.316	41.48
663.504	42
663.692	41.91
663.879	41.69
664.067	41.58
664.254	41.57
664.442	41.05
664.63	41.13
664.817	41.08
665.005	41.38
665.192	42.15
665.38	42.18
665.567	42.22
665.755	42.43
665.942	42.29
666.13	42.48
666.317	42.52
666.504	42.68
666.692	42.53
666.879	42.51
667.067	42.39
667.254	42.43
667.441	42.58
667.629	42.33
667.816	42.38
668.003	42.21
668.19	42.24
668.378	42.52
668.565	42.75
668.752	42.8
668.939	42.72
669.127	42.5
669.314	41.85
669.501	41.7
669.688	42.12
669.875	41.82
670.062	42.25
670.249	42.2
670.436	41.65
670.623	41.89
670.81	42.14
670.997	42.07
671.184	42.26
671.371	42.87
671.558	43.08
671.745	43.22
671.932	43.25
672.119	42.64
672.306	42.64
672.493	43.17
672.68	43.32
672.867	42.62
673.054	42.62
673.24	42.75
673.427	42.39
673.614	42.17
673.801	41.95
673.988	41.83
674.174	42.48
674.361	42.38
674.548	42.5
674.734	42.23
674.921	42.22
675.108	42.48
675.294	42.22
675.481	42.1
675.668	41.82
675.854	42.08
676.041	41.98
676.227	41.81
676.414	41.38
676.601	40.7
676.787	40.34
676.974	40.68
677.16	40.39
677.347	40.68
677.533	41.11
677.719	41.53
677.906	40.83
678.092	40.89
678.279	41.42
678.465	41.43
678.651	41.43
678.838	41.96
679.024	42.22
679.21	42.52
679.397	42.25
679.583	41.78
679.769	41.72
679.955	41.97
680.142	42.48
680.328	41.83
680.514	42.17
680.7	42.34
680.886	42.15
681.073	42.05
681.259	41.7
681.445	41.39
681.631	41.49
681.817	41.33
682.003	41.39
682.189	40.97
682.375	41.06
682.561	40.83
682.747	41.07
682.933	40.96
683.119	40.92
683.305	41.08
683.491	41.77
683.677	42.09
683.863	42.71
684.049	42.81
684.235	42.75
684.42	42.98
684.606	43.46
684.792	43.14
684.978	42.91
685.164	43.36
685.349	43.75
685.535	43.48
685.721	43.65
685.907	43.09
686.092	43.71
686.278	44.01
686.464	43.47
686.649	43.22
686.835	43.32
687.021	43.55
687.206	43.51
687.392	43.53
687.577	43.6
687.763	43.22
687.948	43.27
688.134	42.92
688.319	42.8
688.505	43.04
688.69	42.92
688.876	42.76
689.061	43.61
689.247	43.16
689.432	42.43
689.618	42.22
689.803	42.17
689.988	42.6
690.174	42.29
690.359	41.85
690.544	42.4
690.73	42.46
690.915	42.92
691.1	42.03
691.285	41.95
691.471	42.59
691.656	43.26
691.841	43.74
692.026	42.93
692.211	42.72
692.396	43.01
692.582	42.72
692.767	42.74
692.952	42.64
693.137	42.48
693.322	42.82
693.507	42.5
693.692	42.3
693.877	41.45
694.062	41.91
694.247	42.71
694.432	43.3
694.617	42.67
694.802	42.69
694.987	42.82
695.172	42.92
695.357	42.96
695.541	43.73
695.726	43.87
695.911	44.89
696.096	44.98
696.281	44.63
696.466	44.48
696.65	45.36
696.835	45.37
697.02	45.1
697.204	45.09
697.389	44.79
697.574	44.23
697.759	43.84
697.943	43.41
698.128	43.54
698.312	43.69
698.497	43.47
698.682	43.26
698.866	43.12
699.051	43.12
699.235	42.9
699.42	43.05
699.604	42.94
699.789	42.61
699.973	42.78
700.158	42.68
700.342	42.45
700.527	42.77
700.711	42.59
700.895	42.83
701.08	42.69
701.264	43.03
701.448	42.88
701.633	43.2
701.817	42.76
702.001	42.55
702.186	41.98
702.37	41.61
702.554	41.14
702.738	41.67
702.923	41.79
703.107	41.7
703.291	41.46
703.475	41.19
703.659	40.86
703.843	42.3
704.027	42.92
704.212	43.23
704.396	43.56
704.58	43.57
704.764	42.8
704.948	42.51
705.132	42.64
705.316	43.04
705.5	43.27
705.684	43.42
705.868	43.67
706.052	42.8
706.235	42.56
706.419	42.93
706.603	43.12
706.787	43.17
706.971	43.31
707.155	43.48
707.339	43.76
707.522	43.96
707.706	43.46
707.89	42.78
708.074	43.03
708.257	43.58
708.441	43.43
708.625	42.57
708.808	43.01
708.992	42.71
709.176	42.54
709.359	42.38
709.543	42.1
709.727	42.56
709.91	42.41
710.094	42.81
710.277	43.06
710.461	42.63
710.644	43.28
710.828	42.89
711.011	42.89
711.195	43
711.378	42.3
711.562	42
711.745	41.77
711.928	42.39
712.112	41.97
712.295	41.2
712.478	42.12
712.662	42.2
712.845	41.6
713.028	41.69
713.212	41.73
713.395	42.1
713.578	42
713.761	42.15
713.945	42.15
714.128	42.17
714.311	42.36
714.494	42.21
714.677	41.93
714.86	43.13
715.043	43.35
715.227	42.94
715.41	42.57
715.593	42.62
715.776	42.42
715.959	42.33
716.142	42.2
716.325	42.45
716.508	41.76
716.691	41.92
716.874	41.46
717.057	41.89
717.239	42.07
717.422	42.39
717.605	43.15
717.788	43.31
717.971	43.05
718.154	42.78
718.337	42.58
718.519	42.84
718.702	43
718.885	42.48
719.068	42.08
719.25	42.15
719.433	41.93
719.616	41.81
719.798	42.19
719.981	42.19
720.164	42.76
720.346	43.42
720.529	43.57
720.712	43.55
720.894	44.25
721.077	43.78
721.259	43.21
721.442	43.41
721.624	43.32
721.807	43.49
721.989	43.72
722.172	43.22
722.354	42.5
722.537	42
722.719	42.2
722.901	41.99
723.084	42.66
723.266	43.29
723.448	43.09
723.631	43.54
723.813	43.14
723.995	41.56
724.178	42.91
724.36	43.67
724.542	43.68
724.724	43.71
724.907	44.24
725.089	44.04
725.271	44.68
725.453	45.08
725.635	44.43
725.817	43.89
725.999	44.36
726.181	44.25
726.364	43.78
726.546	44.23
726.728	44.33
726.91	43.38
727.092	42.63
727.274	42.17
727.456	42.42
727.638	42.73
727.819	43.37
728.001	44.34
728.183	43.79
728.365	44.38
728.547	44.51
728.729	43.83
728.911	44.56
729.093	45.61
729.274	45.72
729.456	45.42
729.638	44.92
729.82	44.93
730.001	44.94
730.183	45.63
730.365	45.39
730.546	44.72
730.728	45.01
730.91	44.59
731.091	42.98
731.273	42.48
731.455	41.6
731.636	41.73
731.818	42.15
731.999	41.96
732.181	41.2
732.362	40.8
732.544	41.22
732.725	41.31
732.907	42.07
733.088	42.15
733.27	42.17
733.451	43.65
733.633	42.42
733.814	41.77
733.995	42.16
734.177	41.85
734.358	41.75
734.539	41.64
734.721	40.92
734.902	40.32
735.083	41.53
735.264	41.49
735.446	41.01
735.627	42.36
735.808	42.17
735.989	40.65
736.17	41.06
736.351	41.28
736.533	41.82
736.714	42.16
736.895	41.83
737.076	42.22
737.257	42.64
737.438	42.7
737.619	43.11
737.8	42.71
737.981	44.39
738.162	44.04
738.343	44.04
738.524	43.66
738.705	43.68
738.886	43.64
739.067	42.59
739.247	42.56
739.428	42.3
739.609	42.44
739.79	43.67
739.971	44.02
740.151	43.93
740.332	43.4
740.513	43.97
740.694	43.62
740.874	44.92
741.055	45.19
741.236	45.46
741.417	45.58
741.597	44.83
741.778	43.96
741.958	42.6
742.139	42.25
742.32	42.69
742.5	41.43
742.681	42.56
742.861	41.14
743.042	40.75
743.222	41.52
743.403	40.79
743.583	41.53
743.764	41.1
743.944	40.89
744.124	42.29
744.305	42.75
744.485	43.77
744.666	43.13
744.846	43.69
745.026	44.08
745.207	43.2
745.387	43.92
745.567	43.14
745.747	43.32
745.928	44.06
746.108	43.79
746.288	43.54
746.468	43.05
746.648	42.65
746.829	42.43
747.009	43.09
747.189	43.22
747.369	42.65
747.549	42.55
747.729	43.58
747.909	43.55
748.089	42.84
748.269	41.41
748.449	41.02
748.629	41.64
748.809	42.11
748.989	43.66
749.169	43.82
749.349	43.58
749.529	44
749.709	43.88
749.889	43.99
750.068	44.34
750.248	45.12
750.428	44.85
750.608	45.01
750.788	44.91
750.967	42.84
751.147	42.79
751.327	45.36
751.507	45.17
751.686	44.53
751.866	44.38
752.046	43.3
752.225	43.6
752.405	43.7
752.585	44.63
752.764	44.08
752.944	44.09
753.123	44.05
753.303	41.1
753.482	40.59
753.662	40.54
753.841	40.52
754.021	41
754.2	40.86
754.38	41.19
754.559	40.41
754.739	40.84
754.918	41.52
755.097	40.78
755.277	41.52
755.456	42.47
755.635	41.6
755.815	41.29
755.994	41.82
756.173	41.89
756.352	42.2
756.532	41.88
756.711	41.33
756.89	40.17
757.069	40.59
757.248	40.44
757.427	40.65
757.607	41.86
757.786	42.6
757.965	43.17
758.144	43.78
758.323	42.75
758.502	44.46
758.681	44.94
758.86	45.26
759.039	45.83
759.218	45.96
759.397	45.98
759.576	45.61
759.755	44.61
759.934	44.33
760.113	43.22
760.291	44.31
760.47	42.9
760.649	42.5
760.828	43.14
761.007	42.08
761.186	43.17
761.364	43.45
761.543	43.61
761.722	44.16
761.901	43.47
762.079	45.13
762.258	44.78
762.437	44.74
762.615	45.07
762.794	44.92
762.972	45.58
763.151	45.51
763.33	45.11
763.508	44.86
763.687	45.03
763.865	44.6
764.044	44.14
764.222	43.71
764.401	43.41
764.579	43.69
764.758	44.12
764.936	43.44
765.114	43.15
765.293	43.22
765.471	44.26
765.65	43.68
765.828	44.79
766.006	45.63
766.184	47.21
766.363	47.49
766.541	48.03
766.719	47.65
766.898	48.65
767.076	46.94
767.254	46.8
767.432	45.89
767.61	46.94
767.788	46.71
767.967	45.09
768.145	43.74
768.323	43.01
768.501	43.23
768.679	44.61
768.857	44.61
769.035	46.43
769.213	46.41
769.391	46.18
769.569	45.41
769.747	44.18
769.925	43.75
770.103	43.87
770.281	44.3
770.459	42.45
770.636	42.68
770.814	44
770.992	45.23
771.17	44.27
771.348	44.49
771.525	45.28
771.703	44.95
771.881	45.81
772.059	46.58
772.236	46.78
772.414	46.09
772.592	45.47
772.769	43.35
772.947	42.95
773.125	44.75
773.302	44.54
773.48	43.12
773.657	45.28
773.835	46.19
774.013	44.33
774.19	43.57
774.368	44.23
774.545	41.9
774.723	39.86
774.9	40.39
775.077	40.21
775.255	39.2
775.432	39.16
775.61	39.87
775.787	38.63
775.964	41.21
776.142	42.24
776.319	43.17
776.496	42.97
776.674	47.08
776.851	46.1
777.028	44.81
777.205	45.52
777.382	44.93
777.56	43.96
777.737	44.94
777.914	41.94
778.091	41.61
778.268	41.12
778.445	41.78
778.622	40.55
778.8	40.63
778.977	43.09
779.154	46.01
779.331	47.96
779.508	48.08
779.685	44.72
779.862	46.4
780.038	45.83
780.215	44.92
780.392	44.69
780.569	42.08
780.746	41.76
780.923	39.54
781.1	35.38
781.277	36.73
781.453	37.2
781.63	40.37
781.807	41.93
781.984	44.13
782.16	45.02
782.337	44.41
782.514	45.68
782.691	46.55
782.867	46.33
783.044	49.19
783.221	46.46
783.397	46.18
783.574	44.99
783.75	42.04
783.927	41.43
784.103	42.24
784.28	43.12
784.456	44.75
784.633	43.37
784.809	44.55
784.986	42.43
785.162	41.85
785.339	42.1
785.515	39.86
785.692	43.34
785.868	41.93
786.044	39.58
786.221	41.62
786.397	41.19
786.573	41.43
786.749	41.68
786.926	42.03
787.102	43.56
787.278	45.05
787.454	46.83
787.631	44.1
787.807	44.89
787.983	45.14
788.159	41.81
788.335	38.91
788.511	39.07
788.687	37.57
788.863	37.7
789.039	38.87
789.216	35.74
789.392	36.98
789.568	38.66
789.744	39.27
789.919	40.57
790.095	42.88
790.271	45.48
790.447	46.59
790.623	48.69
790.799	51.08
790.975	49.83
791.151	53.09
791.327	54.99
791.502	53.32
791.678	52.36
791.854	51.35
792.03	48.72
792.205	47.39
792.381	45.91
792.557	48.99
792.733	46.42
792.908	47.69
793.084	45.73
793.259	43.37
793.435	43.11
793.611	44.52
793.786	44.62
793.962	46.32
794.137	47.94
794.313	48.92
794.488	43.48
794.664	44.86
794.839	40.46
795.015	41.59
795.19	41.85
795.366	43.67
795.541	43.44
795.716	43.28
795.892	42.7
796.067	42.17
796.242	44.01
796.418	45.06
796.593	45.64
796.768	48.65
796.944	47.14
797.119	46.72
797.294	44.26
797.469	45.92
797.644	46.12
797.82	47.36
797.995	48.07
798.17	47.45
798.345	45.71
798.52	44.33
798.695	43.79
798.87	45.25
799.045	44.76
799.22	47.66
799.395	44.59
799.57	45.97
799.745	45.54
799.92	45.7
800.095	44.89
800.27	47.12
800.445	46.97
800.62	47.28
800.795	45.57
800.97	45.96
801.145	44.19
801.319	45.21
801.494	44.35
801.669	43
801.844	41.71
802.018	41.62
802.193	41.66
802.368	41.75
802.543	43.66
802.717	46.51
802.892	49.34
803.067	48.4
803.241	48.41
803.416	49.88
803.59	52.23
803.765	56.49
803.94	56.46
804.114	53.53
804.289	50.95
804.463	47.13
804.638	42.74
804.812	39.68
804.986	40.2
805.161	39.19
805.335	38.87
805.51	38.99
805.684	36.66
805.858	37.97
806.033	37.24
806.207	39.42
806.381	39.67
806.556	41.88
806.73	43.55
806.904	46.09
807.078	47.33
807.253	47.58
807.427	45.77
807.601	44.95
807.775	44.99
807.949	47.84
808.123	47.81
808.298	52.3
808.472	53.49
808.646	52.65
808.82	50.61
808.994	47.4
809.168	44.85
809.342	47.62
809.516	50.42
809.69	50.51
809.864	50.11
810.038	52.53
810.212	46.68
810.385	48.26
810.559	47.03
810.733	49.68
810.907	49.4
811.081	48.55
811.255	47.45
811.428	45.11
811.602	43.4
811.776	43.75
811.95	43.92
812.123	46.35
812.297	43.39
812.471	41.11
812.644	35.63
812.818	40.14
812.992	39.31
813.165	35.59
813.339	35.05
813.512	31.35
813.686	36.53
813.86	33.56
814.033	29.63
814.207	35.11
814.38	43.47
814.554	47.64
814.727	47.62
814.9	50.41
815.074	53.94
815.247	52.21
815.421	56.49
815.594	51.89
815.767	56.03
815.941	59.05
816.114	51.7
816.287	50.51
816.46	49.02
816.634	47.98
816.807	43.49
816.98	41.4
817.153	42.7
817.327	41.12
817.5	39.47
817.673	37.06
817.846	33.1
818.019	35.74
818.192	37.82
818.365	39.62
818.538	40.92
818.711	42.89
818.884	42.77
819.057	41.19
819.23	37.81
819.403	37.55
819.576	35.96
819.749	40.41
819.922	40.21
820.095	39.51
820.268	39.86
820.441	38.76
820.614	42.05
820.786	42.61
820.959	41.97
821.132	42.57
821.305	43.02
821.477	44.02
821.65	44.36
821.823	44.35
821.996	43.35
822.168	43.42
822.341	43.68
822.514	43.6
822.686	44.56
822.859	45.38
823.031	45.78
823.204	45.81
823.376	45.61
823.549	45.79
823.722	45.44
823.894	45.84
824.067	46.05
824.239	45.63
824.411	45.91
824.584	44.82
824.756	44.82
824.929	44.64
825.101	44.45
825.273	44.1
825.446	42.81
825.618	43.67
825.79	42.76
825.963	42
826.135	42.66
826.307	41.61
826.479	41.83
826.652	40.78
826.824	40.08
826.996	40.17
827.168	40.23
827.34	40.24
827.512	39.94
827.684	40.9
827.856	40.65
828.029	39.97
828.201	40.6
828.373	40.68
828.545	40.98
828.717	41.88
828.889	41.35
829.061	40.99
829.232	39.85
829.404	38.83
829.576	38.25
829.748	38.14
829.92	39.39
830.092	38.21
830.264	38.17
830.436	39.03
830.607	37.67
830.779	38.24
830.951	40.31
831.123	43.65
831.294	45.35
831.466	42.97
831.638	42.08
831.809	41.33
831.981	43.6
832.153	44.88
832.324	41.05
832.496	41.97
832.667	42.94
832.839	41.9
833.011	42.08
833.182	42.21
833.354	43.64
833.525	46.65
833.697	44.9
833.868	44.5
834.039	43.89
834.211	47.4
834.382	49.1
834.554	49.26
834.725	50.2
834.896	49.6
835.068	49.45
835.239	49.74
835.41	50.27
835.581	52.66
835.753	52.21
835.924	51
836.095	51.11
836.266	52.18
836.438	50.2
836.609	46.34
836.78	46.08
836.951	44.72
837.122	44.79
837.293	42.99
837.464	40.68
837.635	39.04
837.806	39.3
837.977	36.8
838.148	32.15
838.319	32.18
838.49	37.61
838.661	38.92
838.832	39.36
839.003	39.95
839.174	34.35
839.345	32.09
839.516	28.66
839.687	22.05
839.857	27.7
840.028	31.59
840.199	36.83
840.37	37.81
840.54	44.2
840.711	48.21
840.882	43.61
841.053	46.11
841.223	48.35
841.394	51.81
841.564	56.22
841.735	51.82
841.906	46.38
842.076	41.35
842.247	46.25
842.417	44
842.588	41.79
842.758	44.52
842.929	42.61
843.099	29.22
843.27	29.06
843.44	26.37
843.611	29.67
843.781	31.2
843.951	32.67
844.122	28.47
844.292	25.99
844.462	28.09
844.633	36.87
844.803	47.16
844.973	64.39
845.144	65.38
845.314	80.74
845.484	81.26
845.654	88.3
845.824	103.24
845.995	101.91
846.165	92.86
846.335	97.02
846.505	90.69
846.675	75.63
846.845	62.78
847.015	52.27
847.185	42.21
847.355	29.51
847.525	33.17
847.695	20.41
847.865	-0.36
848.035	-0.39
848.205	-10.46
848.375	9.34
848.545	14.68
848.715	26.05
848.884	41.86
849.054	30.25
849.224	50.39
849.394	51.47
849.564	58.73
849.733	81.41
849.903	66.45
850.073	61.38
850.243	55.4
850.412	47.56
850.582	40.42
850.752	30.42
850.921	46.52
851.091	38.57
851.26	39.99
851.43	41.69
851.599	30.05
851.769	25.28
851.939	45.44
852.108	41.64
852.278	59.05
852.447	32.17
852.616	31.24
852.786	40.56
852.955	27.31
853.125	27.2
853.294	18.26
853.463	7.95
853.633	36.5
853.802	-23.79
853.971	-17.43
854.141	-18.1
854.31	-9.11
854.479	-38.1
854.648	-51.73
854.818	-24.43
854.987	-5.25
855.156	-18.71
855.325	25.2
855.494	-0.78
855.663	34.38
855.832	52.81
856.001	46.09
856.171	49.07
856.34	63.42
856.509	37.64
856.678	16.37
856.847	11.08
857.016	5.67
857.185	-2.1
857.353	27.76
857.522	18.92
857.691	18.79
857.86	28.77
858.029	29.45
858.198	25.71
858.367	34.85
858.535	46.76
858.704	21.75
858.873	36.11
859.042	38.15
859.21	28.31
859.379	9.11
859.548	-18.18
859.717	-13.03
859.885	-0.99
860.054	4.34
860.222	-15.26
860.391	-7.55
860.56	23.31
860.728	26.63
860.897	24.69
861.065	30.41
861.234	43.07
861.402	59.26
861.571	52.46
861.739	59.39
861.908	58.63
862.076	67.11
862.244	71.37
862.413	56.26
862.581	55.54
862.749	35.8
862.918	-5.06
863.086	-15.8
863.254	-25.27
863.423	-66.3
863.591	-97.22
863.759	-157.72
863.927	-181.61
864.096	-885.35
864.264	53.34
864.432	-8.82
864.6	214.37
864.768	262.23
864.936	164.24
865.104	127.4
865.272	107.6
865.44	91.29
865.608	86.02
865.776	86.02
865.944	76.84
866.112	28.46
866.28	13.94
866.448	37.92
866.616	42.84
866.784	59.02
866.952	58.75
867.12	64.82
867.288	81
867.455	76.4
867.623	82.92
867.791	60.81
867.959	66.57
868.127	94.45
868.294	97.51
868.462	77.76
868.63	48.67
868.797	49.11
868.965	60.61
869.133	64.85
869.3	67.38
869.468	54.1
869.636	80.68
869.803	88.61
869.971	58.27
870.138	42.87
870.306	46.81
870.473	61.08
870.641	51.14
870.808	42.11
870.975	28.22
871.143	36.62
871.31	33.78
871.478	36.91
871.645	52.85
871.812	55.01
871.98	53.58
872.147	98.2
872.314	99.08
872.482	102.28
872.649	164.89
872.816	137.31
872.983	196.43
873.15	111.68
873.318	105.76
873.485	159.64
873.652	251.06
873.819	134.06
873.986	86.27
874.153	76.77
874.32	95.96
874.487	95.52
874.654	89.83
874.821	92.37
874.988	101.11
875.155	78.6
875.322	79.33
875.489	56.65
875.656	58.51
875.823	60.53
875.99	60.25
876.157	53.32
876.324	69.07
876.49	76.65
876.657	73.52
876.824	47.2
876.991	65.66
877.157	65.35
877.324	57.18
877.491	69.54
877.658	64.9
877.824	68.5
877.991	70.9
878.157	37.47
878.324	34.66
878.491	33.38
878.657	54.35
878.824	51.68
878.99	44.36
879.157	61.54
879.323	47.56
879.49	82.22
879.656	67.29
879.823	50.4
879.989	60.99
880.156	57.29
880.322	84.71
880.488	76.27
880.655	82.64
880.821	68.44
880.987	65.15
881.154	65.59
881.32	35.74
881.486	34.89
881.652	43.73
881.819	43.25
881.985	40.8
882.151	35.96
882.317	33.3
882.483	33.86
882.649	37.98
882.816	37.58
882.982	40.8
883.148	44.57
883.314	45.74
883.48	44.24
883.646	43.48
883.812	45.15
883.978	43.99
884.144	44.64
884.31	44.72
884.476	45.34
884.642	45.53
884.807	45.89
884.973	44.97
885.139	45.4
885.305	46.54
885.471	47.29
885.637	46.45
885.802	48.61
885.968	49.6
886.134	49.24
886.3	47.86
886.465	48.51
886.631	48.49
886.797	48.56
886.962	47.96
887.128	45.34
887.293	45.25
887.459	43.68
887.625	39.24
887.79	41.66
887.956	36.28
888.121	37.12
888.287	33
888.452	24.46
888.618	21.57
888.783	18.62
