Data from CB_103_Reflection_1.txt Node
Date: Sat Nov 14 17:54:22 EST 2015
User: robert
Spectrometer: USB4E03001
Autoset integration time: false
Trigger mode: 4
Integration Time (sec): 1.000000E-1
Scans to average: 15
Electric dark correction enabled: true
Nonlinearity correction enabled: false
Boxcar width: 5
Stray light correction enabled: false
XAxis mode: Wavelengths
Stop averaging: false
Number of Pixels in Spectrum: 3648
>>>>>Begin Spectral Data<<<<<
177.566	151.07
177.785	-1168.47
178.005	333.7
178.225	594.01
178.445	-2261.05
178.665	261.46
178.885	2843.3
179.105	44.63
179.324	-47.81
179.544	8.24
179.764	42.91
179.984	50.81
180.204	27.14
180.423	27.98
180.643	64.98
180.863	94.77
181.083	71.67
181.302	100.04
181.522	91.6
181.742	107.89
181.961	157.84
182.181	143.9
182.401	285.4
182.621	275.29
182.84	382.25
183.06	175.2
183.279	85.93
183.499	96.56
183.719	15.25
183.938	18.47
184.158	57.96
184.377	88.43
184.597	105.48
184.816	104.74
185.036	78.85
185.256	80.78
185.475	71.85
185.695	74.45
185.914	73.22
186.134	74.79
186.353	75.62
186.572	51.91
186.792	40.83
187.011	31.59
187.231	13.82
187.45	34.5
187.67	32.73
187.889	41.23
188.108	36.27
188.328	29.43
188.547	31.57
188.766	13.47
188.986	24.97
189.205	22.9
189.424	29.59
189.644	32.88
189.863	33.77
190.082	40.53
190.302	10.74
190.521	8.68
190.74	20.8
190.959	-13.55
191.178	-5.23
191.398	-9.37
191.617	1.42
191.836	15.4
192.055	37.08
192.274	3.31
192.494	3.94
192.713	-52.54
192.932	38.14
193.151	-60.53
193.37	39
193.589	77.26
193.808	101.06
194.027	108.18
194.246	-221.73
194.465	-34.64
194.685	105.57
194.904	102.47
195.123	94.37
195.342	65.64
195.561	78.34
195.78	51.57
195.999	52.66
196.218	49.75
196.436	63.41
196.655	61.28
196.874	69.13
197.093	58.77
197.312	65.7
197.531	66.94
197.75	67.68
197.969	73.74
198.188	90.34
198.407	83.8
198.625	96.1
198.844	99.73
199.063	98.53
199.282	103.14
199.501	120
199.719	103.47
199.938	100.15
200.157	79.49
200.376	62.28
200.594	60.41
200.813	69.94
201.032	51.41
201.251	42.18
201.469	40.05
201.688	45
201.907	51.86
202.125	50.9
202.344	77.45
202.563	123.85
202.781	143.84
203	205.77
203.218	201.72
203.437	170.71
203.656	159.61
203.874	127.07
204.093	145.62
204.311	120.42
204.53	118.7
204.748	89.11
204.967	80.69
205.185	100.78
205.404	70.12
205.622	58.49
205.841	62.53
206.059	66.69
206.278	72.44
206.496	62.56
206.715	56.42
206.933	64.77
207.151	55.15
207.37	60.84
207.588	63.46
207.806	73.92
208.025	75.3
208.243	72.56
208.461	85.71
208.68	101.08
208.898	100.12
209.116	98.67
209.335	102.76
209.553	123.96
209.771	116.75
209.989	91.34
210.208	82.32
210.426	61.61
210.644	65.58
210.862	57.56
211.081	51.21
211.299	55.9
211.517	69.87
211.735	47.38
211.953	47.12
212.171	46.83
212.39	49.52
212.608	60.84
212.826	67.44
213.044	60.26
213.262	56.19
213.48	49.93
213.698	43.75
213.916	33.76
214.134	38.4
214.352	33.28
214.57	26.23
214.788	45.58
215.006	43.12
215.224	42.53
215.442	48.81
215.66	60.89
215.878	44.71
216.096	42.97
216.314	54.62
216.532	92.38
216.75	86.64
216.968	107.61
217.185	88.61
217.403	98.12
217.621	126.29
217.839	122.19
218.057	104.59
218.275	91.41
218.492	134.78
218.71	166.5
218.928	164.02
219.146	216.88
219.363	142.32
219.581	119.79
219.799	124.8
220.017	134.28
220.234	120.64
220.452	139.84
220.67	194.74
220.887	263.6
221.105	289.72
221.323	2726.38
221.54	222.77
221.758	1290
221.976	758.36
222.193	195.58
222.411	210.01
222.629	445.89
222.846	639.02
223.064	-501.45
223.281	625.73
223.499	378.54
223.716	581.21
223.934	-436.08
224.151	-158.71
224.369	-91.37
224.586	-25.75
224.804	-17.59
225.021	-2.52
225.239	-0.33
225.456	-3.64
225.674	-7.68
225.891	-30.09
226.108	-81.71
226.326	-70.35
226.543	-29.31
226.76	-18.28
226.978	-0.51
227.195	-1.12
227.413	-7.53
227.63	-0.21
227.847	-1.28
228.064	10.23
228.282	11.6
228.499	13.26
228.716	7.19
228.934	5.15
229.151	4.71
229.368	3.75
229.585	2.79
229.802	4.94
230.02	3.15
230.237	3.07
230.454	0.71
230.671	1.85
230.888	2.52
231.105	1.26
231.323	-2.5
231.54	-8.91
231.757	-16.14
231.974	-19.76
232.191	-24.81
232.408	-21.32
232.625	-15.25
232.842	-12.26
233.059	-11.29
233.276	-16.42
233.493	-19.14
233.71	-7.29
233.927	-0.57
234.144	2.13
234.361	-1.76
234.578	-2.46
234.795	2.54
235.012	-2.13
235.229	-1.41
235.446	-3.46
235.663	1.99
235.879	6.88
236.096	3.6
236.313	2.08
236.53	0.3
236.747	3.67
236.964	1.21
237.181	-9.29
237.397	-9.62
237.614	-14.01
237.831	-12.15
238.048	-9.3
238.264	-10.46
238.481	-14.04
238.698	-4.33
238.915	4.33
239.131	6.74
239.348	6.77
239.565	10.62
239.781	12.92
239.998	11.08
240.215	9.52
240.431	5.81
240.648	7.36
240.865	9.18
241.081	8.04
241.298	3.68
241.514	5.98
241.731	7.36
241.947	7.72
242.164	7.78
242.38	10.58
242.597	11.06
242.814	12.2
243.03	11.29
243.246	12.42
243.463	12.82
243.679	12.83
243.896	13.05
244.112	12.2
244.329	11.14
244.545	12.21
244.762	10.28
244.978	10.53
245.194	9.27
245.411	8.94
245.627	8.08
245.843	7.77
246.06	9.01
246.276	8.77
246.492	10.56
246.709	10.68
246.925	9.8
247.141	9.64
247.357	9.15
247.574	9.16
247.79	9.98
248.006	10.05
248.222	9.84
248.439	9.15
248.655	8.38
248.871	7.78
249.087	8.1
249.303	7.23
249.519	6.64
249.736	6.34
249.952	7.13
250.168	7.44
250.384	6.56
250.6	5.97
250.816	4.81
251.032	4.89
251.248	3.44
251.464	0.21
251.68	1.24
251.896	0.79
252.112	0.14
252.328	-1.94
252.544	-4.52
252.76	-5.25
252.976	-6.89
253.192	-4.49
253.408	-4.41
253.624	-4.72
253.84	-1.95
254.056	-0.85
254.272	-0.42
254.487	-1.6
254.703	1.24
254.919	1.37
255.135	1.27
255.351	-0.83
255.567	3.62
255.782	2.27
255.998	5.29
256.214	5.11
256.43	5.89
256.646	6.92
256.861	10.7
257.077	6.68
257.293	9.08
257.508	12.45
257.724	15.09
257.94	12.14
258.155	11.73
258.371	10.44
258.587	7.89
258.802	7.67
259.018	8.01
259.234	7.69
259.449	8.52
259.665	7.82
259.88	6.54
260.096	6.69
260.312	6.89
260.527	7.38
260.743	7.03
260.958	7.94
261.174	7.84
261.389	7.38
261.605	7.32
261.82	6.67
262.036	5.79
262.251	5.29
262.466	5.04
262.682	3.67
262.897	1.75
263.113	2.62
263.328	3.98
263.543	3.12
263.759	-0.27
263.974	-1.9
264.189	-1.98
264.405	-0.4
264.62	-0.13
264.835	-1.23
265.051	1.17
265.266	2.7
265.481	3.78
265.696	0.19
265.912	-0.04
266.127	3.97
266.342	4.59
266.557	6.23
266.773	5.71
266.988	5.86
267.203	6.2
267.418	6.39
267.633	7.54
267.848	6.89
268.064	7.84
268.279	7.95
268.494	7.65
268.709	8.31
268.924	10.25
269.139	8.94
269.354	10.13
269.569	10.76
269.784	9.78
269.999	8.51
270.214	8.81
270.429	8.38
270.644	7.85
270.859	7.17
271.074	5.77
271.289	1.54
271.504	3.46
271.719	3.2
271.934	1.47
272.149	2.05
272.363	3.22
272.578	3.28
272.793	3.91
273.008	2.42
273.223	3.31
273.438	3.53
273.653	5
273.867	4.47
274.082	4.35
274.297	5.64
274.512	4.16
274.726	2.47
274.941	1.74
275.156	1.87
275.371	3.88
275.585	2.94
275.8	3.23
276.015	3.4
276.229	3.48
276.444	3.58
276.659	2.98
276.873	4.7
277.088	5.69
277.302	5.23
277.517	5.06
277.732	5.34
277.946	5.88
278.161	4.75
278.375	5.05
278.59	6.83
278.804	5.03
279.019	4.13
279.233	4.22
279.448	2.95
279.662	2.28
279.877	2.97
280.091	4.21
280.306	3.52
280.52	4.23
280.735	4.3
280.949	3.35
281.163	5.18
281.378	6.43
281.592	6.81
281.806	7.31
282.021	8.15
282.235	7.87
282.449	7.03
282.664	8.23
282.878	8.37
283.092	7.98
283.307	7.16
283.521	6.87
283.735	6.51
283.949	6.41
284.164	7.4
284.378	7.88
284.592	7.66
284.806	8.07
285.02	7.8
285.234	7.67
285.449	7.96
285.663	8.6
285.877	9.12
286.091	8.71
286.305	8.37
286.519	7.12
286.733	6.25
286.947	7.16
287.161	7.89
287.375	7.86
287.589	9.5
287.803	10.03
288.017	9.82
288.231	9.14
288.445	9.74
288.659	9.31
288.873	9.3
289.087	9.91
289.301	8.6
289.515	6.92
289.729	6.43
289.943	4.42
290.157	3.02
290.371	3.95
290.584	4.89
290.798	3.7
291.012	4.18
291.226	5.66
291.44	4.35
291.654	4.44
291.867	5.64
292.081	6.85
292.295	7.27
292.509	8.12
292.722	7.54
292.936	7.25
293.15	8.28
293.364	8.67
293.577	7.49
293.791	9.34
294.005	10.12
294.218	9.85
294.432	8.91
294.645	8.71
294.859	8.5
295.073	6.96
295.286	6.36
295.5	7.89
295.713	7.2
295.927	6.98
296.14	6.8
296.354	6.81
296.568	6.19
296.781	6.27
296.994	6.82
297.208	6.27
297.421	7.33
297.635	6.99
297.848	6.31
298.062	6.49
298.275	7.5
298.489	7.74
298.702	7.94
298.915	8.61
299.129	9.09
299.342	9.66
299.555	9.96
299.769	10.88
299.982	11.78
300.195	12.01
300.409	12.32
300.622	11.37
300.835	11.09
301.048	10.18
301.262	9.49
301.475	8.74
301.688	7.62
301.901	7.46
302.115	5.81
302.328	6.56
302.541	7.2
302.754	7.34
302.967	7.82
303.18	8.14
303.393	8.65
303.607	7.6
303.82	7.52
304.033	8.79
304.246	8.62
304.459	9.08
304.672	9.02
304.885	8.41
305.098	7.65
305.311	7.48
305.524	7.04
305.737	6.5
305.95	8.77
306.163	8.54
306.376	7.19
306.589	8.7
306.802	8.11
307.015	7.14
307.228	6.85
307.44	8.07
307.653	9.41
307.866	10.34
308.079	10.66
308.292	10.13
308.505	11.2
308.718	11.69
308.93	12.13
309.143	12.68
309.356	11.73
309.569	12.85
309.781	13.2
309.994	12.37
310.207	12.24
310.42	11.67
310.632	11.33
310.845	9.97
311.058	10.3
311.27	9.78
311.483	9.99
311.696	10.98
311.908	10.79
312.121	9.6
312.333	9.08
312.546	8.58
312.759	9.05
312.971	9.63
313.184	11.14
313.396	9.92
313.609	9.2
313.821	8.62
314.034	8.07
314.246	7.89
314.459	8.04
314.671	8.18
314.884	8.39
315.096	8.3
315.309	7.7
315.521	7.54
315.733	8.85
315.946	9.53
316.158	11.12
316.371	12.93
316.583	12.43
316.795	13.37
317.008	14.47
317.22	14.24
317.432	14.73
317.644	12.81
317.857	14.14
318.069	14.67
318.281	13.7
318.494	11.81
318.706	9.77
318.918	9.5
319.13	10.29
319.342	10.18
319.555	9.92
319.767	9.37
319.979	10.08
320.191	8.67
320.403	8.22
320.615	9.54
320.827	9.51
321.039	10.32
321.252	11.21
321.464	10.26
321.676	8.85
321.888	9.45
322.1	9.08
322.312	10.52
322.524	9.74
322.736	10.56
322.948	10.17
323.16	11.88
323.372	11.43
323.584	10.74
323.796	11.16
324.007	12.66
324.219	13.12
324.431	13.1
324.643	12.68
324.855	13.66
325.067	13.21
325.279	13.04
325.491	13.44
325.702	13.62
325.914	13.38
326.126	13.31
326.338	13.63
326.55	14.59
326.761	15.81
326.973	16.62
327.185	16.35
327.396	17.11
327.608	18.12
327.82	17.07
328.032	17.81
328.243	18.71
328.455	20.53
328.666	20.18
328.878	20.29
329.09	21.06
329.301	21.71
329.513	21.87
329.725	21.79
329.936	22.12
330.148	22.12
330.359	21.72
330.571	21.88
330.782	20.04
330.994	21.26
331.205	19.52
331.417	19.49
331.628	19.35
331.84	18.88
332.051	18.23
332.262	18.23
332.474	18.77
332.685	19.98
332.897	20.74
333.108	21.83
333.319	21.91
333.531	22.62
333.742	22.68
333.953	22.87
334.165	23.54
334.376	25.24
334.587	25.09
334.799	25.29
335.01	24.35
335.221	24.87
335.432	25.54
335.644	25.62
335.855	27.11
336.066	27.26
336.277	26.81
336.488	26.74
336.7	25.51
336.911	24.67
337.122	25.25
337.333	26.57
337.544	26.4
337.755	24.75
337.966	24.5
338.177	23.75
338.388	22.9
338.599	23.33
338.811	23.89
339.022	24.66
339.233	24.81
339.444	23.82
339.655	23.15
339.866	22.67
340.076	23.39
340.287	22.93
340.498	22.65
340.709	22.74
340.92	22.86
341.131	22.02
341.342	21.51
341.553	22.38
341.764	23.52
341.975	23.62
342.185	23.36
342.396	22.56
342.607	22.39
342.818	23.35
343.029	23.55
343.239	23.89
343.45	24.15
343.661	24.35
343.872	24.54
344.082	23.85
344.293	23.58
344.504	22.96
344.714	24.05
344.925	23.97
345.136	23.36
345.346	23.07
345.557	22.64
345.768	22.99
345.978	22.35
346.189	22.38
346.399	23.3
346.61	22.93
346.821	23.52
347.031	23.97
347.242	24.66
347.452	23.99
347.663	23.95
347.873	24.64
348.084	25.12
348.294	25.57
348.504	24.79
348.715	23.45
348.925	23.42
349.136	23.78
349.346	22.96
349.557	21.69
349.767	21.75
349.977	22.14
350.188	20.64
350.398	20.11
350.608	20.93
350.819	21.64
351.029	22.92
351.239	23.43
351.449	23.73
351.66	23.97
351.87	25.2
352.08	25.04
352.29	24.18
352.501	24.4
352.711	24.35
352.921	23.58
353.131	22.72
353.341	22.07
353.552	21.94
353.762	21.25
353.972	21.39
354.182	20
354.392	20.71
354.602	21.77
354.812	22.56
355.022	22.49
355.232	22.46
355.442	22.65
355.652	22.27
355.862	22.52
356.072	22.45
356.282	22.16
356.492	23.14
356.702	22.3
356.912	22.25
357.122	22.14
357.332	22.42
357.542	22.48
357.752	22.22
357.962	22.52
358.171	22.19
358.381	22.52
358.591	22.23
358.801	22.1
359.011	22.59
359.221	22.26
359.43	22.22
359.64	21.54
359.85	20.68
360.06	20.96
360.269	21.18
360.479	21.07
360.689	20.76
360.899	20.92
361.108	21.12
361.318	21.04
361.528	21.1
361.737	20.79
361.947	20.86
362.156	21.27
362.366	21.24
362.576	20.89
362.785	21.22
362.995	21.41
363.204	21.49
363.414	21.35
363.623	21.19
363.833	21
364.042	21.18
364.252	21.32
364.461	21.79
364.671	22.12
364.88	21.95
365.09	21.6
365.299	20.89
365.509	20.32
365.718	19.89
365.927	19.85
366.137	19.99
366.346	20.27
366.555	20.44
366.765	19.82
366.974	19.46
367.183	19.29
367.393	19.38
367.602	19.87
367.811	20.59
368.021	20.44
368.23	20.71
368.439	20.26
368.648	20.08
368.857	19.74
369.067	19.74
369.276	19.26
369.485	19.22
369.694	19
369.903	18.89
370.112	18.13
370.321	18.74
370.531	18.67
370.74	18.74
370.949	18.72
371.158	18.9
371.367	19.27
371.576	19.44
371.785	19.81
371.994	19.63
372.203	20.03
372.412	19.74
372.621	19.44
372.83	18.79
373.039	19.26
373.248	19.14
373.457	18.54
373.666	18.33
373.874	17.97
374.083	17.38
374.292	16.94
374.501	16.61
374.71	16.28
374.919	16.44
375.128	17.22
375.336	17.19
375.545	16.93
375.754	17.18
375.963	17.11
376.171	17.51
376.38	17.95
376.589	18.28
376.798	18.2
377.006	18.53
377.215	18.04
377.424	17.53
377.632	17.27
377.841	17.17
378.05	17.03
378.258	16.92
378.467	16.73
378.675	16.57
378.884	15.94
379.093	15.92
379.301	16.02
379.51	16.03
379.718	15.97
379.927	15.69
380.135	16.11
380.344	16.6
380.552	15.91
380.761	15.75
380.969	15.83
381.177	16.38
381.386	15.79
381.594	16.2
381.803	16.17
382.011	16.23
382.219	16.49
382.428	16.44
382.636	15.93
382.845	16.23
383.053	16.44
383.261	16.45
383.469	16.49
383.678	17.05
383.886	16.94
384.094	17.02
384.302	16.62
384.511	16.48
384.719	16.54
384.927	16.41
385.135	16.52
385.343	16.41
385.552	16.23
385.76	15.88
385.968	15.51
386.176	14.86
386.384	14.66
386.592	14.94
386.8	14.64
387.008	14.27
387.216	14.29
387.424	14.15
387.633	14.18
387.841	13.88
388.049	13.97
388.257	13.97
388.465	14.28
388.672	14.07
388.88	13.75
389.088	13.56
389.296	13.3
389.504	13.27
389.712	13.11
389.92	13.02
390.128	13.27
390.336	12.95
390.544	12.99
390.751	12.62
390.959	12.61
391.167	12.88
391.375	12.97
391.583	12.86
391.79	12.59
391.998	12.74
392.206	12.46
392.414	11.89
392.621	11.85
392.829	11.66
393.037	11.9
393.244	11.92
393.452	11.69
393.66	11.71
393.867	11.45
394.075	11.82
394.283	11.52
394.49	11.49
394.698	11.59
394.905	11.72
395.113	11.67
395.32	11.6
395.528	11.53
395.735	11.58
395.943	11.63
396.15	11.99
396.358	11.68
396.565	12.05
396.773	12.2
396.98	12.11
397.188	11.99
397.395	11.97
397.602	11.68
397.81	11.83
398.017	11.74
398.225	11.38
398.432	11.05
398.639	11.09
398.847	10.87
399.054	10.65
399.261	10.77
399.468	10.98
399.676	11.03
399.883	11.41
400.09	11.17
400.297	11.14
400.505	11.15
400.712	11.11
400.919	10.74
401.126	10.52
401.333	10.72
401.54	11.16
401.748	10.85
401.955	10.74
402.162	10.45
402.369	10.22
402.576	9.91
402.783	10.04
402.99	10.16
403.197	10.4
403.404	10.57
403.611	10.61
403.818	10.32
404.025	10.27
404.232	10.25
404.439	10.44
404.646	10.68
404.853	10.81
405.06	10.51
405.267	10.57
405.474	10.57
405.681	10.56
405.887	10.26
406.094	9.84
406.301	10.13
406.508	10.3
406.715	10.17
406.922	10.14
407.128	10.47
407.335	10.73
407.542	10.62
407.749	10.75
407.955	10.56
408.162	10.9
408.369	11.11
408.575	10.97
408.782	10.81
408.989	10.66
409.195	10.55
409.402	10.39
409.609	10.32
409.815	10.33
410.022	10.07
410.228	10
410.435	9.85
410.642	9.95
410.848	9.74
411.055	9.78
411.261	9.86
411.468	9.91
411.674	9.65
411.881	9.66
412.087	9.71
412.294	9.96
412.5	10.27
412.706	10.12
412.913	9.74
413.119	10.01
413.326	10.09
413.532	10.2
413.738	10.17
413.945	10.14
414.151	10.34
414.357	10.31
414.564	10.31
414.77	9.91
414.976	10.19
415.182	10.42
415.389	10.4
415.595	10.34
415.801	10.2
416.007	10.35
416.214	10.45
416.42	10.35
416.626	10.26
416.832	10.05
417.038	10.21
417.244	9.95
417.45	9.99
417.657	9.81
417.863	9.78
418.069	9.89
418.275	9.62
418.481	9.66
418.687	9.68
418.893	9.92
419.099	10.05
419.305	9.99
419.511	10.05
419.717	10.05
419.923	10.01
420.129	10.01
420.335	9.91
420.541	10.14
420.746	10.12
420.952	10.02
421.158	9.77
421.364	9.6
421.57	9.69
421.776	9.69
421.982	9.54
422.187	9.57
422.393	9.61
422.599	9.68
422.805	9.51
423.01	9.6
423.216	9.64
423.422	9.72
423.628	9.79
423.833	9.7
424.039	9.88
424.245	10.04
424.45	10.02
424.656	9.99
424.862	9.9
425.067	9.96
425.273	9.84
425.478	9.86
425.684	9.79
425.889	9.73
426.095	9.98
426.301	9.61
426.506	9.55
426.712	9.58
426.917	9.5
427.123	9.39
427.328	9.4
427.533	9.36
427.739	9.21
427.944	9.34
428.15	9.32
428.355	9.04
428.561	9.14
428.766	9.22
428.971	9.17
429.177	9.36
429.382	9.62
429.587	9.49
429.793	9.6
429.998	9.85
430.203	9.67
430.408	9.79
430.614	9.59
430.819	9.77
431.024	9.75
431.229	9.75
431.434	9.4
431.64	9.35
431.845	9.33
432.05	9.18
432.255	8.92
432.46	9.02
432.665	8.85
432.87	9.07
433.076	8.97
433.281	8.84
433.486	8.88
433.691	8.97
433.896	8.92
434.101	8.88
434.306	8.78
434.511	8.85
434.716	8.85
434.921	8.88
435.126	8.72
435.331	8.76
435.535	8.83
435.74	8.81
435.945	8.87
436.15	8.72
436.355	8.73
436.56	8.98
436.765	9.1
436.97	9.07
437.174	9.16
437.379	9.31
437.584	9.16
437.789	9.36
437.993	9.52
438.198	9.25
438.403	9.42
438.608	9.42
438.812	9.26
439.017	9.1
439.222	9.22
439.426	9.22
439.631	9.06
439.836	9.03
440.04	8.97
440.245	8.81
440.45	8.89
440.654	8.83
440.859	8.78
441.063	8.86
441.268	8.9
441.472	8.86
441.677	8.92
441.881	9.03
442.086	9.12
442.29	8.97
442.495	8.99
442.699	9.15
442.904	9.24
443.108	9.31
443.312	9.36
443.517	9.39
443.721	9.13
443.925	9.05
444.13	9
444.334	8.96
444.538	9.1
444.743	9.05
444.947	8.92
445.151	8.87
445.356	8.89
445.56	8.94
445.764	9.11
445.968	9.19
446.173	9.1
446.377	8.95
446.581	8.91
446.785	8.73
446.989	8.7
447.193	8.73
447.398	8.78
447.602	8.85
447.806	8.74
448.01	8.65
448.214	8.72
448.418	8.66
448.622	8.72
448.826	8.65
449.03	8.88
449.234	9.04
449.438	9.07
449.642	8.91
449.846	8.75
450.05	8.77
450.254	8.54
450.458	8.39
450.662	8.66
450.866	8.68
451.069	8.97
451.273	8.62
451.477	8.62
451.681	8.59
451.885	8.81
452.089	8.77
452.292	8.85
452.496	8.9
452.7	9.04
452.904	8.99
453.107	8.94
453.311	8.81
453.515	9.06
453.719	8.88
453.922	8.79
454.126	8.57
454.33	8.59
454.533	8.41
454.737	8.33
454.94	8.19
455.144	8.02
455.348	8.17
455.551	8.11
455.755	8.06
455.958	8.14
456.162	8.19
456.365	8.26
456.569	8.43
456.772	8.64
456.976	8.81
457.179	8.86
457.383	9.01
457.586	9.13
457.79	9.3
457.993	9.26
458.196	9.2
458.4	9.15
458.603	9.01
458.807	8.96
459.01	8.96
459.213	8.92
459.417	9.01
459.62	8.88
459.823	8.73
460.026	8.52
460.23	8.49
460.433	8.38
460.636	8.46
460.839	8.54
461.042	8.48
461.246	8.45
461.449	8.42
461.652	8.34
461.855	8.41
462.058	8.34
462.261	8.56
462.464	8.65
462.668	8.87
462.871	8.86
463.074	8.87
463.277	8.93
463.48	8.74
463.683	8.66
463.886	8.61
464.089	8.57
464.292	8.7
464.495	8.56
464.698	8.63
464.901	8.55
465.104	8.5
465.306	8.57
465.509	8.59
465.712	8.63
465.915	8.7
466.118	8.67
466.321	8.63
466.524	8.45
466.726	8.48
466.929	8.26
467.132	8.31
467.335	8.14
467.538	8.06
467.74	7.94
467.943	7.86
468.146	7.92
468.348	8.11
468.551	8.28
468.754	8.44
468.956	8.56
469.159	8.6
469.362	8.7
469.564	8.81
469.767	8.69
469.969	8.95
470.172	9.2
470.375	9
470.577	8.85
470.78	8.67
470.982	8.67
471.185	8.56
471.387	8.55
471.59	8.45
471.792	8.35
471.995	8.49
472.197	8.17
472.399	7.98
472.602	8.01
472.804	8.1
473.007	8.11
473.209	8.22
473.411	8.13
473.614	8.3
473.816	8.21
474.018	8.34
474.22	8.42
474.423	8.52
474.625	8.59
474.827	8.61
475.03	8.44
475.232	8.52
475.434	8.5
475.636	8.66
475.838	8.46
476.04	8.58
476.243	8.53
476.445	8.44
476.647	8.44
476.849	8.29
477.051	8.38
477.253	8.42
477.455	8.3
477.657	8.26
477.859	8.14
478.061	8.25
478.263	8.22
478.465	8.2
478.667	8.23
478.869	8.24
479.071	8.39
479.273	8.49
479.475	8.61
479.677	8.68
479.879	8.64
480.081	8.71
480.283	8.73
480.485	8.63
480.686	8.73
480.888	8.79
481.09	8.87
481.292	8.84
481.494	8.7
481.695	8.69
481.897	8.78
482.099	8.72
482.301	8.74
482.502	8.72
482.704	8.73
482.906	8.77
483.107	8.77
483.309	8.72
483.511	8.71
483.712	8.75
483.914	8.74
484.115	8.72
484.317	8.75
484.519	8.71
484.72	8.67
484.922	8.67
485.123	8.64
485.325	8.55
485.526	8.57
485.728	8.59
485.929	8.53
486.131	8.46
486.332	8.43
486.534	8.39
486.735	8.38
486.936	8.42
487.138	8.52
487.339	8.5
487.541	8.65
487.742	8.59
487.943	8.55
488.144	8.6
488.346	8.65
488.547	8.63
488.748	8.61
488.95	8.71
489.151	8.69
489.352	8.57
489.553	8.64
489.755	8.59
489.956	8.69
490.157	8.76
490.358	8.77
490.559	8.79
490.76	8.74
490.961	8.84
491.163	8.75
491.364	8.79
491.565	8.81
491.766	8.78
491.967	8.71
492.168	8.72
492.369	8.67
492.57	8.64
492.771	8.66
492.972	8.74
493.173	8.77
493.374	8.81
493.575	8.89
493.776	9.01
493.976	8.94
494.177	8.82
494.378	8.83
494.579	8.97
494.78	9.01
494.981	8.95
495.182	8.99
495.382	8.98
495.583	8.82
495.784	8.73
495.985	8.71
496.185	8.77
496.386	8.99
496.587	8.94
496.788	8.9
496.988	8.93
497.189	8.91
497.39	8.89
497.59	8.77
497.791	8.84
497.992	8.98
498.192	8.93
498.393	9.01
498.593	9
498.794	8.88
498.994	8.86
499.195	8.66
499.395	8.75
499.596	8.83
499.796	8.86
499.997	9.09
500.197	8.93
500.398	8.85
500.598	8.81
500.799	8.92
500.999	9.04
501.199	9.06
501.4	9.11
501.6	9.05
501.801	8.92
502.001	9.02
502.201	8.91
502.402	8.92
502.602	8.9
502.802	8.78
503.002	8.62
503.203	8.77
503.403	8.72
503.603	8.8
503.803	8.87
504.003	8.91
504.204	8.89
504.404	9.11
504.604	9.21
504.804	9.32
505.004	9.43
505.204	9.47
505.404	9.46
505.604	9.58
505.804	9.77
506.005	9.69
506.205	9.89
506.405	9.96
506.605	9.78
506.805	9.72
507.005	9.73
507.204	9.86
507.404	9.87
507.604	9.78
507.804	9.76
508.004	9.72
508.204	9.86
508.404	9.82
508.604	9.89
508.804	9.96
509.003	10.18
509.203	10.23
509.403	10.26
509.603	10.22
509.803	10.3
510.002	10.28
510.202	10.39
510.402	10.3
510.602	10.3
510.801	10.29
511.001	10.22
511.201	10.02
511.4	10.01
511.6	10.12
511.8	10.29
511.999	10.33
512.199	10.34
512.398	10.11
512.598	10.29
512.797	10.36
512.997	10.35
513.197	10.48
513.396	10.55
513.596	10.7
513.795	10.75
513.994	10.6
514.194	10.7
514.393	10.97
514.593	11.28
514.792	11.28
514.992	11.28
515.191	11.35
515.39	11.38
515.59	11.54
515.789	11.62
515.988	11.6
516.188	11.93
516.387	12.13
516.586	12.11
516.786	12.05
516.985	12.18
517.184	12.33
517.383	12.35
517.582	12.43
517.782	12.48
517.981	12.49
518.18	12.49
518.379	12.52
518.578	12.43
518.777	12.4
518.976	12.5
519.176	12.54
519.375	12.54
519.574	12.69
519.773	12.64
519.972	12.61
520.171	12.69
520.37	12.83
520.569	12.91
520.768	13.11
520.967	13.29
521.166	13.36
521.365	13.42
521.564	13.42
521.762	13.47
521.961	13.65
522.16	14.05
522.359	14.2
522.558	14.32
522.757	14.33
522.956	14.3
523.154	14.51
523.353	14.56
523.552	14.73
523.751	14.99
523.949	15.14
524.148	15.32
524.347	15.14
524.546	15.18
524.744	15.34
524.943	15.45
525.142	15.49
525.34	15.44
525.539	15.43
525.737	15.66
525.936	15.77
526.135	15.83
526.333	15.9
526.532	16.1
526.73	16.2
526.929	16.17
527.127	16.28
527.326	16.41
527.524	16.46
527.723	16.69
527.921	16.67
528.12	16.71
528.318	16.74
528.516	16.78
528.715	16.83
528.913	16.94
529.112	16.95
529.31	17.06
529.508	17.16
529.707	17.33
529.905	17.34
530.103	17.38
530.301	17.42
530.5	17.58
530.698	17.63
530.896	17.74
531.094	17.79
531.293	17.89
531.491	17.92
531.689	17.96
531.887	17.98
532.085	18.14
532.283	18.22
532.481	18.38
532.68	18.5
532.878	18.72
533.076	18.74
533.274	18.79
533.472	18.94
533.67	19.07
533.868	19.08
534.066	19.12
534.264	19.23
534.462	19.4
534.66	19.44
534.858	19.45
535.056	19.47
535.253	19.55
535.451	19.72
535.649	19.85
535.847	19.84
536.045	20.03
536.243	20.14
536.441	20.27
536.638	20.21
536.836	20.34
537.034	20.43
537.232	20.54
537.43	20.58
537.627	20.49
537.825	20.55
538.023	20.56
538.22	20.6
538.418	20.64
538.616	20.67
538.813	20.79
539.011	20.82
539.209	20.92
539.406	21.06
539.604	21.31
539.801	21.47
539.999	21.58
540.196	21.76
540.394	21.97
540.591	22.16
540.789	22.18
540.986	22.27
541.184	22.42
541.381	22.47
541.579	22.37
541.776	22.38
541.974	22.48
542.171	22.51
542.368	22.62
542.566	22.6
542.763	22.65
542.96	22.63
543.158	22.81
543.355	22.87
543.552	22.92
543.75	23.19
543.947	23.24
544.144	23.35
544.341	23.42
544.539	23.33
544.736	23.5
544.933	23.48
545.13	23.49
545.327	23.35
545.524	23.46
545.722	23.47
545.919	23.41
546.116	23.44
546.313	23.48
546.51	23.56
546.707	23.79
546.904	23.69
547.101	23.73
547.298	23.84
547.495	23.89
547.692	23.92
547.889	23.95
548.086	23.97
548.283	23.99
548.48	23.98
548.677	23.96
548.874	23.9
549.07	23.98
549.267	24.14
549.464	24.36
549.661	24.42
549.858	24.39
550.055	24.47
550.251	24.57
550.448	24.6
550.645	24.61
550.842	24.73
551.038	24.74
551.235	24.92
551.432	24.91
551.628	25.04
551.825	25.18
552.022	25.15
552.218	25.21
552.415	25.2
552.612	25.42
552.808	25.42
553.005	25.65
553.201	25.76
553.398	25.53
553.594	25.56
553.791	25.55
553.987	25.48
554.184	25.63
554.38	25.71
554.577	25.93
554.773	26.04
554.97	25.99
555.166	25.98
555.362	26.05
555.559	26.29
555.755	26.47
555.952	26.34
556.148	26.46
556.344	26.3
556.541	26.25
556.737	26.14
556.933	26.17
557.129	26.24
557.326	26.38
557.522	26.58
557.718	26.89
557.914	27.09
558.11	27.45
558.307	27.49
558.503	27.74
558.699	27.98
558.895	28.05
559.091	27.98
559.287	28.36
559.483	28.43
559.679	28.24
559.876	28.08
560.072	28.05
560.268	27.83
560.464	28
560.66	28.13
560.856	28.2
561.052	28.29
561.247	28.5
561.443	28.37
561.639	28.27
561.835	28.29
562.031	28.4
562.227	28.22
562.423	28.43
562.619	28.44
562.815	28.42
563.01	28.36
563.206	28.6
563.402	28.51
563.598	28.54
563.793	28.6
563.989	28.82
564.185	28.6
564.381	28.79
564.576	28.76
564.772	28.73
564.968	28.66
565.163	28.62
565.359	28.63
565.555	28.69
565.75	28.83
565.946	29.04
566.141	28.99
566.337	29.13
566.532	28.96
566.728	29.05
566.923	28.99
567.119	29.14
567.314	29.26
567.51	29.26
567.705	29.18
567.901	29.02
568.096	28.88
568.292	28.92
568.487	28.92
568.682	28.88
568.878	28.94
569.073	29.04
569.268	29.09
569.464	29.23
569.659	29.18
569.854	29.38
570.05	29.62
570.245	29.56
570.44	29.59
570.635	29.76
570.831	29.92
571.026	29.77
571.221	29.8
571.416	29.66
571.611	29.54
571.806	29.53
572.002	29.65
572.197	29.69
572.392	29.81
572.587	29.77
572.782	29.87
572.977	29.94
573.172	30.06
573.367	29.96
573.562	30.08
573.757	30.02
573.952	29.99
574.147	29.91
574.342	30.02
574.537	29.97
574.732	30.26
574.927	30.22
575.121	30.17
575.316	30.22
575.511	30.42
575.706	30.5
575.901	30.63
576.096	30.73
576.29	30.53
576.485	30.62
576.68	30.92
576.875	30.93
577.069	30.8
577.264	30.94
577.459	30.86
577.654	31.02
577.848	30.86
578.043	31.08
578.238	31.35
578.432	31.49
578.627	31.24
578.821	30.95
579.016	30.69
579.21	31.03
579.405	31.01
579.6	30.93
579.794	30.9
579.989	31.02
580.183	30.53
580.378	30.35
580.572	30.49
580.766	30.46
580.961	30.63
581.155	30.78
581.35	30.61
581.544	30.75
581.738	30.95
581.933	30.92
582.127	30.8
582.321	31.21
582.516	30.92
582.71	30.96
582.904	31.08
583.099	30.75
583.293	30.89
583.487	30.89
583.681	30.76
583.875	30.64
584.07	30.68
584.264	31.15
584.458	30.99
584.652	31.13
584.846	31.21
585.04	31.11
585.234	31.41
585.428	31.34
585.623	31.61
585.817	31.72
586.011	31.65
586.205	31.56
586.399	31.29
586.593	31.36
586.787	31.71
586.981	31.93
587.174	31.97
587.368	31.86
587.562	31.71
587.756	31.47
587.95	31.42
588.144	31.85
588.338	31.7
588.532	31.62
588.725	31.89
588.919	31.79
589.113	31.6
589.307	31.69
589.501	31.79
589.694	32.09
589.888	32.23
590.082	32.31
590.275	32.18
590.469	32.39
590.663	32.46
590.856	32.35
591.05	32.43
591.244	32.41
591.437	32.49
591.631	32.25
591.824	32.37
592.018	32.14
592.212	32
592.405	32.23
592.599	31.95
592.792	31.92
592.986	31.92
593.179	32.13
593.372	32.19
593.566	32.13
593.759	32.31
593.953	32.22
594.146	32.39
594.339	32.54
594.533	32.51
594.726	32.87
594.92	33.06
595.113	32.96
595.306	32.68
595.499	32.7
595.693	32.98
595.886	33.02
596.079	32.87
596.272	32.85
596.466	32.88
596.659	32.88
596.852	32.87
597.045	33.02
597.238	33.15
597.431	33.4
597.624	33.38
597.818	33.24
598.011	33.32
598.204	33.3
598.397	33.48
598.59	33.46
598.783	33.43
598.976	33.58
599.169	33.52
599.362	33.58
599.555	33.18
599.748	33.35
599.941	33.06
600.134	33.19
600.326	33.19
600.519	33.04
600.712	33
600.905	33.15
601.098	32.62
601.291	32.41
601.483	32.44
601.676	32.65
601.869	32.78
602.062	32.86
602.255	32.7
602.447	33.06
602.64	33.35
602.833	33.58
603.025	33.41
603.218	33.54
603.411	33.79
603.603	33.92
603.796	33.96
603.989	33.86
604.181	34.03
604.374	34.36
604.566	34.08
604.759	33.69
604.951	33.91
605.144	34
605.336	34.15
605.529	34.08
605.721	34.15
605.914	34.12
606.106	33.93
606.299	33.79
606.491	33.61
606.683	33.76
606.876	33.94
607.068	33.72
607.26	33.54
607.453	33.61
607.645	33.5
607.837	33.27
608.03	33.36
608.222	33.66
608.414	33.99
608.606	34.12
608.799	33.94
608.991	34.18
609.183	33.98
609.375	34.07
609.567	34.07
609.759	34.03
609.952	34.08
610.144	34.19
610.336	34.2
610.528	34.05
610.72	33.83
610.912	34.03
611.104	34.03
611.296	34.02
611.488	34.17
611.68	33.94
611.872	33.78
612.064	33.56
612.256	33.21
612.448	33.02
612.64	33.09
612.832	32.99
613.023	32.94
613.215	32.68
613.407	32.77
613.599	32.41
613.791	32.84
613.983	33.21
614.174	33.69
614.366	34.02
614.558	34.36
614.75	34.23
614.941	34.38
615.133	34.44
615.325	34.68
615.516	34.63
615.708	34.95
615.9	34.73
616.091	34.65
616.283	34.67
616.475	34.97
616.666	34.73
616.858	34.96
617.049	35.34
617.241	35.53
617.432	35.2
617.624	35.4
617.815	35.39
618.007	35.63
618.198	35.65
618.39	35.29
618.581	34.87
618.773	34.91
618.964	34.91
619.155	34.75
619.347	34.64
619.538	34.82
619.729	34.68
619.921	34.74
620.112	34.62
620.303	34.57
620.494	34.58
620.686	34.78
620.877	34.83
621.068	34.66
621.259	34.59
621.451	34.4
621.642	34.49
621.833	34.72
622.024	34.7
622.215	34.95
622.406	34.97
622.597	34.92
622.788	34.62
622.98	34.39
623.171	34.55
623.362	34.58
623.553	34.44
623.744	34.38
623.935	34.26
624.126	34.16
624.317	33.62
624.508	33.84
624.698	33.9
624.889	33.96
625.08	34.22
625.271	34.1
625.462	34.04
625.653	34.37
625.844	34.24
626.034	34.34
626.225	34.47
626.416	34.77
626.607	34.71
626.798	34.94
626.988	35.3
627.179	35.39
627.37	35.73
627.56	35.84
627.751	35.86
627.942	36.17
628.132	36.25
628.323	36.07
628.514	36.03
628.704	36.18
628.895	35.92
629.085	35.5
629.276	35.41
629.466	35.26
629.657	34.97
629.847	34.95
630.038	34.63
630.228	34.62
630.419	35.14
630.609	35.34
630.8	35.1
630.99	35.09
631.181	35.06
631.371	35.03
631.561	34.93
631.752	35.17
631.942	35.17
632.132	35.3
632.323	35.15
632.513	34.83
632.703	34.92
632.893	35.03
633.084	35.19
633.274	35.44
633.464	35.39
633.654	35.43
633.844	35.41
634.034	35.23
634.225	35.33
634.415	35.48
634.605	35.36
634.795	35.27
634.985	35.45
635.175	35.6
635.365	35.67
635.555	35.65
635.745	35.41
635.935	35.33
636.125	35.67
636.315	35.82
636.505	35.85
636.695	35.87
636.885	35.95
637.075	35.87
637.265	36.01
637.455	35.97
637.644	36.34
637.834	36.3
638.024	36.15
638.214	36.24
638.404	35.86
638.593	35.69
638.783	35.76
638.973	35.38
639.163	35.29
639.352	35.22
639.542	35.36
639.732	35.21
639.921	35.09
640.111	35.48
640.301	35.04
640.49	35.1
640.68	35.41
640.87	35.57
641.059	35.71
641.249	35.79
641.438	35.45
641.628	35.2
641.817	35.32
642.007	35.52
642.196	35.94
642.386	36.58
642.575	36.42
642.764	36.08
642.954	35.9
643.143	36.12
643.333	36.31
643.522	35.98
643.711	36.16
643.901	35.98
644.09	36.34
644.279	35.93
644.469	35.56
644.658	35.65
644.847	35.65
645.036	35.55
645.226	35.34
645.415	35.2
645.604	35.72
645.793	35.99
645.982	36.04
646.171	35.74
646.361	35.2
646.55	34.98
646.739	35.29
646.928	35.24
647.117	35.29
647.306	35.33
647.495	35.35
647.684	35.19
647.873	35.26
648.062	35.29
648.251	35.58
648.44	35.96
648.629	36.19
648.818	35.7
649.007	35.85
649.196	35.87
649.384	35.33
649.573	35.67
649.762	35.81
649.951	35.77
650.14	35.28
650.328	35.07
650.517	34.87
650.706	34.23
650.895	34.46
651.083	34.68
651.272	34.84
651.461	35.49
651.65	34.82
651.838	34.95
652.027	34.46
652.216	35.11
652.404	35.39
652.593	35.93
652.781	36.56
652.97	36.76
653.158	36.54
653.347	36.62
653.535	36.54
653.724	36.83
653.912	36.68
654.101	37.15
654.289	36.61
654.478	36.61
654.666	36
654.855	36.59
655.043	36.8
655.231	36.91
655.42	36.81
655.608	36.84
655.796	36.74
655.985	36.82
656.173	36.3
656.361	36.96
656.55	36.74
656.738	37.23
656.926	36.52
657.114	36.04
657.302	35.92
657.491	36.07
657.679	35.79
657.867	36.14
658.055	36.23
658.243	36.31
658.431	35.86
658.619	35.88
658.807	35.55
658.996	35.42
659.184	35.62
659.372	35.51
659.56	35.32
659.748	35.46
659.936	35.31
660.124	35.3
660.311	35.39
660.499	35.7
660.687	35.69
660.875	36.02
661.063	36.33
661.251	36.5
661.439	36.41
661.627	36.77
661.814	37.35
662.002	37.18
662.19	36.86
662.378	37.4
662.565	37.31
662.753	37.69
662.941	37.68
663.129	37.2
663.316	37.09
663.504	37.44
663.692	36.92
663.879	36.32
664.067	36.44
664.254	36.86
664.442	36.23
664.63	36.52
664.817	36.13
665.005	35.81
665.192	36.29
665.38	36.11
665.567	36.38
665.755	36.99
665.942	37.03
666.13	36.96
666.317	36.74
666.504	36.79
666.692	36.32
666.879	36.54
667.067	36.81
667.254	36.41
667.441	36.62
667.629	36.59
667.816	36.37
668.003	36.21
668.19	36.48
668.378	36.76
668.565	36.78
668.752	37
668.939	36.67
669.127	36.33
669.314	36.33
669.501	36.47
669.688	36.56
669.875	36.32
670.062	36.44
670.249	36.41
670.436	36.18
670.623	36.33
670.81	36.12
670.997	36.65
671.184	36.66
671.371	37.02
671.558	36.57
671.745	36.71
671.932	36.89
672.119	36.77
672.306	36.69
672.493	36.78
672.68	36.72
672.867	36.67
673.054	36.31
673.24	36.49
673.427	36.38
673.614	36.57
673.801	35.78
673.988	35.74
674.174	36.18
674.361	35.96
674.548	35.82
674.734	35.84
674.921	36.16
675.108	36.35
675.294	36.85
675.481	36.62
675.668	36.83
675.854	37.06
676.041	37.06
676.227	36.69
676.414	36.98
676.601	37.15
676.787	37.38
676.974	37.29
677.16	37.11
677.347	37.26
677.533	37.68
677.719	37.39
677.906	37.28
678.092	37.45
678.279	37.89
678.465	37.62
678.651	37.66
678.838	37.78
679.024	37.97
679.21	38.07
679.397	38
679.583	37.42
679.769	37.68
679.955	37.78
680.142	37.9
680.328	37.87
680.514	37.94
680.7	37.34
680.886	37.09
681.073	36.7
681.259	36.34
681.445	35.57
681.631	35.76
681.817	35.05
682.003	34.92
682.189	34.61
682.375	34.22
682.561	34.24
682.747	34.78
682.933	34.36
683.119	34.6
683.305	34.85
683.491	35.64
683.677	36.09
683.863	36.95
684.049	37.25
684.235	36.87
684.42	36.93
684.606	37.04
684.792	36.74
684.978	37.1
685.164	37.28
685.349	36.92
685.535	36.47
685.721	36.43
685.907	36.66
686.092	36.81
686.278	37.37
686.464	37.45
686.649	36.98
686.835	37.51
687.021	37.09
687.206	36.83
687.392	37.31
687.577	37.33
687.763	37.27
687.948	36.78
688.134	36.75
688.319	36.2
688.505	35.79
688.69	36.1
688.876	35.8
689.061	36.41
689.247	36.57
689.432	36.42
689.618	36.37
689.803	36.44
689.988	36.75
690.174	36.75
690.359	36.98
690.544	36.95
690.73	36.35
690.915	36.41
691.1	36.41
691.285	36.47
691.471	36.55
691.656	37.15
691.841	37.18
692.026	36.71
692.211	36.55
692.396	36.25
692.582	36.86
692.767	37.26
692.952	37.49
693.137	36.98
693.322	36.91
693.507	37.13
693.692	36.97
693.877	36.62
694.062	36.67
694.247	37.25
694.432	38.31
694.617	37.79
694.802	38.19
694.987	38.17
695.172	38.7
695.357	38.24
695.541	38.17
695.726	37.81
695.911	37.93
696.096	38.03
696.281	37.63
696.466	37.14
696.65	38.11
696.835	37.9
697.02	37.53
697.204	37.16
697.389	37.24
697.574	37.52
697.759	37.89
697.943	37.86
698.128	38.11
698.312	37.84
698.497	37.87
698.682	37.51
698.866	37.23
699.051	37.28
699.235	37.35
699.42	37.49
699.604	36.92
699.789	36.8
699.973	36.65
700.158	36.49
700.342	36.71
700.527	36.51
700.711	36.32
700.895	36.43
701.08	36.55
701.264	36.46
701.448	36.39
701.633	36.73
701.817	36.1
702.001	36.16
702.186	36.41
702.37	36.28
702.554	36.16
702.738	36.35
702.923	37.23
703.107	37.18
703.291	37.16
703.475	36.5
703.659	36.48
703.843	37.12
704.027	37.39
704.212	36.59
704.396	36.11
704.58	36.74
704.764	36.12
704.948	35.2
705.132	34.84
705.316	35.29
705.5	36.18
705.684	36.34
705.868	36.9
706.052	36.85
706.235	37.28
706.419	37.16
706.603	37.35
706.787	38.06
706.971	38.66
707.155	39.3
707.339	40.05
707.522	39.72
707.706	39.15
707.89	38.71
708.074	38.77
708.257	39.08
708.441	39.93
708.625	39.62
708.808	40.09
708.992	39.93
709.176	39.82
709.359	38.88
709.543	38.84
709.727	39.12
709.91	38.8
710.094	38.67
710.277	38.95
710.461	38.4
710.644	37.73
710.828	36.84
711.011	36.46
711.195	36.38
711.378	36.5
711.562	36.44
711.745	36.43
711.928	37.25
712.112	36.92
712.295	36
712.478	36.68
712.662	37.25
712.845	37.05
713.028	37.64
713.212	37.81
713.395	37.44
713.578	37.42
713.761	37.5
713.945	36.95
714.128	36.98
714.311	37.56
714.494	37.17
714.677	36.29
714.86	37.8
715.043	37.27
715.227	37.26
715.41	37.2
715.593	37.51
715.776	37.9
715.959	38.07
716.142	37.96
716.325	37.17
716.508	36.76
716.691	37.12
716.874	36.25
717.057	36.78
717.239	36.22
717.422	36.46
717.605	36.7
717.788	36.05
717.971	35.85
718.154	35.58
718.337	36.28
718.519	36.88
718.702	37.1
718.885	37.28
719.068	37.37
719.25	37.97
719.433	37.94
719.616	36.9
719.798	37.66
719.981	36.67
720.164	37.69
720.346	38.33
720.529	37.12
720.712	37.34
720.894	36.48
721.077	35.56
721.259	34.5
721.442	33.98
721.624	35.42
721.807	35.2
721.989	36.33
722.172	36.68
722.354	36.28
722.537	37.15
722.719	37.25
722.901	37.94
723.084	39.6
723.266	40.05
723.448	40.58
723.631	40.37
723.813	40.55
723.995	38.94
724.178	38.64
724.36	39.39
724.542	39.81
724.724	40.1
724.907	40.15
725.089	39.38
725.271	39.11
725.453	38.77
725.635	37.16
725.817	37.53
725.999	38.24
726.181	38
726.364	37.13
726.546	37.58
726.728	37.37
726.91	36.8
727.092	36.14
727.274	37.03
727.456	36.95
727.638	38.58
727.819	37.71
728.001	38.52
728.183	38.85
728.365	38.6
728.547	37.17
728.729	36.95
728.911	37.49
729.093	38.16
729.274	38.34
729.456	38.3
729.638	37.95
729.82	38.28
730.001	37.94
730.183	38.13
730.365	38.87
730.546	40.48
730.728	40.72
730.91	40.12
731.091	38.01
731.273	38.31
731.455	38.99
731.636	38.77
731.818	38.69
731.999	38.51
732.181	37.99
732.362	37.17
732.544	36.02
732.725	36.4
732.907	36.91
733.088	38.08
733.27	37.19
733.451	36.92
733.633	36.8
733.814	36.52
733.995	37.21
734.177	36.73
734.358	37.88
734.539	38.1
734.721	37.37
734.902	37.54
735.083	37.67
735.264	38.07
735.446	38.51
735.627	38.57
735.808	39.34
735.989	37.94
736.17	38.25
736.351	36.5
736.533	37.38
736.714	37.36
736.895	37.57
737.076	38.34
737.257	37.95
737.438	37.59
737.619	37.35
737.8	37.44
737.981	38.78
738.162	39.19
738.343	39.95
738.524	39.83
738.705	39.91
738.886	38.51
739.067	37.3
739.247	37.26
739.428	37.47
739.609	38.73
739.79	38.39
739.971	38.91
740.151	38.32
740.332	38
740.513	37.94
740.694	38.32
740.874	39.5
741.055	39.87
741.236	40.43
741.417	40.23
741.597	39.92
741.778	38.72
741.958	36.76
742.139	36.93
742.32	37.36
742.5	36.04
742.681	35.19
742.861	34.6
743.042	34.31
743.222	34.52
743.403	33.24
743.583	32.37
743.764	33.39
743.944	33.71
744.124	34.34
744.305	35.3
744.485	36.36
744.666	36.3
744.846	36.44
745.026	37.67
745.207	37.21
745.387	38.33
745.567	38.17
745.747	37.11
745.928	38.28
746.108	36.94
746.288	35.8
746.468	36.58
746.648	37.79
746.829	38.37
747.009	37.95
747.189	38.13
747.369	37.97
747.549	38.54
747.729	38.87
747.909	38.08
748.089	39.04
748.269	38.83
748.449	38.05
748.629	37.88
748.809	37.28
748.989	38.83
749.169	38.18
749.349	38.98
749.529	38.16
749.709	38.85
749.889	38.67
750.068	37.63
750.248	37.82
750.428	37.17
750.608	36.31
750.788	37.45
750.967	35.44
751.147	36.49
751.327	37.84
751.507	38.26
751.686	37.3
751.866	38.31
752.046	38.18
752.225	38.9
752.405	40.11
752.585	42.11
752.764	41.15
752.944	42.64
753.123	41.91
753.303	38.61
753.482	39.03
753.662	40.52
753.841	39.49
754.021	40.01
754.2	39.7
754.38	39.53
754.559	38.12
754.739	37.93
754.918	37.08
755.097	37.14
755.277	38.38
755.456	38.38
755.635	37.59
755.815	38.11
755.994	38.53
756.173	38.61
756.352	37.17
756.532	37.55
756.711	37.49
756.89	37.23
757.069	37.34
757.248	37.09
757.427	36.43
757.607	35.98
757.786	36.73
757.965	36.72
758.144	36.25
758.323	36.44
758.502	38.24
758.681	39.44
758.86	38.64
759.039	38.02
759.218	38.46
759.397	38.69
759.576	38.67
759.755	37.83
759.934	37.37
760.113	37.09
760.291	37.97
760.47	35.77
760.649	34.8
760.828	36.09
761.007	36.46
761.186	37.84
761.364	38.04
761.543	39.17
761.722	39.68
761.901	41.05
762.079	41.68
762.258	40.84
762.437	40.83
762.615	40.39
762.794	40.77
762.972	41.1
763.151	39.88
763.33	39.62
763.508	38.92
763.687	38.96
763.865	37.45
764.044	36.84
764.222	36.72
764.401	36.51
764.579	37.1
764.758	36.43
764.936	36.42
765.114	37.02
765.293	37.52
765.471	38.69
765.65	38.31
765.828	39.5
766.006	39.8
766.184	40.6
766.363	40.24
766.541	39.5
766.719	39.87
766.898	40.29
767.076	39.39
767.254	38.81
767.432	37.67
767.61	37.47
767.788	36.65
767.967	37.58
768.145	36.42
768.323	36.95
768.501	38.51
768.679	38.95
768.857	37.26
769.035	36.33
769.213	37.03
769.391	35.81
769.569	35.76
769.747	35.56
769.925	33.76
770.103	34.99
770.281	36.02
770.459	34.17
770.636	33.91
770.814	35.6
770.992	38.14
771.17	37.73
771.348	39.53
771.525	41.19
771.703	40.68
771.881	41.93
772.059	40.15
772.236	37.75
772.414	37.37
772.592	36.55
772.769	35.72
772.947	34.72
773.125	35.14
773.302	35.59
773.48	33.98
773.657	36.48
773.835	36.89
774.013	38.42
774.19	38.79
774.368	40.01
774.545	40.09
774.723	39.13
774.9	39.56
775.077	38.64
775.255	38.42
775.432	36.88
775.61	36.32
775.787	34.75
775.964	33.75
776.142	34.3
776.319	35.3
776.496	34.6
776.674	37.12
776.851	36.36
777.028	34.03
777.205	32.12
777.382	32.03
777.56	33.24
777.737	34.82
777.914	34.65
778.091	34.91
778.268	31.82
778.445	32.65
778.622	31.22
778.8	31.74
778.977	36.04
779.154	30.5
779.331	32.87
779.508	32.15
779.685	30.78
779.862	32.74
780.038	33.76
780.215	33.94
780.392	34.25
780.569	34.3
780.746	34.32
780.923	31.25
781.1	37.93
781.277	39.43
781.453	40.06
781.63	40.9
781.807	39.49
781.984	41.22
782.16	42.84
782.337	42.9
782.514	41.16
782.691	40.36
782.867	40.09
783.044	40.12
783.221	37.38
783.397	34.72
783.574	32.04
783.75	33.39
783.927	29.85
784.103	30.7
784.28	31.48
784.456	32.04
784.633	32.59
784.809	35.33
784.986	37.03
785.162	35.84
785.339	37.01
785.515	38.87
785.692	38.91
785.868	40.41
786.044	39.59
786.221	37.4
786.397	38.58
786.573	38.29
786.749	38.89
786.926	37.46
787.102	39.16
787.278	40.71
787.454	39.92
787.631	38.44
787.807	38.11
787.983	37.42
788.159	39.11
788.335	38.87
788.511	39.28
788.687	38.68
788.863	38.02
789.039	39.1
789.216	39.4
789.392	39.98
789.568	39.67
789.744	37.37
789.919	37.38
790.095	39.07
790.271	39.58
790.447	40.63
790.623	39.21
790.799	41.73
790.975	39.09
791.151	37.47
791.327	40.57
791.502	41.02
791.678	43.1
791.854	43
792.03	40.65
792.205	40.25
792.381	37.58
792.557	39.15
792.733	40.07
792.908	44.1
793.084	44.54
793.259	43.57
793.435	42.24
793.611	44.12
793.786	45.3
793.962	45.91
794.137	46.45
794.313	48.42
794.488	47.1
794.664	42.36
794.839	40.6
795.015	41.14
795.19	37.63
795.366	40.55
795.541	39.96
795.716	38.98
795.892	35.45
796.067	36.14
796.242	37.69
796.418	37.33
796.593	37.43
796.768	37.78
796.944	37.47
797.119	38.97
797.294	38.15
797.469	38.56
797.644	38
797.82	39.73
797.995	38.74
798.17	37.28
798.345	37.9
798.52	39.51
798.695	38.1
798.87	36.7
799.045	35.38
799.22	34.09
799.395	34.19
799.57	37.4
799.745	38.88
799.92	40.02
800.095	38.02
800.27	36.42
800.445	35.09
800.62	35.74
800.795	37.17
800.97	39.69
801.145	41.79
801.319	39.16
801.494	37.17
801.669	38.58
801.844	38.05
802.018	39.71
802.193	41.45
802.368	42.2
802.543	39.73
802.717	42.76
802.892	43.98
803.067	42.9
803.241	45.03
803.416	47.33
803.59	42.04
803.765	40.23
803.94	39.61
804.114	38.13
804.289	38.04
804.463	37.57
804.638	35.05
804.812	31.4
804.986	34.49
805.161	33.47
805.335	29.96
805.51	34.64
805.684	34.44
805.858	32.67
806.033	32.63
806.207	29.39
806.381	31.81
806.556	30.32
806.73	32.55
806.904	29.36
807.078	29.06
807.253	31.2
807.427	28.48
807.601	30.62
807.775	32.8
807.949	33.16
808.123	36.56
808.298	37.6
808.472	36.86
808.646	34.93
808.82	34.82
808.994	33.51
809.168	34.1
809.342	37.63
809.516	37.63
809.69	36.83
809.864	37.31
810.038	39.78
810.212	35.32
810.385	37.8
810.559	39.08
810.733	37.58
810.907	36.67
811.081	36.94
811.255	33.3
811.428	31.92
811.602	35.21
811.776	36.5
811.95	33.51
812.123	37.93
812.297	34.57
812.471	35.06
812.644	35.05
812.818	38.48
812.992	36.39
813.165	36.13
813.339	35.42
813.512	32.14
813.686	34.16
813.86	33.79
814.033	30.19
814.207	32.32
814.38	33.09
814.554	40.15
814.727	40.26
814.9	35.86
815.074	40.05
815.247	40.02
815.421	40.37
815.594	37.1
815.767	37.27
815.941	38.55
816.114	36.1
816.287	35.94
816.46	30.03
816.634	27.3
816.807	27.51
816.98	26.41
817.153	28.32
817.327	28.15
817.5	29.89
817.673	31.77
817.846	29.54
818.019	34.47
818.192	34.73
818.365	37.74
818.538	44.4
818.711	47.46
818.884	46.81
819.057	44.55
819.23	43
819.403	42.57
819.576	41.01
819.749	40.97
819.922	39.4
820.095	38.59
820.268	38.08
820.441	35.32
820.614	36.23
820.786	36.8
820.959	38.2
821.132	37.75
821.305	37.2
821.477	39.02
821.65	40.92
821.823	40.4
821.996	39.71
822.168	39.62
822.341	39.7
822.514	39.6
822.686	39.91
822.859	40.09
823.031	40.67
823.204	40.35
823.376	39.72
823.549	39.39
823.722	39.99
823.894	40.54
824.067	40.54
824.239	40.3
824.411	40.83
824.584	40.31
824.756	40.12
824.929	40.22
825.101	40.38
825.273	40.23
825.446	40.19
825.618	39.57
825.79	39.51
825.963	38.75
826.135	37.94
826.307	36.73
826.479	35.93
826.652	35.54
826.824	34.03
826.996	33.71
827.168	34.02
827.34	33.88
827.512	34.46
827.684	33.72
827.856	34.89
828.029	35.22
828.201	35.78
828.373	36.87
828.545	36.09
828.717	36.92
828.889	37.22
829.061	37.83
829.232	37.79
829.404	35.94
829.576	36.5
829.748	35.46
829.92	37.11
830.092	35.6
830.264	33.41
830.436	34.43
830.607	34.08
830.779	33.97
830.951	30.23
831.123	29.03
831.294	28.69
831.466	27.73
831.638	24.92
831.809	24.26
831.981	26.72
832.153	28.22
832.324	26.43
832.496	24.95
832.667	25.24
832.839	28.43
833.011	29.95
833.182	29.11
833.354	29.46
833.525	34.66
833.697	35.18
833.868	36.15
834.039	38.48
834.211	42.86
834.382	45.12
834.554	46.08
834.725	46.61
834.896	45.21
835.068	46.85
835.239	47.39
835.41	47.52
835.581	48.1
835.753	46.43
835.924	46.2
836.095	44.15
836.266	45.06
836.438	44.21
836.609	42.52
836.78	43.04
836.951	43.76
837.122	44.12
837.293	41.8
837.464	38.51
837.635	38.79
837.806	36.57
837.977	33.05
838.148	28.03
838.319	28.75
838.49	32.04
838.661	32.74
838.832	30.46
839.003	29.34
839.174	23.84
839.345	24.88
839.516	19.13
839.687	15.18
839.857	25.72
840.028	32.71
840.199	32.66
840.37	30.01
840.54	31.48
840.711	32.94
840.882	27.45
841.053	29.63
841.223	29.99
841.394	37.86
841.564	35.6
841.735	32.96
841.906	31.07
842.076	31.33
842.247	36.05
842.417	31.23
842.588	31.36
842.758	39.08
842.929	39.56
843.099	34.55
843.27	34.07
843.44	37.87
843.611	41.93
843.781	34.06
843.951	30.09
844.122	32.62
844.292	30.92
844.462	24.03
844.633	25.74
844.803	36.6
844.973	43.15
845.144	36.75
845.314	38.97
845.484	38.06
845.654	53.37
845.824	54.27
845.995	52.81
846.165	53.37
846.335	61.13
846.505	40.48
846.675	26.98
846.845	38.96
847.015	49.07
847.185	52.03
847.355	35.25
847.525	31.08
847.695	30.67
847.865	8.34
848.035	18.23
848.205	10.59
848.375	30.71
848.545	16.49
848.715	-3.72
848.884	-14.52
849.054	-62.71
849.224	-59.02
849.394	-77.27
849.564	-64.2
849.733	-36.77
849.903	-49.15
850.073	-33.04
850.243	-28.63
850.412	-17.53
850.582	-31.36
850.752	-36.99
850.921	0.21
851.091	-8.17
851.26	-17.37
851.43	-11.93
851.599	-14.13
851.769	9.01
851.939	2.72
852.108	-16.2
852.278	23.85
852.447	29.11
852.616	45.7
852.786	42.11
852.955	61.6
853.125	62.57
853.294	59.62
853.463	40.7
853.633	28.41
853.802	35.52
853.971	33.44
854.141	-3.36
854.31	-0.12
854.479	-24.55
854.648	-14.37
854.818	-27.04
854.987	-17.95
855.156	-52.65
855.325	-19.13
855.494	-19.29
855.663	-44.84
855.832	-94.29
856.001	-22.39
856.171	-4.7
856.34	-8.17
856.509	-12.8
856.678	-8.84
856.847	-1.62
857.016	-2.96
857.185	-14.23
857.353	11.39
857.522	33.03
857.691	35.54
857.86	22.83
858.029	24.81
858.198	31.31
858.367	30.62
858.535	21.14
858.704	5.38
858.873	17.32
859.042	26.98
859.21	17.69
859.379	10.36
859.548	-4.43
859.717	-12.29
859.885	-5.83
860.054	-3.87
860.222	-22.55
860.391	-4.94
860.56	20.62
860.728	22.8
860.897	23.28
861.065	34.47
861.234	34.18
861.402	46.09
861.571	40.4
861.739	36.35
861.908	41.44
862.076	44.02
862.244	46.13
862.413	41.65
862.581	44.04
862.749	20.62
862.918	-59.71
863.086	-69.95
863.254	-106.96
863.423	-144.16
863.591	-41.83
863.759	-118.04
863.927	45.17
864.096	-551.01
864.264	232.27
864.432	356.24
864.6	-533.47
864.768	-73.31
864.936	12.04
865.104	45.31
865.272	41.38
865.44	-11.12
865.608	11.91
865.776	-84.87
865.944	-79.35
866.112	-55.71
866.28	-55.48
866.448	-62.16
866.616	-49
866.784	-54.46
866.952	-74.49
867.12	-58.63
867.288	-22.43
867.455	-30.89
867.623	-10.56
867.791	16.28
867.959	26.85
868.127	49.1
868.294	83.08
868.462	53.75
868.63	52.99
868.797	56.12
868.965	23.52
869.133	-19.62
869.3	-45.39
869.468	-18.11
869.636	-15.54
869.803	-39.39
869.971	-66.22
870.138	-67.31
870.306	-50.46
870.473	-38.65
870.641	-30.67
870.808	-19.8
870.975	-25.22
871.143	-8.16
871.31	-24.32
871.478	-100.1
871.645	-20.14
871.812	-28.86
871.98	-34.9
872.147	-38.8
872.314	-22.39
872.482	-36.26
872.649	-48.19
872.816	-18.06
872.983	-117.05
873.15	-23.99
873.318	-43.62
873.485	-85.05
873.652	-73.48
873.819	-29.35
873.986	-31.24
874.153	-27.78
874.32	-12.73
874.487	3.88
874.654	19.14
874.821	20.1
874.988	39.27
875.155	76.02
875.322	68.47
875.489	63.04
875.656	67.38
875.823	69.01
875.99	75.88
876.157	70.9
876.324	80.72
876.49	76.47
876.657	91.95
876.824	63.85
876.991	49.77
877.157	62.93
877.324	64.52
877.491	68.93
877.658	86.06
877.824	75.55
877.991	92.67
878.157	54.34
878.324	37.08
878.491	26.35
878.657	29.35
878.824	24.53
878.99	39.12
879.157	36.29
879.323	33.88
879.49	38.99
879.656	45.72
879.823	32.91
879.989	45.76
880.156	39.66
880.322	56.99
880.488	53.39
880.655	66.62
880.821	44.53
880.987	58.87
881.154	60.43
881.32	36.32
881.486	35.94
881.652	39.37
881.819	40.72
881.985	42.08
882.151	38.45
882.317	34.66
882.483	33.22
882.649	34.74
882.816	30.17
882.982	29.75
883.148	30.85
883.314	30.89
883.48	31.24
883.646	31.47
883.812	32.95
883.978	32.66
884.144	33.75
884.31	34.54
884.476	35.5
884.642	37.35
884.807	38.91
884.973	43.23
885.139	44.97
885.305	46.26
885.471	46.61
885.637	44.24
885.802	44.01
885.968	45.51
886.134	45.67
886.3	43.19
886.465	43.44
886.631	42.5
886.797	38.29
886.962	35.83
887.128	35.44
887.293	35.38
887.459	34.97
887.625	31.21
887.79	26.78
887.956	29.34
888.121	33.85
888.287	29.96
888.452	23.59
888.618	15.73
888.783	3.74
