Data from CB_112_Reflection_5.txt Node
Date: Sat Nov 14 18:20:51 EST 2015
User: robert
Spectrometer: USB4E03001
Autoset integration time: false
Trigger mode: 4
Integration Time (sec): 1.000000E-1
Scans to average: 15
Electric dark correction enabled: true
Nonlinearity correction enabled: false
Boxcar width: 5
Stray light correction enabled: false
XAxis mode: Wavelengths
Stop averaging: false
Number of Pixels in Spectrum: 3648
>>>>>Begin Spectral Data<<<<<
177.566	81.39
177.785	-455.67
178.005	330.27
178.225	531.81
178.445	-1150.53
178.665	182.37
178.885	1345.36
179.105	50.57
179.324	58.66
179.544	80.36
179.764	65.38
179.984	28.99
180.204	18.5
180.423	36.76
180.643	49.06
180.863	28.13
181.083	28.01
181.302	46.99
181.522	43.48
181.742	44.53
181.961	0.94
182.181	32.3
182.401	159.19
182.621	124.39
182.84	201.78
183.06	105.9
183.279	96.37
183.499	159.43
183.719	39.17
183.938	45.46
184.158	88.85
184.377	117.45
184.597	112.58
184.816	92.25
185.036	90.21
185.256	77.12
185.475	80.67
185.695	68.95
185.914	69.03
186.134	84.41
186.353	89.15
186.572	71.6
186.792	74.79
187.011	87.14
187.231	81.29
187.45	88.91
187.67	88.92
187.889	95.15
188.108	102.25
188.328	94.65
188.547	106.83
188.766	112.47
188.986	107.33
189.205	106.51
189.424	81.63
189.644	90.9
189.863	87.65
190.082	102.3
190.302	89.5
190.521	83.28
190.74	89.26
190.959	68.04
191.178	64.62
191.398	68.55
191.617	67.62
191.836	93.62
192.055	68.19
192.274	78.51
192.494	64.3
192.713	71.41
192.932	67.68
193.151	91.69
193.37	94.97
193.589	60.23
193.808	161.17
194.027	178.86
194.246	-698.31
194.465	1238.89
194.685	131.37
194.904	134.88
195.123	91.03
195.342	84.52
195.561	73.75
195.78	61.26
195.999	53.26
196.218	26.46
196.436	38.56
196.655	21.34
196.874	27.76
197.093	30.98
197.312	37.86
197.531	56.43
197.75	59.44
197.969	61.67
198.188	67.03
198.407	59.79
198.625	63.88
198.844	64.88
199.063	76.84
199.282	73.63
199.501	50.78
199.719	58.83
199.938	40.94
200.157	46.74
200.376	47.51
200.594	62.56
200.813	79.6
201.032	64.52
201.251	57.19
201.469	57.95
201.688	60.74
201.907	81.48
202.125	97.09
202.344	150.43
202.563	120.47
202.781	125.29
203	132.6
203.218	150.72
203.437	153.2
203.656	162.83
203.874	121.85
204.093	163.54
204.311	138.21
204.53	144.94
204.748	98.19
204.967	122.52
205.185	137.48
205.404	135.45
205.622	108.27
205.841	119.79
206.059	110.13
206.278	93.53
206.496	60.57
206.715	59.11
206.933	44.48
207.151	60.88
207.37	67.57
207.588	56.43
207.806	49.62
208.025	53.56
208.243	44.39
208.461	48.67
208.68	47.88
208.898	56.88
209.116	55.11
209.335	47.64
209.553	47.91
209.771	52.39
209.989	37.54
210.208	31.03
210.426	10.91
210.644	22.61
210.862	24.05
211.081	36.67
211.299	40.6
211.517	41.24
211.735	51
211.953	45.67
212.171	48.75
212.39	51.08
212.608	48.34
212.826	58.67
213.044	70.23
213.262	75.42
213.48	71.81
213.698	75.67
213.916	80.81
214.134	69.9
214.352	78
214.57	69.26
214.788	90.89
215.006	118.94
215.224	132.37
215.442	167.18
215.66	136.72
215.878	152.69
216.096	175.48
216.314	133.46
216.532	180.7
216.75	162.06
216.968	187.54
217.185	187.64
217.403	223.23
217.621	268.56
217.839	191.73
218.057	238.24
218.275	167.29
218.492	166.84
218.71	214.84
218.928	181.59
219.146	241.15
219.363	173.04
219.581	163.94
219.799	127.6
220.017	120.52
220.234	117.42
220.452	138.9
220.67	174.23
220.887	269.21
221.105	362.74
221.323	5484.05
221.54	446.91
221.758	2867.5
221.976	1376.87
222.193	278.63
222.411	348.34
222.629	521.79
222.846	715.61
223.064	-694.73
223.281	941.96
223.499	500.68
223.716	608.34
223.934	-425.99
224.151	-89.01
224.369	-53
224.586	-21.54
224.804	-14.38
225.021	-34.04
225.239	-31.7
225.456	-40.09
225.674	-32.25
225.891	-52.79
226.108	-119.4
226.326	-115.91
226.543	-64.99
226.76	-25.21
226.978	-9.86
227.195	-18.9
227.413	-18.85
227.63	-6.71
227.847	-0.97
228.064	8.49
228.282	6.04
228.499	9.49
228.716	7.64
228.934	4.3
229.151	3.23
229.368	4.31
229.585	5.44
229.802	9.74
230.02	8.58
230.237	10.35
230.454	12.13
230.671	12.58
230.888	12.02
231.105	11.28
231.323	11.81
231.54	2.12
231.757	-5.99
231.974	-9.65
232.191	-12.31
232.408	-10.67
232.625	-15.67
232.842	-18.18
233.059	-17.64
233.276	-19.92
233.493	-21.73
233.71	-16.39
233.927	0.7
234.144	2.43
234.361	-0.59
234.578	-7.62
234.795	-2.36
235.012	-2.93
235.229	-2.4
235.446	-0.02
235.663	8.08
235.879	6.82
236.096	1.4
236.313	-2.38
236.53	0.99
236.747	3.61
236.964	7.79
237.181	0.41
237.397	-3.29
237.614	-11.1
237.831	-12.58
238.048	-18.52
238.264	-21.25
238.481	-15.14
238.698	-3.49
238.915	3.37
239.131	8.18
239.348	5.93
239.565	14.54
239.781	13.43
239.998	17.99
240.215	16.92
240.431	16.94
240.648	23.49
240.865	21.3
241.081	17.32
241.298	14.45
241.514	13.38
241.731	14.37
241.947	12.81
242.164	14.12
242.38	15.01
242.597	14.51
242.814	15.76
243.03	13.63
243.246	13.6
243.463	14.03
243.679	12.43
243.896	11.48
244.112	9.62
244.329	11.38
244.545	11.05
244.762	9.36
244.978	11.65
245.194	7.41
245.411	6.97
245.627	7.46
245.843	6.23
246.06	7.81
246.276	8.03
246.492	9.59
246.709	7.13
246.925	7.1
247.141	7.98
247.357	7.87
247.574	9.04
247.79	8.71
248.006	8.94
248.222	9.12
248.439	8.08
248.655	7.4
248.871	7.41
249.087	9.51
249.303	10.73
249.519	10
249.736	8.24
249.952	8.56
250.168	11.12
250.384	9.79
250.6	8.46
250.816	7.93
251.032	10.89
251.248	9.21
251.464	5.38
251.68	3.74
251.896	2.53
252.112	2.68
252.328	0.54
252.544	-2.01
252.76	-1.99
252.976	-0.45
253.192	0.21
253.408	-1.26
253.624	0.21
253.84	0.78
254.056	-0.84
254.272	1.31
254.487	2.66
254.703	5.41
254.919	2.38
255.135	0.22
255.351	-2.22
255.567	3.75
255.782	0.65
255.998	1.86
256.214	4.02
256.43	6.29
256.646	3.56
256.861	6.05
257.077	4.14
257.293	9.27
257.508	12.83
257.724	12.53
257.94	12.22
258.155	15.22
258.371	11.52
258.587	7.74
258.802	8.08
259.018	8.33
259.234	7.91
259.449	8.14
259.665	6.99
259.88	6.82
260.096	7.49
260.312	7.18
260.527	6.94
260.743	7.45
260.958	8.52
261.174	8.43
261.389	8.78
261.605	8.93
261.82	8.85
262.036	9.39
262.251	8.08
262.466	7.59
262.682	7.17
262.897	6.21
263.113	6.12
263.328	7.65
263.543	5.43
263.759	1.48
263.974	-0.48
264.189	-1.42
264.405	-2.29
264.62	-0.15
264.835	2.47
265.051	2.65
265.266	2.78
265.481	2.09
265.696	-0.08
265.912	2.06
266.127	5.18
266.342	5.95
266.557	6.98
266.773	7.1
266.988	7.36
267.203	5.97
267.418	5.72
267.633	7.63
267.848	9.09
268.064	10.65
268.279	10.29
268.494	10.67
268.709	11.02
268.924	10.95
269.139	11.09
269.354	10.76
269.569	11.33
269.784	12.17
269.999	9.56
270.214	8.85
270.429	8.4
270.644	8.19
270.859	8.94
271.074	7.67
271.289	7.61
271.504	7.92
271.719	7.58
271.934	4.75
272.149	4.25
272.363	5.29
272.578	5.82
272.793	5.73
273.008	5.12
273.223	4.92
273.438	4.78
273.653	4.53
273.867	4.21
274.082	3.35
274.297	4.56
274.512	3.37
274.726	2.3
274.941	1.45
275.156	2.1
275.371	3.87
275.585	2.33
275.8	4.8
276.015	5.09
276.229	6.47
276.444	6.96
276.659	7.77
276.873	9.01
277.088	9.66
277.302	9.59
277.517	9.09
277.732	6.82
277.946	7.84
278.161	5.13
278.375	4.53
278.59	4.11
278.804	4.14
279.019	3.01
279.233	4.57
279.448	5.46
279.662	4.88
279.877	4.87
280.091	6.49
280.306	6.28
280.52	7.3
280.735	7.6
280.949	6.77
281.163	7.84
281.378	8.37
281.592	7.44
281.806	6.93
282.021	6.87
282.235	7
282.449	6.79
282.664	7.5
282.878	8.61
283.092	8.41
283.307	8.33
283.521	7.68
283.735	7.88
283.949	8.31
284.164	8.91
284.378	9.81
284.592	9.66
284.806	9.49
285.02	9.39
285.234	8.62
285.449	9.35
285.663	10.34
285.877	9.72
286.091	9.21
286.305	8.4
286.519	8.04
286.733	7.25
286.947	7.82
287.161	9.05
287.375	8.33
287.589	7.8
287.803	7.43
288.017	6.68
288.231	8.46
288.445	9.36
288.659	9.36
288.873	8.75
289.087	8.2
289.301	6.59
289.515	5.62
289.729	5.73
289.943	5.38
290.157	4.32
290.371	4.91
290.584	4.4
290.798	3.3
291.012	4.11
291.226	4.32
291.44	4.87
291.654	4.91
291.867	5
292.081	5.73
292.295	6.4
292.509	7.64
292.722	6.12
292.936	6.42
293.15	7.54
293.364	7.55
293.577	7.62
293.791	7.71
294.005	8.31
294.218	8.82
294.432	7.98
294.645	7.84
294.859	8.49
295.073	8.52
295.286	6.92
295.5	6.65
295.713	5.72
295.927	6.28
296.14	6.78
296.354	6.38
296.568	5.45
296.781	6.14
296.994	6.71
297.208	5.43
297.421	6.05
297.635	6.52
297.848	7.07
298.062	7.6
298.275	8.71
298.489	7.37
298.702	7.65
298.915	7.99
299.129	7.56
299.342	7.31
299.555	7.15
299.769	8.2
299.982	8.05
300.195	7.28
300.409	7.33
300.622	5.81
300.835	7.45
301.048	8.27
301.262	8.07
301.475	7.77
301.688	6.82
301.901	7.75
302.115	6.49
302.328	6.74
302.541	6.33
302.754	6.51
302.967	5.54
303.18	5.5
303.393	5.13
303.607	5.18
303.82	5.15
304.033	6.48
304.246	7.01
304.459	7.85
304.672	8.57
304.885	8.41
305.098	8.48
305.311	9.48
305.524	8.69
305.737	7.27
305.95	7.91
306.163	8.09
306.376	7.3
306.589	6.89
306.802	5.14
307.015	4.51
307.228	6.64
307.44	6.91
307.653	6.58
307.866	8
308.079	9.03
308.292	9.6
308.505	9.17
308.718	9.8
308.93	9.72
309.143	9.82
309.356	9.36
309.569	9.69
309.781	10.05
309.994	9.39
310.207	9
310.42	9.29
310.632	8.59
310.845	8.88
311.058	9.01
311.27	10.19
311.483	11.47
311.696	11.56
311.908	11.2
312.121	10.17
312.333	10.86
312.546	11.85
312.759	11.41
312.971	11.17
313.184	11.56
313.396	11.12
313.609	9.15
313.821	8
314.034	8.32
314.246	8.18
314.459	9.11
314.671	8.97
314.884	7.11
315.096	7.48
315.309	7.84
315.521	7.46
315.733	7.06
315.946	8.06
316.158	8.8
316.371	9.44
316.583	8.9
316.795	8.89
317.008	9.86
317.22	10.47
317.432	9.28
317.644	8.15
317.857	9.34
318.069	9.29
318.281	8.08
318.494	7.25
318.706	6.41
318.918	5.53
319.13	4.97
319.342	3.65
319.555	3.81
319.767	6.07
319.979	6.93
320.191	7.17
320.403	7
320.615	8.36
320.827	7.6
321.039	7.26
321.252	9.11
321.464	9.72
321.676	9.29
321.888	9.1
322.1	7.9
322.312	8.72
322.524	7.6
322.736	9.69
322.948	8.72
323.16	9.42
323.372	9.61
323.584	7.87
323.796	6.03
324.007	6.83
324.219	8.1
324.431	8.78
324.643	8.11
324.855	8.96
325.067	8.85
325.279	8.95
325.491	9.67
325.702	9.4
325.914	9.81
326.126	11.28
326.338	11.91
326.55	12.08
326.761	11.85
326.973	12.4
327.185	13.32
327.396	13.91
327.608	14.3
327.82	13.62
328.032	15.53
328.243	16.4
328.455	17.26
328.666	17.79
328.878	17.68
329.09	19.33
329.301	19.5
329.513	18.27
329.725	16.91
329.936	17.47
330.148	18.45
330.359	17.53
330.571	17.7
330.782	17.53
330.994	17.55
331.205	18.17
331.417	17.65
331.628	18.4
331.84	18.29
332.051	18.03
332.262	18.57
332.474	18.58
332.685	18.72
332.897	19.2
333.108	18.68
333.319	19.04
333.531	18.33
333.742	18.26
333.953	19.09
334.165	18.95
334.376	19.53
334.587	20.39
334.799	21.13
335.01	20.41
335.221	20.17
335.432	21.22
335.644	21.91
335.855	22.31
336.066	22.31
336.277	21.26
336.488	21.02
336.7	21.04
336.911	20.5
337.122	20.24
337.333	20.96
337.544	20.29
337.755	19.21
337.966	18.61
338.177	18.77
338.388	18.74
338.599	18.72
338.811	18.74
339.022	19.17
339.233	18.14
339.444	17.75
339.655	18.16
339.866	18.11
340.076	18.49
340.287	17.87
340.498	17.39
340.709	17.01
340.92	17.54
341.131	18.01
341.342	18.25
341.553	18.48
341.764	19.1
341.975	18.72
342.185	19.91
342.396	19.25
342.607	19.26
342.818	19.51
343.029	19.98
343.239	19.86
343.45	20.68
343.661	20.44
343.872	21.17
344.082	20.42
344.293	21.19
344.504	20.29
344.714	20.9
344.925	20.94
345.136	20.46
345.346	20.36
345.557	20.59
345.768	20.63
345.978	19.8
346.189	19.46
346.399	19.64
346.61	18.84
346.821	19.09
347.031	18.99
347.242	18.76
347.452	18.13
347.663	17.77
347.873	17.27
348.084	16.69
348.294	17
348.504	16.52
348.715	16.29
348.925	16.72
349.136	17.02
349.346	17.26
349.557	17.77
349.767	18.62
349.977	19.15
350.188	17.9
350.398	17.76
350.608	18.79
350.819	19.57
351.029	20.71
351.239	19.2
351.449	18.78
351.66	18.35
351.87	18.62
352.08	18.35
352.29	18.24
352.501	19.89
352.711	20.76
352.921	20.28
353.131	20.19
353.341	18.95
353.552	19.64
353.762	20.29
353.972	20.91
354.182	19.85
354.392	19.58
354.602	18.9
354.812	18.69
355.022	18.37
355.232	18.67
355.442	19.04
355.652	18.6
355.862	19.17
356.072	18.69
356.282	18.44
356.492	19.36
356.702	19.13
356.912	19.48
357.122	19.81
357.332	19.28
357.542	19.4
357.752	19.07
357.962	19.98
358.171	19.51
358.381	20.4
358.591	20.66
358.801	20.35
359.011	20.52
359.221	20.79
359.43	20.61
359.64	20.69
359.85	19.84
360.06	19.45
360.269	19.05
360.479	19.18
360.689	18.03
360.899	17.75
361.108	17.91
361.318	18.12
361.528	17.78
361.737	18.02
361.947	17.51
362.156	18.14
362.366	18.36
362.576	18.28
362.785	18.43
362.995	19.38
363.204	19.1
363.414	18.54
363.623	18.84
363.833	18.48
364.042	17.83
364.252	18.59
364.461	18.08
364.671	18.4
364.88	18.43
365.09	18.22
365.299	17.42
365.509	17.55
365.718	17.61
365.927	17.4
366.137	17.71
366.346	18
366.555	18.02
366.765	17.4
366.974	17.11
367.183	16.93
367.393	17.75
367.602	17.45
367.811	17.87
368.021	18.13
368.23	17.92
368.439	18.05
368.648	18.56
368.857	17.93
369.067	17.94
369.276	17.35
369.485	16.8
369.694	15.93
369.903	16.38
370.112	16.52
370.321	17.11
370.531	16.77
370.74	16.93
370.949	16.72
371.158	17.49
371.367	18.11
371.576	17.88
371.785	18.15
371.994	18.43
372.203	18.85
372.412	18.57
372.621	17.81
372.83	18
373.039	17.81
373.248	17.49
373.457	16.96
373.666	16.73
373.874	16.96
374.083	17.48
374.292	17.02
374.501	15.92
374.71	15.38
374.919	15.94
375.128	16.33
375.336	16.22
375.545	16.02
375.754	16.4
375.963	16.54
376.171	16.92
376.38	17.18
376.589	17.21
376.798	17.81
377.006	18.01
377.215	17.37
377.424	17.01
377.632	16.84
377.841	16.81
378.05	16.04
378.258	15.7
378.467	15.29
378.675	14.79
378.884	14.11
379.093	13.74
379.301	13.81
379.51	13.95
379.718	13.87
379.927	14.24
380.135	14.73
380.344	14.93
380.552	15.08
380.761	15.32
380.969	15.55
381.177	16.42
381.386	16.18
381.594	16.26
381.803	15.96
382.011	15.95
382.219	15.8
382.428	15.26
382.636	15.37
382.845	15.06
383.053	14.82
383.261	14.38
383.469	13.92
383.678	14.24
383.886	14.4
384.094	14.49
384.302	14.42
384.511	14.39
384.719	14.31
384.927	14.37
385.135	14.4
385.343	14.53
385.552	14.5
385.76	14.39
385.968	13.92
386.176	13.42
386.384	13.3
386.592	13.29
386.8	12.77
387.008	13.07
387.216	13.49
387.424	13.4
387.633	13.2
387.841	13.32
388.049	13.4
388.257	13.45
388.465	13.17
388.672	12.93
388.88	12.8
389.088	12.73
389.296	12.08
389.504	11.04
389.712	11.26
389.92	11.27
390.128	11.21
390.336	11.04
390.544	10.96
390.751	10.99
390.959	10.9
391.167	11.12
391.375	11.26
391.583	11.1
391.79	11.43
391.998	11.26
392.206	11.17
392.414	10.83
392.621	10.5
392.829	10.37
393.037	10.49
393.244	10.5
393.452	10.1
393.66	10.31
393.867	10.42
394.075	10.53
394.283	10.56
394.49	10.26
394.698	10.52
394.905	10.78
395.113	10.71
395.32	10.7
395.528	10.61
395.735	10.86
395.943	10.4
396.15	10.46
396.358	9.99
396.565	10.08
396.773	10.31
396.98	9.9
397.188	9.65
397.395	9.95
397.602	9.87
397.81	10.02
398.017	9.56
398.225	10.06
398.432	9.95
398.639	10.21
398.847	10.01
399.054	10.02
399.261	10.33
399.468	10.66
399.676	10.5
399.883	10.37
400.09	10.34
400.297	10.32
400.505	9.99
400.712	9.66
400.919	9.12
401.126	8.74
401.333	8.88
401.54	8.83
401.748	8.59
401.955	8.54
402.162	8.61
402.369	8.36
402.576	8.73
402.783	8.89
402.99	9.19
403.197	9.56
403.404	9.77
403.611	9.36
403.818	9.29
404.025	9.35
404.232	9.19
404.439	9.23
404.646	9.48
404.853	9.23
405.06	8.89
405.267	8.94
405.474	8.84
405.681	8.77
405.887	8.86
406.094	8.54
406.301	8.51
406.508	8.75
406.715	8.34
406.922	8.36
407.128	8.45
407.335	8.71
407.542	8.72
407.749	8.85
407.955	8.86
408.162	9.04
408.369	9.08
408.575	9.18
408.782	9.21
408.989	9.46
409.195	9.57
409.402	9.81
409.609	9.65
409.815	9.53
410.022	9.31
410.228	8.98
410.435	9.04
410.642	9.43
410.848	9.08
411.055	8.57
411.261	8.64
411.468	8.38
411.674	8.14
411.881	8.12
412.087	8.1
412.294	8.28
412.5	8.76
412.706	8.43
412.913	8.09
413.119	8.35
413.326	8.69
413.532	8.99
413.738	9.1
413.945	8.89
414.151	9.03
414.357	9.18
414.564	9.02
414.77	8.58
414.976	8.83
415.182	8.97
415.389	8.81
415.595	8.97
415.801	8.56
416.007	8.7
416.214	8.51
416.42	8.63
416.626	8.48
416.832	8.46
417.038	8.78
417.244	8.78
417.45	9.02
417.657	8.97
417.863	8.97
418.069	8.88
418.275	8.42
418.481	8.73
418.687	8.65
418.893	8.73
419.099	8.81
419.305	8.81
419.511	8.79
419.717	8.63
419.923	8.58
420.129	8.41
420.335	8.4
420.541	8.8
420.746	8.7
420.952	8.6
421.158	8.68
421.364	8.57
421.57	8.53
421.776	8.34
421.982	8.2
422.187	8.24
422.393	8.27
422.599	8.34
422.805	8.15
423.01	8.28
423.216	8.27
423.422	8.1
423.628	8.24
423.833	8.14
424.039	8.35
424.245	8.45
424.45	8.53
424.656	8.6
424.862	8.63
425.067	8.57
425.273	8.4
425.478	8.39
425.684	8.33
425.889	8.21
426.095	8.31
426.301	8.06
426.506	8.09
426.712	8.02
426.917	7.99
427.123	7.76
427.328	7.86
427.533	7.81
427.739	7.85
427.944	8.04
428.15	8.02
428.355	7.73
428.561	7.9
428.766	7.85
428.971	7.77
429.177	7.8
429.382	7.9
429.587	7.68
429.793	7.82
429.998	7.86
430.203	7.73
430.408	7.87
430.614	7.92
430.819	7.92
431.024	7.94
431.229	7.96
431.434	7.87
431.64	7.91
431.845	8.11
432.05	8.04
432.255	8.01
432.46	8.04
432.665	7.8
432.87	7.91
433.076	7.72
433.281	7.68
433.486	7.76
433.691	7.68
433.896	7.75
434.101	7.63
434.306	7.51
434.511	7.46
434.716	7.47
434.921	7.7
435.126	7.64
435.331	7.83
435.535	7.78
435.74	7.63
435.945	7.78
436.15	7.72
436.355	7.84
436.56	7.76
436.765	7.77
436.97	7.79
437.174	7.8
437.379	7.98
437.584	7.76
437.789	7.9
437.993	8.11
438.198	7.98
438.403	8.18
438.608	8.15
438.812	8.43
439.017	8.33
439.222	8.4
439.426	8.15
439.631	8.07
439.836	8.43
440.04	8.4
440.245	8.33
440.45	8.34
440.654	8.2
440.859	8.19
441.063	8.01
441.268	8
441.472	7.84
441.677	8.16
441.881	8.2
442.086	7.97
442.29	7.8
442.495	7.92
442.699	7.85
442.904	7.9
443.108	7.76
443.312	7.76
443.517	7.81
443.721	7.71
443.925	7.52
444.13	7.45
444.334	7.38
444.538	7.58
444.743	7.43
444.947	7.46
445.151	7.45
445.356	7.62
445.56	7.81
445.764	7.91
445.968	7.95
446.173	7.94
446.377	7.85
446.581	7.87
446.785	7.72
446.989	7.67
447.193	7.77
447.398	7.75
447.602	7.79
447.806	7.62
448.01	7.52
448.214	7.68
448.418	7.48
448.622	7.4
448.826	7.35
449.03	7.52
449.234	7.57
449.438	7.49
449.642	7.41
449.846	7.19
450.05	7.34
450.254	7.43
450.458	7.19
450.662	7.4
450.866	7.49
451.069	7.59
451.273	7.5
451.477	7.52
451.681	7.5
451.885	7.69
452.089	7.74
452.292	7.65
452.496	7.49
452.7	7.56
452.904	7.55
453.107	7.52
453.311	7.59
453.515	7.47
453.719	7.47
453.922	7.26
454.126	7.1
454.33	7.18
454.533	7.11
454.737	7.1
454.94	7.16
455.144	7.19
455.348	7.3
455.551	7.01
455.755	7.08
455.958	7.02
456.162	7.11
456.365	7.18
456.569	7.28
456.772	7.42
456.976	7.32
457.179	7.12
457.383	7.01
457.586	6.98
457.79	7.14
457.993	7.31
458.196	7.29
458.4	7.49
458.603	7.52
458.807	7.35
459.01	7.26
459.213	7.61
459.417	7.82
459.62	7.79
459.823	7.78
460.026	7.74
460.23	7.65
460.433	7.71
460.636	7.79
460.839	7.67
461.042	7.71
461.246	7.72
461.449	7.44
461.652	7.29
461.855	7.39
462.058	7.44
462.261	7.55
462.464	7.5
462.668	7.42
462.871	7.16
463.074	7.23
463.277	7.47
463.48	7.28
463.683	7.29
463.886	7.39
464.089	7.32
464.292	7.38
464.495	7.43
464.698	7.51
464.901	7.66
465.104	7.83
465.306	7.92
465.509	7.57
465.712	7.7
465.915	7.79
466.118	7.69
466.321	7.65
466.524	7.58
466.726	7.48
466.929	7.35
467.132	7.42
467.335	7.26
467.538	7.27
467.74	7.31
467.943	7.31
468.146	7.45
468.348	7.65
468.551	7.73
468.754	7.86
468.956	7.95
469.159	7.92
469.362	7.83
469.564	7.75
469.767	7.54
469.969	7.74
470.172	7.77
470.375	7.55
470.577	7.27
470.78	7.05
470.982	7.2
471.185	7.22
471.387	7.25
471.59	7.1
471.792	7.28
471.995	7.43
472.197	7.33
472.399	7.12
472.602	6.96
472.804	6.98
473.007	7.13
473.209	6.9
473.411	6.63
473.614	6.82
473.816	6.98
474.018	6.9
474.22	6.84
474.423	6.73
474.625	7.05
474.827	7.24
475.03	7.29
475.232	7.28
475.434	7.59
475.636	7.73
475.838	7.66
476.04	7.64
476.243	7.6
476.445	7.63
476.647	7.66
476.849	7.68
477.051	7.73
477.253	7.64
477.455	7.68
477.657	7.53
477.859	7.51
478.061	7.48
478.263	7.46
478.465	7.4
478.667	7.41
478.869	7.45
479.071	7.33
479.273	7.43
479.475	7.64
479.677	7.56
479.879	7.4
480.081	7.36
480.283	7.3
480.485	7.2
480.686	7.39
480.888	7.41
481.09	7.44
481.292	7.5
481.494	7.34
481.695	7.3
481.897	7.37
482.099	7.45
482.301	7.52
482.502	7.54
482.704	7.64
482.906	7.61
483.107	7.63
483.309	7.59
483.511	7.58
483.712	7.6
483.914	7.61
484.115	7.57
484.317	7.57
484.519	7.51
484.72	7.47
484.922	7.46
485.123	7.46
485.325	7.43
485.526	7.47
485.728	7.46
485.929	7.48
486.131	7.39
486.332	7.42
486.534	7.41
486.735	7.5
486.936	7.53
487.138	7.49
487.339	7.47
487.541	7.5
487.742	7.49
487.943	7.49
488.144	7.47
488.346	7.55
488.547	7.54
488.748	7.49
488.95	7.56
489.151	7.56
489.352	7.5
489.553	7.62
489.755	7.58
489.956	7.55
490.157	7.56
490.358	7.49
490.559	7.46
490.76	7.42
490.961	7.38
491.163	7.34
491.364	7.38
491.565	7.42
491.766	7.36
491.967	7.35
492.168	7.4
492.369	7.37
492.57	7.44
492.771	7.44
492.972	7.44
493.173	7.49
493.374	7.48
493.575	7.44
493.776	7.43
493.976	7.34
494.177	7.19
494.378	7.21
494.579	7.21
494.78	7.24
494.981	7.31
495.182	7.43
495.382	7.48
495.583	7.27
495.784	7.36
495.985	7.52
496.185	7.46
496.386	7.6
496.587	7.52
496.788	7.5
496.988	7.53
497.189	7.64
497.39	7.69
497.59	7.8
497.791	7.95
497.992	7.98
498.192	7.9
498.393	8.06
498.593	8.09
498.794	8.03
498.994	8.17
499.195	8.03
499.395	7.88
499.596	7.92
499.796	7.78
499.997	7.79
500.197	7.84
500.398	7.83
500.598	7.86
500.799	7.98
500.999	8.06
501.199	7.93
501.4	8.09
501.6	8.12
501.801	7.85
502.001	7.98
502.201	8.07
502.402	8.13
502.602	8.21
502.802	8.16
503.002	8.21
503.203	8.28
503.403	8.31
503.603	8.25
503.803	8.28
504.003	8.5
504.204	8.45
504.404	8.41
504.604	8.41
504.804	8.42
505.004	8.36
505.204	8.32
505.404	8.29
505.604	8.21
505.804	8.26
506.005	8.3
506.205	8.46
506.405	8.39
506.605	8.45
506.805	8.39
507.005	8.44
507.204	8.6
507.404	8.58
507.604	8.73
507.804	8.85
508.004	8.89
508.204	8.86
508.404	8.74
508.604	8.9
508.804	8.78
509.003	9.09
509.203	9.04
509.403	9.16
509.603	9.15
509.803	9.1
510.002	9.17
510.202	9.22
510.402	9.33
510.602	9.28
510.801	9.34
511.001	9.44
511.201	9.37
511.4	9.33
511.6	9.24
511.8	9.44
511.999	9.41
512.199	9.39
512.398	9.36
512.598	9.34
512.797	9.51
512.997	9.58
513.197	9.7
513.396	9.67
513.596	9.84
513.795	9.98
513.994	9.93
514.194	10.28
514.393	10.38
514.593	10.61
514.792	10.66
514.992	10.76
515.191	10.75
515.39	10.78
515.59	10.73
515.789	10.73
515.988	10.78
516.188	10.91
516.387	10.87
516.586	10.98
516.786	10.93
516.985	11.08
517.184	11.03
517.383	11.06
517.582	11.17
517.782	11.36
517.981	11.46
518.18	11.6
518.379	11.69
518.578	11.74
518.777	11.8
518.976	11.9
519.176	11.99
519.375	12.13
519.574	12.24
519.773	12.21
519.972	12.28
520.171	12.28
520.37	12.29
520.569	12.45
520.768	12.53
520.967	12.71
521.166	12.75
521.365	12.82
521.564	12.85
521.762	13.01
521.961	13.17
522.16	13.27
522.359	13.41
522.558	13.46
522.757	13.39
522.956	13.4
523.154	13.35
523.353	13.5
523.552	13.53
523.751	13.72
523.949	13.78
524.148	13.8
524.347	13.77
524.546	13.88
524.744	14.02
524.943	14.07
525.142	13.99
525.34	14.03
525.539	14.04
525.737	14.16
525.936	14.17
526.135	14.23
526.333	14.37
526.532	14.53
526.73	14.6
526.929	14.59
527.127	14.68
527.326	14.9
527.524	15.02
527.723	15.18
527.921	15.23
528.12	15.3
528.318	15.29
528.516	15.33
528.715	15.41
528.913	15.53
529.112	15.56
529.31	15.68
529.508	15.72
529.707	15.81
529.905	15.85
530.103	15.9
530.301	15.94
530.5	16.1
530.698	16.14
530.896	16.13
531.094	16.08
531.293	16.2
531.491	16.12
531.689	16.1
531.887	16.1
532.085	16.14
532.283	16.2
532.481	16.39
532.68	16.46
532.878	16.63
533.076	16.78
533.274	16.91
533.472	16.98
533.67	17.13
533.868	17.3
534.066	17.36
534.264	17.43
534.462	17.44
534.66	17.45
534.858	17.45
535.056	17.42
535.253	17.31
535.451	17.32
535.649	17.47
535.847	17.44
536.045	17.55
536.243	17.6
536.441	17.77
536.638	17.91
536.836	18.05
537.034	18.09
537.232	18.18
537.43	18.34
537.627	18.48
537.825	18.47
538.023	18.47
538.22	18.42
538.418	18.51
538.616	18.49
538.813	18.61
539.011	18.59
539.209	18.71
539.406	18.83
539.604	18.95
539.801	19.09
539.999	19.33
540.196	19.54
540.394	19.73
540.591	19.75
540.789	19.78
540.986	19.86
541.184	19.9
541.381	19.97
541.579	19.98
541.776	20.04
541.974	20.01
542.171	20.01
542.368	20.08
542.566	20.09
542.763	20.21
542.96	20.27
543.158	20.37
543.355	20.52
543.552	20.64
543.75	20.7
543.947	20.8
544.144	20.89
544.341	20.9
544.539	20.95
544.736	21.04
544.933	21.15
545.13	21.15
545.327	21.02
545.524	21.09
545.722	21.07
545.919	21.35
546.116	21.5
546.313	21.55
546.51	21.62
546.707	21.62
546.904	21.69
547.101	21.74
547.298	21.91
547.495	22.07
547.692	22.19
547.889	22.38
548.086	22.41
548.283	22.37
548.48	22.55
548.677	22.62
548.874	22.83
549.07	22.93
549.267	23.02
549.464	23.2
549.661	23.34
549.858	23.3
550.055	23.25
550.251	23.1
550.448	23.23
550.645	23.27
550.842	23.45
551.038	23.49
551.235	23.71
551.432	23.72
551.628	23.91
551.825	24.07
552.022	24.15
552.218	24.41
552.415	24.61
552.612	24.61
552.808	24.73
553.005	24.87
553.201	25.13
553.398	25.04
553.594	25.21
553.791	25.08
553.987	24.92
554.184	25.02
554.38	25
554.577	25.04
554.773	25.23
554.97	25.22
555.166	25.12
555.362	25.12
555.559	25.23
555.755	25.28
555.952	25.35
556.148	25.57
556.344	25.62
556.541	25.94
556.737	26.22
556.933	26.35
557.129	26.39
557.326	26.58
557.522	26.77
557.718	26.8
557.914	27.11
558.11	27.57
558.307	27.77
558.503	27.86
558.699	27.76
558.895	27.58
559.091	27.48
559.287	27.75
559.483	27.85
559.679	27.71
559.876	27.92
560.072	27.9
560.268	27.73
560.464	27.99
560.66	28.25
560.856	28.19
561.052	28.37
561.247	28.63
561.443	28.74
561.639	28.88
561.835	29
562.031	29.04
562.227	28.95
562.423	28.86
562.619	28.91
562.815	29.01
563.01	29.32
563.206	29.39
563.402	29.33
563.598	29.4
563.793	29.33
563.989	29.36
564.185	29.45
564.381	29.6
564.576	29.98
564.772	29.94
564.968	29.79
565.163	29.92
565.359	30.22
565.555	30.35
565.75	30.23
565.946	30.38
566.141	30.52
566.337	30.64
566.532	30.72
566.728	30.86
566.923	30.75
567.119	30.89
567.314	30.78
567.51	30.72
567.705	30.69
567.901	30.78
568.096	30.82
568.292	30.77
568.487	30.93
568.682	30.94
568.878	30.84
569.073	31.09
569.268	31.21
569.464	31.19
569.659	31.3
569.854	31.49
570.05	31.87
570.245	32.18
570.44	32.25
570.635	32.26
570.831	32.36
571.026	32.29
571.221	32.32
571.416	32.44
571.611	32.75
571.806	32.74
572.002	32.8
572.197	32.8
572.392	32.71
572.587	32.74
572.782	32.69
572.977	32.67
573.172	32.89
573.367	32.87
573.562	32.74
573.757	32.63
573.952	32.68
574.147	32.7
574.342	32.66
574.537	32.71
574.732	33
574.927	33.18
575.121	33.23
575.316	33.26
575.511	33.45
575.706	33.59
575.901	33.77
576.096	33.9
576.29	33.84
576.485	33.83
576.68	33.89
576.875	34.03
577.069	34.02
577.264	34.17
577.459	34.15
577.654	34.18
577.848	34.09
578.043	34.09
578.238	34.22
578.432	34.39
578.627	34.6
578.821	34.73
579.016	34.62
579.21	34.73
579.405	34.73
579.6	34.68
579.794	34.62
579.989	35.02
580.183	34.88
580.378	34.74
580.572	34.77
580.766	34.99
580.961	34.78
581.155	34.65
581.35	34.42
581.544	34.66
581.738	34.98
581.933	35.13
582.127	34.99
582.321	35.06
582.516	35.22
582.71	35.29
582.904	35.27
583.099	35.41
583.293	35.88
583.487	36.14
583.681	36.05
583.875	36.01
584.07	36.02
584.264	36.29
584.458	36.49
584.652	36.31
584.846	36.44
585.04	36.21
585.234	36.19
585.428	36.03
585.623	36.14
585.817	36.15
586.011	36.13
586.205	36.28
586.399	36.14
586.593	35.96
586.787	36.35
586.981	36.41
587.174	36.31
587.368	36.33
587.562	36.11
587.756	36.24
587.95	36.55
588.144	36.48
588.338	36.38
588.532	36.24
588.725	36.41
588.919	36.41
589.113	36.63
589.307	36.81
589.501	36.73
589.694	37.14
589.888	37.12
590.082	36.95
590.275	37.08
590.469	37.15
590.663	37.31
590.856	37.61
591.05	37.51
591.244	37.38
591.437	37.56
591.631	37.72
591.824	37.59
592.018	37.45
592.212	37.24
592.405	37.28
592.599	37.32
592.792	37.32
592.986	37.04
593.179	36.98
593.372	36.91
593.566	36.85
593.759	36.95
593.953	37.13
594.146	37.2
594.339	37.39
594.533	37.49
594.726	37.5
594.92	37.48
595.113	37.57
595.306	37.67
595.499	37.79
595.693	37.85
595.886	38.04
596.079	37.81
596.272	37.81
596.466	37.73
596.659	37.72
596.852	37.9
597.045	38.08
597.238	37.99
597.431	38.18
597.624	38.14
597.818	38.3
598.011	38.25
598.204	38.34
598.397	38.56
598.59	38.73
598.783	38.83
598.976	38.9
599.169	38.89
599.362	39.1
599.555	38.83
599.748	38.83
599.941	38.76
600.134	38.8
600.326	38.87
600.519	38.65
600.712	38.64
600.905	38.73
601.098	38.43
601.291	38.19
601.483	38.1
601.676	38.12
601.869	38.24
602.062	38.26
602.255	38.16
602.447	38.18
602.64	38.46
602.833	38.36
603.025	38.44
603.218	38.56
603.411	38.89
603.603	39.06
603.796	39.18
603.989	39.3
604.181	39.37
604.374	39.7
604.566	39.61
604.759	39.48
604.951	39.74
605.144	39.63
605.336	39.61
605.529	39.57
605.721	39.63
605.914	39.68
606.106	39.64
606.299	39.51
606.491	39.39
606.683	39.52
606.876	39.54
607.068	39.62
607.26	39.71
607.453	40.02
607.645	39.9
607.837	39.93
608.03	40.03
608.222	40.19
608.414	40.23
608.606	40.17
608.799	39.99
608.991	40.09
609.183	40.03
609.375	40.12
609.567	39.97
609.759	40.02
609.952	39.98
610.144	39.76
610.336	39.68
610.528	39.58
610.72	39.43
610.912	39.72
611.104	39.68
611.296	39.43
611.488	39.19
611.68	39.02
611.872	38.85
612.064	38.86
612.256	39.04
612.448	38.87
612.64	38.91
612.832	38.86
613.023	38.68
613.215	38.4
613.407	38.4
613.599	38.48
613.791	38.67
613.983	38.55
614.174	38.67
614.366	38.78
614.558	38.89
614.75	39.18
614.941	39.38
615.133	39.42
615.325	39.86
615.516	40.3
615.708	40.37
615.9	40.4
616.091	40.87
616.283	40.57
616.475	40.89
616.666	40.62
616.858	40.39
617.049	40.61
617.241	40.58
617.432	40.41
617.624	40.41
617.815	40.44
618.007	40.36
618.198	40.29
618.39	40.28
618.581	39.76
618.773	39.88
618.964	40.2
619.155	40.33
619.347	40.24
619.538	40.29
619.729	40.41
619.921	40.44
620.112	40.25
620.303	40.15
620.494	40.36
620.686	40.72
620.877	40.81
621.068	40.72
621.259	40.54
621.451	40.98
621.642	41.2
621.833	40.78
622.024	40.84
622.215	41.21
622.406	41.2
622.597	41.1
622.788	40.77
622.98	40.99
623.171	41.27
623.362	41.28
623.553	41.1
623.744	41.25
623.935	41.29
624.126	41.3
624.317	40.85
624.508	40.96
624.698	41.27
624.889	41.06
625.08	40.92
625.271	40.94
625.462	40.72
625.653	40.77
625.844	40.59
626.034	40.99
626.225	40.89
626.416	41.29
626.607	41.42
626.798	41.25
626.988	41.81
627.179	42.02
627.37	42.03
627.56	42.4
627.751	42.53
627.942	42.41
628.132	42.05
628.323	42.17
628.514	42.3
628.704	42.39
628.895	42.18
629.085	41.98
629.276	41.77
629.466	41.86
629.657	41.68
629.847	41.6
630.038	41.72
630.228	41.97
630.419	42.29
630.609	42.13
630.8	41.97
630.99	42.35
631.181	42.28
631.371	42.51
631.561	42.27
631.752	42.4
631.942	42.3
632.132	42.55
632.323	42.19
632.513	41.76
632.703	42.2
632.893	42.17
633.084	42.15
633.274	42.06
633.464	42.03
633.654	41.86
633.844	41.37
634.034	41.44
634.225	41.37
634.415	41.6
634.605	41.82
634.795	41.36
634.985	41.5
635.175	41.49
635.365	41.73
635.555	41.66
635.745	41.83
635.935	42.21
636.125	42.28
636.315	41.95
636.505	41.82
636.695	41.89
636.885	42.04
637.075	42.13
637.265	42.33
637.455	42.38
637.644	42.49
637.834	42.49
638.024	42.45
638.214	42.62
638.404	42.85
638.593	42.98
638.783	42.78
638.973	42.85
639.163	42.64
639.352	42.39
639.542	42.4
639.732	42.45
639.921	42.52
640.111	42.49
640.301	42.05
640.49	42.04
640.68	42.57
640.87	42.79
641.059	42.83
641.249	43.03
641.438	43.18
641.628	42.94
641.817	42.95
642.007	42.73
642.196	42.79
642.386	43.03
642.575	42.5
642.764	42.28
642.954	42.28
643.143	42.39
643.333	42.63
643.522	42.19
643.711	42.54
643.901	42.5
644.09	42.65
644.279	42.55
644.469	42.33
644.658	42.5
644.847	42.46
645.036	42.45
645.226	42.24
645.415	42.19
645.604	42.83
645.793	42.45
645.982	42.36
646.171	42.2
646.361	42.28
646.55	42.64
646.739	42.99
646.928	43.03
647.117	42.92
647.306	43.14
647.495	42.94
647.684	43.03
647.873	43.31
648.062	43.38
648.251	43.66
648.44	43.5
648.629	43.56
648.818	43.58
649.007	43.46
649.196	43.43
649.384	43.14
649.573	43.33
649.762	43.23
649.951	43.25
650.14	43.31
650.328	43.17
650.517	43.43
650.706	43.04
650.895	42.79
651.083	42.74
651.272	42.65
651.461	42.9
651.65	42.28
651.838	42.15
652.027	42.23
652.216	42.17
652.404	42.38
652.593	42.66
652.781	42.72
652.97	42.78
653.158	43.02
653.347	43.21
653.535	43.09
653.724	43.62
653.912	43.79
654.101	43.97
654.289	43.84
654.478	43.97
654.666	43.9
654.855	44.14
655.043	44.26
655.231	44.39
655.42	44.44
655.608	44.57
655.796	44.59
655.985	44.68
656.173	44.41
656.361	44.63
656.55	44.62
656.738	44.33
656.926	43.99
657.114	43.86
657.302	43.43
657.491	43.28
657.679	43.11
657.867	43.3
658.055	43.54
658.243	43.3
658.431	42.94
658.619	43.05
658.807	43.34
658.996	43.44
659.184	43.63
659.372	43.78
659.56	43.83
659.748	43.89
659.936	43.78
660.124	43.23
660.311	43.46
660.499	43.82
660.687	43.66
660.875	43.19
661.063	43.37
661.251	43.66
661.439	43.58
661.627	43.82
661.814	43.89
662.002	43.99
662.19	44.18
662.378	44.39
662.565	44.37
662.753	44.2
662.941	44.97
663.129	44.76
663.316	44.63
663.504	44.95
663.692	44.54
663.879	44.6
664.067	44.14
664.254	44.43
664.442	44.18
664.63	44.67
664.817	44.71
665.005	44.34
665.192	44.37
665.38	44.13
665.567	44.02
665.755	44.64
665.942	44.99
666.13	45.09
666.317	44.64
666.504	44.64
666.692	44.08
666.879	44.5
667.067	44.55
667.254	44.74
667.441	44.97
667.629	44.94
667.816	44.89
668.003	44.06
668.19	44.08
668.378	44.22
668.565	44.42
668.752	44.46
668.939	44.66
669.127	44.32
669.314	44.03
669.501	43.96
669.688	44.41
669.875	44.29
670.062	44.7
670.249	45.1
670.436	44.92
670.623	44.99
670.81	45.3
670.997	45
671.184	45.18
671.371	45.6
671.558	45.46
671.745	44.93
671.932	44.78
672.119	44.54
672.306	44.06
672.493	44.49
672.68	44.22
672.867	43.94
673.054	43.87
673.24	44.15
673.427	43.81
673.614	44.26
673.801	44.46
673.988	44.18
674.174	44.65
674.361	45
674.548	45.04
674.734	45.13
674.921	44.92
675.108	44.94
675.294	45.03
675.481	45.27
675.668	44.86
675.854	44.6
676.041	45.23
676.227	45.23
676.414	45.09
676.601	44.83
676.787	45.33
676.974	44.89
677.16	44.28
677.347	44.36
677.533	44.09
677.719	44.73
677.906	44.49
678.092	44.39
678.279	44.71
678.465	44.79
678.651	44.57
678.838	44.32
679.024	45
679.21	45.68
679.397	45.56
679.583	45.44
679.769	45.31
679.955	45.56
680.142	45.51
680.328	45.26
680.514	45.4
680.7	45.62
680.886	45.57
681.073	45.25
681.259	44.96
681.445	44.25
681.631	44.38
681.817	44.03
682.003	43.89
682.189	43.69
682.375	43.38
682.561	43.16
682.747	43.16
682.933	42.89
683.119	43.03
683.305	43.14
683.491	43.75
683.677	44.23
683.863	44.5
684.049	44.48
684.235	44.12
684.42	44.27
684.606	44.21
684.792	44.35
684.978	44.38
685.164	44.54
685.349	44.94
685.535	45.22
685.721	45.38
685.907	44.81
686.092	45.39
686.278	46.02
686.464	46.42
686.649	45.9
686.835	46.3
687.021	46.55
687.206	46.98
687.392	46.69
687.577	46.5
687.763	46.07
687.948	46.48
688.134	46.16
688.319	45.83
688.505	44.92
688.69	45.59
688.876	45.45
689.061	46.06
689.247	45.32
689.432	44.79
689.618	45.1
689.803	45.03
689.988	45.41
690.174	45.09
690.359	45.41
690.544	46.02
690.73	46.02
690.915	45.8
691.1	45.18
691.285	45.46
691.471	45.83
691.656	46.24
691.841	46.8
692.026	46.15
692.211	46.68
692.396	46.45
692.582	46.57
692.767	46.39
692.952	46.19
693.137	45.67
693.322	45.91
693.507	45.91
693.692	45.59
693.877	45.46
694.062	45.48
694.247	45.62
694.432	45.94
694.617	46.18
694.802	46.27
694.987	46.79
695.172	47.4
695.357	47.57
695.541	47.61
695.726	46.9
695.911	46.76
696.096	47.48
696.281	47.21
696.466	47.28
696.65	47.28
696.835	47.27
697.02	46.82
697.204	46.34
697.389	46.32
697.574	46.45
697.759	46.89
697.943	46.72
698.128	46.32
698.312	46.04
698.497	46.2
698.682	46.38
698.866	46.17
699.051	46.7
699.235	46.75
699.42	46.53
699.604	46.51
699.789	46.33
699.973	46.28
700.158	46.51
700.342	46.81
700.527	46.72
700.711	46.43
700.895	46.56
701.08	46.23
701.264	46.25
701.448	46.55
701.633	46.46
701.817	46.21
702.001	45.69
702.186	45.38
702.37	45.35
702.554	44.74
702.738	44.65
702.923	45.33
703.107	45.22
703.291	45.27
703.475	44.71
703.659	44.27
703.843	44.69
704.027	45.92
704.212	45.7
704.396	45.25
704.58	45.49
704.764	45.23
704.948	44.7
705.132	44.91
705.316	45.55
705.5	45.89
705.684	46.86
705.868	47.18
706.052	46.44
706.235	46.38
706.419	46.93
706.603	47.7
706.787	48.1
706.971	48.18
707.155	47.97
707.339	47.53
707.522	47.43
707.706	46.97
707.89	46.74
708.074	46.97
708.257	47.63
708.441	47.04
708.625	46.21
708.808	45.97
708.992	45.81
709.176	45.96
709.359	45.56
709.543	46.02
709.727	46.65
709.91	46.35
710.094	45.97
710.277	46.03
710.461	46.37
710.644	47
710.828	47
711.011	47
711.195	46.9
711.378	47.4
711.562	47.12
711.745	46.51
711.928	46.96
712.112	47.23
712.295	46.22
712.478	46.92
712.662	46.77
712.845	46.87
713.028	46.97
713.212	47.01
713.395	46.22
713.578	45.79
713.761	45.67
713.945	45.84
714.128	45.86
714.311	46.74
714.494	46.64
714.677	46.57
714.86	46.36
715.043	46.62
715.227	46.4
715.41	46.97
715.593	47.29
715.776	47.3
715.959	47.09
716.142	47.46
716.325	47.52
716.508	46.7
716.691	46.56
716.874	46.75
717.057	46.6
717.239	46.38
717.422	46.56
717.605	46.57
717.788	46.89
717.971	46.58
718.154	45.78
718.337	45.76
718.519	46.18
718.702	46.12
718.885	46.59
719.068	46.78
719.25	46.65
719.433	46.57
719.616	46.13
719.798	46.81
719.981	46.53
720.164	47.14
720.346	46.85
720.529	46.48
720.712	45.68
720.894	45.12
721.077	45.03
721.259	45.15
721.442	44.96
721.624	45.23
721.807	44.52
721.989	45.53
722.172	45.5
722.354	45.37
722.537	45.52
722.719	46.42
722.901	46.8
723.084	46.68
723.266	46.62
723.448	46.24
723.631	46.38
723.813	45.8
723.995	44.24
724.178	44.26
724.36	45.58
724.542	45.5
724.724	45.94
724.907	45.7
725.089	45.78
725.271	45.16
725.453	45.95
725.635	45.63
725.817	45.89
725.999	46.46
726.181	46.4
726.364	45.37
726.546	46.16
726.728	45.9
726.91	45.87
727.092	45.54
727.274	46.94
727.456	47.09
727.638	47.13
727.819	47.3
728.001	47.96
728.183	48.16
728.365	48.39
728.547	48.63
728.729	48.16
728.911	47.7
729.093	47.77
729.274	47.99
729.456	46.66
729.638	47.23
729.82	47.72
730.001	47.73
730.183	48.13
730.365	47.43
730.546	46.85
730.728	46.95
730.91	47.16
731.091	46.31
731.273	45.65
731.455	46.47
731.636	46.27
731.818	46.26
731.999	46.44
732.181	45.16
732.362	45.21
732.544	44.62
732.725	45.04
732.907	45.72
733.088	46.41
733.27	46.67
733.451	46.31
733.633	45.7
733.814	44.51
733.995	43.7
734.177	43.93
734.358	44.79
734.539	45.26
734.721	44.94
734.902	44.2
735.083	44.12
735.264	43.9
735.446	45.62
735.627	46.41
735.808	47.36
735.989	46.95
736.17	46.96
736.351	46.66
736.533	46.51
736.714	46.57
736.895	45.89
737.076	46.55
737.257	46.26
737.438	44.99
737.619	44.61
737.8	44.79
737.981	45.63
738.162	46.31
738.343	46.82
738.524	47.7
738.705	47.88
738.886	48.25
739.067	46.93
739.247	47.86
739.428	48.26
739.609	47.77
739.79	47.99
739.971	48.55
740.151	47.7
740.332	46.67
740.513	46.97
740.694	47.33
740.874	46.94
741.055	46.66
741.236	46.95
741.417	46.86
741.597	47.76
741.778	47.26
741.958	46.18
742.139	46.39
742.32	46.15
742.5	46.14
742.681	45.55
742.861	47.11
743.042	48.31
743.222	47.66
743.403	46.28
743.583	45.85
743.764	44.82
743.944	44.53
744.124	45.75
744.305	45.82
744.485	44.72
744.666	44.49
744.846	42.74
745.026	42.43
745.207	41.75
745.387	42.7
745.567	43.29
745.747	43.84
745.928	45.35
746.108	44.6
746.288	45.19
746.468	44.78
746.648	45.45
746.829	46.79
747.009	47.04
747.189	47.74
747.369	47.15
747.549	46.91
747.729	46.79
747.909	46.91
748.089	47.46
748.269	47.6
748.449	48.1
748.629	48.11
748.809	47.98
748.989	48.69
749.169	49.37
749.349	49.23
749.529	49.47
749.709	49.28
749.889	48.3
750.068	47.76
750.248	46.95
750.428	46.61
750.608	47.21
750.788	47.03
750.967	46.69
751.147	45.99
751.327	46.75
751.507	45.03
751.686	45.24
751.866	45.68
752.046	45.19
752.225	46.08
752.405	46.64
752.585	46.63
752.764	46.42
752.944	45.9
753.123	45.27
753.303	44.93
753.482	46.2
753.662	46.91
753.841	46.73
754.021	47.31
754.2	47.28
754.38	46.41
754.559	45.47
754.739	46.14
754.918	46.02
755.097	45.9
755.277	45.7
755.456	46.5
755.635	45.77
755.815	44.84
755.994	45.88
756.173	45.2
756.352	46.45
756.532	46.39
756.711	46.07
756.89	46.36
757.069	47.29
757.248	47.24
757.427	46.27
757.607	45.05
757.786	45.96
757.965	46.05
758.144	46.69
758.323	45.6
758.502	46.7
758.681	47.09
758.86	46.5
759.039	45.82
759.218	46.45
759.397	47.3
759.576	49.29
759.755	49.48
759.934	49.53
760.113	48.76
760.291	49.35
760.47	48.43
760.649	48.41
760.828	49.97
761.007	49.95
761.186	49.96
761.364	49.59
761.543	49.5
761.722	48.64
761.901	46.87
762.079	48.39
762.258	48.64
762.437	48.88
762.615	47.99
762.794	48.29
762.972	47.72
763.151	47.8
763.33	47.21
763.508	47.07
763.687	48.05
763.865	48.36
764.044	47.4
764.222	46.88
764.401	46.25
764.579	48.02
764.758	47.1
764.936	47.43
765.114	47.91
765.293	47.95
765.471	48.47
765.65	47.58
765.828	47.52
766.006	47.86
766.184	48.73
766.363	49.98
766.541	48.11
766.719	48.08
766.898	48.73
767.076	47.23
767.254	48.09
767.432	47.39
767.61	47.91
767.788	48.08
767.967	47.58
768.145	46.7
768.323	44.83
768.501	45.3
768.679	46.9
768.857	45.78
769.035	46.39
769.213	45.71
769.391	44.47
769.569	44.44
769.747	43.57
769.925	43.77
770.103	44.84
770.281	45.72
770.459	45.99
770.636	46.6
770.814	48.75
770.992	50.34
771.17	49.57
771.348	50.82
771.525	51.73
771.703	52.69
771.881	53.42
772.059	52.63
772.236	52.68
772.414	51.34
772.592	48.89
772.769	46.19
772.947	45.27
773.125	46.78
773.302	45.48
773.48	44.36
773.657	44.87
773.835	45.5
774.013	45.58
774.19	43.84
774.368	46.1
774.545	45.89
774.723	44.3
774.9	43.57
775.077	42.25
775.255	44.32
775.432	42.62
775.61	43.09
775.787	40.27
775.964	39.46
776.142	41.52
776.319	41.15
776.496	41.83
776.674	46.26
776.851	48.53
777.028	47.11
777.205	45.28
777.382	45.66
777.56	45.15
777.737	46.24
777.914	45.12
778.091	45.17
778.268	44.5
778.445	45.16
778.622	43.65
778.8	43.48
778.977	45.07
779.154	47.26
779.331	48.93
779.508	48.87
779.685	48.32
779.862	49.06
780.038	49.47
780.215	50.22
780.392	48.42
780.569	46.52
780.746	43.98
780.923	44.84
781.1	43.14
781.277	43.63
781.453	45.79
781.63	47.14
781.807	47.48
781.984	47.92
782.16	46.75
782.337	49.15
782.514	49.5
782.691	50.9
782.867	49.17
783.044	47.88
783.221	46.52
783.397	43.7
783.574	41.18
783.75	41.05
783.927	41
784.103	42.83
784.28	42.55
784.456	46.03
784.633	44.88
784.809	46.9
784.986	49.77
785.162	48.05
785.339	48.45
785.515	49.78
785.692	51.2
785.868	48.02
786.044	44.48
786.221	42.12
786.397	38.62
786.573	38.74
786.749	40.09
786.926	37.23
787.102	39.11
787.278	40.09
787.454	40.64
787.631	39.32
787.807	41.48
787.983	44.36
788.159	47.08
788.335	47.27
788.511	47.52
788.687	44.68
788.863	47.21
789.039	48.86
789.216	47.51
789.392	49.02
789.568	50.84
789.744	50.81
789.919	49.93
790.095	49.56
790.271	51.69
790.447	53.62
790.623	56.37
790.799	57.57
790.975	53.85
791.151	53.67
791.327	55.57
791.502	53.59
791.678	53.02
791.854	53.08
792.03	51.22
792.205	50.18
792.381	47.58
792.557	48.2
792.733	46.62
792.908	50.4
793.084	50.41
793.259	47.04
793.435	45.6
793.611	47.74
793.786	47.42
793.962	49.89
794.137	51.68
794.313	55.72
794.488	54.65
794.664	53.63
794.839	51.01
795.015	51.52
795.19	52.5
795.366	55.02
795.541	53.48
795.716	54.08
795.892	51.35
796.067	51.31
796.242	50.58
796.418	46.95
796.593	47.18
796.768	48.11
796.944	48.78
797.119	49.17
797.294	47.56
797.469	47.18
797.644	45.98
797.82	45.94
797.995	44.69
798.17	43.18
798.345	44.42
798.52	46.58
798.695	44.92
798.87	43.54
799.045	41.05
799.22	43.15
799.395	45.24
799.57	47.88
799.745	49.75
799.92	49.31
800.095	50.25
800.27	52.06
800.445	49.43
800.62	49.76
800.795	51.64
800.97	53.84
801.145	53.31
801.319	50.22
801.494	50.62
801.669	51.21
801.844	52.55
802.018	52.09
802.193	52.86
802.368	53.61
802.543	56.3
802.717	56
802.892	55.76
803.067	54.16
803.241	57.2
803.416	57.68
803.59	55.76
803.765	54.82
803.94	53.28
804.114	51.39
804.289	49.99
804.463	47.94
804.638	45.26
804.812	45.34
804.986	47.8
805.161	46.98
805.335	43.89
805.51	45.05
805.684	45.12
805.858	46.86
806.033	46.19
806.207	46.64
806.381	45.57
806.556	47.45
806.73	46.19
806.904	44.69
807.078	42.15
807.253	42.79
807.427	41.42
807.601	41.79
807.775	42.72
807.949	43.4
808.123	44.84
808.298	46.79
808.472	48.12
808.646	45.75
808.82	47.29
808.994	46.74
809.168	46.31
809.342	49.02
809.516	49.4
809.69	46.43
809.864	46.91
810.038	44.92
810.212	40.49
810.385	38.85
810.559	43.25
810.733	38.93
810.907	39.82
811.081	39.98
811.255	38.14
811.428	36.11
811.602	37.76
811.776	39.91
811.95	41.26
812.123	44.16
812.297	45.65
812.471	45.75
812.644	52.4
812.818	52.92
812.992	51.34
813.165	48.81
813.339	52.52
813.512	52.41
813.686	53.98
813.86	55.17
814.033	55.27
814.207	54.45
814.38	53.47
814.554	49.47
814.727	52.19
814.9	51.92
815.074	56.68
815.247	51.35
815.421	49.27
815.594	45.46
815.767	44.91
815.941	48.63
816.114	46.75
816.287	46.2
816.46	44.64
816.634	39.85
816.807	40.16
816.98	41.5
817.153	44.92
817.327	45.98
817.5	47.02
817.673	45.53
817.846	41.28
818.019	44.33
818.192	45.72
818.365	50.66
818.538	55.79
818.711	57.6
818.884	49.29
819.057	42.88
819.23	41.97
819.403	40.57
819.576	40.66
819.749	41.53
819.922	40.42
820.095	41.3
820.268	38.23
820.441	36.88
820.614	39.28
820.786	44.74
820.959	47.02
821.132	46.8
821.305	46.7
821.477	47.15
821.65	47.32
821.823	47.1
821.996	46.6
822.168	46.86
822.341	47.04
822.514	46.07
822.686	46
822.859	46.74
823.031	46.84
823.204	46
823.376	45.91
823.549	46.34
823.722	46.7
823.894	46.84
824.067	47.05
824.239	46.61
824.411	47.21
824.584	46.52
824.756	46.21
824.929	46.96
825.101	47.68
825.273	48.14
825.446	48.19
825.618	47.33
825.79	47.06
825.963	46.08
826.135	46.17
826.307	45.99
826.479	45.37
826.652	45.08
826.824	44.42
826.996	44.4
827.168	43.51
827.34	42.3
827.512	43.62
827.684	43.61
827.856	43.59
828.029	43.6
828.201	43.86
828.373	44.53
828.545	43.91
828.717	42.46
828.889	42.26
829.061	42.67
829.232	43.6
829.404	41.77
829.576	40.85
829.748	41.6
829.92	42.59
830.092	41.72
830.264	41.8
830.436	43.18
830.607	44.08
830.779	44.63
830.951	45.33
831.123	46.83
831.294	47.61
831.466	47.37
831.638	48.01
831.809	47.61
831.981	49.56
832.153	50.71
832.324	47.32
832.496	45.44
832.667	43.09
832.839	40.26
833.011	37.71
833.182	37.13
833.354	39.33
833.525	39.01
833.697	41.93
833.868	41.18
834.039	41.92
834.211	42.93
834.382	44.47
834.554	46.3
834.725	46.53
834.896	47.39
835.068	48.72
835.239	48.46
835.41	47.68
835.581	45.35
835.753	44.48
835.924	41.95
836.095	43.11
836.266	42.72
836.438	43.17
836.609	43.21
836.78	42.8
836.951	42.65
837.122	42.15
837.293	42.89
837.464	41.36
837.635	41.88
837.806	42.91
837.977	40.16
838.148	41.6
838.319	38.52
838.49	40.74
838.661	38.6
838.832	37.59
839.003	34.06
839.174	29.76
839.345	33.07
839.516	26.14
839.687	25.31
839.857	36.81
840.028	38.22
840.199	43.29
840.37	42.79
840.54	50.05
840.711	50.33
840.882	54.25
841.053	56.42
841.223	55.39
841.394	59.68
841.564	62.55
841.735	55.82
841.906	55.56
842.076	54.14
842.247	50.6
842.417	40.38
842.588	36.6
842.758	40.38
842.929	35.79
843.099	29.14
843.27	27.2
843.44	22.42
843.611	22.4
843.781	15.61
843.951	24.6
844.122	29.6
844.292	34.63
844.462	39.47
844.633	35.83
844.803	46.47
844.973	56.81
845.144	55.77
845.314	63.89
845.484	69.81
845.654	89.47
845.824	84.63
845.995	74.36
846.165	76.22
846.335	80.26
846.505	78.26
846.675	67.65
846.845	68.99
847.015	51.61
847.185	38.97
847.355	30.34
847.525	20.65
847.695	15.6
847.865	21.97
848.035	18.42
848.205	-0.51
848.375	4.89
848.545	-0.05
848.715	-6.27
848.884	4.97
849.054	-4.67
849.224	7.85
849.394	14.07
849.564	-0.22
849.733	22.34
849.903	21.93
850.073	47.29
850.243	57.03
850.412	55.11
850.582	31.63
850.752	20.23
850.921	34.81
851.091	15.7
851.26	8.24
851.43	21.82
851.599	-13.76
851.769	-16.44
851.939	-29.79
852.108	-49.98
852.278	-10.49
852.447	7.03
852.616	18.39
852.786	28.9
852.955	45.75
853.125	39.73
853.294	54.24
853.463	55.22
853.633	57.22
853.802	49.65
853.971	19.55
854.141	-12.84
854.31	14.82
854.479	8.67
854.648	-10.13
854.818	-18.11
854.987	1.92
855.156	-11.02
855.325	21.88
855.494	29.37
855.663	8.05
855.832	-8.61
856.001	4.48
856.171	4.61
856.34	46.87
856.509	67.46
856.678	88.84
856.847	97.78
857.016	89.98
857.185	63.03
857.353	40.87
857.522	43.35
857.691	46.34
857.86	51.02
858.029	63.59
858.198	42.21
858.367	34.02
858.535	20.68
858.704	26.3
858.873	26.44
859.042	33.91
859.21	28.86
859.379	29.09
859.548	39.53
859.717	47.36
859.885	32.52
860.054	39.66
860.222	34.95
860.391	41.78
860.56	31.95
860.728	32.69
860.897	30.79
861.065	47.46
861.234	50.07
861.402	48.01
861.571	42.21
861.739	40.82
861.908	42.8
862.076	44.6
862.244	60.02
862.413	54.69
862.581	47.83
862.749	39.05
862.918	-8.78
863.086	-36.24
863.254	-14.19
863.423	-57.35
863.591	-10.93
863.759	-69.22
863.927	-16.12
864.096	-894.95
864.264	309.81
864.432	534.84
864.6	-514.17
864.768	34.2
864.936	69.81
865.104	43.96
865.272	49.23
865.44	1.83
865.608	7.99
865.776	-51.26
865.944	-55.93
866.112	16.39
866.28	5.76
866.448	11.67
866.616	-10.91
866.784	-9.07
866.952	-9.12
867.12	-3.19
867.288	24.36
867.455	37.32
867.623	54.28
867.791	61.95
867.959	49.62
868.127	76.28
868.294	60.6
868.462	65.25
868.63	79.82
868.797	83.39
868.965	135.35
869.133	106.33
869.3	128.6
869.468	63.89
869.636	73.36
869.803	61.49
869.971	54.44
870.138	46.7
870.306	50.79
870.473	34.81
870.641	38.16
870.808	23.12
870.975	9.99
871.143	26.55
871.31	43.5
871.478	-1.22
871.645	48.04
871.812	31.97
871.98	35.34
872.147	56.85
872.314	102.65
872.482	90.71
872.649	137.08
872.816	119.46
872.983	53.12
873.15	43.47
873.318	70.89
873.485	82.84
873.652	175.19
873.819	113.4
873.986	82.18
874.153	77.06
874.32	76.15
874.487	87.2
874.654	92.34
874.821	88.91
874.988	90.96
875.155	69.74
875.322	58.42
875.489	39.72
875.656	40.55
875.823	40.1
875.99	38.35
876.157	43.87
876.324	42.8
876.49	46.53
876.657	54.02
876.824	39.51
876.991	42.97
877.157	41.39
877.324	33.52
877.491	27.84
877.658	18.25
877.824	-2.81
877.991	-11.19
878.157	-15.8
878.324	-13.65
878.491	-0.06
878.657	8.09
878.824	3.29
878.99	10.5
879.157	28.8
879.323	44.16
879.49	73.61
879.656	99
879.823	81.33
879.989	84.97
880.156	58.64
880.322	63.13
880.488	52.39
880.655	56.27
880.821	47.63
880.987	50.09
881.154	58.11
881.32	33.85
881.486	24.84
881.652	36.18
881.819	36.51
881.985	42.46
882.151	40.49
882.317	37.38
882.483	38.93
882.649	42.33
882.816	40.29
882.982	40.72
883.148	43.39
883.314	45.24
883.48	43.89
883.646	42.47
883.812	42.88
883.978	42.42
884.144	42.5
884.31	41.41
884.476	41.09
884.642	42.42
884.807	43.27
884.973	43.47
885.139	44.11
885.305	45.02
885.471	46.15
885.637	45.7
885.802	47.05
885.968	46.82
886.134	49.44
886.3	50.12
886.465	49.43
886.631	45.97
886.797	44.14
886.962	44.48
887.128	39.99
887.293	37.01
887.459	34.42
887.625	35.91
887.79	44.96
887.956	43.59
888.121	41.14
888.287	41.43
888.452	47.92
888.618	60.22
888.783	45.47
