Data from CB_100_Reflection_1.txt Node
Date: Sat Nov 14 17:44:56 EST 2015
User: robert
Spectrometer: USB4E03001
Autoset integration time: false
Trigger mode: 4
Integration Time (sec): 1.000000E-1
Scans to average: 15
Electric dark correction enabled: true
Nonlinearity correction enabled: false
Boxcar width: 5
Stray light correction enabled: false
XAxis mode: Wavelengths
Stop averaging: false
Number of Pixels in Spectrum: 3648
>>>>>Begin Spectral Data<<<<<
177.566	81.16
177.785	143.35
178.005	12.19
178.225	78.03
178.445	1473.68
178.665	-52.64
178.885	-569.07
179.105	62.67
179.324	91.53
179.544	39.94
179.764	30.88
179.984	63.1
180.204	78.48
180.423	73.84
180.643	92.38
180.863	154.5
181.083	120.43
181.302	141.32
181.522	185.28
181.742	158.51
181.961	245.45
182.181	341.12
182.401	812.57
182.621	487.72
182.84	692.07
183.06	335.81
183.279	235.89
183.499	438.53
183.719	336.37
183.938	173.54
184.158	156.69
184.377	145.03
184.597	187.3
184.816	157.08
185.036	166.37
185.256	186.54
185.475	168.36
185.695	129.76
185.914	101.9
186.134	105.73
186.353	126.73
186.572	132.62
186.792	127.88
187.011	130.96
187.231	130.42
187.45	118.43
187.67	88.98
187.889	93.27
188.108	112.98
188.328	138.94
188.547	159.18
188.766	144.41
188.986	134.23
189.205	126.3
189.424	98.99
189.644	98.7
189.863	101.77
190.082	128.96
190.302	137.34
190.521	94.93
190.74	82.64
190.959	66.63
191.178	73.22
191.398	95.31
191.617	143.39
191.836	161.72
192.055	130.11
192.274	167.64
192.494	180.4
192.713	310.28
192.932	411.81
193.151	688.23
193.37	411.32
193.589	334.53
193.808	462.66
194.027	660.3
194.246	-1805.91
194.465	3175.49
194.685	206.51
194.904	213.33
195.123	141.96
195.342	131.22
195.561	80.09
195.78	80.68
195.999	100.49
196.218	79.67
196.436	92.26
196.655	90.49
196.874	95.04
197.093	105.16
197.312	96.19
197.531	108.63
197.75	125.77
197.969	133.88
198.188	138.56
198.407	125.93
198.625	141.13
198.844	141.99
199.063	142.4
199.282	150.49
199.501	202.31
199.719	172.33
199.938	152.15
200.157	112.45
200.376	115.71
200.594	115.02
200.813	144.97
201.032	128.51
201.251	127.67
201.469	135.52
201.688	128.25
201.907	113.77
202.125	135.16
202.344	158.18
202.563	153.08
202.781	131.43
203	188.45
203.218	210.29
203.437	162.39
203.656	199.31
203.874	142.4
204.093	197.42
204.311	174.59
204.53	190.98
204.748	154.97
204.967	196.1
205.185	252.96
205.404	202.62
205.622	164.08
205.841	176.16
206.059	163.19
206.278	177.73
206.496	135.51
206.715	165.49
206.933	136.13
207.151	128.85
207.37	144.52
207.588	129.17
207.806	124.55
208.025	112.27
208.243	124.33
208.461	136.62
208.68	128.07
208.898	139.53
209.116	115.59
209.335	116.48
209.553	142.52
209.771	129.94
209.989	107.24
210.208	120.18
210.426	124.08
210.644	108.93
210.862	95.74
211.081	90.54
211.299	99.05
211.517	111.66
211.735	119.19
211.953	102.37
212.171	105.8
212.39	108.68
212.608	102.17
212.826	109.79
213.044	118.18
213.262	115.29
213.48	114.02
213.698	103.11
213.916	111.62
214.134	107.55
214.352	116.56
214.57	117.87
214.788	133.19
215.006	151.43
215.224	148.05
215.442	186.38
215.66	167.97
215.878	202.7
216.096	233.07
216.314	201.98
216.532	216.13
216.75	196.27
216.968	204.25
217.185	213.18
217.403	211.15
217.621	284.51
217.839	219.62
218.057	258.28
218.275	191.88
218.492	197.73
218.71	213.85
218.928	217.94
219.146	305.19
219.363	208.45
219.581	215.7
219.799	272.14
220.017	239.68
220.234	215.46
220.452	232.18
220.67	253.83
220.887	373.19
221.105	498.09
221.323	6384.05
221.54	597.3
221.758	3530.71
221.976	1359.1
222.193	318.31
222.411	419.03
222.629	715.13
222.846	953.79
223.064	-908.74
223.281	1000.08
223.499	694.65
223.716	1173.87
223.934	-846.76
224.151	-261.35
224.369	-185.58
224.586	-76.24
224.804	-26.74
225.021	-43.58
225.239	-60.09
225.456	-72.75
225.674	-82.68
225.891	-100
226.108	-165.93
226.326	-157.56
226.543	-113.44
226.76	-67.36
226.978	-48.54
227.195	-65.26
227.413	-54.63
227.63	-27.72
227.847	-27.71
228.064	-14.23
228.282	-8.3
228.499	-1.93
228.716	-7.43
228.934	-8.79
229.151	-9.1
229.368	-10.2
229.585	-10.95
229.802	-9.71
230.02	-11.32
230.237	-10.67
230.454	-8.35
230.671	-7.75
230.888	-11.79
231.105	-12.58
231.323	-12.52
231.54	-20.98
231.757	-24.73
231.974	-28.49
232.191	-29
232.408	-28.4
232.625	-25
232.842	-33.77
233.059	-31.51
233.276	-31.42
233.493	-30.28
233.71	-28.81
233.927	-14.31
234.144	-13.97
234.361	-21.42
234.578	-20.22
234.795	-19.49
235.012	-25.36
235.229	-31.04
235.446	-37.77
235.663	-35.07
235.879	-38.65
236.096	-43.05
236.313	-53.32
236.53	-45.72
236.747	-36.99
236.964	-41
237.181	-42.92
237.397	-41.68
237.614	-37.06
237.831	-35.49
238.048	-36.88
238.264	-31.62
238.481	-34.98
238.698	-20.45
238.915	-18.08
239.131	-15.56
239.348	-15.99
239.565	-16.61
239.781	-12.05
239.998	-12.66
240.215	-10.19
240.431	-11.78
240.648	-8.19
240.865	-2.48
241.081	-4.99
241.298	-7.3
241.514	-5.22
241.731	-2.01
241.947	-1
242.164	-1.45
242.38	-0.28
242.597	-0.74
242.814	1.47
243.03	1.13
243.246	0.19
243.463	-0.64
243.679	0.18
243.896	0.91
244.112	-2.77
244.329	-4.21
244.545	-1.48
244.762	-0.62
244.978	2.7
245.194	1.15
245.411	-1.92
245.627	-0.41
245.843	-0
246.06	1.58
246.276	2.14
246.492	5.42
246.709	5.37
246.925	4.03
247.141	3.48
247.357	2.73
247.574	3.11
247.79	5.33
248.006	5.48
248.222	5.51
248.439	4.73
248.655	3.98
248.871	2.53
249.087	3.57
249.303	3.14
249.519	3.69
249.736	2.65
249.952	2.51
250.168	0.91
250.384	-0.46
250.6	-0.15
250.816	-0.7
251.032	-0.02
251.248	0.69
251.464	-2.22
251.68	-1.81
251.896	-2.36
252.112	-3.12
252.328	-4.83
252.544	-5.05
252.76	-5.33
252.976	-7.12
253.192	-7.13
253.408	-7.28
253.624	-5.75
253.84	-4.96
254.056	-5.79
254.272	-7.21
254.487	-6.79
254.703	-5.11
254.919	-7.6
255.135	-8.25
255.351	-10.12
255.567	-7.19
255.782	-8.69
255.998	-10.26
256.214	-10.96
256.43	-5.8
256.646	-3.71
256.861	0.38
257.077	-0.58
257.293	1.78
257.508	3.59
257.724	4.6
257.94	4.39
258.155	3.03
258.371	2.13
258.587	2.01
258.802	1.45
259.018	2.16
259.234	2.85
259.449	3.73
259.665	4.13
259.88	4.36
260.096	5.15
260.312	5.17
260.527	5.83
260.743	5.46
260.958	5.73
261.174	6.01
261.389	5.66
261.605	4.98
261.82	3.67
262.036	2.63
262.251	0.74
262.466	-0.29
262.682	-2.11
262.897	-4.46
263.113	-3.81
263.328	-3.52
263.543	-5.66
263.759	-7.83
263.974	-7.92
264.189	-6.77
264.405	-7.54
264.62	-6.81
264.835	-4.87
265.051	-2.37
265.266	-1.16
265.481	-1.22
265.696	-1.44
265.912	0.85
266.127	3.62
266.342	4.15
266.557	4.61
266.773	3.43
266.988	3.27
267.203	2.55
267.418	1.31
267.633	3.07
267.848	2.23
268.064	2.63
268.279	1.27
268.494	0.44
268.709	-0.14
268.924	-0.11
269.139	-0.12
269.354	0.84
269.569	-0.72
269.784	-1.03
269.999	-3.16
270.214	-1.33
270.429	-3.99
270.644	-4.42
270.859	-4.81
271.074	-6.16
271.289	-6.89
271.504	-4.29
271.719	-4.56
271.934	-4.97
272.149	-3.47
272.363	-2.04
272.578	-1.14
272.793	-0.05
273.008	0.17
273.223	0.47
273.438	0.54
273.653	1.93
273.867	0.35
274.082	-0.52
274.297	0.9
274.512	-0.89
274.726	-3.47
274.941	-6.75
275.156	-5.43
275.371	-5.07
275.585	-4.96
275.8	-3.73
276.015	-4.23
276.229	-2.99
276.444	-2.02
276.659	-3.1
276.873	-0.91
277.088	1.42
277.302	3.02
277.517	2.15
277.732	1.12
277.946	1.33
278.161	-0.44
278.375	-0.82
278.59	-0.27
278.804	-1.2
279.019	-0.01
279.233	-0.91
279.448	-2.56
279.662	-1.61
279.877	-2.15
280.091	-0.19
280.306	-1.76
280.52	0.18
280.735	0.09
280.949	-0.17
281.163	1.29
281.378	0.69
281.592	1.51
281.806	2.56
282.021	1.87
282.235	3.02
282.449	3.4
282.664	4.52
282.878	3.81
283.092	4.04
283.307	3.37
283.521	2.39
283.735	2.94
283.949	2.96
284.164	3.09
284.378	3.54
284.592	4.07
284.806	3.11
285.02	2.48
285.234	2.63
285.449	3.64
285.663	3.66
285.877	4.38
286.091	4.39
286.305	3.7
286.519	3.58
286.733	2.54
286.947	1.57
287.161	2.35
287.375	3.32
287.589	4.07
287.803	3.89
288.017	3.83
288.231	3.51
288.445	3.18
288.659	2.97
288.873	3.06
289.087	4.29
289.301	3.89
289.515	2.66
289.729	2.05
289.943	0.19
290.157	-1.37
290.371	0.25
290.584	0.85
290.798	0.67
291.012	1.4
291.226	0.81
291.44	0.18
291.654	-0.11
291.867	0.79
292.081	2.03
292.295	3.92
292.509	5.19
292.722	3.74
292.936	2.7
293.15	3.64
293.364	2.8
293.577	3.82
293.791	4.98
294.005	5.93
294.218	6.02
294.432	5.38
294.645	4.95
294.859	5.81
295.073	6.35
295.286	6.41
295.5	6.78
295.713	7.97
295.927	8.02
296.14	7.65
296.354	7.63
296.568	7.2
296.781	7.49
296.994	7.67
297.208	6.02
297.421	6.58
297.635	6.45
297.848	6.11
298.062	6.08
298.275	5.99
298.489	5.94
298.702	6.28
298.915	6.16
299.129	6.41
299.342	5.84
299.555	5.62
299.769	5.33
299.982	6.23
300.195	5.62
300.409	4.75
300.622	2.81
300.835	2.33
301.048	2.47
301.262	3.57
301.475	2.14
301.688	1.86
301.901	2.74
302.115	1.98
302.328	2.08
302.541	2.54
302.754	3.5
302.967	5.68
303.18	6.7
303.393	6.61
303.607	5.03
303.82	6.26
304.033	7.54
304.246	6.99
304.459	7.5
304.672	7.02
304.885	7.12
305.098	6.37
305.311	5.75
305.524	4.74
305.737	4.22
305.95	5.02
306.163	3.39
306.376	2.13
306.589	3.41
306.802	2.4
307.015	0.5
307.228	1.35
307.44	3.67
307.653	5.01
307.866	5.87
308.079	5.68
308.292	6.88
308.505	8.09
308.718	9.5
308.93	10.29
309.143	11.3
309.356	12.35
309.569	12.45
309.781	11.86
309.994	11.22
310.207	10.98
310.42	11.23
310.632	11.02
310.845	10.57
311.058	10.74
311.27	11.06
311.483	10.99
311.696	11.53
311.908	11.75
312.121	10.5
312.333	10.72
312.546	10.62
312.759	10.2
312.971	9.37
313.184	8.5
313.396	6.69
313.609	4.48
313.821	3.67
314.034	2.51
314.246	2.12
314.459	3.21
314.671	2.46
314.884	1.74
315.096	2
315.309	1.23
315.521	2.61
315.733	3.34
315.946	4.92
316.158	6.12
316.371	6.9
316.583	4.88
316.795	4.09
317.008	5.21
317.22	6.78
317.432	5.82
317.644	5.6
317.857	6.28
318.069	7.27
318.281	5.8
318.494	4.47
318.706	3.97
318.918	4.39
319.13	5.77
319.342	5.77
319.555	3.83
319.767	3.92
319.979	4.72
320.191	5.16
320.403	4.21
320.615	6.09
320.827	5.55
321.039	5.77
321.252	7.74
321.464	6.54
321.676	5.2
321.888	5.72
322.1	7.57
322.312	8.23
322.524	6.99
322.736	7.5
322.948	6.99
323.16	8.87
323.372	8.94
323.584	8.48
323.796	7.88
324.007	8.15
324.219	9.08
324.431	8.59
324.643	8.36
324.855	9.06
325.067	9.4
325.279	9.7
325.491	9.98
325.702	10.66
325.914	11.15
326.126	12.47
326.338	15.06
326.55	15.96
326.761	17.12
326.973	17.15
327.185	18.86
327.396	19.74
327.608	19.82
327.82	19.23
328.032	19.91
328.243	19.69
328.455	19.44
328.666	17.68
328.878	17.3
329.09	16.95
329.301	18.48
329.513	16.41
329.725	14.92
329.936	15.35
330.148	15.53
330.359	15.7
330.571	15.58
330.782	17.4
330.994	18.27
331.205	18.41
331.417	18.86
331.628	17.55
331.84	18.55
332.051	19.91
332.262	20.74
332.474	21.27
332.685	21.5
332.897	22.22
333.108	21.9
333.319	21.24
333.531	20.91
333.742	21.11
333.953	22.62
334.165	21.95
334.376	21.73
334.587	21.28
334.799	22.52
335.01	22.31
335.221	22.83
335.432	22.64
335.644	23.25
335.855	24.22
336.066	24.49
336.277	24.12
336.488	24.73
336.7	24.54
336.911	24.44
337.122	23.5
337.333	24.01
337.544	23.52
337.755	23.36
337.966	23.35
338.177	23.42
338.388	22.76
338.599	22.57
338.811	22.4
339.022	22.86
339.233	23.48
339.444	23.36
339.655	22.56
339.866	22.78
340.076	23.31
340.287	22.8
340.498	22.32
340.709	22.2
340.92	22.86
341.131	22.5
341.342	22.38
341.553	22.61
341.764	23.59
341.975	23.74
342.185	23.99
342.396	23.4
342.607	24.25
342.818	23.83
343.029	25.04
343.239	25.27
343.45	25.81
343.661	26.53
343.872	25.94
344.082	25.83
344.293	26.22
344.504	26.43
344.714	26.56
344.925	26.42
345.136	27.27
345.346	25.87
345.557	25.34
345.768	25.64
345.978	24.73
346.189	24.79
346.399	24.14
346.61	23.85
346.821	23.42
347.031	22.93
347.242	22.82
347.452	21.54
347.663	21.61
347.873	21.94
348.084	21.87
348.294	22.36
348.504	22.53
348.715	22.9
348.925	23.54
349.136	23.29
349.346	23.74
349.557	24.23
349.767	24.24
349.977	24.93
350.188	24.18
350.398	24.03
350.608	23.79
350.819	23.05
351.029	22.43
351.239	21.67
351.449	21.62
351.66	21.6
351.87	21.47
352.08	22.29
352.29	22.26
352.501	23.3
352.711	23.58
352.921	23.74
353.131	24.31
353.341	24.39
353.552	25.04
353.762	25.51
353.972	25.64
354.182	25.04
354.392	24.53
354.602	25.1
354.812	24.19
355.022	23.65
355.232	24.07
355.442	24.5
355.652	24.57
355.862	23.14
356.072	22.26
356.282	22.04
356.492	22.41
356.702	23.21
356.912	22.37
357.122	23.12
357.332	23.49
357.542	22.86
357.752	22.16
357.962	22.66
358.171	22.98
358.381	23.79
358.591	23.58
358.801	23.65
359.011	23.4
359.221	23.67
359.43	23.17
359.64	23.1
359.85	23.47
360.06	23.5
360.269	23.08
360.479	23.51
360.689	23.38
360.899	23.61
361.108	23.36
361.318	23.6
361.528	23.06
361.737	22.88
361.947	22.45
362.156	22.66
362.366	22.55
362.576	22.37
362.785	22.16
362.995	22.56
363.204	22.4
363.414	22.07
363.623	21.66
363.833	21.58
364.042	21.66
364.252	22.35
364.461	21.84
364.671	22.2
364.88	22.29
365.09	22.66
365.299	22.39
365.509	22.03
365.718	21.76
365.927	21.53
366.137	22.08
366.346	21.81
366.555	21.44
366.765	21.2
366.974	20.7
367.183	20.36
367.393	20.01
367.602	19.5
367.811	20.04
368.021	20.37
368.23	20.45
368.439	20.21
368.648	20.87
368.857	20.03
369.067	19.94
369.276	19.5
369.485	19.42
369.694	19.49
369.903	19.17
370.112	19.03
370.321	19.92
370.531	19.85
370.74	19.86
370.949	19.16
371.158	19.8
371.367	19.64
371.576	19.9
371.785	19.8
371.994	19.75
372.203	19.82
372.412	19.38
372.621	18.45
372.83	18.41
373.039	18.3
373.248	18.4
373.457	17.66
373.666	17.59
373.874	17.28
374.083	17.29
374.292	16.84
374.501	17.12
374.71	17.1
374.919	17.41
375.128	17.18
375.336	17.3
375.545	17.29
375.754	17.4
375.963	17.47
376.171	17.85
376.38	18.54
376.589	18.43
376.798	17.81
377.006	17.85
377.215	17.6
377.424	17.69
377.632	17.36
377.841	17.42
378.05	17.5
378.258	17.31
378.467	17.12
378.675	16.76
378.884	16.21
379.093	16.31
379.301	16.57
379.51	16.7
379.718	16.22
379.927	16.44
380.135	16.56
380.344	16.48
380.552	16.1
380.761	15.98
380.969	15.92
381.177	16.66
381.386	16.61
381.594	16.45
381.803	16.24
382.011	16.01
382.219	15.67
382.428	15.15
382.636	15.12
382.845	15.46
383.053	15.84
383.261	15.55
383.469	15.21
383.678	15.35
383.886	15.08
384.094	15.14
384.302	15.1
384.511	14.97
384.719	15.21
384.927	15.21
385.135	15.25
385.343	14.77
385.552	14.5
385.76	14.23
385.968	14
386.176	13.72
386.384	13.29
386.592	13.43
386.8	13.28
387.008	12.96
387.216	13.12
387.424	12.86
387.633	12.59
387.841	12.69
388.049	12.76
388.257	12.8
388.465	13.01
388.672	12.69
388.88	12.54
389.088	12.62
389.296	12.35
389.504	11.98
389.712	12.26
389.92	12.3
390.128	12.14
390.336	12.16
390.544	12.02
390.751	11.66
390.959	11.96
391.167	12.19
391.375	12.03
391.583	11.92
391.79	11.73
391.998	11.59
392.206	11.95
392.414	11.89
392.621	11.75
392.829	11.64
393.037	12.09
393.244	12.16
393.452	11.7
393.66	11.96
393.867	11.97
394.075	12.39
394.283	12.06
394.49	11.67
394.698	11.65
394.905	11.68
395.113	11.81
395.32	11.42
395.528	11.09
395.735	11.4
395.943	10.91
396.15	11.25
396.358	10.79
396.565	11.08
396.773	11.36
396.98	11.38
397.188	11.67
397.395	11.27
397.602	11.28
397.81	11.36
398.017	10.97
398.225	11.29
398.432	11.03
398.639	11.27
398.847	10.9
399.054	10.49
399.261	10.55
399.468	10.48
399.676	10.61
399.883	10.42
400.09	10.3
400.297	10.73
400.505	10.49
400.712	10.45
400.919	10.28
401.126	10.22
401.333	10.57
401.54	10.76
401.748	10.48
401.955	10.46
402.162	10.71
402.369	10.66
402.576	10.37
402.783	10.57
402.99	10.74
403.197	10.58
403.404	10.6
403.611	10.25
403.818	9.96
404.025	9.63
404.232	9.45
404.439	9.15
404.646	9.12
404.853	9.24
405.06	9.01
405.267	8.75
405.474	8.94
405.681	9.04
405.887	8.85
406.094	8.61
406.301	8.93
406.508	9.09
406.715	9.06
406.922	9.01
407.128	9.06
407.335	8.98
407.542	8.95
407.749	8.72
407.955	8.65
408.162	8.97
408.369	9.25
408.575	9.2
408.782	9
408.989	8.88
409.195	9.21
409.402	8.96
409.609	9.24
409.815	9.31
410.022	9.37
410.228	9.45
410.435	9.33
410.642	9.46
410.848	9.22
411.055	9.28
411.261	9.69
411.468	9.53
411.674	9.55
411.881	9.31
412.087	9.15
412.294	9.15
412.5	9.15
412.706	9.15
412.913	8.84
413.119	9.04
413.326	9.23
413.532	9.37
413.738	9.36
413.945	9.55
414.151	9.73
414.357	9.93
414.564	9.77
414.77	9.59
414.976	9.53
415.182	9.43
415.389	9.34
415.595	9.34
415.801	9.18
416.007	9.15
416.214	8.98
416.42	9.06
416.626	9.02
416.832	9.21
417.038	9.37
417.244	9.58
417.45	9.83
417.657	9.85
417.863	9.76
418.069	9.73
418.275	9.58
418.481	9.57
418.687	9.54
418.893	9.63
419.099	9.62
419.305	9.6
419.511	9.51
419.717	9.39
419.923	9.39
420.129	9.26
420.335	9.31
420.541	9.59
420.746	9.67
420.952	9.64
421.158	9.59
421.364	9.64
421.57	9.64
421.776	9.59
421.982	9.47
422.187	9.44
422.393	9.62
422.599	9.53
422.805	9.48
423.01	9.61
423.216	9.63
423.422	9.54
423.628	9.52
423.833	9.57
424.039	9.74
424.245	9.83
424.45	9.91
424.656	9.74
424.862	9.75
425.067	9.56
425.273	9.37
425.478	9.22
425.684	9.32
425.889	9.19
426.095	9.24
426.301	8.95
426.506	8.97
426.712	8.79
426.917	8.79
427.123	8.69
427.328	8.93
427.533	8.86
427.739	9.13
427.944	9.01
428.15	9.02
428.355	8.52
428.561	8.56
428.766	8.58
428.971	8.59
429.177	8.84
429.382	8.78
429.587	8.63
429.793	8.64
429.998	8.43
430.203	8.31
430.408	8.33
430.614	8.33
430.819	8.34
431.024	8.4
431.229	8.61
431.434	8.33
431.64	8.34
431.845	8.43
432.05	8.41
432.255	8.41
432.46	8.53
432.665	8.26
432.87	8.42
433.076	8.41
433.281	8.29
433.486	8.19
433.691	8.26
433.896	8.29
434.101	8.17
434.306	8.15
434.511	8.17
434.716	8.14
434.921	8.29
435.126	8.27
435.331	8.44
435.535	8.55
435.74	8.45
435.945	8.46
436.15	8.38
436.355	8.46
436.56	8.56
436.765	8.56
436.97	8.55
437.174	8.62
437.379	8.83
437.584	8.77
437.789	8.7
437.993	8.81
438.198	8.84
438.403	9
438.608	9.01
438.812	8.97
439.017	8.95
439.222	9.08
439.426	9.04
439.631	8.95
439.836	8.9
440.04	9.04
440.245	9.16
440.45	9.12
440.654	9.24
440.859	9.24
441.063	9.17
441.268	9.11
441.472	9.02
441.677	9.26
441.881	9.27
442.086	9.23
442.29	9.07
442.495	9.06
442.699	8.99
442.904	8.78
443.108	8.62
443.312	8.8
443.517	8.71
443.721	8.66
443.925	8.53
444.13	8.54
444.334	8.63
444.538	8.85
444.743	8.75
444.947	8.8
445.151	8.97
445.356	9.17
445.56	9.05
445.764	9.34
445.968	9.37
446.173	9.17
446.377	8.96
446.581	8.82
446.785	8.59
446.989	8.58
447.193	8.66
447.398	8.6
447.602	8.55
447.806	8.6
448.01	8.48
448.214	8.49
448.418	8.44
448.622	8.41
448.826	8.41
449.03	8.57
449.234	8.47
449.438	8.41
449.642	8.21
449.846	8.06
450.05	7.85
450.254	7.67
450.458	7.62
450.662	7.76
450.866	8.07
451.069	8.23
451.273	7.97
451.477	7.96
451.681	7.91
451.885	8.03
452.089	8.02
452.292	8.27
452.496	8.31
452.7	8.22
452.904	8.21
453.107	8.07
453.311	8.06
453.515	8.06
453.719	8.09
453.922	7.93
454.126	7.75
454.33	7.86
454.533	7.71
454.737	7.78
454.94	7.9
455.144	7.95
455.348	7.97
455.551	7.83
455.755	7.91
455.958	8.01
456.162	8.04
456.365	8.2
456.569	8.11
456.772	8.19
456.976	8.1
457.179	8.04
457.383	7.9
457.586	7.91
457.79	8.15
457.993	8.2
458.196	8.09
458.4	8.25
458.603	8.24
458.807	8.22
459.01	8.18
459.213	8.35
459.417	8.47
459.62	8.47
459.823	8.52
460.026	8.39
460.23	8.44
460.433	8.39
460.636	8.41
460.839	8.37
461.042	8.39
461.246	8.36
461.449	8.25
461.652	8.11
461.855	8.23
462.058	8.09
462.261	8.07
462.464	7.96
462.668	8.03
462.871	7.92
463.074	8.04
463.277	7.99
463.48	8.01
463.683	8.01
463.886	8.02
464.089	7.65
464.292	7.79
464.495	7.92
464.698	7.95
464.901	8.01
465.104	8.23
465.306	8.05
465.509	7.92
465.712	7.97
465.915	7.93
466.118	7.81
466.321	7.93
466.524	7.97
466.726	7.69
466.929	7.61
467.132	7.54
467.335	7.21
467.538	7.43
467.74	7.37
467.943	7.13
468.146	7.14
468.348	7.27
468.551	7.39
468.754	7.3
468.956	7.51
469.159	7.57
469.362	7.7
469.564	7.9
469.767	7.83
469.969	8.16
470.172	8.42
470.375	8.18
470.577	8.14
470.78	8.03
470.982	8.3
471.185	8.4
471.387	8.33
471.59	8.33
471.792	8.16
471.995	8.09
472.197	7.92
472.399	7.65
472.602	7.63
472.804	7.58
473.007	7.57
473.209	7.39
473.411	7.16
473.614	7.16
473.816	7.04
474.018	7.21
474.22	7.13
474.423	7.12
474.625	7.33
474.827	7.5
475.03	7.59
475.232	7.71
475.434	7.8
475.636	7.9
475.838	8.03
476.04	8.03
476.243	7.75
476.445	7.93
476.647	7.97
476.849	8.03
477.051	8.24
477.253	8.12
477.455	7.96
477.657	7.84
477.859	7.76
478.061	7.73
478.263	7.73
478.465	7.9
478.667	7.85
478.869	7.87
479.071	7.76
479.273	7.73
479.475	7.9
479.677	7.96
479.879	8.04
480.081	8.16
480.283	8.1
480.485	8.11
480.686	8.34
480.888	8.39
481.09	8.41
481.292	8.54
481.494	8.47
481.695	8.56
481.897	8.72
482.099	8.66
482.301	8.68
482.502	8.78
482.704	8.88
482.906	8.89
483.107	8.93
483.309	9.03
483.511	9.04
483.712	9.1
483.914	9.09
484.115	9.08
484.317	9.17
484.519	9.16
484.72	9.19
484.922	9.15
485.123	9.14
485.325	9.09
485.526	9.03
485.728	9.01
485.929	8.97
486.131	8.89
486.332	8.88
486.534	8.82
486.735	8.82
486.936	8.83
487.138	8.84
487.339	8.85
487.541	8.95
487.742	8.96
487.943	9.01
488.144	9.04
488.346	9.04
488.547	9.05
488.748	9.03
488.95	9.09
489.151	9.01
489.352	8.95
489.553	8.87
489.755	8.78
489.956	8.74
490.157	8.63
490.358	8.53
490.559	8.59
490.76	8.51
490.961	8.55
491.163	8.64
491.364	8.66
491.565	8.72
491.766	8.75
491.967	8.72
492.168	8.76
492.369	8.73
492.57	8.73
492.771	8.75
492.972	8.72
493.173	8.68
493.374	8.55
493.575	8.52
493.776	8.51
493.976	8.5
494.177	8.42
494.378	8.41
494.579	8.52
494.78	8.59
494.981	8.48
495.182	8.68
495.382	8.7
495.583	8.56
495.784	8.66
495.985	8.76
496.185	8.7
496.386	8.79
496.587	8.73
496.788	8.74
496.988	8.69
497.189	8.78
497.39	8.69
497.59	8.66
497.791	8.68
497.992	8.72
498.192	8.52
498.393	8.61
498.593	8.73
498.794	8.69
498.994	8.64
499.195	8.56
499.395	8.6
499.596	8.71
499.796	8.72
499.997	8.88
500.197	8.69
500.398	8.69
500.598	8.67
500.799	8.74
500.999	8.77
501.199	8.66
501.4	8.67
501.6	8.52
501.801	8.49
502.001	8.58
502.201	8.43
502.402	8.45
502.602	8.37
502.802	8.37
503.002	8.13
503.203	8.22
503.403	8.24
503.603	8.45
503.803	8.48
504.003	8.34
504.204	8.35
504.404	8.67
504.604	8.85
504.804	9.04
505.004	8.92
505.204	9.02
505.404	8.95
505.604	8.95
505.804	8.94
506.005	8.9
506.205	9.13
506.405	9
506.605	8.74
506.805	8.67
507.005	8.53
507.204	8.74
507.404	8.68
507.604	8.83
507.804	8.94
508.004	8.95
508.204	9.04
508.404	8.92
508.604	9.11
508.804	9.21
509.003	9.38
509.203	9.65
509.403	9.73
509.603	9.78
509.803	9.77
510.002	9.81
510.202	9.82
510.402	9.91
510.602	9.82
510.801	9.71
511.001	9.63
511.201	9.52
511.4	9.35
511.6	9.35
511.8	9.53
511.999	9.57
512.199	9.6
512.398	9.58
512.598	9.53
512.797	9.76
512.997	9.81
513.197	9.98
513.396	10.12
513.596	10.27
513.795	10.26
513.994	10.03
514.194	10.14
514.393	10.29
514.593	10.51
514.792	10.65
514.992	10.77
515.191	10.95
515.39	10.97
515.59	10.99
515.789	11.09
515.988	11.28
516.188	11.54
516.387	11.65
516.586	11.65
516.786	11.62
516.985	11.64
517.184	11.6
517.383	11.68
517.582	11.77
517.782	11.87
517.981	11.96
518.18	12.04
518.379	12.14
518.578	12.15
518.777	12.17
518.976	12.33
519.176	12.4
519.375	12.53
519.574	12.61
519.773	12.65
519.972	12.65
520.171	12.64
520.37	12.53
520.569	12.67
520.768	12.7
520.967	12.87
521.166	12.94
521.365	13.2
521.564	13.2
521.762	13.3
521.961	13.46
522.16	13.71
522.359	14.03
522.558	14.27
522.757	14.23
522.956	14.34
523.154	14.54
523.353	14.57
523.552	14.57
523.751	14.79
523.949	14.96
524.148	15.09
524.347	15.12
524.546	15.18
524.744	15.43
524.943	15.52
525.142	15.67
525.34	15.78
525.539	15.88
525.737	16.11
525.936	16.28
526.135	16.37
526.333	16.53
526.532	16.69
526.73	16.92
526.929	17.02
527.127	17.31
527.326	17.55
527.524	17.68
527.723	17.93
527.921	18.03
528.12	18.21
528.318	18.34
528.516	18.45
528.715	18.59
528.913	18.68
529.112	18.76
529.31	18.85
529.508	18.92
529.707	19.06
529.905	19.08
530.103	19.14
530.301	19.13
530.5	19.27
530.698	19.35
530.896	19.43
531.094	19.49
531.293	19.57
531.491	19.65
531.689	19.71
531.887	19.82
532.085	20.02
532.283	20.16
532.481	20.33
532.68	20.45
532.878	20.64
533.076	20.8
533.274	20.92
533.472	21.02
533.67	21.21
533.868	21.31
534.066	21.34
534.264	21.44
534.462	21.51
534.66	21.54
534.858	21.62
535.056	21.67
535.253	21.67
535.451	21.81
535.649	22.05
535.847	21.93
536.045	22.08
536.243	22.25
536.441	22.26
536.638	22.39
536.836	22.51
537.034	22.53
537.232	22.48
537.43	22.6
537.627	22.59
537.825	22.55
538.023	22.75
538.22	22.84
538.418	22.75
538.616	23.01
538.813	23.17
539.011	23.34
539.209	23.55
539.406	23.94
539.604	24.18
539.801	24.33
539.999	24.64
540.196	24.74
540.394	24.88
540.591	25.23
540.789	25.31
540.986	25.43
541.184	25.56
541.381	25.66
541.579	25.68
541.776	25.79
541.974	25.9
542.171	25.91
542.368	26.03
542.566	26.09
542.763	26.09
542.96	26.11
543.158	26.18
543.355	26.28
543.552	26.34
543.75	26.38
543.947	26.32
544.144	26.33
544.341	26.32
544.539	26.39
544.736	26.45
544.933	26.53
545.13	26.56
545.327	26.57
545.524	26.48
545.722	26.43
545.919	26.55
546.116	26.63
546.313	26.72
546.51	26.72
546.707	26.76
546.904	26.85
547.101	26.79
547.298	26.84
547.495	26.81
547.692	26.94
547.889	27.11
548.086	27.16
548.283	27.11
548.48	27.08
548.677	27.16
548.874	27.16
549.07	27.09
549.267	27.41
549.464	27.49
549.661	27.63
549.858	27.61
550.055	27.6
550.251	27.66
550.448	27.89
550.645	28.11
550.842	28.34
551.038	28.39
551.235	28.64
551.432	28.57
551.628	28.68
551.825	28.85
552.022	28.96
552.218	29.02
552.415	28.87
552.612	28.89
552.808	28.98
553.005	29.05
553.201	29.29
553.398	29.17
553.594	29.18
553.791	29.28
553.987	29.34
554.184	29.43
554.38	29.41
554.577	29.64
554.773	29.73
554.97	29.63
555.166	29.56
555.362	29.52
555.559	29.67
555.755	29.7
555.952	29.62
556.148	29.62
556.344	29.63
556.541	29.91
556.737	29.85
556.933	29.91
557.129	29.97
557.326	30.05
557.522	30.18
557.718	30.25
557.914	30.39
558.11	30.55
558.307	30.65
558.503	30.58
558.699	30.47
558.895	30.71
559.091	30.61
559.287	30.76
559.483	30.96
559.679	30.77
559.876	30.91
560.072	30.92
560.268	30.79
560.464	31.01
560.66	31.21
560.856	31.23
561.052	31.34
561.247	31.59
561.443	31.58
561.639	31.58
561.835	31.5
562.031	31.58
562.227	31.56
562.423	31.58
562.619	31.48
562.815	31.47
563.01	31.76
563.206	31.77
563.402	31.74
563.598	31.68
563.793	31.66
563.989	31.96
564.185	31.79
564.381	31.66
564.576	31.85
564.772	32.05
564.968	32.09
565.163	31.96
565.359	32.02
565.555	32.19
565.75	32.28
565.946	32.37
566.141	32.35
566.337	32.44
566.532	32.56
566.728	32.56
566.923	32.34
567.119	32.22
567.314	31.95
567.51	32.04
567.705	31.87
567.901	31.9
568.096	31.69
568.292	31.84
568.487	31.92
568.682	31.85
568.878	32.09
569.073	32.01
569.268	32.15
569.464	32.51
569.659	32.35
569.854	32.45
570.05	32.54
570.245	33.13
570.44	32.93
570.635	32.72
570.831	32.9
571.026	32.68
571.221	32.93
571.416	33.12
571.611	33.17
571.806	33.21
572.002	33.21
572.197	33.37
572.392	33.04
572.587	33.07
572.782	33.25
572.977	33.26
573.172	33.36
573.367	33.22
573.562	33.16
573.757	33.16
573.952	33.08
574.147	33.04
574.342	33.01
574.537	33.09
574.732	33.23
574.927	33.23
575.121	33.19
575.316	33.24
575.511	33.43
575.706	33.5
575.901	33.63
576.096	33.78
576.29	33.91
576.485	33.91
576.68	34.06
576.875	34.13
577.069	34.2
577.264	34.24
577.459	34.26
577.654	34.26
577.848	34.22
578.043	34.14
578.238	34.16
578.432	33.95
578.627	33.86
578.821	33.74
579.016	33.67
579.21	33.54
579.405	33.62
579.6	33.66
579.794	33.5
579.989	33.48
580.183	33.25
580.378	33.16
580.572	33.31
580.766	33.51
580.961	33.55
581.155	33.47
581.35	33.77
581.544	33.63
581.738	33.66
581.933	33.95
582.127	33.96
582.321	34.12
582.516	34.03
582.71	34.28
582.904	34.2
583.099	33.98
583.293	34.31
583.487	34.27
583.681	34.6
583.875	34.42
584.07	34.16
584.264	34.16
584.458	34.18
584.652	34.39
584.846	34.32
585.04	34.15
585.234	34.14
585.428	33.97
585.623	34.12
585.817	33.82
586.011	33.95
586.205	34.31
586.399	34.38
586.593	34.21
586.787	34.24
586.981	34.08
587.174	34.15
587.368	34.16
587.562	34.14
587.756	34.02
587.95	34.26
588.144	34.26
588.338	34.16
588.532	34.03
588.725	34.41
588.919	34.48
589.113	34.48
589.307	34.45
589.501	34.52
589.694	34.79
589.888	34.81
590.082	34.54
590.275	34.75
590.469	34.7
590.663	34.81
590.856	34.88
591.05	34.74
591.244	34.99
591.437	35.17
591.631	35.15
591.824	34.98
592.018	34.83
592.212	34.8
592.405	34.6
592.599	34.57
592.792	34.33
592.986	34.04
593.179	34.31
593.372	34.15
593.566	34.3
593.759	34.43
593.953	34.75
594.146	34.77
594.339	35.2
594.533	35.27
594.726	35.45
594.92	35.69
595.113	35.74
595.306	35.48
595.499	35.51
595.693	35.51
595.886	35.65
596.079	35.23
596.272	35.47
596.466	35.28
596.659	35.26
596.852	35.16
597.045	35.31
597.238	35.4
597.431	35.69
597.624	35.92
597.818	36
598.011	35.8
598.204	36.04
598.397	35.94
598.59	36.03
598.783	36.15
598.976	36.24
599.169	36.09
599.362	36.13
599.555	35.88
599.748	35.62
599.941	35.38
600.134	35.5
600.326	35.44
600.519	35.32
600.712	35.35
600.905	35.08
601.098	35.03
601.291	34.99
601.483	34.75
601.676	34.8
601.869	34.75
602.062	34.9
602.255	34.94
602.447	34.91
602.64	34.86
602.833	35.04
603.025	35.34
603.218	35.28
603.411	35.53
603.603	35.75
603.796	35.82
603.989	35.92
604.181	35.96
604.374	36.15
604.566	36.25
604.759	36.25
604.951	36.31
605.144	36.27
605.336	36.36
605.529	36.26
605.721	36.28
605.914	36.41
606.106	36.53
606.299	36.37
606.491	36.32
606.683	36.4
606.876	36.5
607.068	36.15
607.26	36.14
607.453	36.32
607.645	36.21
607.837	36.08
608.03	36.02
608.222	36.14
608.414	36.37
608.606	36.3
608.799	36.13
608.991	36.32
609.183	36.67
609.375	36.85
609.567	36.84
609.759	37.05
609.952	37.22
610.144	37.35
610.336	37.22
610.528	37.1
610.72	37.18
610.912	37.26
611.104	37.25
611.296	36.92
611.488	36.69
611.68	36.42
611.872	36.23
612.064	36.14
612.256	35.73
612.448	35.55
612.64	35.33
612.832	35.12
613.023	35.04
613.215	34.76
613.407	34.86
613.599	34.98
613.791	35.22
613.983	35.1
614.174	35.27
614.366	35.5
614.558	35.47
614.75	35.78
614.941	35.92
615.133	36.03
615.325	36.12
615.516	36.2
615.708	36.14
615.9	36.06
616.091	36.31
616.283	36.23
616.475	36.32
616.666	36.48
616.858	36.42
617.049	36.27
617.241	36.21
617.432	36.33
617.624	36.31
617.815	36.35
618.007	36.25
618.198	36.3
618.39	35.9
618.581	35.77
618.773	35.78
618.964	35.7
619.155	36.1
619.347	35.98
619.538	36.04
619.729	36.32
619.921	36.14
620.112	36.2
620.303	35.53
620.494	35.73
620.686	35.7
620.877	35.72
621.068	35.81
621.259	35.22
621.451	35.31
621.642	34.99
621.833	34.88
622.024	34.78
622.215	34.91
622.406	35.52
622.597	35.81
622.788	36
622.98	35.97
623.171	36
623.362	36.26
623.553	36.34
623.744	36.59
623.935	36.55
624.126	36.94
624.317	36.6
624.508	36.73
624.698	36.71
624.889	36.38
625.08	36.57
625.271	36.57
625.462	36.54
625.653	36.68
625.844	36.59
626.034	36.66
626.225	36.78
626.416	37.08
626.607	37
626.798	36.75
626.988	37.1
627.179	36.98
627.37	37.11
627.56	37.49
627.751	37.34
627.942	37.32
628.132	37.13
628.323	36.95
628.514	36.77
628.704	36.93
628.895	36.78
629.085	36.55
629.276	36.52
629.466	36.78
629.657	36.45
629.847	36.33
630.038	36.57
630.228	36.68
630.419	36.66
630.609	36.8
630.8	36.57
630.99	36.89
631.181	36.98
631.371	36.83
631.561	36.47
631.752	36.63
631.942	36.81
632.132	36.66
632.323	36.42
632.513	36.49
632.703	36.56
632.893	36.89
633.084	36.77
633.274	36.67
633.464	36.84
633.654	36.9
633.844	36.74
634.034	36.63
634.225	36.56
634.415	36.71
634.605	36.53
634.795	36.67
634.985	36.46
635.175	36.76
635.365	37.11
635.555	37.33
635.745	37.27
635.935	37.21
636.125	37.17
636.315	37.33
636.505	37.4
636.695	37.56
636.885	37.14
637.075	37.1
637.265	37.18
637.455	37.13
637.644	36.76
637.834	36.81
638.024	36.65
638.214	37.08
638.404	37.04
638.593	37.1
638.783	36.95
638.973	37.26
639.163	36.97
639.352	36.45
639.542	36.24
639.732	36.6
639.921	36.22
640.111	36.26
640.301	35.94
640.49	35.92
640.68	36.17
640.87	36.34
641.059	36.18
641.249	36.5
641.438	36.68
641.628	36.52
641.817	36.49
642.007	36.62
642.196	36.86
642.386	37.02
642.575	36.68
642.764	36.64
642.954	36.69
643.143	36.83
643.333	36.78
643.522	36.51
643.711	36.6
643.901	36.44
644.09	36.62
644.279	36.51
644.469	36.08
644.658	36.49
644.847	36.19
645.036	36.15
645.226	36.03
645.415	36.29
645.604	36.53
645.793	36.52
645.982	36.22
646.171	35.93
646.361	35.87
646.55	36.2
646.739	36.06
646.928	36.06
647.117	35.96
647.306	36.05
647.495	35.92
647.684	35.9
647.873	36.28
648.062	36.35
648.251	36.98
648.44	36.86
648.629	36.62
648.818	37.11
649.007	37.32
649.196	37.57
649.384	37.33
649.573	37.58
649.762	37.7
649.951	37.63
650.14	37.58
650.328	37.26
650.517	37.53
650.706	37.62
650.895	37.02
651.083	36.99
651.272	36.86
651.461	37.2
651.65	36.66
651.838	36.7
652.027	36.24
652.216	36.43
652.404	36.46
652.593	36.63
652.781	36.59
652.97	36.86
653.158	36.7
653.347	36.72
653.535	36.47
653.724	36.92
653.912	36.58
654.101	36.91
654.289	36.88
654.478	37.02
654.666	36.58
654.855	37.13
655.043	36.85
655.231	36.67
655.42	36.75
655.608	37.21
655.796	37.09
655.985	37.32
656.173	37.43
656.361	37.61
656.55	37.51
656.738	37.78
656.926	37.31
657.114	37.34
657.302	37.49
657.491	37.38
657.679	37.2
657.867	37.39
658.055	37.63
658.243	37.28
658.431	37.04
658.619	37.15
658.807	37.35
658.996	37.47
659.184	37.45
659.372	37.55
659.56	37.67
659.748	37.57
659.936	37.41
660.124	37.42
660.311	37.63
660.499	37.94
660.687	37.57
660.875	37.36
661.063	37.31
661.251	37.56
661.439	37.11
661.627	37.28
661.814	37.56
662.002	37.34
662.19	36.7
662.378	36.92
662.565	36.86
662.753	37.33
662.941	37.24
663.129	36.89
663.316	36.67
663.504	37.16
663.692	36.43
663.879	36.37
664.067	36.43
664.254	36.93
664.442	37.03
664.63	36.92
664.817	36.81
665.005	36.66
665.192	36.94
665.38	37.03
665.567	37.32
665.755	37.98
665.942	37.46
666.13	37.49
666.317	37.63
666.504	37.08
666.692	37
666.879	37.21
667.067	37.38
667.254	37.68
667.441	37.99
667.629	37.69
667.816	37.6
668.003	37.59
668.19	37.67
668.378	37.53
668.565	37.5
668.752	37.41
668.939	37.42
669.127	37.47
669.314	36.76
669.501	36.74
669.688	36.83
669.875	36.74
670.062	37.4
670.249	37.66
670.436	37.55
670.623	37.72
670.81	37.68
670.997	37.38
671.184	37.72
671.371	37.8
671.558	37.42
671.745	37.21
671.932	36.87
672.119	36.46
672.306	35.94
672.493	36.07
672.68	36.1
672.867	36.41
673.054	36.31
673.24	36.21
673.427	36.38
673.614	36.67
673.801	36.72
673.988	36.83
674.174	36.63
674.361	36.74
674.548	36.65
674.734	37.03
674.921	36.66
675.108	36.7
675.294	36.98
675.481	36.61
675.668	36.29
675.854	36.35
676.041	36.3
676.227	36.35
676.414	36.34
676.601	36.5
676.787	35.69
676.974	35.76
677.16	35.51
677.347	35.26
677.533	35.98
677.719	36.31
677.906	35.7
678.092	35.88
678.279	36.4
678.465	36.39
678.651	36.33
678.838	36.55
679.024	36.97
679.21	37.13
679.397	37.31
679.583	36.86
679.769	36.73
679.955	37.18
680.142	37.49
680.328	37.21
680.514	37.13
680.7	37.19
680.886	37.16
681.073	36.88
681.259	36.71
681.445	35.97
681.631	36.38
681.817	36.26
682.003	35.82
682.189	35.55
682.375	35.36
682.561	35.72
682.747	35.8
682.933	35.85
683.119	36.23
683.305	36.16
683.491	36.21
683.677	36.47
683.863	36.63
684.049	37.13
684.235	37.15
684.42	37.01
684.606	36.82
684.792	36.91
684.978	36.63
685.164	36.38
685.349	36.55
685.535	36.98
685.721	36.85
685.907	36.8
686.092	36.96
686.278	36.67
686.464	36.95
686.649	36.53
686.835	36.47
687.021	36.64
687.206	36.4
687.392	36.88
687.577	36.92
687.763	36.96
687.948	37.11
688.134	37.04
688.319	37.31
688.505	37.01
688.69	37.16
688.876	36.61
689.061	36.96
689.247	37.15
689.432	36.59
689.618	36.36
689.803	36.47
689.988	36.54
690.174	36.74
690.359	36.53
690.544	36.5
690.73	37.07
690.915	37.13
691.1	37.14
691.285	36.77
691.471	37.46
691.656	38.13
691.841	37.83
692.026	37.45
692.211	36.71
692.396	37.01
692.582	37.47
692.767	36.79
692.952	36.96
693.137	36.24
693.322	36.19
693.507	35.99
693.692	35.44
693.877	34.66
694.062	34.98
694.247	35.48
694.432	35.71
694.617	35.1
694.802	35.31
694.987	36.08
695.172	36.95
695.357	37.98
695.541	37.89
695.726	38
695.911	39.05
696.096	38.93
696.281	39.17
696.466	38.94
696.65	39.61
696.835	39.83
697.02	38.87
697.204	38.49
697.389	37.54
697.574	37.43
697.759	37.46
697.943	37.15
698.128	37.34
698.312	37.23
698.497	37.49
698.682	36.98
698.866	36.68
699.051	36.99
699.235	37.02
699.42	37.77
699.604	37.91
699.789	38.04
699.973	38.04
700.158	37.97
700.342	38.15
700.527	37.8
700.711	38.05
700.895	38.48
701.08	38.45
701.264	38.51
701.448	37.95
701.633	37.51
701.817	36.76
702.001	36.73
702.186	36.43
702.37	36
702.554	35.44
702.738	36.2
702.923	35.9
703.107	35.55
703.291	35.45
703.475	34.87
703.659	34.93
703.843	35.45
704.027	35.8
704.212	35.97
704.396	35.92
704.58	35.95
704.764	35.16
704.948	35.17
705.132	35.35
705.316	35.61
705.5	36.86
705.684	37.58
705.868	37.78
706.052	37.07
706.235	36.71
706.419	36.91
706.603	37.88
706.787	37.83
706.971	37.7
707.155	37.76
707.339	37.98
707.522	37.32
707.706	36.81
707.89	37.25
708.074	37.75
708.257	38.57
708.441	39.07
708.625	38.42
708.808	38.7
708.992	38.75
709.176	38.9
709.359	38.11
709.543	38.39
709.727	38.17
709.91	37.56
710.094	37.34
710.277	37.15
710.461	36.11
710.644	36.23
710.828	35.79
711.011	36.22
711.195	36.22
711.378	35.89
711.562	35.5
711.745	35.64
711.928	36.17
712.112	36.34
712.295	35.92
712.478	37.14
712.662	37.13
712.845	37.31
713.028	36.96
713.212	36.74
713.395	37.5
713.578	37.63
713.761	38.09
713.945	37.85
714.128	37.41
714.311	38.2
714.494	38.16
714.677	38.1
714.86	38.48
715.043	38.22
715.227	38.52
715.41	38.38
715.593	38.29
715.776	38.1
715.959	38.33
716.142	38.71
716.325	38.18
716.508	37.03
716.691	36.77
716.874	36.46
717.057	36.52
717.239	36.44
717.422	36.64
717.605	36.61
717.788	36.73
717.971	36.3
718.154	35.65
718.337	35.97
718.519	36.22
718.702	36.33
718.885	36.21
719.068	36.7
719.25	36.4
719.433	36.18
719.616	35.7
719.798	35.33
719.981	34.81
720.164	34.87
720.346	34.48
720.529	34.49
720.712	34.86
720.894	34.99
721.077	34.32
721.259	33.89
721.442	32.95
721.624	33.22
721.807	32.51
721.989	33.05
722.172	33.22
722.354	33.59
722.537	33.61
722.719	33.68
722.901	34.52
723.084	34.85
723.266	34.87
723.448	35.48
723.631	35.97
723.813	37.16
723.995	36.2
724.178	36.19
724.36	36.11
724.542	36.2
724.724	36.42
724.907	35.14
725.089	35.94
725.271	36.1
725.453	36.01
725.635	35.76
725.817	35.4
725.999	35.67
726.181	35.94
726.364	35.79
726.546	36.38
726.728	36.25
726.91	36.41
727.092	34.95
727.274	35.74
727.456	36.57
727.638	37
727.819	37.45
728.001	37.21
728.183	38.02
728.365	37.95
728.547	37.3
728.729	36.62
728.911	36.86
729.093	38.25
729.274	37.66
729.456	36.77
729.638	36.28
729.82	35.57
730.001	36.6
730.183	36.1
730.365	35.77
730.546	35.72
730.728	36.14
730.91	35.96
731.091	33.94
731.273	34.25
731.455	34.49
731.636	34.52
731.818	34.72
731.999	34.65
732.181	34.22
732.362	34.12
732.544	34
732.725	33.21
732.907	33.56
733.088	34.74
733.27	35.05
733.451	35.41
733.633	35.21
733.814	34.47
733.995	33.5
734.177	33.61
734.358	34.61
734.539	34.99
734.721	35.62
734.902	35.25
735.083	34.61
735.264	35.1
735.446	35.34
735.627	35.18
735.808	35.7
735.989	35.81
736.17	35.58
736.351	34.98
736.533	35.34
736.714	35.93
736.895	36.06
737.076	36.55
737.257	35.53
737.438	34.84
737.619	34.42
737.8	35.32
737.981	36.38
738.162	35.66
738.343	35.54
738.524	35.64
738.705	35.11
738.886	34.28
739.067	34.78
739.247	34.73
739.428	35.02
739.609	35.87
739.79	35.11
739.971	34.6
740.151	36.11
740.332	36.04
740.513	35.76
740.694	35.92
740.874	36.48
741.055	36.25
741.236	36.58
741.417	35.94
741.597	36.62
741.778	36.93
741.958	36.02
742.139	34.54
742.32	33.39
742.5	33.62
742.681	34.41
742.861	35.48
743.042	34.79
743.222	34.85
743.403	34.63
743.583	34.03
743.764	32.76
743.944	33.4
744.124	34.81
744.305	36.55
744.485	35.51
744.666	35.9
744.846	33.83
745.026	33.82
745.207	33.87
745.387	34.05
745.567	33.43
745.747	34.66
745.928	35.21
746.108	34.79
746.288	33.68
746.468	34.27
746.648	33.9
746.829	34.96
747.009	36.58
747.189	36.26
747.369	36.08
747.549	36.41
747.729	35.97
747.909	35.8
748.089	34.89
748.269	34.31
748.449	35.67
748.629	35.34
748.809	37.2
748.989	38.24
749.169	37.4
749.349	38.2
749.529	39.51
749.709	39.88
749.889	40.27
750.068	40.01
750.248	40.06
750.428	39.11
750.608	38.13
750.788	37.05
750.967	35.22
751.147	35.2
751.327	35.65
751.507	34.15
751.686	34.19
751.866	34.03
752.046	34.41
752.225	34.92
752.405	34.25
752.585	36.02
752.764	35.6
752.944	35.66
753.123	37.13
753.303	36.04
753.482	35.63
753.662	34.63
753.841	34.48
754.021	34.6
754.2	34.95
754.38	35.19
754.559	34.57
754.739	33.97
754.918	33.98
755.097	32.02
755.277	33.36
755.456	33.7
755.635	33.56
755.815	33.79
755.994	34.45
756.173	34.24
756.352	34.5
756.532	33.78
756.711	34.71
756.89	34.2
757.069	36.29
757.248	34.77
757.427	35.72
757.607	35.75
757.786	35.21
757.965	34.71
758.144	33.96
758.323	33.48
758.502	34.86
758.681	34.32
758.86	34.78
759.039	34.21
759.218	35.07
759.397	34.82
759.576	35.16
759.755	34.86
759.934	34.76
760.113	35.25
760.291	35.77
760.47	35.48
760.649	35.73
760.828	36.01
761.007	35.51
761.186	35.18
761.364	35.85
761.543	37.09
761.722	37.36
761.901	37.67
762.079	37.73
762.258	37.27
762.437	36.82
762.615	36.49
762.794	36.66
762.972	36.54
763.151	36.87
763.33	36.51
763.508	35.93
763.687	36.05
763.865	35.7
764.044	35.39
764.222	35.52
764.401	35.45
764.579	36.13
764.758	35.84
764.936	35.85
765.114	35.42
765.293	35.61
765.471	36.31
765.65	36.17
765.828	35.43
766.006	36.08
766.184	36.63
766.363	36.78
766.541	36.59
766.719	37.23
766.898	37.19
767.076	36.54
767.254	35.22
767.432	34.9
767.61	34.47
767.788	36.26
767.967	36.48
768.145	34.99
768.323	33.85
768.501	32.6
768.679	31.98
768.857	31.27
769.035	31.64
769.213	32.04
769.391	30.21
769.569	31.87
769.747	30.51
769.925	30.14
770.103	30.12
770.281	30.61
770.459	30.65
770.636	31.65
770.814	34.07
770.992	34.05
771.17	34.05
771.348	32.9
771.525	33.48
771.703	32.98
771.881	33.77
772.059	35.57
772.236	35.42
772.414	34.27
772.592	32.93
772.769	30.07
772.947	30.38
773.125	30.97
773.302	35.26
773.48	33.88
773.657	34.91
773.835	34.25
774.013	31.84
774.19	31.66
774.368	34.2
774.545	31.93
774.723	31.02
774.9	30.88
775.077	29.74
775.255	27.34
775.432	25.8
775.61	26.13
775.787	24.13
775.964	24.31
776.142	25.02
776.319	24.03
776.496	25.11
776.674	27.48
776.851	29.19
777.028	28.42
777.205	28.33
777.382	28.86
777.56	28.34
777.737	28.57
777.914	27.38
778.091	28.14
778.268	26.26
778.445	27.33
778.622	25.69
778.8	25.95
778.977	29.16
779.154	24.73
779.331	23.8
779.508	24.66
779.685	23.58
779.862	27.01
780.038	23.52
780.215	24.72
780.392	24.81
780.569	23.53
780.746	23.18
780.923	19.96
781.1	24.32
781.277	25.38
781.453	25.83
781.63	30.68
781.807	30.28
781.984	33.41
782.16	35.15
782.337	34.25
782.514	33.93
782.691	32.17
782.867	32.42
783.044	31.82
783.221	30.71
783.397	29.85
783.574	26.23
783.75	25.74
783.927	26.22
784.103	24.77
784.28	25.87
784.456	30.53
784.633	30.86
784.809	32.21
784.986	34.89
785.162	33.88
785.339	33.54
785.515	30.75
785.692	31.34
785.868	29.76
786.044	28.19
786.221	29.12
786.397	26.01
786.573	26.99
786.749	27.73
786.926	25.35
787.102	26.27
787.278	25.27
787.454	27.51
787.631	26.91
787.807	26.23
787.983	28.72
788.159	27.58
788.335	27.7
788.511	28.21
788.687	26.03
788.863	26.38
789.039	29.57
789.216	29.8
789.392	29.84
789.568	29.44
789.744	28.37
789.919	27.61
790.095	28.08
790.271	28.49
790.447	26.64
790.623	28.28
790.799	29.75
790.975	24.57
791.151	24.06
791.327	27.25
791.502	26.88
791.678	28.68
791.854	27.12
792.03	25.5
792.205	28.57
792.381	28.21
792.557	29.26
792.733	29.15
792.908	32.77
793.084	34.27
793.259	33.69
793.435	34.01
793.611	36.46
793.786	34.61
793.962	34.5
794.137	34.7
794.313	38.83
794.488	38.37
794.664	37.28
794.839	35.55
795.015	35.52
795.19	32.04
795.366	31.19
795.541	29.1
795.716	31.93
795.892	31.83
796.067	30.33
796.242	28.98
796.418	26.38
796.593	26.43
796.768	27.26
796.944	27.45
797.119	28.6
797.294	29.58
797.469	31.43
797.644	30.31
797.82	29.45
797.995	27.1
798.17	26.07
798.345	27.19
798.52	27.61
798.695	26.34
798.87	25.52
799.045	27.28
799.22	26.05
799.395	24.81
799.57	27.53
799.745	26.18
799.92	27.94
800.095	27.36
800.27	27.88
800.445	26.79
800.62	27.29
800.795	26.51
800.97	24.63
801.145	25.42
801.319	23.63
801.494	19.8
801.669	23.5
801.844	22.52
802.018	23.31
802.193	21.11
802.368	22.67
802.543	21.3
802.717	25.96
802.892	28.48
803.067	27.36
803.241	29.33
803.416	30.63
803.59	29.45
803.765	28.56
803.94	26.37
804.114	26.52
804.289	25.14
804.463	23.27
804.638	19.37
804.812	18.02
804.986	21.57
805.161	20.22
805.335	20.53
805.51	22.18
805.684	24.79
805.858	26.21
806.033	25.7
806.207	25.34
806.381	30.01
806.556	29.49
806.73	29.68
806.904	30.13
807.078	29.62
807.253	29.44
807.427	25.53
807.601	23.53
807.775	21.65
807.949	23.22
808.123	26.2
808.298	28.85
808.472	28.79
808.646	25.06
808.82	21.76
808.994	18.45
809.168	20.88
809.342	20.84
809.516	21.82
809.69	23.75
809.864	23.79
810.038	23.15
810.212	14.42
810.385	12.77
810.559	13.84
810.733	12.09
810.907	14.1
811.081	8.31
811.255	7.25
811.428	7.93
811.602	6.18
811.776	8.94
811.95	4.25
812.123	12.39
812.297	13.07
812.471	14.16
812.644	14.85
812.818	13.28
812.992	13.18
813.165	14.28
813.339	14.27
813.512	15.61
813.686	16.98
813.86	18.58
814.033	10.79
814.207	14.5
814.38	15.73
814.554	17.63
814.727	23.59
814.9	27.37
815.074	31.72
815.247	26.69
815.421	28.33
815.594	22.96
815.767	25.89
815.941	28.71
816.114	28.08
816.287	26.81
816.46	23.84
816.634	23.42
816.807	19.1
816.98	17.4
817.153	20.72
817.327	18.83
817.5	18.47
817.673	20.82
817.846	18.97
818.019	15.39
818.192	18.25
818.365	22.79
818.538	23.68
818.711	26.04
818.884	23.33
819.057	20.46
819.23	21.46
819.403	22.02
819.576	15.16
819.749	18.57
819.922	22.07
820.095	23.69
820.268	24.27
820.441	22.78
820.614	26.75
820.786	27.58
820.959	31.38
821.132	31.41
821.305	32.3
821.477	34.74
821.65	36.51
821.823	36.83
821.996	37.22
822.168	37
822.341	37.54
822.514	37.02
822.686	37.71
822.859	37.59
823.031	38.39
823.204	38.25
823.376	38.43
823.549	37.99
823.722	37.69
823.894	37.11
824.067	37.48
824.239	37.27
824.411	37.84
824.584	38.19
824.756	38.48
824.929	38.18
825.101	38.41
825.273	37.56
825.446	37.09
825.618	37.74
825.79	38.11
825.963	37.19
826.135	36.59
826.307	35.15
826.479	34.3
826.652	33.51
826.824	33.2
826.996	33.24
827.168	33.16
827.34	32.07
827.512	30.47
827.684	29.89
827.856	30.15
828.029	31.21
828.201	32.47
828.373	33.89
828.545	33.84
828.717	32.68
828.889	32.63
829.061	33.92
829.232	35.86
829.404	36.34
829.576	36.25
829.748	35.66
829.92	34.12
830.092	33.94
830.264	30.43
830.436	31.7
830.607	30.28
830.779	29.2
830.951	27.88
831.123	25.84
831.294	24.52
831.466	23.41
831.638	22.12
831.809	20.66
831.981	19.84
832.153	20.57
832.324	14.24
832.496	17.98
832.667	18.88
832.839	21.63
833.011	24.75
833.182	24.9
833.354	24.21
833.525	28.1
833.697	31.18
833.868	30.19
834.039	31.68
834.211	36.56
834.382	37.21
834.554	39.32
834.725	36.99
834.896	34.58
835.068	36.72
835.239	37.4
835.41	38.57
835.581	39.36
835.753	40.04
835.924	39.63
836.095	37.32
836.266	37.37
836.438	33.98
836.609	32.27
836.78	34.18
836.951	33.25
837.122	33.77
837.293	30.52
837.464	28.15
837.635	25.5
837.806	22.48
837.977	20.63
838.148	19.19
838.319	19.34
838.49	22.24
838.661	21.37
838.832	19.28
839.003	17.79
839.174	10.53
839.345	9.08
839.516	7.51
839.687	8.82
839.857	18.38
840.028	19.07
840.199	17.12
840.37	17.66
840.54	21.62
840.711	22.87
840.882	19.31
841.053	21.72
841.223	23.94
841.394	28.15
841.564	25.64
841.735	20.52
841.906	11.69
842.076	4.47
842.247	5.12
842.417	-3.31
842.588	-1.48
842.758	3.3
842.929	1.65
843.099	-13.57
843.27	-12.41
843.44	-3
843.611	-8.39
843.781	-14.3
843.951	1.41
844.122	0.57
844.292	2.33
844.462	-3.68
844.633	-5.65
844.803	3.91
844.973	12.81
845.144	5.62
845.314	-8.9
845.484	-0.67
845.654	20.53
845.824	16.46
845.995	8.88
846.165	8.23
846.335	16.12
846.505	0.41
846.675	-14.11
846.845	-27.24
847.015	-21.88
847.185	-10.97
847.355	-23.43
847.525	-28.7
847.695	-52.14
847.865	-60.12
848.035	-68.57
848.205	-85.32
848.375	-61.85
848.545	-62.55
848.715	-52.34
848.884	-70
849.054	-104.49
849.224	-117.38
849.394	-122.33
849.564	-80.62
849.733	-62.85
849.903	-86.63
850.073	-71.8
850.243	-63.69
850.412	-61.71
850.582	-78.27
850.752	-81.12
850.921	-53.41
851.091	-50.02
851.26	-61.89
851.43	-67.22
851.599	-94.59
851.769	-74.41
851.939	-79.93
852.108	-137.7
852.278	-131.7
852.447	-103.93
852.616	-63.49
852.786	-79.83
852.955	-67.79
853.125	-88.41
853.294	-77.73
853.463	-65.32
853.633	-98.85
853.802	-112.4
853.971	-74.01
854.141	-87.74
854.31	-120.22
854.479	-216.89
854.648	-241.01
854.818	-238.87
854.987	-159.66
855.156	-204.55
855.325	-153.96
855.494	-129.64
855.663	-132.97
855.832	-195.77
856.001	-212.61
856.171	-164.72
856.34	-113.15
856.509	-129.27
856.678	-133.23
856.847	-109
857.016	-82.97
857.185	-76.97
857.353	-41.8
857.522	-41.43
857.691	-16.96
857.86	-3.19
858.029	13.05
858.198	-12.7
858.367	-3.26
858.535	-19.57
858.704	-33.39
858.873	-18.57
859.042	-22.01
859.21	-50.61
859.379	-49.16
859.548	-74.06
859.717	-80.78
859.885	-88.4
860.054	-67.05
860.222	-85.52
860.391	-63.2
860.56	-47.27
860.728	-45.08
860.897	-34.08
861.065	-23.69
861.234	-25.99
861.402	-24.33
861.571	-25.94
861.739	-33.94
861.908	-22.66
862.076	-4.67
862.244	2.14
862.413	-14.06
862.581	-41.05
862.749	-116.85
862.918	-181.45
863.086	-221.14
863.254	-238.88
863.423	-384.93
863.591	-190.36
863.759	-402.15
863.927	-602.33
864.096	-3205.56
864.264	757.86
864.432	1274.09
864.6	-2320.94
864.768	-698.29
864.936	-311.12
865.104	-201.57
865.272	-131.59
865.44	-238.8
865.608	-133.93
865.776	-262.08
865.944	-236.6
866.112	-106.31
866.28	-99.26
866.448	-81.75
866.616	-83.17
866.784	-65.68
866.952	-76.37
867.12	-38.34
867.288	-13.99
867.455	-20.3
867.623	-3.1
867.791	3.93
867.959	-24.39
868.127	-22.71
868.294	-33.14
868.462	-52.63
868.63	-64.77
868.797	-87.38
868.965	-263.33
869.133	-256.15
869.3	-341.54
869.468	-177.69
869.636	-108.53
869.803	-133.18
869.971	-108.66
870.138	-59.51
870.306	-66.81
870.473	-72.12
870.641	-58.02
870.808	-44.49
870.975	-50.52
871.143	-26.28
871.31	-34.6
871.478	-158.81
871.645	-51.39
871.812	-70.87
871.98	-119.64
872.147	-126.23
872.314	-58.04
872.482	-69.88
872.649	-145.28
872.816	-110.54
872.983	-364.22
873.15	-133.5
873.318	-100.18
873.485	-144.61
873.652	-106.07
873.819	-24.2
873.986	-10.44
874.153	-36.48
874.32	-69.92
874.487	-35.3
874.654	-40.54
874.821	-12.29
874.988	5.96
875.155	25.07
875.322	20.87
875.489	21.43
875.656	-5.59
875.823	-23.01
875.99	-37.12
876.157	-10.29
876.324	-11.43
876.49	-5.98
876.657	-33.36
876.824	-45.31
876.991	-76.63
877.157	-87.78
877.324	-77.91
877.491	-57.1
877.658	-48.76
877.824	-40.36
877.991	-61.59
878.157	-66.23
878.324	-72.11
878.491	-27.05
878.657	-35.73
878.824	-34.73
878.99	-27.74
879.157	-28.48
879.323	-10.02
879.49	-5.36
879.656	-7.98
879.823	-5.87
879.989	-9.55
880.156	-20.63
880.322	-18.38
880.488	-12.62
880.655	-4.69
880.821	-37.84
880.987	-25.68
881.154	-20.42
881.32	-20.7
881.486	-10.93
881.652	-3.12
881.819	3.48
881.985	14.01
882.151	9.64
882.317	10.4
882.483	10.65
882.649	17.49
882.816	17.16
882.982	19.98
883.148	24.2
883.314	25.2
883.48	26.94
883.646	28.22
883.812	29.12
883.978	32.2
884.144	32.87
884.31	33.68
884.476	34.36
884.642	35.89
884.807	36.53
884.973	36.23
885.139	37.36
885.305	35.19
885.471	35.34
885.637	34.06
885.802	31.54
885.968	32.18
886.134	33.42
886.3	33.37
886.465	29.16
886.631	26.42
886.797	23.73
886.962	23.23
887.128	25.4
887.293	20.5
887.459	17.48
887.625	18.77
887.79	15.43
887.956	13.36
888.121	9.38
888.287	13.9
888.452	12.88
888.618	15.74
888.783	3.4
