Data from CB_108_Reflection_1.txt Node
Date: Sat Nov 14 18:08:02 EST 2015
User: robert
Spectrometer: USB4E03001
Autoset integration time: false
Trigger mode: 4
Integration Time (sec): 1.000000E-1
Scans to average: 15
Electric dark correction enabled: true
Nonlinearity correction enabled: false
Boxcar width: 5
Stray light correction enabled: false
XAxis mode: Wavelengths
Stop averaging: false
Number of Pixels in Spectrum: 3648
>>>>>Begin Spectral Data<<<<<
177.566	216.54
177.785	-2459.61
178.005	570.27
178.225	703.57
178.445	-1813.68
178.665	144.65
178.885	-1170.1
179.105	153.39
179.324	177.71
179.544	93.16
179.764	100.76
179.984	95.75
180.204	119.11
180.423	90.16
180.643	123.62
180.863	148.19
181.083	94.93
181.302	105.67
181.522	129.69
181.742	136.57
181.961	202.9
182.181	231.4
182.401	671.63
182.621	445.97
182.84	604.26
183.06	254.78
183.279	145.33
183.499	235.73
183.719	113.15
183.938	79.48
184.158	78.04
184.377	70.35
184.597	116.85
184.816	109.51
185.036	117.24
185.256	127.36
185.475	124.78
185.695	117.8
185.914	115.6
186.134	126.09
186.353	130.07
186.572	131.45
186.792	114
187.011	96.33
187.231	82.09
187.45	77.96
187.67	79.19
187.889	94.68
188.108	105.81
188.328	117.24
188.547	109.96
188.766	112.21
188.986	103.27
189.205	113.65
189.424	113.59
189.644	122.79
189.863	130.67
190.082	132.68
190.302	113.58
190.521	91.83
190.74	75.13
190.959	63.84
191.178	59.82
191.398	64.22
191.617	84.38
191.836	55.63
192.055	38.18
192.274	26.75
192.494	65.28
192.713	140.06
192.932	208.67
193.151	420.67
193.37	329.54
193.589	299.57
193.808	424.43
194.027	796.06
194.246	-2485.65
194.465	3880.07
194.685	322.13
194.904	334.75
195.123	177.31
195.342	214.32
195.561	149.59
195.78	129.13
195.999	135.38
196.218	96.31
196.436	92.25
196.655	87.49
196.874	97.41
197.093	107.6
197.312	101.49
197.531	107.54
197.75	114.61
197.969	98.2
198.188	102.21
198.407	92.12
198.625	122.36
198.844	113.61
199.063	114.08
199.282	120.33
199.501	146.14
199.719	132.36
199.938	109.76
200.157	76.9
200.376	102.11
200.594	103.12
200.813	125.38
201.032	97.81
201.251	112.31
201.469	106.06
201.688	104.84
201.907	86.68
202.125	88.16
202.344	126.83
202.563	131.22
202.781	103.73
203	135.17
203.218	138.66
203.437	94.46
203.656	75.17
203.874	61.47
204.093	58.28
204.311	88.58
204.53	92.01
204.748	65.37
204.967	93.52
205.185	104.08
205.404	79.98
205.622	69.06
205.841	101.25
206.059	122.42
206.278	104.41
206.496	104.86
206.715	128.06
206.933	97.93
207.151	106.3
207.37	120.22
207.588	117.32
207.806	123.71
208.025	120.82
208.243	113.97
208.461	120.04
208.68	122.69
208.898	111.75
209.116	97.5
209.335	109.75
209.553	145.06
209.771	131.53
209.989	106.59
210.208	104.03
210.426	95.3
210.644	101.54
210.862	85.17
211.081	90.7
211.299	91.27
211.517	90.59
211.735	95.58
211.953	73.37
212.171	70.33
212.39	82.77
212.608	78.11
212.826	89
213.044	83.03
213.262	87.18
213.48	93.61
213.698	85.6
213.916	100.94
214.134	85.74
214.352	90.64
214.57	91.13
214.788	102.26
215.006	113.14
215.224	106.45
215.442	131.22
215.66	121.63
215.878	124.22
216.096	183.45
216.314	158.19
216.532	194.78
216.75	180.08
216.968	198.27
217.185	208.45
217.403	239.69
217.621	333.29
217.839	259.26
218.057	315.5
218.275	250.68
218.492	248.22
218.71	225.91
218.928	246.83
219.146	327.64
219.363	216.21
219.581	173.74
219.799	213.37
220.017	169.63
220.234	170.75
220.452	208.25
220.67	243.97
220.887	364.47
221.105	508.4
221.323	6191.41
221.54	476.79
221.758	2322.86
221.976	1060
222.193	196.4
222.411	250.2
222.629	360.46
222.846	261.29
223.064	-59.47
223.281	84.7
223.499	101.3
223.716	140.2
223.934	-196.05
224.151	-76.74
224.369	-70.87
224.586	-25.1
224.804	5.08
225.021	-6.71
225.239	-28.79
225.456	-53.97
225.674	-33.86
225.891	-41.67
226.108	-66.33
226.326	-58.13
226.543	-36.98
226.76	-13.52
226.978	-9.92
227.195	-37.28
227.413	-35.08
227.63	-14.9
227.847	-16.72
228.064	-13.51
228.282	-11.02
228.499	-6.72
228.716	-7.43
228.934	-9.94
229.151	-9.75
229.368	-11.36
229.585	-10.82
229.802	-6.29
230.02	-7.45
230.237	-8.44
230.454	-7.9
230.671	-5.65
230.888	-9.11
231.105	-10.8
231.323	-10.92
231.54	-19.84
231.757	-25.35
231.974	-30.58
232.191	-38.84
232.408	-45.24
232.625	-40.77
232.842	-46.72
233.059	-45.51
233.276	-46.38
233.493	-48.26
233.71	-36.92
233.927	-20.63
234.144	-21.11
234.361	-21.6
234.578	-20.89
234.795	-15.63
235.012	-15.76
235.229	-15.52
235.446	-19.16
235.663	-14.8
235.879	-15.46
236.096	-25.16
236.313	-31.82
236.53	-22.93
236.747	-22.32
236.964	-30.25
237.181	-35.22
237.397	-35.15
237.614	-36.33
237.831	-38.81
238.048	-41.78
238.264	-48.87
238.481	-46.68
238.698	-35.18
238.915	-27.35
239.131	-18.55
239.348	-10.26
239.565	-7.93
239.781	-7.17
239.998	-3.02
240.215	-2.09
240.431	-1.6
240.648	7.87
240.865	10.04
241.081	11.43
241.298	9.11
241.514	9.92
241.731	9.64
241.947	8.1
242.164	6.48
242.38	8.02
242.597	8.26
242.814	9.5
243.03	7.45
243.246	6.98
243.463	5.59
243.679	3.31
243.896	1.36
244.112	-1.13
244.329	-0.75
244.545	2.1
244.762	0.51
244.978	4.12
245.194	2.23
245.411	-0.42
245.627	0.27
245.843	0.93
246.06	3.11
246.276	4.58
246.492	7.01
246.709	6.29
246.925	6.03
247.141	6.18
247.357	5.27
247.574	5.29
247.79	6.67
248.006	6.95
248.222	6.42
248.439	5.9
248.655	4.48
248.871	4.32
249.087	6.14
249.303	5.08
249.519	3.92
249.736	3.01
249.952	4.23
250.168	4.06
250.384	1.06
250.6	1.1
250.816	-1.2
251.032	2.75
251.248	1.64
251.464	-3.46
251.68	-4.31
251.896	-4.49
252.112	-5.88
252.328	-8.87
252.544	-10.18
252.76	-9.95
252.976	-11.22
253.192	-9.47
253.408	-11.76
253.624	-11.58
253.84	-8.73
254.056	-5.95
254.272	-5.31
254.487	-3.47
254.703	0.03
254.919	-3.1
255.135	-1.75
255.351	-2.68
255.567	-1.04
255.782	-0.65
255.998	-1.86
256.214	-3.91
256.43	-2.51
256.646	-3.59
256.861	-3.12
257.077	-5.32
257.293	1.09
257.508	2.82
257.724	4.94
257.94	6.57
258.155	4.73
258.371	4.64
258.587	4.35
258.802	3.12
259.018	3.9
259.234	4.53
259.449	4.5
259.665	3.61
259.88	3.55
260.096	3.99
260.312	3.58
260.527	4.08
260.743	3.45
260.958	3.06
261.174	3.11
261.389	3.62
261.605	3.19
261.82	2.9
262.036	2.62
262.251	2.16
262.466	2.18
262.682	1.81
262.897	0.38
263.113	1.99
263.328	3.6
263.543	2.37
263.759	-0.19
263.974	-0.46
264.189	-2.22
264.405	-4.43
264.62	-4.25
264.835	-4.88
265.051	-3.85
265.266	-2.75
265.481	-1.88
265.696	-1.3
265.912	1.05
266.127	3.2
266.342	3.83
266.557	6.24
266.773	6.39
266.988	6.11
267.203	4.46
267.418	3.86
267.633	5.62
267.848	4.63
268.064	4.34
268.279	3.79
268.494	2.55
268.709	1.48
268.924	2.34
269.139	2.6
269.354	3.63
269.569	4.01
269.784	2.92
269.999	0.6
270.214	-0.15
270.429	-0.24
270.644	-0.02
270.859	-0.22
271.074	-0.49
271.289	-0.93
271.504	-0.3
271.719	-1.09
271.934	-2.15
272.149	-1.67
272.363	-0.22
272.578	1.58
272.793	1.1
273.008	0.24
273.223	1.21
273.438	1.1
273.653	1
273.867	0.39
274.082	0.75
274.297	2.3
274.512	2.06
274.726	0.1
274.941	-1.99
275.156	-0.7
275.371	0.9
275.585	0.69
275.8	2.16
276.015	0.83
276.229	1.3
276.444	0.31
276.659	0.39
276.873	0.84
277.088	1.6
277.302	2.33
277.517	1.26
277.732	-0.43
277.946	-1.57
278.161	-2.27
278.375	0.11
278.59	1.18
278.804	0.82
279.019	-0.03
279.233	0.84
279.448	0.72
279.662	-0.63
279.877	0.23
280.091	0.77
280.306	1.47
280.52	1.13
280.735	0.32
280.949	-0.14
281.163	0.88
281.378	1.01
281.592	1.11
281.806	1.81
282.021	2.74
282.235	2.62
282.449	2.69
282.664	2.49
282.878	3.43
283.092	2.86
283.307	1.93
283.521	1.65
283.735	2.81
283.949	2.15
284.164	2.45
284.378	2.69
284.592	3.29
284.806	3.76
285.02	4.53
285.234	3.88
285.449	4.8
285.663	5.9
285.877	5.71
286.091	5
286.305	5.06
286.519	4.87
286.733	4.69
286.947	4.41
287.161	4.79
287.375	4.13
287.589	4.87
287.803	4.1
288.017	3.97
288.231	4.24
288.445	3.76
288.659	3.48
288.873	2.72
289.087	2.43
289.301	1.13
289.515	0.46
289.729	-0.3
289.943	-1.51
290.157	-1.89
290.371	-2.06
290.584	-1.4
290.798	-2.36
291.012	-1.76
291.226	-0.77
291.44	-0.25
291.654	1.23
291.867	0.67
292.081	2.05
292.295	3.05
292.509	3.86
292.722	3.5
292.936	3.88
293.15	6.87
293.364	6.17
293.577	5.59
293.791	5.67
294.005	5.02
294.218	5.43
294.432	4.19
294.645	4.23
294.859	4.48
295.073	5.12
295.286	4.74
295.5	3.56
295.713	3.48
295.927	3.73
296.14	2.99
296.354	3.8
296.568	4.15
296.781	5.34
296.994	5.38
297.208	4.19
297.421	4.27
297.635	3.53
297.848	4.16
298.062	5.29
298.275	5.18
298.489	5.66
298.702	5.14
298.915	4.4
299.129	4.17
299.342	4.24
299.555	4.57
299.769	5.16
299.982	6.5
300.195	5.37
300.409	4.64
300.622	4.36
300.835	4.86
301.048	5.17
301.262	5.9
301.475	5.1
301.688	4.21
301.901	4.26
302.115	2.99
302.328	2.84
302.541	3.84
302.754	3.59
302.967	4.74
303.18	3.92
303.393	3.29
303.607	3.29
303.82	4.04
304.033	5.33
304.246	5.6
304.459	6.33
304.672	6.77
304.885	6.91
305.098	7.55
305.311	6.64
305.524	6.74
305.737	6.1
305.95	6.93
306.163	5.19
306.376	3.57
306.589	3.54
306.802	1.73
307.015	0.32
307.228	-0.42
307.44	-0
307.653	1.17
307.866	2.2
308.079	3.47
308.292	3.55
308.505	5.65
308.718	6.45
308.93	7.06
309.143	8.44
309.356	8.91
309.569	9.41
309.781	9.36
309.994	9.29
310.207	9.57
310.42	9.9
310.632	10.31
310.845	9.53
311.058	9.81
311.27	9.5
311.483	9.79
311.696	10.12
311.908	10.59
312.121	10.72
312.333	10
312.546	9.84
312.759	8.97
312.971	8
313.184	8.19
313.396	7.59
313.609	6.93
313.821	6.16
314.034	4.89
314.246	3.62
314.459	3.36
314.671	3.32
314.884	1.46
315.096	1.6
315.309	0.42
315.521	0.98
315.733	0.52
315.946	2
316.158	2.28
316.371	3.11
316.583	1.74
316.795	1.18
317.008	2.53
317.22	3.6
317.432	4.5
317.644	4.2
317.857	4.93
318.069	6.97
318.281	5.54
318.494	4.83
318.706	4.84
318.918	5.88
319.13	6.29
319.342	6.42
319.555	6.27
319.767	3.87
319.979	4.63
320.191	4.71
320.403	3.72
320.615	4.92
320.827	4.48
321.039	4.01
321.252	5.4
321.464	5.56
321.676	4.19
321.888	5.21
322.1	6.06
322.312	6.81
322.524	5.65
322.736	5.9
322.948	5.12
323.16	6.3
323.372	6.69
323.584	5.68
323.796	5.01
324.007	5.36
324.219	5.61
324.431	6.52
324.643	5.35
324.855	5.8
325.067	6.44
325.279	6.17
325.491	6.67
325.702	6.27
325.914	6.93
326.126	7.68
326.338	10.55
326.55	11.54
326.761	13.14
326.973	14.35
327.185	14.95
327.396	14.9
327.608	15.53
327.82	15.14
328.032	16.72
328.243	16.62
328.455	18.26
328.666	15.84
328.878	15.61
329.09	14.62
329.301	16.38
329.513	14.97
329.725	14.97
329.936	15.42
330.148	15.34
330.359	13.38
330.571	12.91
330.782	11.8
330.994	12.82
331.205	12.01
331.417	12.23
331.628	11.04
331.84	11.77
332.051	10.26
332.262	10.75
332.474	12.34
332.685	14.2
332.897	15.53
333.108	15.27
333.319	14.05
333.531	14.22
333.742	15.13
333.953	15.52
334.165	15.49
334.376	17.21
334.587	17.18
334.799	17.53
335.01	17.23
335.221	16.96
335.432	17.88
335.644	19.33
335.855	20.09
336.066	18.91
336.277	18.33
336.488	18.73
336.7	17.86
336.911	18.15
337.122	18.16
337.333	18.46
337.544	18.65
337.755	17.71
337.966	17.54
338.177	17.35
338.388	17.84
338.599	19.16
338.811	18.51
339.022	20.33
339.233	20.1
339.444	18.59
339.655	18.64
339.866	18.31
340.076	18.16
340.287	17.69
340.498	17.86
340.709	17.11
340.92	16.99
341.131	17.24
341.342	16.11
341.553	15.59
341.764	16.83
341.975	16.79
342.185	17.51
342.396	16.9
342.607	17.06
342.818	16.56
343.029	16.23
343.239	15.43
343.45	16.65
343.661	16.94
343.872	17.14
344.082	16.73
344.293	16.22
344.504	16.1
344.714	16.88
344.925	16.26
345.136	17.02
345.346	17.35
345.557	17.22
345.768	16.89
345.978	15.76
346.189	16.48
346.399	16.8
346.61	16.99
346.821	16.67
347.031	17.01
347.242	17.5
347.452	16.32
347.663	16.58
347.873	17.06
348.084	17.42
348.294	18.63
348.504	17.91
348.715	17.26
348.925	16.89
349.136	16.46
349.346	16.14
349.557	16.65
349.767	16.75
349.977	17.33
350.188	16.21
350.398	15.7
350.608	15.51
350.819	16.13
351.029	16.4
351.239	16.29
351.449	16.83
351.66	16.67
351.87	17.05
352.08	16.98
352.29	16.72
352.501	17.69
352.711	18.18
352.921	18.36
353.131	18.07
353.341	17.98
353.552	18.62
353.762	18.33
353.972	18.85
354.182	17.78
354.392	17.76
354.602	17.24
354.812	17.89
355.022	17.4
355.232	16.82
355.442	16.73
355.652	16.8
355.862	16.38
356.072	16.53
356.282	16.48
356.492	16.58
356.702	16.83
356.912	17.17
357.122	16.87
357.332	17.13
357.542	16.64
357.752	16.48
357.962	16.45
358.171	17.13
358.381	17.47
358.591	17.74
358.801	18.04
359.011	18.06
359.221	18.24
359.43	17.47
359.64	16.7
359.85	17.34
360.06	17.31
360.269	17.5
360.479	17.4
360.689	17.28
360.899	17.19
361.108	17.2
361.318	17.35
361.528	17.56
361.737	18.17
361.947	18.62
362.156	19.07
362.366	19.26
362.576	18.8
362.785	19.02
362.995	19.23
363.204	18.91
363.414	18.57
363.623	18.66
363.833	18.43
364.042	18.08
364.252	17.88
364.461	17.45
364.671	17.16
364.88	17.51
365.09	16.93
365.299	16.7
365.509	16.83
365.718	16.97
365.927	16.68
366.137	16.49
366.346	16.44
366.555	17.06
366.765	16.8
366.974	17.42
367.183	16.65
367.393	16.69
367.602	16.35
367.811	16.97
368.021	17.12
368.23	16.76
368.439	16.58
368.648	16.94
368.857	15.84
369.067	15.64
369.276	14.72
369.485	15.22
369.694	14.65
369.903	14.68
370.112	13.85
370.321	13.63
370.531	14.12
370.74	14.5
370.949	14.06
371.158	14.99
371.367	15.21
371.576	15.07
371.785	14.83
371.994	15.08
372.203	15.31
372.412	15.36
372.621	15.54
372.83	15.39
373.039	15.35
373.248	15.35
373.457	14.6
373.666	14.47
373.874	14.52
374.083	14.76
374.292	14.69
374.501	14.31
374.71	13.29
374.919	13.25
375.128	13.21
375.336	13.02
375.545	12.9
375.754	13.21
375.963	13.36
376.171	13.63
376.38	13.83
376.589	14.08
376.798	14.44
377.006	14.93
377.215	14.59
377.424	14.59
377.632	14.08
377.841	14.58
378.05	14
378.258	13.84
378.467	13.58
378.675	13.1
378.884	12.11
379.093	11.79
379.301	12.2
379.51	12.36
379.718	12.2
379.927	12.52
380.135	12.36
380.344	12.75
380.552	12.26
380.761	12.25
380.969	12.92
381.177	13.97
381.386	13.61
381.594	13.65
381.803	13.43
382.011	13.19
382.219	12.93
382.428	12.79
382.636	12.77
382.845	13.05
383.053	13.29
383.261	12.61
383.469	12.03
383.678	12.06
383.886	11.72
384.094	11.65
384.302	11.7
384.511	12.3
384.719	12.06
384.927	11.76
385.135	11.8
385.343	11.48
385.552	11.42
385.76	11.43
385.968	11.39
386.176	11.39
386.384	11.02
386.592	11.03
386.8	10.16
387.008	10.28
387.216	10.8
387.424	10.55
387.633	10.42
387.841	10.49
388.049	10.49
388.257	10.4
388.465	10.07
388.672	10.06
388.88	9.92
389.088	10.12
389.296	9.6
389.504	9.02
389.712	8.88
389.92	8.97
390.128	9.12
390.336	8.81
390.544	8.75
390.751	8.63
390.959	8.69
391.167	8.8
391.375	8.87
391.583	8.84
391.79	9.05
391.998	9.09
392.206	9.15
392.414	8.71
392.621	8.5
392.829	8.27
393.037	8.62
393.244	8.85
393.452	8.46
393.66	8.75
393.867	8.6
394.075	8.71
394.283	8.66
394.49	8.48
394.698	8.41
394.905	8.7
395.113	8.9
395.32	8.67
395.528	8.31
395.735	8.66
395.943	8.47
396.15	8.5
396.358	8.14
396.565	8.17
396.773	8.27
396.98	8.33
397.188	8.36
397.395	8.12
397.602	8.12
397.81	8.2
398.017	7.81
398.225	7.23
398.432	7.51
398.639	7.7
398.847	7.53
399.054	7.4
399.261	7.67
399.468	7.65
399.676	7.85
399.883	8.05
400.09	8
400.297	8.02
400.505	8.13
400.712	7.71
400.919	7.45
401.126	7.41
401.333	7.38
401.54	7.53
401.748	7.35
401.955	7.16
402.162	6.8
402.369	6.78
402.576	6.85
402.783	7.06
402.99	7.42
403.197	7.35
403.404	7.52
403.611	7.47
403.818	7.15
404.025	7.15
404.232	6.97
404.439	7.2
404.646	7.48
404.853	7.51
405.06	7.58
405.267	7.32
405.474	7.51
405.681	7.4
405.887	7.39
406.094	7.35
406.301	7.64
406.508	7.95
406.715	7.4
406.922	7.16
407.128	7.31
407.335	7.37
407.542	7.49
407.749	7.55
407.955	7.74
408.162	8.1
408.369	7.95
408.575	7.66
408.782	7.44
408.989	7.79
409.195	7.78
409.402	7.44
409.609	7.35
409.815	7.16
410.022	6.83
410.228	6.85
410.435	6.63
410.642	6.9
410.848	6.71
411.055	6.86
411.261	6.61
411.468	6.52
411.674	6.72
411.881	6.42
412.087	6.48
412.294	6.85
412.5	6.77
412.706	6.73
412.913	6.3
413.119	6.53
413.326	6.48
413.532	7.03
413.738	7.22
413.945	7.21
414.151	7.28
414.357	7.53
414.564	7.21
414.77	6.95
414.976	6.83
415.182	6.94
415.389	6.74
415.595	6.78
415.801	6.39
416.007	6.45
416.214	6.29
416.42	6.63
416.626	6.24
416.832	6.34
417.038	6.71
417.244	6.85
417.45	6.9
417.657	6.87
417.863	6.86
418.069	6.81
418.275	6.44
418.481	6.5
418.687	6.33
418.893	6.57
419.099	6.57
419.305	6.32
419.511	6.29
419.717	6.37
419.923	6.35
420.129	6.3
420.335	6.42
420.541	6.67
420.746	6.68
420.952	6.65
421.158	6.64
421.364	6.62
421.57	6.69
421.776	6.69
421.982	6.58
422.187	6.53
422.393	6.52
422.599	6.54
422.805	6.49
423.01	6.61
423.216	6.63
423.422	6.69
423.628	6.7
423.833	6.6
424.039	6.61
424.245	6.72
424.45	6.9
424.656	7
424.862	7
425.067	6.94
425.273	6.79
425.478	6.81
425.684	6.69
425.889	6.43
426.095	6.7
426.301	6.55
426.506	6.51
426.712	6.4
426.917	6.47
427.123	6.29
427.328	6.51
427.533	6.49
427.739	6.56
427.944	6.58
428.15	6.96
428.355	6.51
428.561	6.62
428.766	6.66
428.971	6.61
429.177	6.55
429.382	6.71
429.587	6.38
429.793	6.4
429.998	6.34
430.203	6.33
430.408	6.32
430.614	6.16
430.819	6.16
431.024	6.09
431.229	6.23
431.434	6.01
431.64	6
431.845	6.18
432.05	6.15
432.255	6.15
432.46	6.17
432.665	5.99
432.87	6.39
433.076	6.54
433.281	6.54
433.486	6.48
433.691	6.66
433.896	6.65
434.101	6.63
434.306	6.54
434.511	6.53
434.716	6.51
434.921	6.71
435.126	6.63
435.331	6.53
435.535	6.53
435.74	6.57
435.945	6.61
436.15	6.5
436.355	6.4
436.56	6.65
436.765	6.55
436.97	6.66
437.174	6.57
437.379	6.53
437.584	6.4
437.789	6.41
437.993	6.49
438.198	6.22
438.403	6.48
438.608	6.46
438.812	6.42
439.017	6.41
439.222	6.46
439.426	6.28
439.631	6.36
439.836	6.46
440.04	6.5
440.245	6.36
440.45	6.46
440.654	6.38
440.859	6.49
441.063	6.56
441.268	6.58
441.472	6.34
441.677	6.52
441.881	6.56
442.086	6.6
442.29	6.52
442.495	6.63
442.699	6.65
442.904	6.57
443.108	6.37
443.312	6.11
443.517	6.09
443.721	6.24
443.925	6.14
444.13	5.88
444.334	5.78
444.538	5.88
444.743	5.79
444.947	5.84
445.151	6
445.356	6.22
445.56	6.27
445.764	6.52
445.968	6.46
446.173	6.6
446.377	6.61
446.581	6.59
446.785	6.42
446.989	6.47
447.193	6.53
447.398	6.57
447.602	6.53
447.806	6.6
448.01	6.4
448.214	6.5
448.418	6.29
448.622	6.23
448.826	6.24
449.03	6.36
449.234	6.52
449.438	6.42
449.642	6.16
449.846	5.87
450.05	5.75
450.254	5.69
450.458	5.58
450.662	5.79
450.866	5.95
451.069	5.98
451.273	5.98
451.477	5.84
451.681	5.74
451.885	5.86
452.089	6.09
452.292	6.32
452.496	6.37
452.7	6.32
452.904	6.32
453.107	6.2
453.311	6.19
453.515	6.23
453.719	6.14
453.922	6.05
454.126	5.97
454.33	6.01
454.533	5.86
454.737	5.78
454.94	5.91
455.144	5.64
455.348	5.7
455.551	5.57
455.755	5.51
455.958	5.53
456.162	5.68
456.365	5.65
456.569	5.58
456.772	5.54
456.976	5.55
457.179	5.38
457.383	5.5
457.586	5.66
457.79	5.72
457.993	5.81
458.196	5.73
458.4	5.82
458.603	5.82
458.807	5.88
459.01	5.87
459.213	5.98
459.417	6
459.62	5.94
459.823	5.8
460.026	5.84
460.23	5.71
460.433	5.7
460.636	5.72
460.839	5.68
461.042	5.69
461.246	5.72
461.449	5.55
461.652	5.64
461.855	5.8
462.058	5.84
462.261	5.91
462.464	5.98
462.668	6.12
462.871	5.83
463.074	5.95
463.277	5.97
463.48	5.82
463.683	5.83
463.886	5.68
464.089	5.34
464.292	5.47
464.495	5.48
464.698	5.7
464.901	5.53
465.104	5.68
465.306	5.58
465.509	5.47
465.712	5.55
465.915	5.66
466.118	5.65
466.321	5.84
466.524	5.85
466.726	5.71
466.929	5.4
467.132	5.44
467.335	5.16
467.538	5.3
467.74	5.25
467.943	5.23
468.146	5.29
468.348	5.48
468.551	5.47
468.754	5.52
468.956	5.47
469.159	5.4
469.362	5.48
469.564	5.78
469.767	5.6
469.969	5.66
470.172	5.85
470.375	5.64
470.577	5.54
470.78	5.56
470.982	5.77
471.185	5.94
471.387	6.21
471.59	6.14
471.792	6.08
471.995	6.23
472.197	6.12
472.399	5.92
472.602	6.02
472.804	5.78
473.007	5.91
473.209	5.72
473.411	5.57
473.614	5.48
473.816	5.53
474.018	5.56
474.22	5.51
474.423	5.58
474.625	5.66
474.827	5.67
475.03	5.94
475.232	5.77
475.434	5.87
475.636	5.88
475.838	5.96
476.04	5.94
476.243	5.9
476.445	5.92
476.647	5.89
476.849	5.92
477.051	5.96
477.253	5.72
477.455	5.6
477.657	5.47
477.859	5.44
478.061	5.37
478.263	5.37
478.465	5.36
478.667	5.32
478.869	5.4
479.071	5.34
479.273	5.4
479.475	5.58
479.677	5.67
479.879	5.56
480.081	5.69
480.283	5.6
480.485	5.59
480.686	5.72
480.888	5.73
481.09	5.67
481.292	5.75
481.494	5.69
481.695	5.77
481.897	5.85
482.099	5.93
482.301	5.91
482.502	5.98
482.704	6
482.906	6.02
483.107	6.02
483.309	6.08
483.511	6.1
483.712	6.12
483.914	6.08
484.115	6.07
484.317	6.11
484.519	6.12
484.72	6.09
484.922	6.1
485.123	6.08
485.325	6.05
485.526	6.02
485.728	5.99
485.929	5.96
486.131	5.93
486.332	5.87
486.534	5.78
486.735	5.73
486.936	5.81
487.138	5.87
487.339	5.85
487.541	6
487.742	5.98
487.943	5.96
488.144	5.99
488.346	6.03
488.547	6.06
488.748	6.09
488.95	6.13
489.151	6.04
489.352	5.95
489.553	5.95
489.755	5.85
489.956	5.83
490.157	5.87
490.358	5.77
490.559	5.81
490.76	5.78
490.961	5.82
491.163	5.89
491.364	5.93
491.565	5.88
491.766	5.9
491.967	5.83
492.168	5.96
492.369	5.91
492.57	5.98
492.771	5.87
492.972	5.87
493.173	5.8
493.374	5.7
493.575	5.61
493.776	5.66
493.976	5.58
494.177	5.49
494.378	5.29
494.579	5.35
494.78	5.32
494.981	5.43
495.182	5.52
495.382	5.45
495.583	5.39
495.784	5.58
495.985	5.63
496.185	5.56
496.386	5.7
496.587	5.72
496.788	5.69
496.988	5.73
497.189	5.69
497.39	5.78
497.59	5.82
497.791	5.82
497.992	5.83
498.192	5.8
498.393	5.93
498.593	6.02
498.794	6.01
498.994	5.97
499.195	5.84
499.395	5.96
499.596	5.87
499.796	5.98
499.997	6.07
500.197	6.07
500.398	6.16
500.598	6.15
500.799	6.2
500.999	6.24
501.199	6.11
501.4	6.34
501.6	6.28
501.801	6.26
502.001	6.33
502.201	6.37
502.402	6.34
502.602	6.25
502.802	6.25
503.002	6.1
503.203	6.22
503.403	6.32
503.603	6.16
503.803	6.18
504.003	6.32
504.204	6.21
504.404	6.17
504.604	6.32
504.804	6.21
505.004	6.17
505.204	6.19
505.404	6.15
505.604	6.19
505.804	6.24
506.005	6.14
506.205	6.13
506.405	6.08
506.605	6.21
506.805	5.99
507.005	6.1
507.204	6.21
507.404	6.26
507.604	6.16
507.804	6.14
508.004	6.19
508.204	6.35
508.404	6.29
508.604	6.39
508.804	6.42
509.003	6.67
509.203	6.83
509.403	6.9
509.603	6.95
509.803	7.15
510.002	7.27
510.202	7.31
510.402	7.24
510.602	7.2
510.801	7.26
511.001	7.15
511.201	7.11
511.4	7.03
511.6	6.98
511.8	7.1
511.999	7.04
512.199	7.06
512.398	7.13
512.598	7.25
512.797	7.4
512.997	7.42
513.197	7.55
513.396	7.58
513.596	7.6
513.795	7.83
513.994	7.67
514.194	7.8
514.393	7.9
514.593	7.96
514.792	8.01
514.992	8.03
515.191	8
515.39	8.07
515.59	8.18
515.789	8.4
515.988	8.32
516.188	8.53
516.387	8.72
516.586	8.76
516.786	8.78
516.985	8.81
517.184	8.9
517.383	9.08
517.582	9.11
517.782	9.14
517.981	9.1
518.18	9.24
518.379	9.32
518.578	9.28
518.777	9.22
518.976	9.28
519.176	9.25
519.375	9.31
519.574	9.43
519.773	9.45
519.972	9.48
520.171	9.58
520.37	9.55
520.569	9.67
520.768	9.75
520.967	9.95
521.166	10.08
521.365	10.29
521.564	10.32
521.762	10.47
521.961	10.62
522.16	10.84
522.359	11.01
522.558	11.13
522.757	11.08
522.956	11.23
523.154	11.36
523.353	11.4
523.552	11.62
523.751	11.77
523.949	11.89
524.148	12
524.347	11.96
524.546	12.02
524.744	12.17
524.943	12.3
525.142	12.21
525.34	12.2
525.539	12.26
525.737	12.42
525.936	12.55
526.135	12.59
526.333	12.75
526.532	12.98
526.73	13.17
526.929	13.21
527.127	13.31
527.326	13.56
527.524	13.79
527.723	14
527.921	14.01
528.12	14.1
528.318	14.15
528.516	14.22
528.715	14.26
528.913	14.33
529.112	14.43
529.31	14.6
529.508	14.65
529.707	14.72
529.905	14.76
530.103	14.78
530.301	14.87
530.5	14.98
530.698	15.02
530.896	15.08
531.094	15.14
531.293	15.23
531.491	15.15
531.689	15.29
531.887	15.37
532.085	15.55
532.283	15.71
532.481	15.9
532.68	16.02
532.878	16.31
533.076	16.49
533.274	16.61
533.472	16.78
533.67	16.95
533.868	17.05
534.066	17.13
534.264	17.17
534.462	17.3
534.66	17.3
534.858	17.39
535.056	17.35
535.253	17.36
535.451	17.44
535.649	17.61
535.847	17.66
536.045	17.73
536.243	17.89
536.441	18.01
536.638	18.11
536.836	18.34
537.034	18.31
537.232	18.29
537.43	18.37
537.627	18.51
537.825	18.51
538.023	18.59
538.22	18.66
538.418	18.62
538.616	18.66
538.813	18.7
539.011	18.7
539.209	18.94
539.406	19.11
539.604	19.28
539.801	19.35
539.999	19.58
540.196	19.87
540.394	19.98
540.591	20.16
540.789	20.23
540.986	20.41
541.184	20.54
541.381	20.6
541.579	20.77
541.776	20.85
541.974	20.88
542.171	20.86
542.368	20.88
542.566	20.93
542.763	21.08
542.96	21.19
543.158	21.33
543.355	21.38
543.552	21.48
543.75	21.56
543.947	21.63
544.144	21.77
544.341	21.87
544.539	21.93
544.736	22.13
544.933	22.14
545.13	22.19
545.327	22.27
545.524	22.33
545.722	22.39
545.919	22.55
546.116	22.68
546.313	22.73
546.51	22.74
546.707	22.88
546.904	22.84
547.101	22.82
547.298	22.93
547.495	22.88
547.692	23.06
547.889	23.27
548.086	23.2
548.283	23.13
548.48	23.21
548.677	23.36
548.874	23.24
549.07	23.29
549.267	23.57
549.464	23.71
549.661	23.56
549.858	23.51
550.055	23.27
550.251	23.47
550.448	23.6
550.645	23.84
550.842	23.83
551.038	23.97
551.235	24.17
551.432	24.11
551.628	24.24
551.825	24.55
552.022	24.78
552.218	25.17
552.415	25.13
552.612	25.17
552.808	25.14
553.005	25.41
553.201	25.53
553.398	25.5
553.594	25.45
553.791	25.34
553.987	25.29
554.184	25.28
554.38	25.2
554.577	25.3
554.773	25.4
554.97	25.42
555.166	25.26
555.362	25.36
555.559	25.57
555.755	25.82
555.952	25.73
556.148	25.78
556.344	25.66
556.541	25.73
556.737	25.89
556.933	26
557.129	26.08
557.326	26.26
557.522	26.36
557.718	26.33
557.914	26.48
558.11	26.87
558.307	27.09
558.503	27.32
558.699	27.39
558.895	27.34
559.091	27.35
559.287	27.64
559.483	27.74
559.679	27.76
559.876	27.84
560.072	27.68
560.268	27.48
560.464	27.74
560.66	27.83
560.856	27.88
561.052	28.07
561.247	28.18
561.443	28.08
561.639	28.13
561.835	28.21
562.031	28.36
562.227	28.56
562.423	28.69
562.619	28.63
562.815	28.6
563.01	28.73
563.206	28.45
563.402	28.41
563.598	28.35
563.793	28.49
563.989	28.51
564.185	28.46
564.381	28.38
564.576	28.56
564.772	28.54
564.968	28.56
565.163	28.49
565.359	28.89
565.555	29.2
565.75	29.45
565.946	29.43
566.141	29.36
566.337	29.33
566.532	29.33
566.728	29.4
566.923	29.49
567.119	29.67
567.314	29.66
567.51	29.57
567.705	29.36
567.901	29.16
568.096	29.21
568.292	29.33
568.487	29.65
568.682	29.81
568.878	29.87
569.073	29.76
569.268	29.78
569.464	29.92
569.659	29.97
569.854	30.17
570.05	30.42
570.245	30.54
570.44	30.59
570.635	30.5
570.831	30.65
571.026	30.55
571.221	30.78
571.416	30.71
571.611	30.82
571.806	30.92
572.002	31.13
572.197	31.12
572.392	30.98
572.587	30.99
572.782	30.85
572.977	30.98
573.172	31.04
573.367	30.95
573.562	31.18
573.757	31.18
573.952	31.13
574.147	30.83
574.342	30.93
574.537	31.13
574.732	31.24
574.927	31.43
575.121	31.17
575.316	31.13
575.511	31.33
575.706	31.27
575.901	31.3
576.096	31.39
576.29	31.65
576.485	31.62
576.68	31.57
576.875	31.68
577.069	31.77
577.264	32.01
577.459	32.14
577.654	32.14
577.848	32.12
578.043	32.2
578.238	32.32
578.432	32.23
578.627	32.28
578.821	32.22
579.016	32
579.21	32
579.405	32.02
579.6	32.04
579.794	31.68
579.989	31.73
580.183	31.59
580.378	31.49
580.572	31.57
580.766	31.78
580.961	31.89
581.155	31.94
581.35	32.08
581.544	32.3
581.738	32.46
581.933	32.75
582.127	32.78
582.321	33.1
582.516	32.7
582.71	32.72
582.904	32.45
583.099	32.62
583.293	32.85
583.487	32.92
583.681	32.68
583.875	32.58
584.07	32.84
584.264	32.96
584.458	32.94
584.652	33.45
584.846	33.58
585.04	33.6
585.234	33.48
585.428	33.51
585.623	33.41
585.817	33.45
586.011	33.51
586.205	33.4
586.399	33.27
586.593	33.19
586.787	33.32
586.981	33.12
587.174	33.1
587.368	33.16
587.562	32.88
587.756	33
587.95	33.41
588.144	33.79
588.338	33.84
588.532	33.93
588.725	33.97
588.919	33.99
589.113	34.31
589.307	34.57
589.501	34.39
589.694	34.76
589.888	35.01
590.082	34.68
590.275	34.39
590.469	34.24
590.663	34.39
590.856	34.65
591.05	34.6
591.244	34.63
591.437	34.71
591.631	34.8
591.824	34.88
592.018	34.68
592.212	34.69
592.405	34.97
592.599	34.98
592.792	34.79
592.986	34.5
593.179	34.67
593.372	34.49
593.566	34.59
593.759	34.94
593.953	34.98
594.146	34.81
594.339	34.94
594.533	34.81
594.726	35.23
594.92	35.24
595.113	35.45
595.306	35.22
595.499	35.36
595.693	35.27
595.886	35.19
596.079	35.05
596.272	35.23
596.466	35.05
596.659	34.95
596.852	34.83
597.045	35.01
597.238	35.02
597.431	35.11
597.624	35.07
597.818	35.27
598.011	35.15
598.204	35.16
598.397	35.11
598.59	35.21
598.783	35.21
598.976	35.2
599.169	35.18
599.362	35.29
599.555	35.02
599.748	35.07
599.941	34.59
600.134	34.72
600.326	34.77
600.519	34.61
600.712	34.49
600.905	34.72
601.098	34.61
601.291	34.38
601.483	34.29
601.676	34.61
601.869	34.63
602.062	34.81
602.255	34.81
602.447	34.78
602.64	34.83
602.833	35.09
603.025	35.22
603.218	35.21
603.411	35.45
603.603	35.43
603.796	35.59
603.989	35.73
604.181	35.86
604.374	36.04
604.566	36.03
604.759	36
604.951	36.06
605.144	35.99
605.336	36
605.529	35.91
605.721	36.02
605.914	36
606.106	35.89
606.299	35.84
606.491	35.53
606.683	35.47
606.876	35.71
607.068	35.64
607.26	35.66
607.453	36.01
607.645	35.92
607.837	35.84
608.03	35.83
608.222	35.86
608.414	36.03
608.606	36.53
608.799	36.55
608.991	36.56
609.183	36.51
609.375	36.64
609.567	36.83
609.759	37.15
609.952	37.39
610.144	37.52
610.336	37.83
610.528	37.74
610.72	37.7
610.912	37.97
611.104	37.99
611.296	38.2
611.488	38.18
611.68	37.83
611.872	37.71
612.064	37.65
612.256	37.52
612.448	37.06
612.64	37.19
612.832	37.1
613.023	37.21
613.215	37.28
613.407	37.21
613.599	37.44
613.791	37.37
613.983	37.2
614.174	37.23
614.366	37.23
614.558	37.63
614.75	37.49
614.941	37.72
615.133	37.41
615.325	37.15
615.516	37.1
615.708	36.99
615.9	37.07
616.091	37.24
616.283	36.9
616.475	36.84
616.666	36.4
616.858	36.13
617.049	35.89
617.241	36.08
617.432	35.81
617.624	35.81
617.815	35.56
618.007	35.46
618.198	35.51
618.39	35.64
618.581	35.41
618.773	35.55
618.964	35.77
619.155	35.98
619.347	35.95
619.538	36.48
619.729	36.52
619.921	36.68
620.112	36.67
620.303	36.7
620.494	36.66
620.686	37.05
620.877	37.19
621.068	37.46
621.259	37.22
621.451	37.2
621.642	37.24
621.833	37.47
622.024	37.28
622.215	37.62
622.406	37.55
622.597	37.58
622.788	37.59
622.98	37.64
623.171	37.48
623.362	37.52
623.553	37.45
623.744	37.46
623.935	37.36
624.126	37.76
624.317	37.4
624.508	37.72
624.698	37.85
624.889	37.4
625.08	37.14
625.271	37.21
625.462	37.18
625.653	37.36
625.844	37.17
626.034	37.03
626.225	36.73
626.416	36.79
626.607	36.59
626.798	36.71
626.988	37.07
627.179	37.17
627.37	37.38
627.56	37.74
627.751	37.54
627.942	37.66
628.132	37.64
628.323	37.92
628.514	37.93
628.704	38.11
628.895	37.92
629.085	38.05
629.276	38.07
629.466	37.89
629.657	37.31
629.847	37.54
630.038	37.56
630.228	37.81
630.419	37.65
630.609	37.9
630.8	37.8
630.99	37.84
631.181	37.66
631.371	37.9
631.561	37.9
631.752	38.48
631.942	38.19
632.132	38.11
632.323	37.94
632.513	37.98
632.703	37.79
632.893	37.47
633.084	37.44
633.274	37.28
633.464	37.47
633.654	37.4
633.844	37.06
634.034	37.32
634.225	37.2
634.415	37.35
634.605	37.12
634.795	37.15
634.985	37.54
635.175	37.77
635.365	37.93
635.555	37.61
635.745	37.59
635.935	37.71
636.125	37.63
636.315	37.81
636.505	37.67
636.695	37.94
636.885	37.93
637.075	37.93
637.265	37.97
637.455	37.96
637.644	38.09
637.834	37.98
638.024	37.84
638.214	37.97
638.404	37.97
638.593	37.85
638.783	37.67
638.973	37.71
639.163	37.35
639.352	37.08
639.542	37.2
639.732	37.26
639.921	37.34
640.111	37.39
640.301	36.81
640.49	36.77
640.68	37.09
640.87	37.44
641.059	37.71
641.249	38.24
641.438	38.11
641.628	37.97
641.817	37.85
642.007	38.02
642.196	38.43
642.386	39.1
642.575	38.73
642.764	38.9
642.954	38.99
643.143	38.92
643.333	38.54
643.522	38.31
643.711	38.21
643.901	38.25
644.09	38.3
644.279	38.1
644.469	37.98
644.658	38.32
644.847	38.29
645.036	37.84
645.226	37.44
645.415	37.63
645.604	38.03
645.793	38.13
645.982	38.25
646.171	38.15
646.361	38.11
646.55	37.88
646.739	37.8
646.928	37.69
647.117	37.61
647.306	37.89
647.495	37.76
647.684	37.87
647.873	38.28
648.062	38.1
648.251	38.37
648.44	37.73
648.629	38.33
648.818	38.64
649.007	38.76
649.196	38.88
649.384	38.78
649.573	39.08
649.762	38.96
649.951	38.74
650.14	38.59
650.328	38.25
650.517	38.6
650.706	37.9
650.895	37.69
651.083	37.38
651.272	37.44
651.461	37.7
651.65	37.33
651.838	37.99
652.027	37.84
652.216	38.12
652.404	38.36
652.593	38.32
652.781	38.14
652.97	37.96
653.158	38
653.347	37.96
653.535	37.93
653.724	38.41
653.912	37.53
654.101	37.92
654.289	37.34
654.478	37.22
654.666	37.22
654.855	37.66
655.043	38.09
655.231	38.25
655.42	38.3
655.608	37.87
655.796	37.69
655.985	38.32
656.173	38.22
656.361	38.84
656.55	38.79
656.738	38.92
656.926	38.91
657.114	38.42
657.302	38.16
657.491	37.87
657.679	38.28
657.867	38.48
658.055	38.2
658.243	37.86
658.431	37.58
658.619	38.07
658.807	38.28
658.996	38.38
659.184	38.44
659.372	38.39
659.56	38.62
659.748	38.64
659.936	38.6
660.124	38.59
660.311	38.7
660.499	38.96
660.687	38.22
660.875	37.74
661.063	37.47
661.251	37.72
661.439	37.73
661.627	37.88
661.814	37.94
662.002	38.15
662.19	37.77
662.378	37.93
662.565	37.83
662.753	37.83
662.941	38.21
663.129	38.19
663.316	38.28
663.504	38.78
663.692	38.34
663.879	38.05
664.067	37.45
664.254	38.12
664.442	37.89
664.63	37.71
664.817	38.07
665.005	37.92
665.192	38.36
665.38	38.54
665.567	38.1
665.755	38.16
665.942	37.77
666.13	37.81
666.317	37.62
666.504	37.24
666.692	37.56
666.879	37.79
667.067	37.67
667.254	37.32
667.441	37.13
667.629	37.02
667.816	37.3
668.003	37.44
668.19	37.66
668.378	37.72
668.565	38.14
668.752	38.16
668.939	37.81
669.127	37.82
669.314	37.92
669.501	37.78
669.688	38.3
669.875	38.18
670.062	38.5
670.249	38.25
670.436	38.15
670.623	38.52
670.81	38.53
670.997	39.13
671.184	39.17
671.371	39.62
671.558	40.07
671.745	39.8
671.932	39.99
672.119	39.72
672.306	39.68
672.493	39.61
672.68	39.14
672.867	39.03
673.054	38.55
673.24	39.15
673.427	38.51
673.614	38.09
673.801	37.97
673.988	37.59
674.174	37.73
674.361	37.74
674.548	37.75
674.734	38.18
674.921	37.57
675.108	37.78
675.294	37.43
675.481	37.91
675.668	37.74
675.854	37.9
676.041	38.07
676.227	38.23
676.414	38.41
676.601	38.35
676.787	38.19
676.974	38.94
677.16	38.66
677.347	38.87
677.533	38.72
677.719	38.74
677.906	38.77
678.092	38.96
678.279	38.9
678.465	38.71
678.651	38.59
678.838	38.32
679.024	37.94
679.21	38.13
679.397	38.23
679.583	37.88
679.769	38.15
679.955	38.16
680.142	38.23
680.328	38.51
680.514	38.97
680.7	39.09
680.886	39.45
681.073	39.75
681.259	39.41
681.445	39.14
681.631	39.21
681.817	38.99
682.003	38.97
682.189	39.07
682.375	38.69
682.561	38.39
682.747	38.8
682.933	38.3
683.119	38.22
683.305	38.45
683.491	38.54
683.677	39.13
683.863	39.72
684.049	39.71
684.235	39.57
684.42	39.8
684.606	39.81
684.792	39.26
684.978	39.39
685.164	39.55
685.349	39.46
685.535	39.58
685.721	39.36
685.907	38.7
686.092	39.31
686.278	39.12
686.464	38.73
686.649	38.13
686.835	38.69
687.021	38.4
687.206	38.62
687.392	38.89
687.577	38.72
687.763	39.02
687.948	39.51
688.134	39.24
688.319	39.35
688.505	39.46
688.69	40
688.876	39.66
689.061	40.35
689.247	40
689.432	39.68
689.618	39.53
689.803	39.09
689.988	39.01
690.174	38.84
690.359	38.4
690.544	38.79
690.73	38.35
690.915	38.59
691.1	38.08
691.285	37.82
691.471	38.13
691.656	38.97
691.841	39.26
692.026	38.82
692.211	38.06
692.396	38.6
692.582	38.58
692.767	38.66
692.952	38.66
693.137	38.66
693.322	38.82
693.507	39.07
693.692	38.2
693.877	38.07
694.062	38.25
694.247	39.2
694.432	39.5
694.617	39.06
694.802	39.15
694.987	39.66
695.172	39.85
695.357	40.42
695.541	40.1
695.726	39.86
695.911	39.55
696.096	39.57
696.281	39.13
696.466	38.98
696.65	40.02
696.835	40.18
697.02	39.97
697.204	39.78
697.389	39.01
697.574	38.63
697.759	39.24
697.943	39.32
698.128	39.47
698.312	39.48
698.497	39.69
698.682	39.42
698.866	39.58
699.051	38.99
699.235	39.01
699.42	39.44
699.604	39.55
699.789	39.38
699.973	39.35
700.158	39.52
700.342	39.61
700.527	39.34
700.711	38.79
700.895	38.36
701.08	38.44
701.264	38.6
701.448	38.64
701.633	38.68
701.817	37.89
702.001	37.96
702.186	37.21
702.37	37.25
702.554	36.88
702.738	37.34
702.923	37.9
703.107	38.37
703.291	37.8
703.475	37.28
703.659	37.01
703.843	38.05
704.027	38.61
704.212	38.95
704.396	38.89
704.58	39.16
704.764	39.12
704.948	38.84
705.132	38.7
705.316	40.36
705.5	40.82
705.684	41.8
705.868	42.19
706.052	41.75
706.235	41.49
706.419	41.85
706.603	42.1
706.787	41.76
706.971	42.18
707.155	42.16
707.339	41.43
707.522	41.4
707.706	40.29
707.89	39.85
708.074	40.09
708.257	41.01
708.441	40.49
708.625	40.1
708.808	40.76
708.992	40.39
709.176	40.03
709.359	39.04
709.543	38.96
709.727	40.46
709.91	40.16
710.094	39.93
710.277	40.05
710.461	39.82
710.644	40.15
710.828	40.09
711.011	39.96
711.195	39.98
711.378	40.97
711.562	41.03
711.745	40.37
711.928	40.78
712.112	40.81
712.295	40.46
712.478	40.87
712.662	40.31
712.845	40.06
713.028	40.13
713.212	40.51
713.395	39.63
713.578	38.78
713.761	38.22
713.945	38.3
714.128	38.29
714.311	38.37
714.494	38.68
714.677	38.68
714.86	38.91
715.043	39.13
715.227	38.88
715.41	39.87
715.593	39.76
715.776	40.25
715.959	40.53
716.142	40.07
716.325	40.08
716.508	40.34
716.691	41.01
716.874	40.67
717.057	40.71
717.239	40.66
717.422	40.37
717.605	41.48
717.788	41.51
717.971	40.23
718.154	40.59
718.337	40.62
718.519	39.68
718.702	39.57
718.885	39.59
719.068	39.91
719.25	39.85
719.433	39.42
719.616	38.33
719.798	38.46
719.981	39.01
720.164	38.72
720.346	38.67
720.529	38.6
720.712	37.99
720.894	37.68
721.077	37.15
721.259	36.46
721.442	36.08
721.624	36.99
721.807	36.74
721.989	36.99
722.172	37.74
722.354	37.56
722.537	38.16
722.719	38.73
722.901	39.16
723.084	39.49
723.266	40.48
723.448	40.57
723.631	40.88
723.813	40.76
723.995	39.68
724.178	39.94
724.36	40.32
724.542	38.44
724.724	37.56
724.907	37.43
725.089	37.19
725.271	37.06
725.453	38.08
725.635	37.7
725.817	37.79
725.999	39.04
726.181	38.9
726.364	38.06
726.546	38.95
726.728	39.03
726.91	38.64
727.092	38.73
727.274	38.71
727.456	38.16
727.638	38.27
727.819	38.16
728.001	38.36
728.183	37.32
728.365	37.68
728.547	38.43
728.729	38.08
728.911	38.38
729.093	38.05
729.274	38.24
729.456	38.6
729.638	38.38
729.82	38.06
730.001	38.23
730.183	39.02
730.365	39.25
730.546	38.88
730.728	39.63
730.91	39.4
731.091	38.41
731.273	38.86
731.455	38.4
731.636	38.65
731.818	39.57
731.999	40.22
732.181	40.11
732.362	40
732.544	39.95
732.725	39.43
732.907	39.78
733.088	40.3
733.27	40.14
733.451	40.36
733.633	39.75
733.814	38.99
733.995	37.82
734.177	37.23
734.358	37.04
734.539	36.62
734.721	36.41
734.902	35.49
735.083	35.62
735.264	35.21
735.446	35.49
735.627	36.06
735.808	35.84
735.989	34.17
736.17	34.27
736.351	34
736.533	35.48
736.714	35.67
736.895	35.45
737.076	35.64
737.257	35.89
737.438	35.58
737.619	34.52
737.8	34.93
737.981	37.14
738.162	36.74
738.343	36.54
738.524	35.56
738.705	36.11
738.886	36.21
739.067	36.27
739.247	36.77
739.428	36.28
739.609	36.91
739.79	36.73
739.971	37.3
740.151	38.15
740.332	38.35
740.513	38.77
740.694	38.83
740.874	39.65
741.055	38.94
741.236	37.93
741.417	39.02
741.597	39.37
741.778	40.01
741.958	38.39
742.139	37.74
742.32	37.69
742.5	37.29
742.681	36.98
742.861	38.14
743.042	38.66
743.222	39.65
743.403	38.29
743.583	37.69
743.764	36.88
743.944	37.72
744.124	38.6
744.305	38.3
744.485	38.22
744.666	38.79
744.846	37.51
745.026	36.91
745.207	35.05
745.387	36.83
745.567	36.59
745.747	36.47
745.928	36.11
746.108	35.4
746.288	36.33
746.468	37.43
746.648	36.88
746.829	37.92
747.009	39.67
747.189	40.1
747.369	38.58
747.549	39.51
747.729	39.16
747.909	39.51
748.089	40.76
748.269	39.1
748.449	38.82
748.629	38.61
748.809	37.86
748.989	36.96
749.169	37.1
749.349	36.1
749.529	35.9
749.709	35.91
749.889	35.68
750.068	34.46
750.248	35.48
750.428	34.73
750.608	34.02
750.788	35.59
750.967	36.15
751.147	36.26
751.327	38.45
751.507	38.06
751.686	38.84
751.866	38.76
752.046	38.79
752.225	38.48
752.405	39.26
752.585	40.86
752.764	39.87
752.944	38.99
753.123	39.05
753.303	37.03
753.482	37.13
753.662	37.38
753.841	37.23
754.021	36.88
754.2	37.8
754.38	36.76
754.559	36.81
754.739	36.82
754.918	37.66
755.097	36.75
755.277	38.63
755.456	38.14
755.635	37.55
755.815	37.43
755.994	38.27
756.173	37.19
756.352	37.12
756.532	35.52
756.711	34.37
756.89	32.91
757.069	34.57
757.248	33.9
757.427	34.63
757.607	34.68
757.786	35.7
757.965	35.83
758.144	36.66
758.323	36.56
758.502	38.69
758.681	39.48
758.86	40.89
759.039	41.19
759.218	41.65
759.397	41.94
759.576	41.88
759.755	40.96
759.934	40.71
760.113	40
760.291	40.72
760.47	39.25
760.649	38.82
760.828	38.85
761.007	37.11
761.186	36.7
761.364	37.23
761.543	37.93
761.722	37.54
761.901	38.11
762.079	39.28
762.258	39.13
762.437	39.88
762.615	40.14
762.794	40.75
762.972	40.95
763.151	41.47
763.33	40.67
763.508	40.08
763.687	40.68
763.865	40.09
764.044	39.61
764.222	38.67
764.401	37.81
764.579	38.62
764.758	38.01
764.936	38.88
765.114	39
765.293	39.33
765.471	40.4
765.65	40.17
765.828	41.2
766.006	41.49
766.184	42.23
766.363	43.08
766.541	41.9
766.719	41.73
766.898	41.18
767.076	38.98
767.254	39.14
767.432	37.84
767.61	37.16
767.788	35.26
767.967	34.37
768.145	35.16
768.323	33.17
768.501	33.53
768.679	33.86
768.857	33.25
769.035	34.78
769.213	33.66
769.391	34.22
769.569	34.83
769.747	35.16
769.925	34.56
770.103	32.92
770.281	33.08
770.459	33.16
770.636	33.54
770.814	34.6
770.992	33.44
771.17	32.07
771.348	30.88
771.525	30.39
771.703	30.76
771.881	31.68
772.059	32.43
772.236	33.75
772.414	31.82
772.592	31.78
772.769	30.87
772.947	31.22
773.125	34.39
773.302	35.98
773.48	37.17
773.657	37.77
773.835	38.25
774.013	38.49
774.19	37.44
774.368	39.88
774.545	38.37
774.723	36.78
774.9	35.84
775.077	33.83
775.255	33.57
775.432	32.63
775.61	33.71
775.787	31.32
775.964	31.44
776.142	31.06
776.319	30.89
776.496	31.02
776.674	33.06
776.851	35.08
777.028	33.77
777.205	32.47
777.382	33.82
777.56	31.42
777.737	30.9
777.914	30.47
778.091	32.41
778.268	30.39
778.445	30.14
778.622	28.1
778.8	27.04
778.977	30.76
779.154	30.15
779.331	29.63
779.508	29.28
779.685	30.62
779.862	31.43
780.038	30.2
780.215	31.44
780.392	31.83
780.569	31.25
780.746	32.47
780.923	29.32
781.1	29.77
781.277	29.18
781.453	32.44
781.63	34.88
781.807	35.06
781.984	36.05
782.16	35.93
782.337	36.48
782.514	35.87
782.691	34.94
782.867	35.41
783.044	36.69
783.221	36.46
783.397	35.31
783.574	31.43
783.75	30.15
783.927	32.43
784.103	31.65
784.28	32.37
784.456	35.24
784.633	33.01
784.809	32.58
784.986	31.1
785.162	30.75
785.339	29.68
785.515	29.26
785.692	29.91
785.868	26.4
786.044	24.99
786.221	23.13
786.397	20.37
786.573	25.74
786.749	27.63
786.926	29.18
787.102	27.79
787.278	29.31
787.454	31.05
787.631	30.06
787.807	29.96
787.983	32.65
788.159	32.02
788.335	32.08
788.511	31.18
788.687	30.65
788.863	29.14
789.039	32.69
789.216	28.14
789.392	27.89
789.568	26.68
789.744	27.62
789.919	27.08
790.095	29.51
790.271	30.78
790.447	28.55
790.623	30.78
790.799	33.09
790.975	30.89
791.151	33.77
791.327	36.25
791.502	37.96
791.678	36.69
791.854	33.69
792.03	32.1
792.205	34.08
792.381	34.35
792.557	30.63
792.733	28.92
792.908	28.57
793.084	28.8
793.259	28.66
793.435	29
793.611	34.54
793.786	38.59
793.962	36.29
794.137	35.43
794.313	36.74
794.488	38.55
794.664	40.25
794.839	39.3
795.015	39.31
795.19	36.46
795.366	35.94
795.541	32.08
795.716	32.09
795.892	33.42
796.067	32.88
796.242	34.2
796.418	32.76
796.593	32.47
796.768	33.83
796.944	33.64
797.119	35.04
797.294	34.88
797.469	35.96
797.644	34.87
797.82	34.33
797.995	34.35
798.17	32.8
798.345	32.02
798.52	31.07
798.695	28.57
798.87	29.2
799.045	29.2
799.22	30.64
799.395	30.02
799.57	32.72
799.745	31.02
799.92	29.86
800.095	28.92
800.27	27.98
800.445	27.23
800.62	27.74
800.795	26.61
800.97	25.97
801.145	25.61
801.319	25.66
801.494	21.8
801.669	23.95
801.844	25.88
802.018	25.98
802.193	31.51
802.368	34.13
802.543	38.34
802.717	39.4
802.892	40.34
803.067	39.58
803.241	40.3
803.416	43.74
803.59	41.1
803.765	40.86
803.94	40.69
804.114	37.56
804.289	34.69
804.463	30.79
804.638	27.8
804.812	27.24
804.986	26.97
805.161	23.92
805.335	21.85
805.51	23.8
805.684	24.86
805.858	27.48
806.033	26.99
806.207	27.85
806.381	29.79
806.556	32.84
806.73	31.98
806.904	32.8
807.078	31.92
807.253	31.8
807.427	32.72
807.601	32.58
807.775	31.6
807.949	33.18
808.123	30.64
808.298	29.38
808.472	28.81
808.646	28.49
808.82	29.97
808.994	30.2
809.168	28.69
809.342	27.52
809.516	31.36
809.69	32.92
809.864	32.08
810.038	36.01
810.212	37.4
810.385	35.05
810.559	37.46
810.733	32.7
810.907	32.41
811.081	32.92
811.255	31.72
811.428	26.27
811.602	22.54
811.776	23.3
811.95	21.36
812.123	20.96
812.297	22.49
812.471	23.13
812.644	22.27
812.818	22.8
812.992	21.87
813.165	24.74
813.339	25.26
813.512	25.42
813.686	28.59
813.86	26.71
814.033	26.56
814.207	28.79
814.38	24.78
814.554	31.05
814.727	31.31
814.9	29.82
815.074	30.66
815.247	24.84
815.421	26.1
815.594	21.53
815.767	19.5
815.941	13.62
816.114	10.19
816.287	11.99
816.46	8.57
816.634	9.13
816.807	11.56
816.98	8.81
817.153	17.93
817.327	14.02
817.5	15.61
817.673	18.71
817.846	23.88
818.019	29.62
818.192	25.74
818.365	28.41
818.538	30.9
818.711	30.55
818.884	30.79
819.057	23.76
819.23	25.97
819.403	24.24
819.576	23.55
819.749	25.05
819.922	24
820.095	26.79
820.268	26.58
820.441	25.24
820.614	25.97
820.786	26.34
820.959	31.79
821.132	33.08
821.305	35.67
821.477	36.6
821.65	36.63
821.823	36.74
821.996	38.23
822.168	38.32
822.341	38.94
822.514	39.32
822.686	39.92
822.859	39.58
823.031	39.68
823.204	38.67
823.376	38.85
823.549	39.11
823.722	39.6
823.894	39.09
824.067	38.79
824.239	38.39
824.411	38.65
824.584	38.58
824.756	38.75
824.929	38.68
825.101	39.17
825.273	38.95
825.446	38.56
825.618	38.39
825.79	37.84
825.963	38.02
826.135	37.74
826.307	36.7
826.479	36.16
826.652	35.59
826.824	35.18
826.996	34.58
827.168	34.48
827.34	34.31
827.512	33.81
827.684	33.98
827.856	33.97
828.029	34.68
828.201	35.68
828.373	36.25
828.545	35.96
828.717	36.41
828.889	36.45
829.061	37.85
829.232	37.82
829.404	37.45
829.576	37.03
829.748	36.8
829.92	35.06
830.092	35.38
830.264	33.17
830.436	33.17
830.607	31.15
830.779	32.37
830.951	30.54
831.123	29.9
831.294	29.11
831.466	27.18
831.638	26.72
831.809	30.83
831.981	28.9
832.153	29.75
832.324	29.29
832.496	30.58
832.667	27.53
832.839	24.41
833.011	25.42
833.182	26.67
833.354	27.84
833.525	30.65
833.697	28.74
833.868	28.28
834.039	29.69
834.211	30.52
834.382	31.33
834.554	34.01
834.725	36.9
834.896	35.22
835.068	35.44
835.239	35.97
835.41	34.58
835.581	34.98
835.753	36.69
835.924	34.49
836.095	35.06
836.266	34.59
836.438	32.79
836.609	31.59
836.78	34.16
836.951	34.07
837.122	33.55
837.293	34.26
837.464	32.66
837.635	29.73
837.806	30.9
837.977	27.94
838.148	29.11
838.319	30.81
838.49	30.83
838.661	26.25
838.832	24.33
839.003	23.55
839.174	18.42
839.345	14.38
839.516	11.21
839.687	8.6
839.857	12.79
840.028	9.2
840.199	6.04
840.37	1.53
840.54	7.05
840.711	9.23
840.882	7.15
841.053	7.83
841.223	9.3
841.394	15.62
841.564	15.38
841.735	15.52
841.906	12.74
842.076	10.7
842.247	15.35
842.417	12.09
842.588	10.61
842.758	17.15
842.929	20.54
843.099	19.63
843.27	15.69
843.44	17.75
843.611	10.75
843.781	0.47
843.951	4.35
844.122	3.53
844.292	-4.42
844.462	-18.35
844.633	-16.59
844.803	-11.46
844.973	-3.51
845.144	-1.98
845.314	-12.52
845.484	1.21
845.654	11.07
845.824	13.66
845.995	11.07
846.165	21.43
846.335	25.59
846.505	10.08
846.675	7.09
846.845	-4.9
847.015	-17.41
847.185	-10.81
847.355	-30.26
847.525	-16.89
847.695	-31.81
847.865	-35.67
848.035	-48.78
848.205	-50.74
848.375	-31.13
848.545	-50.74
848.715	-49.01
848.884	-59.74
849.054	-88.16
849.224	-78.51
849.394	-83.04
849.564	-63.02
849.733	-50.97
849.903	-42.08
850.073	-27.35
850.243	-30.19
850.412	-19.27
850.582	-29.18
850.752	-40.08
850.921	-17.85
851.091	-20.09
851.26	-38.58
851.43	-41.5
851.599	-74.91
851.769	-56.87
851.939	-54.58
852.108	-111.47
852.278	-97.28
852.447	-71.42
852.616	-16.6
852.786	-30.94
852.955	-46.04
853.125	-19.42
853.294	-0.5
853.463	4.78
853.633	-28.06
853.802	-65.79
853.971	-31.14
854.141	-49.32
854.31	-70.01
854.479	-129.54
854.648	-125.52
854.818	-94.36
854.987	-142.87
855.156	-167.99
855.325	-109.47
855.494	-114.8
855.663	-118.33
855.832	-167.19
856.001	-168.41
856.171	-155.6
856.34	-136.18
856.509	-144.42
856.678	-158.8
856.847	-72.97
857.016	-81.71
857.185	-88.54
857.353	-35.28
857.522	-24.12
857.691	-5.29
857.86	-1.84
858.029	15.95
858.198	7.46
858.367	11.48
858.535	4.62
858.704	-1.3
858.873	7.44
859.042	6.3
859.21	-20.07
859.379	-15.92
859.548	-32.43
859.717	-27.57
859.885	-15.44
860.054	-10.17
860.222	-37.26
860.391	-32.42
860.56	-28.68
860.728	-22.02
860.897	-3.73
861.065	12.54
861.234	12.08
861.402	20.84
861.571	10.17
861.739	11.8
861.908	19.56
862.076	34
862.244	39.81
862.413	31.93
862.581	20.63
862.749	-29.67
862.918	-91.8
863.086	-127.69
863.254	-140.61
863.423	-219.22
863.591	-129.1
863.759	-270.27
863.927	-327.65
864.096	-1626.01
864.264	402.38
864.432	618.28
864.6	-841.68
864.768	-194.57
864.936	0.75
865.104	12.93
865.272	17.16
865.44	-68.98
865.608	-20.04
865.776	-93.51
865.944	-103.54
866.112	-57.29
866.28	-66.96
866.448	-68.49
866.616	-64.75
866.784	-65.99
866.952	-97.57
867.12	-81.7
867.288	-47.68
867.455	-51.96
867.623	-40.27
867.791	-22.2
867.959	-34.35
868.127	-25.62
868.294	-24.57
868.462	-21.32
868.63	-33.61
868.797	-63.18
868.965	-198.14
869.133	-203.14
869.3	-271.7
869.468	-102.28
869.636	-65.57
869.803	-72.11
869.971	-59.88
870.138	-40.04
870.306	-33.1
870.473	-40.77
870.641	-19.89
870.808	-14.93
870.975	-26.15
871.143	-20.91
871.31	-56.38
871.478	-133.34
871.645	-48.4
871.812	-66.54
871.98	-97.37
872.147	-169.32
872.314	-87.98
872.482	-107.17
872.649	-128.52
872.816	-35.81
872.983	-147.24
873.15	-48.7
873.318	-58.6
873.485	-101.43
873.652	-2.46
873.819	12.09
873.986	13.29
874.153	-4.91
874.32	-16.4
874.487	-2.57
874.654	-34.45
874.821	-12.04
874.988	-17.34
875.155	-9.01
875.322	-4.29
875.489	-24.65
875.656	-45.13
875.823	-54.96
875.99	-50.86
876.157	-29.9
876.324	-19
876.49	13.04
876.657	22.28
876.824	15
876.991	11.26
877.157	27.05
877.324	31
877.491	46.03
877.658	53.99
877.824	51.96
877.991	53.65
878.157	26.29
878.324	25.77
878.491	19.49
878.657	26.76
878.824	21.55
878.99	11.13
879.157	-2.22
879.323	-3.02
879.49	5
879.656	9.75
879.823	9.16
879.989	5.96
880.156	-17.74
880.322	-6.63
880.488	5.84
880.655	25.1
880.821	12.85
880.987	29.69
881.154	26.88
881.32	11.76
881.486	15.23
881.652	17.03
881.819	28.08
881.985	30.12
882.151	23.12
882.317	19.77
882.483	18.59
882.649	23.47
882.816	21.8
882.982	22.5
883.148	25.58
883.314	26.08
883.48	27.85
883.646	26.35
883.812	28.24
883.978	30.91
884.144	32.81
884.31	33.6
884.476	34.36
884.642	35.01
884.807	35.88
884.973	35.59
885.139	36.61
885.305	35.88
885.471	37.46
885.637	36.61
885.802	36.72
885.968	35.34
886.134	36.1
886.3	33.96
886.465	35.21
886.631	32.66
886.797	36.52
886.962	36.2
887.128	34.95
887.293	30.73
887.459	24.35
887.625	16.8
887.79	16.13
887.956	9.22
888.121	9.13
888.287	-0.92
888.452	0.94
888.618	-27.71
888.783	-57.28
