Data from CB_111_Reflection_2.txt Node
Date: Sat Nov 14 18:15:35 EST 2015
User: robert
Spectrometer: USB4E03001
Autoset integration time: false
Trigger mode: 4
Integration Time (sec): 1.000000E-1
Scans to average: 15
Electric dark correction enabled: true
Nonlinearity correction enabled: false
Boxcar width: 5
Stray light correction enabled: false
XAxis mode: Wavelengths
Stop averaging: false
Number of Pixels in Spectrum: 3648
>>>>>Begin Spectral Data<<<<<
177.566	262.59
177.785	-1377.34
178.005	491.92
178.225	534.81
178.445	-1115.79
178.665	253.11
178.885	129.9
179.105	171.01
179.324	321.53
179.544	111.89
179.764	121.03
179.984	116.67
180.204	83.14
180.423	101.67
180.643	131.56
180.863	157.36
181.083	110.03
181.302	108.74
181.522	114.91
181.742	82.37
181.961	131.69
182.181	193.16
182.401	483.36
182.621	374.32
182.84	452.02
183.06	247.05
183.279	175.88
183.499	351.75
183.719	247.29
183.938	121.38
184.158	151.72
184.377	133.02
184.597	132.67
184.816	109
185.036	123.49
185.256	134.37
185.475	125.6
185.695	118.89
185.914	98.16
186.134	110.94
186.353	125.19
186.572	118.53
186.792	118.27
187.011	112.84
187.231	118.79
187.45	110.03
187.67	93.17
187.889	91.39
188.108	93.57
188.328	113.82
188.547	117.81
188.766	125.13
188.986	118.65
189.205	114.4
189.424	104.6
189.644	110.46
189.863	122.63
190.082	149.7
190.302	147.09
190.521	123.31
190.74	128.4
190.959	157.61
191.178	151.41
191.398	189.49
191.617	200.26
191.836	227.61
192.055	162.08
192.274	155.19
192.494	164.32
192.713	286.76
192.932	301.83
193.151	382.74
193.37	247.45
193.589	197.14
193.808	378.93
194.027	704.47
194.246	-1945.36
194.465	3599.67
194.685	279.21
194.904	256.92
195.123	176.03
195.342	247.53
195.561	171.01
195.78	181.5
195.999	208.47
196.218	146.91
196.436	141.66
196.655	135.58
196.874	132.56
197.093	140.89
197.312	130.74
197.531	128.44
197.75	129.72
197.969	126.35
198.188	127.92
198.407	98.46
198.625	120.99
198.844	123.2
199.063	114.46
199.282	124
199.501	141.15
199.719	143.34
199.938	124.96
200.157	107.61
200.376	112.69
200.594	110.75
200.813	137.98
201.032	117.09
201.251	103.92
201.469	105.95
201.688	105.23
201.907	103.87
202.125	126.26
202.344	195.22
202.563	183.13
202.781	186.71
203	250.92
203.218	274.19
203.437	216.33
203.656	218.1
203.874	186.21
204.093	241.31
204.311	225.65
204.53	221.12
204.748	143.34
204.967	172.12
205.185	207.53
205.404	174.03
205.622	140.66
205.841	144.16
206.059	142.67
206.278	131.04
206.496	110.73
206.715	126.64
206.933	111.96
207.151	125.44
207.37	134.7
207.588	111.73
207.806	104.1
208.025	107.4
208.243	116.09
208.461	150.44
208.68	157.57
208.898	155.33
209.116	133.13
209.335	142.89
209.553	171.21
209.771	162.9
209.989	143.89
210.208	135.9
210.426	128.05
210.644	120.54
210.862	97.63
211.081	102.99
211.299	104.76
211.517	112.83
211.735	97.72
211.953	85.8
212.171	73.35
212.39	89.41
212.608	93.53
212.826	99.91
213.044	110.41
213.262	105.47
213.48	107.48
213.698	110.63
213.916	112.17
214.134	108.89
214.352	115.65
214.57	132.21
214.788	134.91
215.006	141.8
215.224	139.55
215.442	156.61
215.66	153.01
215.878	144.01
216.096	172.03
216.314	162.04
216.532	176.6
216.75	179.35
216.968	187
217.185	205.93
217.403	237.55
217.621	332.74
217.839	261.26
218.057	308.9
218.275	316.35
218.492	310.55
218.71	336.46
218.928	324.79
219.146	396.97
219.363	252.82
219.581	269.93
219.799	293.03
220.017	238.79
220.234	227.82
220.452	256.59
220.67	252.8
220.887	385.7
221.105	514.27
221.323	7993.87
221.54	787.1
221.758	4853.21
221.976	1971.94
222.193	400.39
222.411	473.46
222.629	849.38
222.846	1097.42
223.064	-1064.52
223.281	1324.42
223.499	934.03
223.716	1659.7
223.934	-1276.28
224.151	-471.27
224.369	-288.83
224.586	-164.92
224.804	-143.37
225.021	-137.52
225.239	-134.03
225.456	-162.55
225.674	-135.31
225.891	-138.06
226.108	-180.18
226.326	-174.62
226.543	-110.03
226.76	-75.05
226.978	-54.17
227.195	-44.49
227.413	-51.84
227.63	-33.36
227.847	-26.29
228.064	-9.36
228.282	-5.7
228.499	0.95
228.716	-0.93
228.934	-2.98
229.151	-2.58
229.368	-0.95
229.585	-3.11
229.802	-3.04
230.02	-5.01
230.237	-3.88
230.454	-4.39
230.671	-6.6
230.888	-11.07
231.105	-16.59
231.323	-18.34
231.54	-29.75
231.757	-40.61
231.974	-46.5
232.191	-44.12
232.408	-41.35
232.625	-39.13
232.842	-46.58
233.059	-43.2
233.276	-40.58
233.493	-27.25
233.71	-21.12
233.927	-4.43
234.144	-2.47
234.361	-9
234.578	-11.87
234.795	-10.27
235.012	-21.18
235.229	-22.57
235.446	-21.29
235.663	-22.35
235.879	-29.02
236.096	-30.67
236.313	-39.55
236.53	-38.25
236.747	-32.21
236.964	-33.36
237.181	-45.19
237.397	-33.94
237.614	-41.2
237.831	-41.94
238.048	-37.61
238.264	-44.19
238.481	-44.66
238.698	-33.84
238.915	-30.11
239.131	-25.15
239.348	-26.27
239.565	-18.99
239.781	-18.55
239.998	-13.43
240.215	-15.64
240.431	-14.34
240.648	-3.18
240.865	-1.25
241.081	-2.49
241.298	0.49
241.514	1.7
241.731	4.84
241.947	4
242.164	2.92
242.38	5.33
242.597	6.21
242.814	5.51
243.03	2.96
243.246	0.99
243.463	0.77
243.679	-1.42
243.896	-2.52
244.112	-5.05
244.329	-4.66
244.545	-4.53
244.762	-5.21
244.978	-4.13
245.194	-6.56
245.411	-6.68
245.627	-3.35
245.843	-3.1
246.06	-1.41
246.276	0.53
246.492	2.95
246.709	3.31
246.925	4.9
247.141	4.56
247.357	5.53
247.574	6.71
247.79	7.18
248.006	7.35
248.222	7.14
248.439	6.66
248.655	5.71
248.871	5.13
249.087	5.4
249.303	5.31
249.519	4.76
249.736	2.42
249.952	2.06
250.168	2.54
250.384	0.53
250.6	1.34
250.816	0.09
251.032	1.5
251.248	0.21
251.464	-2.31
251.68	-4.9
251.896	-5.2
252.112	-5.16
252.328	-6.31
252.544	-6.97
252.76	-5.94
252.976	-7.89
253.192	-7.69
253.408	-8.75
253.624	-8.65
253.84	-7.45
254.056	-6.8
254.272	-8.2
254.487	-9.96
254.703	-7.73
254.919	-10.68
255.135	-12.23
255.351	-13.42
255.567	-10.85
255.782	-7.34
255.998	-4.65
256.214	-7.53
256.43	-4.04
256.646	-2.36
256.861	4.03
257.077	0.21
257.293	3.67
257.508	6
257.724	7.86
257.94	9.41
258.155	6.5
258.371	5.28
258.587	5.08
258.802	4.86
259.018	5.09
259.234	4.3
259.449	4.6
259.665	4.26
259.88	3.41
260.096	3.91
260.312	3.58
260.527	4.02
260.743	3.7
260.958	4.21
261.174	3.87
261.389	3.6
261.605	3.11
261.82	4.48
262.036	4.29
262.251	3.62
262.466	2.98
262.682	2.15
262.897	0.73
263.113	-0.25
263.328	-0.34
263.543	-2.49
263.759	-5.64
263.974	-8.41
264.189	-12.3
264.405	-15.23
264.62	-12.82
264.835	-13.94
265.051	-12.11
265.266	-11.09
265.481	-9.18
265.696	-9.1
265.912	-6.99
266.127	-3.96
266.342	-1.06
266.557	-0.12
266.773	1.05
266.988	0.09
267.203	0.02
267.418	-0.88
267.633	0.9
267.848	0.1
268.064	0.35
268.279	0.58
268.494	0.69
268.709	0.35
268.924	1.78
269.139	0.7
269.354	1.34
269.569	3.2
269.784	2.68
269.999	0.12
270.214	1.6
270.429	1.57
270.644	1.37
270.859	1.51
271.074	2.01
271.289	0.55
271.504	2.37
271.719	3.5
271.934	1.36
272.149	2.78
272.363	3.98
272.578	4.95
272.793	4.5
273.008	3.89
273.223	4.58
273.438	3.42
273.653	4.04
273.867	2.6
274.082	0.57
274.297	1.12
274.512	-0.91
274.726	-2.01
274.941	-3.93
275.156	-3.46
275.371	-2.82
275.585	-4.53
275.8	-4.37
276.015	-4.46
276.229	-3.44
276.444	-2.81
276.659	-1.78
276.873	0.3
277.088	1.79
277.302	1.21
277.517	1.65
277.732	1
277.946	1.03
278.161	0.06
278.375	0.14
278.59	1.7
278.804	0.63
279.019	-1.04
279.233	-2.03
279.448	-3.19
279.662	-3.66
279.877	-2.64
280.091	-1.96
280.306	-0.58
280.52	0.73
280.735	1.08
280.949	0.57
281.163	1.53
281.378	1.43
281.592	2.74
281.806	3.87
282.021	5.27
282.235	4.25
282.449	3.56
282.664	3.31
282.878	3.83
283.092	3.12
283.307	2.41
283.521	2.66
283.735	4.56
283.949	4.11
284.164	4.79
284.378	4.8
284.592	5.35
284.806	5.7
285.02	5.72
285.234	5.83
285.449	6.37
285.663	7.41
285.877	7.11
286.091	5.72
286.305	4.42
286.519	3.39
286.733	2.97
286.947	2.85
287.161	3.87
287.375	3.31
287.589	2.84
287.803	2.18
288.017	1.99
288.231	1.93
288.445	2.77
288.659	3.11
288.873	2.04
289.087	2.06
289.301	1.1
289.515	-0.67
289.729	-0.89
289.943	-1.73
290.157	-2.22
290.371	-1.92
290.584	-1.17
290.798	-1.87
291.012	-1.21
291.226	-0.26
291.44	-0.51
291.654	-0.56
291.867	0.51
292.081	2.03
292.295	2.94
292.509	3.55
292.722	3.05
292.936	2.3
293.15	3.77
293.364	4.84
293.577	5.14
293.791	5.77
294.005	6.19
294.218	5.9
294.432	3.97
294.645	3.62
294.859	4.85
295.073	4.94
295.286	5.06
295.5	5.45
295.713	5.65
295.927	5.86
296.14	6.17
296.354	5.9
296.568	6.16
296.781	7.47
296.994	8.4
297.208	7.96
297.421	8.67
297.635	8.34
297.848	8.13
298.062	8.25
298.275	8.46
298.489	8.34
298.702	8.56
298.915	8.63
299.129	8.47
299.342	8.38
299.555	7.1
299.769	5.98
299.982	6.56
300.195	5.24
300.409	3.53
300.622	3.04
300.835	2.64
301.048	2.5
301.262	2.92
301.475	2.55
301.688	1.83
301.901	3.57
302.115	3.35
302.328	4.08
302.541	4.93
302.754	5.57
302.967	5.57
303.18	5.7
303.393	6.51
303.607	6.2
303.82	6.26
304.033	8.06
304.246	8.52
304.459	8.73
304.672	8.59
304.885	8.6
305.098	8.9
305.311	8.67
305.524	9.04
305.737	8.8
305.95	8.69
306.163	9.32
306.376	8.49
306.589	8.92
306.802	8.22
307.015	8
307.228	8.55
307.44	8.04
307.653	9.39
307.866	9.22
308.079	8.78
308.292	9.43
308.505	9.32
308.718	8.64
308.93	8.1
309.143	9.11
309.356	8.79
309.569	9.51
309.781	10.18
309.994	10.15
310.207	10.78
310.42	10.9
310.632	10.75
310.845	10.26
311.058	10.66
311.27	11.43
311.483	11.1
311.696	12.07
311.908	12.18
312.121	11.75
312.333	10.44
312.546	10.42
312.759	11.05
312.971	11.42
313.184	11.35
313.396	10.87
313.609	9.25
313.821	9.17
314.034	6.26
314.246	5.94
314.459	6.58
314.671	8.21
314.884	8.6
315.096	7.71
315.309	6.16
315.521	6.55
315.733	6.2
315.946	6.05
316.158	6.57
316.371	9.18
316.583	8.56
316.795	9.61
317.008	9.78
317.22	8.8
317.432	9.16
317.644	8.7
317.857	9.24
318.069	9.9
318.281	9.56
318.494	9.42
318.706	8.87
318.918	8.28
319.13	6.64
319.342	5.85
319.555	6.75
319.767	7.67
319.979	8.89
320.191	10.16
320.403	9.85
320.615	11.74
320.827	11.07
321.039	10.36
321.252	11.64
321.464	12.15
321.676	12.38
321.888	11.6
322.1	10.38
322.312	10.57
322.524	9.13
322.736	9.74
322.948	9.22
323.16	10.52
323.372	12.23
323.584	11.91
323.796	11.29
324.007	10.89
324.219	11.84
324.431	11.88
324.643	11.69
324.855	12.13
325.067	12.45
325.279	12.75
325.491	13.41
325.702	13.07
325.914	12.12
326.126	13.14
326.338	14.09
326.55	14.98
326.761	16.12
326.973	17.14
327.185	17.23
327.396	16.9
327.608	17.23
327.82	16.59
328.032	17.14
328.243	19.41
328.455	20.38
328.666	20.18
328.878	20.02
329.09	20.28
329.301	21.01
329.513	21.4
329.725	21.68
329.936	21.84
330.148	21.65
330.359	20.83
330.571	19.25
330.782	19.13
330.994	19.79
331.205	19.3
331.417	19.23
331.628	17.91
331.84	17.27
332.051	18.02
332.262	18.6
332.474	18.65
332.685	19.89
332.897	21.03
333.108	20.59
333.319	20.56
333.531	20.44
333.742	20.97
333.953	21.66
334.165	21.91
334.376	21.19
334.587	21.24
334.799	22.86
335.01	22.46
335.221	22.68
335.432	23.37
335.644	23.54
335.855	24.29
336.066	24.69
336.277	24.06
336.488	24.5
336.7	24.53
336.911	24.45
337.122	23.66
337.333	24.65
337.544	24.51
337.755	23.87
337.966	24.37
338.177	23.78
338.388	23.37
338.599	24.07
338.811	24.45
339.022	25.81
339.233	24.69
339.444	24.33
339.655	24
339.866	23.78
340.076	23.95
340.287	22.84
340.498	23.11
340.709	23.06
340.92	23.51
341.131	22.45
341.342	21.86
341.553	22.1
341.764	22.98
341.975	23.21
342.185	23.2
342.396	23.48
342.607	23.69
342.818	23.84
343.029	23.54
343.239	23.4
343.45	24.17
343.661	23.94
343.872	25.02
344.082	24.74
344.293	24.44
344.504	24.28
344.714	24.39
344.925	24.6
345.136	24.73
345.346	23.83
345.557	23.19
345.768	23.89
345.978	23.69
346.189	23.29
346.399	23.33
346.61	23.27
346.821	23.4
347.031	22.83
347.242	22.4
347.452	22.09
347.663	22.49
347.873	22.62
348.084	22.03
348.294	22.55
348.504	22.02
348.715	21.13
348.925	20.46
349.136	20.28
349.346	20.14
349.557	20.49
349.767	20.3
349.977	21.66
350.188	20.71
350.398	20.88
350.608	20.77
350.819	21.08
351.029	21.43
351.239	22.1
351.449	22.06
351.66	21.65
351.87	21.84
352.08	21.41
352.29	20.55
352.501	22.39
352.711	22
352.921	21.58
353.131	21.88
353.341	21.61
353.552	21.17
353.762	21.82
353.972	22.15
354.182	21.66
354.392	21.55
354.602	21.23
354.812	21.15
355.022	20.86
355.232	21.12
355.442	20.77
355.652	20.29
355.862	20.08
356.072	19.88
356.282	19.81
356.492	19.82
356.702	20.57
356.912	20.83
357.122	20.33
357.332	20.56
357.542	20.29
357.752	20.21
357.962	20.9
358.171	21.15
358.381	20.88
358.591	21
358.801	21.42
359.011	21.36
359.221	21.76
359.43	21.53
359.64	20.91
359.85	21.55
360.06	21.51
360.269	21.62
360.479	21.63
360.689	21.27
360.899	21.27
361.108	20.91
361.318	20.72
361.528	19.95
361.737	20.14
361.947	20.39
362.156	19.98
362.366	19.98
362.576	19.58
362.785	19.54
362.995	20.15
363.204	20.07
363.414	20.09
363.623	20
363.833	20.41
364.042	20.32
364.252	20.39
364.461	20.62
364.671	20.58
364.88	20.88
365.09	20.71
365.299	20.16
365.509	20.42
365.718	20.51
365.927	20.13
366.137	19.8
366.346	19.99
366.555	20.14
366.765	19.33
366.974	19.33
367.183	18.78
367.393	18.83
367.602	18.76
367.811	18.74
368.021	18.4
368.23	18.33
368.439	18.35
368.648	17.98
368.857	17.32
369.067	17.8
369.276	17.34
369.485	17.23
369.694	17.03
369.903	16.93
370.112	16.73
370.321	17.5
370.531	17.33
370.74	17.66
370.949	17.73
371.158	18.41
371.367	18.22
371.576	18.43
371.785	18.54
371.994	18.66
372.203	18.97
372.412	18.76
372.621	18.33
372.83	18.87
373.039	18.59
373.248	18.81
373.457	18.3
373.666	18.01
373.874	17.71
374.083	17.68
374.292	17.26
374.501	17.06
374.71	16.91
374.919	16.56
375.128	16.35
375.336	16.5
375.545	16.49
375.754	16.36
375.963	17.06
376.171	17.24
376.38	17.71
376.589	17.49
376.798	16.99
377.006	16.89
377.215	16.78
377.424	16.43
377.632	16.11
377.841	15.48
378.05	15.42
378.258	15.13
378.467	15.06
378.675	14.56
378.884	14.33
379.093	14.72
379.301	14.73
379.51	15.03
379.718	15.46
379.927	15.79
380.135	16.46
380.344	16.51
380.552	15.86
380.761	15.73
380.969	16.03
381.177	16.69
381.386	16.63
381.594	17.06
381.803	17.11
382.011	16.64
382.219	16.16
382.428	15.86
382.636	15.92
382.845	16.06
383.053	16.36
383.261	16.12
383.469	15.76
383.678	15.68
383.886	15.51
384.094	15.04
384.302	14.99
384.511	15.12
384.719	15.27
384.927	14.87
385.135	14.96
385.343	14.48
385.552	14.8
385.76	14.84
385.968	14.68
386.176	14.17
386.384	14.26
386.592	14.43
386.8	13.87
387.008	13.71
387.216	14.12
387.424	14.08
387.633	14.25
387.841	13.8
388.049	13.8
388.257	13.67
388.465	13.81
388.672	13.67
388.88	13.27
389.088	13.59
389.296	12.99
389.504	12.95
389.712	13.19
389.92	13.25
390.128	13.19
390.336	13.02
390.544	13.04
390.751	12.72
390.959	12.58
391.167	12.85
391.375	12.89
391.583	12.93
391.79	12.48
391.998	12.16
392.206	11.93
392.414	11.75
392.621	11.38
392.829	11.45
393.037	11.76
393.244	11.69
393.452	11.36
393.66	11.26
393.867	11.1
394.075	11.31
394.283	11.28
394.49	11.2
394.698	11.11
394.905	11.44
395.113	11.37
395.32	11.14
395.528	11.1
395.735	11.41
395.943	11.53
396.15	11.52
396.358	11.44
396.565	11.58
396.773	11.63
396.98	11.77
397.188	11.76
397.395	11.75
397.602	11.83
397.81	12.09
398.017	11.81
398.225	11.72
398.432	11.75
398.639	11.72
398.847	11.65
399.054	11.74
399.261	11.76
399.468	11.74
399.676	11.63
399.883	11.36
400.09	11.16
400.297	11.09
400.505	10.84
400.712	10.92
400.919	10.84
401.126	10.6
401.333	10.55
401.54	10.7
401.748	10.68
401.955	10.75
402.162	11.12
402.369	11.25
402.576	11.28
402.783	11.28
402.99	11.21
403.197	11.17
403.404	11.03
403.611	10.83
403.818	10.76
404.025	10.58
404.232	10.32
404.439	10.17
404.646	10.12
404.853	9.89
405.06	9.78
405.267	9.86
405.474	9.78
405.681	9.96
405.887	10.05
406.094	9.72
406.301	10
406.508	10
406.715	9.91
406.922	9.8
407.128	10.27
407.335	10.5
407.542	10.63
407.749	10.71
407.955	10.7
408.162	10.95
408.369	11.09
408.575	10.98
408.782	10.9
408.989	10.87
409.195	11.15
409.402	10.83
409.609	10.53
409.815	10.31
410.022	10.4
410.228	10.08
410.435	9.61
410.642	9.74
410.848	9.41
411.055	9.55
411.261	9.51
411.468	9.19
411.674	9.41
411.881	9.55
412.087	9.5
412.294	9.49
412.5	9.88
412.706	10
412.913	9.63
413.119	10.02
413.326	10.11
413.532	10.45
413.738	10.56
413.945	10.38
414.151	10.54
414.357	10.59
414.564	10.49
414.77	9.9
414.976	10.12
415.182	10.18
415.389	9.92
415.595	9.98
415.801	9.58
416.007	9.44
416.214	9.53
416.42	9.45
416.626	9.41
416.832	9.33
417.038	9.92
417.244	9.84
417.45	10.11
417.657	10.17
417.863	10.08
418.069	10.39
418.275	10.26
418.481	10.22
418.687	10.3
418.893	10.44
419.099	10.55
419.305	10.24
419.511	10.1
419.717	9.97
419.923	9.94
420.129	9.98
420.335	9.74
420.541	9.97
420.746	9.99
420.952	9.87
421.158	9.88
421.364	9.71
421.57	9.81
421.776	9.78
421.982	9.74
422.187	9.65
422.393	9.69
422.599	9.78
422.805	9.68
423.01	9.78
423.216	9.66
423.422	9.55
423.628	9.67
423.833	9.74
424.039	9.98
424.245	10.03
424.45	10.06
424.656	10.01
424.862	9.91
425.067	9.88
425.273	9.72
425.478	9.95
425.684	10.01
425.889	9.88
426.095	9.93
426.301	9.55
426.506	9.53
426.712	9.6
426.917	9.59
427.123	9.69
427.328	9.91
427.533	10.05
427.739	10.02
427.944	9.94
428.15	10.16
428.355	9.71
428.561	9.86
428.766	10.08
428.971	9.83
429.177	9.89
429.382	10
429.587	9.67
429.793	9.49
429.998	9.44
430.203	9.35
430.408	9.34
430.614	9.54
430.819	9.65
431.024	9.36
431.229	9.47
431.434	9.32
431.64	9.18
431.845	9.16
432.05	9.07
432.255	8.8
432.46	8.9
432.665	8.78
432.87	8.76
433.076	8.63
433.281	8.63
433.486	8.69
433.691	8.6
433.896	8.59
434.101	8.63
434.306	8.56
434.511	8.71
434.716	8.64
434.921	8.67
435.126	8.62
435.331	8.75
435.535	8.93
435.74	8.95
435.945	9.12
436.15	9.02
436.355	9.02
436.56	9.22
436.765	9.05
436.97	9.03
437.174	8.89
437.379	8.93
437.584	9.02
437.789	8.91
437.993	8.82
438.198	8.81
438.403	9.18
438.608	9.09
438.812	9.21
439.017	9.43
439.222	9.59
439.426	9.7
439.631	9.83
439.836	9.67
440.04	9.68
440.245	9.65
440.45	9.59
440.654	9.42
440.859	9.57
441.063	9.47
441.268	9.35
441.472	9.26
441.677	9.35
441.881	9.29
442.086	9.44
442.29	9.33
442.495	9.51
442.699	9.45
442.904	9.5
443.108	9.34
443.312	9.12
443.517	9.19
443.721	9.05
443.925	8.79
444.13	8.78
444.334	8.76
444.538	8.77
444.743	8.64
444.947	8.77
445.151	8.72
445.356	8.96
445.56	9.15
445.764	9.3
445.968	9.39
446.173	9.57
446.377	9.53
446.581	9.35
446.785	9.25
446.989	9.26
447.193	9.27
447.398	9.34
447.602	9.37
447.806	9.31
448.01	9.17
448.214	9.23
448.418	9.05
448.622	9.01
448.826	9.01
449.03	9.18
449.234	9.33
449.438	9.28
449.642	9.01
449.846	8.64
450.05	8.62
450.254	8.65
450.458	8.53
450.662	8.64
450.866	8.6
451.069	8.75
451.273	8.72
451.477	8.72
451.681	8.68
451.885	9.07
452.089	9.18
452.292	9.2
452.496	9.24
452.7	9.27
452.904	9.24
453.107	9.23
453.311	9.18
453.515	9.1
453.719	9.12
453.922	9.03
454.126	8.78
454.33	8.8
454.533	8.67
454.737	8.6
454.94	8.64
455.144	8.57
455.348	8.68
455.551	8.44
455.755	8.43
455.958	8.33
456.162	8.34
456.365	8.36
456.569	8.3
456.772	8.42
456.976	8.37
457.179	8.19
457.383	8.27
457.586	8.44
457.79	8.79
457.993	8.85
458.196	8.84
458.4	9
458.603	8.94
458.807	9.05
459.01	9.02
459.213	9.07
459.417	9.19
459.62	9.05
459.823	8.81
460.026	8.75
460.23	8.8
460.433	8.85
460.636	8.87
460.839	8.88
461.042	8.8
461.246	8.86
461.449	8.76
461.652	8.66
461.855	8.88
462.058	8.97
462.261	8.96
462.464	9.03
462.668	8.85
462.871	8.66
463.074	8.7
463.277	8.9
463.48	8.73
463.683	8.65
463.886	8.6
464.089	8.4
464.292	8.32
464.495	8.44
464.698	8.23
464.901	8.39
465.104	8.41
465.306	8.3
465.509	8.02
465.712	8.09
465.915	8.19
466.118	8.3
466.321	8.31
466.524	8.51
466.726	8.39
466.929	8.41
467.132	8.35
467.335	8.31
467.538	8.48
467.74	8.37
467.943	8.29
468.146	8.36
468.348	8.38
468.551	8.45
468.754	8.46
468.956	8.55
469.159	8.47
469.362	8.57
469.564	8.62
469.767	8.31
469.969	8.63
470.172	8.91
470.375	8.83
470.577	8.85
470.78	8.7
470.982	8.85
471.185	8.88
471.387	8.97
471.59	8.85
471.792	8.8
471.995	9.06
472.197	9.03
472.399	8.71
472.602	8.79
472.804	8.57
473.007	8.71
473.209	8.59
473.411	8.41
473.614	8.42
473.816	8.43
474.018	8.41
474.22	8.46
474.423	8.44
474.625	8.54
474.827	8.33
475.03	8.44
475.232	8.47
475.434	8.76
475.636	9.01
475.838	9.12
476.04	9.16
476.243	9.15
476.445	9.1
476.647	8.93
476.849	9.07
477.051	9.2
477.253	9.3
477.455	8.98
477.657	8.58
477.859	8.36
478.061	8.25
478.263	8.37
478.465	8.45
478.667	8.37
478.869	8.41
479.071	8.26
479.273	8.23
479.475	8.24
479.677	8.53
479.879	8.55
480.081	8.66
480.283	8.67
480.485	8.46
480.686	8.61
480.888	8.73
481.09	8.78
481.292	8.8
481.494	8.85
481.695	8.84
481.897	8.98
482.099	9.04
482.301	9.07
482.502	9.16
482.704	9.29
482.906	9.27
483.107	9.31
483.309	9.38
483.511	9.37
483.712	9.38
483.914	9.36
484.115	9.32
484.317	9.38
484.519	9.34
484.72	9.3
484.922	9.24
485.123	9.2
485.325	9.11
485.526	9.06
485.728	9.08
485.929	9.03
486.131	9.04
486.332	9.05
486.534	8.95
486.735	8.97
486.936	8.98
487.138	9.03
487.339	9.04
487.541	9.16
487.742	9.13
487.943	9.14
488.144	9.23
488.346	9.25
488.547	9.23
488.748	9.27
488.95	9.35
489.151	9.37
489.352	9.31
489.553	9.31
489.755	9.18
489.956	9.19
490.157	9.16
490.358	9.11
490.559	9.09
490.76	9.06
490.961	9.07
491.163	9.05
491.364	8.98
491.565	8.97
491.766	8.97
491.967	8.94
492.168	9.01
492.369	9
492.57	8.99
492.771	8.92
492.972	8.88
493.173	8.88
493.374	8.8
493.575	8.87
493.776	8.92
493.976	8.91
494.177	8.92
494.378	8.78
494.579	8.84
494.78	8.81
494.981	8.89
495.182	8.98
495.382	8.87
495.583	8.86
495.784	8.7
495.985	8.66
496.185	8.62
496.386	8.71
496.587	8.69
496.788	8.75
496.988	8.7
497.189	8.79
497.39	8.88
497.59	8.92
497.791	8.89
497.992	9.1
498.192	9.12
498.393	9.2
498.593	9.24
498.794	9.15
498.994	9.13
499.195	9.16
499.395	9.06
499.596	9.09
499.796	9.09
499.997	9.16
500.197	9.08
500.398	9.01
500.598	8.99
500.799	9.01
500.999	9.13
501.199	8.87
501.4	8.89
501.6	8.91
501.801	8.64
502.001	8.72
502.201	8.69
502.402	8.67
502.602	8.6
502.802	8.67
503.002	8.66
503.203	8.71
503.403	8.74
503.603	8.81
503.803	8.83
504.003	8.8
504.204	8.66
504.404	8.8
504.604	8.83
504.804	8.89
505.004	8.85
505.204	8.78
505.404	8.85
505.604	9.02
505.804	9.05
506.005	9.03
506.205	9.32
506.405	9.24
506.605	9.12
506.805	9
507.005	9.05
507.204	9.3
507.404	9.27
507.604	9.36
507.804	9.32
508.004	9.23
508.204	9.28
508.404	9.27
508.604	9.53
508.804	9.57
509.003	9.83
509.203	9.96
509.403	9.93
509.603	9.89
509.803	9.9
510.002	9.9
510.202	10.04
510.402	10.08
510.602	9.93
510.801	10
511.001	10.05
511.201	9.99
511.4	9.98
511.6	9.84
511.8	10.06
511.999	9.93
512.199	10.06
512.398	10.08
512.598	10.09
512.797	10.27
512.997	10.08
513.197	10.1
513.396	10.04
513.596	10.01
513.795	10.22
513.994	10.03
514.194	10.32
514.393	10.37
514.593	10.46
514.792	10.42
514.992	10.47
515.191	10.62
515.39	10.66
515.59	10.82
515.789	10.98
515.988	10.95
516.188	11.21
516.387	11.29
516.586	11.29
516.786	11.26
516.985	11.28
517.184	11.31
517.383	11.34
517.582	11.32
517.782	11.33
517.981	11.41
518.18	11.6
518.379	11.64
518.578	11.61
518.777	11.59
518.976	11.65
519.176	11.74
519.375	11.77
519.574	11.83
519.773	11.96
519.972	12.03
520.171	11.97
520.37	11.83
520.569	11.84
520.768	11.89
520.967	12.04
521.166	12.14
521.365	12.16
521.564	12.22
521.762	12.3
521.961	12.41
522.16	12.59
522.359	12.78
522.558	12.93
522.757	13.04
522.956	13.22
523.154	13.4
523.353	13.5
523.552	13.78
523.751	13.95
523.949	14.17
524.148	14.2
524.347	14.14
524.546	14.26
524.744	14.38
524.943	14.39
525.142	14.26
525.34	14.27
525.539	14.38
525.737	14.4
525.936	14.39
526.135	14.4
526.333	14.53
526.532	14.71
526.73	14.81
526.929	14.84
527.127	15.03
527.326	15.18
527.524	15.33
527.723	15.41
527.921	15.47
528.12	15.72
528.318	15.85
528.516	15.96
528.715	16.05
528.913	16.06
529.112	16.13
529.31	16.15
529.508	16.24
529.707	16.32
529.905	16.37
530.103	16.42
530.301	16.36
530.5	16.38
530.698	16.4
530.896	16.38
531.094	16.53
531.293	16.64
531.491	16.77
531.689	16.83
531.887	16.85
532.085	17.02
532.283	17.22
532.481	17.38
532.68	17.5
532.878	17.69
533.076	17.83
533.274	17.87
533.472	17.95
533.67	18.13
533.868	18.21
534.066	18.27
534.264	18.29
534.462	18.28
534.66	18.24
534.858	18.31
535.056	18.31
535.253	18.33
535.451	18.41
535.649	18.66
535.847	18.55
536.045	18.67
536.243	18.72
536.441	18.94
536.638	19.09
536.836	19.2
537.034	19.25
537.232	19.25
537.43	19.41
537.627	19.5
537.825	19.46
538.023	19.49
538.22	19.57
538.418	19.63
538.616	19.52
538.813	19.6
539.011	19.84
539.209	19.95
539.406	20.07
539.604	20.24
539.801	20.45
539.999	20.56
540.196	20.82
540.394	21.04
540.591	21.21
540.789	21.38
540.986	21.45
541.184	21.53
541.381	21.6
541.579	21.6
541.776	21.57
541.974	21.49
542.171	21.49
542.368	21.57
542.566	21.59
542.763	21.7
542.96	21.71
543.158	21.84
543.355	21.92
543.552	21.95
543.75	21.99
543.947	22.09
544.144	22.26
544.341	22.36
544.539	22.3
544.736	22.35
544.933	22.27
545.13	22.19
545.327	22.17
545.524	22.22
545.722	22.26
545.919	22.53
546.116	22.59
546.313	22.61
546.51	22.59
546.707	22.69
546.904	22.62
547.101	22.73
547.298	22.87
547.495	22.94
547.692	23.03
547.889	23.31
548.086	23.26
548.283	23.13
548.48	23.23
548.677	23.35
548.874	23.29
549.07	23.4
549.267	23.45
549.464	23.64
549.661	23.51
549.858	23.38
550.055	23.23
550.251	23.35
550.448	23.53
550.645	23.6
550.842	23.66
551.038	23.91
551.235	24.2
551.432	24.25
551.628	24.33
551.825	24.59
552.022	24.68
552.218	24.69
552.415	24.55
552.612	24.61
552.808	24.76
553.005	24.84
553.201	24.9
553.398	24.79
553.594	24.84
553.791	25.02
553.987	25.05
554.184	25.13
554.38	25.47
554.577	25.7
554.773	25.99
554.97	26.02
555.166	25.97
555.362	26.23
555.559	26.23
555.755	26.39
555.952	26.18
556.148	26.14
556.344	25.97
556.541	25.83
556.737	25.8
556.933	25.69
557.129	25.52
557.326	25.72
557.522	25.73
557.718	25.99
557.914	26.09
558.11	26.29
558.307	26.39
558.503	26.43
558.699	26.43
558.895	26.57
559.091	26.63
559.287	26.97
559.483	27.11
559.679	27.02
559.876	26.91
560.072	26.8
560.268	26.6
560.464	26.87
560.66	27.32
560.856	27.34
561.052	27.52
561.247	27.67
561.443	27.53
561.639	27.55
561.835	27.53
562.031	27.8
562.227	27.97
562.423	28.25
562.619	28.15
562.815	28.04
563.01	28.1
563.206	28.07
563.402	27.94
563.598	28.15
563.793	28.07
563.989	28.23
564.185	28.18
564.381	27.95
564.576	27.99
564.772	27.97
564.968	28
565.163	28.18
565.359	28.37
565.555	28.53
565.75	28.51
565.946	28.54
566.141	28.58
566.337	28.66
566.532	28.78
566.728	28.77
566.923	28.9
567.119	28.89
567.314	28.86
567.51	28.73
567.705	28.54
567.901	28.4
568.096	28.6
568.292	28.5
568.487	28.51
568.682	28.54
568.878	28.72
569.073	28.8
569.268	28.89
569.464	28.69
569.659	28.68
569.854	29
570.05	29.4
570.245	29.35
570.44	29.39
570.635	29.32
570.831	29.42
571.026	29.17
571.221	29.12
571.416	29.21
571.611	29.48
571.806	29.59
572.002	29.72
572.197	29.69
572.392	29.76
572.587	29.74
572.782	29.83
572.977	29.84
573.172	30.09
573.367	30.16
573.562	30.31
573.757	30.24
573.952	30.11
574.147	30
574.342	30
574.537	30.08
574.732	30.33
574.927	30.39
575.121	30.34
575.316	30.29
575.511	30.32
575.706	30.34
575.901	30.28
576.096	30.52
576.29	30.52
576.485	30.53
576.68	30.44
576.875	30.59
577.069	30.37
577.264	30.68
577.459	30.61
577.654	30.72
577.848	30.52
578.043	30.81
578.238	30.81
578.432	30.82
578.627	30.81
578.821	30.9
579.016	30.64
579.21	30.99
579.405	30.88
579.6	31.04
579.794	30.91
579.989	31.05
580.183	30.48
580.378	30.32
580.572	30.42
580.766	30.55
580.961	30.45
581.155	30.44
581.35	30.49
581.544	30.84
581.738	30.9
581.933	30.96
582.127	31.07
582.321	31.55
582.516	31.5
582.71	31.06
582.904	30.75
583.099	30.85
583.293	31.1
583.487	30.94
583.681	30.5
583.875	30.37
584.07	30.39
584.264	30.38
584.458	30.58
584.652	30.87
584.846	31.41
585.04	31.56
585.234	31.52
585.428	31.4
585.623	31.75
585.817	31.89
586.011	32
586.205	32.07
586.399	32.16
586.593	31.96
586.787	31.97
586.981	31.94
587.174	31.99
587.368	31.7
587.562	31.6
587.756	31.36
587.95	31.6
588.144	31.99
588.338	32
588.532	31.9
588.725	32.07
588.919	32.37
589.113	32.47
589.307	32.49
589.501	32.88
589.694	33.08
589.888	33.26
590.082	33.07
590.275	32.89
590.469	32.76
590.663	32.65
590.856	32.68
591.05	32.46
591.244	32.38
591.437	32.53
591.631	32.57
591.824	32.63
592.018	32.25
592.212	32.17
592.405	32.3
592.599	32.45
592.792	32.36
592.986	32.31
593.179	32.39
593.372	32.43
593.566	32.64
593.759	32.61
593.953	32.63
594.146	32.88
594.339	33.11
594.533	33.17
594.726	33.3
594.92	33.49
595.113	33.39
595.306	33.3
595.499	33.41
595.693	33.34
595.886	33.52
596.079	33.48
596.272	33.6
596.466	33.48
596.659	33.41
596.852	33.38
597.045	33.62
597.238	33.81
597.431	34.02
597.624	33.92
597.818	33.88
598.011	33.86
598.204	33.85
598.397	33.96
598.59	34.11
598.783	34.18
598.976	34.46
599.169	34.48
599.362	34.51
599.555	34.36
599.748	34.59
599.941	34.55
600.134	34.49
600.326	34.89
600.519	34.61
600.712	34.52
600.905	34.31
601.098	33.76
601.291	33.32
601.483	33.45
601.676	33.55
601.869	33.6
602.062	33.6
602.255	33.53
602.447	33.4
602.64	33.46
602.833	33.61
603.025	33.67
603.218	33.87
603.411	34.17
603.603	34.14
603.796	34.18
603.989	34.19
604.181	34.36
604.374	34.56
604.566	34.58
604.759	34.57
604.951	34.67
605.144	34.71
605.336	34.9
605.529	34.9
605.721	35.04
605.914	35
606.106	35.01
606.299	34.83
606.491	34.81
606.683	34.75
606.876	34.77
607.068	34.66
607.26	34.69
607.453	34.64
607.645	34.7
607.837	34.29
608.03	34.55
608.222	34.42
608.414	34.76
608.606	34.81
608.799	34.64
608.991	35
609.183	35.12
609.375	35.23
609.567	35.3
609.759	35.31
609.952	35.63
610.144	35.41
610.336	35.73
610.528	35.59
610.72	35.5
610.912	35.76
611.104	35.69
611.296	35.55
611.488	35.6
611.68	35.37
611.872	35.23
612.064	34.88
612.256	34.85
612.448	34.45
612.64	34.32
612.832	34.19
613.023	34.2
613.215	33.97
613.407	33.95
613.599	33.68
613.791	33.72
613.983	33.64
614.174	34.06
614.366	34.34
614.558	34.45
614.75	34.4
614.941	34.54
615.133	34.3
615.325	34.54
615.516	34.75
615.708	34.98
615.9	35.28
616.091	35.64
616.283	35.49
616.475	35.31
616.666	35.36
616.858	35.53
617.049	35.57
617.241	35.7
617.432	35.61
617.624	35.37
617.815	35.19
618.007	34.68
618.198	34.55
618.39	34.57
618.581	34.62
618.773	34.62
618.964	34.5
619.155	34.85
619.347	34.7
619.538	34.6
619.729	34.93
619.921	35.33
620.112	35.53
620.303	35.35
620.494	35.38
620.686	35.48
620.877	35.64
621.068	35.77
621.259	35.58
621.451	35.68
621.642	35.67
621.833	35.4
622.024	35.07
622.215	35.55
622.406	35.83
622.597	35.74
622.788	35.62
622.98	35.29
623.171	35.45
623.362	35.21
623.553	35.25
623.744	35.52
623.935	35.62
624.126	35.79
624.317	35.18
624.508	34.96
624.698	35.17
624.889	35.22
625.08	35.24
625.271	35.12
625.462	35.23
625.653	35.42
625.844	35.33
626.034	35.37
626.225	35.37
626.416	35.52
626.607	35.86
626.798	35.7
626.988	35.9
627.179	36.11
627.37	36.62
627.56	36.68
627.751	36.62
627.942	36.39
628.132	36.44
628.323	36.38
628.514	36.4
628.704	36.12
628.895	36.06
629.085	35.81
629.276	35.78
629.466	35.56
629.657	35.63
629.847	35.43
630.038	35.38
630.228	35.11
630.419	35.28
630.609	35.43
630.8	35.68
630.99	35.84
631.181	35.66
631.371	35.76
631.561	35.71
631.752	35.71
631.942	35.9
632.132	36.21
632.323	36.57
632.513	36.81
632.703	36.96
632.893	36.76
633.084	36.81
633.274	37
633.464	37.01
633.654	36.83
633.844	36.89
634.034	37.01
634.225	36.96
634.415	36.83
634.605	36.65
634.795	36.41
634.985	36.65
635.175	36.83
635.365	36.73
635.555	36.94
635.745	36.84
635.935	36.43
636.125	36.56
636.315	36.44
636.505	36.47
636.695	36.18
636.885	36.37
637.075	36.33
637.265	36.76
637.455	37.1
637.644	36.77
637.834	36.69
638.024	37.09
638.214	36.83
638.404	36.73
638.593	36.81
638.783	36.88
638.973	36.86
639.163	36.89
639.352	36.12
639.542	35.74
639.732	35.57
639.921	35.48
640.111	35.42
640.301	35.31
640.49	35.6
640.68	35.46
640.87	35.83
641.059	35.75
641.249	35.94
641.438	35.99
641.628	35.96
641.817	36.27
642.007	36.63
642.196	36.64
642.386	36.76
642.575	36.33
642.764	36.47
642.954	36.5
643.143	36.3
643.333	36.22
643.522	36.09
643.711	36.62
643.901	36.75
644.09	36.7
644.279	36.83
644.469	36.82
644.658	37.22
644.847	37.19
645.036	36.99
645.226	36.83
645.415	36.58
645.604	36.63
645.793	36.46
645.982	36.32
646.171	35.99
646.361	35.67
646.55	36.04
646.739	35.82
646.928	35.57
647.117	35.88
647.306	35.95
647.495	36.01
647.684	36.19
647.873	35.97
648.062	35.96
648.251	36.09
648.44	35.93
648.629	35.43
648.818	36.03
649.007	36.46
649.196	35.82
649.384	35.87
649.573	36.59
649.762	36.51
649.951	36.71
650.14	36.55
650.328	36.63
650.517	36.99
650.706	36.78
650.895	36.32
651.083	36.08
651.272	36.49
651.461	36.98
651.65	36.14
651.838	35.98
652.027	35.77
652.216	35.97
652.404	35.95
652.593	36.11
652.781	36.4
652.97	36.58
653.158	36.43
653.347	36.31
653.535	36.23
653.724	36.51
653.912	36.68
654.101	36.91
654.289	36.68
654.478	36.74
654.666	36.57
654.855	36.83
655.043	36.7
655.231	36.86
655.42	36.51
655.608	36.14
655.796	36.28
655.985	36.79
656.173	36.77
656.361	36.75
656.55	36.87
656.738	37.06
656.926	36.85
657.114	36.71
657.302	36.72
657.491	37.08
657.679	37.36
657.867	37.11
658.055	36.85
658.243	36.77
658.431	36.91
658.619	37.04
658.807	36.94
658.996	37.04
659.184	37.38
659.372	37.46
659.56	37.15
659.748	37.28
659.936	37.64
660.124	37.46
660.311	37.57
660.499	37.69
660.687	37.66
660.875	37.51
661.063	37.48
661.251	37.56
661.439	37.3
661.627	37.49
661.814	37.4
662.002	37.18
662.19	37.48
662.378	37.49
662.565	37.33
662.753	37.45
662.941	37.72
663.129	37.94
663.316	37.85
663.504	37.96
663.692	38.25
663.879	38.07
664.067	37.86
664.254	37.82
664.442	37.83
664.63	38.02
664.817	37.57
665.005	37.38
665.192	36.99
665.38	36.84
665.567	37.08
665.755	37.3
665.942	37.08
666.13	37.02
666.317	36.67
666.504	36.48
666.692	36.01
666.879	36.94
667.067	37.26
667.254	37.81
667.441	38.03
667.629	38.13
667.816	38.09
668.003	38.05
668.19	38.1
668.378	38.5
668.565	38.74
668.752	39.22
668.939	38.73
669.127	38.69
669.314	38.26
669.501	38.13
669.688	38.28
669.875	37.71
670.062	37.89
670.249	38.15
670.436	38.23
670.623	38.01
670.81	38.18
670.997	37.82
671.184	37.54
671.371	37.87
671.558	37.81
671.745	37.48
671.932	37.82
672.119	37.59
672.306	37.39
672.493	37.47
672.68	38.15
672.867	37.99
673.054	37.93
673.24	37.78
673.427	37.44
673.614	37.69
673.801	37.52
673.988	37.29
674.174	37.77
674.361	37.6
674.548	37.32
674.734	37.25
674.921	37.06
675.108	37.4
675.294	37.8
675.481	37.69
675.668	37.3
675.854	37.78
676.041	37.76
676.227	37.69
676.414	37.6
676.601	37.23
676.787	36.88
676.974	36.79
677.16	36.91
677.347	36.98
677.533	37.24
677.719	37.29
677.906	36.87
678.092	36.91
678.279	36.87
678.465	36.97
678.651	37.11
678.838	37.03
679.024	37.47
679.21	37.22
679.397	37.24
679.583	36.99
679.769	37.09
679.955	37.38
680.142	37.31
680.328	37.42
680.514	37.62
680.7	37.75
680.886	38.05
681.073	37.9
681.259	37.63
681.445	37.1
681.631	37.16
681.817	37.4
682.003	36.74
682.189	36.71
682.375	36.75
682.561	37
682.747	36.97
682.933	36.32
683.119	36.32
683.305	36.39
683.491	36.84
683.677	37.18
683.863	37.36
684.049	37.67
684.235	38.36
684.42	38.28
684.606	37.88
684.792	37.76
684.978	38.13
685.164	37.95
685.349	38.31
685.535	37.96
685.721	38.14
685.907	37.6
686.092	38.58
686.278	38.04
686.464	38.02
686.649	37.47
686.835	38.06
687.021	38.04
687.206	38.11
687.392	37.78
687.577	38.51
687.763	38.2
687.948	38.38
688.134	38.11
688.319	38.09
688.505	37.86
688.69	37.78
688.876	37.28
689.061	37.71
689.247	37.73
689.432	37.37
689.618	37
689.803	37.31
689.988	37.13
690.174	36.98
690.359	36.46
690.544	36.53
690.73	37.16
690.915	37.27
691.1	36.85
691.285	36.91
691.471	37.6
691.656	37.91
691.841	37.5
692.026	37.29
692.211	36.83
692.396	37.08
692.582	37.03
692.767	36.57
692.952	35.85
693.137	35.9
693.322	35.39
693.507	35.11
693.692	34.45
693.877	34.52
694.062	34.86
694.247	35.16
694.432	35.61
694.617	35.36
694.802	35.7
694.987	36.25
695.172	36.75
695.357	37.56
695.541	37.67
695.726	37.61
695.911	37.75
696.096	37.81
696.281	37.5
696.466	37.81
696.65	38.56
696.835	39.25
697.02	39.6
697.204	38.97
697.389	38.85
697.574	38.74
697.759	39.5
697.943	39.55
698.128	39.9
698.312	40.13
698.497	39.8
698.682	39.54
698.866	39.23
699.051	39.07
699.235	39.28
699.42	39.14
699.604	39.26
699.789	39.15
699.973	38.96
700.158	38.74
700.342	38.55
700.527	38.65
700.711	38.6
700.895	38.55
701.08	38.39
701.264	37.99
701.448	38.08
701.633	37.92
701.817	37.13
702.001	36.99
702.186	36.62
702.37	36.99
702.554	37.3
702.738	37.63
702.923	37.73
703.107	38.15
703.291	37.93
703.475	37.44
703.659	38.08
703.843	38.8
704.027	39.65
704.212	39.54
704.396	39.04
704.58	38.2
704.764	37.81
704.948	37.1
705.132	36.61
705.316	37.7
705.5	38.32
705.684	38.36
705.868	38.37
706.052	38.1
706.235	38.34
706.419	38.25
706.603	38.5
706.787	38.5
706.971	38.84
707.155	38.91
707.339	38.75
707.522	38.63
707.706	37.87
707.89	37.22
708.074	37.1
708.257	38.01
708.441	37.87
708.625	37.81
708.808	37.84
708.992	38.32
709.176	39.05
709.359	38.59
709.543	38.53
709.727	39.71
709.91	40.09
710.094	39.25
710.277	38.48
710.461	38.45
710.644	38.22
710.828	38.26
711.011	37.59
711.195	36.79
711.378	37.36
711.562	37.81
711.745	37.16
711.928	37.56
712.112	38.34
712.295	37.84
712.478	38.6
712.662	38.79
712.845	38.25
713.028	38.43
713.212	38.31
713.395	37.94
713.578	36.65
713.761	36.33
713.945	36.11
714.128	36.11
714.311	36.3
714.494	36.67
714.677	36.61
714.86	37.45
715.043	37.48
715.227	38.16
715.41	37.93
715.593	39.24
715.776	39.31
715.959	39.42
716.142	38.94
716.325	38.44
716.508	37.52
716.691	37.86
716.874	37.58
717.057	37.92
717.239	37.57
717.422	37.31
717.605	36.89
717.788	36.46
717.971	35.19
718.154	35.28
718.337	35.88
718.519	36.07
718.702	35.81
718.885	36.16
719.068	36.2
719.25	36.05
719.433	37.09
719.616	36.97
719.798	37.71
719.981	38.45
720.164	39.11
720.346	39.25
720.529	39.23
720.712	39.46
720.894	39.16
721.077	39.13
721.259	38.87
721.442	38.07
721.624	38.05
721.807	37.52
721.989	37.87
722.172	37.2
722.354	37.65
722.537	37.13
722.719	36.87
722.901	37.28
723.084	37.2
723.266	37.01
723.448	36.39
723.631	35.97
723.813	36.41
723.995	35.67
724.178	35.47
724.36	35.8
724.542	36.11
724.724	35.93
724.907	35.22
725.089	35.77
725.271	36.68
725.453	37.59
725.635	37.34
725.817	36.67
725.999	36.85
726.181	37.21
726.364	36.36
726.546	36.63
726.728	37.28
726.91	37.83
727.092	36.42
727.274	36.66
727.456	36.42
727.638	36.48
727.819	37.25
728.001	38.01
728.183	37.97
728.365	38.29
728.547	38.47
728.729	37.77
728.911	37.16
729.093	37.88
729.274	37.48
729.456	37.5
729.638	37.71
729.82	38
730.001	37.54
730.183	38.09
730.365	37.78
730.546	37.36
730.728	38.13
730.91	38.64
731.091	37.5
731.273	37.68
731.455	37.66
731.636	37.72
731.818	37.39
731.999	38.14
732.181	37.8
732.362	37.69
732.544	37.21
732.725	36.81
732.907	36.36
733.088	36.83
733.27	36.68
733.451	36.63
733.633	36.27
733.814	35.6
733.995	34.45
734.177	33.6
734.358	34.83
734.539	34.95
734.721	34.91
734.902	35.55
735.083	35.97
735.264	35.67
735.446	36.05
735.627	36.64
735.808	36.65
735.989	36.53
736.17	37.05
736.351	35.63
736.533	36.96
736.714	37.06
736.895	36.38
737.076	36.4
737.257	36.62
737.438	36.27
737.619	35.8
737.8	36.24
737.981	36.88
738.162	36.85
738.343	37.58
738.524	37.16
738.705	36.94
738.886	36.49
739.067	36.79
739.247	36.64
739.428	36.2
739.609	37.1
739.79	37.66
739.971	38.01
740.151	37.28
740.332	36.68
740.513	37.2
740.694	37.47
740.874	38.26
741.055	37.9
741.236	37.6
741.417	38.04
741.597	37.36
741.778	35.94
741.958	35.4
742.139	35.89
742.32	36.41
742.5	35.29
742.681	34.87
742.861	34.61
743.042	34.94
743.222	36.06
743.403	35.07
743.583	35.52
743.764	35.8
743.944	34.9
744.124	35.64
744.305	34.44
744.485	34.78
744.666	35.6
744.846	34.46
745.026	34.05
745.207	34.22
745.387	35.06
745.567	33.53
745.747	33.47
745.928	35.04
746.108	34.42
746.288	36.4
746.468	36.88
746.648	36.9
746.829	37.84
747.009	37
747.189	35.59
747.369	35.17
747.549	36.18
747.729	36.66
747.909	36.02
748.089	36.68
748.269	35.08
748.449	35.46
748.629	35.31
748.809	34.31
748.989	35.63
749.169	36.42
749.349	36.52
749.529	36.96
749.709	36.46
749.889	36.22
750.068	34.68
750.248	35.41
750.428	34.62
750.608	34.32
750.788	36.06
750.967	35.31
751.147	33.65
751.327	34.27
751.507	33.49
751.686	33.83
751.866	34.5
752.046	34.81
752.225	34.46
752.405	34.04
752.585	34.99
752.764	35.47
752.944	36.56
753.123	38.25
753.303	37.31
753.482	37.19
753.662	37.29
753.841	37.01
754.021	37.63
754.2	37.76
754.38	37.9
754.559	37.39
754.739	36.89
754.918	35.64
755.097	34.87
755.277	35.37
755.456	36.3
755.635	36.33
755.815	36.25
755.994	36.22
756.173	36.1
756.352	37
756.532	36
756.711	35.46
756.89	36.12
757.069	37.37
757.248	38.02
757.427	37.37
757.607	36.52
757.786	36.86
757.965	38.21
758.144	38.39
758.323	37.08
758.502	39.32
758.681	39.8
758.86	39.42
759.039	38.78
759.218	38.38
759.397	39.22
759.576	40.21
759.755	39.13
759.934	38.21
760.113	37.46
760.291	38.55
760.47	37.41
760.649	36.91
760.828	37.21
761.007	37.44
761.186	37.63
761.364	37.36
761.543	38.03
761.722	39.02
761.901	39.18
762.079	40.05
762.258	39.37
762.437	39.47
762.615	39.23
762.794	39.03
762.972	38.85
763.151	38.77
763.33	39.04
763.508	38.65
763.687	38.93
763.865	38.25
764.044	37.34
764.222	37.31
764.401	36.9
764.579	37.5
764.758	37.78
764.936	38.04
765.114	38.84
765.293	38.51
765.471	38.68
765.65	38.16
765.828	38.64
766.006	40.15
766.184	40.33
766.363	40.34
766.541	40.83
766.719	40.35
766.898	39.78
767.076	38.87
767.254	38.85
767.432	38.87
767.61	39.42
767.788	38.68
767.967	37.79
768.145	37.56
768.323	36.47
768.501	35.86
768.679	36.41
768.857	35.57
769.035	33.7
769.213	33.71
769.391	33.12
769.569	33.29
769.747	33.32
769.925	33.75
770.103	33.14
770.281	33.27
770.459	32.83
770.636	33.08
770.814	35.21
770.992	38.55
771.17	38.25
771.348	38.37
771.525	37.93
771.703	37.34
771.881	35.87
772.059	36.17
772.236	36.11
772.414	34.92
772.592	35.08
772.769	32.05
772.947	30.13
773.125	29.04
773.302	28.09
773.48	27.91
773.657	29.42
773.835	30.86
774.013	29.06
774.19	29.47
774.368	30.34
774.545	28.5
774.723	28.32
774.9	27.95
775.077	29.23
775.255	28.57
775.432	26.18
775.61	26.88
775.787	24.95
775.964	27.28
776.142	27.6
776.319	27.93
776.496	27.35
776.674	28.78
776.851	29.71
777.028	28.19
777.205	29.9
777.382	31.18
777.56	29.36
777.737	27.75
777.914	26.77
778.091	27.01
778.268	26.09
778.445	27.79
778.622	29.75
778.8	30.12
778.977	32.12
779.154	29.05
779.331	30.4
779.508	31.76
779.685	34.22
779.862	35.3
780.038	34.47
780.215	35.13
780.392	35.43
780.569	32.73
780.746	32.79
780.923	32.18
781.1	33.25
781.277	31.95
781.453	32.9
781.63	33.34
781.807	33.04
781.984	34.81
782.16	34.57
782.337	35.24
782.514	35.5
782.691	35.62
782.867	35.17
783.044	35.97
783.221	35.74
783.397	34.04
783.574	32.48
783.75	31.31
783.927	31.31
784.103	32.26
784.28	32.17
784.456	34.41
784.633	32.09
784.809	31.77
784.986	33.9
785.162	33.51
785.339	34.56
785.515	35.37
785.692	38.72
785.868	37.72
786.044	36
786.221	35.39
786.397	31.39
786.573	33.31
786.749	33.48
786.926	32.8
787.102	32.99
787.278	32.74
787.454	33.25
787.631	29.86
787.807	30.05
787.983	29.69
788.159	29.72
788.335	29.71
788.511	28.02
788.687	27.78
788.863	28.45
789.039	29.39
789.216	28.04
789.392	28.96
789.568	29.25
789.744	27.62
789.919	26.29
790.095	26.26
790.271	28.8
790.447	28.81
790.623	34.15
790.799	32.93
790.975	31.35
791.151	33.17
791.327	36.23
791.502	37.11
791.678	39.9
791.854	41.41
792.03	38.79
792.205	39.97
792.381	42.21
792.557	38.9
792.733	39.88
792.908	39.08
793.084	39.59
793.259	33.65
793.435	34.87
793.611	34.51
793.786	34.2
793.962	35.78
794.137	32.9
794.313	30.13
794.488	29.99
794.664	33.01
794.839	33.09
795.015	31.97
795.19	32.23
795.366	29.57
795.541	27.69
795.716	28.92
795.892	28.96
796.067	29.28
796.242	32.47
796.418	31.67
796.593	27.86
796.768	29.47
796.944	31.53
797.119	33.53
797.294	34.47
797.469	37.23
797.644	37.4
797.82	35.61
797.995	36.95
798.17	34.22
798.345	33.07
798.52	35.35
798.695	36.79
798.87	35.72
799.045	34.93
799.22	34.84
799.395	35.09
799.57	35.24
799.745	37.33
799.92	36.75
800.095	36.01
800.27	36.77
800.445	34.02
800.62	31.23
800.795	28.28
800.97	27.56
801.145	29.55
801.319	28.17
801.494	28.41
801.669	26.91
801.844	25.3
802.018	28.5
802.193	29.91
802.368	30.98
802.543	31.6
802.717	34.05
802.892	36.19
803.067	33.71
803.241	34.06
803.416	34.51
803.59	35.25
803.765	37.35
803.94	33.9
804.114	30.54
804.289	29.92
804.463	31.56
804.638	30.42
804.812	28.78
804.986	31.75
805.161	32.26
805.335	29.87
805.51	31.37
805.684	28.64
805.858	29.31
806.033	27.95
806.207	25.69
806.381	25.01
806.556	24.13
806.73	25.76
806.904	25.54
807.078	22.25
807.253	24.55
807.427	24.28
807.601	26.16
807.775	25.31
807.949	28.81
808.123	32.4
808.298	34.01
808.472	35.3
808.646	32.09
808.82	33.37
808.994	32.37
809.168	29.83
809.342	30.43
809.516	29.99
809.69	28.67
809.864	27.41
810.038	27.73
810.212	23.75
810.385	24.87
810.559	28.22
810.733	21.83
810.907	22.34
811.081	21.39
811.255	17.08
811.428	16.74
811.602	21.1
811.776	24.85
811.95	25
812.123	28.81
812.297	29.5
812.471	26.51
812.644	30.37
812.818	28.74
812.992	27.17
813.165	26.53
813.339	27.08
813.512	22.39
813.686	22.47
813.86	20.86
814.033	14.56
814.207	10.56
814.38	11.49
814.554	14.88
814.727	22.08
814.9	21.77
815.074	28.94
815.247	30.37
815.421	35.42
815.594	32.05
815.767	32.39
815.941	34.02
816.114	32.62
816.287	33.01
816.46	26.61
816.634	21.58
816.807	27.7
816.98	21.49
817.153	19.43
817.327	12.85
817.5	14.47
817.673	10.05
817.846	11.44
818.019	17.78
818.192	18.05
818.365	22.89
818.538	29.07
818.711	26.85
818.884	24.5
819.057	21.17
819.23	21.36
819.403	19.04
819.576	22.28
819.749	22.94
819.922	19.74
820.095	22.23
820.268	22.83
820.441	18.66
820.614	22.38
820.786	28.72
820.959	32.93
821.132	35.05
821.305	36.99
821.477	38.41
821.65	39.18
821.823	39.88
821.996	39.75
822.168	38.98
822.341	40.08
822.514	39.29
822.686	39.19
822.859	39.68
823.031	40.08
823.204	39.87
823.376	39.74
823.549	39.75
823.722	40.06
823.894	39.77
824.067	40.82
824.239	40.01
824.411	40.94
824.584	40.58
824.756	39.48
824.929	39.46
825.101	39.77
825.273	39.64
825.446	39.6
825.618	39.83
825.79	40.54
825.963	39.11
826.135	39.16
826.307	38.58
826.479	38.19
826.652	38.22
826.824	37.21
826.996	36.77
827.168	36.32
827.34	35.53
827.512	35.56
827.684	34.36
827.856	34.84
828.029	36.31
828.201	36.01
828.373	36.39
828.545	37.05
828.717	36.55
828.889	35.8
829.061	35.85
829.232	35.95
829.404	34.36
829.576	34.78
829.748	35.35
829.92	32.69
830.092	32.32
830.264	30.98
830.436	30.51
830.607	30.85
830.779	31.26
830.951	30.71
831.123	30.12
831.294	28.51
831.466	27.56
831.638	24.14
831.809	25.76
831.981	26.41
832.153	26.73
832.324	24.48
832.496	22.02
832.667	21.41
832.839	21.31
833.011	24.5
833.182	26.37
833.354	26.48
833.525	30.63
833.697	29.89
833.868	29.77
834.039	32.18
834.211	34.96
834.382	37.47
834.554	38
834.725	39.48
834.896	37.64
835.068	37.41
835.239	36.47
835.41	34.87
835.581	36.5
835.753	35.93
835.924	34.92
836.095	34.5
836.266	35.17
836.438	35.67
836.609	32.59
836.78	34.53
836.951	34.15
837.122	35.21
837.293	36.78
837.464	36.73
837.635	35.68
837.806	32.2
837.977	30.51
838.148	29
838.319	25.38
838.49	29.5
838.661	26.11
838.832	25.23
839.003	24.79
839.174	17.43
839.345	14.16
839.516	9.89
839.687	8.52
839.857	17.13
840.028	17.99
840.199	16.07
840.37	11.79
840.54	20.65
840.711	27.39
840.882	29.3
841.053	28.92
841.223	27.29
841.394	32.55
841.564	37.98
841.735	28.19
841.906	22.16
842.076	27.53
842.247	28.21
842.417	16.73
842.588	10.27
842.758	5.11
842.929	1.48
843.099	-10.09
843.27	-20.32
843.44	-22.6
843.611	-23.29
843.781	-31.8
843.951	-26.1
844.122	-25.86
844.292	-23.85
844.462	-25.23
844.633	-19.25
844.803	-4.63
844.973	5.9
845.144	13.45
845.314	13.21
845.484	16.57
845.654	38.13
845.824	28.77
845.995	31.83
846.165	33.6
846.335	32.4
846.505	9.78
846.675	-0.66
846.845	-0.27
847.015	-12.21
847.185	-6.38
847.355	-17.06
847.525	-23.57
847.695	-25.16
847.865	-39.53
848.035	-52.3
848.205	-60.04
848.375	-31.86
848.545	-43.2
848.715	-38.82
848.884	-41.39
849.054	-70.43
849.224	-69.05
849.394	-74.57
849.564	-46.27
849.733	-38.27
849.903	-46.94
850.073	-35.81
850.243	-27.06
850.412	-8.61
850.582	-20.6
850.752	-24.78
850.921	-10.49
851.091	-7.33
851.26	1.38
851.43	-10.06
851.599	-12.92
851.769	-2.11
851.939	-1.71
852.108	-23.21
852.278	-26.77
852.447	-42.7
852.616	-8.32
852.786	-19.91
852.955	-6.19
853.125	-31.32
853.294	-29.39
853.463	-42.77
853.633	-60.47
853.802	-99.6
853.971	-79.71
854.141	-88.97
854.31	-108.98
854.479	-212.47
854.648	-220.07
854.818	-241.87
854.987	-198.44
855.156	-201.69
855.325	-146.27
855.494	-171.25
855.663	-165.91
855.832	-266.06
856.001	-243.33
856.171	-197.23
856.34	-143.87
856.509	-146.77
856.678	-158.59
856.847	-107.5
857.016	-121.57
857.185	-108.59
857.353	-47.06
857.522	-57.81
857.691	-18.23
857.86	-33.73
858.029	-24.82
858.198	-37.48
858.367	-33.63
858.535	-38.28
858.704	-59.82
858.873	-31.02
859.042	-41.97
859.21	-84.45
859.379	-71.57
859.548	-102.42
859.717	-90.33
859.885	-75.39
860.054	-67.12
860.222	-86.84
860.391	-79.42
860.56	-61
860.728	-61.73
860.897	-45.89
861.065	-30.65
861.234	-28.42
861.402	-18.48
861.571	-18.22
861.739	-27.04
861.908	-23.78
862.076	-15.98
862.244	-9.71
862.413	-17.05
862.581	-47.71
862.749	-102.7
862.918	-145.01
863.086	-119.61
863.254	-131.17
863.423	-247.72
863.591	-150.46
863.759	-264.93
863.927	-210.73
864.096	-1340.4
864.264	472.55
864.432	700.75
864.6	-1220.74
864.768	-376.28
864.936	-197.95
865.104	-100.81
865.272	-47.44
865.44	-126.48
865.608	-55.48
865.776	-122.41
865.944	-121.9
866.112	-34.64
866.28	-55.16
866.448	-69.77
866.616	-57.74
866.784	-47.86
866.952	-69.36
867.12	-87.14
867.288	-48.77
867.455	-60.99
867.623	-47.13
867.791	-27.22
867.959	-48.01
868.127	-13.51
868.294	-14.89
868.462	-42.5
868.63	-73.69
868.797	-124.86
868.965	-220.3
869.133	-198.3
869.3	-254.89
869.468	-155.27
869.636	-121.97
869.803	-180.45
869.971	-182.74
870.138	-128.66
870.306	-133.81
870.473	-133.37
870.641	-110.9
870.808	-93.52
870.975	-140.89
871.143	-101.71
871.31	-175.08
871.478	-307.66
871.645	-109.13
871.812	-131.14
871.98	-170.87
872.147	-183.95
872.314	-131.49
872.482	-154.02
872.649	-208.31
872.816	-48.41
872.983	-177.69
873.15	-47.09
873.318	-86.48
873.485	-137.18
873.652	-100.62
873.819	-45.39
873.986	-35.02
874.153	-22
874.32	-11.55
874.487	-10.9
874.654	-37.09
874.821	-26.35
874.988	-37.66
875.155	-8.05
875.322	-8.65
875.489	-21.49
875.656	-42.65
875.823	-59.32
875.99	-53.8
876.157	-35.03
876.324	-21.5
876.49	-3.25
876.657	-15.58
876.824	-5.46
876.991	-20.38
877.157	-17.17
877.324	16.66
877.491	29.65
877.658	29.58
877.824	11.84
877.991	3.33
878.157	-18.07
878.324	-39.43
878.491	-11.49
878.657	-34.44
878.824	-31.78
878.99	-23.92
879.157	-63.55
879.323	-67.61
879.49	-67.37
879.656	-54.78
879.823	-41.51
879.989	-30.37
880.156	-43.8
880.322	-61.44
880.488	-36.32
880.655	-35.79
880.821	-61.72
880.987	-37.88
881.154	-39.9
881.32	-23.05
881.486	-15.26
881.652	-6.74
881.819	-2.76
881.985	7.93
882.151	9.67
882.317	14.73
882.483	17.62
882.649	23.75
882.816	20.32
882.982	25.73
883.148	28.72
883.314	31.24
883.48	30.06
883.646	30.53
883.812	32.53
883.978	31.61
884.144	31.33
884.31	32.38
884.476	31.82
884.642	31.19
884.807	31.49
884.973	32.57
885.139	33.86
885.305	35.41
885.471	36.13
885.637	35.02
885.802	37.23
885.968	37.17
886.134	37.52
886.3	38.26
886.465	42.26
886.631	40.13
886.797	38.81
886.962	38.61
887.128	35.11
887.293	32.73
887.459	30.71
887.625	27.3
887.79	26.07
887.956	28.17
888.121	25.8
888.287	24.43
888.452	24.88
888.618	15
888.783	-10.83
