Data from CB_114_Reflection_1.txt Node
Date: Sat Nov 14 19:00:37 EST 2015
User: robert
Spectrometer: USB4E03001
Autoset integration time: false
Trigger mode: 4
Integration Time (sec): 1.000000E-1
Scans to average: 15
Electric dark correction enabled: true
Nonlinearity correction enabled: false
Boxcar width: 5
Stray light correction enabled: false
XAxis mode: Wavelengths
Stop averaging: false
Number of Pixels in Spectrum: 3648
>>>>>Begin Spectral Data<<<<<
177.566	34.32
177.785	39.66
178.005	40.11
178.225	68.71
178.445	35.2
178.665	117.89
178.885	166.67
179.105	160.86
179.324	147.63
179.544	1307.02
179.764	-22.24
179.984	-26.74
180.204	21.28
180.423	-15.11
180.643	7.14
180.863	-37.59
181.083	-33.12
181.302	-3.22
181.522	-429.17
181.742	-328.33
181.961	-60.72
182.181	-126.11
182.401	-56.54
182.621	-77.93
182.84	-106.42
183.06	-79.39
183.279	575.81
183.499	177.72
183.719	110.97
183.938	268.3
184.158	184.27
184.377	73.7
184.597	18.16
184.816	2.03
185.036	-6.63
185.256	-29.09
185.475	-5.03
185.695	6.35
185.914	-11.98
186.134	-41.32
186.353	-52.77
186.572	-43.69
186.792	13.91
187.011	27.14
187.231	7.04
187.45	31.64
187.67	176.18
187.889	220.6
188.108	154.56
188.328	181.72
188.547	97.82
188.766	176.82
188.986	-451.84
189.205	-23.47
189.424	-4.19
189.644	-29.08
189.863	-11.36
190.082	123.6
190.302	192.04
190.521	142.94
190.74	115.99
190.959	145.36
191.178	147.12
191.398	130.85
191.617	106.9
191.836	142.75
192.055	109.29
192.274	99.23
192.494	301.83
192.713	-193.51
192.932	415.31
193.151	-199.31
193.37	-62.53
193.589	-36.28
193.808	-60.99
194.027	-89.24
194.246	-12.74
194.465	10.14
194.685	21.2
194.904	78.06
195.123	70.78
195.342	102.35
195.561	139.71
195.78	98.2
195.999	85.44
196.218	248.22
196.436	166.67
196.655	73.94
196.874	188.62
197.093	134.22
197.312	1011.67
197.531	36.04
197.75	-1.35
197.969	-31.29
198.188	-127.93
198.407	-214.84
198.625	-139.03
198.844	-86.05
199.063	-104.04
199.282	-80.22
199.501	-184.74
199.719	-557.39
199.938	268.27
200.157	71.72
200.376	92
200.594	141.53
200.813	59.47
201.032	12.8
201.251	7.52
201.469	61.32
201.688	57.95
201.907	51.55
202.125	65.43
202.344	60.22
202.563	65.62
202.781	46.19
203	71.73
203.218	121.72
203.437	159.01
203.656	267.77
203.874	428.63
204.093	306.61
204.311	-80.07
204.53	-26.6
204.748	3.71
204.967	-63.13
205.185	-67.17
205.404	-55.66
205.622	10.99
205.841	-71.42
206.059	22.99
206.278	-148.33
206.496	-13.39
206.715	-4.47
206.933	-73.65
207.151	-73.02
207.37	2.12
207.588	45.74
207.806	63.47
208.025	171.18
208.243	190.87
208.461	-33.22
208.68	338.2
208.898	-330.23
209.116	-649.19
209.335	165.23
209.553	301.44
209.771	153.87
209.989	-72.98
210.208	-10.28
210.426	-92.99
210.644	-110.22
210.862	20.99
211.081	34.39
211.299	56.96
211.517	520.3
211.735	-19.49
211.953	-739.04
212.171	221.92
212.39	192.62
212.608	8.32
212.826	-38.9
213.044	-309.18
213.262	-1822.73
213.48	56.65
213.698	290.01
213.916	125.24
214.134	64.13
214.352	22.85
214.57	137.78
214.788	1066.27
215.006	1885.06
215.224	-2960.87
215.442	219.92
215.66	473.87
215.878	-4.39
216.096	-16.85
216.314	66.66
216.532	68.69
216.75	88.03
216.968	94.5
217.185	146.29
217.403	163.8
217.621	148.89
217.839	121.82
218.057	118.66
218.275	240.89
218.492	-420.13
218.71	-350.66
218.928	212.58
219.146	112.5
219.363	80.98
219.581	61.91
219.799	10.82
220.017	-55.04
220.234	-47.33
220.452	-101.4
220.67	-77.64
220.887	-266.02
221.105	-135.73
221.323	-374.68
221.54	-263.45
221.758	-783
221.976	1240.17
222.193	652.57
222.411	373.65
222.629	-4342.15
222.846	-1665.71
223.064	1887.17
223.281	-92.83
223.499	335.16
223.716	-184.63
223.934	179.73
224.151	998.43
224.369	-99.7
224.586	-39.72
224.804	-8.89
225.021	12.69
225.239	-29.96
225.456	-65.23
225.674	-40.09
225.891	-9.8
226.108	1.05
226.326	20.37
226.543	24.53
226.76	20.53
226.978	16.34
227.195	23.86
227.413	22.45
227.63	20.35
227.847	28.04
228.064	22
228.282	16.62
228.499	17.62
228.716	16.9
228.934	16.05
229.151	14.46
229.368	11.7
229.585	11.16
229.802	12.58
230.02	12.94
230.237	12.59
230.454	12.31
230.671	14.06
230.888	8.81
231.105	9.65
231.323	12.53
231.54	15.2
231.757	20.05
231.974	12.77
232.191	6.98
232.408	5.21
232.625	-4.53
232.842	0.54
233.059	-1.46
233.276	6.4
233.493	3.53
233.71	0.3
233.927	-9.44
234.144	-13.73
234.361	-6.83
234.578	-4.81
234.795	-8.57
235.012	-2.19
235.229	-4.9
235.446	-2.71
235.663	-3.93
235.879	-4.37
236.096	-2.33
236.313	2.01
236.53	0.77
236.747	-2.68
236.964	-4.8
237.181	2
237.397	7.43
237.614	5.33
237.831	3.17
238.048	0.94
238.264	3.08
238.481	1.46
238.698	8.61
238.915	11.01
239.131	14.88
239.348	14.24
239.565	12.84
239.781	6.17
239.998	12.38
240.215	14.86
240.431	16.57
240.648	15
240.865	15.26
241.081	12.95
241.298	12.77
241.514	10.53
241.731	9.63
241.947	8.77
242.164	9.13
242.38	8.98
242.597	8.26
242.814	9.49
243.03	10.4
243.246	10.08
243.463	9.29
243.679	9.71
243.896	8.71
244.112	10.41
244.329	12.96
244.545	14.08
244.762	13.77
244.978	13.87
245.194	12.43
245.411	12.29
245.627	10.26
245.843	10.72
246.06	10.55
246.276	12.9
246.492	12.6
246.709	10.8
246.925	9.88
247.141	9.24
247.357	9.4
247.574	9.42
247.79	8.36
248.006	9.28
248.222	9.88
248.439	9.49
248.655	9.01
248.871	8.64
249.087	9.33
249.303	9.56
249.519	10.87
249.736	9.72
249.952	9.15
250.168	10.22
250.384	9.68
250.6	7.85
250.816	8.15
251.032	8.04
251.248	6.19
251.464	6.8
251.68	6.13
251.896	4.48
252.112	6.53
252.328	6.52
252.544	6.67
252.76	7.47
252.976	8.79
253.192	8.2
253.408	6.7
253.624	7
253.84	5.09
254.056	7.36
254.272	8.65
254.487	5.85
254.703	7.97
254.919	9.14
255.135	8.03
255.351	8.52
255.567	9.2
255.782	10.69
255.998	9.41
256.214	11.02
256.43	8.6
256.646	4.99
256.861	6.9
257.077	5.76
257.293	3.28
257.508	3.07
257.724	0.55
257.94	2.45
258.155	1.91
258.371	3.38
258.587	3.46
258.802	2.53
259.018	2.68
259.234	2.29
259.449	3.45
259.665	4.51
259.88	4.52
260.096	4.63
260.312	4.02
260.527	4.06
260.743	4.03
260.958	4.09
261.174	4.76
261.389	5.29
261.605	6.56
261.82	4.9
262.036	4.72
262.251	5.99
262.466	7.29
262.682	7.64
262.897	9.08
263.113	9.25
263.328	9.67
263.543	10.45
263.759	10.47
263.974	10.26
264.189	11.34
264.405	11.23
264.62	10.63
264.835	9.7
265.051	10.79
265.266	8.91
265.481	9.03
265.696	8.57
265.912	8.96
266.127	11.3
266.342	9.24
266.557	9.06
266.773	10.23
266.988	8.89
267.203	9.06
267.418	10.42
267.633	10.26
267.848	9.62
268.064	10.31
268.279	9.59
268.494	8.27
268.709	8.16
268.924	9.17
269.139	8.77
269.354	9.31
269.569	9.48
269.784	9.07
269.999	9.25
270.214	9.46
270.429	8.41
270.644	7.89
270.859	8.08
271.074	7.42
271.289	7.19
271.504	6.85
271.719	7.48
271.934	7.18
272.149	5.66
272.363	6.89
272.578	6.97
272.793	6.95
273.008	8.54
273.223	9.15
273.438	10.11
273.653	10.96
273.867	10.45
274.082	9.54
274.297	9.59
274.512	9.74
274.726	8.71
274.941	9.21
275.156	9.56
275.371	8.11
275.585	6.08
275.8	7.14
276.015	4.65
276.229	6.6
276.444	6.53
276.659	7.04
276.873	7.35
277.088	6.27
277.302	5.13
277.517	4.17
277.732	4.89
277.946	5.29
278.161	6.2
278.375	7.32
278.59	6.28
278.804	5.68
279.019	4.6
279.233	3.74
279.448	5.14
279.662	5.82
279.877	8.81
280.091	9.06
280.306	8.48
280.52	7.17
280.735	6.84
280.949	7.19
281.163	8.32
281.378	8.81
281.592	8.91
281.806	7.92
282.021	9.63
282.235	6.35
282.449	5.63
282.664	6.75
282.878	4.54
283.092	5.74
283.307	5.67
283.521	4.83
283.735	4.93
283.949	5.55
284.164	6.66
284.378	5.83
284.592	6.77
284.806	5.51
285.02	5.09
285.234	7.25
285.449	6.82
285.663	6.45
285.877	6.71
286.091	6.9
286.305	6.99
286.519	7.58
286.733	6.96
286.947	7.89
287.161	8.78
287.375	8.76
287.589	8.37
287.803	8.18
288.017	8.98
288.231	9.2
288.445	9.04
288.659	9.08
288.873	7.83
289.087	8.4
289.301	7.58
289.515	7.4
289.729	6.15
289.943	5.75
290.157	5.24
290.371	3.15
290.584	3.6
290.798	4
291.012	4.31
291.226	4.73
291.44	5.88
291.654	5.7
291.867	6.22
292.081	7.72
292.295	9.74
292.509	10.85
292.722	12.03
292.936	11.03
293.15	10.94
293.364	8.85
293.577	9.23
293.791	6.76
294.005	7.63
294.218	8.26
294.432	8.05
294.645	7.34
294.859	7.11
295.073	7.21
295.286	9.21
295.5	8.56
295.713	10.36
295.927	9.99
296.14	10.11
296.354	9.67
296.568	8.57
296.781	9.38
296.994	8.64
297.208	8.5
297.421	8.9
297.635	8.38
297.848	8.62
298.062	8.03
298.275	7.66
298.489	8.84
298.702	8.52
298.915	8.53
299.129	8.15
299.342	8.56
299.555	8.5
299.769	8.23
299.982	7.98
300.195	7.85
300.409	7.17
300.622	7.66
300.835	5.97
301.048	7.4
301.262	8.61
301.475	8.21
301.688	7.97
301.901	7.91
302.115	7.94
302.328	7.54
302.541	6.3
302.754	7.05
302.967	7.96
303.18	8.85
303.393	7.89
303.607	6.37
303.82	7.2
304.033	7.4
304.246	6.84
304.459	6.99
304.672	6.64
304.885	9.05
305.098	10.24
305.311	9.39
305.524	10.01
305.737	10.87
305.95	11.43
306.163	11.72
306.376	11.25
306.589	11.69
306.802	11.76
307.015	13.44
307.228	11.8
307.44	10.65
307.653	10.81
307.866	10.44
308.079	9.95
308.292	10.42
308.505	9.76
308.718	9.68
308.93	10.11
309.143	10.13
309.356	9.78
309.569	9.55
309.781	9.09
309.994	8.8
310.207	9.16
310.42	8.9
310.632	7.98
310.845	7.69
311.058	8.09
311.27	9.06
311.483	8.7
311.696	7.85
311.908	7.88
312.121	8.68
312.333	9.34
312.546	9.06
312.759	9.1
312.971	9.96
313.184	8.97
313.396	8.62
313.609	6.12
313.821	6.42
314.034	6.79
314.246	6.95
314.459	6.57
314.671	6.15
314.884	6.77
315.096	6.74
315.309	6.5
315.521	7.2
315.733	7.58
315.946	7.98
316.158	8.34
316.371	8.43
316.583	9.45
316.795	10.51
317.008	9.29
317.22	7.69
317.432	7.18
317.644	8.23
317.857	9.12
318.069	9.15
318.281	10.08
318.494	11.13
318.706	12.09
318.918	11.95
319.13	11.18
319.342	13.12
319.555	13.12
319.767	13.86
319.979	11.73
320.191	11.85
320.403	11.67
320.615	11.43
320.827	10.17
321.039	9.85
321.252	9.51
321.464	9.08
321.676	8.5
321.888	8.78
322.1	9.57
322.312	11.24
322.524	11.87
322.736	13.51
322.948	13.93
323.16	13.46
323.372	13.15
323.584	12.62
323.796	13.56
324.007	13.53
324.219	13.59
324.431	13.11
324.643	12.75
324.855	12.15
325.067	11.41
325.279	11.15
325.491	11.63
325.702	12.24
325.914	13.26
326.126	12.86
326.338	11.95
326.55	11.77
326.761	12.1
326.973	12.16
327.185	12.12
327.396	13.13
327.608	14.23
327.82	14.91
328.032	14.68
328.243	15.09
328.455	15.95
328.666	17.51
328.878	19.4
329.09	18.31
329.301	18.53
329.513	18.04
329.725	18.23
329.936	18.76
330.148	19.04
330.359	21.29
330.571	21.48
330.782	21.94
330.994	21.84
331.205	20.21
331.417	21.45
331.628	23.06
331.84	22.85
332.051	22.12
332.262	21.55
332.474	21.1
332.685	19.28
332.897	19.73
333.108	18.51
333.319	19.37
333.531	19.73
333.742	19.46
333.953	18.91
334.165	20.74
334.376	20.28
334.587	20.33
334.799	21
335.01	20.62
335.221	19.6
335.432	19.28
335.644	18.37
335.855	18.23
336.066	18.93
336.277	19.6
336.488	19.42
336.7	19.48
336.911	18.93
337.122	18.26
337.333	18.04
337.544	18.77
337.755	19.54
337.966	20.04
338.177	20.77
338.388	20.82
338.599	20.94
338.811	20.54
339.022	20.78
339.233	21.47
339.444	20.87
339.655	20.67
339.866	20.12
340.076	20.55
340.287	21.12
340.498	21.27
340.709	21.27
340.92	20.86
341.131	21.38
341.342	21.95
341.553	21.76
341.764	23.37
341.975	23.46
342.185	23.99
342.396	24.21
342.607	23.88
342.818	24.17
343.029	24.53
343.239	25.57
343.45	25.55
343.661	24.88
343.872	23.5
344.082	22.35
344.293	22.58
344.504	22.35
344.714	22.2
344.925	21.69
345.136	20.96
345.346	20.09
345.557	18.99
345.768	18.37
345.978	18.34
346.189	19.39
346.399	20.16
346.61	20.36
346.821	20.99
347.031	20.52
347.242	20.52
347.452	20.94
347.663	21.36
347.873	20.56
348.084	20.02
348.294	19.6
348.504	20.21
348.715	19.59
348.925	20.08
349.136	19.4
349.346	19.06
349.557	19.69
349.767	19.64
349.977	19.34
350.188	20.67
350.398	21.26
350.608	21.76
350.819	21.35
351.029	21.15
351.239	20.44
351.449	19.91
351.66	20.26
351.87	19.54
352.08	18.68
352.29	18.96
352.501	17.79
352.711	18.23
352.921	18.1
353.131	18.5
353.341	18.44
353.552	17.95
353.762	18.74
353.972	18.96
354.182	19.1
354.392	20.5
354.602	20.32
354.812	20.52
355.022	20.54
355.232	20.97
355.442	20.08
355.652	20.68
355.862	21.44
356.072	21.32
356.282	21.02
356.492	19.81
356.702	18.69
356.912	19.42
357.122	19.19
357.332	19.31
357.542	18.81
357.752	20.01
357.962	19.54
358.171	19.97
358.381	19.73
358.591	19.48
358.801	20.66
359.011	21.12
359.221	20.78
359.43	21.09
359.64	20.95
359.85	20.86
360.06	19.71
360.269	20.18
360.479	19.95
360.689	19.95
360.899	20.14
361.108	19.86
361.318	19.81
361.528	19.21
361.737	19.37
361.947	19
362.156	19.61
362.366	20.42
362.576	19.86
362.785	19.78
362.995	19.61
363.204	19.2
363.414	19.65
363.623	20.22
363.833	20.49
364.042	20.39
364.252	20.96
364.461	19.98
364.671	19.45
364.88	19.45
365.09	19.31
365.299	20.13
365.509	20.59
365.718	19.9
365.927	19.62
366.137	19.47
366.346	19.24
366.555	19.24
366.765	19.65
366.974	19.21
367.183	19.55
367.393	19.47
367.602	18.79
367.811	18.46
368.021	18.35
368.23	18.13
368.439	17.79
368.648	18.09
368.857	17.17
369.067	17.02
369.276	17.39
369.485	17.76
369.694	17.46
369.903	17.53
370.112	17.68
370.321	18.04
370.531	17.66
370.74	18.05
370.949	17.91
371.158	18.83
371.367	19.11
371.576	19.02
371.785	18.4
371.994	18.41
372.203	17.62
372.412	16.69
372.621	16.9
372.83	16.46
373.039	16.54
373.248	16.09
373.457	15.5
373.666	15.31
373.874	15.16
374.083	15.65
374.292	16.43
374.501	16.92
374.71	18.01
374.919	18.05
375.128	18.75
375.336	18.13
375.545	18.62
375.754	18.68
375.963	18.36
376.171	18.23
376.38	17.77
376.589	16.98
376.798	17.83
377.006	17.84
377.215	17.38
377.424	17.06
377.632	17.63
377.841	17.48
378.05	17.38
378.258	17.92
378.467	18.02
378.675	18.03
378.884	18.3
379.093	17.74
379.301	18.06
379.51	18.15
379.718	18.29
379.927	18.43
380.135	18.47
380.344	18.78
380.552	18.37
380.761	18.48
380.969	18.64
381.177	18.62
381.386	18.1
381.594	17.69
381.803	17.94
382.011	17.68
382.219	17.18
382.428	16.83
382.636	16.92
382.845	16.6
383.053	16.69
383.261	16.65
383.469	16.8
383.678	17.4
383.886	17.12
384.094	17.13
384.302	17.52
384.511	17.44
384.719	17.4
384.927	17.17
385.135	17.24
385.343	16.82
385.552	16.53
385.76	16.45
385.968	16.08
386.176	15.85
386.384	15.78
386.592	15.41
386.8	15.59
387.008	15.59
387.216	15.25
387.424	15.5
387.633	15.3
387.841	15.48
388.049	15.03
388.257	15.14
388.465	15.4
388.672	14.95
388.88	14.9
389.088	14.88
389.296	15.04
389.504	14.76
389.712	14.55
389.92	14.76
390.128	14.78
390.336	14.86
390.544	14.94
390.751	14.92
390.959	15.22
391.167	15.09
391.375	14.91
391.583	14.97
391.79	15
391.998	14.98
392.206	15.4
392.414	15.33
392.621	15.21
392.829	15.34
393.037	15.23
393.244	15.3
393.452	15.45
393.66	15.45
393.867	15.43
394.075	15.72
394.283	15.68
394.49	15.34
394.698	15.09
394.905	15.05
395.113	14.85
395.32	14.96
395.528	14.91
395.735	14.96
395.943	14.9
396.15	14.74
396.358	14.72
396.565	14.45
396.773	14.32
396.98	14.67
397.188	14.98
397.395	15.02
397.602	14.96
397.81	14.45
398.017	14.24
398.225	14.34
398.432	14.47
398.639	14.34
398.847	14.28
399.054	13.96
399.261	13.58
399.468	13.27
399.676	13.35
399.883	13.28
400.09	13.52
400.297	13.68
400.505	13.53
400.712	13.3
400.919	13.42
401.126	13.97
401.333	14.44
401.54	14.84
401.748	14.88
401.955	14.77
402.162	14.81
402.369	14.62
402.576	14.71
402.783	15.13
402.99	15.57
403.197	15.65
403.404	15.33
403.611	15.27
403.818	14.98
404.025	14.9
404.232	14.78
404.439	14.88
404.646	15.16
404.853	15
405.06	14.7
405.267	14.38
405.474	14.34
405.681	14.4
405.887	14.34
406.094	14.55
406.301	14.88
406.508	15.19
406.715	15.41
406.922	15.33
407.128	15.54
407.335	15.8
407.542	15.98
407.749	15.79
407.955	15.91
408.162	15.65
408.369	15.77
408.575	15.71
408.782	15.53
408.989	15.38
409.195	15.63
409.402	15.7
409.609	15.59
409.815	15.57
410.022	15.85
410.228	15.82
410.435	16.3
410.642	16.21
410.848	16.38
411.055	16.41
411.261	16.36
411.468	16.38
411.674	16.43
411.881	16.48
412.087	16.7
412.294	16.86
412.5	17.06
412.706	17.17
412.913	17.41
413.119	17.67
413.326	17.69
413.532	17.94
413.738	17.97
413.945	17.97
414.151	17.8
414.357	17.58
414.564	17.33
414.77	17.26
414.976	17.21
415.182	17.02
415.389	16.55
415.595	16.42
415.801	16.3
416.007	16.28
416.214	16.51
416.42	16.68
416.626	16.74
416.832	17.14
417.038	17.04
417.244	16.93
417.45	17.13
417.657	17.21
417.863	17.21
418.069	17.36
418.275	17.22
418.481	17.11
418.687	17.13
418.893	17.23
419.099	17.1
419.305	17.22
419.511	17.35
419.717	17.22
419.923	17.34
420.129	17.37
420.335	17.29
420.541	17.35
420.746	17.34
420.952	17.44
421.158	17.43
421.364	17.4
421.57	17.39
421.776	17.41
421.982	17.61
422.187	17.7
422.393	17.74
422.599	17.67
422.805	17.8
423.01	17.89
423.216	17.86
423.422	17.82
423.628	17.9
423.833	17.92
424.039	18.03
424.245	17.91
424.45	17.82
424.656	17.85
424.862	18.05
425.067	18.06
425.273	18.01
425.478	18.04
425.684	18.09
425.889	18.1
426.095	17.96
426.301	17.88
426.506	17.87
426.712	17.95
426.917	18.07
427.123	17.95
427.328	17.93
427.533	17.95
427.739	17.93
427.944	17.94
428.15	17.81
428.355	18.19
428.561	18.29
428.766	18.28
428.971	18.23
429.177	18.13
429.382	18.07
429.587	18.04
429.793	17.97
429.998	18.01
430.203	18.15
430.408	18.13
430.614	17.94
430.819	17.77
431.024	17.97
431.229	17.97
431.434	17.9
431.64	17.95
431.845	18
432.05	18.17
432.255	18.21
432.46	18.27
432.665	18.16
432.87	18.04
433.076	18.05
433.281	17.68
433.486	17.78
433.691	17.77
433.896	17.77
434.101	17.76
434.306	17.52
434.511	17.45
434.716	17.38
434.921	17.59
435.126	17.76
435.331	17.77
435.535	18.09
435.74	17.89
435.945	18.02
436.15	18.13
436.355	18.21
436.56	18.38
436.765	18.54
436.97	18.46
437.174	18.56
437.379	18.56
437.584	18.69
437.789	18.72
437.993	18.75
438.198	18.82
438.403	18.75
438.608	18.68
438.812	18.66
439.017	18.58
439.222	18.55
439.426	18.37
439.631	18.39
439.836	18.37
440.04	18.32
440.245	18.49
440.45	18.43
440.654	18.53
440.859	18.39
441.063	18.25
441.268	18.26
441.472	18.41
441.677	18.45
441.881	18.5
442.086	18.43
442.29	18.54
442.495	18.32
442.699	18.28
442.904	18.2
443.108	18.34
443.312	18.63
443.517	18.69
443.721	18.51
443.925	18.59
444.13	18.69
444.334	18.67
444.538	18.55
444.743	18.59
444.947	18.66
445.151	18.7
445.356	18.64
445.56	18.6
445.764	18.66
445.968	18.66
446.173	18.65
446.377	18.53
446.581	18.55
446.785	18.53
446.989	18.41
447.193	18.39
447.398	18.3
447.602	18.32
447.806	18.32
448.01	18.15
448.214	18.25
448.418	18.27
448.622	18.07
448.826	18.05
449.03	18.08
449.234	18.34
449.438	18.49
449.642	18.55
449.846	18.69
450.05	18.56
450.254	18.49
450.458	18.36
450.662	18.29
450.866	18.44
451.069	18.28
451.273	18.19
451.477	18.13
451.681	17.86
451.885	17.86
452.089	17.79
452.292	17.94
452.496	18.06
452.7	17.86
452.904	17.82
453.107	17.86
453.311	18.09
453.515	18.25
453.719	18.38
453.922	18.61
454.126	18.8
454.33	18.68
454.533	18.46
454.737	18.37
454.94	18.61
455.144	18.63
455.348	18.65
455.551	18.62
455.755	18.49
455.958	18.13
456.162	17.82
456.365	17.7
456.569	17.71
456.772	17.78
456.976	17.8
457.179	18.04
457.383	18.08
457.586	18.07
457.79	18.04
457.993	18.18
458.196	18.37
458.4	18.46
458.603	18.27
458.807	18.3
459.01	18.23
459.213	18.29
459.417	18.14
459.62	18.03
459.823	18.03
460.026	18.12
460.23	18
460.433	17.95
460.636	18.06
460.839	18.13
461.042	18.13
461.246	18.25
461.449	18.33
461.652	18.33
461.855	18.55
462.058	18.69
462.261	18.6
462.464	18.58
462.668	18.8
462.871	18.75
463.074	18.82
463.277	18.87
463.48	19.14
463.683	19.19
463.886	19.2
464.089	19.08
464.292	19.09
464.495	19.24
464.698	19.55
464.901	19.41
465.104	19.48
465.306	19.5
465.509	19.54
465.712	19.26
465.915	19.2
466.118	19.34
466.321	19.3
466.524	19.17
466.726	19.07
466.929	18.98
467.132	18.95
467.335	18.99
467.538	19.08
467.74	19.24
467.943	19.34
468.146	19.36
468.348	19.16
468.551	19.38
468.754	19.58
468.956	19.68
469.159	19.73
469.362	19.84
469.564	19.84
469.767	19.64
469.969	19.71
470.172	19.73
470.375	19.86
470.577	20.05
470.78	20
470.982	19.99
471.185	19.77
471.387	19.8
471.59	19.86
471.792	19.84
471.995	20.04
472.197	20.07
472.399	19.96
472.602	19.86
472.804	19.93
473.007	20.07
473.209	19.98
473.411	20.09
473.614	20.22
473.816	20.16
474.018	20.18
474.22	20.35
474.423	20.04
474.625	20.22
474.827	20.32
475.03	20.22
475.232	19.99
475.434	20.1
475.636	20.12
475.838	20.01
476.04	20.05
476.243	20.19
476.445	20.12
476.647	20.42
476.849	20.4
477.051	20.59
477.253	20.56
477.455	20.69
477.657	20.64
477.859	20.62
478.061	20.54
478.263	20.49
478.465	20.42
478.667	20.33
478.869	20.17
479.071	20.11
479.273	19.93
479.475	20.15
479.677	20.17
479.879	19.92
480.081	20.01
480.283	20.03
480.485	20.23
480.686	20.13
480.888	20.23
481.09	20.17
481.292	20.34
481.494	20.3
481.695	20.24
481.897	20.18
482.099	20.36
482.301	20.38
482.502	20.37
482.704	20.2
482.906	20.19
483.107	20.18
483.309	20.19
483.511	20.1
483.712	20.13
483.914	20.1
484.115	20.12
484.317	20.13
484.519	20.12
484.72	20.12
484.922	20.14
485.123	20.2
485.325	20.24
485.526	20.28
485.728	20.33
485.929	20.35
486.131	20.45
486.332	20.51
486.534	20.48
486.735	20.54
486.936	20.61
487.138	20.69
487.339	20.72
487.541	20.67
487.742	20.65
487.943	20.62
488.144	20.57
488.346	20.54
488.547	20.5
488.748	20.59
488.95	20.58
489.151	20.55
489.352	20.51
489.553	20.49
489.755	20.52
489.956	20.62
490.157	20.77
490.358	20.89
490.559	20.96
490.76	21.09
490.961	21.15
491.163	21.23
491.364	21.3
491.565	21.46
491.766	21.6
491.967	21.59
492.168	21.63
492.369	21.62
492.57	21.71
492.771	21.74
492.972	21.73
493.173	21.78
493.374	21.84
493.575	22.02
493.776	21.95
493.976	21.79
494.177	22.05
494.378	22.08
494.579	22.22
494.78	22.28
494.981	22.33
495.182	22.51
495.382	22.69
495.583	22.7
495.784	22.57
495.985	22.69
496.185	22.77
496.386	22.84
496.587	22.92
496.788	22.97
496.988	22.98
497.189	23.11
497.39	23.09
497.59	23.09
497.791	23.13
497.992	23.3
498.192	23.52
498.393	23.65
498.593	23.49
498.794	23.61
498.994	23.58
499.195	23.61
499.395	23.69
499.596	23.7
499.796	23.88
499.997	24.03
500.197	24.1
500.398	24.1
500.598	24.27
500.799	24.65
500.999	24.65
501.199	24.92
501.4	25.02
501.6	25.11
501.801	25.42
502.001	25.51
502.201	25.62
502.402	25.64
502.602	25.64
502.802	25.68
503.002	25.57
503.203	25.57
503.403	25.57
503.603	25.56
503.803	25.71
504.003	25.6
504.204	25.51
504.404	25.59
504.604	25.55
504.804	25.6
505.004	25.62
505.204	25.72
505.404	25.93
505.604	26.12
505.804	26.2
506.005	26.17
506.205	26.41
506.405	26.53
506.605	26.52
506.805	26.77
507.005	26.94
507.204	27.35
507.404	27.56
507.604	27.71
507.804	27.66
508.004	27.88
508.204	28.02
508.404	28.05
508.604	28.1
508.804	28.07
509.003	28.22
509.203	28.24
509.403	28.07
509.603	28.05
509.803	28.07
510.002	28.12
510.202	28.22
510.402	28.14
510.602	28.2
510.801	28.23
511.001	28.31
511.201	28.25
511.4	28.26
511.6	28.34
511.8	28.56
511.999	28.64
512.199	28.82
512.398	29.01
512.598	29.19
512.797	29.24
512.997	29.23
513.197	29.45
513.396	29.53
513.596	29.73
513.795	29.76
513.994	29.67
514.194	29.76
514.393	29.77
514.593	29.61
514.792	29.6
514.992	29.67
515.191	29.92
515.39	29.8
515.59	29.94
515.789	29.89
515.988	29.94
516.188	29.91
516.387	29.92
516.586	29.98
516.786	30.12
516.985	30.12
517.184	30.29
517.383	30.32
517.582	30.5
517.782	30.5
517.981	30.52
518.18	30.68
518.379	30.92
518.578	30.94
518.777	31.09
518.976	31.08
519.176	31.22
519.375	31.15
519.574	31.14
519.773	31.19
519.972	31.18
520.171	31.31
520.37	31.27
520.569	31.22
520.768	31.44
520.967	31.46
521.166	31.52
521.365	31.6
521.564	31.71
521.762	31.97
521.961	31.94
522.16	31.99
522.359	32.01
522.558	32.15
522.757	32.31
522.956	32.21
523.154	32.15
523.353	32.21
523.552	32.21
523.751	32.26
523.949	32.14
524.148	32.16
524.347	32.33
524.546	32.3
524.744	32.29
524.943	32.2
525.142	32.17
525.34	32.18
525.539	32.16
525.737	32.16
525.936	32.1
526.135	32.17
526.333	32.27
526.532	32.33
526.73	32.37
526.929	32.33
527.127	32.36
527.326	32.49
527.524	32.55
527.723	32.64
527.921	32.67
528.12	32.67
528.318	32.68
528.516	32.67
528.715	32.68
528.913	32.74
529.112	32.77
529.31	32.73
529.508	32.74
529.707	32.71
529.905	32.68
530.103	32.66
530.301	32.77
530.5	32.74
530.698	32.74
530.896	32.66
531.094	32.67
531.293	32.73
531.491	32.76
531.689	32.68
531.887	32.72
532.085	32.73
532.283	32.83
532.481	32.78
532.68	32.87
532.878	32.96
533.076	32.98
533.274	32.93
533.472	32.93
533.67	32.98
533.868	33.12
534.066	33.18
534.264	33.25
534.462	33.16
534.66	33.16
534.858	33.06
535.056	32.93
535.253	32.98
535.451	33.05
535.649	33.08
535.847	33.03
536.045	32.88
536.243	32.8
536.441	32.77
536.638	32.9
536.836	32.91
537.034	32.97
537.232	33.03
537.43	33.06
537.627	32.96
537.825	32.96
538.023	33.06
538.22	33.07
538.418	33.16
538.616	33.19
538.813	33.07
539.011	33.11
539.209	33.23
539.406	33.27
539.604	33.2
539.801	33.27
539.999	33.34
540.196	33.32
540.394	33.48
540.591	33.45
540.789	33.43
540.986	33.52
541.184	33.48
541.381	33.37
541.579	33.5
541.776	33.58
541.974	33.54
542.171	33.47
542.368	33.47
542.566	33.39
542.763	33.45
542.96	33.47
543.158	33.46
543.355	33.57
543.552	33.68
543.75	33.62
543.947	33.58
544.144	33.66
544.341	33.76
544.539	33.72
544.736	33.82
544.933	33.7
545.13	33.64
545.327	33.66
545.524	33.47
545.722	33.38
545.919	33.29
546.116	33.29
546.313	33.33
546.51	33.36
546.707	33.46
546.904	33.43
547.101	33.43
547.298	33.43
547.495	33.45
547.692	33.49
547.889	33.62
548.086	33.7
548.283	33.67
548.48	33.76
548.677	33.75
548.874	33.77
549.07	33.73
549.267	33.89
549.464	34.08
549.661	34.05
549.858	34.16
550.055	34.1
550.251	34.12
550.448	34.27
550.645	34.1
550.842	34.08
551.038	34.11
551.235	34.34
551.432	34.26
551.628	34.24
551.825	34.29
552.022	34.18
552.218	34.09
552.415	34.11
552.612	34.23
552.808	34.41
553.005	34.48
553.201	34.43
553.398	34.23
553.594	34.27
553.791	34.36
553.987	34.39
554.184	34.6
554.38	34.59
554.577	34.59
554.773	34.32
554.97	34.12
555.166	33.9
555.362	33.99
555.559	34.12
555.755	34.27
555.952	34.13
556.148	34.29
556.344	34.35
556.541	34.5
556.737	34.59
556.933	34.81
557.129	35.04
557.326	35.15
557.522	35.07
557.718	34.99
557.914	35.04
558.11	35.05
558.307	34.86
558.503	34.79
558.699	34.58
558.895	34.59
559.091	34.35
559.287	34.19
559.483	34.3
559.679	34.42
559.876	34.47
560.072	34.36
560.268	34.4
560.464	34.4
560.66	34.33
560.856	34.65
561.052	34.73
561.247	34.89
561.443	34.93
561.639	34.84
561.835	34.82
562.031	34.72
562.227	34.58
562.423	34.59
562.619	34.74
562.815	35
563.01	34.94
563.206	34.72
563.402	34.84
563.598	34.75
563.793	34.72
563.989	34.94
564.185	35.01
564.381	35.09
564.576	35.1
564.772	35.02
564.968	34.83
565.163	34.82
565.359	35.02
565.555	34.87
565.75	35.03
565.946	35.13
566.141	34.99
566.337	35.03
566.532	35.22
566.728	35.13
566.923	35.32
567.119	35.46
567.314	35.52
567.51	35.46
567.705	35.5
567.901	35.53
568.096	35.48
568.292	35.28
568.487	35.3
568.682	35.24
568.878	35.27
569.073	35.08
569.268	35.04
569.464	35.09
569.659	35.06
569.854	35.17
570.05	35.13
570.245	35.22
570.44	35.46
570.635	35.54
570.831	35.4
571.026	35.53
571.221	35.5
571.416	35.47
571.611	35.41
571.806	35.49
572.002	35.45
572.197	35.58
572.392	35.61
572.587	35.49
572.782	35.34
572.977	35.46
573.172	35.43
573.367	35.53
573.562	35.55
573.757	35.73
573.952	35.67
574.147	35.64
574.342	35.47
574.537	35.46
574.732	35.63
574.927	35.77
575.121	35.74
575.316	35.82
575.511	35.64
575.706	35.76
575.901	35.53
576.096	35.76
576.29	35.96
576.485	36.03
576.68	35.9
576.875	36.02
577.069	35.94
577.264	35.99
577.459	35.93
577.654	36
577.848	35.7
578.043	35.92
578.238	35.61
578.432	35.65
578.627	35.78
578.821	36.11
579.016	35.87
579.21	36.02
579.405	35.77
579.6	35.84
579.794	36.13
579.989	36.24
580.183	36.26
580.378	36.49
580.572	36.35
580.766	36.25
580.961	36.11
581.155	36.33
581.35	36.26
581.544	36.6
581.738	36.68
581.933	36.68
582.127	36.62
582.321	36.48
582.516	36.32
582.71	36.25
582.904	36.27
583.099	36.26
583.293	36.21
583.487	36.23
583.681	36.42
583.875	36.36
584.07	36.37
584.264	36.8
584.458	36.89
584.652	37
584.846	36.91
585.04	37.08
585.234	37.05
585.428	36.96
585.623	37.05
585.817	37.27
586.011	37.43
586.205	37.44
586.399	37.14
586.593	37.19
586.787	37.27
586.981	37.53
587.174	37.46
587.368	37.57
587.562	37.77
587.756	37.61
587.95	36.95
588.144	36.9
588.338	36.96
588.532	37.11
588.725	36.91
588.919	36.82
589.113	36.57
589.307	36.69
589.501	36.64
589.694	36.56
589.888	36.8
590.082	37
590.275	36.95
590.469	37.07
590.663	37.14
590.856	37.29
591.05	37.15
591.244	37.4
591.437	37.51
591.631	37.62
591.824	37.63
592.018	37.46
592.212	37.52
592.405	37.55
592.599	37.33
592.792	37.42
592.986	37.62
593.179	38.07
593.372	38.14
593.566	37.94
593.759	37.98
593.953	38.02
594.146	38.23
594.339	38.23
594.533	38.38
594.726	38.11
594.92	38
595.113	37.84
595.306	37.59
595.499	37.43
595.693	37.37
595.886	37.39
596.079	37.42
596.272	37.32
596.466	37.31
596.659	37.24
596.852	37.44
597.045	37.42
597.238	37.31
597.431	37.46
597.624	37.67
597.818	37.77
598.011	37.78
598.204	37.86
598.397	37.85
598.59	37.79
598.783	37.78
598.976	37.78
599.169	37.94
599.362	38.26
599.555	38.1
599.748	37.85
599.941	37.76
600.134	37.91
600.326	37.92
600.519	38.03
600.712	38.46
600.905	38.44
601.098	38.55
601.291	38.33
601.483	38.17
601.676	38.27
601.869	38.53
602.062	38.77
602.255	38.81
602.447	38.79
602.64	38.63
602.833	38.34
603.025	38.27
603.218	38.17
603.411	38.01
603.603	38.33
603.796	38.18
603.989	38.11
604.181	38.13
604.374	37.8
604.566	37.7
604.759	37.72
604.951	37.79
605.144	37.84
605.336	37.82
605.529	37.98
605.721	37.74
605.914	37.91
606.106	37.98
606.299	37.85
606.491	37.9
606.683	38.09
606.876	38.27
607.068	38.29
607.26	38.22
607.453	38.34
607.645	38.59
607.837	38.8
608.03	38.76
608.222	38.68
608.414	38.68
608.606	38.83
608.799	38.91
608.991	38.97
609.183	39
609.375	39.27
609.567	39.22
609.759	39.21
609.952	39.14
610.144	39.23
610.336	39.29
610.528	39.35
610.72	39.68
610.912	39.62
611.104	39.57
611.296	39.85
611.488	39.71
611.68	39.78
611.872	39.54
612.064	39.68
612.256	39.5
612.448	39.6
612.64	39.49
612.832	39.16
613.023	39.04
613.215	39.12
613.407	38.83
613.599	39.02
613.791	39.24
613.983	39.66
614.174	39.47
614.366	39.82
614.558	39.62
614.75	39.87
614.941	39.98
615.133	39.95
615.325	39.74
615.516	39.81
615.708	39.75
615.9	39.74
616.091	39.82
616.283	39.85
616.475	39.84
616.666	39.95
616.858	39.75
617.049	39.71
617.241	39.67
617.432	39.89
617.624	39.85
617.815	39.8
618.007	39.86
618.198	39.64
618.39	39.77
618.581	39.67
618.773	39.81
618.964	40.17
619.155	40.1
619.347	40.23
619.538	40.11
619.729	40.12
619.921	40.24
620.112	40.12
620.303	40.15
620.494	40.1
620.686	40.31
620.877	40.41
621.068	40.21
621.259	40.53
621.451	40.63
621.642	40.93
621.833	41.09
622.024	40.88
622.215	41.02
622.406	40.86
622.597	40.88
622.788	40.4
622.98	40.21
623.171	40.17
623.362	40.24
623.553	40.25
623.744	40.38
623.935	40.54
624.126	41.21
624.317	41.06
624.508	41.21
624.698	41.29
624.889	41.5
625.08	41.66
625.271	41.63
625.462	41.46
625.653	41.46
625.844	41.33
626.034	41.13
626.225	40.97
626.416	41.08
626.607	41.28
626.798	41.26
626.988	41.49
627.179	41.27
627.37	41.65
627.56	41.67
627.751	41.78
627.942	41.74
628.132	41.91
628.323	41.71
628.514	41.51
628.704	41.31
628.895	41.12
629.085	41.19
629.276	41.61
629.466	41.26
629.657	41.42
629.847	41.4
630.038	41.17
630.228	41.28
630.419	41.1
630.609	41.2
630.8	41.53
630.99	41.57
631.181	41.33
631.371	41.11
631.561	41.3
631.752	41.23
631.942	41.29
632.132	41.6
632.323	41.39
632.513	41.63
632.703	41.67
632.893	41.55
633.084	41.77
633.274	41.61
633.464	41.55
633.654	41.44
633.844	41.52
634.034	41.7
634.225	41.8
634.415	41.77
634.605	41.89
634.795	41.94
634.985	42.06
635.175	41.93
635.365	42.33
635.555	42.59
635.745	42.66
635.935	42.12
636.125	41.77
636.315	41.79
636.505	41.92
636.695	41.81
636.885	42.06
637.075	41.8
637.265	42.01
637.455	41.97
637.644	41.64
637.834	41.67
638.024	42
638.214	42.07
638.404	42.03
638.593	41.62
638.783	41.97
638.973	41.74
639.163	42.1
639.352	42.01
639.542	42.05
639.732	42.24
639.921	42.13
640.111	42.36
640.301	42.36
640.49	42.37
640.68	42.71
640.87	42.6
641.059	42.66
641.249	42.39
641.438	42.55
641.628	42.32
641.817	41.92
642.007	41.85
642.196	41.93
642.386	42.04
642.575	41.93
642.764	41.77
642.954	41.59
643.143	41.72
643.333	41.95
643.522	42.04
643.711	42.29
643.901	42.76
644.09	42.95
644.279	42.77
644.469	42.77
644.658	43.2
644.847	43.17
645.036	43.52
645.226	43.46
645.415	42.99
645.604	42.73
645.793	42.81
645.982	42.74
646.171	42.75
646.361	43.02
646.55	43.08
646.739	42.89
646.928	43.18
647.117	42.93
647.306	42.98
647.495	43.27
647.684	43.49
647.873	43.31
648.062	43.45
648.251	43.83
648.44	43.79
648.629	44.31
648.818	43.75
649.007	43.59
649.196	43.54
649.384	43.21
649.573	43.23
649.762	43.17
649.951	43.36
650.14	43.49
650.328	43.56
650.517	43.18
650.706	43.06
650.895	43.45
651.083	44.01
651.272	44.15
651.461	43.92
651.65	44.02
651.838	43.82
652.027	43.66
652.216	43.42
652.404	43.48
652.593	43.72
652.781	43.38
652.97	43.82
653.158	43.36
653.347	43.26
653.535	44
653.724	44.14
653.912	44.5
654.101	45.1
654.289	45.37
654.478	45.48
654.666	45.63
654.855	45.8
655.043	45.12
655.231	45.23
655.42	45.07
655.608	45.23
655.796	44.76
655.985	44.58
656.173	44.47
656.361	44.44
656.55	44.07
656.738	43.86
656.926	44.05
657.114	44.45
657.302	44.66
657.491	45.01
657.679	44.92
657.867	45.04
658.055	45.11
658.243	44.61
658.431	44.49
658.619	44.92
658.807	45.09
658.996	44.83
659.184	44.77
659.372	44.63
659.56	44.76
659.748	44.5
659.936	44.85
660.124	44.88
660.311	45.19
660.499	45.02
660.687	44.66
660.875	44.83
661.063	44.85
661.251	44.62
661.439	44.71
661.627	44.5
661.814	44.39
662.002	44.38
662.19	44.32
662.378	44.43
662.565	45.17
662.753	44.99
662.941	44.75
663.129	44.52
663.316	45
663.504	45.13
663.692	45.54
663.879	46.15
664.067	45.66
664.254	45.56
664.442	45.19
664.63	45.15
664.817	45.13
665.005	45.36
665.192	45.77
665.38	45.99
665.567	45.97
665.755	45.84
665.942	45.55
666.13	45.84
666.317	46.22
666.504	46.34
666.692	46.24
666.879	46.66
667.067	46.82
667.254	46.91
667.441	46.87
667.629	46.91
667.816	47
668.003	47.1
668.19	47.17
668.378	46.68
668.565	46.77
668.752	46.63
668.939	46.13
669.127	45.76
669.314	45.55
669.501	45.12
669.688	45.17
669.875	45.18
670.062	45.28
670.249	45.48
670.436	45.78
670.623	45.96
670.81	46.09
670.997	46.47
671.184	46.66
671.371	46.95
671.558	47.36
671.745	47.28
671.932	47.05
672.119	47.21
672.306	47.52
672.493	47.99
672.68	47.84
672.867	47.75
673.054	47.61
673.24	47.63
673.427	47.69
673.614	47.64
673.801	48.03
673.988	48.21
674.174	48.18
674.361	47.85
674.548	47.37
674.734	47.6
674.921	47.44
675.108	47.27
675.294	47.26
675.481	47.35
675.668	47.21
675.854	46.83
676.041	46.68
676.227	46.49
676.414	46.6
676.601	46.96
676.787	46.95
676.974	47.34
677.16	47.7
677.347	48.19
677.533	48.28
677.719	48.61
677.906	48.42
678.092	48.45
678.279	49.1
678.465	49.02
678.651	49.28
678.838	49.09
679.024	49.12
679.21	48.95
679.397	48.48
679.583	48.35
679.769	48.2
679.955	48.37
680.142	48.58
680.328	48.19
680.514	48.2
680.7	47.7
680.886	47.72
681.073	47.32
681.259	47.83
681.445	48.02
681.631	48.33
681.817	48.55
682.003	48.87
682.189	48.64
682.375	48.82
682.561	48.83
682.747	48.98
682.933	49.12
683.119	49.85
683.305	49.26
683.491	49.46
683.677	49.08
683.863	48.82
684.049	48.7
684.235	49.36
684.42	49.05
684.606	49.12
684.792	49.18
684.978	49.34
685.164	49.21
685.349	49.5
685.535	49.06
685.721	49.52
685.907	49.46
686.092	49.15
686.278	48.38
686.464	48.41
686.649	48.41
686.835	48.51
687.021	48.36
687.206	48.22
687.392	48.6
687.577	48.74
687.763	48.52
687.948	48.88
688.134	49.31
688.319	49.77
688.505	49.54
688.69	49.72
688.876	49.82
689.061	49.73
689.247	49.91
689.432	50.02
689.618	50.02
689.803	50.02
689.988	50.05
690.174	50.18
690.359	49.57
690.544	49.53
690.73	49.73
690.915	49.81
691.1	49.66
691.285	49.08
691.471	48.71
691.656	48.94
691.841	49.06
692.026	49.34
692.211	48.56
692.396	49.25
692.582	49.42
692.767	49.34
692.952	48.87
693.137	49.1
693.322	49.51
693.507	49.37
693.692	49.8
693.877	49.79
694.062	49.22
694.247	49.56
694.432	49.68
694.617	50.4
694.802	50.51
694.987	50.81
695.172	51.1
695.357	50.93
695.541	51.18
695.726	50.58
695.911	50.22
696.096	50.7
696.281	50.75
696.466	50.89
696.65	50.61
696.835	50.38
697.02	50.78
697.204	50.96
697.389	51.3
697.574	51.24
697.759	51.62
697.943	51.96
698.128	51.83
698.312	51.88
698.497	51.77
698.682	51.95
698.866	51.84
699.051	51.86
699.235	51.43
699.42	51.14
699.604	51.03
699.789	50.8
699.973	50.9
700.158	50.79
700.342	51.02
700.527	50.78
700.711	50.86
700.895	50.79
701.08	50.34
701.264	50.6
701.448	50.68
701.633	50.78
701.817	51.41
702.001	51.18
702.186	51.21
702.37	50.76
702.554	50.83
702.738	51.27
702.923	51.34
703.107	52.28
703.291	52.88
703.475	53.44
703.659	53.73
703.843	53.44
704.027	53.38
704.212	52.96
704.396	53.63
704.58	53.72
704.764	52.86
704.948	53.38
705.132	52.88
705.316	52.24
705.5	52.49
705.684	52.22
705.868	52
706.052	51.9
706.235	52.14
706.419	51.78
706.603	50.61
706.787	50.41
706.971	50.24
707.155	50.6
707.339	50.88
707.522	51.2
707.706	51.22
707.89	51.74
708.074	51.91
708.257	52.11
708.441	52.66
708.625	54.28
708.808	55.04
708.992	54.42
709.176	54.24
709.359	54.57
709.543	53.9
709.727	54.48
709.91	54.64
710.094	54.46
710.277	54.26
710.461	53.76
710.644	53.67
710.828	53.25
711.011	53.87
711.195	53.61
711.378	53.58
711.562	53.89
711.745	54.3
711.928	54.13
712.112	54.64
712.295	55.24
712.478	55.63
712.662	55.24
712.845	55.45
713.028	55.79
713.212	56.06
713.395	56.01
713.578	55.88
713.761	54.91
713.945	54.14
714.128	54.36
714.311	54.38
714.494	54.38
714.677	54.28
714.86	54.87
715.043	54.22
715.227	53.7
715.41	53.75
715.593	53.95
715.776	54.51
715.959	55.18
716.142	54.66
716.325	54.27
716.508	54.72
716.691	55.84
716.874	55.13
717.057	55.54
717.239	56.26
717.422	56.01
717.605	56.27
717.788	56.91
717.971	56.76
718.154	56.96
718.337	57.4
718.519	57.06
718.702	55.88
718.885	56.66
719.068	56.62
719.25	56.93
719.433	57.16
719.616	56.87
719.798	55.43
719.981	55.19
720.164	55.73
720.346	55.79
720.529	55.98
720.712	56.48
720.894	55.66
721.077	55.35
721.259	54.33
721.442	54.67
721.624	54.09
721.807	55.38
721.989	55.67
722.172	55.19
722.354	55.42
722.537	54.41
722.719	54.85
722.901	56.03
723.084	56.25
723.266	56.08
723.448	55.46
723.631	54.89
723.813	53.94
723.995	54.72
724.178	55.21
724.36	54.83
724.542	54.79
724.724	54.69
724.907	54.08
725.089	54.67
725.271	56
725.453	56.24
725.635	57.05
725.817	57.06
725.999	55.81
726.181	54.58
726.364	54.41
726.546	55.42
726.728	55.16
726.91	55.35
727.092	55.3
727.274	54.08
727.456	54.09
727.638	54.24
727.819	54.29
728.001	55.33
728.183	56.48
728.365	56.75
728.547	57.22
728.729	57.86
728.911	57.31
729.093	57.1
729.274	58.17
729.456	58.52
729.638	58.28
729.82	58.88
730.001	58.68
730.183	58.27
730.365	58.21
730.546	57.64
730.728	56.64
730.91	56.57
731.091	56.99
731.273	56.42
731.455	56.17
731.636	56.5
731.818	55.65
731.999	55.02
732.181	55.71
732.362	56.29
732.544	56.91
732.725	58.09
732.907	58.44
733.088	57.82
733.27	57.84
733.451	57.77
733.633	57.66
733.814	58.08
733.995	58.62
734.177	58.48
734.358	57.71
734.539	56.99
734.721	56.02
734.902	55.98
735.083	56.15
735.264	56.82
735.446	56.53
735.627	56.89
735.808	57.63
735.989	57.52
736.17	57.53
736.351	57.99
736.533	57.51
736.714	57.53
736.895	57.2
737.076	56.82
737.257	56.13
737.438	56.59
737.619	56.47
737.8	55.02
737.981	55.03
738.162	54.7
738.343	53.43
738.524	53.97
738.705	54.01
738.886	54.67
739.067	55.72
739.247	56.32
739.428	55.48
739.609	55.77
739.79	56.94
739.971	57.44
740.151	57.47
740.332	58.52
740.513	58.21
740.694	57.88
740.874	58.29
741.055	58.77
741.236	58.38
741.417	59.45
741.597	58.94
741.778	59.26
741.958	59.38
742.139	59.21
742.32	59.02
742.5	59.74
742.681	59.7
742.861	59.57
743.042	59.54
743.222	59.86
743.403	60.54
743.583	60.63
743.764	59.79
743.944	58.85
744.124	59.62
744.305	60.48
744.485	59.88
744.666	60.63
744.846	59.58
745.026	59.55
745.207	59.56
745.387	59.16
745.567	59.55
745.747	60.76
745.928	61.48
746.108	60.48
746.288	60.4
746.468	60.38
746.648	60.87
746.829	61.35
747.009	60.66
747.189	60.71
747.369	61.09
747.549	61.05
747.729	59.8
747.909	59.75
748.089	59.57
748.269	58.89
748.449	58.96
748.629	57.79
748.809	57.2
748.989	57.64
749.169	57.07
749.349	56.4
749.529	55.57
749.709	55.76
749.889	55.7
750.068	56
750.248	57.95
750.428	57.62
750.608	58.78
750.788	58.85
750.967	57.62
751.147	58.29
751.327	57.61
751.507	58.44
751.686	57.93
751.866	56.84
752.046	56.51
752.225	54.81
752.405	55.56
752.585	55.48
752.764	56.08
752.944	57.08
753.123	56.88
753.303	56.96
753.482	56.37
753.662	57.69
753.841	58.55
754.021	59.27
754.2	58.84
754.38	57.8
754.559	57.61
754.739	57.4
754.918	57.47
755.097	57.23
755.277	58.48
755.456	59.48
755.635	58.5
755.815	58.85
755.994	57.98
756.173	58.82
756.352	58.97
756.532	60.1
756.711	59.28
756.89	58.3
757.069	57.81
757.248	57.15
757.427	56.77
757.607	57.97
757.786	58.82
757.965	58.79
758.144	59.81
758.323	60.95
758.502	59.88
758.681	60.05
758.86	60.07
759.039	61.76
759.218	61.66
759.397	60.88
759.576	60.25
759.755	59.56
759.934	59.88
760.113	58.5
760.291	57.69
760.47	58.21
760.649	59.34
760.828	59.3
761.007	57.86
761.186	58.43
761.364	59.08
761.543	59.12
761.722	60.2
761.901	60.68
762.079	61.04
762.258	60.65
762.437	61
762.615	60.63
762.794	60.84
762.972	61.21
763.151	61.08
763.33	61.05
763.508	60.97
763.687	60.69
763.865	60.7
764.044	60.93
764.222	61.71
764.401	60.81
764.579	61.01
764.758	60.98
764.936	60.9
765.114	60.8
765.293	61.23
765.471	61.73
765.65	60.6
765.828	60.67
766.006	60.45
766.184	60.19
766.363	59.93
766.541	60.08
766.719	60.45
766.898	60.73
767.076	61
767.254	60.5
767.432	60.92
767.61	60.52
767.788	60.95
767.967	60.81
768.145	60
768.323	61
768.501	61.06
768.679	61.12
768.857	61.35
769.035	60.5
769.213	60.37
769.391	59.45
769.569	62.06
769.747	60.88
769.925	61.69
770.103	62.33
770.281	62.35
770.459	61.63
770.636	61.93
770.814	62.03
770.992	61.93
771.17	62.36
771.348	61.51
771.525	60.5
771.703	60.46
771.881	59.48
772.059	60.05
772.236	59.13
772.414	57.83
772.592	56.46
772.769	55.65
772.947	56.47
773.125	56.65
773.302	58.31
773.48	57.9
773.657	59.27
773.835	59.6
774.013	58.5
774.19	58.56
774.368	60.21
774.545	61.47
774.723	61.59
774.9	60.88
775.077	61.63
775.255	60.63
775.432	60.83
775.61	59.24
775.787	61.03
775.964	62.68
776.142	62.63
776.319	63.49
776.496	63.29
776.674	63.72
776.851	66.23
777.028	64.47
777.205	64.53
777.382	63.82
777.56	64.33
777.737	61.32
777.914	61.32
778.091	60.29
778.268	59.94
778.445	60.32
778.622	58.87
778.8	55.98
778.977	57.46
779.154	56.13
779.331	54.63
779.508	55.98
779.685	56.67
779.862	56.6
780.038	57.69
780.215	57.58
780.392	56.87
780.569	58.99
780.746	60.58
780.923	60.72
781.1	62.37
781.277	63.43
781.453	59.82
781.63	60.15
781.807	60.56
781.984	60.99
782.16	58.84
782.337	58.43
782.514	56.99
782.691	56.26
782.867	56.65
783.044	56.6
783.221	57.55
783.397	59.87
783.574	60.35
783.75	58.98
783.927	59.84
784.103	60.57
784.28	61.21
784.456	62.25
784.633	62.01
784.809	60.75
784.986	62.02
785.162	62.78
785.339	62.54
785.515	60.91
785.692	61.39
785.868	60.54
786.044	62.42
786.221	64.86
786.397	64.86
786.573	65.61
786.749	65.51
786.926	62.95
787.102	59.86
787.278	59.67
787.454	61.75
787.631	61.54
787.807	60.35
787.983	58.57
788.159	56.91
788.335	55.19
788.511	55.92
788.687	56.52
788.863	55.1
789.039	57.12
789.216	58.54
789.392	57.89
789.568	58.4
789.744	57.01
789.919	58.5
790.095	57.84
790.271	58.48
790.447	58.47
790.623	57.44
790.799	59.12
790.975	60.14
791.151	59.53
791.327	60.48
791.502	60.16
791.678	64.42
791.854	65.29
792.03	67.04
792.205	68.88
792.381	69.33
792.557	71.54
792.733	71.78
792.908	69.22
793.084	66.16
793.259	64.75
793.435	64.58
793.611	60.36
793.786	58.23
793.962	58.9
794.137	57.59
794.313	57.57
794.488	55.07
794.664	55.98
794.839	56.69
795.015	57.84
795.19	59.42
795.366	60.2
795.541	61.12
795.716	62.18
795.892	60.21
796.067	60.41
796.242	58.79
796.418	59.88
796.593	57.76
796.768	58.79
796.944	60.59
797.119	57
797.294	55.4
797.469	55.57
797.644	54.19
797.82	55.98
797.995	56.3
798.17	56.71
798.345	55.88
798.52	57.01
798.695	54.95
798.87	56.1
799.045	60.36
799.22	60.52
799.395	62.65
799.57	63.98
799.745	63.36
799.92	63.5
800.095	62.52
800.27	62.1
800.445	63.79
800.62	65.31
800.795	62.14
800.97	59.47
801.145	61.42
801.319	61.71
801.494	61.12
801.669	61.08
801.844	61.58
802.018	63.99
802.193	63.35
802.368	59.92
802.543	58.64
802.717	60.46
802.892	60.96
803.067	58.57
803.241	57.37
803.416	54.72
803.59	54.46
803.765	52.57
803.94	51.55
804.114	52.97
804.289	53.25
804.463	52.26
804.638	53.94
804.812	54.21
804.986	55.14
805.161	55.03
805.335	58.25
805.51	58.22
805.684	61.82
805.858	61.42
806.033	59.7
806.207	61.3
806.381	63.14
806.556	59.81
806.73	59.05
806.904	59.69
807.078	57.85
807.253	55.52
807.427	54.45
807.601	52.82
807.775	53.89
807.949	54.88
808.123	54.88
808.298	56.68
808.472	57.76
808.646	57.93
808.82	57.05
808.994	58.36
809.168	58.6
809.342	60.33
809.516	56.38
809.69	54.22
809.864	53.64
810.038	51.25
810.212	49.15
810.385	51.72
810.559	53.79
810.733	53.02
810.907	51.76
811.081	53.31
811.255	52.25
811.428	53.09
811.602	54.34
811.776	53.53
811.95	54.09
812.123	55.97
812.297	54.89
812.471	51.44
812.644	51.63
812.818	53.3
812.992	52.63
813.165	53.28
813.339	54.55
813.512	55.47
813.686	58.9
813.86	63.21
814.033	61.95
814.207	60.77
814.38	60.44
814.554	58.99
814.727	58.05
814.9	55.06
815.074	53.72
815.247	53.9
815.421	52.89
815.594	54.14
815.767	51.53
815.941	52.01
816.114	51.19
816.287	56.23
816.46	58.61
816.634	60.83
816.807	65.35
816.98	65.82
817.153	63.03
817.327	63.88
817.5	62.32
817.673	60.51
817.846	64.28
818.019	64.8
818.192	63.14
818.365	59.86
818.538	58.84
818.711	58.08
818.884	55.61
819.057	55.08
819.23	54.91
819.403	55.34
819.576	58.45
819.749	57.19
819.922	56.07
820.095	54.84
820.268	56.22
820.441	56.85
820.614	55.14
820.786	58.33
820.959	59.14
821.132	58.78
821.305	56.64
821.477	55.22
821.65	52.95
821.823	53.08
821.996	53.01
822.168	52.98
822.341	53.16
822.514	54.07
822.686	52.82
822.859	52.5
823.031	52.55
823.204	53.38
823.376	53.7
823.549	53.79
823.722	53.98
823.894	54.93
824.067	55.51
824.239	55.2
824.411	54.69
824.584	55.28
824.756	55.47
824.929	55.06
825.101	55.37
825.273	55.7
825.446	56.09
825.618	56.66
825.79	55.89
825.963	55.19
826.135	55.39
826.307	54.56
826.479	54.03
826.652	55.73
826.824	56.39
826.996	56.05
827.168	55.41
827.34	55.72
827.512	53.96
827.684	53.96
827.856	54.73
828.029	54.31
828.201	54.81
828.373	54.96
828.545	53.52
828.717	53.22
828.889	52.03
829.061	53.04
829.232	52.6
829.404	53.24
829.576	52.5
829.748	50.97
829.92	52.06
830.092	53.24
830.264	53.67
830.436	53.07
830.607	52.63
830.779	53.02
830.951	52.04
831.123	51.78
831.294	52.76
831.466	54.71
831.638	57.26
831.809	54.63
831.981	53.41
832.153	50.48
832.324	49.5
832.496	50.79
832.667	51.53
832.839	52.87
833.011	53.5
833.182	53.22
833.354	51.28
833.525	51.46
833.697	52
833.868	53.09
834.039	55.85
834.211	57.22
834.382	55.75
834.554	55.23
834.725	55.07
834.896	53.95
835.068	54.69
835.239	56.24
835.41	54.15
835.581	55.49
835.753	54.69
835.924	53.56
836.095	55.21
836.266	56.32
836.438	58.05
836.609	56.02
836.78	56.86
836.951	58.98
837.122	57.73
837.293	59.01
837.464	57.12
837.635	59.34
837.806	62.04
837.977	59.92
838.148	61.32
838.319	57.46
838.49	58.86
838.661	60.97
838.832	59.79
839.003	59.34
839.174	56.8
839.345	58.56
839.516	54.69
839.687	50.51
839.857	47.94
840.028	42.84
840.199	44.13
840.37	44.07
840.54	42.41
840.711	40.81
840.882	44.02
841.053	44.66
841.223	43.68
841.394	44.18
841.564	47.33
841.735	48.69
841.906	47.67
842.076	48
842.247	41.67
842.417	41.08
842.588	41.26
842.758	38.64
842.929	37.47
843.099	36.37
843.27	37.74
843.44	35.9
843.611	31.74
843.781	37.45
843.951	42.44
844.122	52.56
844.292	55.12
844.462	50.33
844.633	48.7
844.803	54.9
844.973	51.71
845.144	47.27
845.314	47.27
845.484	52.98
845.654	48.48
845.824	47.32
845.995	51.64
846.165	44.78
846.335	47.19
846.505	56.04
846.675	61.45
846.845	60.89
847.015	62.73
847.185	58.42
847.355	58.81
847.525	63.91
847.695	59.28
847.865	54.41
848.035	60.27
848.205	54.43
848.375	51.19
848.545	44.95
848.715	46.79
848.884	50.07
849.054	49.27
849.224	48.16
849.394	39.35
849.564	31.44
849.733	37.23
849.903	50.16
850.073	63.15
850.243	53.67
850.412	50.98
850.582	54.31
850.752	49.85
850.921	60.1
851.091	64.34
851.26	66.12
851.43	79.94
851.599	66.1
851.769	47.79
851.939	31.33
852.108	29.83
852.278	22.18
852.447	17.8
852.616	30.17
852.786	26.85
852.955	26.5
853.125	35.34
853.294	37.86
853.463	39.87
853.633	44.56
853.802	58.6
853.971	66.8
854.141	77.97
854.31	80.05
854.479	63.09
854.648	62.1
854.818	58.42
854.987	37.45
855.156	44.07
855.325	47.06
855.494	53.93
855.663	56.18
855.832	52.27
856.001	46.26
856.171	46.67
856.34	51.63
856.509	52.28
856.678	51.84
856.847	60.68
857.016	50.23
857.185	50.61
857.353	55.18
857.522	45.33
857.691	46.88
857.86	52.49
858.029	44.45
858.198	50.14
858.367	51.32
858.535	56.16
858.704	61.41
858.873	70.89
859.042	66.13
859.21	43.03
859.379	59.36
859.548	46.4
859.717	37.59
859.885	44.86
860.054	36.52
860.222	26.21
860.391	22.1
860.56	23.57
860.728	22.3
860.897	15.49
861.065	28.98
861.234	22.19
861.402	33.93
861.571	32.29
861.739	32.29
861.908	35.71
862.076	41.16
862.244	38.71
862.413	40.21
862.581	38.72
862.749	42.93
862.918	38.08
863.086	44.19
863.254	34.52
863.423	36.7
863.591	37.97
863.759	34.5
863.927	30.6
864.096	37.38
864.264	32.33
864.432	38.01
864.6	38.93
864.768	34.05
864.936	36.43
865.104	36.63
865.272	38.01
865.44	42.97
865.608	42.89
865.776	43.51
865.944	51.05
866.112	50.54
866.28	46.03
866.448	49.06
866.616	58.12
866.784	51.47
866.952	58.07
867.12	63.35
867.288	57.44
867.455	62.36
867.623	69.66
867.791	68.5
867.959	80.52
868.127	85.68
868.294	89.05
868.462	83.14
868.63	78.9
868.797	72.87
868.965	69.97
869.133	74.1
869.3	67.7
869.468	58.88
869.636	27.58
869.803	15.06
869.971	28.01
870.138	18.84
870.306	17.95
870.473	14.47
870.641	16.26
870.808	29.06
870.975	4.82
871.143	11.95
871.31	15.89
871.478	36.69
871.645	44.01
871.812	29.26
871.98	30.93
872.147	42.09
872.314	52.02
872.482	51.44
872.649	42.23
872.816	43.1
872.983	33.76
873.15	47.36
873.318	55.31
873.485	45.34
873.652	46.05
873.819	47.84
873.986	54.96
874.153	48.23
874.32	48.14
874.487	44.23
874.654	49.96
874.821	60.04
874.988	50.45
875.155	46.6
875.322	54.13
875.489	57.34
875.656	48.75
875.823	29.43
875.99	21.88
876.157	23.46
876.324	29.72
876.49	33.15
876.657	36.27
876.824	37.17
876.991	31.76
877.157	26.78
877.324	26.64
877.491	30.43
877.658	32.81
877.824	33.44
877.991	32.83
878.157	35.04
878.324	32.34
878.491	29.23
878.657	32.87
878.824	32.15
878.99	26.32
879.157	22.48
879.323	32.75
879.49	37.78
879.656	48.35
879.823	45.81
879.989	46.2
880.156	44.04
880.322	38.87
880.488	42.49
880.655	44.12
880.821	45.27
880.987	41.42
881.154	40.72
881.32	42.74
881.486	38.3
881.652	39.74
881.819	40.54
881.985	39.97
882.151	40.79
882.317	40.01
882.483	40.88
882.649	41.73
882.816	45.96
882.982	45.04
883.148	43.21
883.314	44.79
883.48	43.08
883.646	41.67
883.812	42.93
883.978	41.49
884.144	40.27
884.31	38.71
884.476	37.82
884.642	37.23
884.807	36.75
884.973	37.38
885.139	36.32
885.305	37.06
885.471	38.27
885.637	36.95
885.802	37.94
885.968	38.29
886.134	40.34
886.3	42.45
886.465	39.97
886.631	40.04
886.797	41.63
886.962	44.46
887.128	45.46
887.293	48.47
887.459	50.37
887.625	53.64
887.79	54.76
887.956	53.99
888.121	54.57
888.287	58.95
888.452	61.88
888.618	58.74
888.783	56.02
