Data from CB_114_Reflection_2.txt Node
Date: Sat Nov 14 19:00:45 EST 2015
User: robert
Spectrometer: USB4E03001
Autoset integration time: false
Trigger mode: 4
Integration Time (sec): 1.000000E-1
Scans to average: 15
Electric dark correction enabled: true
Nonlinearity correction enabled: false
Boxcar width: 5
Stray light correction enabled: false
XAxis mode: Wavelengths
Stop averaging: false
Number of Pixels in Spectrum: 3648
>>>>>Begin Spectral Data<<<<<
177.566	46.54
177.785	51.27
178.005	66.82
178.225	82.06
178.445	152.43
178.665	193.94
178.885	173.27
179.105	65.03
179.324	32.89
179.544	-3712.28
179.764	-1.61
179.984	11.4
180.204	18.67
180.423	16.1
180.643	-34.44
180.863	-34.16
181.083	-27.78
181.302	-47.7
181.522	-501.53
181.742	-652.17
181.961	-147.25
182.181	-308.08
182.401	-108.17
182.621	-49.72
182.84	-36.54
183.06	85.59
183.279	-236.28
183.499	-69.13
183.719	-16.65
183.938	20.44
184.158	-52.47
184.377	-151.56
184.597	-76.76
184.816	-39.16
185.036	-20.12
185.256	-6.16
185.475	23.09
185.695	29.23
185.914	35.89
186.134	49.98
186.353	60.67
186.572	61.42
186.792	80.2
187.011	96.92
187.231	112.21
187.45	113.6
187.67	272.67
187.889	242.5
188.108	43.75
188.328	52.3
188.547	82.38
188.766	14.41
188.986	-1.47
189.205	111.37
189.424	102.63
189.644	143.13
189.863	198.81
190.082	237.01
190.302	165.34
190.521	78.87
190.74	26.67
190.959	29.38
191.178	10.2
191.398	-18.6
191.617	-103.12
191.836	-63.29
192.055	-45.06
192.274	-76.79
192.494	-561.21
192.713	2795.06
192.932	-745.66
193.151	565.89
193.37	352.73
193.589	230.89
193.808	78.59
194.027	26.02
194.246	64.27
194.465	39.55
194.685	11.33
194.904	78.61
195.123	124.84
195.342	158.54
195.561	105.35
195.78	66.98
195.999	105.11
196.218	134.73
196.436	172.86
196.655	164.52
196.874	644.35
197.093	387.43
197.312	5108.33
197.531	42.2
197.75	115.21
197.969	110.64
198.188	91.93
198.407	109.52
198.625	141.41
198.844	73.73
199.063	89.44
199.282	98
199.501	171.51
199.719	254.69
199.938	9.94
200.157	41.94
200.376	52.25
200.594	171
200.813	124.9
201.032	201.83
201.251	79.51
201.469	100.6
201.688	70.68
201.907	70.7
202.125	59.41
202.344	61.59
202.563	78.96
202.781	69.67
203	55.63
203.218	91.4
203.437	94.09
203.656	209.58
203.874	444
204.093	422.18
204.311	-160.28
204.53	-111.21
204.748	-50.47
204.967	-62.24
205.185	-54.32
205.404	-43.53
205.622	-18.43
205.841	-62.45
206.059	11.1
206.278	-168.09
206.496	26.18
206.715	44.18
206.933	-26.4
207.151	-77.79
207.37	-39.22
207.588	-114.06
207.806	-156.37
208.025	-167.23
208.243	-102.77
208.461	57.41
208.68	180.93
208.898	63.65
209.116	-318.57
209.335	177.59
209.553	281.44
209.771	8.44
209.989	-150.35
210.208	74.6
210.426	42.6
210.644	-4
210.862	-18.12
211.081	5.04
211.299	67.94
211.517	-109.3
211.735	191.25
211.953	209.91
212.171	53.3
212.39	117.92
212.608	203.36
212.826	220.79
213.044	-105.38
213.262	1454.55
213.48	50.72
213.698	132.71
213.916	18.78
214.134	-2.07
214.352	-73.69
214.57	-110.71
214.788	-808.31
215.006	-222.41
215.224	1137.68
215.442	-189.6
215.66	-342.72
215.878	879.53
216.096	217.27
216.314	169.56
216.532	120.36
216.75	121.15
216.968	89.15
217.185	124.88
217.403	189.26
217.621	162.93
217.839	101.98
218.057	100.21
218.275	185.51
218.492	86.5
218.71	187.52
218.928	-484.11
219.146	50.41
219.363	5.75
219.581	-47.55
219.799	-50.23
220.017	-139.09
220.234	-76.86
220.452	-124.04
220.67	-57.83
220.887	-175.08
221.105	-108
221.323	-414.08
221.54	-237.46
221.758	-590.87
221.976	837.05
222.193	527.16
222.411	300.03
222.629	-3740.08
222.846	-1719.48
223.064	2374.34
223.281	-170.37
223.499	442.61
223.716	-100.53
223.934	135.03
224.151	1044.74
224.369	-83.06
224.586	-8.03
224.804	-21.42
225.021	-9.82
225.239	-1.51
225.456	15.3
225.674	19.77
225.891	-7.18
226.108	-23.26
226.326	-14.44
226.543	6.29
226.76	1.43
226.978	14.78
227.195	23.39
227.413	13.64
227.63	8.64
227.847	14.39
228.064	9.15
228.282	15.14
228.499	15.52
228.716	14.33
228.934	13.07
229.151	13.34
229.368	9.47
229.585	7.27
229.802	10.37
230.02	12.54
230.237	12.12
230.454	12.29
230.671	11.77
230.888	10.21
231.105	14.71
231.323	15.93
231.54	13.73
231.757	13.44
231.974	11.26
232.191	8.68
232.408	2.71
232.625	-4.37
232.842	5.49
233.059	7.93
233.276	10.13
233.493	10.12
233.71	9.75
233.927	6.89
234.144	8.91
234.361	10.25
234.578	4.05
234.795	4.01
235.012	5.47
235.229	1.85
235.446	0.57
235.663	2.76
235.879	2.57
236.096	4.24
236.313	14.59
236.53	12.86
236.747	9.23
236.964	16.7
237.181	20.18
237.397	27.44
237.614	23.43
237.831	22.69
238.048	19.23
238.264	18.74
238.481	20.62
238.698	18.98
238.915	16.46
239.131	21.15
239.348	18.78
239.565	18.86
239.781	7.98
239.998	10.78
240.215	10.66
240.431	10.12
240.648	6.05
240.865	5.86
241.081	5.47
241.298	6.5
241.514	5.42
241.731	7.29
241.947	6.18
242.164	7.56
242.38	6.97
242.597	6.44
242.814	7.68
243.03	10.22
243.246	8.12
243.463	5.82
243.679	6.62
243.896	5.34
244.112	3.97
244.329	4.34
244.545	5.67
244.762	8.32
244.978	5.57
245.194	4.31
245.411	2.82
245.627	5.59
245.843	8.21
246.06	6.7
246.276	6.77
246.492	6.86
246.709	7.13
246.925	7.35
247.141	6.34
247.357	8.1
247.574	7.54
247.79	7.46
248.006	7.41
248.222	7.81
248.439	8.82
248.655	9.66
248.871	9.23
249.087	10.17
249.303	9.57
249.519	9.92
249.736	9.02
249.952	9.87
250.168	9.94
250.384	10.63
250.6	9.62
250.816	8.28
251.032	7.03
251.248	7.63
251.464	5.6
251.68	6.38
251.896	6.12
252.112	6.02
252.328	5.17
252.544	5.04
252.76	4.34
252.976	5.03
253.192	5.08
253.408	5.23
253.624	3.21
253.84	1.61
254.056	2.07
254.272	1.18
254.487	1.89
254.703	5.14
254.919	6.57
255.135	7.79
255.351	7.15
255.567	6.53
255.782	5.96
255.998	11.7
256.214	12.76
256.43	9.85
256.646	11.93
256.861	13.48
257.077	14.62
257.293	14.44
257.508	11.92
257.724	9.2
257.94	10.13
258.155	10.6
258.371	9.08
258.587	9.12
258.802	7.86
259.018	6.31
259.234	5.48
259.449	4.87
259.665	5.77
259.88	6.13
260.096	7.57
260.312	6.97
260.527	6.73
260.743	5.91
260.958	5.74
261.174	7.48
261.389	7.71
261.605	6.98
261.82	6.04
262.036	5.01
262.251	5.61
262.466	3.66
262.682	2.89
262.897	2.86
263.113	3.73
263.328	4.72
263.543	2.78
263.759	2.88
263.974	4.33
264.189	5.7
264.405	5.82
264.62	2.96
264.835	4.38
265.051	7.61
265.266	6.84
265.481	5.59
265.696	5.88
265.912	5.85
266.127	6.52
266.342	4.89
266.557	4.06
266.773	3.19
266.988	4.19
267.203	3.73
267.418	5.13
267.633	5.41
267.848	7.08
268.064	5.32
268.279	5.62
268.494	5.3
268.709	5.98
268.924	6.53
269.139	7.98
269.354	7.06
269.569	7.62
269.784	6.02
269.999	6.76
270.214	4.45
270.429	6.35
270.644	4.39
270.859	4.33
271.074	5.27
271.289	5.05
271.504	4.89
271.719	6.15
271.934	5.07
272.149	4.57
272.363	4.2
272.578	5.32
272.793	4.85
273.008	6.42
273.223	7.11
273.438	7.09
273.653	7.12
273.867	6.05
274.082	5.74
274.297	5.99
274.512	6.16
274.726	6.33
274.941	7.03
275.156	6.92
275.371	6.51
275.585	4.53
275.8	4.63
276.015	4.62
276.229	5.72
276.444	6.25
276.659	5.94
276.873	5.57
277.088	5.08
277.302	4.15
277.517	4.37
277.732	5.45
277.946	6.46
278.161	6.51
278.375	6.41
278.59	6.74
278.804	5.44
279.019	7.1
279.233	7.43
279.448	8.22
279.662	9.04
279.877	10.05
280.091	9.61
280.306	9.58
280.52	9.61
280.735	8.91
280.949	8.6
281.163	9.67
281.378	9.15
281.592	8.8
281.806	8.16
282.021	8.75
282.235	7.11
282.449	7.12
282.664	7.7
282.878	4.85
283.092	6.29
283.307	6.29
283.521	5.13
283.735	5.11
283.949	5.28
284.164	5.6
284.378	5.07
284.592	4.5
284.806	3.97
285.02	3.03
285.234	5.82
285.449	5.38
285.663	4.85
285.877	5.63
286.091	4.79
286.305	4.76
286.519	4.92
286.733	4.25
286.947	5.62
287.161	5.63
287.375	5.24
287.589	5.16
287.803	5.84
288.017	6.71
288.231	6.18
288.445	6.85
288.659	6.97
288.873	6.94
289.087	7.27
289.301	6.57
289.515	6.22
289.729	6.65
289.943	5.89
290.157	4.88
290.371	4.5
290.584	6.27
290.798	7.82
291.012	8.36
291.226	7.86
291.44	9.27
291.654	9.08
291.867	9.81
292.081	11.11
292.295	11.7
292.509	11.9
292.722	11.85
292.936	8.39
293.15	6.91
293.364	5.5
293.577	6.44
293.791	4.99
294.005	5.99
294.218	5.78
294.432	5.01
294.645	5.25
294.859	6.2
295.073	6.85
295.286	9.64
295.5	9.99
295.713	10.51
295.927	9.63
296.14	9.23
296.354	8.72
296.568	8.88
296.781	9.27
296.994	8.41
297.208	7.72
297.421	7.42
297.635	6.81
297.848	6.32
298.062	6.06
298.275	6.08
298.489	6.43
298.702	6.25
298.915	5.77
299.129	5.72
299.342	6.09
299.555	5.78
299.769	6.23
299.982	6.81
300.195	7.4
300.409	7.22
300.622	7.24
300.835	6.85
301.048	7.3
301.262	7.08
301.475	5.84
301.688	6.01
301.901	5.24
302.115	5.44
302.328	4.55
302.541	3.46
302.754	3.47
302.967	3.55
303.18	3.64
303.393	3.46
303.607	3.66
303.82	4.85
304.033	4.74
304.246	6.4
304.459	5.08
304.672	4.42
304.885	5.8
305.098	6.54
305.311	7.85
305.524	8.59
305.737	8.73
305.95	9.27
306.163	9.63
306.376	9.4
306.589	9.3
306.802	11.16
307.015	11.85
307.228	11.79
307.44	11.95
307.653	10.96
307.866	10.24
308.079	10.89
308.292	10.9
308.505	10.5
308.718	10.32
308.93	11.05
309.143	9.44
309.356	10.1
309.569	10.42
309.781	10.51
309.994	10.67
310.207	11.35
310.42	10.96
310.632	10.7
310.845	10.79
311.058	11.39
311.27	10.46
311.483	10.46
311.696	9.64
311.908	8.21
312.121	7.19
312.333	7.44
312.546	7.54
312.759	7.24
312.971	6.88
313.184	6.83
313.396	6.57
313.609	6.44
313.821	7.02
314.034	7.3
314.246	8.18
314.459	9.37
314.671	9.21
314.884	9.01
315.096	8.68
315.309	9.65
315.521	9.08
315.733	8.18
315.946	8.09
316.158	8.6
316.371	9.05
316.583	9.5
316.795	9.17
317.008	8.58
317.22	7.28
317.432	6.35
317.644	6.93
317.857	7.57
318.069	8.84
318.281	8.83
318.494	8.45
318.706	9.35
318.918	8.96
319.13	9.8
319.342	10.18
319.555	10.44
319.767	10.83
319.979	8.69
320.191	9.03
320.403	7.85
320.615	8.3
320.827	8.93
321.039	7.93
321.252	7.92
321.464	8.47
321.676	9.42
321.888	10.44
322.1	12.19
322.312	13.42
322.524	12.83
322.736	14.61
322.948	14.87
323.16	13.53
323.372	13.23
323.584	13.27
323.796	12.59
324.007	11.8
324.219	11.42
324.431	10.53
324.643	9.64
324.855	10
325.067	9.74
325.279	9.17
325.491	9.21
325.702	9.83
325.914	10
326.126	9.19
326.338	9.03
326.55	9.33
326.761	9.62
326.973	10.55
327.185	9.96
327.396	11.29
327.608	13.14
327.82	14.86
328.032	14.81
328.243	15.63
328.455	16.01
328.666	17.17
328.878	17.83
329.09	18.8
329.301	18.84
329.513	19.23
329.725	18.74
329.936	18.23
330.148	18.53
330.359	19.1
330.571	19.31
330.782	21.08
330.994	21.66
331.205	22.62
331.417	22.23
331.628	23.97
331.84	24.17
332.051	23.01
332.262	22.79
332.474	22.85
332.685	23.71
332.897	23.53
333.108	22.85
333.319	22.84
333.531	21.4
333.742	21.74
333.953	20.28
334.165	21.71
334.376	22.45
334.587	22.65
334.799	22.39
335.01	21.31
335.221	21.34
335.432	20.7
335.644	19.98
335.855	20.54
336.066	20.36
336.277	21.12
336.488	21.17
336.7	21.41
336.911	21.41
337.122	20.65
337.333	20.54
337.544	20.99
337.755	20.86
337.966	21.62
338.177	22.21
338.388	22.91
338.599	23.39
338.811	23.12
339.022	23.54
339.233	23.23
339.444	23.55
339.655	24.27
339.866	25.26
340.076	25.79
340.287	25.12
340.498	24.78
340.709	23.99
340.92	23.87
341.131	24.07
341.342	23.92
341.553	23.61
341.764	23.76
341.975	22.98
342.185	21.67
342.396	22.09
342.607	22.84
342.818	23.4
343.029	23.07
343.239	22.99
343.45	23.05
343.661	22.36
343.872	22.01
344.082	22.31
344.293	22.64
344.504	22.89
344.714	22.32
344.925	21.74
345.136	21.85
345.346	22.58
345.557	21.85
345.768	21.01
345.978	21.39
346.189	22.47
346.399	22.54
346.61	21.81
346.821	21.88
347.031	21.62
347.242	21.68
347.452	20.75
347.663	20.28
347.873	20.08
348.084	20
348.294	19.9
348.504	19.6
348.715	18.9
348.925	19.24
349.136	19.61
349.346	20.6
349.557	20.67
349.767	21.51
349.977	21.75
350.188	22.9
350.398	23.15
350.608	23.32
350.819	23.68
351.029	22.94
351.239	23.01
351.449	22.25
351.66	22.42
351.87	22.7
352.08	22.16
352.29	21.82
352.501	20.66
352.711	20.8
352.921	20.78
353.131	20.84
353.341	21.12
353.552	21.46
353.762	22
353.972	20.54
354.182	19.96
354.392	20.23
354.602	20.85
354.812	21.17
355.022	20.77
355.232	21.08
355.442	20.18
355.652	20.92
355.862	21.5
356.072	21.58
356.282	22.52
356.492	22.63
356.702	22.48
356.912	22.46
357.122	22.25
357.332	22.64
357.542	21.9
357.752	22.75
357.962	23.07
358.171	22.93
358.381	22.14
358.591	21.41
358.801	21.22
359.011	20.79
359.221	20.77
359.43	21.53
359.64	21.78
359.85	21.63
360.06	20.86
360.269	20.83
360.479	20.8
360.689	20.98
360.899	21.54
361.108	21.62
361.318	22.35
361.528	21.62
361.737	20.56
361.947	20.17
362.156	20.31
362.366	20.75
362.576	20.36
362.785	20.42
362.995	20.37
363.204	20.24
363.414	20.87
363.623	20.42
363.833	21.12
364.042	21.98
364.252	22.11
364.461	22.12
364.671	22.18
364.88	22.3
365.09	21.53
365.299	21.85
365.509	21.86
365.718	21.09
365.927	21.15
366.137	20.45
366.346	20.26
366.555	20.44
366.765	20.04
366.974	19.31
367.183	19.14
367.393	19.6
367.602	19.59
367.811	19.67
368.021	19.48
368.23	19.58
368.439	19.84
368.648	19.7
368.857	18.94
369.067	19.28
369.276	19.42
369.485	19.33
369.694	18.63
369.903	18.86
370.112	18.79
370.321	19.31
370.531	18.93
370.74	18.67
370.949	18.47
371.158	18.69
371.367	18.99
371.576	18.63
371.785	19.2
371.994	19.76
372.203	18.82
372.412	17.99
372.621	17.95
372.83	17.71
373.039	18.22
373.248	18.34
373.457	18
373.666	17.65
373.874	17.89
374.083	17.65
374.292	17.87
374.501	18.28
374.71	19.08
374.919	18.81
375.128	18.79
375.336	18.23
375.545	18.62
375.754	18.44
375.963	18.31
376.171	18.45
376.38	18.5
376.589	18.25
376.798	18.46
377.006	18.55
377.215	18.03
377.424	17.69
377.632	18.02
377.841	17.7
378.05	17.84
378.258	18.15
378.467	18.04
378.675	17.27
378.884	17.17
379.093	17.08
379.301	17.03
379.51	17.45
379.718	17.78
379.927	17.89
380.135	17.89
380.344	18.38
380.552	18.26
380.761	18.33
380.969	19.01
381.177	18.49
381.386	18.24
381.594	18.38
381.803	18.36
382.011	18.18
382.219	17.82
382.428	17.48
382.636	17.63
382.845	17.22
383.053	17.43
383.261	17.54
383.469	18.31
383.678	18.48
383.886	17.78
384.094	17.74
384.302	17.97
384.511	18.3
384.719	18.37
384.927	18.04
385.135	17.93
385.343	17.63
385.552	17.52
385.76	17.26
385.968	17.15
386.176	17.02
386.384	17.03
386.592	16.37
386.8	16.01
387.008	15.85
387.216	15.45
387.424	15.9
387.633	15.91
387.841	15.33
388.049	15.19
388.257	15.15
388.465	15.69
388.672	15.51
388.88	16.09
389.088	15.99
389.296	15.96
389.504	15.92
389.712	15.85
389.92	15.45
390.128	15.73
390.336	15.71
390.544	15.69
390.751	15.48
390.959	15.61
391.167	15.15
391.375	14.88
391.583	15.11
391.79	14.84
391.998	14.82
392.206	15.3
392.414	15.47
392.621	15.54
392.829	15.51
393.037	15.51
393.244	15.65
393.452	15.98
393.66	16.25
393.867	16.17
394.075	16.72
394.283	16.32
394.49	16.06
394.698	15.56
394.905	15.38
395.113	15.26
395.32	14.99
395.528	14.99
395.735	14.86
395.943	14.69
396.15	14.43
396.358	14.52
396.565	14.52
396.773	14.6
396.98	14.88
397.188	14.74
397.395	15.07
397.602	15.54
397.81	15.25
398.017	15.41
398.225	15.4
398.432	15.65
398.639	15.14
398.847	15.12
399.054	14.86
399.261	14.75
399.468	14.8
399.676	14.71
399.883	14.38
400.09	14.49
400.297	14.11
400.505	14.3
400.712	14.44
400.919	14.43
401.126	14.87
401.333	15.1
401.54	15.21
401.748	14.97
401.955	14.93
402.162	14.93
402.369	14.83
402.576	15.44
402.783	15.66
402.99	15.6
403.197	15.97
403.404	15.67
403.611	15.74
403.818	15.71
404.025	15.78
404.232	15.73
404.439	15.73
404.646	15.77
404.853	15.54
405.06	15.54
405.267	15.38
405.474	15.09
405.681	15.06
405.887	15.01
406.094	15.01
406.301	15.54
406.508	15.67
406.715	15.96
406.922	15.57
407.128	15.58
407.335	15.56
407.542	15.85
407.749	16.01
407.955	16.5
408.162	16.38
408.369	16.54
408.575	16.2
408.782	16.29
408.989	16.35
409.195	16.9
409.402	17.18
409.609	16.8
409.815	16.7
410.022	16.93
410.228	16.55
410.435	16.74
410.642	16.73
410.848	16.75
411.055	16.5
411.261	16.51
411.468	16.39
411.674	16.4
411.881	16.71
412.087	16.9
412.294	16.75
412.5	16.88
412.706	17.03
412.913	17.13
413.119	17.32
413.326	17.42
413.532	17.34
413.738	17.36
413.945	17.12
414.151	17.01
414.357	16.79
414.564	16.94
414.77	17.12
414.976	16.89
415.182	16.71
415.389	16.65
415.595	16.77
415.801	16.54
416.007	16.76
416.214	16.59
416.42	16.72
416.626	16.74
416.832	16.74
417.038	16.69
417.244	16.89
417.45	17.01
417.657	17.09
417.863	16.99
418.069	17.35
418.275	17.2
418.481	17.41
418.687	17.26
418.893	17.4
419.099	17.47
419.305	17.38
419.511	17.38
419.717	17.34
419.923	17.31
420.129	17.35
420.335	17.23
420.541	17.2
420.746	17.26
420.952	17.51
421.158	17.4
421.364	17.28
421.57	17.37
421.776	17.33
421.982	17.37
422.187	17.53
422.393	17.65
422.599	17.67
422.805	17.59
423.01	17.54
423.216	17.41
423.422	17.47
423.628	17.52
423.833	17.58
424.039	17.67
424.245	17.71
424.45	17.62
424.656	17.57
424.862	17.7
425.067	17.86
425.273	17.83
425.478	17.81
425.684	17.87
425.889	17.87
426.095	17.61
426.301	17.53
426.506	17.51
426.712	17.53
426.917	17.5
427.123	17.35
427.328	17.35
427.533	17.59
427.739	17.54
427.944	17.63
428.15	17.71
428.355	18.01
428.561	18.06
428.766	18.05
428.971	18.03
429.177	17.87
429.382	17.97
429.587	17.89
429.793	17.77
429.998	17.86
430.203	17.69
430.408	17.59
430.614	17.75
430.819	17.56
431.024	17.44
431.229	17.38
431.434	17.49
431.64	17.35
431.845	17.37
432.05	17.29
432.255	17.37
432.46	17.52
432.665	17.69
432.87	17.59
433.076	17.78
433.281	17.69
433.486	17.93
433.691	17.82
433.896	17.87
434.101	17.86
434.306	17.76
434.511	17.74
434.716	17.73
434.921	17.66
435.126	17.7
435.331	17.6
435.535	17.79
435.74	17.62
435.945	17.82
436.15	17.9
436.355	18.07
436.56	18.18
436.765	18.3
436.97	18.38
437.174	18.58
437.379	18.58
437.584	18.58
437.789	18.59
437.993	18.63
438.198	18.61
438.403	18.59
438.608	18.63
438.812	18.72
439.017	18.6
439.222	18.33
439.426	18.21
439.631	18.27
439.836	18.41
440.04	18.56
440.245	18.7
440.45	18.73
440.654	18.76
440.859	18.53
441.063	18.52
441.268	18.58
441.472	18.79
441.677	18.78
441.881	18.69
442.086	18.54
442.29	18.48
442.495	18.19
442.699	18.2
442.904	18.07
443.108	18.31
443.312	18.34
443.517	18.26
443.721	18.14
443.925	18.16
444.13	18.31
444.334	18.49
444.538	18.37
444.743	18.46
444.947	18.43
445.151	18.39
445.356	18.29
445.56	18.27
445.764	18.4
445.968	18.38
446.173	18.41
446.377	18.23
446.581	18.23
446.785	18.22
446.989	18.11
447.193	18.06
447.398	18.02
447.602	18.11
447.806	18.13
448.01	17.93
448.214	18.03
448.418	17.91
448.622	17.89
448.826	17.82
449.03	17.89
449.234	17.88
449.438	17.93
449.642	18.01
449.846	18
450.05	17.79
450.254	17.92
450.458	17.83
450.662	17.84
450.866	17.9
451.069	17.95
451.273	17.91
451.477	17.97
451.681	17.97
451.885	18.02
452.089	17.92
452.292	18.09
452.496	18.13
452.7	18.23
452.904	18.43
453.107	18.4
453.311	18.42
453.515	18.3
453.719	18.48
453.922	18.36
454.126	18.27
454.33	18.19
454.533	18.2
454.737	18.19
454.94	17.91
455.144	17.67
455.348	17.8
455.551	17.66
455.755	17.72
455.958	17.49
456.162	17.41
456.365	17.47
456.569	17.53
456.772	17.31
456.976	17.13
457.179	17.28
457.383	17.34
457.586	17.26
457.79	17.22
457.993	17.23
458.196	17.36
458.4	17.43
458.603	17.49
458.807	17.45
459.01	17.56
459.213	17.68
459.417	17.72
459.62	17.58
459.823	17.62
460.026	17.73
460.23	17.78
460.433	17.73
460.636	17.74
460.839	17.72
461.042	17.75
461.246	17.87
461.449	17.88
461.652	17.86
461.855	17.95
462.058	17.94
462.261	17.97
462.464	17.93
462.668	18.18
462.871	18.28
463.074	18.31
463.277	18.34
463.48	18.24
463.683	18.39
463.886	18.24
464.089	18.41
464.292	18.37
464.495	18.3
464.698	18.41
464.901	18.21
465.104	18.16
465.306	18
465.509	18.14
465.712	18
465.915	17.77
466.118	17.95
466.321	17.88
466.524	17.89
466.726	18.02
466.929	17.99
467.132	18.07
467.335	18.07
467.538	18.36
467.74	18.38
467.943	18.46
468.146	18.61
468.348	18.56
468.551	18.61
468.754	18.88
468.956	18.74
469.159	18.8
469.362	18.64
469.564	18.71
469.767	18.69
469.969	18.76
470.172	18.98
470.375	18.95
470.577	19.14
470.78	19.24
470.982	19.21
471.185	19.2
471.387	19.27
471.59	19.52
471.792	19.31
471.995	19.35
472.197	19.31
472.399	19.28
472.602	19.32
472.804	19.18
473.007	19.27
473.209	19.28
473.411	19.22
473.614	19.28
473.816	19.15
474.018	19.4
474.22	19.45
474.423	19.31
474.625	19.28
474.827	19.27
475.03	19.52
475.232	19.29
475.434	19.08
475.636	19.35
475.838	19.24
476.04	19.13
476.243	19.24
476.445	19.19
476.647	19.29
476.849	19.4
477.051	19.41
477.253	19.26
477.455	19.32
477.657	19.52
477.859	19.62
478.061	19.71
478.263	19.88
478.465	19.84
478.667	19.73
478.869	19.8
479.071	19.73
479.273	19.8
479.475	19.79
479.677	19.83
479.879	19.65
480.081	19.39
480.283	19.38
480.485	19.45
480.686	19.31
480.888	19.37
481.09	19.24
481.292	19.38
481.494	19.26
481.695	19.26
481.897	19.41
482.099	19.53
482.301	19.7
482.502	19.59
482.704	19.59
482.906	19.69
483.107	19.78
483.309	19.78
483.511	19.73
483.712	19.75
483.914	19.71
484.115	19.71
484.317	19.73
484.519	19.73
484.72	19.76
484.922	19.72
485.123	19.74
485.325	19.73
485.526	19.81
485.728	19.81
485.929	19.89
486.131	19.98
486.332	19.97
486.534	19.9
486.735	19.96
486.936	19.95
487.138	20.06
487.339	20.1
487.541	20.05
487.742	20.02
487.943	20.02
488.144	19.99
488.346	20.03
488.547	20.04
488.748	20.09
488.95	20.04
489.151	20.09
489.352	20.07
489.553	20.08
489.755	20.12
489.956	20.18
490.157	20.32
490.358	20.43
490.559	20.53
490.76	20.59
490.961	20.72
491.163	20.77
491.364	20.86
491.565	20.95
491.766	21
491.967	20.98
492.168	20.99
492.369	21.05
492.57	21.02
492.771	21
492.972	21.01
493.173	21.05
493.374	21.06
493.575	21.16
493.776	21.17
493.976	21.18
494.177	21.46
494.378	21.69
494.579	21.74
494.78	21.82
494.981	21.91
495.182	22.06
495.382	22.12
495.583	22.27
495.784	22.29
495.985	22.16
496.185	22.04
496.386	22.11
496.587	22.1
496.788	22.02
496.988	22.24
497.189	22.35
497.39	22.39
497.59	22.53
497.791	22.61
497.992	22.83
498.192	23.11
498.393	23.31
498.593	23.3
498.794	23.38
498.994	23.56
499.195	23.46
499.395	23.45
499.596	23.58
499.796	23.5
499.997	23.57
500.197	23.52
500.398	23.62
500.598	23.85
500.799	23.94
500.999	24.02
501.199	24.12
501.4	24.24
501.6	24.37
501.801	24.53
502.001	24.79
502.201	24.83
502.402	24.85
502.602	24.85
502.802	24.88
503.002	24.75
503.203	24.72
503.403	24.74
503.603	24.92
503.803	25.06
504.003	25.07
504.204	25.05
504.404	25.39
504.604	25.32
504.804	25.39
505.004	25.48
505.204	25.76
505.404	26.02
505.604	26.3
505.804	26.39
506.005	26.53
506.205	26.58
506.405	26.56
506.605	26.41
506.805	26.72
507.005	26.88
507.204	26.92
507.404	27.07
507.604	27.03
507.804	26.88
508.004	26.99
508.204	27.03
508.404	27.14
508.604	27.39
508.804	27.45
509.003	27.45
509.203	27.51
509.403	27.65
509.603	27.52
509.803	27.48
510.002	27.6
510.202	27.55
510.402	27.66
510.602	27.64
510.801	27.65
511.001	27.66
511.201	27.8
511.4	27.8
511.6	27.71
511.8	27.92
511.999	28.15
512.199	28.33
512.398	28.47
512.598	28.5
512.797	28.58
512.997	28.58
513.197	28.74
513.396	28.67
513.596	28.86
513.795	29.03
513.994	29.06
514.194	29.11
514.393	29.22
514.593	29.1
514.792	29.08
514.992	29.15
515.191	29.3
515.39	29.17
515.59	29.26
515.789	29.17
515.988	29.21
516.188	29.21
516.387	29.2
516.586	29.03
516.786	29.26
516.985	29.47
517.184	29.72
517.383	29.83
517.582	29.98
517.782	30.12
517.981	30.21
518.18	30.28
518.379	30.38
518.578	30.43
518.777	30.59
518.976	30.57
519.176	30.58
519.375	30.6
519.574	30.58
519.773	30.74
519.972	30.73
520.171	30.72
520.37	30.81
520.569	30.8
520.768	30.91
520.967	30.89
521.166	31
521.365	30.98
521.564	30.86
521.762	30.98
521.961	30.89
522.16	30.88
522.359	30.94
522.558	30.87
522.757	31.05
522.956	31
523.154	31.17
523.353	31.12
523.552	31.2
523.751	31.16
523.949	31.06
524.148	31.1
524.347	31.17
524.546	31.23
524.744	31.35
524.943	31.27
525.142	31.41
525.34	31.22
525.539	31.3
525.737	31.32
525.936	31.37
526.135	31.42
526.333	31.44
526.532	31.41
526.73	31.47
526.929	31.43
527.127	31.49
527.326	31.43
527.524	31.44
527.723	31.53
527.921	31.51
528.12	31.6
528.318	31.66
528.516	31.68
528.715	31.75
528.913	31.73
529.112	31.75
529.31	31.74
529.508	31.78
529.707	31.93
529.905	31.83
530.103	31.82
530.301	31.85
530.5	31.85
530.698	31.87
530.896	31.85
531.094	31.87
531.293	31.86
531.491	31.82
531.689	31.84
531.887	31.8
532.085	31.85
532.283	31.98
532.481	31.95
532.68	31.94
532.878	31.99
533.076	32.08
533.274	32.1
533.472	32.15
533.67	32.25
533.868	32.33
534.066	32.27
534.264	32.26
534.462	32.14
534.66	32.13
534.858	32.16
535.056	32.09
535.253	32
535.451	31.98
535.649	31.98
535.847	31.95
536.045	31.93
536.243	31.96
536.441	32.13
536.638	32.3
536.836	32.27
537.034	32.24
537.232	32.26
537.43	32.24
537.627	32.35
537.825	32.42
538.023	32.47
538.22	32.5
538.418	32.58
538.616	32.52
538.813	32.53
539.011	32.69
539.209	32.72
539.406	32.79
539.604	32.81
539.801	32.78
539.999	32.82
540.196	32.8
540.394	32.61
540.591	32.52
540.789	32.58
540.986	32.59
541.184	32.57
541.381	32.55
541.579	32.59
541.776	32.69
541.974	32.62
542.171	32.5
542.368	32.55
542.566	32.62
542.763	32.75
542.96	32.75
543.158	32.77
543.355	32.82
543.552	32.91
543.75	32.91
543.947	32.86
544.144	32.97
544.341	33.14
544.539	33.13
544.736	33.25
544.933	33.09
545.13	33.12
545.327	33.08
545.524	32.94
545.722	32.86
545.919	32.85
546.116	32.83
546.313	32.8
546.51	32.75
546.707	32.82
546.904	32.77
547.101	32.88
547.298	32.75
547.495	32.87
547.692	32.98
547.889	33.11
548.086	33.17
548.283	33.23
548.48	33.33
548.677	33.33
548.874	33.18
549.07	33.22
549.267	33.12
549.464	33.26
549.661	33.07
549.858	33.22
550.055	33.13
550.251	33.07
550.448	33.17
550.645	33.22
550.842	33.16
551.038	33.37
551.235	33.55
551.432	33.67
551.628	33.67
551.825	33.74
552.022	33.67
552.218	33.71
552.415	33.82
552.612	33.85
552.808	33.69
553.005	33.92
553.201	33.75
553.398	33.66
553.594	33.69
553.791	33.7
553.987	33.73
554.184	33.77
554.38	33.92
554.577	33.84
554.773	33.73
554.97	33.82
555.166	33.71
555.362	33.77
555.559	33.82
555.755	34.01
555.952	34.14
556.148	34.12
556.344	34.28
556.541	34.08
556.737	34.08
556.933	34.06
557.129	34.14
557.326	34.1
557.522	34.05
557.718	33.9
557.914	33.76
558.11	33.81
558.307	33.83
558.503	33.56
558.699	33.47
558.895	33.52
559.091	33.59
559.287	33.53
559.483	33.63
559.679	33.74
559.876	33.64
560.072	33.41
560.268	33.3
560.464	33.19
560.66	33.19
560.856	33.51
561.052	33.54
561.247	33.55
561.443	33.53
561.639	33.47
561.835	33.53
562.031	33.79
562.227	33.84
562.423	33.81
562.619	34.04
562.815	34.02
563.01	33.89
563.206	33.83
563.402	34.04
563.598	34.03
563.793	33.91
563.989	33.9
564.185	33.75
564.381	33.85
564.576	33.93
564.772	33.75
564.968	33.81
565.163	33.9
565.359	33.98
565.555	33.81
565.75	33.87
565.946	34.07
566.141	33.94
566.337	34.13
566.532	34.24
566.728	34.3
566.923	34.51
567.119	34.68
567.314	34.69
567.51	34.67
567.705	34.66
567.901	34.79
568.096	34.71
568.292	34.84
568.487	34.89
568.682	35.03
568.878	35.03
569.073	35.01
569.268	34.94
569.464	34.85
569.659	34.81
569.854	34.83
570.05	34.85
570.245	34.81
570.44	34.95
570.635	34.82
570.831	34.77
571.026	34.85
571.221	34.74
571.416	34.72
571.611	34.79
571.806	34.7
572.002	34.8
572.197	34.65
572.392	34.73
572.587	34.72
572.782	34.76
572.977	34.68
573.172	34.68
573.367	34.71
573.562	34.66
573.757	34.67
573.952	34.72
574.147	34.81
574.342	34.97
574.537	35.03
574.732	35.03
574.927	35.03
575.121	34.98
575.316	34.92
575.511	34.9
575.706	34.88
575.901	34.79
576.096	35.06
576.29	34.79
576.485	34.8
576.68	34.87
576.875	34.87
577.069	34.8
577.264	34.87
577.459	34.75
577.654	34.82
577.848	35.03
578.043	35.21
578.238	35.12
578.432	35.42
578.627	35.37
578.821	35.32
579.016	35.26
579.21	35.16
579.405	35.29
579.6	35.38
579.794	35.54
579.989	35.36
580.183	35.18
580.378	35.21
580.572	34.99
580.766	35.07
580.961	35
581.155	35.04
581.35	35.22
581.544	35.13
581.738	35.29
581.933	34.89
582.127	35.02
582.321	34.91
582.516	34.85
582.71	34.96
582.904	34.81
583.099	34.88
583.293	34.8
583.487	34.83
583.681	34.97
583.875	34.96
584.07	35.39
584.264	35.45
584.458	35.74
584.652	36.03
584.846	36.05
585.04	36.27
585.234	36.06
585.428	36.37
585.623	36.52
585.817	36.61
586.011	36.68
586.205	36.4
586.399	36.38
586.593	36.28
586.787	36.25
586.981	36.45
587.174	36.5
587.368	36.8
587.562	36.56
587.756	36.51
587.95	36.16
588.144	36.07
588.338	36.25
588.532	36.1
588.725	36.09
588.919	35.84
589.113	35.48
589.307	35.38
589.501	35.21
589.694	35.23
589.888	35.13
590.082	35.33
590.275	35.39
590.469	35.66
590.663	35.98
590.856	36.02
591.05	35.96
591.244	36.33
591.437	36.61
591.631	36.76
591.824	36.85
592.018	36.97
592.212	36.94
592.405	37.09
592.599	36.79
592.792	36.64
592.986	36.69
593.179	36.91
593.372	36.57
593.566	36.35
593.759	36.3
593.953	36.39
594.146	36.35
594.339	36.41
594.533	36.26
594.726	36.24
594.92	36.15
595.113	36.27
595.306	36.13
595.499	36.37
595.693	36.23
595.886	36.36
596.079	36.13
596.272	36.15
596.466	36.13
596.659	36.15
596.852	36.15
597.045	36.23
597.238	35.93
597.431	35.99
597.624	35.92
597.818	36.11
598.011	36.11
598.204	36.31
598.397	36.39
598.59	36.31
598.783	36.27
598.976	36.36
599.169	36.55
599.362	36.95
599.555	37.07
599.748	37.07
599.941	37.07
600.134	36.89
600.326	36.84
600.519	36.7
600.712	36.91
600.905	37.05
601.098	37.19
601.291	36.89
601.483	36.89
601.676	36.78
601.869	36.89
602.062	36.95
602.255	36.89
602.447	37.24
602.64	37.37
602.833	37.28
603.025	37.07
603.218	36.98
603.411	36.94
603.603	37.02
603.796	37.11
603.989	36.98
604.181	36.91
604.374	36.74
604.566	36.35
604.759	36.19
604.951	36.29
605.144	36.43
605.336	36.16
605.529	36.11
605.721	35.77
605.914	35.72
606.106	35.82
606.299	35.8
606.491	36.18
606.683	36.43
606.876	36.5
607.068	36.14
607.26	36.13
607.453	36.41
607.645	36.68
607.837	37.04
608.03	36.92
608.222	37.08
608.414	37.16
608.606	37.07
608.799	36.93
608.991	37.12
609.183	37.3
609.375	37.46
609.567	37.62
609.759	37.71
609.952	37.59
610.144	37.63
610.336	37.38
610.528	37.13
610.72	37.18
610.912	37.38
611.104	37.34
611.296	37.43
611.488	37.26
611.68	37.04
611.872	36.81
612.064	37.08
612.256	36.94
612.448	37.11
612.64	37.26
612.832	37.27
613.023	37.2
613.215	37.01
613.407	37.09
613.599	37.19
613.791	37.4
613.983	37.53
614.174	37.14
614.366	37.35
614.558	37.41
614.75	37.61
614.941	37.65
615.133	37.55
615.325	37.9
615.516	37.95
615.708	38.13
615.9	38.19
616.091	38.05
616.283	38.16
616.475	38.46
616.666	38.3
616.858	38.08
617.049	37.98
617.241	38.05
617.432	37.69
617.624	37.5
617.815	37.23
618.007	37.29
618.198	37.26
618.39	37.28
618.581	37.25
618.773	37.53
618.964	37.79
619.155	37.73
619.347	37.86
619.538	38.02
619.729	38.35
619.921	38.43
620.112	38.18
620.303	38.24
620.494	38.42
620.686	38.59
620.877	38.32
621.068	38.08
621.259	38.37
621.451	38.28
621.642	38
621.833	37.77
622.024	37.61
622.215	37.94
622.406	38.19
622.597	38.33
622.788	37.97
622.98	37.98
623.171	37.96
623.362	38.14
623.553	38.17
623.744	38.59
623.935	38.56
624.126	38.87
624.317	38.71
624.508	38.74
624.698	38.48
624.889	38.91
625.08	39.25
625.271	39.38
625.462	38.94
625.653	39.02
625.844	39.22
626.034	39.31
626.225	39.35
626.416	39.48
626.607	39.6
626.798	39.73
626.988	39.66
627.179	39.63
627.37	39.83
627.56	39.92
627.751	39.74
627.942	39.54
628.132	39.65
628.323	39.36
628.514	39.39
628.704	39.19
628.895	39.12
629.085	39.11
629.276	39.11
629.466	39.12
629.657	39.42
629.847	39.61
630.038	39.58
630.228	39.62
630.419	39.72
630.609	39.77
630.8	39.89
630.99	40.12
631.181	39.96
631.371	40.07
631.561	39.96
631.752	39.93
631.942	40.02
632.132	40.15
632.323	39.95
632.513	40.42
632.703	40.28
632.893	40.52
633.084	40.28
633.274	40.05
633.464	39.95
633.654	40.08
633.844	40
634.034	39.96
634.225	40.13
634.415	40.28
634.605	40.09
634.795	39.88
634.985	39.72
635.175	39.74
635.365	40.18
635.555	40.02
635.745	39.96
635.935	39.81
636.125	40
636.315	39.98
636.505	39.95
636.695	39.72
636.885	40.18
637.075	39.99
637.265	40.11
637.455	39.8
637.644	39.83
637.834	39.79
638.024	40.18
638.214	40.08
638.404	39.85
638.593	39.7
638.783	39.9
638.973	39.84
639.163	40.08
639.352	40.23
639.542	40.42
639.732	40.67
639.921	40.63
640.111	40.61
640.301	40.4
640.49	40.59
640.68	40.9
640.87	41.02
641.059	41.04
641.249	41.01
641.438	40.95
641.628	41.04
641.817	40.99
642.007	41.15
642.196	41.07
642.386	41.13
642.575	41.07
642.764	41.01
642.954	40.89
643.143	40.91
643.333	40.9
643.522	40.49
643.711	40.45
643.901	40.41
644.09	40.18
644.279	40.26
644.469	40.68
644.658	40.9
644.847	40.61
645.036	41
645.226	40.89
645.415	41.01
645.604	41.39
645.793	41.54
645.982	41.61
646.171	42.09
646.361	42.09
646.55	42.08
646.739	41.81
646.928	41.92
647.117	41.24
647.306	41.18
647.495	41.09
647.684	40.89
647.873	40.37
648.062	40.14
648.251	40.25
648.44	39.99
648.629	39.94
648.818	40.19
649.007	40.33
649.196	40.85
649.384	40.99
649.573	40.98
649.762	41.2
649.951	41.7
650.14	42.06
650.328	41.83
650.517	41.97
650.706	41.51
650.895	41.49
651.083	41.77
651.272	41.4
651.461	41.15
651.65	41.23
651.838	41.02
652.027	40.76
652.216	40.53
652.404	40.78
652.593	40.66
652.781	40.92
652.97	41.18
653.158	41.06
653.347	41.57
653.535	41.94
653.724	42.08
653.912	42.17
654.101	42.15
654.289	42.16
654.478	42.16
654.666	42.27
654.855	41.95
655.043	40.98
655.231	40.44
655.42	39.99
655.608	40.07
655.796	39.77
655.985	39.93
656.173	40.26
656.361	40.43
656.55	40.09
656.738	39.89
656.926	40.17
657.114	40.71
657.302	40.74
657.491	40.8
657.679	40.74
657.867	41.06
658.055	40.79
658.243	40.63
658.431	40.44
658.619	40.69
658.807	41.11
658.996	41.14
659.184	41.16
659.372	41.79
659.56	41.97
659.748	41.87
659.936	41.83
660.124	41.91
660.311	42.42
660.499	42.47
660.687	42.34
660.875	42.37
661.063	42.15
661.251	42.11
661.439	42.05
661.627	42.28
661.814	42.32
662.002	42.27
662.19	42.28
662.378	42.09
662.565	42.61
662.753	42.31
662.941	41.97
663.129	42.23
663.316	42.48
663.504	42.56
663.692	42.03
663.879	42.22
664.067	42.46
664.254	42.6
664.442	42.39
664.63	42.21
664.817	43
665.005	42.84
665.192	42.98
665.38	43.42
665.567	43.3
665.755	43.31
665.942	43.09
666.13	42.88
666.317	42.87
666.504	42.37
666.692	42.1
666.879	41.75
667.067	41.91
667.254	42.01
667.441	41.68
667.629	41.22
667.816	41.02
668.003	40.78
668.19	40.86
668.378	40.69
668.565	41.24
668.752	41.71
668.939	41.87
669.127	41.75
669.314	41.54
669.501	41.21
669.688	41.57
669.875	42.14
670.062	42.62
670.249	42.58
670.436	42.84
670.623	42.99
670.81	42.84
670.997	42.76
671.184	43.33
671.371	43.64
671.558	43.86
671.745	43.71
671.932	43.52
672.119	43.15
672.306	43.66
672.493	44.22
672.68	44.18
672.867	44.31
673.054	44.54
673.24	44.21
673.427	44.28
673.614	43.88
673.801	44.23
673.988	44.47
674.174	44.79
674.361	44.49
674.548	43.73
674.734	43.57
674.921	43.52
675.108	43.15
675.294	43.06
675.481	43.18
675.668	43.26
675.854	43.17
676.041	43.37
676.227	43.71
676.414	43.78
676.601	44.35
676.787	44.45
676.974	44.65
677.16	44.87
677.347	45.17
677.533	44.94
677.719	45.56
677.906	45.4
678.092	45.54
678.279	45.11
678.465	44.92
678.651	44.6
678.838	44.65
679.024	44.58
679.21	44.86
679.397	44.85
679.583	44.7
679.769	44.89
679.955	45.18
680.142	44.85
680.328	44.85
680.514	45.06
680.7	45.22
680.886	45.26
681.073	45.08
681.259	44.87
681.445	44.79
681.631	45.1
681.817	44.88
682.003	44.82
682.189	44.9
682.375	45.31
682.561	45.51
682.747	45.67
682.933	45.99
683.119	46.19
683.305	46.27
683.491	46.8
683.677	46.7
683.863	46.8
684.049	46.74
684.235	46.89
684.42	46.73
684.606	46.15
684.792	45.98
684.978	45.61
685.164	45.72
685.349	45.48
685.535	44.89
685.721	45.25
685.907	44.92
686.092	44.85
686.278	44.84
686.464	44.54
686.649	45.03
686.835	45.31
687.021	45.3
687.206	45.19
687.392	45.29
687.577	45.31
687.763	45.27
687.948	45.61
688.134	46.08
688.319	46.17
688.505	46.5
688.69	46.17
688.876	46.32
689.061	46.26
689.247	46.16
689.432	46.2
689.618	46.51
689.803	46.36
689.988	46.26
690.174	46.21
690.359	45.81
690.544	45.46
690.73	45.77
690.915	45.25
691.1	45.39
691.285	44.79
691.471	44.72
691.656	44.71
691.841	44.7
692.026	44.93
692.211	44.35
692.396	45.2
692.582	45.61
692.767	45.48
692.952	45.92
693.137	46.25
693.322	46.81
693.507	46.61
693.692	46.76
693.877	46.07
694.062	45.98
694.247	46.11
694.432	45.73
694.617	45.93
694.802	46.31
694.987	45.93
695.172	45.66
695.357	45.77
695.541	46.2
695.726	45.92
695.911	46.86
696.096	47.35
696.281	47.96
696.466	48.05
696.65	48.13
696.835	47.5
697.02	47.66
697.204	47.85
697.389	47.83
697.574	47.23
697.759	47.95
697.943	48.27
698.128	47.97
698.312	47.52
698.497	47.52
698.682	47.3
698.866	47.51
699.051	47.61
699.235	47.48
699.42	47.22
699.604	47.39
699.789	46.84
699.973	46.48
700.158	46.3
700.342	46.38
700.527	46.49
700.711	46.33
700.895	46.52
701.08	46.06
701.264	46.18
701.448	46.83
701.633	47.35
701.817	47.69
702.001	47.23
702.186	47.28
702.37	48.02
702.554	47.51
702.738	48.63
702.923	48.41
703.107	49.29
703.291	49.05
703.475	49.08
703.659	48.52
703.843	48.52
704.027	49.1
704.212	49.4
704.396	49.01
704.58	48.9
704.764	48.19
704.948	48.03
705.132	47.56
705.316	48.15
705.5	47.56
705.684	48.94
705.868	48.96
706.052	49.01
706.235	49.12
706.419	48.56
706.603	48.72
706.787	48.32
706.971	47.96
707.155	48.14
707.339	48.03
707.522	48.96
707.706	48.09
707.89	48.15
708.074	48.4
708.257	48.5
708.441	49.2
708.625	49.25
708.808	49.96
708.992	50.13
709.176	50.68
709.359	50.28
709.543	49.7
709.727	50.02
709.91	50.21
710.094	50.18
710.277	49.77
710.461	49.38
710.644	49.92
710.828	49.49
711.011	49.78
711.195	50.08
711.378	50.89
711.562	51.27
711.745	51.63
711.928	51.07
712.112	50.78
712.295	50.56
712.478	51.35
712.662	50.76
712.845	51.3
713.028	51.92
713.212	51.26
713.395	50.73
713.578	50.72
713.761	49.52
713.945	49.73
714.128	50.49
714.311	50.98
714.494	50.63
714.677	50.84
714.86	50.7
715.043	50.25
715.227	49.74
715.41	50.04
715.593	50.03
715.776	51.27
715.959	51.64
716.142	51.17
716.325	51.27
716.508	50.96
716.691	50.97
716.874	50.43
717.057	50.69
717.239	51.41
717.422	50.87
717.605	50.97
717.788	50.69
717.971	50.57
718.154	50.73
718.337	50.32
718.519	50.78
718.702	51.57
718.885	52.17
719.068	51.45
719.25	51.33
719.433	51.75
719.616	51.18
719.798	50.3
719.981	50.09
720.164	50.03
720.346	50.42
720.529	49.85
720.712	48.43
720.894	49.04
721.077	49.2
721.259	49.73
721.442	50
721.624	49.72
721.807	51.2
721.989	51.68
722.172	51.28
722.354	51.67
722.537	51.4
722.719	52.37
722.901	50.69
723.084	50.68
723.266	48.6
723.448	48.96
723.631	49.72
723.813	49.71
723.995	50.21
724.178	50.9
724.36	50.31
724.542	50.96
724.724	51.82
724.907	54.24
725.089	55.09
725.271	56.47
725.453	56.31
725.635	56.98
725.817	55.64
725.999	55.05
726.181	54.6
726.364	54.59
726.546	54.06
726.728	53.47
726.91	52.4
727.092	51.94
727.274	51.53
727.456	51.22
727.638	49.91
727.819	50.43
728.001	50.4
728.183	50.7
728.365	51.24
728.547	52.07
728.729	51.59
728.911	51.11
729.093	51.4
729.274	51.21
729.456	51.16
729.638	51.84
729.82	51.44
730.001	51.86
730.183	51.36
730.365	50.81
730.546	50.18
730.728	50.59
730.91	50.31
731.091	50.33
731.273	51.37
731.455	51.52
731.636	52.1
731.818	52.85
731.999	52.66
732.181	52.61
732.362	52.28
732.544	53.1
732.725	52.89
732.907	53.12
733.088	52.29
733.27	51.64
733.451	51.15
733.633	50.45
733.814	50.54
733.995	50.45
734.177	51
734.358	51.79
734.539	50.86
734.721	50.65
734.902	51.03
735.083	52.34
735.264	52.63
735.446	52.64
735.627	52.13
735.808	52.18
735.989	51.95
736.17	52.46
736.351	52.55
736.533	53.69
736.714	54.18
736.895	53.82
737.076	53.27
737.257	53.74
737.438	54.59
737.619	55.59
737.8	54.67
737.981	53.88
738.162	53
738.343	52.97
738.524	52.87
738.705	52.72
738.886	53.19
739.067	53.15
739.247	53.13
739.428	52.35
739.609	53.11
739.79	54.69
739.971	55.02
740.151	55.29
740.332	55.3
740.513	54.46
740.694	53.68
740.874	53.53
741.055	54.09
741.236	53.08
741.417	52.33
741.597	51.51
741.778	50.55
741.958	50.88
742.139	50.62
742.32	50.61
742.5	51.42
742.681	51.31
742.861	51.81
743.042	51.68
743.222	53.43
743.403	54.47
743.583	53.84
743.764	53.69
743.944	53.29
744.124	53.31
744.305	53.81
744.485	52.95
744.666	54.49
744.846	53.81
745.026	54.16
745.207	52.06
745.387	52.22
745.567	52.87
745.747	53.87
745.928	55.02
746.108	54.82
746.288	54.73
746.468	55.62
746.648	54.13
746.829	54.06
747.009	53.95
747.189	54.81
747.369	55.45
747.549	54.68
747.729	53.05
747.909	52.86
748.089	52.88
748.269	52.45
748.449	50.85
748.629	52.27
748.809	52.44
748.989	52.06
749.169	52.5
749.349	51.65
749.529	51.59
749.709	52.37
749.889	52.32
750.068	52.76
750.248	53.94
750.428	53.91
750.608	53.58
750.788	52.89
750.967	51.55
751.147	51.49
751.327	51.56
751.507	52.49
751.686	53.07
751.866	51.87
752.046	51.59
752.225	50.89
752.405	52.68
752.585	52.4
752.764	52.75
752.944	53.25
753.123	54.57
753.303	55.54
753.482	54.66
753.662	54.88
753.841	56.22
754.021	56.78
754.2	56.17
754.38	55.3
754.559	56.05
754.739	56.66
754.918	57.74
755.097	56.54
755.277	56.07
755.456	56.32
755.635	54.49
755.815	54.32
755.994	53.65
756.173	53.95
756.352	53.64
756.532	52.96
756.711	51.64
756.89	51.76
757.069	52.29
757.248	52.51
757.427	52.07
757.607	52.86
757.786	51.6
757.965	52.32
758.144	53.56
758.323	54.53
758.502	54.08
758.681	54.73
758.86	54.2
759.039	54.14
759.218	53.66
759.397	54.42
759.576	54.73
759.755	55.93
759.934	56.23
760.113	55.11
760.291	54.56
760.47	54.95
760.649	56.06
760.828	56.23
761.007	55.65
761.186	56.07
761.364	56.5
761.543	56.77
761.722	57.57
761.901	56.03
762.079	56.11
762.258	56.11
762.437	56.28
762.615	55.83
762.794	56
762.972	55.41
763.151	56.05
763.33	56.15
763.508	56.26
763.687	55.68
763.865	56.24
764.044	56.31
764.222	56.17
764.401	56.31
764.579	56.3
764.758	56.39
764.936	56.66
765.114	56.33
765.293	55.97
765.471	55.97
765.65	55.46
765.828	55.82
766.006	56.17
766.184	56.57
766.363	55.85
766.541	56.47
766.719	56.33
766.898	55.9
767.076	54.67
767.254	54.49
767.432	53.69
767.61	53.35
767.788	53.31
767.967	52.73
768.145	51.6
768.323	53.35
768.501	52.58
768.679	52.38
768.857	52.7
769.035	52.78
769.213	52.58
769.391	52.5
769.569	54.04
769.747	53.71
769.925	54.44
770.103	56.02
770.281	54.46
770.459	55.12
770.636	55.92
770.814	56.92
770.992	57.15
771.17	57.51
771.348	57.27
771.525	55.83
771.703	55.55
771.881	53.93
772.059	52.53
772.236	52.41
772.414	50.86
772.592	50.18
772.769	48.95
772.947	49.8
773.125	49.47
773.302	50.43
773.48	51.68
773.657	52.5
773.835	53.11
774.013	53.08
774.19	52.5
774.368	53.78
774.545	52.89
774.723	55.16
774.9	55.23
775.077	54.46
775.255	53.86
775.432	54.54
775.61	52.67
775.787	54.5
775.964	55.71
776.142	55.45
776.319	55.69
776.496	58.05
776.674	57.51
776.851	58.05
777.028	58.75
777.205	59.23
777.382	58.17
777.56	59.23
777.737	56.71
777.914	56.08
778.091	55.63
778.268	55.31
778.445	53.03
778.622	51.77
778.8	50.84
778.977	51.9
779.154	50.86
779.331	50.46
779.508	51.21
779.685	51.63
779.862	52.47
780.038	52.18
780.215	51.97
780.392	53.11
780.569	54.28
780.746	55.35
780.923	54.92
781.1	55.59
781.277	55.67
781.453	54.43
781.63	54.29
781.807	54.17
781.984	55.03
782.16	56.02
782.337	54.55
782.514	54.27
782.691	53.82
782.867	54.36
783.044	56.58
783.221	57.82
783.397	60.07
783.574	62.54
783.75	60.97
783.927	61.59
784.103	60.91
784.28	63.71
784.456	62.56
784.633	62.52
784.809	61.08
784.986	60.3
785.162	59.7
785.339	59.27
785.515	57.47
785.692	58.43
785.868	59.97
786.044	58.96
786.221	59.1
786.397	60.03
786.573	58.39
786.749	57.01
786.926	56.23
787.102	55.73
787.278	53.66
787.454	54.39
787.631	55.71
787.807	54.91
787.983	54.94
788.159	53.39
788.335	52.91
788.511	53.25
788.687	55.52
788.863	53.88
789.039	54.57
789.216	58.21
789.392	58.2
789.568	56.67
789.744	54.98
789.919	55.76
790.095	55.64
790.271	54.48
790.447	56.61
790.623	55.63
790.799	58.51
790.975	60.45
791.151	56.01
791.327	54.64
791.502	54.72
791.678	56.01
791.854	53.87
792.03	55.62
792.205	57.8
792.381	56.15
792.557	56.34
792.733	54.38
792.908	50.47
793.084	51.02
793.259	51.47
793.435	51.48
793.611	50.47
793.786	51.31
793.962	49.61
794.137	49.86
794.313	51.31
794.488	52.29
794.664	51.92
794.839	52.33
795.015	53.48
795.19	56.27
795.366	56.53
795.541	55.8
795.716	58.26
795.892	58.26
796.067	56.63
796.242	54.81
796.418	54.23
796.593	55.23
796.768	55.25
796.944	56.75
797.119	55.64
797.294	56.38
797.469	58.79
797.644	56.97
797.82	56.98
797.995	59.65
798.17	58.41
798.345	56.15
798.52	54.84
798.695	54.5
798.87	54.43
799.045	53.88
799.22	54.68
799.395	54.78
799.57	55.05
799.745	55.42
799.92	54.48
800.095	54.8
800.27	56.82
800.445	58.07
800.62	57.97
800.795	55.7
800.97	56.46
801.145	55.82
801.319	55.46
801.494	56.04
801.669	56.57
801.844	55.97
802.018	56.47
802.193	53.86
802.368	54.08
802.543	54.81
802.717	53.77
802.892	52.16
803.067	52.93
803.241	50.75
803.416	49.21
803.59	46.37
803.765	45.71
803.94	48.09
804.114	50.23
804.289	48.54
804.463	48.3
804.638	50.07
804.812	49.3
804.986	46.28
805.161	47.38
805.335	49.49
805.51	50.33
805.684	51.9
805.858	51.13
806.033	50.53
806.207	51.02
806.381	52.54
806.556	53.09
806.73	55.3
806.904	58.63
807.078	57.67
807.253	55.59
807.427	55.23
807.601	56.39
807.775	55.77
807.949	57.37
808.123	59.2
808.298	58.76
808.472	59.22
808.646	57.11
808.82	53.45
808.994	56.31
809.168	56.51
809.342	57.55
809.516	55.19
809.69	54.74
809.864	54.23
810.038	52.74
810.212	51.43
810.385	51.27
810.559	47.47
810.733	49.7
810.907	48.85
811.081	50.28
811.255	50.97
811.428	45.39
811.602	45.21
811.776	43.8
811.95	43.69
812.123	45.86
812.297	47.52
812.471	49.22
812.644	48.26
812.818	48.14
812.992	47.33
813.165	45.22
813.339	47.87
813.512	47.33
813.686	50.07
813.86	52.73
814.033	51.26
814.207	51.11
814.38	52.27
814.554	52.41
814.727	50.09
814.9	49.05
815.074	51.73
815.247	56.23
815.421	56.31
815.594	55.77
815.767	52.83
815.941	52.45
816.114	50.65
816.287	49.53
816.46	46.57
816.634	54.67
816.807	58.1
816.98	57.53
817.153	54.37
817.327	53.98
817.5	53.42
817.673	54.42
817.846	56.37
818.019	58.13
818.192	59.31
818.365	58.57
818.538	52.24
818.711	49.46
818.884	49.22
819.057	49.88
819.23	53.64
819.403	54.83
819.576	53.52
819.749	53.09
819.922	50.23
820.095	51.89
820.268	53.84
820.441	55.63
820.614	56.05
820.786	55.34
820.959	53.08
821.132	51.89
821.305	51.78
821.477	51.25
821.65	50.5
821.823	51.02
821.996	50.46
822.168	51.15
822.341	50.36
822.514	50.06
822.686	49.77
822.859	50.33
823.031	50.2
823.204	49.61
823.376	49.61
823.549	49.87
823.722	50.14
823.894	50.35
824.067	49.64
824.239	50.11
824.411	50.22
824.584	50.38
824.756	50.43
824.929	50.24
825.101	50.63
825.273	51.51
825.446	51.18
825.618	50.39
825.79	50.67
825.963	51.1
826.135	50.9
826.307	50.64
826.479	51.04
826.652	51.01
826.824	50.85
826.996	51.3
827.168	50.42
827.34	50.86
827.512	50.89
827.684	51.26
827.856	51.09
828.029	50.46
828.201	50.68
828.373	50
828.545	50
828.717	50.62
828.889	49.71
829.061	50.41
829.232	48.8
829.404	48.11
829.576	46.27
829.748	45.05
829.92	46.06
830.092	47.27
830.264	47.91
830.436	47.88
830.607	47.87
830.779	46.91
830.951	47.27
831.123	51.26
831.294	53.76
831.466	55.19
831.638	57.75
831.809	57.23
831.981	55.16
832.153	53.38
832.324	50.9
832.496	51.61
832.667	52.98
832.839	51.96
833.011	49.32
833.182	47.86
833.354	49.28
833.525	47.97
833.697	47.02
833.868	47.5
834.039	49.83
834.211	50.71
834.382	49.07
834.554	48.08
834.725	46.8
834.896	46.83
835.068	46.85
835.239	46.15
835.41	46.72
835.581	48.26
835.753	48.47
835.924	47.08
836.095	50.54
836.266	52.79
836.438	54.07
836.609	55.22
836.78	54.95
836.951	55.11
837.122	55.32
837.293	55.27
837.464	51.32
837.635	50.19
837.806	52.05
837.977	50.27
838.148	51.62
838.319	51.62
838.49	49.12
838.661	51.99
838.832	55.11
839.003	55.85
839.174	51.91
839.345	55.9
839.516	58.01
839.687	55.28
839.857	51.96
840.028	43.16
840.199	42.98
840.37	46.76
840.54	45.35
840.711	44.82
840.882	42.4
841.053	43.65
841.223	48.09
841.394	47.78
841.564	48.72
841.735	52.42
841.906	56.06
842.076	56.09
842.247	53.81
842.417	53.7
842.588	53.14
842.758	51.54
842.929	59.39
843.099	58.92
843.27	60.9
843.44	56.76
843.611	54.59
843.781	58.48
843.951	59.41
844.122	61.33
844.292	57.59
844.462	52.99
844.633	52.21
844.803	48.96
844.973	39.4
845.144	35.95
845.314	39.82
845.484	37.59
845.654	42.8
845.824	49.8
845.995	51.98
846.165	52.78
846.335	53.22
846.505	61.3
846.675	64.7
846.845	59.3
847.015	57.15
847.185	53.73
847.355	51.19
847.525	47.72
847.695	42.51
847.865	41.47
848.035	44.63
848.205	46.24
848.375	44.83
848.545	39.82
848.715	39.73
848.884	48.35
849.054	49.43
849.224	50.3
849.394	42.08
849.564	38.43
849.733	37.29
849.903	46.66
850.073	50.95
850.243	42.47
850.412	43.1
850.582	49.43
850.752	37.89
850.921	44.22
851.091	39.56
851.26	42.56
851.43	42.35
851.599	40.12
851.769	26.44
851.939	18.91
852.108	18.13
852.278	5.21
852.447	13.8
852.616	22.24
852.786	11.07
852.955	18.29
853.125	23.79
853.294	29.93
853.463	39.76
853.633	30.91
853.802	32.57
853.971	36.33
854.141	49.97
854.31	38.97
854.479	33.86
854.648	38.09
854.818	44.03
854.987	30.41
855.156	26.88
855.325	26.46
855.494	43.1
855.663	33.43
855.832	31.47
856.001	31.22
856.171	34.33
856.34	35.42
856.509	44.11
856.678	43.76
856.847	47.78
857.016	46.59
857.185	41.66
857.353	41
857.522	52.95
857.691	51.23
857.86	51.48
858.029	51.79
858.198	50.14
858.367	47.66
858.535	36.68
858.704	44.05
858.873	30.4
859.042	34.62
859.21	30.13
859.379	27.53
859.548	30.13
859.717	27.51
859.885	23.87
860.054	26.42
860.222	8.25
860.391	16.36
860.56	20.76
860.728	28.27
860.897	26.82
861.065	32.79
861.234	27.16
861.402	36.78
861.571	37.66
861.739	42.89
861.908	48.35
862.076	51.37
862.244	60.01
862.413	52.89
862.581	49.32
862.749	50.69
862.918	48.48
863.086	49.63
863.254	43.29
863.423	36.79
863.591	30.16
863.759	24.29
863.927	25.41
864.096	19.91
864.264	23.53
864.432	31.15
864.6	31.5
864.768	34.06
864.936	35.18
865.104	39.41
865.272	56.52
865.44	68.53
865.608	64.09
865.776	58.74
865.944	57.08
866.112	59.85
866.28	56.65
866.448	54.04
866.616	55.02
866.784	50.84
866.952	45.24
867.12	33.8
867.288	26.98
867.455	43.1
867.623	61.49
867.791	62
867.959	62.95
868.127	59.49
868.294	61.31
868.462	57.41
868.63	56.96
868.797	62.29
868.965	70.15
869.133	69.35
869.3	73.3
869.468	62.39
869.636	63.84
869.803	51.61
869.971	56.44
870.138	51.52
870.306	35.53
870.473	35.33
870.641	35.98
870.808	37.21
870.975	27.24
871.143	-3.55
871.31	8.54
871.478	19.53
871.645	28.09
871.812	26.73
871.98	31.53
872.147	40.19
872.314	40.19
872.482	37.22
872.649	35.07
872.816	31.2
872.983	32.25
873.15	37.04
873.318	36.91
873.485	37.82
873.652	48.84
873.819	55.89
873.986	61.72
874.153	58.76
874.32	59.15
874.487	61.41
874.654	73.74
874.821	82.04
874.988	68.85
875.155	65.64
875.322	57.37
875.489	51.81
875.656	45.98
875.823	33.95
875.99	34.05
876.157	29.77
876.324	25.64
876.49	23.63
876.657	16.81
876.824	29.79
876.991	29
877.157	31.55
877.324	24.95
877.491	20.84
877.658	31.96
877.824	40.37
877.991	43.55
878.157	41.17
878.324	31.66
878.491	31.7
878.657	34.84
878.824	33.23
878.99	38.82
879.157	42.82
879.323	50.52
879.49	49.55
879.656	50.17
879.823	52.51
879.989	50.42
880.156	56.5
880.322	54.79
880.488	42.59
880.655	47.05
880.821	49.21
880.987	52.38
881.154	53.29
881.32	48.06
881.486	48.59
881.652	42.77
881.819	44.8
881.985	43.61
882.151	43.17
882.317	42.47
882.483	40.03
882.649	39.63
882.816	39.43
882.982	39.21
883.148	39.15
883.314	37.6
883.48	37.79
883.646	37.46
883.812	38.44
883.978	38.02
884.144	38.37
884.31	39.23
884.476	36.92
884.642	36.68
884.807	36.47
884.973	35.22
885.139	35.01
885.305	35.48
885.471	33.96
885.637	32.87
885.802	35.51
885.968	34.08
886.134	33.24
886.3	34.73
886.465	33.38
886.631	32.35
886.797	35.56
886.962	35.15
887.128	37.86
887.293	41.46
887.459	39.69
887.625	36.73
887.79	37.52
887.956	42.04
888.121	43.57
888.287	44.4
888.452	45.72
888.618	44.83
888.783	47.49
