Data from CB_102_Reflection_2.txt Node
Date: Sat Nov 14 17:51:23 EST 2015
User: robert
Spectrometer: USB4E03001
Autoset integration time: false
Trigger mode: 4
Integration Time (sec): 1.000000E-1
Scans to average: 15
Electric dark correction enabled: true
Nonlinearity correction enabled: false
Boxcar width: 5
Stray light correction enabled: false
XAxis mode: Wavelengths
Stop averaging: false
Number of Pixels in Spectrum: 3648
>>>>>Begin Spectral Data<<<<<
177.566	199.34
177.785	-865.02
178.005	123.29
178.225	267.76
178.445	-623.16
178.665	43.83
178.885	-57.73
179.105	88.32
179.324	85.81
179.544	60.84
179.764	57.03
179.984	77.89
180.204	69.85
180.423	45.1
180.643	53.98
180.863	55.8
181.083	36.96
181.302	46.67
181.522	67.47
181.742	61.85
181.961	92.83
182.181	104.98
182.401	62.48
182.621	13.72
182.84	-69.24
183.06	55.42
183.279	58.45
183.499	72.19
183.719	1.37
183.938	-17.46
184.158	-11.1
184.377	-7.57
184.597	13.72
184.816	52.17
185.036	56.01
185.256	61.07
185.475	39.52
185.695	36.66
185.914	34.82
186.134	46.88
186.353	38.64
186.572	42.92
186.792	55.41
187.011	50.04
187.231	50.56
187.45	50.79
187.67	67.03
187.889	70.77
188.108	80.51
188.328	102.66
188.547	111.39
188.766	136.46
188.986	111.79
189.205	110.35
189.424	100.75
189.644	107.72
189.863	130.02
190.082	135.94
190.302	127.8
190.521	95.02
190.74	82.52
190.959	83.52
191.178	82.27
191.398	97.52
191.617	83.34
191.836	109.43
192.055	70.35
192.274	41.39
192.494	66.49
192.713	101.9
192.932	156.82
193.151	184.08
193.37	108.6
193.589	94.38
193.808	232.28
194.027	340.08
194.246	-201.05
194.465	387.91
194.685	67.67
194.904	26.83
195.123	22.6
195.342	3.52
195.561	18.84
195.78	30.11
195.999	49.44
196.218	33.87
196.436	59.24
196.655	69.49
196.874	81.21
197.093	86.4
197.312	74.06
197.531	83.48
197.75	87.25
197.969	106.61
198.188	120.66
198.407	95.16
198.625	92.42
198.844	71.71
199.063	50.94
199.282	46.75
199.501	0.69
199.719	39.57
199.938	42.29
200.157	39.25
200.376	37
200.594	43.66
200.813	48.34
201.032	48.1
201.251	53.43
201.469	68.87
201.688	66.26
201.907	76.42
202.125	80.04
202.344	116.08
202.563	135.94
202.781	97.17
203	106.3
203.218	98.41
203.437	113.1
203.656	84.97
203.874	61.79
204.093	72.38
204.311	91.88
204.53	92.83
204.748	58.54
204.967	51.12
205.185	75.43
205.404	71.65
205.622	51.02
205.841	47.95
206.059	58.31
206.278	93.49
206.496	77.16
206.715	92.72
206.933	78.06
207.151	86.78
207.37	85.82
207.588	77.24
207.806	77.72
208.025	94.24
208.243	82.26
208.461	101.73
208.68	75.45
208.898	84.9
209.116	64.05
209.335	65.83
209.553	62.87
209.771	72.11
209.989	65.85
210.208	49.01
210.426	51.6
210.644	58.51
210.862	43.93
211.081	42.83
211.299	40.74
211.517	43.67
211.735	26.09
211.953	45.25
212.171	58.4
212.39	55.14
212.608	71.87
212.826	75.94
213.044	72.24
213.262	92.3
213.48	107.78
213.698	99.71
213.916	121.65
214.134	119.42
214.352	130.51
214.57	106.21
214.788	120.95
215.006	120.03
215.224	118.01
215.442	155.56
215.66	121.05
215.878	85.61
216.096	99.6
216.314	58.54
216.532	56.99
216.75	55.69
216.968	74.22
217.185	47.99
217.403	32.32
217.621	27.12
217.839	35.35
218.057	-44.88
218.275	28.8
218.492	45.88
218.71	108.72
218.928	127.06
219.146	125.5
219.363	83.21
219.581	102.21
219.799	130.86
220.017	113.86
220.234	109.33
220.452	147.95
220.67	147.49
220.887	223.98
221.105	203.26
221.323	1964.42
221.54	198.73
221.758	1672.86
221.976	718.51
222.193	148.66
222.411	184.28
222.629	214.76
222.846	144.09
223.064	-235.12
223.281	309.74
223.499	270.48
223.716	410.65
223.934	-105.3
224.151	16.83
224.369	20.53
224.586	34.37
224.804	42.44
225.021	41.88
225.239	31.71
225.456	42.74
225.674	41.88
225.891	30.07
226.108	19.49
226.326	-8.08
226.543	17.2
226.76	12.06
226.978	5.61
227.195	17.26
227.413	9.34
227.63	14.27
227.847	10.11
228.064	13.59
228.282	11.95
228.499	12.49
228.716	10.58
228.934	7.92
229.151	11.07
229.368	10.21
229.585	5.73
229.802	7.32
230.02	6.49
230.237	9.81
230.454	12.42
230.671	12.84
230.888	12.73
231.105	11.25
231.323	6.95
231.54	-2.22
231.757	-0.32
231.974	-5.16
232.191	-11.46
232.408	-10.14
232.625	-10.86
232.842	-19.99
233.059	-13.93
233.276	-14.66
233.493	-11.77
233.71	-4.46
233.927	7.69
234.144	3.26
234.361	2.77
234.578	0.03
234.795	-0.68
235.012	-8.12
235.229	-9.44
235.446	-8.73
235.663	-6.87
235.879	-7.8
236.096	-8.87
236.313	-19.11
236.53	-16.89
236.747	-11.25
236.964	-12.34
237.181	-24.04
237.397	-20.3
237.614	-22.52
237.831	-27.5
238.048	-34.1
238.264	-43.94
238.481	-46.59
238.698	-35.79
238.915	-30.37
239.131	-24.33
239.348	-17.44
239.565	-9.87
239.781	1.07
239.998	4.04
240.215	5.08
240.431	5.84
240.648	14.87
240.865	17.57
241.081	18.5
241.298	15.81
241.514	13.49
241.731	13.26
241.947	13.53
242.164	11.49
242.38	12.51
242.597	11.57
242.814	13.74
243.03	12.38
243.246	12.9
243.463	12.73
243.679	12.35
243.896	13.43
244.112	10.97
244.329	11.49
244.545	11.63
244.762	10.54
244.978	13.86
245.194	12.48
245.411	11.81
245.627	9.78
245.843	8.99
246.06	8.56
246.276	9.38
246.492	10.5
246.709	10.11
246.925	9.51
247.141	9.66
247.357	9.13
247.574	8.96
247.79	9.4
248.006	9.57
248.222	8.59
248.439	8.39
248.655	7.31
248.871	7.44
249.087	8.56
249.303	9.14
249.519	8.96
249.736	8.79
249.952	9.48
250.168	10.33
250.384	10.29
250.6	12.55
250.816	13.18
251.032	15.26
251.248	14.08
251.464	10.05
251.68	8.73
251.896	7.79
252.112	6.87
252.328	6.44
252.544	4.18
252.76	3.56
252.976	1.96
253.192	0.65
253.408	-1.72
253.624	-3.07
253.84	-3.45
254.056	-3.18
254.272	-4.24
254.487	-4.9
254.703	-4.66
254.919	-5.04
255.135	-7.56
255.351	-8.32
255.567	-1.89
255.782	-0.24
255.998	5.66
256.214	6.73
256.43	8.25
256.646	8.48
256.861	8.99
257.077	5.93
257.293	8.63
257.508	11.48
257.724	11.12
257.94	8.95
258.155	7.97
258.371	5.69
258.587	4.37
258.802	4.09
259.018	4.99
259.234	5.8
259.449	6.49
259.665	6.2
259.88	5.82
260.096	6.41
260.312	6.39
260.527	7.19
260.743	7.3
260.958	7.97
261.174	8.08
261.389	8.18
261.605	7.55
261.82	6.98
262.036	5.57
262.251	4.76
262.466	3.63
262.682	3.01
262.897	0.84
263.113	-0.2
263.328	1.38
263.543	-0.62
263.759	-2.96
263.974	-4.33
264.189	-6.7
264.405	-5.46
264.62	-3.91
264.835	-2.8
265.051	-0.42
265.266	0.31
265.481	2.22
265.696	1.89
265.912	2.36
266.127	3.2
266.342	5.99
266.557	8.02
266.773	7.33
266.988	6.74
267.203	6.13
267.418	4.93
267.633	5.32
267.848	4.75
268.064	4.31
268.279	4.15
268.494	4.81
268.709	3.55
268.924	3.57
269.139	3.26
269.354	5.29
269.569	6.69
269.784	5.25
269.999	5.03
270.214	5.23
270.429	3.04
270.644	3.36
270.859	3.34
271.074	2.79
271.289	3.79
271.504	6.27
271.719	4.88
271.934	3.1
272.149	5.5
272.363	6.08
272.578	6.62
272.793	7.29
273.008	7.48
273.223	7.56
273.438	7.63
273.653	8.07
273.867	6.25
274.082	6.12
274.297	7.96
274.512	4.99
274.726	3.29
274.941	2.74
275.156	3.41
275.371	3.45
275.585	3.57
275.8	4.48
276.015	3.15
276.229	3.55
276.444	3.41
276.659	2.28
276.873	5.44
277.088	7.35
277.302	7.91
277.517	8.94
277.732	8.16
277.946	7.62
278.161	7.37
278.375	8.17
278.59	8.66
278.804	7.74
279.019	8.05
279.233	6.44
279.448	4.86
279.662	4.42
279.877	3.78
280.091	5.03
280.306	5.74
280.52	6.47
280.735	6.1
280.949	5.52
281.163	7.12
281.378	7.71
281.592	8.14
281.806	8.12
282.021	6.96
282.235	7.2
282.449	6.13
282.664	6.05
282.878	4.91
283.092	4.34
283.307	4.66
283.521	4.29
283.735	3.94
283.949	4.27
284.164	5.29
284.378	6.51
284.592	5.68
284.806	6.7
285.02	6.89
285.234	7.93
285.449	8.44
285.663	8.81
285.877	8.53
286.091	7.43
286.305	7.49
286.519	6.88
286.733	7.05
286.947	7.93
287.161	7.62
287.375	7.48
287.589	6.19
287.803	6.44
288.017	6.7
288.231	7.09
288.445	8.36
288.659	7.61
288.873	7.79
289.087	7.61
289.301	7.18
289.515	6.7
289.729	5.92
289.943	6.61
290.157	5.89
290.371	4.86
290.584	5.23
290.798	4.85
291.012	5.44
291.226	6.18
291.44	5.65
291.654	5.61
291.867	6.37
292.081	8.5
292.295	9.17
292.509	9.57
292.722	10.53
292.936	9.61
293.15	10.43
293.364	11.6
293.577	10.48
293.791	11.47
294.005	12.59
294.218	12.74
294.432	11.53
294.645	11.77
294.859	12.49
295.073	11.97
295.286	12.78
295.5	12.3
295.713	10.73
295.927	11.85
296.14	10.71
296.354	9.75
296.568	9.12
296.781	9.8
296.994	9.79
297.208	8.8
297.421	9.1
297.635	8.34
297.848	8.26
298.062	8.79
298.275	8.28
298.489	9.02
298.702	9.3
298.915	9.82
299.129	9.46
299.342	9.97
299.555	9.39
299.769	9.53
299.982	10.83
300.195	11.52
300.409	12.5
300.622	11.76
300.835	11.35
301.048	11.49
301.262	10.95
301.475	10.4
301.688	9.7
301.901	11.29
302.115	11.04
302.328	10.63
302.541	10.44
302.754	10.21
302.967	11.27
303.18	11.68
303.393	11.29
303.607	11.18
303.82	11.99
304.033	11.77
304.246	12.49
304.459	12.61
304.672	13.24
304.885	12.66
305.098	11.57
305.311	11.99
305.524	11.7
305.737	11.2
305.95	11.9
306.163	9.7
306.376	8.23
306.589	7.59
306.802	7.39
307.015	5.96
307.228	6.71
307.44	8.2
307.653	7.54
307.866	8.44
308.079	9.89
308.292	10.78
308.505	12.93
308.718	14.36
308.93	13.62
309.143	13.82
309.356	14.08
309.569	14.45
309.781	14.32
309.994	15.37
310.207	14.6
310.42	13.48
310.632	13.25
310.845	12.98
311.058	14.69
311.27	15.93
311.483	16.38
311.696	17.1
311.908	17.33
312.121	16.53
312.333	16
312.546	16.52
312.759	17.39
312.971	17.44
313.184	17.69
313.396	15.87
313.609	15.07
313.821	15.16
314.034	14.73
314.246	13.93
314.459	14.44
314.671	13.29
314.884	13.32
315.096	12.88
315.309	11.59
315.521	11.48
315.733	10.83
315.946	11.21
316.158	11.39
316.371	12.44
316.583	11.12
316.795	11.48
317.008	12.73
317.22	12.23
317.432	12.33
317.644	11.71
317.857	13.48
318.069	14.39
318.281	14.12
318.494	12.88
318.706	11.05
318.918	11.69
319.13	12.02
319.342	12.15
319.555	12.17
319.767	13.15
319.979	13.35
320.191	12.11
320.403	11.4
320.615	10.79
320.827	10.78
321.039	11.2
321.252	12.07
321.464	11.41
321.676	11.4
321.888	12.17
322.1	11.6
322.312	14.47
322.524	13.36
322.736	14.04
322.948	14.86
323.16	15.25
323.372	14.69
323.584	14.52
323.796	13.41
324.007	12.78
324.219	14.03
324.431	14
324.643	11.98
324.855	13.21
325.067	13.89
325.279	13.45
325.491	14.3
325.702	15.14
325.914	14.94
326.126	16.31
326.338	17.69
326.55	17.89
326.761	19.43
326.973	20.87
327.185	20.52
327.396	20.66
327.608	21.3
327.82	20.79
328.032	21.63
328.243	22.64
328.455	23.87
328.666	23.32
328.878	22.78
329.09	22.61
329.301	22.64
329.513	22.01
329.725	21.8
329.936	22.52
330.148	23.49
330.359	23
330.571	22.71
330.782	21.88
330.994	22.87
331.205	22.83
331.417	22.61
331.628	22.27
331.84	23.41
332.051	22.89
332.262	23.56
332.474	22.74
332.685	23.56
332.897	24.39
333.108	25.34
333.319	25.17
333.531	24.87
333.742	24.79
333.953	25.69
334.165	24.34
334.376	25.23
334.587	25.13
334.799	25.96
335.01	25.98
335.221	26.32
335.432	26.3
335.644	27.28
335.855	28.38
336.066	29.11
336.277	28.55
336.488	29.86
336.7	29.49
336.911	29.51
337.122	29.55
337.333	29.95
337.544	29.85
337.755	28.51
337.966	28.08
338.177	27.47
338.388	26.99
338.599	27.92
338.811	28.55
339.022	29.07
339.233	28.58
339.444	27.81
339.655	27.35
339.866	27.47
340.076	28.68
340.287	28.59
340.498	29.37
340.709	29.01
340.92	28.41
341.131	27.02
341.342	26.64
341.553	26.98
341.764	27.83
341.975	27.7
342.185	27.81
342.396	27.32
342.607	26.45
342.818	26.63
343.029	26.79
343.239	27.43
343.45	27.88
343.661	27.87
343.872	27.56
344.082	26.85
344.293	27.27
344.504	27.6
344.714	28.19
344.925	29.23
345.136	29
345.346	29.26
345.557	29.02
345.768	29.49
345.978	29.07
346.189	29.29
346.399	29.46
346.61	29.29
346.821	28.84
347.031	28.96
347.242	28.98
347.452	28.42
347.663	27.41
347.873	26.8
348.084	26.75
348.294	27.61
348.504	27.46
348.715	27.72
348.925	27.24
349.136	27
349.346	26.26
349.557	25.06
349.767	24.51
349.977	25.56
350.188	25.29
350.398	24.52
350.608	23.97
350.819	23.95
351.029	23.84
351.239	23.57
351.449	23.25
351.66	23.71
351.87	24.36
352.08	24.7
352.29	24.57
352.501	25.36
352.711	26.12
352.921	26.39
353.131	26.59
353.341	26.07
353.552	26.76
353.762	27.25
353.972	26.89
354.182	26.32
354.392	26.1
354.602	25.27
354.812	25.56
355.022	25.53
355.232	25.83
355.442	25.92
355.652	26.91
355.862	25.93
356.072	25.76
356.282	26.36
356.492	26.87
356.702	27.31
356.912	27.95
357.122	27.33
357.332	27.54
357.542	27.04
357.752	26.37
357.962	26.07
358.171	26.25
358.381	26.96
358.591	26.24
358.801	26.14
359.011	25.81
359.221	25.57
359.43	25.11
359.64	24.71
359.85	24.37
360.06	24.53
360.269	24.16
360.479	24.39
360.689	23.4
360.899	23.63
361.108	23.68
361.318	23.8
361.528	23.76
361.737	24.1
361.947	24.37
362.156	24.98
362.366	24.89
362.576	24.74
362.785	24.76
362.995	25.34
363.204	24.82
363.414	25.23
363.623	25.07
363.833	24.94
364.042	24.9
364.252	24.78
364.461	24.51
364.671	24.82
364.88	24.92
365.09	25.03
365.299	24.63
365.509	24.76
365.718	23.9
365.927	23.59
366.137	23.58
366.346	23.14
366.555	22.82
366.765	22.44
366.974	21.67
367.183	21.61
367.393	21.83
367.602	21.65
367.811	21.95
368.021	21.7
368.23	21.64
368.439	21.43
368.648	22.27
368.857	21.84
369.067	21.67
369.276	21.57
369.485	20.92
369.694	20.69
369.903	20.85
370.112	20.59
370.321	21.69
370.531	21.91
370.74	21.72
370.949	21.26
371.158	21.83
371.367	22.19
371.576	22.35
371.785	22.81
371.994	22.13
372.203	22.23
372.412	22.05
372.621	21.32
372.83	21.46
373.039	22.08
373.248	21.76
373.457	21.27
373.666	20.56
373.874	20.61
374.083	20.62
374.292	20.6
374.501	20.19
374.71	19.56
374.919	19.51
375.128	18.95
375.336	18.72
375.545	19.07
375.754	19.04
375.963	19.16
376.171	19.09
376.38	19.25
376.589	19.13
376.798	18.78
377.006	19.74
377.215	19.46
377.424	19.64
377.632	19.46
377.841	19.23
378.05	18.85
378.258	19.45
378.467	19.44
378.675	19.09
378.884	18.84
379.093	18.87
379.301	18.36
379.51	18.34
379.718	18.06
379.927	18.4
380.135	18.67
380.344	19.13
380.552	18.17
380.761	17.57
380.969	17.79
381.177	18.46
381.386	18.38
381.594	18.78
381.803	18.73
382.011	18.33
382.219	17.89
382.428	17.48
382.636	17
382.845	17.4
383.053	17.71
383.261	17.54
383.469	16.61
383.678	16.58
383.886	16.4
384.094	16.25
384.302	16.45
384.511	16.88
384.719	16.85
384.927	16.82
385.135	16.65
385.343	16.79
385.552	16.51
385.76	16.44
385.968	16.39
386.176	15.82
386.384	15.92
386.592	15.65
386.8	14.53
387.008	14.43
387.216	14.69
387.424	14.31
387.633	14.05
387.841	13.91
388.049	14.12
388.257	14.02
388.465	13.88
388.672	13.43
388.88	13.29
389.088	13.67
389.296	13.53
389.504	12.96
389.712	12.98
389.92	12.93
390.128	13.11
390.336	13.04
390.544	12.91
390.751	13.01
390.959	12.94
391.167	13.29
391.375	13.37
391.583	13.35
391.79	13.45
391.998	13.74
392.206	13.85
392.414	13.34
392.621	13.34
392.829	13.47
393.037	13.69
393.244	13.97
393.452	13.79
393.66	13.52
393.867	13.34
394.075	13.54
394.283	13.28
394.49	13.02
394.698	13.18
394.905	13.09
395.113	12.7
395.32	12.5
395.528	12.24
395.735	12.09
395.943	11.95
396.15	12.07
396.358	11.69
396.565	11.68
396.773	11.68
396.98	11.79
397.188	11.87
397.395	12.08
397.602	11.96
397.81	12.02
398.017	12.17
398.225	12.46
398.432	12.47
398.639	12.62
398.847	12.39
399.054	12.22
399.261	11.98
399.468	11.9
399.676	12.03
399.883	11.96
400.09	11.9
400.297	11.61
400.505	11.17
400.712	10.72
400.919	10.16
401.126	10.42
401.333	10.65
401.54	10.72
401.748	10.76
401.955	10.43
402.162	10.51
402.369	10.48
402.576	10.86
402.783	11.13
402.99	11.1
403.197	11.57
403.404	11.15
403.611	10.97
403.818	10.87
404.025	10.78
404.232	10.65
404.439	10.78
404.646	10.62
404.853	10.45
405.06	10.27
405.267	10.51
405.474	10.41
405.681	10.51
405.887	10.52
406.094	10.41
406.301	10.46
406.508	10.54
406.715	10.05
406.922	10.12
407.128	10.24
407.335	10.48
407.542	10.48
407.749	10.41
407.955	10.61
408.162	10.69
408.369	10.42
408.575	10.26
408.782	10.23
408.989	10.29
409.195	10.37
409.402	10.26
409.609	9.99
409.815	9.87
410.022	9.94
410.228	9.96
410.435	9.99
410.642	10.47
410.848	10.43
411.055	10.34
411.261	10.31
411.468	10.13
411.674	9.99
411.881	10.03
412.087	9.93
412.294	9.87
412.5	9.88
412.706	9.68
412.913	9.41
413.119	9.55
413.326	9.59
413.532	9.81
413.738	10
413.945	10.08
414.151	9.99
414.357	10.21
414.564	10.21
414.77	9.76
414.976	9.73
415.182	9.8
415.389	9.53
415.595	9.47
415.801	9.09
416.007	9.01
416.214	8.77
416.42	8.99
416.626	8.73
416.832	8.72
417.038	9.09
417.244	9.18
417.45	9.15
417.657	9.21
417.863	9.23
418.069	9.51
418.275	9.45
418.481	9.6
418.687	9.54
418.893	9.82
419.099	9.83
419.305	9.67
419.511	9.59
419.717	9.61
419.923	9.56
420.129	9.58
420.335	9.53
420.541	9.49
420.746	9.43
420.952	9.38
421.158	9.21
421.364	9.13
421.57	9.03
421.776	9
421.982	8.85
422.187	8.7
422.393	8.67
422.599	8.72
422.805	8.81
423.01	8.87
423.216	8.91
423.422	8.94
423.628	9
423.833	9.07
424.039	9.11
424.245	9.18
424.45	9.31
424.656	9.43
424.862	9.22
425.067	9.12
425.273	9.09
425.478	8.95
425.684	8.89
425.889	8.83
426.095	9.04
426.301	9
426.506	8.97
426.712	9.02
426.917	9.07
427.123	9.27
427.328	9.48
427.533	9.5
427.739	9.71
427.944	9.91
428.15	9.89
428.355	9.5
428.561	9.5
428.766	9.62
428.971	9.62
429.177	9.52
429.382	9.53
429.587	9.29
429.793	9.23
429.998	9.14
430.203	8.89
430.408	8.99
430.614	8.89
430.819	8.92
431.024	8.83
431.229	8.67
431.434	8.35
431.64	8.46
431.845	8.51
432.05	8.68
432.255	8.73
432.46	8.78
432.665	8.73
432.87	8.88
433.076	8.89
433.281	8.78
433.486	8.83
433.691	8.95
433.896	8.67
434.101	8.5
434.306	8.29
434.511	8.1
434.716	7.92
434.921	7.86
435.126	7.77
435.331	7.82
435.535	8.04
435.74	7.98
435.945	8.06
436.15	7.99
436.355	8.18
436.56	8.27
436.765	8.22
436.97	8.48
437.174	8.5
437.379	8.59
437.584	8.58
437.789	8.52
437.993	8.69
438.198	8.5
438.403	8.72
438.608	8.71
438.812	8.79
439.017	8.91
439.222	8.92
439.426	8.81
439.631	8.87
439.836	8.78
440.04	8.78
440.245	8.76
440.45	8.85
440.654	8.83
440.859	8.73
441.063	8.63
441.268	8.61
441.472	8.46
441.677	8.6
441.881	8.6
442.086	8.63
442.29	8.56
442.495	8.45
442.699	8.42
442.904	8.39
443.108	8.35
443.312	8.35
443.517	8.28
443.721	8.27
443.925	8.25
444.13	8.23
444.334	8.15
444.538	8.26
444.743	8.25
444.947	8.3
445.151	8.33
445.356	8.54
445.56	8.65
445.764	8.81
445.968	8.77
446.173	8.79
446.377	8.65
446.581	8.79
446.785	8.74
446.989	8.79
447.193	8.73
447.398	8.79
447.602	8.74
447.806	8.69
448.01	8.52
448.214	8.65
448.418	8.39
448.622	8.32
448.826	8.18
449.03	8.21
449.234	8.15
449.438	8.31
449.642	8.1
449.846	7.95
450.05	7.71
450.254	7.78
450.458	7.58
450.662	7.89
450.866	8.18
451.069	8.35
451.273	8.23
451.477	8.31
451.681	8.09
451.885	8.36
452.089	8.28
452.292	8.42
452.496	8.42
452.7	8.51
452.904	8.41
453.107	8.12
453.311	8.08
453.515	8.13
453.719	8.09
453.922	8.13
454.126	7.87
454.33	7.93
454.533	7.91
454.737	7.9
454.94	7.96
455.144	8.09
455.348	8.14
455.551	7.93
455.755	7.96
455.958	8.02
456.162	8.02
456.365	8.17
456.569	8.2
456.772	8.38
456.976	8.34
457.179	8.11
457.383	8.06
457.586	8.2
457.79	8.45
457.993	8.5
458.196	8.29
458.4	8.3
458.603	8.14
458.807	8.15
459.01	8.07
459.213	8.13
459.417	8.28
459.62	8.14
459.823	8.01
460.026	7.91
460.23	7.81
460.433	7.85
460.636	7.95
460.839	7.92
461.042	7.9
461.246	7.91
461.449	7.86
461.652	7.81
461.855	7.98
462.058	8.1
462.261	8.1
462.464	8.08
462.668	8.22
462.871	8.15
463.074	8.26
463.277	8.33
463.48	8.2
463.683	8.14
463.886	8.14
464.089	8.01
464.292	7.91
464.495	7.95
464.698	8.04
464.901	7.89
465.104	7.79
465.306	7.7
465.509	7.7
465.712	7.61
465.915	7.7
466.118	7.62
466.321	7.61
466.524	7.66
466.726	7.6
466.929	7.45
467.132	7.52
467.335	7.52
467.538	7.76
467.74	7.64
467.943	7.72
468.146	7.74
468.348	7.76
468.551	7.75
468.754	7.81
468.956	7.89
469.159	8.07
469.362	8.09
469.564	8.16
469.767	8
469.969	8.16
470.172	8.31
470.375	8.18
470.577	8.12
470.78	8.2
470.982	8.42
471.185	8.31
471.387	8.14
471.59	8.08
471.792	8.04
471.995	8.06
472.197	8.02
472.399	7.79
472.602	7.78
472.804	7.79
473.007	7.63
473.209	7.46
473.411	7.28
473.614	7.39
473.816	7.33
474.018	7.23
474.22	7.31
474.423	7.32
474.625	7.44
474.827	7.33
475.03	7.39
475.232	7.62
475.434	7.93
475.636	8.18
475.838	8.17
476.04	8.25
476.243	8.23
476.445	8.12
476.647	8.22
476.849	8.15
477.051	8.27
477.253	8.28
477.455	8.12
477.657	7.83
477.859	7.62
478.061	7.58
478.263	7.57
478.465	7.63
478.667	7.69
478.869	7.62
479.071	7.56
479.273	7.65
479.475	7.71
479.677	7.76
479.879	7.79
480.081	7.93
480.283	7.78
480.485	7.79
480.686	7.99
480.888	8
481.09	7.86
481.292	8.03
481.494	8
481.695	7.96
481.897	8.06
482.099	7.97
482.301	7.98
482.502	8.12
482.704	8.19
482.906	8.14
483.107	8.1
483.309	8.12
483.511	8.15
483.712	8.19
483.914	8.18
484.115	8.14
484.317	8.18
484.519	8.18
484.72	8.12
484.922	8.09
485.123	8.04
485.325	8
485.526	8.03
485.728	7.97
485.929	7.94
486.131	7.93
486.332	7.89
486.534	7.86
486.735	7.79
486.936	7.9
487.138	7.88
487.339	7.86
487.541	7.97
487.742	7.97
487.943	7.97
488.144	7.98
488.346	7.94
488.547	7.95
488.748	7.95
488.95	8.08
489.151	8.01
489.352	8
489.553	8.09
489.755	8.1
489.956	8
490.157	8.04
490.358	7.99
490.559	8.08
490.76	8.06
490.961	8.04
491.163	7.99
491.364	8
491.565	8.05
491.766	8.05
491.967	8
492.168	8.08
492.369	8.02
492.57	8.01
492.771	7.97
492.972	8.01
493.173	7.96
493.374	8.02
493.575	8.03
493.776	7.97
493.976	7.94
494.177	7.86
494.378	7.9
494.579	8.02
494.78	8.07
494.981	8.14
495.182	8.22
495.382	8.37
495.583	8.28
495.784	8.19
495.985	8.29
496.185	8.24
496.386	8.3
496.587	8.26
496.788	8.25
496.988	8.25
497.189	8.32
497.39	8.39
497.59	8.26
497.791	8.28
497.992	8.36
498.192	8.15
498.393	8.2
498.593	8.16
498.794	8.16
498.994	8.15
499.195	8.01
499.395	7.96
499.596	7.87
499.796	7.97
499.997	8.05
500.197	8.05
500.398	8.34
500.598	8.32
500.799	8.44
500.999	8.37
501.199	8.24
501.4	8.57
501.6	8.56
501.801	8.58
502.001	8.58
502.201	8.57
502.402	8.71
502.602	8.63
502.802	8.62
503.002	8.62
503.203	8.69
503.403	8.81
503.603	8.56
503.803	8.57
504.003	8.5
504.204	8.53
504.404	8.43
504.604	8.46
504.804	8.38
505.004	8.43
505.204	8.41
505.404	8.55
505.604	8.6
505.804	8.79
506.005	8.8
506.205	9.08
506.405	9.09
506.605	9.25
506.805	9.16
507.005	9.3
507.204	9.36
507.404	9.32
507.604	9.31
507.804	9.36
508.004	9.41
508.204	9.46
508.404	9.33
508.604	9.49
508.804	9.58
509.003	9.85
509.203	9.93
509.403	10.09
509.603	10.21
509.803	10.34
510.002	10.37
510.202	10.45
510.402	10.33
510.602	10.37
510.801	10.48
511.001	10.42
511.201	10.38
511.4	10.33
511.6	10.25
511.8	10.34
511.999	10.14
512.199	10.1
512.398	10
512.598	10.23
512.797	10.34
512.997	10.16
513.197	10.15
513.396	10.13
513.596	10.23
513.795	10.42
513.994	10.28
514.194	10.62
514.393	10.76
514.593	10.98
514.792	10.98
514.992	10.99
515.191	11.19
515.39	11.49
515.59	11.63
515.789	11.89
515.988	12.05
516.188	12.42
516.387	12.5
516.586	12.65
516.786	12.68
516.985	12.83
517.184	13
517.383	13.08
517.582	13
517.782	13.05
517.981	13.14
518.18	13.14
518.379	13.25
518.578	13.21
518.777	13.26
518.976	13.31
519.176	13.45
519.375	13.48
519.574	13.66
519.773	13.72
519.972	13.87
520.171	13.83
520.37	13.79
520.569	13.85
520.768	14.11
520.967	14.27
521.166	14.45
521.365	14.55
521.564	14.72
521.762	14.78
521.961	15.03
522.16	15.17
522.359	15.35
522.558	15.56
522.757	15.72
522.956	15.89
523.154	15.97
523.353	16.18
523.552	16.38
523.751	16.54
523.949	16.72
524.148	16.86
524.347	16.85
524.546	16.87
524.744	17.06
524.943	17.07
525.142	16.94
525.34	17.04
525.539	16.96
525.737	17.12
525.936	17.2
526.135	17.26
526.333	17.43
526.532	17.65
526.73	17.79
526.929	17.88
527.127	18.02
527.326	18.25
527.524	18.27
527.723	18.5
527.921	18.59
528.12	18.71
528.318	18.76
528.516	18.83
528.715	18.91
528.913	19.11
529.112	19.16
529.31	19.29
529.508	19.31
529.707	19.52
529.905	19.57
530.103	19.58
530.301	19.65
530.5	19.84
530.698	19.94
530.896	20.03
531.094	20.04
531.293	20.17
531.491	20.22
531.689	20.43
531.887	20.46
532.085	20.56
532.283	20.76
532.481	20.88
532.68	20.95
532.878	21.09
533.076	21.25
533.274	21.32
533.472	21.45
533.67	21.56
533.868	21.61
534.066	21.73
534.264	21.87
534.462	21.99
534.66	22.08
534.858	22.15
535.056	22.18
535.253	22.16
535.451	22.38
535.649	22.55
535.847	22.57
536.045	22.73
536.243	22.8
536.441	22.96
536.638	22.94
536.836	23.06
537.034	23.18
537.232	23.29
537.43	23.4
537.627	23.36
537.825	23.39
538.023	23.37
538.22	23.4
538.418	23.42
538.616	23.4
538.813	23.56
539.011	23.67
539.209	23.74
539.406	23.85
539.604	24.02
539.801	24.08
539.999	24.25
540.196	24.48
540.394	24.71
540.591	24.86
540.789	24.92
540.986	25.08
541.184	25.16
541.381	25.23
541.579	25.18
541.776	25.19
541.974	25.26
542.171	25.25
542.368	25.38
542.566	25.35
542.763	25.4
542.96	25.48
543.158	25.48
543.355	25.58
543.552	25.65
543.75	25.8
543.947	25.9
544.144	26.06
544.341	26.06
544.539	26.08
544.736	26.19
544.933	26.29
545.13	26.32
545.327	26.34
545.524	26.25
545.722	26.2
545.919	26.29
546.116	26.39
546.313	26.24
546.51	26.38
546.707	26.43
546.904	26.36
547.101	26.34
547.298	26.53
547.495	26.53
547.692	26.7
547.889	26.78
548.086	26.9
548.283	26.88
548.48	27.13
548.677	27.11
548.874	27.11
549.07	27.26
549.267	27.47
549.464	27.34
549.661	27.46
549.858	27.28
550.055	27.49
550.251	27.53
550.448	27.59
550.645	27.73
550.842	27.81
551.038	27.86
551.235	28.17
551.432	27.85
551.628	27.99
551.825	28.04
552.022	28.23
552.218	28.35
552.415	28.25
552.612	28.23
552.808	28.04
553.005	28.13
553.201	28.23
553.398	28.24
553.594	28.52
553.791	28.61
553.987	28.61
554.184	28.62
554.38	28.61
554.577	28.63
554.773	29.02
554.97	29.19
555.166	29.2
555.362	29.45
555.559	29.37
555.755	29.61
555.952	29.52
556.148	29.55
556.344	29.72
556.541	29.63
556.737	29.8
556.933	29.68
557.129	29.63
557.326	29.95
557.522	29.76
557.718	29.85
557.914	29.75
558.11	30.25
558.307	30.45
558.503	30.36
558.699	30.38
558.895	30.39
559.091	30.16
559.287	30.59
559.483	30.71
559.679	30.82
559.876	30.97
560.072	30.88
560.268	30.36
560.464	30.52
560.66	30.73
560.856	30.81
561.052	31.04
561.247	31.4
561.443	31.21
561.639	31.02
561.835	31.09
562.031	30.97
562.227	31.17
562.423	31.41
562.619	31.24
562.815	31.29
563.01	31.39
563.206	31.16
563.402	31.16
563.598	31.24
563.793	31.24
563.989	31.23
564.185	31.33
564.381	31.34
564.576	31.41
564.772	31.59
564.968	31.44
565.163	31.6
565.359	31.81
565.555	31.71
565.75	31.59
565.946	31.78
566.141	31.96
566.337	32.06
566.532	31.97
566.728	32.01
566.923	31.97
567.119	32.12
567.314	31.83
567.51	31.89
567.705	31.87
567.901	32
568.096	32.17
568.292	32.13
568.487	32.14
568.682	32.25
568.878	32.43
569.073	32.55
569.268	32.53
569.464	32.74
569.659	32.69
569.854	32.83
570.05	32.97
570.245	33.03
570.44	32.89
570.635	32.84
570.831	32.85
571.026	32.57
571.221	32.68
571.416	32.74
571.611	32.8
571.806	32.86
572.002	32.97
572.197	33.13
572.392	33.1
572.587	33.14
572.782	33.13
572.977	33.21
573.172	33.4
573.367	33.27
573.562	33.37
573.757	33.45
573.952	33.5
574.147	33.31
574.342	33.11
574.537	33.04
574.732	33.25
574.927	33.19
575.121	33.23
575.316	33.28
575.511	33.41
575.706	33.24
575.901	33.33
576.096	33.49
576.29	33.63
576.485	33.72
576.68	33.88
576.875	33.88
577.069	33.98
577.264	34.12
577.459	34.01
577.654	34.13
577.848	34.19
578.043	34.13
578.238	33.93
578.432	33.85
578.627	33.92
578.821	33.78
579.016	33.59
579.21	33.55
579.405	33.3
579.6	33.41
579.794	33.12
579.989	33.33
580.183	33.26
580.378	33.44
580.572	33.67
580.766	33.47
580.961	33.24
581.155	33.29
581.35	33.38
581.544	33.61
581.738	33.67
581.933	33.76
582.127	33.87
582.321	33.96
582.516	33.75
582.71	33.58
582.904	33.65
583.099	33.83
583.293	34.05
583.487	34.21
583.681	34.01
583.875	33.83
584.07	33.89
584.264	33.98
584.458	34.06
584.652	34.18
584.846	34.23
585.04	34.25
585.234	34.23
585.428	34.14
585.623	34.37
585.817	34.33
586.011	34.72
586.205	34.47
586.399	34.28
586.593	34.16
586.787	34.29
586.981	34.47
587.174	34.41
587.368	34.27
587.562	34.1
587.756	34.03
587.95	34.19
588.144	34.01
588.338	34.16
588.532	34.03
588.725	34.04
588.919	33.92
589.113	34.01
589.307	34.07
589.501	34.16
589.694	34.59
589.888	34.42
590.082	34.3
590.275	34.18
590.469	34.2
590.663	34.05
590.856	34.2
591.05	34.29
591.244	34.05
591.437	34.21
591.631	34.32
591.824	34.26
592.018	34.17
592.212	34.34
592.405	34.59
592.599	34.59
592.792	34.83
592.986	34.68
593.179	34.83
593.372	35.04
593.566	35.03
593.759	35.28
593.953	35.32
594.146	35.28
594.339	35.36
594.533	35.41
594.726	35.51
594.92	35.48
595.113	35.54
595.306	35.22
595.499	35.26
595.693	35.27
595.886	35.3
596.079	35.18
596.272	35.27
596.466	35.1
596.659	35.23
596.852	35.39
597.045	35.61
597.238	35.68
597.431	35.78
597.624	35.71
597.818	35.86
598.011	35.54
598.204	35.61
598.397	35.85
598.59	36.03
598.783	35.83
598.976	35.86
599.169	35.7
599.362	35.61
599.555	35.73
599.748	35.64
599.941	35.57
600.134	35.79
600.326	35.63
600.519	35.18
600.712	35.22
600.905	35.18
601.098	34.94
601.291	35.05
601.483	35.32
601.676	35.26
601.869	35.42
602.062	35.36
602.255	35.24
602.447	35.55
602.64	35.84
602.833	35.89
603.025	36.24
603.218	36.23
603.411	36.19
603.603	36.1
603.796	36.18
603.989	36.25
604.181	36.31
604.374	36.59
604.566	36.56
604.759	36.54
604.951	36.56
605.144	36.53
605.336	36.54
605.529	36.67
605.721	36.82
605.914	36.93
606.106	36.88
606.299	36.81
606.491	36.65
606.683	36.41
606.876	36.3
607.068	36.27
607.26	35.97
607.453	36.13
607.645	35.88
607.837	35.8
608.03	36.05
608.222	36.27
608.414	36.32
608.606	36.27
608.799	36.52
608.991	36.64
609.183	36.61
609.375	36.54
609.567	36.59
609.759	36.62
609.952	36.71
610.144	36.52
610.336	36.53
610.528	36.55
610.72	36.45
610.912	36.29
611.104	36.46
611.296	36.36
611.488	36.52
611.68	36.34
611.872	36.24
612.064	36.28
612.256	36.09
612.448	35.7
612.64	35.61
612.832	35.48
613.023	35.35
613.215	35.05
613.407	35.24
613.599	35.27
613.791	35.29
613.983	35.41
614.174	35.41
614.366	35.49
614.558	35.92
614.75	36.17
614.941	36.46
615.133	36.68
615.325	36.87
615.516	37.05
615.708	37.24
615.9	37.5
616.091	37.42
616.283	37.35
616.475	37.63
616.666	37.41
616.858	37.21
617.049	37.13
617.241	37.34
617.432	37.22
617.624	36.95
617.815	36.86
618.007	37.17
618.198	37.31
618.39	36.99
618.581	36.79
618.773	37.02
618.964	37.03
619.155	37.65
619.347	37.72
619.538	37.86
619.729	37.9
619.921	37.99
620.112	37.39
620.303	37.43
620.494	37.64
620.686	37.7
620.877	37.86
621.068	38.08
621.259	37.78
621.451	37.67
621.642	37.68
621.833	37.73
622.024	37.55
622.215	37.85
622.406	38.03
622.597	38.13
622.788	37.99
622.98	37.57
623.171	37.64
623.362	37.69
623.553	37.65
623.744	37.74
623.935	37.73
624.126	38.02
624.317	37.59
624.508	37.36
624.698	37.38
624.889	37.17
625.08	37.28
625.271	37.29
625.462	37.15
625.653	37.27
625.844	37.2
626.034	37.22
626.225	37.13
626.416	37.45
626.607	37.54
626.798	37.36
626.988	37.69
627.179	37.88
627.37	38.02
627.56	38.13
627.751	38
627.942	38.13
628.132	38.18
628.323	38.18
628.514	38.1
628.704	38.25
628.895	38.28
629.085	38.28
629.276	38.06
629.466	37.88
629.657	37.9
629.847	37.85
630.038	37.79
630.228	37.89
630.419	38.06
630.609	38.15
630.8	37.98
630.99	38.19
631.181	38.04
631.371	38.26
631.561	38.32
631.752	38.11
631.942	38.45
632.132	38.52
632.323	38.49
632.513	38.49
632.703	38.62
632.893	38.71
633.084	38.71
633.274	38.51
633.464	38.51
633.654	38.42
633.844	38.57
634.034	38.31
634.225	38.53
634.415	38.52
634.605	38.4
634.795	38.36
634.985	38.47
635.175	38.29
635.365	38.65
635.555	38.81
635.745	38.71
635.935	38.37
636.125	38.64
636.315	38.44
636.505	38.48
636.695	38.48
636.885	38.51
637.075	38.06
637.265	38.35
637.455	38.22
637.644	38.01
637.834	37.96
638.024	38.24
638.214	38.07
638.404	37.9
638.593	37.81
638.783	37.75
638.973	37.79
639.163	38.18
639.352	37.85
639.542	37.66
639.732	37.88
639.921	37.75
640.111	37.51
640.301	37.39
640.49	37.37
640.68	37.67
640.87	37.54
641.059	37.56
641.249	37.66
641.438	37.9
641.628	38.31
641.817	38.35
642.007	38.61
642.196	39.05
642.386	39.49
642.575	39.33
642.764	39.11
642.954	39.43
643.143	39.46
643.333	39.33
643.522	39.16
643.711	39.26
643.901	39.05
644.09	39.03
644.279	38.95
644.469	38.68
644.658	38.75
644.847	38.71
645.036	38.3
645.226	38.02
645.415	38.57
645.604	38.52
645.793	38.12
645.982	37.87
646.171	37.81
646.361	37.64
646.55	37.51
646.739	37.46
646.928	37.71
647.117	37.97
647.306	38.08
647.495	37.74
647.684	37.82
647.873	38.24
648.062	38.34
648.251	38.5
648.44	38.71
648.629	39.01
648.818	39.37
649.007	39.45
649.196	39.39
649.384	39.15
649.573	39.22
649.762	39.39
649.951	39.5
650.14	39.46
650.328	39.27
650.517	39.36
650.706	39.18
650.895	39.31
651.083	39.06
651.272	38.79
651.461	39.16
651.65	38.98
651.838	39
652.027	38.76
652.216	39.42
652.404	40.04
652.593	39.98
652.781	39.8
652.97	39.68
653.158	39.67
653.347	40.04
653.535	40.11
653.724	40.37
653.912	40.15
654.101	40.61
654.289	39.89
654.478	39.66
654.666	39.69
654.855	40.35
655.043	40.26
655.231	40.33
655.42	40.46
655.608	40.31
655.796	40.27
655.985	40.17
656.173	39.41
656.361	39.51
656.55	39.24
656.738	39.21
656.926	39
657.114	38.72
657.302	38.81
657.491	38.93
657.679	38.64
657.867	38.61
658.055	38.71
658.243	38.74
658.431	38.71
658.619	39.03
658.807	38.58
658.996	38.59
659.184	38.65
659.372	38.46
659.56	38.13
659.748	38.46
659.936	38.43
660.124	38.35
660.311	38.62
660.499	39.14
660.687	38.79
660.875	39.25
661.063	39.06
661.251	39.56
661.439	39.47
661.627	39.94
661.814	39.99
662.002	40.07
662.19	40.2
662.378	40.15
662.565	39.77
662.753	40.08
662.941	40.24
663.129	39.97
663.316	39.7
663.504	40.08
663.692	39.76
663.879	39.73
664.067	39.68
664.254	39.74
664.442	39.67
664.63	39.65
664.817	39.24
665.005	39
665.192	39.06
665.38	39.18
665.567	39.12
665.755	39.08
665.942	38.72
666.13	38.26
666.317	38.36
666.504	38.36
666.692	37.96
666.879	38.09
667.067	38.23
667.254	38.38
667.441	38.45
667.629	38.6
667.816	38.49
668.003	38.8
668.19	38.93
668.378	39.19
668.565	39.54
668.752	39.78
668.939	40.16
669.127	39.74
669.314	39.69
669.501	39.51
669.688	39.74
669.875	39.72
670.062	39.65
670.249	39.81
670.436	39.56
670.623	39.31
670.81	39.43
670.997	39.22
671.184	39.52
671.371	39.59
671.558	39.71
671.745	39.38
671.932	39.81
672.119	39.62
672.306	39.66
672.493	40.34
672.68	40.75
672.867	40.95
673.054	40.99
673.24	40.99
673.427	40.94
673.614	40.89
673.801	40.88
673.988	40.6
674.174	40.89
674.361	41.09
674.548	40.47
674.734	40.32
674.921	39.8
675.108	39.67
675.294	39.58
675.481	39.53
675.668	39.46
675.854	39.2
676.041	39.22
676.227	39.06
676.414	39.04
676.601	38.93
676.787	38.46
676.974	38.33
677.16	38.51
677.347	38.8
677.533	38.95
677.719	39.08
677.906	39.09
678.092	39.49
678.279	39.79
678.465	39.4
678.651	39.58
678.838	39.71
679.024	39.82
679.21	39.71
679.397	39.99
679.583	39.8
679.769	39.68
679.955	39.76
680.142	39.58
680.328	39.54
680.514	39.89
680.7	39.51
680.886	40.14
681.073	40.34
681.259	40.02
681.445	39.45
681.631	39.68
681.817	39.34
682.003	39.38
682.189	39.15
682.375	39.12
682.561	38.96
682.747	39.29
682.933	38.58
683.119	38.66
683.305	39.02
683.491	39.4
683.677	39.5
683.863	40.49
684.049	40.11
684.235	40.04
684.42	39.89
684.606	39.88
684.792	39.76
684.978	39.54
685.164	39.51
685.349	39.47
685.535	39.13
685.721	39.69
685.907	39.25
686.092	39.85
686.278	39.59
686.464	39.94
686.649	40.01
686.835	40.47
687.021	40.9
687.206	40.89
687.392	40.62
687.577	40.73
687.763	40.3
687.948	40.27
688.134	40.04
688.319	40.13
688.505	39.49
688.69	39.21
688.876	38.85
689.061	39.37
689.247	39.36
689.432	39.8
689.618	39.81
689.803	39.64
689.988	39.77
690.174	39.93
690.359	39.9
690.544	39.69
690.73	39.59
690.915	39.82
691.1	39
691.285	39.06
691.471	39.04
691.656	39.49
691.841	39.46
692.026	38.95
692.211	38.56
692.396	38.9
692.582	39.38
692.767	40.02
692.952	39.75
693.137	40.19
693.322	40.25
693.507	40.29
693.692	39.89
693.877	40.34
694.062	40.95
694.247	41.51
694.432	41.49
694.617	40.9
694.802	40.8
694.987	40.58
695.172	40.41
695.357	40.53
695.541	40.74
695.726	40.75
695.911	40.66
696.096	40.09
696.281	39.9
696.466	40.23
696.65	41.32
696.835	40.87
697.02	41.07
697.204	40.92
697.389	40.52
697.574	40.49
697.759	40.58
697.943	40.38
698.128	40.51
698.312	40.46
698.497	40.45
698.682	40.36
698.866	40.31
699.051	40.67
699.235	40.36
699.42	40.58
699.604	40.48
699.789	40.41
699.973	40.84
700.158	41.17
700.342	41.38
700.527	41.34
700.711	40.97
700.895	41.06
701.08	40.75
701.264	41.33
701.448	41.38
701.633	41.53
701.817	41.35
702.001	40.83
702.186	40.55
702.37	39.8
702.554	39.49
702.738	40.27
702.923	40.93
703.107	40.62
703.291	40.37
703.475	39.73
703.659	39.73
703.843	40.2
704.027	40.96
704.212	40.88
704.396	41.02
704.58	41.11
704.764	40.5
704.948	40.06
705.132	40.38
705.316	41.3
705.5	42.19
705.684	41.93
705.868	42.17
706.052	41.42
706.235	41.31
706.419	42.14
706.603	42.33
706.787	42.32
706.971	42.93
707.155	42.76
707.339	42.3
707.522	41.71
707.706	41.98
707.89	41.43
708.074	41.7
708.257	42.23
708.441	41.24
708.625	40.72
708.808	41.05
708.992	40.93
709.176	40.64
709.359	40.83
709.543	41.54
709.727	41.05
709.91	40.69
710.094	40.16
710.277	40.31
710.461	41.17
710.644	41.69
710.828	41.43
711.011	40.79
711.195	41.28
711.378	41.26
711.562	40.93
711.745	41.27
711.928	42.14
712.112	42.61
712.295	41.89
712.478	41.91
712.662	41.69
712.845	41.35
713.028	41.7
713.212	41.7
713.395	41.29
713.578	41.17
713.761	41.23
713.945	41.07
714.128	41.07
714.311	41.66
714.494	41.42
714.677	41.3
714.86	42.07
715.043	42.17
715.227	41.55
715.41	41.64
715.593	41.47
715.776	41.4
715.959	41.59
716.142	41.48
716.325	41.12
716.508	40.99
716.691	41.32
716.874	40.86
717.057	40.51
717.239	40.96
717.422	41.05
717.605	41.67
717.788	41.27
717.971	40.68
718.154	40.84
718.337	40.88
718.519	41.34
718.702	41.54
718.885	41.94
719.068	42
719.25	42.77
719.433	42.62
719.616	41.93
719.798	42.01
719.981	41.23
720.164	41
720.346	41.43
720.529	41.34
720.712	40.47
720.894	39.83
721.077	39.78
721.259	39.08
721.442	38.37
721.624	38.46
721.807	38.84
721.989	40.52
722.172	40.44
722.354	39.51
722.537	38.91
722.719	40.19
722.901	40.52
723.084	40.93
723.266	40.9
723.448	41.05
723.631	40.98
723.813	41.18
723.995	40.32
724.178	40.01
724.36	41.3
724.542	40.83
724.724	40.05
724.907	40.04
725.089	40.63
725.271	41.59
725.453	41.89
725.635	41.13
725.817	41.54
725.999	41.83
726.181	42.81
726.364	41.94
726.546	42.65
726.728	43.02
726.91	42.54
727.092	41.81
727.274	41.56
727.456	41.87
727.638	42.19
727.819	41.26
728.001	41.52
728.183	40.14
728.365	40.52
728.547	40.95
728.729	40.66
728.911	41.66
729.093	41.93
729.274	41.24
729.456	40.69
729.638	41.85
729.82	42.35
730.001	42.46
730.183	43.78
730.365	43.83
730.546	44.06
730.728	44.18
730.91	44.03
731.091	42.42
731.273	42.35
731.455	42.17
731.636	41.75
731.818	42.26
731.999	42.03
732.181	42.2
732.362	42.16
732.544	40.8
732.725	40.75
732.907	41.04
733.088	42.07
733.27	41.7
733.451	42.24
733.633	41.16
733.814	40.33
733.995	39.99
734.177	38.45
734.358	38.35
734.539	38.64
734.721	38.08
734.902	37.51
735.083	37.34
735.264	38
735.446	38.18
735.627	39.55
735.808	40.21
735.989	39.69
736.17	40.7
736.351	39.99
736.533	40.81
736.714	41.65
736.895	40.97
737.076	42.28
737.257	41.64
737.438	41.67
737.619	41.12
737.8	40.99
737.981	42.52
738.162	42.03
738.343	42.27
738.524	41.89
738.705	41.64
738.886	41.74
739.067	40.63
739.247	41
739.428	39.97
739.609	41.08
739.79	41.33
739.971	41.8
740.151	41.58
740.332	41.71
740.513	41.75
740.694	41.28
740.874	40.61
741.055	40.65
741.236	41.01
741.417	42.54
741.597	41.05
741.778	40.97
741.958	39.56
742.139	39.42
742.32	39.33
742.5	38.88
742.681	40.74
742.861	41.83
743.042	40.96
743.222	40.89
743.403	39.99
743.583	40.84
743.764	39.72
743.944	40.4
744.124	41.59
744.305	41.43
744.485	42.39
744.666	40.39
744.846	41.11
745.026	42.63
745.207	42.4
745.387	43.3
745.567	42.24
745.747	41.96
745.928	40.79
746.108	40.48
746.288	41.52
746.468	41.17
746.648	41.5
746.829	41.14
747.009	41.56
747.189	42.01
747.369	41.28
747.549	42.12
747.729	42.37
747.909	42.77
748.089	42.82
748.269	40.54
748.449	41.36
748.629	41.97
748.809	42.59
748.989	41.87
749.169	41.76
749.349	41.11
749.529	41.13
749.709	41.7
749.889	42.01
750.068	40.93
750.248	42.16
750.428	41.14
750.608	40.27
750.788	40.09
750.967	40.26
751.147	39.95
751.327	42.43
751.507	41.45
751.686	41.78
751.866	41.19
752.046	42.55
752.225	42.26
752.405	42.14
752.585	43.52
752.764	42.81
752.944	43.02
753.123	43.08
753.303	40.63
753.482	41.34
753.662	41.44
753.841	41.55
754.021	39.91
754.2	41.07
754.38	41.72
754.559	40.41
754.739	40.47
754.918	39.79
755.097	40.14
755.277	41.03
755.456	40.69
755.635	39.4
755.815	39.56
755.994	40.69
756.173	38.73
756.352	39.29
756.532	39.69
756.711	39.81
756.89	39.54
757.069	40.33
757.248	39.79
757.427	39.88
757.607	40.07
757.786	40.56
757.965	40.86
758.144	41.97
758.323	41.69
758.502	42.16
758.681	41.85
758.86	42.6
759.039	41.91
759.218	41.72
759.397	42.37
759.576	43.01
759.755	41.57
759.934	42.39
760.113	41.25
760.291	41.4
760.47	41.43
760.649	42.31
760.828	42.33
761.007	41.64
761.186	42.11
761.364	42.39
761.543	42.6
761.722	43.7
761.901	41.99
762.079	43.65
762.258	42.53
762.437	42.51
762.615	42.15
762.794	42.55
762.972	42.69
763.151	42.92
763.33	43.02
763.508	43.14
763.687	43.4
763.865	43.75
764.044	43
764.222	42.41
764.401	41.77
764.579	42.46
764.758	42.51
764.936	43.37
765.114	43.42
765.293	43.69
765.471	44
765.65	42.23
765.828	41.93
766.006	41.81
766.184	42.65
766.363	43.11
766.541	41.87
766.719	41.92
766.898	40.93
767.076	39.54
767.254	39.45
767.432	37.85
767.61	40.12
767.788	40.72
767.967	40.45
768.145	40.55
768.323	38.93
768.501	40.13
768.679	39.46
768.857	39.49
769.035	41.66
769.213	41.56
769.391	41.98
769.569	41.73
769.747	41.21
769.925	42.31
770.103	43.43
770.281	45.7
770.459	44.67
770.636	45.94
770.814	46.87
770.992	46.26
771.17	44.4
771.348	45.09
771.525	45.19
771.703	45.28
771.881	45.84
772.059	45.34
772.236	43.51
772.414	41.66
772.592	40.35
772.769	39.53
772.947	38.76
773.125	40.17
773.302	41.11
773.48	39.33
773.657	40.16
773.835	40.36
774.013	38.91
774.19	39.78
774.368	42.5
774.545	42.26
774.723	40.32
774.9	41.95
775.077	41.71
775.255	41.02
775.432	42.12
775.61	40.99
775.787	40.93
775.964	43.33
776.142	42.57
776.319	42.02
776.496	41.3
776.674	43.3
776.851	42.96
777.028	40.52
777.205	38.79
777.382	39.55
777.56	40
777.737	38.42
777.914	35.8
778.091	36.89
778.268	36.18
778.445	35.01
778.622	34.46
778.8	34.08
778.977	36.55
779.154	36.76
779.331	37.35
779.508	36.72
779.685	37.25
779.862	38.03
780.038	38.2
780.215	38.1
780.392	39.97
780.569	38.7
780.746	37.7
780.923	37.69
781.1	37.66
781.277	35.22
781.453	37.23
781.63	38.77
781.807	38.67
781.984	39.65
782.16	39.37
782.337	39.37
782.514	39.9
782.691	41.37
782.867	40.77
783.044	40.39
783.221	42.45
783.397	40.43
783.574	38.53
783.75	41.64
783.927	41.24
784.103	44.34
784.28	44.44
784.456	47.55
784.633	45.93
784.809	47.29
784.986	47.67
785.162	45.58
785.339	47.65
785.515	47.71
785.692	44.84
785.868	42.8
786.044	40.54
786.221	38.3
786.397	36.19
786.573	37.24
786.749	35.39
786.926	37.09
787.102	37
787.278	36.76
787.454	36.63
787.631	35.93
787.807	38.18
787.983	36.4
788.159	36.84
788.335	34.09
788.511	34.73
788.687	33.71
788.863	33.4
789.039	36.5
789.216	33.62
789.392	32.76
789.568	33.29
789.744	33.06
789.919	34.34
790.095	36.36
790.271	39.32
790.447	39.05
790.623	42.39
790.799	44.47
790.975	43.58
791.151	46.31
791.327	51.2
791.502	50.51
791.678	49.38
791.854	48.41
792.03	47.92
792.205	48.9
792.381	48.26
792.557	49.03
792.733	45.87
792.908	47.09
793.084	48.65
793.259	45.04
793.435	46.05
793.611	48.79
793.786	49.33
793.962	50.14
794.137	48.37
794.313	51.47
794.488	49.74
794.664	51.77
794.839	49.68
795.015	47.7
795.19	47.19
795.366	45.35
795.541	43.19
795.716	44.65
795.892	42.71
796.067	43.72
796.242	43.11
796.418	40.99
796.593	40.19
796.768	39.44
796.944	37.59
797.119	37.8
797.294	38.46
797.469	39.85
797.644	38.55
797.82	37.51
797.995	36.66
798.17	33.4
798.345	36.54
798.52	36.65
798.695	36.62
798.87	39.52
799.045	41.77
799.22	43.89
799.395	42.92
799.57	45.44
799.745	47.5
799.92	46.84
800.095	48.59
800.27	46.42
800.445	45.78
800.62	47.34
800.795	47.16
800.97	46.02
801.145	45.62
801.319	44.82
801.494	43.15
801.669	41.9
801.844	42
802.018	43.94
802.193	45.27
802.368	45.39
802.543	43.84
802.717	43.4
802.892	43.17
803.067	41.72
803.241	45.27
803.416	43.34
803.59	44.27
803.765	46.73
803.94	43.09
804.114	39.57
804.289	38.34
804.463	38.02
804.638	36.65
804.812	35.09
804.986	36.71
805.161	34.33
805.335	36.39
805.51	38.33
805.684	37.99
805.858	38.29
806.033	41.15
806.207	42.42
806.381	42.26
806.556	43.32
806.73	45.52
806.904	45.63
807.078	44.94
807.253	45.04
807.427	44.14
807.601	41.73
807.775	41.84
807.949	41.68
808.123	41.72
808.298	43.19
808.472	42.12
808.646	39.45
808.82	38.24
808.994	37.11
809.168	36.78
809.342	36.35
809.516	38.68
809.69	36.52
809.864	35.2
810.038	36.24
810.212	34.53
810.385	38.06
810.559	38.81
810.733	38.9
810.907	38.05
811.081	37.28
811.255	31.3
811.428	29.49
811.602	32.47
811.776	33
811.95	32.44
812.123	34.13
812.297	34.8
812.471	35.05
812.644	33.42
812.818	37.23
812.992	34.82
813.165	39.74
813.339	43.92
813.512	44.03
813.686	47.03
813.86	46.98
814.033	43.99
814.207	40.81
814.38	42.3
814.554	45.74
814.727	43.86
814.9	44.69
815.074	48.05
815.247	41.18
815.421	44.18
815.594	42.78
815.767	37.56
815.941	37.97
816.114	38.98
816.287	42.66
816.46	39.72
816.634	36.9
816.807	35.17
816.98	32.06
817.153	34.57
817.327	29.38
817.5	26.89
817.673	32.29
817.846	32.15
818.019	30.65
818.192	30.27
818.365	32.96
818.538	36.78
818.711	42.36
818.884	40.52
819.057	38.26
819.23	39.94
819.403	41.88
819.576	38.23
819.749	38.78
819.922	40.2
820.095	39.57
820.268	38.85
820.441	34.95
820.614	35.77
820.786	36.04
820.959	39.85
821.132	38.65
821.305	38.93
821.477	40.25
821.65	42.07
821.823	41.54
821.996	41.06
822.168	41.58
822.341	43.28
822.514	42.49
822.686	43.19
822.859	43.04
823.031	44.23
823.204	43.91
823.376	44.11
823.549	43.99
823.722	44.2
823.894	44.76
824.067	44.23
824.239	43.63
824.411	44.36
824.584	43.78
824.756	43.45
824.929	43.41
825.101	43.77
825.273	43.36
825.446	42.92
825.618	42.14
825.79	41.56
825.963	41.55
826.135	42.24
826.307	40.96
826.479	40.54
826.652	40.96
826.824	39.81
826.996	40.17
827.168	40.59
827.34	40.06
827.512	40.34
827.684	41.45
827.856	42.4
828.029	42.56
828.201	43.94
828.373	45.27
828.545	44.71
828.717	44.91
828.889	44.3
829.061	45.25
829.232	44.61
829.404	43.74
829.576	42.46
829.748	40.95
829.92	40.93
830.092	39.73
830.264	38.24
830.436	38.36
830.607	37.68
830.779	37.44
830.951	35.99
831.123	37.08
831.294	39.13
831.466	38.79
831.638	37.7
831.809	36.16
831.981	39
832.153	38.95
832.324	34.15
832.496	32.14
832.667	28.57
832.839	28.46
833.011	29.88
833.182	30.11
833.354	28.78
833.525	33.01
833.697	33.52
833.868	33.19
834.039	35.25
834.211	39.27
834.382	41.8
834.554	45.14
834.725	46.34
834.896	46.07
835.068	46.41
835.239	47.78
835.41	47.8
835.581	49.66
835.753	48.94
835.924	47.9
836.095	47.95
836.266	49.64
836.438	48.06
836.609	46.79
836.78	46.41
836.951	45.13
837.122	44.14
837.293	45
837.464	42.54
837.635	39.75
837.806	36.59
837.977	34.07
838.148	27.36
838.319	27.87
838.49	26.33
838.661	25.75
838.832	23.44
839.003	19.2
839.174	4.8
839.345	2.07
839.516	0.92
839.687	4.24
839.857	9.85
840.028	16.13
840.199	15.51
840.37	20.51
840.54	28.13
840.711	26.03
840.882	31.23
841.053	37.4
841.223	39.59
841.394	43.89
841.564	46.07
841.735	45.37
841.906	44.18
842.076	45.75
842.247	41.2
842.417	37.09
842.588	44.09
842.758	39.49
842.929	38.09
843.099	30.38
843.27	26.05
843.44	20.05
843.611	16.77
843.781	8.68
843.951	13.64
844.122	16.59
844.292	10.94
844.462	13.65
844.633	23.63
844.803	33.27
844.973	40.67
845.144	39.57
845.314	45.22
845.484	57.09
845.654	77.46
845.824	74.1
845.995	69.38
846.165	62.42
846.335	58.5
846.505	34.81
846.675	10.49
846.845	-3
847.015	4.26
847.185	10.32
847.355	7.23
847.525	5.3
847.695	2.88
847.865	-2.37
848.035	10.23
848.205	-15.53
848.375	15.37
848.545	27.98
848.715	31.06
848.884	30.53
849.054	11.9
849.224	14.79
849.394	15.81
849.564	17.95
849.733	31.36
849.903	10.75
850.073	39.54
850.243	39.91
850.412	36.46
850.582	40.77
850.752	27.75
850.921	49.27
851.091	23.73
851.26	14.79
851.43	7.52
851.599	-7.17
851.769	12.88
851.939	12.44
852.108	2.82
852.278	-6.02
852.447	4.23
852.616	21.09
852.786	-7.93
852.955	8.19
853.125	37.33
853.294	39.84
853.463	39.75
853.633	35.23
853.802	30.55
853.971	4.13
854.141	-8.54
854.31	-27.65
854.479	-47.82
854.648	-24.93
854.818	3.66
854.987	-21.92
855.156	-19.64
855.325	10.11
855.494	17.1
855.663	-29.28
855.832	-51.15
856.001	4.55
856.171	30.03
856.34	39.75
856.509	48.37
856.678	36.47
856.847	56.15
857.016	24.35
857.185	24.31
857.353	30.85
857.522	61.13
857.691	67.68
857.86	71.86
858.029	76.27
858.198	64.44
858.367	57.9
858.535	60.24
858.704	54.49
858.873	62.22
859.042	51.66
859.21	35.64
859.379	25.94
859.548	7.7
859.717	2.15
859.885	-7.36
860.054	-0.96
860.222	-6.51
860.391	-9.07
860.56	6.65
860.728	15.26
860.897	18.81
861.065	27.34
861.234	28.62
861.402	29.7
861.571	27.82
861.739	23.01
861.908	33.77
862.076	29.68
862.244	32.43
862.413	24.59
862.581	18.33
862.749	-6.52
862.918	-32.75
863.086	-67.12
863.254	-33.27
863.423	-50.64
863.591	-39.56
863.759	-251.87
863.927	-258.36
864.096	-1445.45
864.264	409.17
864.432	734.3
864.6	-1095.28
864.768	-414.94
864.936	-141.62
865.104	-61.48
865.272	-37.68
865.44	-58.82
865.608	3.9
865.776	-83.18
865.944	-37.5
866.112	-6.36
866.28	-15.06
866.448	-20.84
866.616	-0.26
866.784	5.76
866.952	-19.69
867.12	-13.8
867.288	5.11
867.455	1.49
867.623	11.28
867.791	6.21
867.959	-0.43
868.127	20.33
868.294	35.65
868.462	17.91
868.63	4.68
868.797	-27.29
868.965	-53
869.133	-100.26
869.3	-126.42
869.468	-23.52
869.636	13.57
869.803	2.14
869.971	-38.7
870.138	-33.02
870.306	-22.21
870.473	-18.28
870.641	-0.78
870.808	-6.49
870.975	-6.54
871.143	7.24
871.31	-11.98
871.478	-99.69
871.645	-33.31
871.812	-25.88
871.98	-49.93
872.147	-99.96
872.314	-61.56
872.482	-80.14
872.649	-76.19
872.816	-9.46
872.983	-178.63
873.15	-77.97
873.318	-58.25
873.485	-84
873.652	-34.85
873.819	-11.3
873.986	5.34
874.153	25.81
874.32	31.28
874.487	32.55
874.654	35.03
874.821	51.78
874.988	60.53
875.155	64.21
875.322	43.08
875.489	44.69
875.656	44.6
875.823	28.6
875.99	11.83
876.157	28.43
876.324	29.68
876.49	33.66
876.657	45.55
876.824	59.64
876.991	63.69
877.157	87.32
877.324	66.15
877.491	70
877.658	75.43
877.824	89.13
877.991	87.22
878.157	75.48
878.324	99.17
878.491	93.39
878.657	75.04
878.824	81.58
878.99	77.45
879.157	125.6
879.323	102.71
879.49	114.61
879.656	90.37
879.823	87.58
879.989	94.51
880.156	52.38
880.322	49.06
880.488	66.7
880.655	69.62
880.821	73.89
880.987	67.62
881.154	72.15
881.32	45.65
881.486	42.91
881.652	46.66
881.819	46.77
881.985	52.12
882.151	43.19
882.317	34.41
882.483	31.78
882.649	34.85
882.816	32.71
882.982	35.25
883.148	39.83
883.314	40.36
883.48	38.61
883.646	38.52
883.812	38.01
883.978	39.73
884.144	42.28
884.31	41.92
884.476	42.02
884.642	42.69
884.807	43.1
884.973	42.18
885.139	43.44
885.305	43.44
885.471	41.63
885.637	41.74
885.802	42.64
885.968	43.01
886.134	44.59
886.3	43.54
886.465	44.26
886.631	42.41
886.797	41.34
886.962	42.08
887.128	41.09
887.293	39.92
887.459	39.94
887.625	32.38
887.79	26.8
887.956	27.35
888.121	25.59
888.287	17.38
888.452	14.83
888.618	17.39
888.783	-9.56
