Data from CB_101_Reflection_2.txt Node
Date: Sat Nov 14 17:47:41 EST 2015
User: robert
Spectrometer: USB4E03001
Autoset integration time: false
Trigger mode: 4
Integration Time (sec): 1.000000E-1
Scans to average: 15
Electric dark correction enabled: true
Nonlinearity correction enabled: false
Boxcar width: 5
Stray light correction enabled: false
XAxis mode: Wavelengths
Stop averaging: false
Number of Pixels in Spectrum: 3648
>>>>>Begin Spectral Data<<<<<
177.566	210.39
177.785	-1775.37
178.005	380.55
178.225	428.67
178.445	-1130.53
178.665	97.88
178.885	-2076.29
179.105	178.21
179.324	261.63
179.544	88.32
179.764	69.74
179.984	60.55
180.204	47.68
180.423	41.21
180.643	60.2
180.863	114.81
181.083	63.91
181.302	59.55
181.522	75.21
181.742	50.53
181.961	28.67
182.181	24.41
182.401	79.29
182.621	104.39
182.84	90.45
183.06	40.16
183.279	-15.98
183.499	-7.16
183.719	-77.45
183.938	-17.07
184.158	64.42
184.377	94.08
184.597	130.63
184.816	101.32
185.036	112.42
185.256	125.19
185.475	121.83
185.695	101.63
185.914	86.06
186.134	93.33
186.353	91.29
186.572	77.67
186.792	74.66
187.011	70.81
187.231	77.45
187.45	66.57
187.67	48.53
187.889	49.6
188.108	65.16
188.328	72.07
188.547	70.29
188.766	86.33
188.986	87.04
189.205	81.93
189.424	73.58
189.644	78.91
189.863	80.57
190.082	107.77
190.302	94.98
190.521	80.56
190.74	73.63
190.959	67.32
191.178	53.37
191.398	48.51
191.617	58.96
191.836	62.16
192.055	49.52
192.274	36.31
192.494	12.76
192.713	4.34
192.932	-17.18
193.151	25.67
193.37	-14.85
193.589	1.61
193.808	47.31
194.027	38.33
194.246	170.25
194.465	-157.52
194.685	25.24
194.904	79.15
195.123	29.5
195.342	1.46
195.561	27.22
195.78	46.26
195.999	42.71
196.218	13.19
196.436	18.47
196.655	30.25
196.874	23.81
197.093	26.8
197.312	25.2
197.531	33.31
197.75	49.26
197.969	46.49
198.188	35.3
198.407	37
198.625	53.7
198.844	71.06
199.063	64.63
199.282	86.66
199.501	103.44
199.719	96.07
199.938	98.89
200.157	70.72
200.376	76.65
200.594	84.28
200.813	99.1
201.032	84.55
201.251	74.64
201.469	87.54
201.688	83.98
201.907	84.84
202.125	94.84
202.344	123.98
202.563	117.77
202.781	111.02
203	203.67
203.218	152.32
203.437	147.57
203.656	161.74
203.874	98.49
204.093	82.92
204.311	81.48
204.53	68.6
204.748	61.46
204.967	80.04
205.185	104.61
205.404	62.28
205.622	51.63
205.841	30.17
206.059	17.51
206.278	43.78
206.496	48.66
206.715	61.99
206.933	67.31
207.151	67.98
207.37	59.87
207.588	43.76
207.806	61.37
208.025	73.81
208.243	88.42
208.461	112.31
208.68	81.64
208.898	80.36
209.116	72.91
209.335	74.24
209.553	76.12
209.771	76.7
209.989	75.32
210.208	65.11
210.426	57.03
210.644	33.05
210.862	23.01
211.081	18.39
211.299	14.5
211.517	14.12
211.735	4.82
211.953	26.69
212.171	45.29
212.39	42.2
212.608	47.52
212.826	57.21
213.044	75.69
213.262	76.32
213.48	92.16
213.698	88.07
213.916	98.44
214.134	86.46
214.352	84.44
214.57	67.97
214.788	91.83
215.006	84.55
215.224	78.93
215.442	106.22
215.66	103.29
215.878	106.6
216.096	131.65
216.314	114.09
216.532	145.58
216.75	133.99
216.968	142.86
217.185	110.16
217.403	120.68
217.621	130.45
217.839	66.18
218.057	47.05
218.275	72.27
218.492	93.24
218.71	113.14
218.928	70.48
219.146	108.75
219.363	97.35
219.581	93.09
219.799	95.57
220.017	126.3
220.234	124.33
220.452	130.75
220.67	124.95
220.887	212.21
221.105	222.95
221.323	4489.57
221.54	401.98
221.758	1652.5
221.976	742.99
222.193	176.25
222.411	163.89
222.629	236.3
222.846	302.27
223.064	-276.08
223.281	229.98
223.499	64.39
223.716	-96.78
223.934	245
224.151	-16.18
224.369	-9.44
224.586	7.5
224.804	18.18
225.021	2.2
225.239	5.64
225.456	-10.39
225.674	-13.46
225.891	-54.6
226.108	-85.97
226.326	-105.89
226.543	-45.48
226.76	-35.31
226.978	-32.45
227.195	-42.29
227.413	-45.44
227.63	-29.54
227.847	-17.77
228.064	-4.67
228.282	3.44
228.499	6.65
228.716	6.77
228.934	4.29
229.151	3.87
229.368	2.51
229.585	3.49
229.802	7.1
230.02	6.54
230.237	4.19
230.454	5.04
230.671	2.78
230.888	1.46
231.105	-1.47
231.323	-1.64
231.54	-4.78
231.757	-5.96
231.974	-13.97
232.191	-15.01
232.408	-20.47
232.625	-11.58
232.842	-14.04
233.059	-10.05
233.276	-15.37
233.493	-13.94
233.71	-6.73
233.927	2.06
234.144	5.14
234.361	8.32
234.578	1.24
234.795	4.65
235.012	1.95
235.229	-4.08
235.446	-6.59
235.663	-4.97
235.879	0.53
236.096	-4.62
236.313	-10.78
236.53	-7.06
236.747	-6.98
236.964	-3.88
237.181	-5.82
237.397	-5.69
237.614	-2.37
237.831	-4.53
238.048	-0.12
238.264	-17.04
238.481	-21.77
238.698	-12.6
238.915	-8.83
239.131	-6.7
239.348	-4.8
239.565	-3.63
239.781	-0.25
239.998	-0.67
240.215	0.12
240.431	-4.54
240.648	4.54
240.865	7.26
241.081	6.33
241.298	4.7
241.514	5.18
241.731	7.04
241.947	7.67
242.164	5.76
242.38	7.84
242.597	8.69
242.814	9.94
243.03	8.5
243.246	8.56
243.463	8.29
243.679	7.5
243.896	9.51
244.112	6.55
244.329	5.71
244.545	6.85
244.762	5.8
244.978	8.25
245.194	7.7
245.411	7.5
245.627	8.04
245.843	6.91
246.06	7.4
246.276	5.73
246.492	7.4
246.709	7.49
246.925	7.88
247.141	7.25
247.357	6.74
247.574	6.92
247.79	7.84
248.006	8.07
248.222	8.85
248.439	8.59
248.655	8.32
248.871	8.23
249.087	8.94
249.303	8.92
249.519	8.62
249.736	7.18
249.952	7.73
250.168	7.11
250.384	5.86
250.6	5.41
250.816	4.33
251.032	4.16
251.248	2.29
251.464	-0.84
251.68	-2.74
251.896	-1.74
252.112	-2.4
252.328	-4.24
252.544	-4.04
252.76	-5.74
252.976	-7.9
253.192	-7
253.408	-6.91
253.624	-4.03
253.84	-1.3
254.056	-1.18
254.272	-2.81
254.487	0.54
254.703	2.88
254.919	-0.92
255.135	0.73
255.351	-0.85
255.567	1.34
255.782	1.71
255.998	0.64
256.214	-1.99
256.43	4.02
256.646	3.7
256.861	4.91
257.077	2.2
257.293	5.6
257.508	7.02
257.724	7.63
257.94	8.31
258.155	7.71
258.371	7.92
258.587	7.01
258.802	4.88
259.018	6.28
259.234	6.13
259.449	6.67
259.665	6.56
259.88	6.94
260.096	7.63
260.312	6.66
260.527	7.44
260.743	6.68
260.958	6.9
261.174	7.42
261.389	7.56
261.605	7.28
261.82	7.38
262.036	6.59
262.251	5.96
262.466	5.71
262.682	5.83
262.897	3.06
263.113	4.98
263.328	7.05
263.543	6.14
263.759	3.96
263.974	3.4
264.189	1.26
264.405	1.24
264.62	0.96
264.835	2.4
265.051	3.55
265.266	5.72
265.481	4.03
265.696	2.91
265.912	4.1
266.127	5.05
266.342	6.03
266.557	8.71
266.773	8.2
266.988	6.54
267.203	5.17
267.418	5.48
267.633	6.64
267.848	7.03
268.064	6.51
268.279	6.53
268.494	6.66
268.709	5.74
268.924	6.18
269.139	5.64
269.354	8.82
269.569	10.34
269.784	9.19
269.999	8.55
270.214	8.09
270.429	6.1
270.644	6.03
270.859	6.43
271.074	5.62
271.289	3.65
271.504	5.89
271.719	4.88
271.934	2.32
272.149	4.07
272.363	3.95
272.578	4.92
272.793	5.7
273.008	4.24
273.223	4.79
273.438	4.27
273.653	5.91
273.867	4.57
274.082	3.99
274.297	6.04
274.512	3.88
274.726	2.1
274.941	1.06
275.156	1.34
275.371	3.5
275.585	2.42
275.8	3.4
276.015	1.42
276.229	2.46
276.444	1.26
276.659	1.38
276.873	2.43
277.088	3.49
277.302	2.46
277.517	3.79
277.732	2.01
277.946	2.22
278.161	1.49
278.375	1.46
278.59	2.86
278.804	4.21
279.019	2.41
279.233	3.28
279.448	2.69
279.662	3.1
279.877	3.36
280.091	4.77
280.306	3.46
280.52	4.79
280.735	4.96
280.949	3.04
281.163	3.14
281.378	4.31
281.592	4.2
281.806	5.01
282.021	6.24
282.235	6.51
282.449	5.23
282.664	6.38
282.878	6.31
283.092	6.76
283.307	6.64
283.521	6.99
283.735	6.71
283.949	6.52
284.164	6.12
284.378	6.59
284.592	6.04
284.806	7.28
285.02	7.76
285.234	8.34
285.449	7.79
285.663	8.57
285.877	7.89
286.091	7.51
286.305	6.99
286.519	7.46
286.733	6.54
286.947	6.9
287.161	7.28
287.375	6.64
287.589	5.91
287.803	6.34
288.017	5.92
288.231	6.04
288.445	6.74
288.659	6.84
288.873	5.89
289.087	6.2
289.301	5.17
289.515	4.58
289.729	4.49
289.943	4.72
290.157	3.93
290.371	3.33
290.584	3.8
290.798	2.77
291.012	3.37
291.226	3.73
291.44	3.52
291.654	3.56
291.867	3.71
292.081	4.61
292.295	4.62
292.509	6.01
292.722	7.24
292.936	6.98
293.15	9.03
293.364	9.17
293.577	10.15
293.791	11.25
294.005	12.59
294.218	12.07
294.432	11.67
294.645	11.48
294.859	12.92
295.073	11.93
295.286	12.33
295.5	11.66
295.713	10.65
295.927	10.47
296.14	9.66
296.354	8.6
296.568	8.82
296.781	9.02
296.994	9.4
297.208	7.39
297.421	8.14
297.635	7.75
297.848	7.74
298.062	8.62
298.275	8.28
298.489	8.4
298.702	8.98
298.915	9.02
299.129	9.1
299.342	9.31
299.555	9.84
299.769	10.51
299.982	10.94
300.195	11.15
300.409	10.97
300.622	11.01
300.835	10.33
301.048	9.4
301.262	8.19
301.475	7.79
301.688	5.98
301.901	7
302.115	4.84
302.328	4.97
302.541	4.44
302.754	4.28
302.967	4.2
303.18	4.47
303.393	5.89
303.607	7.41
303.82	6.52
304.033	7.76
304.246	7.53
304.459	8.64
304.672	8.97
304.885	8.32
305.098	7.85
305.311	8.34
305.524	9.22
305.737	8.54
305.95	8.2
306.163	9.03
306.376	8.16
306.589	9.05
306.802	8.07
307.015	7.22
307.228	8.35
307.44	9.52
307.653	10.29
307.866	9.97
308.079	10.31
308.292	10.71
308.505	10.72
308.718	10.89
308.93	9.72
309.143	10.26
309.356	9.98
309.569	10.15
309.781	11.04
309.994	10.33
310.207	9.81
310.42	9.96
310.632	9.6
310.845	9.25
311.058	10.44
311.27	11.63
311.483	11.86
311.696	13.11
311.908	13.88
312.121	13.02
312.333	13.3
312.546	13.17
312.759	12.5
312.971	12.52
313.184	12.74
313.396	11.34
313.609	9.62
313.821	9.81
314.034	8.26
314.246	6.42
314.459	6.3
314.671	5.67
314.884	6.55
315.096	6.7
315.309	6.11
315.521	7.22
315.733	7.69
315.946	7.8
316.158	6.9
316.371	7.4
316.583	7.62
316.795	7.34
317.008	8.37
317.22	8.97
317.432	9.28
317.644	8.95
317.857	10.5
318.069	10.6
318.281	10.48
318.494	10.13
318.706	10.13
318.918	11.07
319.13	11.69
319.342	11.9
319.555	10.99
319.767	10.87
319.979	10.3
320.191	9.42
320.403	9.32
320.615	10.22
320.827	10.68
321.039	10.34
321.252	10.19
321.464	10.56
321.676	9.71
321.888	9.83
322.1	10.34
322.312	13.71
322.524	11.97
322.736	12.43
322.948	12.05
323.16	13.28
323.372	14.22
323.584	14.01
323.796	12.8
324.007	13.43
324.219	14.11
324.431	13.87
324.643	12.08
324.855	13.2
325.067	14.46
325.279	14.69
325.491	15.57
325.702	15.33
325.914	15.99
326.126	17.81
326.338	18.47
326.55	19.38
326.761	19.89
326.973	20.81
327.185	21.62
327.396	20.94
327.608	20.77
327.82	20.35
328.032	21.8
328.243	22.78
328.455	22.05
328.666	22.23
328.878	22.86
329.09	24.43
329.301	25.99
329.513	25.7
329.725	26.72
329.936	27.89
330.148	27.17
330.359	26.59
330.571	25.54
330.782	26.14
330.994	27.56
331.205	27.04
331.417	26.57
331.628	26.36
331.84	25.65
332.051	25.48
332.262	26.58
332.474	27.69
332.685	28.63
332.897	29.1
333.108	29.76
333.319	28.02
333.531	28.24
333.742	28.16
333.953	27.76
334.165	28.17
334.376	27.57
334.587	28.33
334.799	28.73
335.01	28.57
335.221	29.36
335.432	30.63
335.644	31.77
335.855	31.45
336.066	31.06
336.277	30.35
336.488	30.76
336.7	31.75
336.911	31.05
337.122	31.4
337.333	31.84
337.544	31.78
337.755	29.62
337.966	28.71
338.177	29.19
338.388	29.38
338.599	30.62
338.811	30.28
339.022	30.78
339.233	30.45
339.444	29.06
339.655	28.55
339.866	28.34
340.076	28.67
340.287	28.17
340.498	28.79
340.709	29.08
340.92	29.58
341.131	29.16
341.342	28.96
341.553	29.43
341.764	30.89
341.975	30.83
342.185	30.81
342.396	30.9
342.607	32.7
342.818	31.95
343.029	31.78
343.239	30.68
343.45	31.55
343.661	30.76
343.872	30.66
344.082	30
344.293	30.37
344.504	31.01
344.714	32.01
344.925	31.03
345.136	31.24
345.346	31.05
345.557	31.68
345.768	32.97
345.978	33.03
346.189	33
346.399	32.64
346.61	32.6
346.821	32.23
347.031	31.95
347.242	32.25
347.452	31.76
347.663	31.54
347.873	31.41
348.084	29.47
348.294	30.33
348.504	30.22
348.715	30.56
348.925	29.64
349.136	29.29
349.346	28.33
349.557	28.53
349.767	28.44
349.977	29.06
350.188	28.21
350.398	28.77
350.608	28.73
350.819	28.88
351.029	28.99
351.239	28.94
351.449	29.22
351.66	30.12
351.87	30.71
352.08	30.44
352.29	30.56
352.501	31.02
352.711	31.27
352.921	30.19
353.131	28.91
353.341	28.56
353.552	28.83
353.762	28.78
353.972	28.47
354.182	27.35
354.392	27.26
354.602	26.85
354.812	26.69
355.022	26.45
355.232	26.97
355.442	28.22
355.652	28.08
355.862	27.78
356.072	27.32
356.282	27.19
356.492	27.43
356.702	27.93
356.912	28.19
357.122	28.36
357.332	28.79
357.542	28.62
357.752	27.5
357.962	27.72
358.171	28.25
358.381	28.79
358.591	28.54
358.801	28.54
359.011	28.88
359.221	28.86
359.43	28.96
359.64	28.29
359.85	28.66
360.06	28.96
360.269	29.07
360.479	29.04
360.689	28.69
360.899	28.91
361.108	28.87
361.318	28.4
361.528	28.11
361.737	27.92
361.947	27.95
362.156	28.18
362.366	28.47
362.576	27.88
362.785	27.6
362.995	27.79
363.204	27.31
363.414	26.98
363.623	26.83
363.833	26.78
364.042	26.85
364.252	26.87
364.461	26.3
364.671	26.31
364.88	26.78
365.09	27.07
365.299	26.72
365.509	27
365.718	27.75
365.927	27.8
366.137	27.84
366.346	27.85
366.555	27.46
366.765	26.68
366.974	26.65
367.183	25.76
367.393	25.71
367.602	25.81
367.811	26.56
368.021	26.31
368.23	26.06
368.439	26.23
368.648	26.39
368.857	26.6
369.067	26.73
369.276	25.51
369.485	25.76
369.694	24.99
369.903	25.04
370.112	24.37
370.321	24.31
370.531	23.99
370.74	23.18
370.949	23
371.158	23.39
371.367	23.52
371.576	23.91
371.785	24.29
371.994	24.65
372.203	24.63
372.412	24.41
372.621	23.98
372.83	23.98
373.039	24.22
373.248	24.24
373.457	23.56
373.666	23.61
373.874	23.25
374.083	23.16
374.292	23.02
374.501	22.81
374.71	22.65
374.919	22.66
375.128	23.12
375.336	23.53
375.545	22.83
375.754	22.86
375.963	22.84
376.171	23.32
376.38	23.32
376.589	23.52
376.798	23.32
377.006	23.42
377.215	23.07
377.424	22.83
377.632	22.38
377.841	22.83
378.05	22.83
378.258	22.93
378.467	22.7
378.675	22.82
378.884	22.25
379.093	22.16
379.301	21.59
379.51	21.59
379.718	21.52
379.927	21.81
380.135	21.91
380.344	21.84
380.552	21.28
380.761	21.65
380.969	21.36
381.177	21.83
381.386	21.69
381.594	22.44
381.803	22.25
382.011	22.02
382.219	21.74
382.428	21.31
382.636	20.96
382.845	20.96
383.053	20.84
383.261	21.09
383.469	20.8
383.678	20.79
383.886	20.64
384.094	20.76
384.302	20.95
384.511	21.2
384.719	21.33
384.927	21.55
385.135	21.41
385.343	20.93
385.552	20.4
385.76	20.02
385.968	19.88
386.176	19.28
386.384	19.38
386.592	19.35
386.8	18.75
387.008	18.36
387.216	18.73
387.424	18.54
387.633	18.73
387.841	18.56
388.049	18.88
388.257	18.71
388.465	18.35
388.672	18.08
388.88	17.63
389.088	17.68
389.296	17.68
389.504	16.59
389.712	17.01
389.92	16.85
390.128	16.78
390.336	16.44
390.544	16.63
390.751	16.6
390.959	16.23
391.167	16.32
391.375	16.39
391.583	16.22
391.79	16.67
391.998	16.59
392.206	16.77
392.414	16.74
392.621	16.43
392.829	16.41
393.037	16.81
393.244	17.14
393.452	16.85
393.66	16.74
393.867	16.53
394.075	16.56
394.283	16.4
394.49	15.92
394.698	15.72
394.905	16.11
395.113	15.78
395.32	15.54
395.528	15.27
395.735	15.54
395.943	15.44
396.15	15.7
396.358	15.4
396.565	15.43
396.773	15.46
396.98	15.53
397.188	15.22
397.395	15.56
397.602	15.83
397.81	16.02
398.017	15.76
398.225	15.63
398.432	15.39
398.639	15.66
398.847	15.53
399.054	15.66
399.261	15.66
399.468	15.83
399.676	15.68
399.883	15.58
400.09	15.33
400.297	15.43
400.505	15.48
400.712	15.53
400.919	14.91
401.126	14.56
401.333	14.45
401.54	14.73
401.748	14.68
401.955	14.65
402.162	14.61
402.369	14.56
402.576	14.42
402.783	14.57
402.99	14.48
403.197	14.85
403.404	14.81
403.611	14.56
403.818	14.27
404.025	13.96
404.232	13.68
404.439	13.49
404.646	13.52
404.853	13.47
405.06	13.37
405.267	13.52
405.474	13.23
405.681	13.44
405.887	13.51
406.094	13.31
406.301	13.44
406.508	13.72
406.715	13.72
406.922	13.52
407.128	13.54
407.335	13.68
407.542	13.49
407.749	13.79
407.955	13.71
408.162	13.95
408.369	14.07
408.575	14.1
408.782	13.89
408.989	13.79
409.195	14.08
409.402	14.15
409.609	13.88
409.815	14.17
410.022	13.83
410.228	13.73
410.435	13.77
410.642	14.13
410.848	14.14
411.055	13.8
411.261	13.5
411.468	13.48
411.674	13.29
411.881	13.26
412.087	12.87
412.294	12.88
412.5	13.22
412.706	13.16
412.913	12.8
413.119	12.59
413.326	12.8
413.532	13.35
413.738	13.1
413.945	13.25
414.151	13.32
414.357	13.61
414.564	13.65
414.77	13.32
414.976	13.19
415.182	13.18
415.389	13.52
415.595	13.59
415.801	13.42
416.007	13.72
416.214	13.4
416.42	13.34
416.626	12.96
416.832	12.98
417.038	13.21
417.244	13.25
417.45	13.29
417.657	13.02
417.863	13.08
418.069	12.95
418.275	12.71
418.481	12.89
418.687	13.07
418.893	13.36
419.099	13.39
419.305	13.29
419.511	13.06
419.717	13.04
419.923	12.94
420.129	12.82
420.335	12.89
420.541	13.02
420.746	12.89
420.952	12.7
421.158	12.61
421.364	12.47
421.57	12.36
421.776	12.38
421.982	12.22
422.187	12.24
422.393	12.3
422.599	12.32
422.805	12.28
423.01	12.47
423.216	12.49
423.422	12.41
423.628	12.47
423.833	12.61
424.039	12.86
424.245	12.9
424.45	13.01
424.656	13.03
424.862	12.99
425.067	12.9
425.273	12.78
425.478	12.73
425.684	12.78
425.889	12.73
426.095	12.68
426.301	12.36
426.506	12.34
426.712	12.26
426.917	12.29
427.123	12.05
427.328	12.13
427.533	12.03
427.739	12.07
427.944	12.11
428.15	12.08
428.355	11.83
428.561	11.89
428.766	12.21
428.971	12.11
429.177	12.11
429.382	12.27
429.587	12.15
429.793	12.02
429.998	11.99
430.203	11.63
430.408	11.86
430.614	11.93
430.819	12.1
431.024	12.02
431.229	12.02
431.434	11.69
431.64	11.95
431.845	11.82
432.05	11.97
432.255	11.92
432.46	12.28
432.665	12.08
432.87	12.12
433.076	11.86
433.281	11.69
433.486	11.76
433.691	11.86
433.896	11.76
434.101	11.82
434.306	11.72
434.511	11.84
434.716	11.68
434.921	11.73
435.126	11.73
435.331	11.91
435.535	11.97
435.74	11.97
435.945	12.05
436.15	11.95
436.355	11.99
436.56	12.05
436.765	12.13
436.97	12.11
437.174	12.15
437.379	12.07
437.584	11.99
437.789	11.98
437.993	11.98
438.198	11.82
438.403	11.91
438.608	11.97
438.812	12.1
439.017	12
439.222	12.2
439.426	12.12
439.631	12.11
439.836	12.33
440.04	12.31
440.245	12.33
440.45	12.4
440.654	12.28
440.859	12.34
441.063	12.27
441.268	12.11
441.472	11.87
441.677	11.97
441.881	11.92
442.086	11.74
442.29	11.63
442.495	11.65
442.699	11.65
442.904	11.64
443.108	11.37
443.312	11.39
443.517	11.56
443.721	11.54
443.925	11.4
444.13	11.6
444.334	11.62
444.538	11.71
444.743	11.71
444.947	11.65
445.151	11.68
445.356	11.89
445.56	11.93
445.764	12.04
445.968	12.11
446.173	12.23
446.377	12.02
446.581	12
446.785	11.94
446.989	11.84
447.193	11.85
447.398	11.9
447.602	11.87
447.806	11.85
448.01	11.76
448.214	11.9
448.418	11.71
448.622	11.79
448.826	11.66
449.03	11.75
449.234	11.95
449.438	11.97
449.642	11.88
449.846	11.71
450.05	11.57
450.254	11.4
450.458	11.33
450.662	11.58
450.866	11.61
451.069	11.71
451.273	11.77
451.477	11.52
451.681	11.58
451.885	11.61
452.089	11.53
452.292	11.67
452.496	11.78
452.7	11.62
452.904	11.48
453.107	11.49
453.311	11.57
453.515	11.52
453.719	11.57
453.922	11.46
454.126	11.26
454.33	11.36
454.533	11.22
454.737	11.13
454.94	11.16
455.144	11.2
455.348	11.21
455.551	11.07
455.755	10.96
455.958	10.94
456.162	10.84
456.365	11.12
456.569	11.11
456.772	11.38
456.976	11.41
457.179	11.41
457.383	11.29
457.586	11.27
457.79	11.41
457.993	11.55
458.196	11.51
458.4	11.58
458.603	11.33
458.807	11.47
459.01	11.35
459.213	11.36
459.417	11.26
459.62	11.19
459.823	11.06
460.026	10.93
460.23	10.82
460.433	10.87
460.636	10.92
460.839	11.04
461.042	10.96
461.246	10.88
461.449	10.78
461.652	10.87
461.855	11.08
462.058	11.13
462.261	11.21
462.464	11.26
462.668	11.16
462.871	11.13
463.074	11.21
463.277	11.24
463.48	11.15
463.683	11.18
463.886	11.15
464.089	10.96
464.292	10.99
464.495	11.01
464.698	11.09
464.901	11.16
465.104	11.31
465.306	11.23
465.509	11.01
465.712	11.14
465.915	11.2
466.118	11.29
466.321	11.21
466.524	11.22
466.726	11.26
466.929	11.03
467.132	11.06
467.335	10.84
467.538	10.81
467.74	10.82
467.943	10.75
468.146	10.78
468.348	10.75
468.551	10.85
468.754	10.92
468.956	10.74
469.159	10.78
469.362	10.79
469.564	10.94
469.767	10.88
469.969	11.03
470.172	11.16
470.375	11.06
470.577	11.02
470.78	10.91
470.982	11.11
471.185	11.31
471.387	11.36
471.59	11.3
471.792	11.22
471.995	11.19
472.197	11.12
472.399	10.93
472.602	10.99
472.804	10.86
473.007	10.82
473.209	10.78
473.411	10.8
473.614	10.83
473.816	10.85
474.018	10.8
474.22	10.87
474.423	10.86
474.625	11.1
474.827	11.02
475.03	11.1
475.232	11.21
475.434	11.31
475.636	11.27
475.838	11.28
476.04	11.34
476.243	11.34
476.445	11.32
476.647	11.41
476.849	11.27
477.051	11.45
477.253	11.36
477.455	11.27
477.657	11.13
477.859	11.09
478.061	11.1
478.263	10.93
478.465	11.07
478.667	11.12
478.869	11.06
479.071	11.06
479.273	10.99
479.475	11.09
479.677	11.27
479.879	11.18
480.081	11.13
480.283	10.98
480.485	10.87
480.686	10.91
480.888	11.01
481.09	11.02
481.292	11.06
481.494	10.98
481.695	11.01
481.897	11.03
482.099	11.01
482.301	11.11
482.502	11.17
482.704	11.28
482.906	11.29
483.107	11.29
483.309	11.32
483.511	11.36
483.712	11.39
483.914	11.37
484.115	11.34
484.317	11.39
484.519	11.33
484.72	11.34
484.922	11.39
485.123	11.35
485.325	11.3
485.526	11.29
485.728	11.25
485.929	11.23
486.131	11.21
486.332	11.22
486.534	11.17
486.735	11.22
486.936	11.27
487.138	11.25
487.339	11.18
487.541	11.25
487.742	11.24
487.943	11.32
488.144	11.37
488.346	11.36
488.547	11.31
488.748	11.3
488.95	11.31
489.151	11.25
489.352	11.19
489.553	11.28
489.755	11.29
489.956	11.34
490.157	11.26
490.358	11.21
490.559	11.32
490.76	11.38
490.961	11.4
491.163	11.43
491.364	11.43
491.565	11.43
491.766	11.4
491.967	11.28
492.168	11.23
492.369	11.19
492.57	11.15
492.771	11.11
492.972	10.97
493.173	10.92
493.374	10.89
493.575	10.94
493.776	10.93
493.976	11
494.177	11.04
494.378	11.1
494.579	11.18
494.78	11.33
494.981	11.41
495.182	11.67
495.382	11.82
495.583	11.7
495.784	11.63
495.985	11.73
496.185	11.67
496.386	11.68
496.587	11.64
496.788	11.56
496.988	11.57
497.189	11.56
497.39	11.73
497.59	11.76
497.791	11.77
497.992	11.9
498.192	11.88
498.393	11.88
498.593	11.93
498.794	11.85
498.994	11.88
499.195	11.78
499.395	11.61
499.596	11.53
499.796	11.46
499.997	11.61
500.197	11.43
500.398	11.46
500.598	11.47
500.799	11.51
500.999	11.64
501.199	11.69
501.4	11.74
501.6	12.07
501.801	11.9
502.001	12.06
502.201	12.16
502.402	12.2
502.602	12.16
502.802	12.15
503.002	12.19
503.203	12.12
503.403	12.11
503.603	12.15
503.803	12.09
504.003	12.23
504.204	12.18
504.404	12.22
504.604	12.43
504.804	12.36
505.004	12.41
505.204	12.41
505.404	12.52
505.604	12.46
505.804	12.45
506.005	12.46
506.205	12.51
506.405	12.43
506.605	12.3
506.805	12.09
507.005	12.14
507.204	12.19
507.404	12.21
507.604	12.21
507.804	12.44
508.004	12.45
508.204	12.52
508.404	12.48
508.604	12.53
508.804	12.64
509.003	12.99
509.203	13.02
509.403	13.18
509.603	13.18
509.803	13.25
510.002	13.21
510.202	13.4
510.402	13.38
510.602	13.43
510.801	13.58
511.001	13.47
511.201	13.41
511.4	13.54
511.6	13.55
511.8	13.76
511.999	13.89
512.199	13.91
512.398	13.85
512.598	13.97
512.797	13.99
512.997	14.05
513.197	14.23
513.396	14.22
513.596	14.19
513.795	14.16
513.994	13.99
514.194	14.04
514.393	14.1
514.593	14.23
514.792	14.18
514.992	14.29
515.191	14.25
515.39	14.29
515.59	14.41
515.789	14.59
515.988	14.63
516.188	14.89
516.387	14.95
516.586	15.13
516.786	15.11
516.985	15.17
517.184	15.27
517.383	15.31
517.582	15.38
517.782	15.4
517.981	15.49
518.18	15.65
518.379	15.65
518.578	15.62
518.777	15.47
518.976	15.55
519.176	15.68
519.375	15.68
519.574	15.77
519.773	15.77
519.972	15.86
520.171	15.85
520.37	15.89
520.569	15.96
520.768	16.1
520.967	16.32
521.166	16.4
521.365	16.44
521.564	16.42
521.762	16.69
521.961	16.84
522.16	17.08
522.359	17.19
522.558	17.22
522.757	17.26
522.956	17.49
523.154	17.62
523.353	17.61
523.552	17.73
523.751	18.08
523.949	17.97
524.148	17.94
524.347	17.8
524.546	17.83
524.744	17.95
524.943	17.95
525.142	17.79
525.34	17.82
525.539	17.93
525.737	18.05
525.936	18.06
526.135	18.15
526.333	18.31
526.532	18.46
526.73	18.58
526.929	18.61
527.127	18.8
527.326	18.94
527.524	19.02
527.723	19.18
527.921	19.19
528.12	19.21
528.318	19.25
528.516	19.29
528.715	19.36
528.913	19.42
529.112	19.5
529.31	19.53
529.508	19.58
529.707	19.66
529.905	19.68
530.103	19.7
530.301	19.79
530.5	19.94
530.698	19.93
530.896	20.08
531.094	20.17
531.293	20.18
531.491	20.27
531.689	20.38
531.887	20.39
532.085	20.46
532.283	20.55
532.481	20.59
532.68	20.63
532.878	20.82
533.076	20.79
533.274	20.83
533.472	20.94
533.67	20.93
533.868	20.93
534.066	21
534.264	21.09
534.462	21.25
534.66	21.34
534.858	21.36
535.056	21.3
535.253	21.24
535.451	21.3
535.649	21.46
535.847	21.52
536.045	21.69
536.243	21.8
536.441	21.91
536.638	22
536.836	22.08
537.034	22.13
537.232	22.3
537.43	22.45
537.627	22.52
537.825	22.41
538.023	22.41
538.22	22.38
538.418	22.3
538.616	22.27
538.813	22.22
539.011	22.17
539.209	22.3
539.406	22.46
539.604	22.69
539.801	22.77
539.999	23.02
540.196	23.16
540.394	23.3
540.591	23.45
540.789	23.46
540.986	23.54
541.184	23.64
541.381	23.6
541.579	23.5
541.776	23.49
541.974	23.55
542.171	23.48
542.368	23.62
542.566	23.58
542.763	23.66
542.96	23.69
543.158	23.74
543.355	23.86
543.552	23.96
543.75	24.07
543.947	24.16
544.144	24.25
544.341	24.35
544.539	24.41
544.736	24.64
544.933	24.69
545.13	24.7
545.327	24.72
545.524	24.58
545.722	24.58
545.919	24.71
546.116	24.66
546.313	24.5
546.51	24.51
546.707	24.46
546.904	24.32
547.101	24.41
547.298	24.59
547.495	24.47
547.692	24.7
547.889	24.82
548.086	24.81
548.283	24.85
548.48	25.01
548.677	25.05
548.874	25.15
549.07	25.31
549.267	25.4
549.464	25.49
549.661	25.62
549.858	25.55
550.055	25.71
550.251	25.86
550.448	25.8
550.645	25.88
550.842	26.13
551.038	26.2
551.235	26.36
551.432	26.28
551.628	26.33
551.825	26.51
552.022	26.38
552.218	26.33
552.415	26.22
552.612	26.31
552.808	26.33
553.005	26.24
553.201	26.32
553.398	26.18
553.594	26.2
553.791	26.15
553.987	26.2
554.184	26.33
554.38	26.39
554.577	26.52
554.773	26.65
554.97	26.74
555.166	26.94
555.362	26.85
555.559	26.92
555.755	26.9
555.952	26.93
556.148	26.92
556.344	26.96
556.541	27.06
556.737	27
556.933	27.01
557.129	26.97
557.326	27.14
557.522	27.43
557.718	27.53
557.914	27.85
558.11	28.09
558.307	28.06
558.503	28.1
558.699	28.09
558.895	28.1
559.091	28.04
559.287	28.17
559.483	28.11
559.679	27.91
559.876	28.05
560.072	27.84
560.268	27.78
560.464	27.97
560.66	28.19
560.856	28.15
561.052	28.5
561.247	28.69
561.443	28.58
561.639	28.54
561.835	28.64
562.031	28.81
562.227	28.84
562.423	28.81
562.619	28.86
562.815	28.89
563.01	29.08
563.206	28.96
563.402	29.09
563.598	29.04
563.793	29
563.989	29.15
564.185	28.92
564.381	29.05
564.576	29.15
564.772	29.12
564.968	28.98
565.163	28.73
565.359	28.83
565.555	28.81
565.75	29.03
565.946	29.19
566.141	29.06
566.337	29.18
566.532	29.08
566.728	29.06
566.923	28.98
567.119	29.13
567.314	29.31
567.51	29.24
567.705	29.08
567.901	29.07
568.096	29.03
568.292	29.08
568.487	29.15
568.682	29.3
568.878	29.35
569.073	29.61
569.268	29.62
569.464	29.6
569.659	29.74
569.854	29.99
570.05	30.04
570.245	30.15
570.44	30.14
570.635	30.12
570.831	30.03
571.026	29.97
571.221	29.96
571.416	29.88
571.611	29.9
571.806	29.92
572.002	30
572.197	30.09
572.392	30.05
572.587	29.98
572.782	30
572.977	30.2
573.172	30.33
573.367	30.2
573.562	30.32
573.757	30.4
573.952	30.31
574.147	30.16
574.342	30.28
574.537	30.24
574.732	30.53
574.927	30.57
575.121	30.64
575.316	30.55
575.511	30.73
575.706	30.79
575.901	30.84
576.096	30.9
576.29	31.02
576.485	31.01
576.68	31.08
576.875	31.04
577.069	30.92
577.264	30.76
577.459	30.86
577.654	30.86
577.848	30.76
578.043	30.9
578.238	31.04
578.432	30.95
578.627	31.1
578.821	31.21
579.016	31.3
579.21	31.43
579.405	31.44
579.6	31.36
579.794	31.28
579.989	31.51
580.183	31.17
580.378	31.01
580.572	31.05
580.766	30.91
580.961	30.76
581.155	30.61
581.35	30.79
581.544	30.9
581.738	31.24
581.933	31.5
582.127	31.46
582.321	31.86
582.516	31.85
582.71	31.92
582.904	31.78
583.099	31.73
583.293	31.87
583.487	32.13
583.681	32.11
583.875	31.76
584.07	31.65
584.264	31.61
584.458	31.61
584.652	31.74
584.846	32.02
585.04	31.91
585.234	32.31
585.428	32.37
585.623	32.2
585.817	32.25
586.011	32.35
586.205	32.51
586.399	32.48
586.593	32.15
586.787	32.27
586.981	32.02
587.174	32.03
587.368	31.73
587.562	31.43
587.756	31.17
587.95	31.33
588.144	31.49
588.338	31.24
588.532	31.24
588.725	31.55
588.919	31.74
589.113	32.03
589.307	32.21
589.501	32.22
589.694	32.59
589.888	32.77
590.082	32.57
590.275	32.4
590.469	32.32
590.663	32.33
590.856	32.27
591.05	32.25
591.244	32.18
591.437	32.34
591.631	32.42
591.824	32.43
592.018	32.25
592.212	32.4
592.405	32.6
592.599	32.56
592.792	32.66
592.986	32.42
593.179	32.34
593.372	32.19
593.566	32.22
593.759	32.09
593.953	32.17
594.146	32.34
594.339	32.25
594.533	32.36
594.726	32.55
594.92	32.64
595.113	32.8
595.306	32.57
595.499	32.53
595.693	32.6
595.886	32.95
596.079	32.76
596.272	32.73
596.466	32.85
596.659	33.03
596.852	33.16
597.045	33.24
597.238	33.28
597.431	33.63
597.624	33.76
597.818	33.8
598.011	33.65
598.204	33.64
598.397	33.77
598.59	33.77
598.783	33.41
598.976	33.44
599.169	33.32
599.362	33.36
599.555	32.95
599.748	32.84
599.941	32.46
600.134	32.52
600.326	32.47
600.519	32.21
600.712	32.18
600.905	32.28
601.098	31.95
601.291	31.78
601.483	31.73
601.676	31.91
601.869	31.92
602.062	32.17
602.255	32.05
602.447	32.25
602.64	32.35
602.833	32.36
603.025	32.42
603.218	32.56
603.411	32.85
603.603	33.21
603.796	33.25
603.989	33.27
604.181	33.52
604.374	33.73
604.566	33.67
604.759	33.62
604.951	33.75
605.144	33.88
605.336	34.01
605.529	34.05
605.721	33.79
605.914	33.78
606.106	33.77
606.299	33.54
606.491	33.36
606.683	33.41
606.876	33.47
607.068	33.4
607.26	33.26
607.453	33.23
607.645	32.99
607.837	32.97
608.03	33.27
608.222	33.4
608.414	33.6
608.606	33.57
608.799	33.56
608.991	33.59
609.183	33.68
609.375	33.75
609.567	33.83
609.759	33.96
609.952	34.26
610.144	34.17
610.336	34.41
610.528	34.34
610.72	34.61
610.912	34.77
611.104	35
611.296	34.89
611.488	35
611.68	34.88
611.872	34.73
612.064	34.57
612.256	34.59
612.448	34.16
612.64	34.01
612.832	33.81
613.023	33.65
613.215	33.33
613.407	33.23
613.599	32.94
613.791	33.04
613.983	32.86
614.174	32.81
614.366	32.73
614.558	33.11
614.75	33.08
614.941	33.14
615.133	33.21
615.325	33.45
615.516	33.64
615.708	33.9
615.9	33.89
616.091	34.17
616.283	34.24
616.475	34.2
616.666	34.15
616.858	34.43
617.049	34.37
617.241	34.05
617.432	33.84
617.624	33.74
617.815	33.8
618.007	33.69
618.198	33.81
618.39	33.65
618.581	33.43
618.773	32.99
618.964	32.92
619.155	33.43
619.347	33.68
619.538	33.85
619.729	34.29
619.921	34.07
620.112	34.08
620.303	34.17
620.494	34.2
620.686	34.59
620.877	34.9
621.068	34.73
621.259	34.35
621.451	34.55
621.642	34.38
621.833	34.01
622.024	34.19
622.215	34.43
622.406	34.25
622.597	34.35
622.788	34.3
622.98	34.4
623.171	34.76
623.362	34.8
623.553	34.59
623.744	34.69
623.935	34.95
624.126	34.79
624.317	34.48
624.508	34.32
624.698	34.42
624.889	34.29
625.08	34.07
625.271	34.13
625.462	34.13
625.653	34.24
625.844	34.33
626.034	34.33
626.225	34.4
626.416	34.68
626.607	34.9
626.798	34.8
626.988	34.92
627.179	35
627.37	34.97
627.56	35.18
627.751	35.38
627.942	35.47
628.132	35.28
628.323	35.4
628.514	35.36
628.704	35.41
628.895	35.21
629.085	35.28
629.276	35.44
629.466	35.42
629.657	35.08
629.847	34.86
630.038	34.77
630.228	34.83
630.419	34.91
630.609	34.97
630.8	34.73
630.99	35.14
631.181	34.93
631.371	34.92
631.561	34.79
631.752	34.91
631.942	34.88
632.132	35.04
632.323	34.89
632.513	35
632.703	34.99
632.893	34.98
633.084	34.92
633.274	35.15
633.464	35.26
633.654	35.55
633.844	35.27
634.034	35.39
634.225	35.21
634.415	35.49
634.605	35.24
634.795	35.18
634.985	35.52
635.175	35.78
635.365	35.45
635.555	35.18
635.745	35.02
635.935	35.26
636.125	35.43
636.315	35.41
636.505	34.97
636.695	34.8
636.885	34.86
637.075	34.97
637.265	35.14
637.455	35.3
637.644	35.48
637.834	35.27
638.024	35.1
638.214	35.26
638.404	35.3
638.593	35.58
638.783	35.54
638.973	35.72
639.163	35.35
639.352	34.75
639.542	35.1
639.732	35.11
639.921	34.99
640.111	35.13
640.301	34.56
640.49	34.59
640.68	34.81
640.87	35.09
641.059	34.95
641.249	35.36
641.438	35.53
641.628	35.16
641.817	35.29
642.007	35.68
642.196	36.14
642.386	36.64
642.575	36.5
642.764	36.29
642.954	36.75
643.143	36.64
643.333	36.54
643.522	36.2
643.711	36.6
643.901	36.29
644.09	36.32
644.279	36.03
644.469	35.85
644.658	35.92
644.847	35.83
645.036	35.26
645.226	35.46
645.415	35.38
645.604	35.65
645.793	35.67
645.982	35.7
646.171	35.42
646.361	35.25
646.55	34.87
646.739	34.97
646.928	34.97
647.117	35.14
647.306	35.34
647.495	35.16
647.684	35.22
647.873	35.23
648.062	35.43
648.251	35.67
648.44	36.02
648.629	36.6
648.818	36.56
649.007	36.93
649.196	37.06
649.384	36.71
649.573	36.64
649.762	36.68
649.951	36.61
650.14	36.45
650.328	36.43
650.517	36.37
650.706	35.72
650.895	35.84
651.083	35.87
651.272	35.56
651.461	35.74
651.65	35.73
651.838	35.67
652.027	35.09
652.216	35.31
652.404	35.74
652.593	35.83
652.781	36.15
652.97	35.87
653.158	35.72
653.347	35.76
653.535	35.51
653.724	35.76
653.912	35.82
654.101	36.39
654.289	35.85
654.478	35.62
654.666	35.6
654.855	35.74
655.043	35.79
655.231	35.64
655.42	35.96
655.608	36.59
655.796	36.42
655.985	36.62
656.173	36.52
656.361	36.73
656.55	36.57
656.738	36.61
656.926	36.39
657.114	36.51
657.302	36.52
657.491	36.24
657.679	36.04
657.867	36.4
658.055	36.08
658.243	35.75
658.431	35.66
658.619	35.82
658.807	35.6
658.996	35.71
659.184	35.6
659.372	35.82
659.56	36.01
659.748	36.02
659.936	35.77
660.124	35.89
660.311	36.09
660.499	36.45
660.687	36.32
660.875	36.36
661.063	36.37
661.251	36.86
661.439	36.52
661.627	36.41
661.814	36.46
662.002	36.78
662.19	36.66
662.378	36.72
662.565	36.49
662.753	36.24
662.941	36.5
663.129	36.51
663.316	36.02
663.504	36.38
663.692	36.75
663.879	36.64
664.067	36.1
664.254	36.51
664.442	36.92
664.63	36.55
664.817	36.65
665.005	36.66
665.192	36.71
665.38	36.72
665.567	36.83
665.755	36.24
665.942	35.94
666.13	36
666.317	35.61
666.504	34.91
666.692	35.43
666.879	35.82
667.067	35.59
667.254	35.37
667.441	35.64
667.629	35.29
667.816	35.65
668.003	35.54
668.19	35.89
668.378	36.09
668.565	36.58
668.752	36.53
668.939	36.42
669.127	36.24
669.314	36.29
669.501	36.47
669.688	36.86
669.875	36.8
670.062	37.21
670.249	37.41
670.436	37.37
670.623	37.29
670.81	37.86
670.997	37.86
671.184	38.23
671.371	38.33
671.558	38.05
671.745	37.87
671.932	38.09
672.119	37.4
672.306	36.83
672.493	36.98
672.68	37.1
672.867	36.36
673.054	36.19
673.24	36.28
673.427	36.93
673.614	37.07
673.801	36.98
673.988	36.49
674.174	37.37
674.361	37.79
674.548	37.61
674.734	37.72
674.921	37.73
675.108	37.87
675.294	37.56
675.481	36.91
675.668	36.54
675.854	36.62
676.041	36.7
676.227	36.29
676.414	35.89
676.601	35.51
676.787	35.53
676.974	35.61
677.16	35.08
677.347	35.25
677.533	35.37
677.719	35.47
677.906	35.53
678.092	35.6
678.279	36.37
678.465	36.36
678.651	36.63
678.838	36.73
679.024	36.89
679.21	37.16
679.397	37.19
679.583	36.94
679.769	37.52
679.955	37.9
680.142	38.3
680.328	37.78
680.514	38.01
680.7	37.92
680.886	37.88
681.073	38.24
681.259	38.02
681.445	37.67
681.631	37.94
681.817	37.13
682.003	36.43
682.189	36.07
682.375	35.97
682.561	36.16
682.747	36.43
682.933	35.84
683.119	35.16
683.305	35.22
683.491	35.22
683.677	35.41
683.863	36.53
684.049	36.95
684.235	37.12
684.42	37.04
684.606	37.04
684.792	37.19
684.978	36.96
685.164	37.68
685.349	37.94
685.535	38.39
685.721	38.08
685.907	37.02
686.092	37.58
686.278	37.14
686.464	37.1
686.649	36.38
686.835	36.28
687.021	36.77
687.206	36.52
687.392	36.63
687.577	36.76
687.763	36.89
687.948	37.16
688.134	36.93
688.319	37.21
688.505	37.38
688.69	37.72
688.876	37.47
689.061	38.08
689.247	37.92
689.432	37.78
689.618	37.71
689.803	37.52
689.988	38.16
690.174	37.79
690.359	37.53
690.544	36.99
690.73	37.52
690.915	37.82
691.1	37.33
691.285	37.17
691.471	37.14
691.656	37.61
691.841	38.06
692.026	37.04
692.211	36.88
692.396	36.8
692.582	37.79
692.767	37.13
692.952	36.77
693.137	36.93
693.322	37.19
693.507	37.25
693.692	36.42
693.877	36.05
694.062	36.56
694.247	37.69
694.432	38.38
694.617	37.35
694.802	37.7
694.987	37.51
695.172	37.45
695.357	37.31
695.541	37.39
695.726	37.61
695.911	38.42
696.096	38.51
696.281	38.07
696.466	37.72
696.65	38.89
696.835	38.8
697.02	38.94
697.204	38.81
697.389	39.06
697.574	39.27
697.759	39.09
697.943	38.33
698.128	38.27
698.312	38.09
698.497	38.26
698.682	37.96
698.866	38
699.051	38.09
699.235	38.04
699.42	38.12
699.604	37.86
699.789	37.97
699.973	38.14
700.158	38.46
700.342	38.68
700.527	38.9
700.711	38.84
700.895	38.94
701.08	38.88
701.264	38.99
701.448	38.92
701.633	39.14
701.817	38.91
702.001	38.78
702.186	38.34
702.37	37.67
702.554	37.05
702.738	36.83
702.923	36.95
703.107	36.72
703.291	36.67
703.475	36.46
703.659	36.54
703.843	36.72
704.027	37.17
704.212	37.3
704.396	36.72
704.58	37.31
704.764	36.98
704.948	36.63
705.132	36.96
705.316	37.32
705.5	37.37
705.684	37.38
705.868	37.27
706.052	37.2
706.235	37.04
706.419	37.92
706.603	37.83
706.787	37.5
706.971	37.4
707.155	37.46
707.339	37.74
707.522	38.21
707.706	38.03
707.89	38.22
708.074	37.67
708.257	38.4
708.441	38.21
708.625	37.6
708.808	38.3
708.992	38.09
709.176	38.43
709.359	37.99
709.543	37.33
709.727	37.64
709.91	37.36
710.094	37.93
710.277	37.42
710.461	37.39
710.644	37.89
710.828	37.79
711.011	37.5
711.195	37.11
711.378	36.98
711.562	36.75
711.745	36.38
711.928	36.85
712.112	36.88
712.295	36.23
712.478	36.37
712.662	35.69
712.845	35.89
713.028	36.44
713.212	36.86
713.395	37.4
713.578	37.35
713.761	38.27
713.945	38.22
714.128	38.31
714.311	38.67
714.494	38.9
714.677	39.43
714.86	39.78
715.043	39.74
715.227	39.79
715.41	39.05
715.593	39.63
715.776	39.47
715.959	39.53
716.142	39.48
716.325	39.45
716.508	38.95
716.691	39.04
716.874	38.49
717.057	38.5
717.239	38.4
717.422	39.12
717.605	39.2
717.788	39.01
717.971	38.59
718.154	38.47
718.337	38.61
718.519	39.04
718.702	39.48
718.885	40.31
719.068	41.38
719.25	41.08
719.433	40.73
719.616	40.01
719.798	38.77
719.981	38.82
720.164	38.12
720.346	39.14
720.529	38.82
720.712	38.5
720.894	37.87
721.077	36.78
721.259	37.02
721.442	36.58
721.624	36.28
721.807	37.07
721.989	37.4
722.172	37.44
722.354	36.81
722.537	37.12
722.719	36.99
722.901	36.84
723.084	37.46
723.266	37.23
723.448	37.75
723.631	39.11
723.813	39.22
723.995	38.37
724.178	39.27
724.36	39.32
724.542	39
724.724	39.09
724.907	39.26
725.089	38.3
725.271	38.41
725.453	38.09
725.635	36.75
725.817	37.48
725.999	38.11
726.181	37.66
726.364	37.71
726.546	37.27
726.728	38.3
726.91	37.79
727.092	38.29
727.274	38.54
727.456	38.71
727.638	39.42
727.819	39.04
728.001	39.43
728.183	40.27
728.365	39.99
728.547	40.81
728.729	39.9
728.911	40.73
729.093	41.12
729.274	40.77
729.456	41.06
729.638	41.47
729.82	40.91
730.001	40.82
730.183	41.28
730.365	41.99
730.546	41.89
730.728	41.36
730.91	40.56
731.091	39.25
731.273	38.83
731.455	38.54
731.636	38.21
731.818	39.13
731.999	39.12
732.181	38.07
732.362	37.62
732.544	37.09
732.725	37.73
732.907	38.69
733.088	39.34
733.27	39.36
733.451	39.19
733.633	39.24
733.814	37.62
733.995	37.08
734.177	36.18
734.358	36.73
734.539	37.13
734.721	36.12
734.902	36.39
735.083	36.97
735.264	37.12
735.446	37.04
735.627	37.84
735.808	38.99
735.989	38.12
736.17	39.23
736.351	37.77
736.533	38.18
736.714	39.65
736.895	38.23
737.076	38.26
737.257	38.54
737.438	38.78
737.619	38.11
737.8	38.67
737.981	39.8
738.162	39.43
738.343	40.48
738.524	40.89
738.705	39.88
738.886	39.92
739.067	38.74
739.247	39.87
739.428	39.47
739.609	39.37
739.79	38.15
739.971	38.7
740.151	38.45
740.332	37.73
740.513	37.86
740.694	38.3
740.874	37.96
741.055	38.64
741.236	37.5
741.417	37.58
741.597	37.62
741.778	38.62
741.958	38.3
742.139	38.18
742.32	37.92
742.5	36.87
742.681	36.4
742.861	37.67
743.042	37.6
743.222	38.92
743.403	38.61
743.583	39.6
743.764	38.71
743.944	37.96
744.124	39.67
744.305	41.03
744.485	40.88
744.666	41.6
744.846	41.64
745.026	41.92
745.207	40.55
745.387	41.99
745.567	39.95
745.747	39.64
745.928	40.6
746.108	39.56
746.288	39.74
746.468	40.24
746.648	39.84
746.829	39
747.009	38.55
747.189	37.9
747.369	37.09
747.549	37.79
747.729	38.46
747.909	37.45
748.089	36.33
748.269	35.15
748.449	35.61
748.629	35.22
748.809	35.23
748.989	36.37
749.169	37.34
749.349	37.15
749.529	38.34
749.709	37.67
749.889	39.2
750.068	39.41
750.248	39.88
750.428	39.43
750.608	40.32
750.788	41.87
750.967	40.26
751.147	40.08
751.327	41.24
751.507	40.54
751.686	41.58
751.866	41.49
752.046	41.65
752.225	41.25
752.405	41.6
752.585	41.6
752.764	39.84
752.944	40.02
753.123	40.45
753.303	38.02
753.482	37.81
753.662	38.15
753.841	37.64
754.021	38.33
754.2	38.71
754.38	37.87
754.559	37.77
754.739	37.72
754.918	37.9
755.097	36.87
755.277	38.17
755.456	38.43
755.635	36.7
755.815	36.1
755.994	35.62
756.173	35.78
756.352	37.01
756.532	37.73
756.711	39.39
756.89	38.77
757.069	40.2
757.248	39.99
757.427	40.61
757.607	40.95
757.786	41.62
757.965	42.87
758.144	42.38
758.323	41.49
758.502	41.99
758.681	41.68
758.86	43.27
759.039	42.23
759.218	42.9
759.397	41.93
759.576	42.71
759.755	41.9
759.934	41.26
760.113	40.88
760.291	41.36
760.47	39.74
760.649	38.74
760.828	38.9
761.007	39.52
761.186	39.69
761.364	39.07
761.543	38.87
761.722	39
761.901	38.99
762.079	39.89
762.258	39.05
762.437	40.33
762.615	40.61
762.794	40.77
762.972	40.47
763.151	39.57
763.33	40.21
763.508	40.27
763.687	40.54
763.865	39.89
764.044	39.75
764.222	39.09
764.401	38.3
764.579	38.88
764.758	37.95
764.936	38.22
765.114	39.15
765.293	39.84
765.471	39.88
765.65	39.61
765.828	40.16
766.006	40.2
766.184	41.96
766.363	41.98
766.541	41.37
766.719	42.34
766.898	43.39
767.076	42.81
767.254	41.4
767.432	41.07
767.61	40.96
767.788	40.38
767.967	40.32
768.145	38.79
768.323	38.81
768.501	39.92
768.679	39.91
768.857	37.54
769.035	38.12
769.213	38.59
769.391	38.75
769.569	38.86
769.747	38.95
769.925	38.55
770.103	38.13
770.281	38.33
770.459	36.62
770.636	36.6
770.814	39.23
770.992	39.72
771.17	39.5
771.348	39.57
771.525	41.14
771.703	41.27
771.881	43.1
772.059	43.84
772.236	43.47
772.414	41.67
772.592	41.95
772.769	39.02
772.947	38.53
773.125	39.71
773.302	39.52
773.48	38.48
773.657	38.95
773.835	37.73
774.013	38.66
774.19	38.41
774.368	39.8
774.545	38.17
774.723	37.86
774.9	36.7
775.077	35.63
775.255	36.91
775.432	36.6
775.61	36.55
775.787	36.17
775.964	35.52
776.142	34.82
776.319	36.5
776.496	35.36
776.674	36.02
776.851	37.07
777.028	35.83
777.205	34
777.382	34.34
777.56	35.82
777.737	35.24
777.914	36.26
778.091	37.18
778.268	35.31
778.445	36.32
778.622	37.59
778.8	38.01
778.977	40.06
779.154	41.59
779.331	42.25
779.508	39.63
779.685	39.75
779.862	39.43
780.038	38.07
780.215	39.88
780.392	39.26
780.569	38.49
780.746	38.1
780.923	36.18
781.1	36.13
781.277	36.98
781.453	40.87
781.63	43.05
781.807	42.21
781.984	41.81
782.16	40.8
782.337	42.29
782.514	42.77
782.691	43.3
782.867	42.11
783.044	40.5
783.221	39.41
783.397	36.75
783.574	31.14
783.75	30.96
783.927	35.49
784.103	36.66
784.28	37.97
784.456	37.01
784.633	35.97
784.809	39.45
784.986	39.48
785.162	37.73
785.339	40.43
785.515	43.68
785.692	44.02
785.868	38.8
786.044	38.73
786.221	37.88
786.397	38.82
786.573	39.8
786.749	38.89
786.926	41.09
787.102	41.81
787.278	40.52
787.454	40.7
787.631	41.34
787.807	44.92
787.983	44.92
788.159	43.18
788.335	40
788.511	41.19
788.687	41.5
788.863	42.7
789.039	46
789.216	43.03
789.392	42.3
789.568	41.4
789.744	39.19
789.919	37.65
790.095	39.15
790.271	43.24
790.447	41.02
790.623	42.53
790.799	41.32
790.975	36.93
791.151	40.93
791.327	44.21
791.502	45.09
791.678	47.2
791.854	47.36
792.03	46.81
792.205	45.69
792.381	46.36
792.557	46.75
792.733	45.86
792.908	47.6
793.084	45.41
793.259	44.04
793.435	45.64
793.611	47.64
793.786	50.14
793.962	49.42
794.137	50.28
794.313	50.76
794.488	49.11
794.664	50.18
794.839	49.03
795.015	50.82
795.19	49.31
795.366	45.55
795.541	43.29
795.716	42.92
795.892	43.37
796.067	41.88
796.242	43.51
796.418	41.57
796.593	41.58
796.768	42.3
796.944	40.73
797.119	42.76
797.294	43.29
797.469	45.28
797.644	46.55
797.82	46.68
797.995	47.16
798.17	44.44
798.345	46.56
798.52	44.22
798.695	43.4
798.87	41.72
799.045	40.84
799.22	43.46
799.395	42.35
799.57	39.64
799.745	37.01
799.92	37.09
800.095	36.25
800.27	32.08
800.445	33.16
800.62	34.86
800.795	37.82
800.97	36.93
801.145	36.73
801.319	35.54
801.494	35.27
801.669	36.51
801.844	37.33
802.018	39.69
802.193	39.82
802.368	40.32
802.543	39.96
802.717	39.95
802.892	41.89
803.067	42.6
803.241	44.61
803.416	45.65
803.59	46.7
803.765	45.05
803.94	41.29
804.114	41.37
804.289	39.09
804.463	36.2
804.638	33.18
804.812	29.76
804.986	29.46
805.161	26.95
805.335	27.96
805.51	27.69
805.684	28.62
805.858	31.9
806.033	35.49
806.207	36.79
806.381	36.96
806.556	39.85
806.73	41.32
806.904	39.37
807.078	38.28
807.253	37.95
807.427	37.95
807.601	36.11
807.775	34
807.949	33.79
808.123	32.98
808.298	35.15
808.472	34.64
808.646	31.67
808.82	30.31
808.994	30.95
809.168	29.6
809.342	29.49
809.516	32.35
809.69	34.28
809.864	31.75
810.038	35.21
810.212	34.01
810.385	35.13
810.559	39.33
810.733	40.35
810.907	37.18
811.081	36.21
811.255	34.4
811.428	34.26
811.602	32.67
811.776	37.13
811.95	35.72
812.123	36.73
812.297	37.01
812.471	34.62
812.644	35.69
812.818	37.95
812.992	38.48
813.165	38.16
813.339	37.26
813.512	40.55
813.686	41.25
813.86	43.22
814.033	42.51
814.207	41.41
814.38	40.51
814.554	42.9
814.727	41.99
814.9	40.56
815.074	48.2
815.247	48.14
815.421	47.28
815.594	46.49
815.767	42.47
815.941	40.28
816.114	35.87
816.287	34.62
816.46	31.5
816.634	32.72
816.807	30.29
816.98	28.44
817.153	30.73
817.327	28.18
817.5	25.42
817.673	28.15
817.846	28.02
818.019	32.11
818.192	35.76
818.365	42.91
818.538	46.39
818.711	50.19
818.884	43.37
819.057	42.38
819.23	42.73
819.403	41.65
819.576	40.16
819.749	41.08
819.922	41.14
820.095	42.78
820.268	39.71
820.441	39.14
820.614	41.36
820.786	44.29
820.959	43.25
821.132	42.74
821.305	43.6
821.477	44.44
821.65	44.63
821.823	43.66
821.996	42.26
822.168	42.25
822.341	42.45
822.514	41.68
822.686	41.66
822.859	42.04
823.031	42.47
823.204	42.03
823.376	41.62
823.549	41.78
823.722	41.95
823.894	42.64
824.067	42.45
824.239	42.18
824.411	42.17
824.584	41.73
824.756	41.61
824.929	41.85
825.101	42.39
825.273	42.44
825.446	42.44
825.618	42.12
825.79	41.9
825.963	40.93
826.135	40.39
826.307	39.8
826.479	39.52
826.652	39.62
826.824	39.13
826.996	39.19
827.168	39.33
827.34	39.4
827.512	39.94
827.684	39.42
827.856	39.93
828.029	39.53
828.201	41.13
828.373	42.15
828.545	41.44
828.717	40.21
828.889	39.86
829.061	39.1
829.232	38.65
829.404	37.01
829.576	37.54
829.748	37.7
829.92	39.29
830.092	38.3
830.264	37.7
830.436	37.67
830.607	39.89
830.779	39.66
830.951	39.96
831.123	38.5
831.294	39.71
831.466	36.55
831.638	34
831.809	32.39
831.981	31.67
832.153	30.59
832.324	28.88
832.496	27.68
832.667	23.64
832.839	24.44
833.011	26.81
833.182	26.92
833.354	29.12
833.525	35.85
833.697	34.94
833.868	35.73
834.039	36.36
834.211	40.91
834.382	40.71
834.554	44.78
834.725	45.27
834.896	43.66
835.068	45.69
835.239	45.2
835.41	43.13
835.581	45.14
835.753	45.28
835.924	45.05
836.095	42.96
836.266	43.54
836.438	41.95
836.609	39.67
836.78	41.91
836.951	40.77
837.122	41.8
837.293	41.95
837.464	40.69
837.635	37.63
837.806	36.6
837.977	33.71
838.148	33.7
838.319	31.78
838.49	36.04
838.661	33.7
838.832	34.3
839.003	32.92
839.174	31.54
839.345	29.66
839.516	27.27
839.687	24.01
839.857	33.82
840.028	32.22
840.199	30.01
840.37	29.01
840.54	34.32
840.711	35.41
840.882	35.01
841.053	33.83
841.223	35.16
841.394	42.76
841.564	44.37
841.735	42.95
841.906	40.74
842.076	38.88
842.247	40.23
842.417	38.79
842.588	34.44
842.758	29.09
842.929	30.18
843.099	25.89
843.27	23.58
843.44	22.33
843.611	16.86
843.781	7.18
843.951	14.53
844.122	14.74
844.292	12.1
844.462	9.79
844.633	16.4
844.803	22.33
844.973	31.86
845.144	30.14
845.314	31.76
845.484	42.07
845.654	56.48
845.824	61.32
845.995	55.44
846.165	52.04
846.335	59.52
846.505	57.67
846.675	39.71
846.845	20.84
847.015	12.69
847.185	13.53
847.355	-5.74
847.525	-8.49
847.695	-19.75
847.865	-24.66
848.035	-23.14
848.205	-43.22
848.375	-24.54
848.545	-24.7
848.715	-10.77
848.884	-10.61
849.054	-28.02
849.224	-9.32
849.394	30.5
849.564	36.41
849.733	44.95
849.903	10.47
850.073	28.98
850.243	29.36
850.412	27.73
850.582	10.93
850.752	1.96
850.921	7.17
851.091	0.71
851.26	-5.02
851.43	0.29
851.599	-28.05
851.769	-13.48
851.939	-15.3
852.108	-42.76
852.278	-47.83
852.447	-54.94
852.616	-21.72
852.786	-7.08
852.955	2.11
853.125	-39.65
853.294	-34.15
853.463	-21.94
853.633	-20.89
853.802	-15.76
853.971	14.24
854.141	16.4
854.31	37.5
854.479	10.61
854.648	-25.3
854.818	-30.56
854.987	11.25
855.156	11.52
855.325	5.18
855.494	9.17
855.663	-16.47
855.832	-65.14
856.001	-61.26
856.171	-32.15
856.34	-10.41
856.509	2.54
856.678	18.59
856.847	60.62
857.016	48.13
857.185	81.21
857.353	62.88
857.522	65.81
857.691	60.29
857.86	73.8
858.029	69.5
858.198	76.6
858.367	79.18
858.535	70.68
858.704	48.9
858.873	37.81
859.042	40.46
859.21	38.25
859.379	41.95
859.548	48.71
859.717	34.18
859.885	35.83
860.054	37.19
860.222	12.54
860.391	16.32
860.56	31.28
860.728	43.8
860.897	34.85
861.065	32.82
861.234	33.57
861.402	29.84
861.571	24.61
861.739	24.73
861.908	19.45
862.076	36.13
862.244	37.23
862.413	29.46
862.581	8.88
862.749	-40.33
862.918	-52.73
863.086	-97.16
863.254	-127.15
863.423	-136.48
863.591	-48.85
863.759	-159.04
863.927	-209.53
864.096	-774.49
864.264	270.81
864.432	216.56
864.6	216.43
864.768	68.7
864.936	90.52
865.104	91.97
865.272	57.87
865.44	28.03
865.608	70.52
865.776	-4.11
865.944	22.19
866.112	33.51
866.28	15.78
866.448	15.23
866.616	27
866.784	24.78
866.952	27.5
867.12	20.25
867.288	37.87
867.455	22.74
867.623	71.13
867.791	55.94
867.959	62.65
868.127	82.41
868.294	93.99
868.462	50.51
868.63	43.15
868.797	30.49
868.965	13.91
869.133	-44.16
869.3	-83.7
869.468	-78.75
869.636	-23.77
869.803	-62.5
869.971	-41.05
870.138	-40.48
870.306	-12.55
870.473	-8.25
870.641	4.15
870.808	13.27
870.975	14.2
871.143	31.87
871.31	32.63
871.478	5.32
871.645	29.45
871.812	3.43
871.98	0.71
872.147	16.16
872.314	45.75
872.482	46.87
872.649	30.09
872.816	40.57
872.983	44.07
873.15	47.85
873.318	13.86
873.485	53.5
873.652	39.49
873.819	50.43
873.986	27.56
874.153	46.85
874.32	46.31
874.487	68.09
874.654	55.52
874.821	54.02
874.988	68.98
875.155	53.99
875.322	40.04
875.489	65.05
875.656	60.88
875.823	54.64
875.99	36.23
876.157	29
876.324	42.3
876.49	58.73
876.657	55.06
876.824	43.65
876.991	58.48
877.157	47.11
877.324	39.68
877.491	37.02
877.658	36.35
877.824	20.51
877.991	29.77
878.157	-7.75
878.324	-30.33
878.491	-4.82
878.657	6.68
878.824	4.62
878.99	18.79
879.157	-28.56
879.323	-16.77
879.49	9.95
879.656	28.49
879.823	33.59
879.989	54.41
880.156	47.83
880.322	51.86
880.488	58.66
880.655	68.76
880.821	66.55
880.987	73.19
881.154	75.56
881.32	52.48
881.486	53.3
881.652	51.23
881.819	47.38
881.985	50.45
882.151	45.55
882.317	33.87
882.483	30.58
882.649	34.09
882.816	33.01
882.982	34.13
883.148	37.42
883.314	37.56
883.48	36.69
883.646	36.48
883.812	36.54
883.978	36.6
884.144	38.18
884.31	39.44
884.476	39.53
884.642	42.11
884.807	44.7
884.973	45.48
885.139	46.83
885.305	49.04
885.471	49.19
885.637	48.2
885.802	47.35
885.968	49.08
886.134	50.89
886.3	48.56
886.465	45.78
886.631	40.58
886.797	38.34
886.962	37.87
887.128	37.38
887.293	37.05
887.459	39.13
887.625	41.21
887.79	39.21
887.956	40.91
888.121	46.24
888.287	49.07
888.452	57.99
888.618	74.31
888.783	72.5
