Data from CB_108_Reflection_2.txt Node
Date: Sat Nov 14 18:08:10 EST 2015
User: robert
Spectrometer: USB4E03001
Autoset integration time: false
Trigger mode: 4
Integration Time (sec): 1.000000E-1
Scans to average: 15
Electric dark correction enabled: true
Nonlinearity correction enabled: false
Boxcar width: 5
Stray light correction enabled: false
XAxis mode: Wavelengths
Stop averaging: false
Number of Pixels in Spectrum: 3648
>>>>>Begin Spectral Data<<<<<
177.566	43.25
177.785	-54.68
178.005	246.85
178.225	323.97
178.445	-2200
178.665	378.61
178.885	493.81
179.105	31.28
179.324	124.28
179.544	57.51
179.764	70.73
179.984	71.77
180.204	89.17
180.423	92.98
180.643	131.2
180.863	256.71
181.083	176.37
181.302	154.08
181.522	186.53
181.742	148.08
181.961	263.08
182.181	311.56
182.401	769.54
182.621	492.72
182.84	792.17
183.06	396.91
183.279	241.98
183.499	468.11
183.719	462.93
183.938	269.44
184.158	261.67
184.377	220.54
184.597	270.22
184.816	196.83
185.036	196.83
185.256	185.75
185.475	154.82
185.695	137.09
185.914	115.93
186.134	106.81
186.353	117.38
186.572	124.15
186.792	118.79
187.011	122.76
187.231	121.45
187.45	121.29
187.67	109.39
187.889	130.38
188.108	153.57
188.328	162.26
188.547	184.62
188.766	196.61
188.986	167.15
189.205	163.14
189.424	154.02
189.644	153.17
189.863	175.11
190.082	219.32
190.302	199.02
190.521	152.13
190.74	163.64
190.959	180.8
191.178	175.03
191.398	192.5
191.617	202.92
191.836	161.43
192.055	154.06
192.274	142.93
192.494	161.88
192.713	293.85
192.932	358.29
193.151	579.38
193.37	356.97
193.589	322.69
193.808	550.78
194.027	1007.65
194.246	-3124.26
194.465	4661.11
194.685	390.87
194.904	340.79
195.123	203.13
195.342	230.52
195.561	146.94
195.78	157.89
195.999	164.85
196.218	136.73
196.436	133.14
196.655	128.81
196.874	151.31
197.093	163.74
197.312	159.58
197.531	164.99
197.75	175.33
197.969	186.34
198.188	193.39
198.407	165.11
198.625	160.54
198.844	167.2
199.063	164.42
199.282	174.01
199.501	217.07
199.719	212.23
199.938	182.39
200.157	144.11
200.376	150.13
200.594	139.34
200.813	171.59
201.032	158.54
201.251	169.32
201.469	145.11
201.688	125.84
201.907	128.47
202.125	164.46
202.344	250.8
202.563	268.64
202.781	239.02
203	300.94
203.218	293
203.437	279.89
203.656	258.8
203.874	219.81
204.093	265.59
204.311	214.09
204.53	225.48
204.748	147.99
204.967	172.89
205.185	215.15
205.404	202.83
205.622	175.53
205.841	178.17
206.059	173.28
206.278	167.62
206.496	149.6
206.715	172.18
206.933	115.94
207.151	128.35
207.37	140.67
207.588	121.56
207.806	114.07
208.025	121.69
208.243	126.16
208.461	155.68
208.68	163.5
208.898	175
209.116	151.19
209.335	168.82
209.553	206.92
209.771	185.93
209.989	170.67
210.208	161.71
210.426	142.77
210.644	137.02
210.862	104.6
211.081	112.09
211.299	100.56
211.517	122.83
211.735	132.45
211.953	122.78
212.171	128.7
212.39	124.43
212.608	136.85
212.826	146.8
213.044	150.68
213.262	150.76
213.48	150.14
213.698	141.66
213.916	128.56
214.134	115.23
214.352	113.2
214.57	104.56
214.788	121.67
215.006	115.66
215.224	138.9
215.442	166.81
215.66	176.73
215.878	175.2
216.096	209.83
216.314	196.02
216.532	214.74
216.75	196.81
216.968	233.32
217.185	250.14
217.403	312.93
217.621	385.38
217.839	268.01
218.057	333.44
218.275	302.4
218.492	321.38
218.71	361.09
218.928	312.55
219.146	455.46
219.363	301.08
219.581	311
219.799	326.52
220.017	275.59
220.234	284.02
220.452	324.72
220.67	380.94
220.887	567.1
221.105	769.69
221.323	12913.5
221.54	1146.03
221.758	6992.86
221.976	2755.52
222.193	468.77
222.411	587.66
222.629	999.81
222.846	1331.67
223.064	-1152.67
223.281	1501.08
223.499	1036.45
223.716	2030.55
223.934	-1612.87
224.151	-551.88
224.369	-379.22
224.586	-231.42
224.804	-152.21
225.021	-152.82
225.239	-141.14
225.456	-176
225.674	-136.25
225.891	-165.94
226.108	-192.73
226.326	-178.69
226.543	-95.34
226.76	-49.88
226.978	-26.39
227.195	-48.04
227.413	-46.7
227.63	-30.69
227.847	-25.6
228.064	-14.16
228.282	-8.24
228.499	-3.89
228.716	-3.68
228.934	-6.8
229.151	-7.53
229.368	-8.76
229.585	-7.88
229.802	-6.32
230.02	-5.83
230.237	-5.59
230.454	-5.18
230.671	-5.43
230.888	-7.76
231.105	-11.23
231.323	-14.31
231.54	-26.07
231.757	-31.69
231.974	-36.19
232.191	-37.83
232.408	-43.99
232.625	-40.64
232.842	-40.28
233.059	-36.74
233.276	-35.74
233.493	-38.26
233.71	-28.67
233.927	-14.68
234.144	-18.61
234.361	-30.17
234.578	-33.12
234.795	-23.2
235.012	-24.73
235.229	-32.22
235.446	-35.08
235.663	-27.58
235.879	-28
236.096	-35.25
236.313	-41.86
236.53	-31.58
236.747	-19.72
236.964	-19.93
237.181	-29.54
237.397	-32.3
237.614	-31.58
237.831	-30.9
238.048	-35.97
238.264	-39.51
238.481	-38.41
238.698	-29.61
238.915	-27.5
239.131	-25.36
239.348	-23.59
239.565	-15.44
239.781	-11.76
239.998	-10.23
240.215	-9.86
240.431	-11.53
240.648	-2.29
240.865	1.31
241.081	-0.55
241.298	-0.13
241.514	0.69
241.731	2.32
241.947	1.96
242.164	0.65
242.38	3.17
242.597	3.34
242.814	6.02
243.03	4.64
243.246	3.7
243.463	5.37
243.679	3.14
243.896	1.75
244.112	-1.25
244.329	-1.77
244.545	1.19
244.762	-1.33
244.978	0.32
245.194	-3.92
245.411	-7.61
245.627	-5.37
245.843	-5.31
246.06	-1.91
246.276	-0.3
246.492	3.13
246.709	2.97
246.925	2.79
247.141	2.9
247.357	3.35
247.574	3.9
247.79	5.73
248.006	5.22
248.222	5.37
248.439	4.25
248.655	3.71
248.871	2.53
249.087	2.84
249.303	2.31
249.519	2.55
249.736	0.25
249.952	-1.02
250.168	-1.92
250.384	-3.86
250.6	-4.44
250.816	-6.19
251.032	-5.6
251.248	-5.36
251.464	-8.84
251.68	-9.56
251.896	-9.55
252.112	-10.33
252.328	-9.76
252.544	-10.97
252.76	-12.01
252.976	-14.87
253.192	-12.26
253.408	-13.29
253.624	-12.76
253.84	-10.29
254.056	-9.9
254.272	-11.34
254.487	-10.02
254.703	-10.08
254.919	-11.95
255.135	-9.97
255.351	-10.4
255.567	-9.17
255.782	-7.73
255.998	-8.85
256.214	-9.88
256.43	-6.19
256.646	-6.55
256.861	-5.7
257.077	-6.41
257.293	-2
257.508	1.48
257.724	1.87
257.94	2.4
258.155	1.9
258.371	2.28
258.587	1.72
258.802	1.64
259.018	3.37
259.234	4.9
259.449	5.56
259.665	5.13
259.88	4.51
260.096	5.36
260.312	4.68
260.527	5.06
260.743	4.87
260.958	5.47
261.174	5.44
261.389	4.59
261.605	3.64
261.82	3.03
262.036	1.98
262.251	0.29
262.466	-0.15
262.682	0.2
262.897	0.09
263.113	-0.8
263.328	-0.79
263.543	-4.32
263.759	-6.92
263.974	-8.11
264.189	-9.39
264.405	-8.71
264.62	-7.09
264.835	-7.18
265.051	-7.55
265.266	-8.31
265.481	-7.08
265.696	-7.03
265.912	-2.94
266.127	-0.2
266.342	1.46
266.557	1.87
266.773	0.89
266.988	1.26
267.203	0.63
267.418	0.72
267.633	1.15
267.848	1.46
268.064	1.47
268.279	-0.09
268.494	0.44
268.709	-0.15
268.924	2.15
269.139	1.88
269.354	2.83
269.569	4.95
269.784	4.36
269.999	3.34
270.214	3.46
270.429	1.58
270.644	0.83
270.859	0.75
271.074	0.54
271.289	-0.38
271.504	1.51
271.719	1.48
271.934	-0.91
272.149	-0.03
272.363	0.22
272.578	0.9
272.793	1.4
273.008	1.6
273.223	1.16
273.438	0.44
273.653	0.75
273.867	-1.42
274.082	-2.17
274.297	-0.86
274.512	-2.35
274.726	-2.62
274.941	-4.01
275.156	-2.9
275.371	-1.66
275.585	-2.61
275.8	-1.59
276.015	-2.09
276.229	0.34
276.444	-1.32
276.659	-1.59
276.873	0.38
277.088	0.6
277.302	1.39
277.517	2.02
277.732	0.74
277.946	0.16
278.161	-1.2
278.375	-0.77
278.59	0.06
278.804	1.19
279.019	0.61
279.233	0.37
279.448	-0.37
279.662	-0.03
279.877	-0.22
280.091	1.2
280.306	2.63
280.52	3.22
280.735	3.71
280.949	2.58
281.163	2.64
281.378	2.81
281.592	2.59
281.806	3.81
282.021	3.3
282.235	2.91
282.449	2.23
282.664	2.75
282.878	3.62
283.092	2.81
283.307	1.87
283.521	1.01
283.735	1.49
283.949	2.02
284.164	2.26
284.378	2.59
284.592	3.08
284.806	3.09
285.02	3.61
285.234	3.85
285.449	3.66
285.663	4.56
285.877	4.91
286.091	4.11
286.305	4.08
286.519	4.31
286.733	2.9
286.947	2.56
287.161	2.62
287.375	2.6
287.589	2.5
287.803	2.62
288.017	3
288.231	3.64
288.445	3.44
288.659	2.73
288.873	1.57
289.087	2.78
289.301	2.67
289.515	2.53
289.729	1.56
289.943	-0.28
290.157	-1.03
290.371	-1.5
290.584	-0.99
290.798	-0.77
291.012	-0.32
291.226	0.2
291.44	-0.35
291.654	-0.94
291.867	-0.62
292.081	-0.37
292.295	1.01
292.509	1.47
292.722	0.88
292.936	0.62
293.15	2
293.364	1.81
293.577	1.35
293.791	2.29
294.005	2.82
294.218	2.56
294.432	2.41
294.645	2.05
294.859	3.9
295.073	3.65
295.286	3.2
295.5	3.18
295.713	3.41
295.927	3.79
296.14	3.96
296.354	4.26
296.568	4.09
296.781	4.48
296.994	5.47
297.208	4.56
297.421	5.54
297.635	5.02
297.848	4.99
298.062	5.26
298.275	5.42
298.489	4.64
298.702	4.74
298.915	4.71
299.129	4.7
299.342	4.34
299.555	3.54
299.769	3.3
299.982	4.38
300.195	3.74
300.409	2.78
300.622	2.08
300.835	2.42
301.048	2.21
301.262	3.24
301.475	2.98
301.688	2.37
301.901	3.34
302.115	2.76
302.328	3.15
302.541	3.53
302.754	3.81
302.967	5.45
303.18	5.84
303.393	6.63
303.607	5
303.82	4.58
304.033	6.01
304.246	6.05
304.459	6.01
304.672	6.23
304.885	6.21
305.098	6.69
305.311	6.27
305.524	6.12
305.737	4.1
305.95	5.93
306.163	6.13
306.376	3.68
306.589	3.67
306.802	2.9
307.015	1.18
307.228	1.65
307.44	2.18
307.653	2.18
307.866	2.49
308.079	3.39
308.292	3.56
308.505	3.51
308.718	4.46
308.93	4.78
309.143	6
309.356	5.98
309.569	6.52
309.781	6.5
309.994	6.98
310.207	6.88
310.42	6.85
310.632	6.55
310.845	6.99
311.058	8.37
311.27	9.12
311.483	8.52
311.696	9.86
311.908	10.08
312.121	9.35
312.333	8.27
312.546	8.3
312.759	8.81
312.971	8.78
313.184	8.44
313.396	6.87
313.609	4.91
313.821	5.75
314.034	4.2
314.246	3.34
314.459	4.52
314.671	4.89
314.884	5.6
315.096	5.45
315.309	4.57
315.521	5.51
315.733	5.43
315.946	6.9
316.158	5.25
316.371	7.26
316.583	6.84
316.795	6.88
317.008	7.51
317.22	6.82
317.432	6.53
317.644	7.21
317.857	8.04
318.069	9.46
318.281	8.45
318.494	10.15
318.706	8.39
318.918	8.12
319.13	8.9
319.342	9.39
319.555	8.03
319.767	8.34
319.979	7.5
320.191	6.93
320.403	6.29
320.615	7.48
320.827	5.65
321.039	4.58
321.252	5.17
321.464	4.7
321.676	2.93
321.888	5.61
322.1	6.14
322.312	8.32
322.524	7.47
322.736	7.55
322.948	7.76
323.16	9.72
323.372	11.21
323.584	10.74
323.796	9.38
324.007	10.05
324.219	9.69
324.431	10
324.643	8.79
324.855	9.91
325.067	11.06
325.279	10.32
325.491	10.22
325.702	10.37
325.914	11.26
326.126	12.8
326.338	15.3
326.55	16.84
326.761	17.62
326.973	18.96
327.185	18.91
327.396	18.94
327.608	19.02
327.82	19.49
328.032	19.98
328.243	19.95
328.455	20.91
328.666	19.63
328.878	18.89
329.09	19.79
329.301	20.54
329.513	20.46
329.725	19.56
329.936	20.82
330.148	20.51
330.359	20.35
330.571	20.43
330.782	20.14
330.994	20.22
331.205	20.19
331.417	18.62
331.628	17.75
331.84	17.7
332.051	17.65
332.262	18.08
332.474	18.28
332.685	19.25
332.897	20.39
333.108	19.72
333.319	19.6
333.531	19.9
333.742	20.2
333.953	21.16
334.165	21.57
334.376	22.62
334.587	22.31
334.799	23.81
335.01	23.69
335.221	23.63
335.432	23.7
335.644	24.68
335.855	24.41
336.066	23.63
336.277	23.15
336.488	23.62
336.7	22.66
336.911	22.24
337.122	21.67
337.333	22.67
337.544	22.59
337.755	22.36
337.966	21.63
338.177	22.1
338.388	22.93
338.599	22.62
338.811	22.05
339.022	23.56
339.233	23.67
339.444	23.21
339.655	21.46
339.866	21.66
340.076	21.77
340.287	21.73
340.498	21.2
340.709	21.12
340.92	22.64
341.131	22.14
341.342	21.65
341.553	22.11
341.764	22.6
341.975	23.58
342.185	22.57
342.396	23.04
342.607	23
342.818	24.04
343.029	23.65
343.239	22.57
343.45	22.98
343.661	21.98
343.872	21.53
344.082	21.43
344.293	21.75
344.504	21.91
344.714	21.99
344.925	22.43
345.136	21.93
345.346	21.93
345.557	21.7
345.768	22.02
345.978	22.32
346.189	22.38
346.399	22.19
346.61	20.84
346.821	21.39
347.031	20.59
347.242	20.22
347.452	19.42
347.663	19.8
347.873	19.81
348.084	19.28
348.294	20.33
348.504	20.13
348.715	20
348.925	20.77
349.136	20.55
349.346	21.48
349.557	21.2
349.767	21.76
349.977	21.86
350.188	21.04
350.398	21.46
350.608	20.67
350.819	21.32
351.029	21.68
351.239	20.97
351.449	21.25
351.66	19.63
351.87	20.58
352.08	19.53
352.29	19.95
352.501	20.94
352.711	21.25
352.921	22.23
353.131	21.42
353.341	20.99
353.552	21.99
353.762	22.06
353.972	23.14
354.182	22.32
354.392	22.73
354.602	22.24
354.812	21.72
355.022	21.6
355.232	21.43
355.442	22.09
355.652	21.6
355.862	21.13
356.072	20.5
356.282	20.54
356.492	20.65
356.702	20.86
356.912	20.7
357.122	20.74
357.332	20.54
357.542	19.54
357.752	19.46
357.962	20.13
358.171	20.42
358.381	20.72
358.591	20.61
358.801	20.44
359.011	20.38
359.221	20.47
359.43	21.04
359.64	21.16
359.85	21.56
360.06	21.49
360.269	21.6
360.479	21.57
360.689	21.67
360.899	21.43
361.108	21.63
361.318	21.7
361.528	21.33
361.737	21.3
361.947	21.16
362.156	21.39
362.366	21.41
362.576	21.04
362.785	21.16
362.995	21.37
363.204	21.33
363.414	21.11
363.623	20.95
363.833	21.42
364.042	20.98
364.252	21.19
364.461	20.87
364.671	21.02
364.88	21.6
365.09	21.2
365.299	20.51
365.509	20.24
365.718	20.1
365.927	19.95
366.137	19.65
366.346	19.73
366.555	19.88
366.765	19.83
366.974	19.46
367.183	18.53
367.393	18.8
367.602	18.92
367.811	19.51
368.021	19.72
368.23	19.82
368.439	19.99
368.648	20.12
368.857	19.28
369.067	18.94
369.276	18.32
369.485	17.82
369.694	16.98
369.903	16.81
370.112	16.59
370.321	16.97
370.531	17.06
370.74	16.96
370.949	16.61
371.158	17.15
371.367	16.97
371.576	17.02
371.785	17.43
371.994	17.78
372.203	17.92
372.412	17.94
372.621	17.46
372.83	17.17
373.039	17.08
373.248	16.85
373.457	16.12
373.666	15.88
373.874	16.08
374.083	16.04
374.292	15.71
374.501	15.45
374.71	14.44
374.919	14.1
375.128	14.54
375.336	14.62
375.545	14.97
375.754	15.17
375.963	15.71
376.171	15.62
376.38	16.09
376.589	16.32
376.798	16.28
377.006	16.87
377.215	16.46
377.424	15.86
377.632	15.34
377.841	15.38
378.05	15.17
378.258	15.29
378.467	14.76
378.675	14.38
378.884	13.8
379.093	13.64
379.301	13.18
379.51	13.98
379.718	14.45
379.927	14.76
380.135	14.72
380.344	15.08
380.552	14.55
380.761	15.11
380.969	15.4
381.177	15.78
381.386	15.54
381.594	16.48
381.803	16.08
382.011	15.24
382.219	15.16
382.428	14.86
382.636	14.93
382.845	15.15
383.053	15.38
383.261	14.74
383.469	14.14
383.678	14.34
383.886	14.03
384.094	13.76
384.302	13.85
384.511	14.07
384.719	14.04
384.927	13.5
385.135	13.58
385.343	13.11
385.552	12.71
385.76	12.88
385.968	12.5
386.176	11.96
386.384	12.31
386.592	12.41
386.8	11.67
387.008	11.69
387.216	11.98
387.424	11.39
387.633	11.08
387.841	11.51
388.049	12.07
388.257	12.35
388.465	12.08
388.672	11.49
388.88	11.26
389.088	11.63
389.296	11.05
389.504	10.62
389.712	11
389.92	11.16
390.128	11.57
390.336	10.77
390.544	10.51
390.751	10.57
390.959	10.64
391.167	10.95
391.375	10.6
391.583	10.68
391.79	10.59
391.998	10.39
392.206	10.2
392.414	9.44
392.621	9.51
392.829	9.54
393.037	9.77
393.244	10.1
393.452	9.7
393.66	9.83
393.867	9.92
394.075	10.38
394.283	10.28
394.49	10.52
394.698	10.48
394.905	10.47
395.113	10.25
395.32	10.01
395.528	9.61
395.735	9.87
395.943	9.91
396.15	9.62
396.358	9.24
396.565	9.2
396.773	9.04
396.98	9.01
397.188	9
397.395	9.42
397.602	9.37
397.81	9.5
398.017	9.08
398.225	8.93
398.432	9.24
398.639	9.37
398.847	9.42
399.054	9.47
399.261	9.71
399.468	9.78
399.676	9.39
399.883	9.4
400.09	9.26
400.297	9.45
400.505	9.32
400.712	9
400.919	8.69
401.126	8.29
401.333	8.09
401.54	8.38
401.748	8.44
401.955	8.55
402.162	8.61
402.369	8.31
402.576	8.4
402.783	8.4
402.99	8.61
403.197	8.65
403.404	8.85
403.611	8.7
403.818	8.6
404.025	8.54
404.232	8.57
404.439	8.71
404.646	8.91
404.853	8.78
405.06	8.6
405.267	8.44
405.474	8.46
405.681	8.43
405.887	8.56
406.094	8.18
406.301	8.23
406.508	8.17
406.715	7.8
406.922	7.67
407.128	7.86
407.335	8.29
407.542	8.29
407.749	8.34
407.955	8.19
408.162	8.36
408.369	8.55
408.575	8.25
408.782	8.26
408.989	8.22
409.195	8.45
409.402	8.22
409.609	7.92
409.815	7.9
410.022	7.66
410.228	7.72
410.435	7.62
410.642	7.75
410.848	7.88
411.055	7.62
411.261	7.76
411.468	7.46
411.674	7.3
411.881	7.26
412.087	6.93
412.294	7.12
412.5	7.08
412.706	7.05
412.913	6.5
413.119	6.51
413.326	6.77
413.532	6.73
413.738	6.77
413.945	6.89
414.151	6.85
414.357	6.79
414.564	6.5
414.77	6.3
414.976	6.35
415.182	6.8
415.389	6.79
415.595	6.72
415.801	6.58
416.007	6.67
416.214	6.6
416.42	6.87
416.626	7.19
416.832	7.27
417.038	7.57
417.244	7.68
417.45	7.68
417.657	7.49
417.863	7.45
418.069	7.45
418.275	7.31
418.481	7.55
418.687	7.42
418.893	7.44
419.099	7.51
419.305	7.47
419.511	7.33
419.717	7.34
419.923	7.4
420.129	7.45
420.335	7.58
420.541	7.92
420.746	7.8
420.952	7.87
421.158	7.95
421.364	7.87
421.57	7.81
421.776	7.88
421.982	7.74
422.187	7.72
422.393	7.7
422.599	7.7
422.805	7.44
423.01	7.46
423.216	7.41
423.422	7.35
423.628	7.4
423.833	7.44
424.039	7.46
424.245	7.55
424.45	7.6
424.656	7.67
424.862	7.65
425.067	7.67
425.273	7.74
425.478	7.63
425.684	7.55
425.889	7.42
426.095	7.62
426.301	7.34
426.506	7.12
426.712	7.14
426.917	7.04
427.123	6.95
427.328	7
427.533	6.79
427.739	6.74
427.944	6.86
428.15	6.87
428.355	6.37
428.561	6.61
428.766	7.03
428.971	7.01
429.177	7.08
429.382	6.95
429.587	6.96
429.793	7
429.998	7.15
430.203	6.97
430.408	7.08
430.614	7.13
430.819	7.05
431.024	6.82
431.229	6.81
431.434	6.56
431.64	6.58
431.845	6.4
432.05	6.29
432.255	6.27
432.46	6.35
432.665	6.28
432.87	6.52
433.076	6.48
433.281	6.51
433.486	6.43
433.691	6.46
433.896	6.72
434.101	6.96
434.306	7.19
434.511	7.39
434.716	7.66
434.921	8.08
435.126	8.29
435.331	8.76
435.535	9.04
435.74	9.29
435.945	9.51
436.15	9.38
436.355	9.24
436.56	9.18
436.765	8.99
436.97	8.65
437.174	8.31
437.379	7.88
437.584	7.49
437.789	7.24
437.993	7.03
438.198	6.87
438.403	6.95
438.608	6.74
438.812	6.76
439.017	6.83
439.222	6.97
439.426	6.91
439.631	6.9
439.836	6.81
440.04	6.83
440.245	6.78
440.45	6.7
440.654	6.64
440.859	6.78
441.063	6.72
441.268	6.61
441.472	6.39
441.677	6.53
441.881	6.67
442.086	6.72
442.29	6.61
442.495	6.73
442.699	6.8
442.904	6.72
443.108	6.6
443.312	6.44
443.517	6.48
443.721	6.62
443.925	6.49
444.13	6.44
444.334	6.37
444.538	6.49
444.743	6.38
444.947	6.51
445.151	6.51
445.356	6.76
445.56	6.94
445.764	7.12
445.968	7.07
446.173	7.04
446.377	6.91
446.581	6.85
446.785	6.7
446.989	6.88
447.193	6.87
447.398	6.95
447.602	6.88
447.806	6.85
448.01	6.65
448.214	6.71
448.418	6.67
448.622	6.66
448.826	6.6
449.03	6.78
449.234	6.63
449.438	6.49
449.642	6.32
449.846	6.01
450.05	5.84
450.254	5.72
450.458	5.62
450.662	5.65
450.866	5.93
451.069	6.27
451.273	6.14
451.477	6.08
451.681	6.18
451.885	6.32
452.089	6.36
452.292	6.54
452.496	6.52
452.7	6.5
452.904	6.47
453.107	6.31
453.311	6.15
453.515	6.22
453.719	6.17
453.922	5.97
454.126	5.84
454.33	5.91
454.533	5.81
454.737	5.8
454.94	5.78
455.144	5.76
455.348	5.65
455.551	5.55
455.755	5.52
455.958	5.62
456.162	5.69
456.365	5.86
456.569	5.98
456.772	6.1
456.976	6.2
457.179	6.17
457.383	6.27
457.586	6.37
457.79	6.51
457.993	6.61
458.196	6.49
458.4	6.58
458.603	6.36
458.807	6.28
459.01	6.22
459.213	6.32
459.417	6.4
459.62	6.3
459.823	6.26
460.026	6.15
460.23	5.99
460.433	6.01
460.636	6.04
460.839	6.14
461.042	6.14
461.246	6.02
461.449	5.88
461.652	5.66
461.855	5.72
462.058	5.68
462.261	5.87
462.464	6.04
462.668	6.16
462.871	6.07
463.074	5.94
463.277	5.82
463.48	5.79
463.683	5.8
463.886	5.96
464.089	5.95
464.292	5.98
464.495	5.86
464.698	5.66
464.901	5.5
465.104	5.47
465.306	5.63
465.509	5.51
465.712	5.58
465.915	5.83
466.118	5.81
466.321	5.83
466.524	5.98
466.726	5.76
466.929	5.58
467.132	5.52
467.335	5.45
467.538	5.49
467.74	5.59
467.943	5.73
468.146	5.64
468.348	5.76
468.551	5.63
468.754	5.59
468.956	5.8
469.159	6.03
469.362	6.1
469.564	6.16
469.767	6.06
469.969	6.23
470.172	6.32
470.375	6.16
470.577	6.18
470.78	6.13
470.982	6.3
471.185	6.26
471.387	6.32
471.59	6.34
471.792	6.2
471.995	6.22
472.197	6.15
472.399	5.84
472.602	5.86
472.804	5.64
473.007	5.67
473.209	5.51
473.411	5.35
473.614	5.29
473.816	5.34
474.018	5.47
474.22	5.35
474.423	5.37
474.625	5.48
474.827	5.47
475.03	5.69
475.232	5.81
475.434	5.89
475.636	6.16
475.838	6.31
476.04	6.31
476.243	6.24
476.445	6.27
476.647	6.32
476.849	6.21
477.051	6.36
477.253	6.15
477.455	6.07
477.657	6.03
477.859	5.7
478.061	5.63
478.263	5.58
478.465	5.54
478.667	5.65
478.869	5.68
479.071	5.8
479.273	5.78
479.475	5.92
479.677	5.99
479.879	5.99
480.081	6.29
480.283	6.32
480.485	6.36
480.686	6.63
480.888	6.66
481.09	6.53
481.292	6.56
481.494	6.53
481.695	6.62
481.897	6.66
482.099	6.64
482.301	6.55
482.502	6.53
482.704	6.48
482.906	6.45
483.107	6.48
483.309	6.52
483.511	6.52
483.712	6.55
483.914	6.54
484.115	6.51
484.317	6.52
484.519	6.53
484.72	6.54
484.922	6.59
485.123	6.61
485.325	6.56
485.526	6.6
485.728	6.63
485.929	6.62
486.131	6.58
486.332	6.64
486.534	6.67
486.735	6.69
486.936	6.74
487.138	6.79
487.339	6.74
487.541	6.84
487.742	6.84
487.943	6.85
488.144	6.86
488.346	6.92
488.547	6.9
488.748	6.81
488.95	6.86
489.151	6.71
489.352	6.65
489.553	6.69
489.755	6.63
489.956	6.6
490.157	6.57
490.358	6.56
490.559	6.55
490.76	6.46
490.961	6.54
491.163	6.55
491.364	6.68
491.565	6.66
491.766	6.65
491.967	6.62
492.168	6.63
492.369	6.58
492.57	6.6
492.771	6.52
492.972	6.59
493.173	6.58
493.374	6.6
493.575	6.57
493.776	6.61
493.976	6.64
494.177	6.6
494.378	6.68
494.579	6.8
494.78	6.88
494.981	6.91
495.182	7.03
495.382	7
495.583	6.79
495.784	6.77
495.985	6.78
496.185	6.68
496.386	6.67
496.587	6.5
496.788	6.47
496.988	6.42
497.189	6.58
497.39	6.55
497.59	6.6
497.791	6.59
497.992	6.69
498.192	6.59
498.393	6.48
498.593	6.51
498.794	6.47
498.994	6.47
499.195	6.31
499.395	6.33
499.596	6.29
499.796	6.27
499.997	6.46
500.197	6.48
500.398	6.5
500.598	6.66
500.799	6.81
500.999	6.92
501.199	6.88
501.4	7.01
501.6	6.8
501.801	6.75
502.001	6.72
502.201	6.6
502.402	6.52
502.602	6.54
502.802	6.5
503.002	6.39
503.203	6.41
503.403	6.41
503.603	6.3
503.803	6.34
504.003	6.34
504.204	6.33
504.404	6.44
504.604	6.49
504.804	6.5
505.004	6.52
505.204	6.57
505.404	6.64
505.604	6.58
505.804	6.8
506.005	6.79
506.205	7.01
506.405	7.03
506.605	7.05
506.805	7.06
507.005	7.15
507.204	7.4
507.404	7.39
507.604	7.26
507.804	7.34
508.004	7.34
508.204	7.5
508.404	7.31
508.604	7.46
508.804	7.45
509.003	7.67
509.203	7.71
509.403	7.64
509.603	7.66
509.803	7.85
510.002	7.8
510.202	7.87
510.402	7.87
510.602	8.01
510.801	8
511.001	7.94
511.201	7.71
511.4	7.76
511.6	7.76
511.8	7.88
511.999	7.81
512.199	7.93
512.398	7.87
512.598	7.94
512.797	8.01
512.997	8.01
513.197	8.13
513.396	8.17
513.596	8.21
513.795	8.25
513.994	7.96
514.194	8.18
514.393	8.34
514.593	8.42
514.792	8.37
514.992	8.36
515.191	8.51
515.39	8.5
515.59	8.73
515.789	8.82
515.988	9.02
516.188	9.64
516.387	9.78
516.586	9.91
516.786	9.9
516.985	9.97
517.184	10.02
517.383	9.99
517.582	10.12
517.782	10.21
517.981	10.26
518.18	10.34
518.379	10.24
518.578	10.14
518.777	10.05
518.976	10.19
519.176	10.3
519.375	10.41
519.574	10.55
519.773	10.52
519.972	10.52
520.171	10.6
520.37	10.54
520.569	10.66
520.768	10.81
520.967	10.95
521.166	11.03
521.365	11.1
521.564	11.18
521.762	11.24
521.961	11.47
522.16	11.61
522.359	11.73
522.558	11.92
522.757	11.93
522.956	12.15
523.154	12.47
523.353	12.65
523.552	12.77
523.751	12.97
523.949	13.22
524.148	13.35
524.347	13.43
524.546	13.5
524.744	13.57
524.943	13.67
525.142	13.59
525.34	13.55
525.539	13.48
525.737	13.69
525.936	13.74
526.135	13.82
526.333	13.91
526.532	14.02
526.73	14.23
526.929	14.33
527.127	14.51
527.326	14.68
527.524	14.73
527.723	14.98
527.921	15.02
528.12	15.17
528.318	15.2
528.516	15.23
528.715	15.31
528.913	15.38
529.112	15.42
529.31	15.49
529.508	15.53
529.707	15.71
529.905	15.73
530.103	15.79
530.301	15.84
530.5	15.96
530.698	16.09
530.896	16.15
531.094	16.21
531.293	16.38
531.491	16.41
531.689	16.61
531.887	16.66
532.085	16.91
532.283	17.14
532.481	17.24
532.68	17.4
532.878	17.66
533.076	17.87
533.274	18.01
533.472	18.09
533.67	18.21
533.868	18.36
534.066	18.43
534.264	18.43
534.462	18.46
534.66	18.6
534.858	18.68
535.056	18.67
535.253	18.81
535.451	18.95
535.649	19.18
535.847	19.31
536.045	19.43
536.243	19.63
536.441	19.92
536.638	20.17
536.836	20.37
537.034	20.61
537.232	20.9
537.43	21.01
537.627	21.22
537.825	21.64
538.023	22.02
538.22	22.46
538.418	22.8
538.616	23.23
538.813	23.76
539.011	24.28
539.209	24.91
539.406	25.6
539.604	26.58
539.801	27.36
539.999	28.16
540.196	28.9
540.394	29.49
540.591	30.13
540.789	30.6
540.986	30.94
541.184	31.4
541.381	31.66
541.579	31.9
541.776	32.13
541.974	32.35
542.171	32.37
542.368	32.62
542.566	32.85
542.763	33.06
542.96	33.31
543.158	33.73
543.355	34.15
543.552	34.76
543.75	35.51
543.947	36.31
544.144	37.39
544.341	38.72
544.539	40.17
544.736	41.79
544.933	43.56
545.13	45.19
545.327	46.69
545.524	47.86
545.722	48.89
545.919	49.43
546.116	49.62
546.313	49.44
546.51	48.87
546.707	47.98
546.904	46.83
547.101	45.51
547.298	44.27
547.495	42.93
547.692	41.83
547.889	40.69
548.086	39.72
548.283	38.88
548.48	38.24
548.677	37.53
548.874	36.99
549.07	36.57
549.267	36.34
549.464	36.09
549.661	35.7
549.858	35.29
550.055	34.95
550.251	34.7
550.448	34.17
550.645	33.67
550.842	33.21
551.038	32.95
551.235	32.7
551.432	32.18
551.628	31.73
551.825	31.43
552.022	30.88
552.218	30.54
552.415	30.07
552.612	29.93
552.808	29.63
553.005	29.63
553.201	29.36
553.398	29.12
553.594	28.98
553.791	28.87
553.987	28.83
554.184	28.85
554.38	28.84
554.577	29.03
554.773	28.84
554.97	28.76
555.166	28.84
555.362	28.8
555.559	28.92
555.755	29.01
555.952	28.86
556.148	28.71
556.344	28.99
556.541	29.06
556.737	28.81
556.933	28.97
557.129	29.02
557.326	29.03
557.522	29.25
557.718	29.26
557.914	29.31
558.11	29.57
558.307	29.76
558.503	29.6
558.699	29.66
558.895	29.66
559.091	29.55
559.287	29.94
559.483	29.66
559.679	29.58
559.876	29.57
560.072	29.43
560.268	29.18
560.464	29.49
560.66	29.59
560.856	29.47
561.052	29.87
561.247	29.86
561.443	29.52
561.639	29.68
561.835	29.43
562.031	29.52
562.227	29.41
562.423	29.71
562.619	29.58
562.815	29.55
563.01	29.62
563.206	29.38
563.402	29.45
563.598	29.52
563.793	29.55
563.989	29.98
564.185	29.85
564.381	30.03
564.576	29.95
564.772	29.99
564.968	29.99
565.163	29.9
565.359	30.07
565.555	30.25
565.75	30.32
565.946	30.44
566.141	30.46
566.337	30.57
566.532	30.65
566.728	30.72
566.923	30.69
567.119	30.79
567.314	30.92
567.51	30.85
567.705	30.75
567.901	30.74
568.096	30.72
568.292	30.64
568.487	30.74
568.682	30.86
568.878	31.08
569.073	31.11
569.268	31.12
569.464	31.1
569.659	31.05
569.854	31.27
570.05	31.61
570.245	31.7
570.44	31.74
570.635	31.65
570.831	31.57
571.026	31.32
571.221	31.41
571.416	31.54
571.611	31.57
571.806	31.64
572.002	31.59
572.197	31.56
572.392	31.55
572.587	31.54
572.782	31.72
572.977	31.78
573.172	31.82
573.367	31.76
573.562	31.71
573.757	31.75
573.952	31.61
574.147	31.65
574.342	31.76
574.537	31.99
574.732	32.3
574.927	32.29
575.121	32.37
575.316	32.68
575.511	33.18
575.706	33.52
575.901	33.87
576.096	34.51
576.29	34.95
576.485	35.12
576.68	35.42
576.875	35.81
577.069	36.07
577.264	36.53
577.459	36.91
577.654	37.02
577.848	37.04
578.043	37.39
578.238	37.54
578.432	37.64
578.627	38
578.821	38.01
579.016	37.99
579.21	38.14
579.405	38.18
579.6	38.2
579.794	38.22
579.989	38.44
580.183	38.08
580.378	38.14
580.572	38.06
580.766	38.04
580.961	38.13
581.155	38.03
581.35	38.27
581.544	38.52
581.738	38.53
581.933	38.67
582.127	38.86
582.321	39.15
582.516	39.09
582.71	39.45
582.904	39.67
583.099	39.73
583.293	40.14
583.487	40.32
583.681	40.26
583.875	40.37
584.07	40.36
584.264	40.49
584.458	40.63
584.652	40.91
584.846	40.9
585.04	40.76
585.234	41.08
585.428	41.02
585.623	41.32
585.817	41.66
586.011	42.26
586.205	42.72
586.399	42.82
586.593	43.2
586.787	43.69
586.981	43.95
587.174	44.08
587.368	43.96
587.562	43.67
587.756	43.25
587.95	43.01
588.144	42.53
588.338	41.89
588.532	41.32
588.725	40.67
588.919	40.24
589.113	39.72
589.307	39.35
589.501	38.97
589.694	38.86
589.888	38.83
590.082	38.54
590.275	38.24
590.469	38.38
590.663	38.66
590.856	39.13
591.05	39.11
591.244	39.65
591.437	40.13
591.631	40.46
591.824	41.01
592.018	41.53
592.212	41.96
592.405	42.52
592.599	42.65
592.792	42.7
592.986	42.48
593.179	42.66
593.372	42.42
593.566	42.23
593.759	42.02
593.953	41.78
594.146	40.86
594.339	40.74
594.533	40.06
594.726	39.68
594.92	39.23
595.113	39.05
595.306	38.5
595.499	38.13
595.693	37.85
595.886	37.74
596.079	37.31
596.272	37.44
596.466	37.17
596.659	37.34
596.852	37.49
597.045	37.71
597.238	37.83
597.431	38
597.624	38.25
597.818	38.5
598.011	38.59
598.204	39.09
598.397	39.33
598.59	39.77
598.783	39.99
598.976	40.25
599.169	40.51
599.362	40.61
599.555	40.75
599.748	40.7
599.941	40.51
600.134	40.85
600.326	40.59
600.519	40.32
600.712	39.76
600.905	39.55
601.098	39
601.291	38.41
601.483	38.01
601.676	37.7
601.869	37.29
602.062	37.27
602.255	36.61
602.447	36.58
602.64	36.55
602.833	36.56
603.025	36.6
603.218	36.46
603.411	36.67
603.603	36.75
603.796	36.73
603.989	36.96
604.181	36.76
604.374	37
604.566	37.09
604.759	36.9
604.951	37.11
605.144	37.11
605.336	37.28
605.529	37.34
605.721	37.4
605.914	37.64
606.106	37.96
606.299	38.39
606.491	38.71
606.683	38.91
606.876	39.55
607.068	40.04
607.26	40.47
607.453	41.39
607.645	42.15
607.837	43.37
608.03	44.64
608.222	46.09
608.414	47.73
608.606	49.85
608.799	52.41
608.991	55.88
609.183	59.68
609.375	64.95
609.567	70.57
609.759	76.52
609.952	82.75
610.144	89.4
610.336	96.53
610.528	103.86
610.72	110.82
610.912	117.76
611.104	123.5
611.296	128.37
611.488	131.16
611.68	132.85
611.872	133.6
612.064	133.08
612.256	130.95
612.448	127.7
612.64	123.92
612.832	119.28
613.023	114.27
613.215	109.07
613.407	104.04
613.599	99.65
613.791	95.34
613.983	91.07
614.174	87.18
614.366	84.34
614.558	81.27
614.75	78.21
614.941	75.51
615.133	72.8
615.325	70.4
615.516	67.91
615.708	65.56
615.9	63.04
616.091	61.09
616.283	59.12
616.475	56.99
616.666	54.86
616.858	53.1
617.049	51.55
617.241	50.11
617.432	48.72
617.624	47.64
617.815	46.57
618.007	45.81
618.198	45.11
618.39	44.41
618.581	43.77
618.773	43.76
618.964	43.29
619.155	43.31
619.347	43.28
619.538	43.22
619.729	43.41
619.921	43.77
620.112	43.85
620.303	43.55
620.494	43.69
620.686	43.76
620.877	43.49
621.068	43.75
621.259	43.44
621.451	43.47
621.642	43.8
621.833	43.53
622.024	43.06
622.215	43.35
622.406	43.69
622.597	43.6
622.788	43.71
622.98	43.84
623.171	44.33
623.362	44.26
623.553	44.36
623.744	44.43
623.935	44.36
624.126	44.73
624.317	44.34
624.508	44.67
624.698	44.88
624.889	44.62
625.08	44.92
625.271	44.69
625.462	44.71
625.653	44.76
625.844	44.63
626.034	44.75
626.225	44.61
626.416	44.66
626.607	44.39
626.798	44.09
626.988	44.23
627.179	44.19
627.37	44.3
627.56	44.42
627.751	44.35
627.942	44.31
628.132	44.49
628.323	44.6
628.514	44.91
628.704	45.56
628.895	46.07
629.085	46.78
629.276	47.18
629.466	47.73
629.657	48.27
629.847	49.23
630.038	49.98
630.228	50.6
630.419	51.16
630.609	51.52
630.8	51.36
630.99	51.56
631.181	51.08
631.371	50.4
631.561	49.5
631.752	48.94
631.942	47.7
632.132	46.95
632.323	45.99
632.513	45.14
632.703	44.31
632.893	43.03
633.084	41.93
633.274	41.14
633.464	40.81
633.654	40.49
633.844	39.89
634.034	39.57
634.225	39.36
634.415	38.97
634.605	38.53
634.795	38.47
634.985	38.91
635.175	38.95
635.365	38.93
635.555	38.68
635.745	38.29
635.935	38.21
636.125	38.33
636.315	37.93
636.505	38.01
636.695	37.88
636.885	37.66
637.075	37.73
637.265	37.7
637.455	37.59
637.644	37.71
637.834	37.81
638.024	37.58
638.214	37.71
638.404	37.69
638.593	37.9
638.783	37.84
638.973	37.97
639.163	37.46
639.352	37.43
639.542	37.63
639.732	37.85
639.921	38.05
640.111	38.19
640.301	37.45
640.49	37.33
640.68	37.43
640.87	37.72
641.059	37.47
641.249	37.8
641.438	38.01
641.628	38.1
641.817	37.85
642.007	37.72
642.196	38.27
642.386	38.64
642.575	38.65
642.764	38.39
642.954	38.46
643.143	38.62
643.333	38.49
643.522	37.86
643.711	37.91
643.901	37.91
644.09	38.02
644.279	37.71
644.469	37.45
644.658	37.27
644.847	36.84
645.036	36.53
645.226	36.31
645.415	36.42
645.604	37.02
645.793	36.74
645.982	36.78
646.171	36.64
646.361	36.74
646.55	36.99
646.739	37.38
646.928	37.6
647.117	38.05
647.306	37.92
647.495	37.49
647.684	37.34
647.873	37.5
648.062	37.29
648.251	37.38
648.44	37.02
648.629	37.66
648.818	37.98
649.007	38.37
649.196	38.3
649.384	38.41
649.573	38.98
649.762	39.34
649.951	39.74
650.14	39.47
650.328	39.5
650.517	39.9
650.706	39.32
650.895	38.77
651.083	38.61
651.272	38.52
651.461	39.47
651.65	38.84
651.838	38.98
652.027	38.59
652.216	39.64
652.404	39.77
652.593	39.91
652.781	39.75
652.97	39.88
653.158	39.81
653.347	39.66
653.535	39.08
653.724	39.59
653.912	39.22
654.101	39.54
654.289	38.84
654.478	38.91
654.666	38.67
654.855	39.39
655.043	39.44
655.231	39.37
655.42	39.5
655.608	39.39
655.796	39.18
655.985	39.49
656.173	38.92
656.361	39.22
656.55	38.89
656.738	38.8
656.926	38.04
657.114	37.88
657.302	37.92
657.491	37.73
657.679	37.83
657.867	38.23
658.055	37.88
658.243	37.72
658.431	37.56
658.619	37.74
658.807	37.63
658.996	37.58
659.184	37.51
659.372	37.32
659.56	37.34
659.748	37.22
659.936	37.3
660.124	37.13
660.311	37.47
660.499	37.6
660.687	37.42
660.875	37.65
661.063	37.84
661.251	38.36
661.439	38.68
661.627	39.04
661.814	39.44
662.002	39.28
662.19	39.26
662.378	39.44
662.565	39.5
662.753	39.89
662.941	39.98
663.129	39.83
663.316	39.6
663.504	39.49
663.692	39.48
663.879	39.23
664.067	38.98
664.254	39.35
664.442	39.24
664.63	39.09
664.817	38.63
665.005	38.41
665.192	38.42
665.38	38.91
665.567	38.93
665.755	38.97
665.942	38.48
666.13	38.6
666.317	38.58
666.504	38.13
666.692	37.78
666.879	38.13
667.067	37.85
667.254	38.09
667.441	37.65
667.629	37.84
667.816	37.9
668.003	37.71
668.19	37.58
668.378	37.51
668.565	37.79
668.752	38.3
668.939	38.1
669.127	38.28
669.314	37.98
669.501	37.51
669.688	37.53
669.875	37.23
670.062	37.97
670.249	37.88
670.436	37.88
670.623	37.84
670.81	37.84
670.997	38.12
671.184	37.89
671.371	38.09
671.558	38.69
671.745	38.59
671.932	38.47
672.119	37.91
672.306	38.01
672.493	37.91
672.68	38.28
672.867	38.07
673.054	37.62
673.24	37.55
673.427	37.61
673.614	37.37
673.801	37.4
673.988	37.43
674.174	37.8
674.361	37.9
674.548	37.97
674.734	38.03
674.921	37.9
675.108	37.97
675.294	38.27
675.481	37.79
675.668	37.84
675.854	37.61
676.041	37.89
676.227	37.69
676.414	37.24
676.601	37.2
676.787	37.1
676.974	36.71
677.16	36.65
677.347	37.12
677.533	37.81
677.719	37.9
677.906	37.66
678.092	37.36
678.279	37.69
678.465	37.8
678.651	37.84
678.838	37.75
679.024	38.13
679.21	38.24
679.397	38.04
679.583	37.41
679.769	37.62
679.955	37.75
680.142	37.66
680.328	37.53
680.514	37.49
680.7	37.38
680.886	37.29
681.073	37.07
681.259	36.53
681.445	36
681.631	36.17
681.817	35.65
682.003	35.46
682.189	35.16
682.375	35.25
682.561	35.58
682.747	35.91
682.933	35.8
683.119	35.68
683.305	36.06
683.491	36.13
683.677	36.51
683.863	37.4
684.049	37.97
684.235	38.28
684.42	38.09
684.606	38.2
684.792	37.66
684.978	37.37
685.164	37.65
685.349	37.97
685.535	38.21
685.721	38.5
685.907	38.25
686.092	38.27
686.278	38.59
686.464	38.43
686.649	37.76
686.835	38.53
687.021	38.96
687.206	39.27
687.392	38.96
687.577	39.23
687.763	39.07
687.948	38.97
688.134	39
688.319	38.84
688.505	38.99
688.69	39.07
688.876	38.55
689.061	39.26
689.247	39.27
689.432	39.41
689.618	39.32
689.803	39.08
689.988	38.56
690.174	38.24
690.359	37.66
690.544	37.65
690.73	37.76
690.915	37.91
691.1	37.15
691.285	36.54
691.471	36.56
691.656	36.59
691.841	36.96
692.026	37.41
692.211	37.31
692.396	38.24
692.582	38.35
692.767	38.6
692.952	38.3
693.137	38.21
693.322	38.53
693.507	38.64
693.692	38.37
693.877	38.19
694.062	38.02
694.247	38.4
694.432	38.58
694.617	38.15
694.802	37.85
694.987	37.74
695.172	37.66
695.357	37.55
695.541	37.01
695.726	36.88
695.911	36.67
696.096	36.56
696.281	36.23
696.466	35.87
696.65	36.41
696.835	35.99
697.02	36.09
697.204	36.06
697.389	36.42
697.574	36.48
697.759	36.85
697.943	36.77
698.128	36.99
698.312	36.83
698.497	36.91
698.682	36.85
698.866	37.15
699.051	37.13
699.235	37.38
699.42	37.32
699.604	37.39
699.789	37.61
699.973	37.75
700.158	37.69
700.342	37.67
700.527	37.76
700.711	37.49
700.895	37.41
701.08	37.35
701.264	37.2
701.448	36.97
701.633	37.45
701.817	36.51
702.001	36.22
702.186	36.13
702.37	36.82
702.554	36.19
702.738	36.59
702.923	37.09
703.107	37.24
703.291	36.65
703.475	36.81
703.659	36.45
703.843	37.18
704.027	38.16
704.212	38.19
704.396	37.59
704.58	37.83
704.764	38.01
704.948	38.24
705.132	38.72
705.316	40.27
705.5	41.29
705.684	41.72
705.868	42.33
706.052	41.55
706.235	42.19
706.419	43.46
706.603	44.26
706.787	44.22
706.971	44.68
707.155	45.18
707.339	44.95
707.522	44.46
707.706	44.1
707.89	43.58
708.074	43.99
708.257	44.23
708.441	43.71
708.625	43.04
708.808	43.27
708.992	42.88
709.176	42.9
709.359	42.24
709.543	41.69
709.727	42.17
709.91	42.12
710.094	42.54
710.277	41.79
710.461	40.9
710.644	40.99
710.828	40.94
711.011	40.66
711.195	39.81
711.378	39.77
711.562	39.8
711.745	39.86
711.928	39.86
712.112	39.42
712.295	39.08
712.478	39.61
712.662	39.29
712.845	39.05
713.028	38.74
713.212	38.51
713.395	37.57
713.578	37.33
713.761	37.15
713.945	37.21
714.128	36.8
714.311	36.83
714.494	36.8
714.677	36.39
714.86	36.02
715.043	35.96
715.227	36.32
715.41	36.49
715.593	36.44
715.776	36
715.959	36.22
716.142	36.24
716.325	36.99
716.508	36.72
716.691	37.55
716.874	37.02
717.057	36.93
717.239	36.16
717.422	36.43
717.605	36.91
717.788	36.81
717.971	36.32
718.154	35.53
718.337	34.83
718.519	34.72
718.702	34.76
718.885	35.23
719.068	35.55
719.25	36.12
719.433	36
719.616	35.23
719.798	35.09
719.981	34.31
720.164	34.8
720.346	34.63
720.529	33.79
720.712	32.72
720.894	32.85
721.077	32.67
721.259	32.17
721.442	32.07
721.624	31.95
721.807	32.37
721.989	33.83
722.172	33.9
722.354	33.34
722.537	34.28
722.719	35.19
722.901	35.65
723.084	35.95
723.266	37.2
723.448	37.22
723.631	37.84
723.813	38.02
723.995	36.61
724.178	36.99
724.36	38.22
724.542	37.83
724.724	37.11
724.907	36.84
725.089	36.7
725.271	35.69
725.453	36.99
725.635	36.44
725.817	35.73
725.999	36.73
726.181	36.71
726.364	36.42
726.546	36.95
726.728	37
726.91	36.9
727.092	36.54
727.274	36.48
727.456	34.73
727.638	34.83
727.819	34.98
728.001	35.31
728.183	35.45
728.365	35.7
728.547	35.74
728.729	36.32
728.911	35.28
729.093	35.43
729.274	35.62
729.456	36.35
729.638	36.75
729.82	36.77
730.001	36.17
730.183	36.7
730.365	36.55
730.546	36.52
730.728	36.66
730.91	37.96
731.091	37.72
731.273	38.13
731.455	37.99
731.636	38.1
731.818	38.99
731.999	39.53
732.181	39.5
732.362	39.55
732.544	38.55
732.725	38.03
732.907	36.93
733.088	36.99
733.27	36.27
733.451	36.92
733.633	37.07
733.814	36.04
733.995	35.08
734.177	33.87
734.358	34.3
734.539	34.32
734.721	35.16
734.902	36.52
735.083	36.72
735.264	37.34
735.446	37.57
735.627	37.08
735.808	37.41
735.989	37.13
736.17	37.92
736.351	36.88
736.533	37.62
736.714	36.75
736.895	36.32
737.076	36.29
737.257	35.91
737.438	34.88
737.619	34.65
737.8	35.32
737.981	35.72
738.162	34.68
738.343	35.71
738.524	35.92
738.705	35.3
738.886	34.15
739.067	32.74
739.247	33.99
739.428	34.54
739.609	34.96
739.79	34.33
739.971	35.07
740.151	35.39
740.332	34.36
740.513	34.07
740.694	34.16
740.874	35.45
741.055	36.8
741.236	36.33
741.417	35.83
741.597	36.36
741.778	35.32
741.958	34.27
742.139	33.76
742.32	34.44
742.5	34.6
742.681	35.69
742.861	35.61
743.042	35.62
743.222	35.19
743.403	34.32
743.583	33.27
743.764	33.65
743.944	32.76
744.124	33.15
744.305	32.72
744.485	32.34
744.666	31.66
744.846	31.56
745.026	31.17
745.207	30.83
745.387	31.42
745.567	31.18
745.747	30.92
745.928	32.62
746.108	33.32
746.288	33.79
746.468	33.09
746.648	33.95
746.829	32.84
747.009	32.74
747.189	33.4
747.369	33.89
747.549	33.78
747.729	34.58
747.909	33.4
748.089	32.53
748.269	31.95
748.449	32.46
748.629	32.65
748.809	34.94
748.989	36.17
749.169	35.41
749.349	35.27
749.529	35.61
749.709	34.61
749.889	35.15
750.068	35.48
750.248	35.72
750.428	36.37
750.608	35.98
750.788	34.68
750.967	32.87
751.147	32.89
751.327	33.74
751.507	33.67
751.686	34.36
751.866	34.43
752.046	33.96
752.225	34.23
752.405	33.99
752.585	34.51
752.764	34.67
752.944	34.74
753.123	35.52
753.303	34.1
753.482	34.07
753.662	33.44
753.841	33.95
754.021	34.22
754.2	33.27
754.38	33.65
754.559	33.63
754.739	33.17
754.918	33.84
755.097	33.39
755.277	34.36
755.456	33.58
755.635	33.84
755.815	32.87
755.994	33.49
756.173	34.17
756.352	33.9
756.532	34
756.711	34.21
756.89	34.03
757.069	33.84
757.248	33.48
757.427	34.26
757.607	34.33
757.786	35.67
757.965	36.55
758.144	36.16
758.323	35.72
758.502	36.41
758.681	37.02
758.86	37.57
759.039	37.25
759.218	38.05
759.397	38.64
759.576	38.4
759.755	37.37
759.934	35.86
760.113	35.79
760.291	37.01
760.47	35.76
760.649	35.02
760.828	35.8
761.007	36.22
761.186	37.21
761.364	36.48
761.543	37.86
761.722	39.21
761.901	39.76
762.079	39.9
762.258	39.32
762.437	39.19
762.615	38.8
762.794	38.24
762.972	38.49
763.151	38.19
763.33	38.63
763.508	38.56
763.687	38.31
763.865	37.72
764.044	37.48
764.222	36.89
764.401	36.69
764.579	38.2
764.758	38.55
764.936	38.61
765.114	37.92
765.293	37.45
765.471	37.46
765.65	36.53
765.828	36.4
766.006	37.24
766.184	37.74
766.363	37.82
766.541	36.65
766.719	37.03
766.898	36.69
767.076	35
767.254	35.2
767.432	34.09
767.61	34.27
767.788	33.99
767.967	33.17
768.145	32.78
768.323	32.08
768.501	31.55
768.679	30.6
768.857	29.9
769.035	33.14
769.213	33.84
769.391	34.37
769.569	34.93
769.747	35.55
769.925	35.05
770.103	34.47
770.281	34.65
770.459	33.89
770.636	34.03
770.814	35.14
770.992	34.07
771.17	34.18
771.348	34.61
771.525	34.04
771.703	33.25
771.881	33.86
772.059	34.3
772.236	34.39
772.414	33.29
772.592	32.8
772.769	32.39
772.947	31.55
773.125	31.54
773.302	31.86
773.48	31.65
773.657	32.56
773.835	32.59
774.013	33.07
774.19	31.65
774.368	33.99
774.545	33.01
774.723	32.32
774.9	31.8
775.077	27.85
775.255	26.96
775.432	25.9
775.61	27.23
775.787	25.47
775.964	24.66
776.142	26.84
776.319	26.61
776.496	26.35
776.674	25.62
776.851	26.59
777.028	27.72
777.205	26.85
777.382	29.09
777.56	27.21
777.737	27.28
777.914	26.43
778.091	24.97
778.268	24.38
778.445	25.96
778.622	27.75
778.8	28.02
778.977	30.61
779.154	30.55
779.331	28.35
779.508	28.17
779.685	27.32
779.862	28.3
780.038	28.27
780.215	28.68
780.392	26.4
780.569	23.44
780.746	22.88
780.923	21.23
781.1	21.8
781.277	23.12
781.453	25.11
781.63	31.1
781.807	32.68
781.984	35.22
782.16	35.25
782.337	36.09
782.514	36.27
782.691	35.54
782.867	35.03
783.044	33.72
783.221	33.91
783.397	30.91
783.574	24.84
783.75	21.96
783.927	20.23
784.103	20.21
784.28	21.17
784.456	25.14
784.633	24.21
784.809	25.92
784.986	26.65
785.162	23.87
785.339	26.58
785.515	28.54
785.692	30.91
785.868	30.03
786.044	28.26
786.221	26.29
786.397	22.18
786.573	23.24
786.749	23.48
786.926	23.4
787.102	24.36
787.278	24.95
787.454	24.7
787.631	23.09
787.807	22.71
787.983	24.79
788.159	25.86
788.335	25.2
788.511	27.27
788.687	26.87
788.863	27.8
789.039	29.55
789.216	26.36
789.392	25.66
789.568	25.44
789.744	25.51
789.919	25.92
790.095	25.38
790.271	28.45
790.447	28.42
790.623	29.92
790.799	30.16
790.975	27.75
791.151	29.34
791.327	31.73
791.502	29.58
791.678	30.62
791.854	28.83
792.03	30.21
792.205	32.64
792.381	31.12
792.557	28.84
792.733	28.75
792.908	30.95
793.084	31.92
793.259	28.49
793.435	30.24
793.611	31.65
793.786	32.86
793.962	32
794.137	28.55
794.313	27.93
794.488	29.59
794.664	28.86
794.839	27.42
795.015	26.22
795.19	27.69
795.366	30.43
795.541	28.4
795.716	28.12
795.892	27.8
796.067	28.31
796.242	31.48
796.418	29.67
796.593	30.78
796.768	31.54
796.944	30.79
797.119	31.13
797.294	29.01
797.469	29.63
797.644	28.51
797.82	29.11
797.995	27.61
798.17	24.81
798.345	24.69
798.52	23.41
798.695	22.1
798.87	22.04
799.045	19.78
799.22	19.76
799.395	21.32
799.57	24.59
799.745	23.84
799.92	26.92
800.095	26.04
800.27	26
800.445	26.55
800.62	26.33
800.795	26.83
800.97	27.25
801.145	29.71
801.319	28.98
801.494	26.61
801.669	26.3
801.844	22.25
802.018	22.72
802.193	23.54
802.368	24.13
802.543	25.63
802.717	28.79
802.892	30.43
803.067	27.03
803.241	25.88
803.416	24.93
803.59	23.58
803.765	25.88
803.94	24.74
804.114	25.39
804.289	22.52
804.463	22.62
804.638	20.74
804.812	20.92
804.986	27.09
805.161	27.69
805.335	28.54
805.51	29.87
805.684	27.63
805.858	30.32
806.033	29.21
806.207	30.93
806.381	30.31
806.556	32.35
806.73	33.38
806.904	28.57
807.078	26.53
807.253	25.98
807.427	25.03
807.601	24.24
807.775	20.68
807.949	22.41
808.123	22.08
808.298	23.15
808.472	20.17
808.646	18.28
808.82	18.88
808.994	20.85
809.168	23.16
809.342	24.25
809.516	27.78
809.69	29.46
809.864	26.31
810.038	27.43
810.212	24.14
810.385	23.94
810.559	23.07
810.733	21.32
810.907	19.57
811.081	16.86
811.255	17.16
811.428	15.09
811.602	16.61
811.776	19.28
811.95	20.05
812.123	19.4
812.297	22.84
812.471	23.26
812.644	24.5
812.818	22.52
812.992	20.25
813.165	18.85
813.339	19.5
813.512	15.57
813.686	20.48
813.86	16.43
814.033	15.3
814.207	15.1
814.38	13.84
814.554	17.54
814.727	22.69
814.9	23.3
815.074	26.95
815.247	26.02
815.421	30.05
815.594	23.03
815.767	25.13
815.941	28.1
816.114	24.21
816.287	27.81
816.46	21.09
816.634	17.02
816.807	15.7
816.98	12.92
817.153	12.13
817.327	9.28
817.5	11.49
817.673	11.95
817.846	15.68
818.019	19.54
818.192	17.63
818.365	18.68
818.538	20.99
818.711	21.27
818.884	20.62
819.057	14.65
819.23	12.89
819.403	12.4
819.576	12.74
819.749	9.64
819.922	10.87
820.095	12.1
820.268	13.88
820.441	13.94
820.614	20.45
820.786	22.46
820.959	30.23
821.132	30.94
821.305	33.21
821.477	33.87
821.65	35.41
821.823	34.65
821.996	34.16
822.168	34.83
822.341	35.45
822.514	35.31
822.686	35.19
822.859	34.68
823.031	35.19
823.204	34.6
823.376	34.5
823.549	34.24
823.722	34.68
823.894	35.02
824.067	35.18
824.239	34.57
824.411	34.42
824.584	34.72
824.756	34.64
824.929	35.01
825.101	34.72
825.273	34.68
825.446	34.37
825.618	34.27
825.79	33.93
825.963	33.12
826.135	33.02
826.307	33.1
826.479	32.26
826.652	32.24
826.824	31.82
826.996	31.83
827.168	31.28
827.34	32.24
827.512	32.28
827.684	31.94
827.856	32.5
828.029	32.77
828.201	32.72
828.373	33.32
828.545	33.11
828.717	32.29
828.889	31.8
829.061	32.14
829.232	30.14
829.404	29.75
829.576	29.87
829.748	30.16
829.92	29.68
830.092	28.02
830.264	26.68
830.436	25.89
830.607	24.83
830.779	25.2
830.951	26.18
831.123	27.52
831.294	23.69
831.466	21.41
831.638	17.24
831.809	17.42
831.981	18.27
832.153	19.75
832.324	20.5
832.496	21.56
832.667	17.99
832.839	13.65
833.011	13.93
833.182	13.73
833.354	16.71
833.525	22.2
833.697	25.4
833.868	24.96
834.039	25.79
834.211	26.56
834.382	27.88
834.554	31.54
834.725	34.49
834.896	33.42
835.068	36.19
835.239	35.55
835.41	36.15
835.581	34.94
835.753	35.4
835.924	33.63
836.095	33.28
836.266	34.47
836.438	32.62
836.609	31.35
836.78	32.87
836.951	31.04
837.122	32.05
837.293	28.82
837.464	27.85
837.635	22.88
837.806	22.3
837.977	17.86
838.148	12.55
838.319	11.96
838.49	10.85
838.661	5.93
838.832	7.54
839.003	3.21
839.174	-4.54
839.345	-8.25
839.516	-8.81
839.687	-22.01
839.857	-4.13
840.028	1.55
840.199	6.84
840.37	4.44
840.54	15
840.711	15.59
840.882	16.36
841.053	19.85
841.223	20.59
841.394	26.72
841.564	29.78
841.735	21.82
841.906	17.8
842.076	13.3
842.247	15.45
842.417	10.28
842.588	7.92
842.758	2.77
842.929	2.39
843.099	-7.08
843.27	-13.18
843.44	-1.29
843.611	-4.56
843.781	-9.42
843.951	3.04
844.122	8.51
844.292	6.46
844.462	2.95
844.633	11.47
844.803	12.71
844.973	17.77
845.144	16.63
845.314	11.92
845.484	15.41
845.654	27.34
845.824	1.99
845.995	-20.39
846.165	-34.76
846.335	-28.16
846.505	-48.75
846.675	-51.1
846.845	-68.06
847.015	-70.15
847.185	-66.73
847.355	-71.72
847.525	-72.6
847.695	-81.85
847.865	-87.57
848.035	-87.42
848.205	-104.9
848.375	-89.77
848.545	-100.23
848.715	-79.34
848.884	-88.14
849.054	-125.36
849.224	-138.43
849.394	-163.7
849.564	-111.72
849.733	-59.22
849.903	-47.67
850.073	-47.85
850.243	-45.91
850.412	-41.88
850.582	-60.33
850.752	-91.07
850.921	-61.23
851.091	-60.73
851.26	-61.07
851.43	-76.46
851.599	-127.34
851.769	-132.59
851.939	-156.81
852.108	-219.82
852.278	-252.88
852.447	-206.11
852.616	-137.5
852.786	-132.42
852.955	-121.53
853.125	-148.32
853.294	-149.92
853.463	-144.43
853.633	-160.73
853.802	-149.34
853.971	-135.84
854.141	-126.6
854.31	-183.35
854.479	-264.79
854.648	-356.86
854.818	-351.99
854.987	-283.4
855.156	-307.22
855.325	-244.67
855.494	-280.98
855.663	-266.82
855.832	-320.64
856.001	-323.76
856.171	-264
856.34	-222.41
856.509	-217.75
856.678	-255.57
856.847	-207.76
857.016	-192.31
857.185	-179.99
857.353	-96.62
857.522	-108.67
857.691	-65.8
857.86	-82.31
858.029	-42.97
858.198	-51.91
858.367	-31.39
858.535	-40.43
858.704	-44.45
858.873	-20.19
859.042	-5.26
859.21	-18.55
859.379	-20.17
859.548	-33.47
859.717	-18.95
859.885	-28.69
860.054	-17.67
860.222	-37.33
860.391	-22.97
860.56	-25.07
860.728	-29.32
860.897	-23.22
861.065	-22.58
861.234	-24.33
861.402	-17.67
861.571	-20.82
861.739	-19.53
861.908	-19.81
862.076	-9.74
862.244	-6.37
862.413	-12.7
862.581	-35.28
862.749	-108.12
862.918	-148.24
863.086	-188.76
863.254	-284.31
863.423	-605.57
863.591	-434.22
863.759	-702.92
863.927	-946.77
864.096	-4061.36
864.264	974.93
864.432	1628.71
864.6	-2547.02
864.768	-743.42
864.936	-249.33
865.104	-83.79
865.272	-36.59
865.44	-95.71
865.608	-28.87
865.776	-109.21
865.944	-108.75
866.112	-48.89
866.28	-65.7
866.448	-86.6
866.616	-79.07
866.784	-92.25
866.952	-130.22
867.12	-110.14
867.288	-63.49
867.455	-72.2
867.623	-47.86
867.791	-41.37
867.959	-69.54
868.127	-48.58
868.294	-28.04
868.462	-49.78
868.63	-66.26
868.797	-116.72
868.965	-283.06
869.133	-348.04
869.3	-465.95
869.468	-241.82
869.636	-171.91
869.803	-236.89
869.971	-199.72
870.138	-169.38
870.306	-168.13
870.473	-157
870.641	-112.49
870.808	-87.86
870.975	-108.05
871.143	-62.66
871.31	-105.04
871.478	-220.73
871.645	-48.63
871.812	-77.54
871.98	-132.96
872.147	-189.21
872.314	-110.59
872.482	-144.2
872.649	-245.36
872.816	-125.13
872.983	-422.63
873.15	-187.13
873.318	-147.98
873.485	-267.14
873.652	-219.64
873.819	-87.79
873.986	-40.38
874.153	-46.58
874.32	-47.15
874.487	-43.23
874.654	-38.39
874.821	-15.94
874.988	-19.33
875.155	-7.71
875.322	-6.24
875.489	-16.62
875.656	-24.67
875.823	-45.84
875.99	-44.97
876.157	-33.6
876.324	-19.27
876.49	-15.29
876.657	-25.61
876.824	-19.12
876.991	-39.26
877.157	-46.99
877.324	-37.52
877.491	-24.92
877.658	-20.56
877.824	-32.29
877.991	-40.22
878.157	-66.09
878.324	-74.15
878.491	-50.51
878.657	-70.53
878.824	-79.12
878.99	-67.88
879.157	-83.74
879.323	-58.97
879.49	-36.74
879.656	-43.24
879.823	-23.42
879.989	-8.29
880.156	-30.85
880.322	-31.46
880.488	-15.06
880.655	-3.5
880.821	-22.04
880.987	-20.53
881.154	-27.4
881.32	-34.95
881.486	-11.76
881.652	-6.54
881.819	3.28
881.985	10.05
882.151	9.17
882.317	9.08
882.483	11.01
882.649	14.36
882.816	12.92
882.982	15.37
883.148	18.31
883.314	19.1
883.48	19.16
883.646	19.96
883.812	20.6
883.978	20.56
884.144	21.16
884.31	21.04
884.476	22.22
884.642	25.16
884.807	25.13
884.973	26.24
885.139	27.56
885.305	28.04
885.471	28.6
885.637	30.42
885.802	31.59
885.968	31.31
886.134	32.17
886.3	31.1
886.465	29.84
886.631	28.8
886.797	28
886.962	26.33
887.128	23.81
887.293	19.1
887.459	14.82
887.625	8.88
887.79	12.12
887.956	13.33
888.121	9.82
888.287	3.88
888.452	6.26
888.618	-3.35
888.783	-26.33
