Data from CB_116_Reflection_2.txt Node
Date: Sat Nov 14 19:06:52 EST 2015
User: robert
Spectrometer: USB4E03001
Autoset integration time: false
Trigger mode: 4
Integration Time (sec): 1.000000E-1
Scans to average: 15
Electric dark correction enabled: true
Nonlinearity correction enabled: false
Boxcar width: 5
Stray light correction enabled: false
XAxis mode: Wavelengths
Stop averaging: false
Number of Pixels in Spectrum: 3648
>>>>>Begin Spectral Data<<<<<
177.566	96.97
177.785	90.76
178.005	110.97
178.225	140.87
178.445	196.13
178.665	247.84
178.885	-31.68
179.105	223.21
179.324	209.43
179.544	9345.61
179.764	138.39
179.984	118.3
180.204	124.6
180.423	136.13
180.643	193.3
180.863	131.22
181.083	181.9
181.302	86.52
181.522	317.36
181.742	289.06
181.961	79.39
182.181	159.66
182.401	60.92
182.621	55.49
182.84	98.74
183.06	94.45
183.279	-463.1
183.499	-176.91
183.719	-39.71
183.938	-74.01
184.158	-52.71
184.377	-133.94
184.597	-65.96
184.816	-32.05
185.036	-20.37
185.256	-31.47
185.475	8.23
185.695	-15.33
185.914	-46.24
186.134	-101.27
186.353	-80.91
186.572	-62.47
186.792	7.03
187.011	-0.93
187.231	-39.26
187.45	-61.85
187.67	-147.05
187.889	-322.59
188.108	-289.41
188.328	-240.86
188.547	-99.32
188.766	-392.45
188.986	648.6
189.205	216.95
189.424	173.56
189.644	421.08
189.863	283.47
190.082	201.58
190.302	130.38
190.521	156.61
190.74	102.55
190.959	105.59
191.178	93.55
191.398	84.99
191.617	14.37
191.836	13.47
192.055	43.04
192.274	32.89
192.494	50.07
192.713	-29.61
192.932	-99.82
193.151	84.11
193.37	21.98
193.589	-1.27
193.808	-36.48
194.027	-72.72
194.246	-81.41
194.465	-14.4
194.685	-63.95
194.904	-182.38
195.123	-68.9
195.342	-114.89
195.561	-139.74
195.78	-140.51
195.999	-117.7
196.218	-34.52
196.436	22.04
196.655	23.11
196.874	6.73
197.093	65.6
197.312	351.67
197.531	17.91
197.75	-7.84
197.969	9.28
198.188	-65.39
198.407	-107.12
198.625	-102.55
198.844	-5.69
199.063	11.09
199.282	7.77
199.501	-9.71
199.719	-215.42
199.938	-17.34
200.157	-16.91
200.376	16.48
200.594	-33.76
200.813	-1.56
201.032	-1.93
201.251	5.38
201.469	54.18
201.688	28.12
201.907	15.24
202.125	32.15
202.344	51.53
202.563	67.51
202.781	76.99
203	61.62
203.218	85.68
203.437	74.08
203.656	174.76
203.874	163.98
204.093	246.37
204.311	-51.31
204.53	32.03
204.748	26.12
204.967	48.19
205.185	98.39
205.404	48.14
205.622	86.06
205.841	-24.37
206.059	47.68
206.278	-42.48
206.496	3.8
206.715	-42.47
206.933	-177.2
207.151	-95.78
207.37	-167.78
207.588	-291.97
207.806	-64.28
208.025	-77.81
208.243	37.11
208.461	2.51
208.68	80.87
208.898	-149.04
209.116	-1341.37
209.335	259.34
209.553	630.43
209.771	682.7
209.989	1264.64
210.208	369.82
210.426	377.09
210.644	390.1
210.862	185.34
211.081	452.47
211.299	290.42
211.517	1277.38
211.735	-367.65
211.953	-2036.94
212.171	302.44
212.39	210.3
212.608	-17.48
212.826	-17.15
213.044	-575.47
213.262	9329.55
213.48	-289.46
213.698	-751.06
213.916	368.92
214.134	153.43
214.352	124.31
214.57	214.18
214.788	1722.33
215.006	3345.4
215.224	-4783.33
215.442	269.16
215.66	408
215.878	-345.47
216.096	-97.66
216.314	-20.45
216.532	-6.65
216.75	-57.22
216.968	-51.49
217.185	-66.43
217.403	-175.17
217.621	-70.71
217.839	-71.21
218.057	-67.03
218.275	-526.13
218.492	821.02
218.71	1015.12
218.928	-5086.09
219.146	-354.1
219.363	-132.82
219.581	-50.96
219.799	-40.99
220.017	-104.92
220.234	-79.54
220.452	-100.81
220.67	-57.73
220.887	-212.48
221.105	-92.72
221.323	-252.09
221.54	-110.81
221.758	-488.12
221.976	979.02
222.193	565.94
222.411	255.69
222.629	-2233.47
222.846	-1035.84
223.064	1115.13
223.281	-96.85
223.499	462.15
223.716	-136.15
223.934	202.28
224.151	874.72
224.369	-23.16
224.586	-8.84
224.804	-44.52
225.021	-65.26
225.239	-75.5
225.456	-97.92
225.674	-60.2
225.891	-57.04
226.108	-81.6
226.326	-41.72
226.543	-23.7
226.76	-17.89
226.978	0.16
227.195	15.71
227.413	7.62
227.63	13.56
227.847	14.9
228.064	17.28
228.282	20.7
228.499	18.89
228.716	19.43
228.934	19.34
229.151	18.83
229.368	14.15
229.585	12.44
229.802	16.25
230.02	13.05
230.237	12
230.454	10.71
230.671	12.39
230.888	12.7
231.105	10.43
231.323	8.77
231.54	8.87
231.757	8.28
231.974	4.49
232.191	-1.44
232.408	-2.6
232.625	-5.43
232.842	-2.17
233.059	-9.87
233.276	-4.18
233.493	-1.9
233.71	3.66
233.927	-0.17
234.144	6.67
234.361	10.37
234.578	6.64
234.795	6
235.012	8.11
235.229	5.92
235.446	5.84
235.663	4.31
235.879	8.57
236.096	-2
236.313	-4.82
236.53	-11.9
236.747	-18.89
236.964	-13.08
237.181	-10.25
237.397	-3.87
237.614	-5.72
237.831	-2.49
238.048	-4.5
238.264	-10.72
238.481	-6.44
238.698	2.46
238.915	4.29
239.131	12.57
239.348	11.64
239.565	16.94
239.781	11.93
239.998	11.42
240.215	12.74
240.431	13.49
240.648	17.25
240.865	16.91
241.081	15.89
241.298	17.8
241.514	14.24
241.731	14.67
241.947	11.86
242.164	10.75
242.38	11.88
242.597	9.65
242.814	9.92
243.03	9.62
243.246	7.91
243.463	7.59
243.679	6.94
243.896	7.75
244.112	6.42
244.329	7.88
244.545	9.94
244.762	10
244.978	8.61
245.194	9.13
245.411	9.06
245.627	10.8
245.843	11.41
246.06	12.25
246.276	12.52
246.492	12.12
246.709	11.36
246.925	11.34
247.141	11.49
247.357	12.18
247.574	11.41
247.79	10.65
248.006	10.24
248.222	9.69
248.439	8.2
248.655	8.04
248.871	8.29
249.087	7.85
249.303	7.57
249.519	6.94
249.736	6.43
249.952	6.06
250.168	6.19
250.384	7.85
250.6	8.86
250.816	9.36
251.032	7.98
251.248	7.61
251.464	9.44
251.68	10.21
251.896	10.52
252.112	9.21
252.328	9.38
252.544	10.91
252.76	10.29
252.976	10.2
253.192	12.07
253.408	12.34
253.624	9.79
253.84	6.55
254.056	4.22
254.272	3.45
254.487	4.57
254.703	7.27
254.919	6.67
255.135	4.34
255.351	4.14
255.567	3.94
255.782	6.22
255.998	8.58
256.214	10.84
256.43	10.88
256.646	9.57
256.861	10.09
257.077	9.98
257.293	6.55
257.508	7.31
257.724	4.54
257.94	3.33
258.155	1.92
258.371	3.56
258.587	3.84
258.802	3.7
259.018	2.51
259.234	2.98
259.449	2.62
259.665	3.78
259.88	4.07
260.096	5.33
260.312	5.28
260.527	5.37
260.743	5.92
260.958	5.99
261.174	6.62
261.389	8.01
261.605	8.1
261.82	7.21
262.036	6.55
262.251	7.07
262.466	5.79
262.682	6.54
262.897	7.13
263.113	6.45
263.328	5.58
263.543	6.32
263.759	6.51
263.974	5.33
264.189	7.58
264.405	10.99
264.62	7.96
264.835	9.86
265.051	10.83
265.266	10.4
265.481	10.16
265.696	11.07
265.912	9.28
266.127	9.73
266.342	8.17
266.557	7.84
266.773	5.23
266.988	6.59
267.203	7.18
267.418	6.77
267.633	6.16
267.848	5.53
268.064	6.23
268.279	6.02
268.494	5.82
268.709	6.02
268.924	4.9
269.139	5.5
269.354	6.77
269.569	5.92
269.784	5.38
269.999	5.38
270.214	4.74
270.429	6.11
270.644	6.73
270.859	6
271.074	7.79
271.289	9.57
271.504	10.31
271.719	9.65
271.934	9.42
272.149	9.01
272.363	10.4
272.578	11.22
272.793	9.69
273.008	8.89
273.223	10.02
273.438	10.06
273.653	9.09
273.867	7.74
274.082	7.42
274.297	6.68
274.512	7.46
274.726	5.93
274.941	5.3
275.156	5.62
275.371	7.31
275.585	5.9
275.8	5.9
276.015	5.73
276.229	8.13
276.444	8.05
276.659	8.53
276.873	7.72
277.088	7.45
277.302	8.54
277.517	8.08
277.732	6.55
277.946	5.6
278.161	5.97
278.375	6.12
278.59	4.69
278.804	3.63
279.019	3.52
279.233	2.61
279.448	3.92
279.662	2.46
279.877	2.5
280.091	5.86
280.306	6.19
280.52	5.17
280.735	6.98
280.949	7.14
281.163	8.87
281.378	8.21
281.592	8.14
281.806	7.01
282.021	7.55
282.235	7.02
282.449	4.38
282.664	6.2
282.878	4.55
283.092	4.03
283.307	3.84
283.521	3.23
283.735	3.4
283.949	4.43
284.164	6.07
284.378	5.46
284.592	5.63
284.806	6.15
285.02	4.88
285.234	8.05
285.449	7.81
285.663	7.72
285.877	7.22
286.091	8.56
286.305	8.4
286.519	8.2
286.733	9.06
286.947	10.52
287.161	10.44
287.375	10.42
287.589	8.87
287.803	9.16
288.017	9.5
288.231	9.34
288.445	8.54
288.659	8.59
288.873	7.76
289.087	7.18
289.301	5.57
289.515	6.41
289.729	6.49
289.943	6.22
290.157	6.04
290.371	6.1
290.584	7.74
290.798	8.48
291.012	9.74
291.226	9.51
291.44	10.76
291.654	10.19
291.867	10.13
292.081	11.09
292.295	12.82
292.509	12.94
292.722	12.81
292.936	10.36
293.15	9.46
293.364	7.79
293.577	8.55
293.791	7
294.005	8.82
294.218	8.57
294.432	8.16
294.645	7.46
294.859	8.32
295.073	8.14
295.286	9.85
295.5	10.16
295.713	10.71
295.927	9.88
296.14	10.75
296.354	9.92
296.568	9.86
296.781	9.49
296.994	9.4
297.208	8.24
297.421	8.17
297.635	7.69
297.848	7.8
298.062	7.58
298.275	8.08
298.489	8.06
298.702	8.26
298.915	7.77
299.129	7.33
299.342	7.7
299.555	7.83
299.769	8.11
299.982	9.18
300.195	9.02
300.409	9.12
300.622	8.62
300.835	7.79
301.048	8.49
301.262	9.03
301.475	10.47
301.688	9.44
301.901	8.95
302.115	9.47
302.328	8.5
302.541	6.79
302.754	5.71
302.967	6.01
303.18	6.96
303.393	5.19
303.607	4.42
303.82	4.11
304.033	4.29
304.246	5.56
304.459	3.99
304.672	2.92
304.885	5.32
305.098	6.6
305.311	7.51
305.524	7.54
305.737	8.69
305.95	9.6
306.163	9.45
306.376	9.53
306.589	9.09
306.802	9.78
307.015	10.47
307.228	8.51
307.44	7.75
307.653	5.79
307.866	4.85
308.079	4.28
308.292	5.45
308.505	5.84
308.718	6.27
308.93	5.88
309.143	6.05
309.356	6.92
309.569	7.44
309.781	7.43
309.994	7.9
310.207	8.24
310.42	8.91
310.632	7.71
310.845	7.92
311.058	7.96
311.27	8.53
311.483	8.45
311.696	7.67
311.908	7.02
312.121	7.84
312.333	9
312.546	8.7
312.759	8.53
312.971	8.66
313.184	7.85
313.396	7.04
313.609	7.19
313.821	7.62
314.034	7.33
314.246	8.05
314.459	7.3
314.671	6.59
314.884	6.69
315.096	6.23
315.309	6.91
315.521	7.2
315.733	7.02
315.946	6.73
316.158	6.77
316.371	7.36
316.583	9.19
316.795	10.12
317.008	9.4
317.22	8.78
317.432	9.8
317.644	9.64
317.857	10.29
318.069	11.06
318.281	11.57
318.494	12.45
318.706	13.32
318.918	12.5
319.13	12.23
319.342	13.44
319.555	15.3
319.767	14.51
319.979	12.85
320.191	13.48
320.403	12.74
320.615	11.48
320.827	9.79
321.039	9.38
321.252	8.87
321.464	9.12
321.676	8.7
321.888	8.62
322.1	9.73
322.312	11.74
322.524	11.49
322.736	14.13
322.948	14.88
323.16	16.09
323.372	16.47
323.584	16.84
323.796	17.41
324.007	18.17
324.219	17.2
324.431	16.81
324.643	16
324.855	16.48
325.067	14.85
325.279	15.17
325.491	14.35
325.702	15
325.914	15.16
326.126	13.87
326.338	13.32
326.55	13.9
326.761	13.7
326.973	14.42
327.185	13.97
327.396	14.98
327.608	14.76
327.82	15.39
328.032	15.4
328.243	15.75
328.455	15.97
328.666	16.57
328.878	17.61
329.09	18.64
329.301	18.74
329.513	19.15
329.725	19.18
329.936	20.91
330.148	21.49
330.359	21.96
330.571	22.1
330.782	23.88
330.994	24.31
331.205	23.94
331.417	23.81
331.628	24.75
331.84	23.76
332.051	24.01
332.262	22.04
332.474	22.11
332.685	22.09
332.897	23.12
333.108	22.77
333.319	22.57
333.531	21.58
333.742	21.44
333.953	20.59
334.165	23.05
334.376	22.77
334.587	23.19
334.799	23.73
335.01	22.99
335.221	21.89
335.432	21.99
335.644	21.71
335.855	22.59
336.066	22.28
336.277	22.66
336.488	21.71
336.7	22.28
336.911	23.21
337.122	22.36
337.333	22.95
337.544	23.42
337.755	22.07
337.966	22.31
338.177	22.9
338.388	23.43
338.599	24.34
338.811	24.03
339.022	23.37
339.233	22.28
339.444	23.18
339.655	22.07
339.866	22.78
340.076	23.61
340.287	23.66
340.498	22.8
340.709	22.03
340.92	21.69
341.131	22.16
341.342	23.01
341.553	23.53
341.764	23.82
341.975	24.36
342.185	23.94
342.396	24.08
342.607	24.35
342.818	24.95
343.029	25.58
343.239	25.54
343.45	25.72
343.661	24.86
343.872	24.69
344.082	24.27
344.293	24.04
344.504	23.54
344.714	23.38
344.925	23.52
345.136	23.27
345.346	23.89
345.557	23.04
345.768	22.68
345.978	23.15
346.189	23.41
346.399	23.55
346.61	23.64
346.821	24.12
347.031	24.53
347.242	24.6
347.452	25.49
347.663	24.81
347.873	24.75
348.084	24.81
348.294	24.15
348.504	23.78
348.715	22.82
348.925	23.1
349.136	22.72
349.346	22.91
349.557	22.46
349.767	21.51
349.977	22.04
350.188	22.67
350.398	22.85
350.608	24.09
350.819	24.64
351.029	25.39
351.239	25.56
351.449	25.39
351.66	25.25
351.87	25.7
352.08	25.23
352.29	24.91
352.501	24.56
352.711	24.3
352.921	23.37
353.131	22.99
353.341	22.35
353.552	22.25
353.762	23.07
353.972	22.44
354.182	21.52
354.392	21.95
354.602	21.87
354.812	21.69
355.022	21.16
355.232	21.53
355.442	21.15
355.652	21.2
355.862	21.31
356.072	21.45
356.282	21.89
356.492	22.73
356.702	22.83
356.912	22.87
357.122	23.14
357.332	23.56
357.542	22.95
357.752	23.82
357.962	24.4
358.171	25.02
358.381	24.5
358.591	23.84
358.801	23.52
359.011	23.83
359.221	23.57
359.43	23.96
359.64	24.33
359.85	24.45
360.06	23.82
360.269	24.08
360.479	23.29
360.689	23.22
360.899	22.96
361.108	23.04
361.318	22.7
361.528	22.12
361.737	22.17
361.947	22.09
362.156	22.32
362.366	22.4
362.576	21.63
362.785	21.89
362.995	22.11
363.204	22.71
363.414	23.08
363.623	23.32
363.833	23.94
364.042	23.21
364.252	22.6
364.461	21.77
364.671	21.41
364.88	22.07
365.09	21.54
365.299	21.57
365.509	21.38
365.718	21.15
365.927	21.19
366.137	21.13
366.346	22.18
366.555	22.64
366.765	23.39
366.974	23.6
367.183	23.12
367.393	23.26
367.602	22.98
367.811	22.95
368.021	21.41
368.23	20.64
368.439	20.62
368.648	19.85
368.857	19.45
369.067	19.47
369.276	19.36
369.485	19.67
369.694	19.46
369.903	19.52
370.112	19.24
370.321	20.04
370.531	20.59
370.74	20.13
370.949	20.46
371.158	20.77
371.367	20.64
371.576	20.55
371.785	20.12
371.994	20.3
372.203	19.86
372.412	19.5
372.621	20.2
372.83	20.21
373.039	20.76
373.248	20.32
373.457	19.72
373.666	19.65
373.874	19.41
374.083	19.72
374.292	20.2
374.501	20.4
374.71	20.91
374.919	20.23
375.128	20.27
375.336	19.9
375.545	19.86
375.754	19.73
375.963	19.16
376.171	18.91
376.38	18.75
376.589	18.25
376.798	18.6
377.006	18.75
377.215	18.08
377.424	17.64
377.632	18.31
377.841	18.37
378.05	18.64
378.258	19.18
378.467	19.65
378.675	19.11
378.884	19.16
379.093	19.17
379.301	19.26
379.51	20.19
379.718	20.38
379.927	20.42
380.135	20.12
380.344	19.98
380.552	20.08
380.761	19.98
380.969	20.71
381.177	20.69
381.386	20.58
381.594	20.51
381.803	20.53
382.011	19.98
382.219	19.22
382.428	19.27
382.636	19.58
382.845	19.45
383.053	19.63
383.261	19.45
383.469	19.9
383.678	19.81
383.886	19.68
384.094	19.31
384.302	19.71
384.511	19.91
384.719	20.23
384.927	20.18
385.135	19.99
385.343	19.81
385.552	19.79
385.76	19.37
385.968	18.91
386.176	18.67
386.384	18.98
386.592	18.9
386.8	18.91
387.008	18.12
387.216	17.8
387.424	17.76
387.633	17.54
387.841	17.11
388.049	16.91
388.257	16.71
388.465	17.24
388.672	16.87
388.88	16.68
389.088	16.5
389.296	16.73
389.504	16.47
389.712	16.42
389.92	16.83
390.128	17.18
390.336	17.19
390.544	17.9
390.751	17.5
390.959	17.41
391.167	17.2
391.375	17.1
391.583	17.53
391.79	17.52
391.998	17.75
392.206	17.84
392.414	17.81
392.621	17.85
392.829	17.28
393.037	17.13
393.244	17.33
393.452	17.59
393.66	17.63
393.867	17.45
394.075	17.89
394.283	17.33
394.49	16.98
394.698	16.7
394.905	16.73
395.113	16.78
395.32	16.66
395.528	16.78
395.735	16.64
395.943	16.45
396.15	16.4
396.358	16.31
396.565	16.65
396.773	16.69
396.98	16.95
397.188	16.79
397.395	16.88
397.602	17.07
397.81	16.77
398.017	16.99
398.225	17.09
398.432	17.48
398.639	17.55
398.847	17.34
399.054	17.14
399.261	16.92
399.468	17.27
399.676	17.39
399.883	17.41
400.09	17.33
400.297	17.33
400.505	17.49
400.712	17.42
400.919	17.11
401.126	17.55
401.333	17.65
401.54	17.94
401.748	17.55
401.955	17.45
402.162	17.53
402.369	17.77
402.576	18.1
402.783	18.29
402.99	18.33
403.197	18.54
403.404	18.34
403.611	18.49
403.818	18.33
404.025	18.57
404.232	18.57
404.439	18.59
404.646	18.66
404.853	18.39
405.06	18.23
405.267	17.83
405.474	17.44
405.681	17.69
405.887	17.79
406.094	17.98
406.301	18.12
406.508	18.29
406.715	18.53
406.922	18.35
407.128	18.67
407.335	18.9
407.542	19.31
407.749	19.52
407.955	19.34
408.162	19.07
408.369	19.17
408.575	19.12
408.782	19.15
408.989	19.08
409.195	19.41
409.402	19.32
409.609	19.18
409.815	19.3
410.022	19.38
410.228	19.33
410.435	19.44
410.642	19.25
410.848	19.19
411.055	19.07
411.261	19.27
411.468	19.2
411.674	18.97
411.881	19.41
412.087	19.46
412.294	19.6
412.5	19.85
412.706	20.14
412.913	20.33
413.119	20.6
413.326	20.89
413.532	20.74
413.738	20.49
413.945	20.69
414.151	20.22
414.357	19.9
414.564	20.22
414.77	20.2
414.976	19.9
415.182	19.76
415.389	19.47
415.595	19.42
415.801	19.37
416.007	19.75
416.214	19.68
416.42	19.79
416.626	20.03
416.832	19.97
417.038	19.85
417.244	20.12
417.45	20.29
417.657	20.52
417.863	20.67
418.069	20.91
418.275	20.8
418.481	20.89
418.687	20.85
418.893	20.92
419.099	20.93
419.305	20.98
419.511	21.03
419.717	21.02
419.923	21.03
420.129	20.83
420.335	20.71
420.541	20.87
420.746	20.88
420.952	20.98
421.158	21.02
421.364	20.91
421.57	20.96
421.776	20.93
421.982	21.08
422.187	21.11
422.393	21.32
422.599	21.25
422.805	21.17
423.01	21.16
423.216	21.19
423.422	21.14
423.628	21.2
423.833	21.23
424.039	21.32
424.245	21.03
424.45	21.04
424.656	21.07
424.862	21.22
425.067	21.29
425.273	21.41
425.478	21.4
425.684	21.27
425.889	21.29
426.095	21.11
426.301	21.05
426.506	21.22
426.712	21.05
426.917	20.94
427.123	20.82
427.328	20.59
427.533	20.6
427.739	20.42
427.944	20.58
428.15	20.57
428.355	20.92
428.561	20.95
428.766	21
428.971	21.15
429.177	21.08
429.382	21.12
429.587	21.29
429.793	21.03
429.998	21.38
430.203	21.44
430.408	21.53
430.614	21.31
430.819	21.11
431.024	21.1
431.229	21.09
431.434	21.38
431.64	21.54
431.845	21.53
432.05	21.56
432.255	21.42
432.46	21.48
432.665	21.43
432.87	21.53
433.076	21.64
433.281	21.47
433.486	21.59
433.691	21.34
433.896	21.21
434.101	21.28
434.306	21.35
434.511	21.43
434.716	21.34
434.921	21.34
435.126	21.44
435.331	21.39
435.535	21.57
435.74	21.55
435.945	21.81
436.15	22.01
436.355	22.09
436.56	22.01
436.765	21.94
436.97	22.09
437.174	22.22
437.379	22.27
437.584	22.35
437.789	22.37
437.993	22.45
438.198	22.27
438.403	22.01
438.608	21.99
438.812	22.01
439.017	22.04
439.222	21.86
439.426	21.75
439.631	21.57
439.836	21.54
440.04	21.59
440.245	21.68
440.45	21.73
440.654	22.05
440.859	21.91
441.063	21.98
441.268	22.05
441.472	22.13
441.677	22.2
441.881	22.33
442.086	22.37
442.29	22.39
442.495	22.16
442.699	22.13
442.904	21.93
443.108	22.11
443.312	22.23
443.517	22.23
443.721	22.17
443.925	22.07
444.13	22.06
444.334	22.22
444.538	22.13
444.743	22.21
444.947	22.26
445.151	22.27
445.356	22.23
445.56	22.06
445.764	22.07
445.968	22.19
446.173	22.13
446.377	21.98
446.581	21.94
446.785	21.94
446.989	21.87
447.193	21.91
447.398	21.73
447.602	21.69
447.806	21.84
448.01	21.67
448.214	21.74
448.418	21.66
448.622	21.75
448.826	21.81
449.03	21.94
449.234	21.86
449.438	21.67
449.642	21.93
449.846	21.97
450.05	21.68
450.254	21.7
450.458	21.4
450.662	21.48
450.866	21.46
451.069	21.21
451.273	20.94
451.477	21.1
451.681	21.06
451.885	20.8
452.089	20.67
452.292	20.78
452.496	20.89
452.7	20.87
452.904	21.12
453.107	21.14
453.311	21.02
453.515	21.01
453.719	20.99
453.922	21.18
454.126	21.19
454.33	21.17
454.533	21.2
454.737	21.28
454.94	21.23
455.144	20.94
455.348	21.08
455.551	21.25
455.755	21.31
455.958	21.38
456.162	21.16
456.365	21.23
456.569	21.24
456.772	21.18
456.976	20.91
457.179	20.99
457.383	21.08
457.586	20.91
457.79	20.93
457.993	21.02
458.196	20.92
458.4	21.05
458.603	21.13
458.807	21.09
459.01	21.19
459.213	21.29
459.417	21.25
459.62	21.23
459.823	21.24
460.026	21.3
460.23	21.19
460.433	21.15
460.636	21.17
460.839	21.09
461.042	21.08
461.246	20.99
461.449	20.88
461.652	20.93
461.855	21.04
462.058	21.12
462.261	21.01
462.464	21.15
462.668	21.3
462.871	21.35
463.074	21.47
463.277	21.51
463.48	21.69
463.683	22.03
463.886	21.98
464.089	21.93
464.292	21.97
464.495	22.26
464.698	22.29
464.901	22.29
465.104	22.36
465.306	22.22
465.509	22.41
465.712	22.35
465.915	22.26
466.118	22.43
466.321	22.44
466.524	22.35
466.726	22.27
466.929	22.32
467.132	22.49
467.335	22.46
467.538	22.76
467.74	22.77
467.943	22.74
468.146	22.94
468.348	22.8
468.551	22.76
468.754	22.96
468.956	22.85
469.159	22.73
469.362	22.64
469.564	22.51
469.767	22.49
469.969	22.58
470.172	22.6
470.375	22.42
470.577	22.51
470.78	22.58
470.982	22.49
471.185	22.6
471.387	22.94
471.59	23
471.792	23.16
471.995	23.06
472.197	23.09
472.399	23.22
472.602	23.36
472.804	23.38
473.007	23.46
473.209	23.53
473.411	23.43
473.614	23.38
473.816	23.1
474.018	23.17
474.22	23.4
474.423	23.35
474.625	23.48
474.827	23.52
475.03	23.5
475.232	23.41
475.434	23.42
475.636	23.47
475.838	23.38
476.04	23.56
476.243	23.65
476.445	23.51
476.647	23.62
476.849	23.42
477.051	23.47
477.253	23.53
477.455	23.67
477.657	23.61
477.859	23.79
478.061	23.77
478.263	23.69
478.465	23.64
478.667	23.73
478.869	23.59
479.071	23.72
479.273	23.55
479.475	23.6
479.677	23.55
479.879	23.51
480.081	23.38
480.283	23.45
480.485	23.61
480.686	23.61
480.888	23.63
481.09	23.61
481.292	23.57
481.494	23.53
481.695	23.51
481.897	23.61
482.099	23.66
482.301	23.67
482.502	23.65
482.704	23.58
482.906	23.53
483.107	23.57
483.309	23.58
483.511	23.53
483.712	23.57
483.914	23.54
484.115	23.46
484.317	23.45
484.519	23.49
484.72	23.48
484.922	23.45
485.123	23.44
485.325	23.35
485.526	23.34
485.728	23.41
485.929	23.43
486.131	23.47
486.332	23.54
486.534	23.57
486.735	23.53
486.936	23.51
487.138	23.59
487.339	23.68
487.541	23.72
487.742	23.78
487.943	23.78
488.144	23.75
488.346	23.81
488.547	23.84
488.748	23.87
488.95	23.9
489.151	23.97
489.352	24.02
489.553	24.06
489.755	24.11
489.956	24.17
490.157	24.24
490.358	24.31
490.559	24.37
490.76	24.42
490.961	24.51
491.163	24.58
491.364	24.63
491.565	24.68
491.766	24.74
491.967	24.73
492.168	24.71
492.369	24.7
492.57	24.76
492.771	24.72
492.972	24.74
493.173	24.8
493.374	24.83
493.575	24.99
493.776	24.97
493.976	24.95
494.177	25.13
494.378	25.28
494.579	25.48
494.78	25.57
494.981	25.8
495.182	25.91
495.382	26.02
495.583	26.1
495.784	26.06
495.985	26.14
496.185	26.11
496.386	26.09
496.587	26.15
496.788	26.21
496.988	26.26
497.189	26.32
497.39	26.43
497.59	26.51
497.791	26.5
497.992	26.61
498.192	26.86
498.393	26.97
498.593	27.13
498.794	27.26
498.994	27.33
499.195	27.4
499.395	27.36
499.596	27.46
499.796	27.66
499.997	27.93
500.197	27.98
500.398	28.01
500.598	28.39
500.799	28.55
500.999	28.61
501.199	28.77
501.4	28.92
501.6	29.22
501.801	29.41
502.001	29.33
502.201	29.25
502.402	29.47
502.602	29.63
502.802	29.54
503.002	29.6
503.203	29.8
503.403	29.91
503.603	30.17
503.803	30.27
504.003	30.32
504.204	30.39
504.404	30.68
504.604	30.71
504.804	30.77
505.004	30.88
505.204	31.19
505.404	31.27
505.604	31.4
505.804	31.42
506.005	31.69
506.205	31.99
506.405	32.11
506.605	32.33
506.805	32.7
507.005	32.89
507.204	33.13
507.404	33.16
507.604	33.34
507.804	33.42
508.004	33.7
508.204	33.68
508.404	33.61
508.604	33.82
508.804	33.95
509.003	34.04
509.203	34.13
509.403	34.2
509.603	34.25
509.803	34.34
510.002	34.53
510.202	34.67
510.402	34.92
510.602	35.22
510.801	35.41
511.001	35.41
511.201	35.52
511.4	35.66
511.6	35.73
511.8	35.96
511.999	36.08
512.199	36.29
512.398	36.45
512.598	36.54
512.797	36.5
512.997	36.54
513.197	36.78
513.396	36.77
513.596	37.02
513.795	37.22
513.994	37.23
514.194	37.47
514.393	37.54
514.593	37.58
514.792	37.61
514.992	37.9
515.191	38.12
515.39	38.05
515.59	38.35
515.789	38.32
515.988	38.47
516.188	38.63
516.387	38.64
516.586	38.75
516.786	38.84
516.985	39.03
517.184	39.14
517.383	39.27
517.582	39.49
517.782	39.49
517.981	39.72
518.18	39.91
518.379	40.05
518.578	40.14
518.777	40.38
518.976	40.42
519.176	40.46
519.375	40.46
519.574	40.45
519.773	40.52
519.972	40.58
520.171	40.65
520.37	40.64
520.569	40.6
520.768	40.86
520.967	40.82
521.166	40.86
521.365	40.92
521.564	41
521.762	41.15
521.961	41.18
522.16	41.21
522.359	41.36
522.558	41.45
522.757	41.56
522.956	41.45
523.154	41.58
523.353	41.82
523.552	42.02
523.751	42.04
523.949	42.19
524.148	42.28
524.347	42.33
524.546	42.27
524.744	42.27
524.943	42.46
525.142	42.57
525.34	42.42
525.539	42.34
525.737	42.45
525.936	42.57
526.135	42.6
526.333	42.67
526.532	42.84
526.73	42.92
526.929	43.09
527.127	43.19
527.326	43.22
527.524	43.32
527.723	43.44
527.921	43.42
528.12	43.48
528.318	43.54
528.516	43.55
528.715	43.65
528.913	43.73
529.112	43.71
529.31	43.72
529.508	43.76
529.707	43.87
529.905	43.82
530.103	43.83
530.301	43.87
530.5	43.81
530.698	43.86
530.896	43.75
531.094	43.7
531.293	43.76
531.491	43.86
531.689	43.86
531.887	43.82
532.085	43.91
532.283	44.04
532.481	44.12
532.68	44.26
532.878	44.23
533.076	44.31
533.274	44.42
533.472	44.46
533.67	44.37
533.868	44.43
534.066	44.45
534.264	44.51
534.462	44.44
534.66	44.46
534.858	44.54
535.056	44.59
535.253	44.62
535.451	44.65
535.649	44.64
535.847	44.77
536.045	44.73
536.243	44.79
536.441	44.8
536.638	44.96
536.836	44.87
537.034	44.87
537.232	44.99
537.43	45.01
537.627	44.96
537.825	44.89
538.023	44.91
538.22	44.9
538.418	44.88
538.616	45.06
538.813	45.11
539.011	45.28
539.209	45.21
539.406	45.28
539.604	45.21
539.801	45.32
539.999	45.35
540.196	45.41
540.394	45.56
540.591	45.51
540.789	45.39
540.986	45.36
541.184	45.33
541.381	45.25
541.579	45.29
541.776	45.36
541.974	45.35
542.171	45.4
542.368	45.34
542.566	45.33
542.763	45.46
542.96	45.45
543.158	45.49
543.355	45.53
543.552	45.68
543.75	45.7
543.947	45.79
544.144	45.75
544.341	45.93
544.539	45.96
544.736	45.85
544.933	45.8
545.13	45.97
545.327	45.81
545.524	45.65
545.722	45.54
545.919	45.44
546.116	45.3
546.313	45.36
546.51	45.23
546.707	45.26
546.904	45.34
547.101	45.4
547.298	45.31
547.495	45.39
547.692	45.51
547.889	45.54
548.086	45.59
548.283	45.59
548.48	45.71
548.677	45.77
548.874	45.69
549.07	45.88
549.267	45.84
549.464	45.99
549.661	46
549.858	46.17
550.055	46.26
550.251	46.36
550.448	46.7
550.645	46.46
550.842	46.45
551.038	46.53
551.235	46.57
551.432	46.66
551.628	46.55
551.825	46.61
552.022	46.54
552.218	46.65
552.415	46.7
552.612	46.71
552.808	46.76
553.005	46.88
553.201	47.04
553.398	47.02
553.594	46.97
553.791	47.02
553.987	47
554.184	47.05
554.38	47.07
554.577	47
554.773	46.79
554.97	46.77
555.166	46.71
555.362	46.56
555.559	46.59
555.755	46.63
555.952	46.63
556.148	46.56
556.344	46.63
556.541	46.7
556.737	46.76
556.933	46.81
557.129	47.02
557.326	46.87
557.522	47.01
557.718	46.97
557.914	46.99
558.11	47.07
558.307	47.12
558.503	47.17
558.699	47.04
558.895	47.09
559.091	47.17
559.287	47.19
559.483	47.34
559.679	47.57
559.876	47.59
560.072	47.62
560.268	47.64
560.464	47.79
560.66	47.65
560.856	47.94
561.052	47.91
561.247	47.91
561.443	47.81
561.639	47.6
561.835	47.31
562.031	47.36
562.227	47.24
562.423	47.32
562.619	47.44
562.815	47.49
563.01	47.42
563.206	47.57
563.402	47.75
563.598	47.69
563.793	47.89
563.989	48.08
564.185	47.81
564.381	47.8
564.576	47.81
564.772	47.84
564.968	47.83
565.163	47.89
565.359	48
565.555	47.91
565.75	48.25
565.946	48.25
566.141	48.19
566.337	48.41
566.532	48.58
566.728	48.44
566.923	48.38
567.119	48.66
567.314	48.63
567.51	48.39
567.705	48.34
567.901	48.14
568.096	48.23
568.292	48.19
568.487	48.14
568.682	48.3
568.878	48.41
569.073	48.44
569.268	48.35
569.464	48.25
569.659	48.31
569.854	48.47
570.05	48.59
570.245	48.48
570.44	48.61
570.635	48.6
570.831	48.52
571.026	48.68
571.221	48.66
571.416	48.69
571.611	48.89
571.806	49
572.002	49.04
572.197	48.85
572.392	48.96
572.587	48.99
572.782	49.07
572.977	48.97
573.172	49.04
573.367	49.06
573.562	48.95
573.757	49
573.952	48.96
574.147	48.89
574.342	49.1
574.537	49.11
574.732	49.13
574.927	49.11
575.121	49.11
575.316	49.05
575.511	49.19
575.706	49.17
575.901	48.87
576.096	49.03
576.29	49.11
576.485	49.25
576.68	49.2
576.875	49.37
577.069	49.38
577.264	49.56
577.459	49.47
577.654	49.25
577.848	49.32
578.043	49.65
578.238	49.35
578.432	49.53
578.627	49.35
578.821	49.38
579.016	49.15
579.21	49.19
579.405	49.11
579.6	49.08
579.794	49.16
579.989	49.11
580.183	49.32
580.378	49.54
580.572	49.19
580.766	49.12
580.961	49.44
581.155	49.56
581.35	49.56
581.544	49.49
581.738	49.7
581.933	49.78
582.127	49.95
582.321	49.73
582.516	49.86
582.71	49.79
582.904	49.87
583.099	49.58
583.293	49.57
583.487	49.63
583.681	49.89
583.875	49.74
584.07	49.71
584.264	49.81
584.458	49.61
584.652	49.41
584.846	49.64
585.04	49.82
585.234	49.89
585.428	49.87
585.623	50.17
585.817	50.47
586.011	50.42
586.205	50.65
586.399	50.44
586.593	50.58
586.787	50.61
586.981	50.55
587.174	50.47
587.368	50.51
587.562	50.35
587.756	50.04
587.95	49.47
588.144	49.66
588.338	49.38
588.532	49.51
588.725	49.62
588.919	49.69
589.113	49.86
589.307	49.93
589.501	50
589.694	50.18
589.888	50.22
590.082	50.57
590.275	50.36
590.469	50.55
590.663	50.52
590.856	50.27
591.05	50.42
591.244	50.52
591.437	50.65
591.631	50.6
591.824	50.5
592.018	50.43
592.212	50.13
592.405	50.41
592.599	50.26
592.792	50.5
592.986	50.72
593.179	50.62
593.372	50.29
593.566	50.12
593.759	49.96
593.953	50.05
594.146	50.2
594.339	50.32
594.533	50.36
594.726	50.56
594.92	50.32
595.113	50.25
595.306	50.34
595.499	50.49
595.693	50.54
595.886	50.75
596.079	50.57
596.272	50.52
596.466	50.74
596.659	50.51
596.852	50.36
597.045	50.5
597.238	50.34
597.431	50.2
597.624	50.13
597.818	49.97
598.011	50.06
598.204	50.17
598.397	50.17
598.59	49.96
598.783	50.31
598.976	50.4
599.169	50.63
599.362	50.95
599.555	50.93
599.748	50.96
599.941	51.1
600.134	50.96
600.326	50.97
600.519	50.94
600.712	51.03
600.905	50.58
601.098	50.97
601.291	50.38
601.483	50.25
601.676	50.41
601.869	50.61
602.062	50.79
602.255	50.8
602.447	50.89
602.64	51.02
602.833	50.99
603.025	51.2
603.218	50.95
603.411	51.04
603.603	51.13
603.796	51.2
603.989	51.02
604.181	50.91
604.374	50.8
604.566	50.76
604.759	50.73
604.951	50.73
605.144	50.79
605.336	50.72
605.529	50.73
605.721	50.54
605.914	50.47
606.106	50.48
606.299	50.42
606.491	50.56
606.683	50.66
606.876	50.72
607.068	50.81
607.26	50.82
607.453	50.85
607.645	50.95
607.837	51.2
608.03	51.09
608.222	51.38
608.414	51.18
608.606	51.25
608.799	51.1
608.991	51.07
609.183	50.86
609.375	50.71
609.567	50.55
609.759	50.62
609.952	50.43
610.144	50.38
610.336	50.01
610.528	50.15
610.72	50.18
610.912	50.08
611.104	49.99
611.296	50.11
611.488	49.95
611.68	49.92
611.872	49.47
612.064	49.62
612.256	49.72
612.448	49.94
612.64	49.91
612.832	49.55
613.023	49.69
613.215	49.8
613.407	49.65
613.599	49.77
613.791	50.17
613.983	50.58
614.174	50.5
614.366	50.39
614.558	50.51
614.75	50.84
614.941	51.08
615.133	50.95
615.325	50.93
615.516	51.27
615.708	51.41
615.9	51.43
616.091	51.32
616.283	51.25
616.475	51.66
616.666	51.46
616.858	51.36
617.049	51.07
617.241	51.18
617.432	51.43
617.624	51.62
617.815	51.67
618.007	51.71
618.198	51.95
618.39	51.83
618.581	51.7
618.773	51.92
618.964	52.02
619.155	52.22
619.347	52.34
619.538	52.13
619.729	51.67
619.921	51.57
620.112	51.36
620.303	51.4
620.494	51.55
620.686	51.49
620.877	51.42
621.068	51.12
621.259	51.21
621.451	51.27
621.642	51.14
621.833	51.08
622.024	51.15
622.215	51.48
622.406	51.44
622.597	51.5
622.788	51.06
622.98	50.97
623.171	50.95
623.362	50.64
623.553	50.62
623.744	50.73
623.935	50.9
624.126	51.25
624.317	51.02
624.508	51.05
624.698	51.2
624.889	51.72
625.08	51.89
625.271	51.76
625.462	52.12
625.653	52.16
625.844	52.4
626.034	52.31
626.225	51.91
626.416	51.99
626.607	51.97
626.798	52.06
626.988	52.07
627.179	51.82
627.37	52.36
627.56	52.36
627.751	52.33
627.942	52.15
628.132	52.3
628.323	52.49
628.514	52.29
628.704	52.2
628.895	52.16
629.085	52.12
629.276	52.43
629.466	52.02
629.657	51.99
629.847	51.89
630.038	51.52
630.228	51.63
630.419	51.29
630.609	51.16
630.8	50.87
630.99	50.63
631.181	50.54
631.371	50.58
631.561	50.98
631.752	51.05
631.942	51.12
632.132	51.66
632.323	51.41
632.513	51.58
632.703	51.62
632.893	51.97
633.084	52.22
633.274	52.02
633.464	52.04
633.654	51.67
633.844	51.68
634.034	51.65
634.225	51.4
634.415	51.51
634.605	51.49
634.795	51.64
634.985	51.65
635.175	51.39
635.365	51.48
635.555	50.96
635.745	50.81
635.935	50.39
636.125	50.29
636.315	50.55
636.505	50.46
636.695	50.62
636.885	50.64
637.075	50.49
637.265	50.68
637.455	50.83
637.644	51.19
637.834	51.15
638.024	51.53
638.214	51.52
638.404	50.96
638.593	51.04
638.783	50.74
638.973	50.5
639.163	50.63
639.352	50.27
639.542	50.35
639.732	50.54
639.921	50.97
640.111	51.02
640.301	50.74
640.49	51.07
640.68	50.9
640.87	51.1
641.059	51.31
641.249	51.22
641.438	51.5
641.628	51.43
641.817	51.11
642.007	50.76
642.196	51.1
642.386	51.66
642.575	51.55
642.764	51.58
642.954	51.46
643.143	51.67
643.333	51.69
643.522	51.6
643.711	51.36
643.901	51.18
644.09	50.98
644.279	50.69
644.469	50.42
644.658	50.41
644.847	50.21
645.036	50.72
645.226	50.8
645.415	51
645.604	51.05
645.793	51.17
645.982	51.18
646.171	51.64
646.361	51.06
646.55	51.05
646.739	50.95
646.928	51.32
647.117	50.82
647.306	50.46
647.495	50.18
647.684	49.96
647.873	49.97
648.062	50.16
648.251	50.3
648.44	50.88
648.629	51.19
648.818	51.16
649.007	50.79
649.196	50.71
649.384	50.52
649.573	51
649.762	51.13
649.951	51.03
650.14	50.71
650.328	50.2
650.517	49.51
650.706	49.1
650.895	49.64
651.083	49.69
651.272	49.65
651.461	49.72
651.65	49.56
651.838	49.59
652.027	49.58
652.216	49.89
652.404	50.46
652.593	50.97
652.781	51.13
652.97	50.87
653.158	51.3
653.347	51.45
653.535	51.84
653.724	51.58
653.912	51.52
654.101	51.65
654.289	51.46
654.478	51.1
654.666	50.91
654.855	50.65
655.043	50.32
655.231	49.77
655.42	49.95
655.608	49.83
655.796	49.68
655.985	49.56
656.173	49.75
656.361	50.02
656.55	50.12
656.738	50.21
656.926	50.59
657.114	50.87
657.302	50.82
657.491	50.51
657.679	50.56
657.867	50.45
658.055	50.51
658.243	50.02
658.431	49.68
658.619	49.78
658.807	50
658.996	49.95
659.184	49.77
659.372	50
659.56	50.09
659.748	49.98
659.936	50.03
660.124	50.01
660.311	50.44
660.499	50.58
660.687	50.52
660.875	50.26
661.063	50.36
661.251	50.21
661.439	50.25
661.627	50
661.814	49.81
662.002	49.78
662.19	49.87
662.378	49.18
662.565	49.19
662.753	49.13
662.941	49.05
663.129	48.67
663.316	48.46
663.504	48.18
663.692	48.44
663.879	48.69
664.067	48.61
664.254	48.34
664.442	48.87
664.63	49.01
664.817	48.54
665.005	48.35
665.192	48.36
665.38	49.46
665.567	49.52
665.755	49.34
665.942	49.12
666.13	49.39
666.317	49.72
666.504	49.46
666.692	49.4
666.879	49.91
667.067	50.45
667.254	50.75
667.441	50.17
667.629	50.19
667.816	50.33
668.003	50.44
668.19	50.37
668.378	49.63
668.565	50.1
668.752	49.86
668.939	49.22
669.127	48.58
669.314	48.01
669.501	47.75
669.688	47.68
669.875	47.87
670.062	47.77
670.249	47.6
670.436	48.21
670.623	48.04
670.81	48.23
670.997	48.72
671.184	49.17
671.371	49.75
671.558	49.96
671.745	49.92
671.932	49.69
672.119	49.58
672.306	49.71
672.493	49.77
672.68	49.58
672.867	49.5
673.054	49.42
673.24	49.21
673.427	49.13
673.614	49.22
673.801	49.35
673.988	48.67
674.174	48.47
674.361	47.98
674.548	48.01
674.734	48.39
674.921	48.36
675.108	48.09
675.294	48.28
675.481	47.99
675.668	47.62
675.854	47.35
676.041	47.75
676.227	47.93
676.414	48.43
676.601	48.36
676.787	48.45
676.974	48.39
677.16	48.38
677.347	48.21
677.533	48.24
677.719	48.58
677.906	48.36
678.092	48.28
678.279	48.35
678.465	48.12
678.651	48.45
678.838	48.05
679.024	48.06
679.21	48.29
679.397	48.21
679.583	48.3
679.769	48.3
679.955	48.35
680.142	48.53
680.328	48.48
680.514	48.79
680.7	48.35
680.886	48.24
681.073	48.41
681.259	48.17
681.445	48.12
681.631	48.19
681.817	48.17
682.003	48.55
682.189	48.42
682.375	48.37
682.561	48.22
682.747	48.45
682.933	48.52
683.119	48.39
683.305	48.43
683.491	48.6
683.677	48.1
683.863	47.97
684.049	47.84
684.235	48.04
684.42	47.98
684.606	47.82
684.792	47.47
684.978	47.52
685.164	47.09
685.349	47.01
685.535	46.51
685.721	46.75
685.907	46.63
686.092	46.99
686.278	46.82
686.464	46.7
686.649	47.21
686.835	47.18
687.021	46.92
687.206	46.73
687.392	46.95
687.577	47.27
687.763	47.28
687.948	47.48
688.134	46.94
688.319	46.85
688.505	46.95
688.69	46.21
688.876	46.42
689.061	46.41
689.247	46.72
689.432	47.21
689.618	47.17
689.803	47
689.988	46.66
690.174	46.54
690.359	46.1
690.544	45.96
690.73	46.82
690.915	46.2
691.1	46
691.285	45.74
691.471	45.3
691.656	45.4
691.841	45.65
692.026	45.66
692.211	45.7
692.396	46.24
692.582	45.83
692.767	45.09
692.952	45.31
693.137	45.42
693.322	45.86
693.507	45.34
693.692	45.04
693.877	44.43
694.062	44.53
694.247	44.51
694.432	44.6
694.617	45.17
694.802	45.7
694.987	45.9
695.172	46.46
695.357	46.55
695.541	46.82
695.726	46.95
695.911	47.62
696.096	47.73
696.281	47.89
696.466	47.83
696.65	47.77
696.835	46.95
697.02	47.1
697.204	47.02
697.389	46.87
697.574	47.01
697.759	47.37
697.943	47.06
698.128	46.98
698.312	46.69
698.497	46.66
698.682	46.58
698.866	46.63
699.051	46.43
699.235	45.96
699.42	45.68
699.604	45.45
699.789	45.21
699.973	45.46
700.158	45.37
700.342	45.43
700.527	45.47
700.711	45.32
700.895	45.77
701.08	45.36
701.264	45.46
701.448	46.33
701.633	46.33
701.817	46.42
702.001	46.21
702.186	45.78
702.37	46.08
702.554	46.09
702.738	46.92
702.923	46.42
703.107	47.5
703.291	47.68
703.475	47.23
703.659	47.47
703.843	47.19
704.027	47.31
704.212	47.06
704.396	46.89
704.58	46.54
704.764	45.8
704.948	46.15
705.132	45.34
705.316	45.64
705.5	45.64
705.684	46.16
705.868	46.9
706.052	46.34
706.235	46.37
706.419	46.31
706.603	45.8
706.787	45.73
706.971	44.98
707.155	45.22
707.339	44.29
707.522	43.65
707.706	43.04
707.89	42.51
708.074	42.15
708.257	42.93
708.441	43.25
708.625	43.16
708.808	43.6
708.992	44.27
709.176	44.33
709.359	44.73
709.543	44.97
709.727	45.64
709.91	45.39
710.094	46.17
710.277	45.51
710.461	44.8
710.644	45.34
710.828	44.71
711.011	44.46
711.195	45.13
711.378	45.43
711.562	45.46
711.745	45.35
711.928	45.57
712.112	45.13
712.295	45.5
712.478	46.14
712.662	45.87
712.845	46.42
713.028	46.98
713.212	46.71
713.395	46.73
713.578	47.19
713.761	45.83
713.945	45.83
714.128	46.19
714.311	46.56
714.494	46.66
714.677	46.87
714.86	46.33
715.043	45.92
715.227	45.35
715.41	45.28
715.593	44.75
715.776	45.53
715.959	45.5
716.142	45.06
716.325	44.73
716.508	44.41
716.691	44.45
716.874	44.52
717.057	44.41
717.239	44.41
717.422	43.93
717.605	44.23
717.788	43.89
717.971	43.46
718.154	43.76
718.337	43.54
718.519	43.32
718.702	43.54
718.885	43.93
719.068	43.46
719.25	43.68
719.433	43.73
719.616	43.19
719.798	42.85
719.981	43.83
720.164	44.01
720.346	44.05
720.529	43.61
720.712	42.84
720.894	42.92
721.077	43.11
721.259	42.92
721.442	42.87
721.624	42.78
721.807	42.68
721.989	42.47
722.172	42.11
722.354	42.16
722.537	41.91
722.719	42.47
722.901	41.76
723.084	41.55
723.266	40.7
723.448	40.88
723.631	40.74
723.813	40.84
723.995	40.36
724.178	40.82
724.36	41.08
724.542	42.38
724.724	42.4
724.907	43.37
725.089	44.45
725.271	44.66
725.453	45.27
725.635	46.1
725.817	46.64
725.999	46.47
726.181	45.93
726.364	45.72
726.546	44.4
726.728	43.73
726.91	42.96
727.092	42.56
727.274	42.77
727.456	41.71
727.638	41.4
727.819	41.36
728.001	41.75
728.183	42.35
728.365	41.87
728.547	43.25
728.729	43.2
728.911	43.37
729.093	42.72
729.274	42.7
729.456	43.23
729.638	43.13
729.82	43.22
730.001	43.44
730.183	42.51
730.365	42.42
730.546	42
730.728	41.83
730.91	41.63
731.091	42.57
731.273	43.13
731.455	43.41
731.636	43.56
731.818	42.9
731.999	42.13
732.181	42.73
732.362	43.39
732.544	43.49
732.725	44.28
732.907	43.34
733.088	42.1
733.27	42.05
733.451	41.86
733.633	42.39
733.814	43.23
733.995	43.32
734.177	43.54
734.358	43.12
734.539	42.43
734.721	41.83
734.902	43.36
735.083	44.6
735.264	44.5
735.446	44.09
735.627	42.88
735.808	42.85
735.989	43.42
736.17	43.1
736.351	44.05
736.533	44.63
736.714	44.76
736.895	43.64
737.076	42.31
737.257	41.87
737.438	42.02
737.619	42.08
737.8	41.61
737.981	40.5
738.162	40.57
738.343	39.04
738.524	38.81
738.705	38.03
738.886	38.81
739.067	39.27
739.247	39.67
739.428	39.18
739.609	40.27
739.79	41.14
739.971	41.82
740.151	41.71
740.332	42.45
740.513	42.23
740.694	43.08
740.874	42.71
741.055	42.23
741.236	41.53
741.417	41.55
741.597	40.8
741.778	40.55
741.958	39.74
742.139	39.5
742.32	39.69
742.5	40.09
742.681	39.53
742.861	40.09
743.042	41.41
743.222	42.55
743.403	43.24
743.583	43.19
743.764	42.27
743.944	43.13
744.124	42.95
744.305	43.28
744.485	42.85
744.666	43.41
744.846	42
745.026	41.09
745.207	40.21
745.387	39.44
745.567	40.44
745.747	40.7
745.928	40.92
746.108	41.26
746.288	42.07
746.468	42.06
746.648	41.5
746.829	42.5
747.009	43.07
747.189	43.27
747.369	44.21
747.549	42.84
747.729	42.69
747.909	42.16
748.089	42.26
748.269	40.55
748.449	39.91
748.629	40.75
748.809	41.47
748.989	40.36
749.169	39.66
749.349	39.41
749.529	39.75
749.709	40.71
749.889	41.8
750.068	43.08
750.248	44.53
750.428	44.65
750.608	45.5
750.788	44.95
750.967	44.61
751.147	44.92
751.327	43.82
751.507	42.71
751.686	41.97
751.866	39.42
752.046	37.54
752.225	37.15
752.405	38.02
752.585	36.4
752.764	37.26
752.944	37.71
753.123	38.48
753.303	38.83
753.482	38.99
753.662	38.27
753.841	39.87
754.021	40.43
754.2	40
754.38	39.57
754.559	39.9
754.739	39.63
754.918	39.92
755.097	39.51
755.277	40.32
755.456	40.88
755.635	41.42
755.815	41.84
755.994	41.88
756.173	41.34
756.352	40.53
756.532	41.4
756.711	40.01
756.89	39.77
757.069	39.88
757.248	39.23
757.427	39.53
757.607	39.89
757.786	40.05
757.965	40.79
758.144	41.46
758.323	42.19
758.502	40.81
758.681	40.25
758.86	40.34
759.039	40.52
759.218	40.2
759.397	39.69
759.576	38.77
759.755	38.41
759.934	37.8
760.113	36.61
760.291	36.21
760.47	37.38
760.649	39.14
760.828	39.21
761.007	38.49
761.186	38.63
761.364	39.46
761.543	40.21
761.722	40.44
761.901	39.75
762.079	40.66
762.258	41.14
762.437	40.97
762.615	40.05
762.794	40
762.972	40.17
763.151	40.32
763.33	39.29
763.508	39.63
763.687	40.16
763.865	39.99
764.044	39.47
764.222	39.22
764.401	39.42
764.579	40.27
764.758	40.25
764.936	40.06
765.114	39.64
765.293	40.18
765.471	39.72
765.65	38.3
765.828	38.58
766.006	39.28
766.184	39.51
766.363	39.29
766.541	39.01
766.719	39.23
766.898	39.5
767.076	39.77
767.254	39.35
767.432	38.9
767.61	38.82
767.788	39.56
767.967	40.36
768.145	40.04
768.323	39.73
768.501	39.6
768.679	38.9
768.857	39.04
769.035	39.49
769.213	39.46
769.391	40.46
769.569	41.25
769.747	40.08
769.925	39.88
770.103	40.59
770.281	40.04
770.459	39.54
770.636	39.75
770.814	38.63
770.992	38.67
771.17	39.78
771.348	38.59
771.525	37.41
771.703	38.06
771.881	36.15
772.059	35.51
772.236	34.91
772.414	34.26
772.592	33.49
772.769	35.14
772.947	35.09
773.125	34.04
773.302	35.1
773.48	36.07
773.657	36.19
773.835	35.84
774.013	33.16
774.19	33.42
774.368	35.29
774.545	37.32
774.723	36.65
774.9	37.36
775.077	38.34
775.255	37.09
775.432	36.03
775.61	34.02
775.787	33.6
775.964	36.84
776.142	37.48
776.319	35.55
776.496	35.08
776.674	35.08
776.851	34.65
777.028	34.88
777.205	34.76
777.382	35.71
777.56	38.51
777.737	38.29
777.914	37.06
778.091	36.75
778.268	38.47
778.445	38.1
778.622	37.1
778.8	36.36
778.977	35.91
779.154	36.64
779.331	36.63
779.508	35.56
779.685	35.97
779.862	35.73
780.038	35.79
780.215	33.46
780.392	33.87
780.569	34.67
780.746	33.8
780.923	35.89
781.1	34.21
781.277	33.68
781.453	33.24
781.63	31.84
781.807	34.51
781.984	32.36
782.16	32.61
782.337	31.64
782.514	31.2
782.691	32.58
782.867	30.03
783.044	32.35
783.221	33.17
783.397	35.27
783.574	38.86
783.75	34.75
783.927	35.37
784.103	35.61
784.28	37.61
784.456	39.17
784.633	39.28
784.809	39.34
784.986	40.48
785.162	37.23
785.339	35.2
785.515	35.34
785.692	38.5
785.868	39.82
786.044	40.24
786.221	38.49
786.397	38.9
786.573	36.27
786.749	35.41
786.926	30.64
787.102	34.47
787.278	32.92
787.454	32.7
787.631	32.38
787.807	31.85
787.983	31.73
788.159	31.43
788.335	28.1
788.511	30.8
788.687	32.73
788.863	34.91
789.039	34.52
789.216	35.71
789.392	36.46
789.568	36.1
789.744	35.72
789.919	36.54
790.095	37.07
790.271	37.56
790.447	36.82
790.623	34.99
790.799	33.09
790.975	34.61
791.151	33.65
791.327	31.79
791.502	29.66
791.678	28.82
791.854	29.43
792.03	28.19
792.205	29.26
792.381	27.8
792.557	29.27
792.733	31.18
792.908	26.9
793.084	30.37
793.259	30.53
793.435	31.17
793.611	33.43
793.786	30.83
793.962	34.22
794.137	35.45
794.313	36.63
794.488	35.72
794.664	39.36
794.839	41.55
795.015	39.37
795.19	41.03
795.366	41.08
795.541	39.12
795.716	42.69
795.892	38.96
796.067	37.12
796.242	37.39
796.418	38.27
796.593	34.84
796.768	32.38
796.944	33.69
797.119	30.78
797.294	31.65
797.469	31.36
797.644	29.99
797.82	32.08
797.995	33.49
798.17	32.56
798.345	29
798.52	29.04
798.695	29.76
798.87	29.76
799.045	32.46
799.22	31.92
799.395	35.44
799.57	33.78
799.745	33.07
799.92	31.92
800.095	31.4
800.27	34.3
800.445	35.31
800.62	36.11
800.795	34.02
800.97	34.73
801.145	35.7
801.319	34.63
801.494	37.02
801.669	37.03
801.844	38.12
802.018	39.79
802.193	39.56
802.368	40.34
802.543	39.99
802.717	40.06
802.892	36.85
803.067	33.34
803.241	32.2
803.416	28.76
803.59	27.47
803.765	28.35
803.94	27.42
804.114	28.26
804.289	25.53
804.463	24.7
804.638	25.71
804.812	25.06
804.986	26.35
805.161	26.8
805.335	29.56
805.51	31.48
805.684	33.64
805.858	33.42
806.033	31.7
806.207	34.74
806.381	37.41
806.556	37.18
806.73	39.19
806.904	41.3
807.078	39.24
807.253	38.36
807.427	38.19
807.601	35.02
807.775	37.42
807.949	37.06
808.123	36.37
808.298	34.54
808.472	36.28
808.646	35.94
808.82	36.65
808.994	35.41
809.168	35.25
809.342	36.9
809.516	36.84
809.69	34.33
809.864	35.47
810.038	33.41
810.212	33.78
810.385	31.24
810.559	29.99
810.733	29.57
810.907	31.72
811.081	33.53
811.255	33.58
811.428	31.05
811.602	30.28
811.776	31.82
811.95	32.49
812.123	34.6
812.297	37.96
812.471	34.47
812.644	33.64
812.818	32.59
812.992	28.95
813.165	26.07
813.339	26.88
813.512	26.19
813.686	24.46
813.86	28.08
814.033	28.82
814.207	29.04
814.38	32.57
814.554	33.81
814.727	33.67
814.9	34.6
815.074	35.7
815.247	35.16
815.421	37.34
815.594	38.68
815.767	35.12
815.941	33.84
816.114	31.64
816.287	30.45
816.46	31.28
816.634	32.28
816.807	34.94
816.98	35.57
817.153	34.47
817.327	32.53
817.5	31.66
817.673	31.72
817.846	33.52
818.019	32.74
818.192	34.3
818.365	28.2
818.538	28.79
818.711	25.97
818.884	25.19
819.057	23.92
819.23	26.77
819.403	26.84
819.576	26.52
819.749	25.56
819.922	23.2
820.095	26.09
820.268	29.44
820.441	30.03
820.614	30.85
820.786	32.98
820.959	33.9
821.132	33.69
821.305	32.99
821.477	32.6
821.65	31.97
821.823	33.36
821.996	31.94
822.168	31.96
822.341	31.61
822.514	31.77
822.686	31.2
822.859	31.21
823.031	31.47
823.204	31.85
823.376	31.59
823.549	31.87
823.722	32.13
823.894	32.8
824.067	32.89
824.239	32.84
824.411	33.23
824.584	33.47
824.756	34.25
824.929	33.5
825.101	33.5
825.273	34.68
825.446	34.55
825.618	33.99
825.79	33.8
825.963	34.05
826.135	35.3
826.307	34.54
826.479	33.73
826.652	33.72
826.824	34.48
826.996	34.31
827.168	33.45
827.34	33.05
827.512	32.62
827.684	32.72
827.856	32.54
828.029	30.96
828.201	31.14
828.373	31.64
828.545	31.06
828.717	30.28
828.889	30.23
829.061	30.15
829.232	30.08
829.404	30.39
829.576	29.74
829.748	28.07
829.92	30.12
830.092	30.9
830.264	31.2
830.436	30.4
830.607	29.98
830.779	30.8
830.951	30.51
831.123	32.97
831.294	32.33
831.466	31.14
831.638	34.51
831.809	32.98
831.981	30.82
832.153	30.12
832.324	30.33
832.496	33.41
832.667	33.17
832.839	36.08
833.011	33.12
833.182	34.73
833.354	36.95
833.525	35.15
833.697	33.05
833.868	33.61
834.039	33.88
834.211	32.61
834.382	30.55
834.554	29.92
834.725	29.22
834.896	29.99
835.068	29.65
835.239	28.75
835.41	27.76
835.581	29.55
835.753	29.24
835.924	28.18
836.095	31.87
836.266	34.48
836.438	34.7
836.609	35.25
836.78	34.9
836.951	35.75
837.122	37.08
837.293	37.3
837.464	34.9
837.635	35.82
837.806	36.62
837.977	34.76
838.148	33.21
838.319	32.16
838.49	29.39
838.661	30.06
838.832	31.63
839.003	29.16
839.174	28.92
839.345	32.29
839.516	31.46
839.687	32.1
839.857	30.25
840.028	29.27
840.199	27.55
840.37	29.1
840.54	29.45
840.711	27.52
840.882	30.3
841.053	31.96
841.223	32.33
841.394	31.88
841.564	30.42
841.735	30.49
841.906	31.5
842.076	35.12
842.247	30.62
842.417	31.22
842.588	29.74
842.758	27.15
842.929	24.29
843.099	18.25
843.27	19.37
843.44	21.48
843.611	20.86
843.781	10.97
843.951	13.61
844.122	28.02
844.292	30.72
844.462	26.89
844.633	27.26
844.803	38.41
844.973	45.12
845.144	35.48
845.314	31.31
845.484	33.75
845.654	41
845.824	38.52
845.995	31.42
846.165	26.65
846.335	26.98
846.505	30.59
846.675	23.89
846.845	18.08
847.015	31.71
847.185	39.03
847.355	38.29
847.525	30.52
847.695	26.2
847.865	33.72
848.035	37.96
848.205	41.87
848.375	33.46
848.545	33.85
848.715	29.38
848.884	28.2
849.054	18.31
849.224	14.62
849.394	20.16
849.564	24.81
849.733	17.59
849.903	20.15
850.073	21.28
850.243	29.47
850.412	25.02
850.582	33.28
850.752	29.19
850.921	46.35
851.091	48.41
851.26	40.34
851.43	29.58
851.599	25
851.769	11.6
851.939	15.35
852.108	1.34
852.278	1.81
852.447	7.61
852.616	-0.88
852.786	-10.09
852.955	-7.86
853.125	4.73
853.294	9.17
853.463	14.99
853.633	13.81
853.802	-0.05
853.971	5.7
854.141	1.56
854.31	-8.98
854.479	-8.65
854.648	-8.86
854.818	-5.03
854.987	-13.47
855.156	-0.44
855.325	-9.05
855.494	4.61
855.663	5.88
855.832	7.41
856.001	16.38
856.171	25.05
856.34	33.12
856.509	34.49
856.678	39.6
856.847	39.62
857.016	25.8
857.185	27.89
857.353	27.63
857.522	31.32
857.691	27.39
857.86	15.14
858.029	7.63
858.198	2.64
858.367	-7.31
858.535	-23.51
858.704	-9.22
858.873	-12.86
859.042	2.83
859.21	-4.48
859.379	-14.26
859.548	-11.63
859.717	2.28
859.885	1.01
860.054	2.94
860.222	0.38
860.391	6.81
860.56	12.51
860.728	19.58
860.897	10.29
861.065	6.72
861.234	1.86
861.402	16.02
861.571	18.52
861.739	16.44
861.908	18.86
862.076	18.02
862.244	14.42
862.413	9.68
862.581	8.29
862.749	12.58
862.918	25.23
863.086	29.49
863.254	25.05
863.423	22.79
863.591	32.59
863.759	32.54
863.927	40.79
864.096	42.45
864.264	48.36
864.432	53.38
864.6	46.83
864.768	44.85
864.936	47.1
865.104	53.23
865.272	59.25
865.44	50.55
865.608	48.68
865.776	48.34
865.944	41.69
866.112	32.93
866.28	25.85
866.448	34.53
866.616	31.66
866.784	30.95
866.952	23.91
867.12	18.31
867.288	23.87
867.455	24.01
867.623	21.97
867.791	30.79
867.959	38.53
868.127	38.8
868.294	39.5
868.462	38.85
868.63	29.54
868.797	35.67
868.965	32.43
869.133	39.34
869.3	27.53
869.468	26.77
869.636	22.82
869.803	5.42
869.971	10.48
870.138	7.03
870.306	-1.17
870.473	8.17
870.641	-17.79
870.808	-13.97
870.975	-49.65
871.143	-49.34
871.31	-26.11
871.478	-19.97
871.645	-2.22
871.812	-21.98
871.98	-21.77
872.147	-22.41
872.314	-14.17
872.482	-3.31
872.649	-5.94
872.816	9.44
872.983	11.38
873.15	8.25
873.318	20.16
873.485	11.64
873.652	28.84
873.819	42.11
873.986	52.45
874.153	42.67
874.32	40.03
874.487	47.9
874.654	46.74
874.821	56
874.988	51.8
875.155	47.54
875.322	47.25
875.489	40.7
875.656	32.65
875.823	20.9
875.99	20.2
876.157	15.02
876.324	6.38
876.49	6.02
876.657	13.34
876.824	23.15
876.991	21.39
877.157	19.35
877.324	21.22
877.491	27.08
877.658	30.47
877.824	44.98
877.991	47.56
878.157	45.83
878.324	38.7
878.491	32.81
878.657	31.28
878.824	29.24
878.99	28.17
879.157	19.12
879.323	18.78
879.49	29.82
879.656	14.03
879.823	20.11
879.989	25.23
880.156	27.74
880.322	17.99
880.488	15.67
880.655	19.54
880.821	24.09
880.987	28.89
881.154	27.07
881.32	24.41
881.486	27.34
881.652	22.17
881.819	22.66
881.985	22.72
882.151	28.6
882.317	30.36
882.483	27.61
882.649	25.58
882.816	26.69
882.982	25.64
883.148	24.61
883.314	24.08
883.48	25.27
883.646	27.21
883.812	29.5
883.978	28.23
884.144	27.62
884.31	28.58
884.476	28.14
884.642	30.29
884.807	31.89
884.973	31.36
885.139	32.12
885.305	31.83
885.471	30.74
885.637	28.68
885.802	29.9
885.968	29.82
886.134	29.75
886.3	31.17
886.465	26.98
886.631	23.43
886.797	26.37
886.962	25.9
887.128	27.3
887.293	26.69
887.459	24.59
887.625	25.42
887.79	21.68
887.956	24.67
888.121	24.94
888.287	25.81
888.452	31.72
888.618	30.35
888.783	30.32
