Data from CB_107_Reflection_1.txt Node
Date: Sat Nov 14 18:04:53 EST 2015
User: robert
Spectrometer: USB4E03001
Autoset integration time: false
Trigger mode: 4
Integration Time (sec): 1.000000E-1
Scans to average: 15
Electric dark correction enabled: true
Nonlinearity correction enabled: false
Boxcar width: 5
Stray light correction enabled: false
XAxis mode: Wavelengths
Stop averaging: false
Number of Pixels in Spectrum: 3648
>>>>>Begin Spectral Data<<<<<
177.566	147.02
177.785	-1226.11
178.005	337.26
178.225	332.52
178.445	-2411.58
178.665	267.57
178.885	524.74
179.105	124.61
179.324	142.31
179.544	77.28
179.764	60.31
179.984	41.08
180.204	26.75
180.423	35.51
180.643	48.77
180.863	108.52
181.083	62.06
181.302	53
181.522	46.6
181.742	56.72
181.961	59.58
182.181	95.3
182.401	222.38
182.621	176.01
182.84	206.85
183.06	140.58
183.279	82.28
183.499	180.11
183.719	145.67
183.938	76.2
184.158	114.46
184.377	128.57
184.597	121.52
184.816	109.7
185.036	136.66
185.256	148.94
185.475	121.7
185.695	100.23
185.914	91.61
186.134	91.05
186.353	98.13
186.572	75.84
186.792	76.18
187.011	90.89
187.231	71.91
187.45	51.19
187.67	55.76
187.889	65.81
188.108	68.48
188.328	80.46
188.547	104.51
188.766	128.25
188.986	130.51
189.205	127.75
189.424	112.25
189.644	124.29
189.863	145.51
190.082	146.5
190.302	120.07
190.521	117.64
190.74	98.58
190.959	85.75
191.178	40.27
191.398	36.11
191.617	58.74
191.836	56.19
192.055	65.5
192.274	53.35
192.494	69.17
192.713	139.08
192.932	161.32
193.151	299.51
193.37	237.89
193.589	257.01
193.808	402.62
194.027	604.55
194.246	-1294.09
194.465	2289.22
194.685	174.36
194.904	204.66
195.123	117.84
195.342	122.95
195.561	84.29
195.78	72.17
195.999	84.54
196.218	57.08
196.436	66.42
196.655	79.12
196.874	75.86
197.093	87.85
197.312	77.99
197.531	88.45
197.75	85.55
197.969	91.37
198.188	90.62
198.407	77.38
198.625	86.38
198.844	81.86
199.063	89.47
199.282	100.12
199.501	107.13
199.719	109.24
199.938	82.53
200.157	82.91
200.376	88.39
200.594	87.17
200.813	93.47
201.032	84.46
201.251	91.01
201.469	65.17
201.688	68.1
201.907	68.11
202.125	73.5
202.344	111.36
202.563	117.95
202.781	107.62
203	168.95
203.218	193.32
203.437	152.85
203.656	147.13
203.874	118.74
204.093	145
204.311	146.19
204.53	153.74
204.748	110.85
204.967	115.71
205.185	135.02
205.404	99.3
205.622	72.34
205.841	78.33
206.059	58.12
206.278	41.01
206.496	40.39
206.715	41.14
206.933	38.95
207.151	44.87
207.37	31.99
207.588	30.4
207.806	45.61
208.025	56.41
208.243	59.93
208.461	82.11
208.68	107.79
208.898	110.88
209.116	93.09
209.335	94.32
209.553	116.19
209.771	121.57
209.989	107.54
210.208	83.9
210.426	76.34
210.644	83.54
210.862	67.82
211.081	59.8
211.299	48.73
211.517	48.09
211.735	50.6
211.953	50.36
212.171	54.5
212.39	52.01
212.608	68.62
212.826	75.31
213.044	65.91
213.262	73.61
213.48	84.88
213.698	83.5
213.916	97.56
214.134	80.85
214.352	88.74
214.57	77.97
214.788	90.18
215.006	94.46
215.224	109.16
215.442	139.56
215.66	135.24
215.878	124.85
216.096	146.97
216.314	121.93
216.532	156.24
216.75	133.25
216.968	169.55
217.185	173.05
217.403	194.32
217.621	227.52
217.839	160.08
218.057	168.15
218.275	175.09
218.492	221.2
218.71	248.34
218.928	217.35
219.146	321.02
219.363	214.36
219.581	240.85
219.799	261.53
220.017	221.16
220.234	207.99
220.452	217.62
220.67	216.6
220.887	272.87
221.105	343.44
221.323	4600.61
221.54	414.83
221.758	2167.5
221.976	997.01
222.193	245.99
222.411	275.05
222.629	415.94
222.846	437.12
223.064	-490.17
223.281	735.24
223.499	494.99
223.716	1025.43
223.934	-629.6
224.151	-182.29
224.369	-87
224.586	-7.03
224.804	3.65
225.021	-16.56
225.239	-45.07
225.456	-75.88
225.674	-66.37
225.891	-73.78
226.108	-95.82
226.326	-122.61
226.543	-76.29
226.76	-48.25
226.978	-35.65
227.195	-46.02
227.413	-49.31
227.63	-24.81
227.847	-10.46
228.064	0.04
228.282	-0.89
228.499	5.54
228.716	6.2
228.934	3.38
229.151	2.13
229.368	1.65
229.585	3.2
229.802	5.89
230.02	5.47
230.237	6.14
230.454	8.62
230.671	11.4
230.888	8.22
231.105	4.9
231.323	2.72
231.54	-2.08
231.757	-8.22
231.974	-12.86
232.191	-15.36
232.408	-12.56
232.625	-18.93
232.842	-25.03
233.059	-19.78
233.276	-20.16
233.493	-12.36
233.71	-7.81
233.927	4.2
234.144	10.95
234.361	10.01
234.578	9.51
234.795	4.27
235.012	6.97
235.229	6.28
235.446	1.1
235.663	1.89
235.879	-1.08
236.096	-6.29
236.313	-15.88
236.53	-14.52
236.747	-13.21
236.964	-12.96
237.181	-11.73
237.397	-11.58
237.614	-12.03
237.831	-12.11
238.048	-17.47
238.264	-24.61
238.481	-21.27
238.698	-3.39
238.915	-2.12
239.131	-2.56
239.348	-7.78
239.565	-4.1
239.781	1.06
239.998	-0.33
240.215	1.31
240.431	1.78
240.648	9.48
240.865	13.07
241.081	11.14
241.298	10.37
241.514	12.64
241.731	15.2
241.947	13.21
242.164	11.61
242.38	14.28
242.597	13.99
242.814	15.1
243.03	13.66
243.246	13.15
243.463	11.9
243.679	10.21
243.896	9.29
244.112	8.97
244.329	10.07
244.545	11.3
244.762	12.99
244.978	14.88
245.194	14.09
245.411	13.6
245.627	11.7
245.843	10.66
246.06	11.25
246.276	10.95
246.492	12
246.709	10.4
246.925	10.18
247.141	9.22
247.357	9.45
247.574	9.41
247.79	10.55
248.006	11.43
248.222	11.38
248.439	10.92
248.655	10.52
248.871	10.43
249.087	11.9
249.303	12.02
249.519	11.8
249.736	10.93
249.952	12.73
250.168	12.1
250.384	10.07
250.6	10.39
250.816	11.46
251.032	11.1
251.248	9.83
251.464	8.56
251.68	8.68
251.896	8.42
252.112	7.45
252.328	3.66
252.544	1.45
252.76	0.87
252.976	0.69
253.192	1.05
253.408	1.69
253.624	-0.9
253.84	-0.54
254.056	-2.67
254.272	-4.07
254.487	-6.79
254.703	-3.38
254.919	-3.31
255.135	-3.01
255.351	-7.27
255.567	-5.87
255.782	-1.56
255.998	2.58
256.214	2.01
256.43	7.14
256.646	7.21
256.861	12.05
257.077	10.97
257.293	13.5
257.508	15.9
257.724	16.74
257.94	16.75
258.155	14.8
258.371	13.33
258.587	11.73
258.802	9.07
259.018	9.95
259.234	9.85
259.449	9.89
259.665	9.32
259.88	8.58
260.096	9.35
260.312	9.07
260.527	9.22
260.743	9.29
260.958	10.05
261.174	10.42
261.389	10.4
261.605	10.12
261.82	9.8
262.036	9.98
262.251	9.91
262.466	8.95
262.682	8.01
262.897	6.24
263.113	6.17
263.328	5.71
263.543	5.47
263.759	3.06
263.974	0.86
264.189	1.38
264.405	-0.33
264.62	0.31
264.835	3.51
265.051	4.79
265.266	4.06
265.481	5.15
265.696	5.91
265.912	6.02
266.127	6.68
266.342	9.3
266.557	9.78
266.773	9.98
266.988	10.06
267.203	9.45
267.418	9.92
267.633	12.26
267.848	10.97
268.064	10.65
268.279	11.33
268.494	10.4
268.709	8.84
268.924	10.31
269.139	9.65
269.354	10.5
269.569	9.45
269.784	9.13
269.999	8.09
270.214	9.22
270.429	7.05
270.644	7.45
270.859	8.53
271.074	8.76
271.289	6.99
271.504	8.1
271.719	8.7
271.934	7.81
272.149	8.18
272.363	8.49
272.578	8.48
272.793	9.99
273.008	8.25
273.223	8.73
273.438	8.24
273.653	9.32
273.867	8.09
274.082	6.73
274.297	7.12
274.512	5.85
274.726	4.61
274.941	3.57
275.156	4.47
275.371	6.74
275.585	5.72
275.8	7
276.015	5.74
276.229	8.13
276.444	8.24
276.659	8.27
276.873	9.28
277.088	9.93
277.302	10.34
277.517	9.95
277.732	7.78
277.946	8.97
278.161	7.05
278.375	7.43
278.59	8.57
278.804	7.11
279.019	7.73
279.233	7.8
279.448	7.12
279.662	6.84
279.877	7.43
280.091	9.37
280.306	8.59
280.52	9.28
280.735	9.65
280.949	6.95
281.163	8.57
281.378	8.18
281.592	8.69
281.806	10.4
282.021	9.41
282.235	8.61
282.449	7.5
282.664	7.97
282.878	7.84
283.092	7.83
283.307	8.37
283.521	8.33
283.735	8.43
283.949	7.67
284.164	7.06
284.378	8.35
284.592	7.92
284.806	7.24
285.02	7.16
285.234	7.9
285.449	7.63
285.663	8.12
285.877	8.37
286.091	8.44
286.305	8.83
286.519	8.27
286.733	7.78
286.947	8.52
287.161	10.13
287.375	10.54
287.589	10.8
287.803	10.65
288.017	10.37
288.231	9.58
288.445	9.45
288.659	9.44
288.873	9.19
289.087	9.88
289.301	8.86
289.515	8.3
289.729	7.04
289.943	5.57
290.157	4.66
290.371	5.68
290.584	6.59
290.798	6.17
291.012	7.14
291.226	7.36
291.44	6.7
291.654	6.55
291.867	6.87
292.081	9.01
292.295	10.26
292.509	11.4
292.722	10.75
292.936	10.33
293.15	12.16
293.364	10.39
293.577	11.17
293.791	12.46
294.005	13.85
294.218	13.74
294.432	12.28
294.645	11.23
294.859	12.87
295.073	12.59
295.286	12.63
295.5	12.81
295.713	13.07
295.927	12.98
296.14	11.82
296.354	11.58
296.568	11.63
296.781	12.01
296.994	13.48
297.208	11.67
297.421	11.99
297.635	12.27
297.848	11.6
298.062	12.31
298.275	12.66
298.489	12.89
298.702	13.14
298.915	12.21
299.129	12.31
299.342	11.34
299.555	11.03
299.769	11.45
299.982	11.51
300.195	11.11
300.409	10.69
300.622	9.42
300.835	8.85
301.048	8.33
301.262	9.19
301.475	8.19
301.688	8.19
301.901	9.53
302.115	8.13
302.328	7.79
302.541	8.37
302.754	7.68
302.967	7.3
303.18	7.92
303.393	7.91
303.607	7.79
303.82	8.37
304.033	8.82
304.246	9.17
304.459	10.06
304.672	10.79
304.885	11.27
305.098	10.78
305.311	12.18
305.524	10.68
305.737	10.63
305.95	11.42
306.163	10.8
306.376	10.07
306.589	10.32
306.802	8.55
307.015	7.73
307.228	7.79
307.44	9.18
307.653	9.2
307.866	11.7
308.079	11.95
308.292	11.74
308.505	12.73
308.718	14.05
308.93	14.11
309.143	14.98
309.356	14.3
309.569	13.8
309.781	14.1
309.994	14.25
310.207	13.53
310.42	12.9
310.632	12.68
310.845	12.25
311.058	12.11
311.27	11.99
311.483	12.47
311.696	12.55
311.908	13.07
312.121	11.93
312.333	11.12
312.546	11.44
312.759	11.94
312.971	12.64
313.184	12.25
313.396	11.49
313.609	11.09
313.821	10.58
314.034	10.14
314.246	9.32
314.459	11.04
314.671	10.74
314.884	10.59
315.096	10.22
315.309	9.04
315.521	10.63
315.733	10.62
315.946	10.68
316.158	10.75
316.371	11.33
316.583	11.55
316.795	10.81
317.008	11.35
317.22	12.58
317.432	13.13
317.644	12.41
317.857	11.95
318.069	13.1
318.281	12.46
318.494	12.22
318.706	12.32
318.918	10.83
319.13	10.86
319.342	12.18
319.555	10.71
319.767	10.26
319.979	10.07
320.191	10.65
320.403	9.84
320.615	10.39
320.827	10.08
321.039	10.17
321.252	12.16
321.464	12.43
321.676	10.75
321.888	11.24
322.1	11.79
322.312	13.44
322.524	12.92
322.736	13.33
322.948	12.95
323.16	13.5
323.372	12.25
323.584	12.46
323.796	12.42
324.007	14.03
324.219	13.97
324.431	14.21
324.643	13.88
324.855	14.65
325.067	15.53
325.279	16.37
325.491	17.87
325.702	18.96
325.914	18.31
326.126	18.3
326.338	19.07
326.55	20.8
326.761	21.9
326.973	23.04
327.185	24.01
327.396	24
327.608	23.88
327.82	23.27
328.032	24.04
328.243	24.6
328.455	25.19
328.666	25.47
328.878	26.62
329.09	26.77
329.301	28.12
329.513	26.79
329.725	27.29
329.936	27.86
330.148	29.17
330.359	30.04
330.571	31.37
330.782	32.57
330.994	32.94
331.205	32.2
331.417	31.35
331.628	30.81
331.84	30.24
332.051	30.26
332.262	31.68
332.474	31.38
332.685	32.04
332.897	32.25
333.108	32.37
333.319	32.13
333.531	31.82
333.742	32.33
333.953	32.94
334.165	34.03
334.376	33.87
334.587	33.36
334.799	33.9
335.01	34.06
335.221	34.06
335.432	34.47
335.644	34.52
335.855	35.21
336.066	35.6
336.277	34.86
336.488	34.84
336.7	33.85
336.911	34
337.122	33.47
337.333	33.15
337.544	32.06
337.755	30.47
337.966	30.18
338.177	29.69
338.388	29.18
338.599	29.65
338.811	30.25
339.022	31.54
339.233	29.72
339.444	29.13
339.655	29.02
339.866	30.13
340.076	30.44
340.287	30.35
340.498	29.76
340.709	30.06
340.92	30.35
341.131	29.41
341.342	29.43
341.553	31.07
341.764	31.48
341.975	31.38
342.185	31.58
342.396	32.15
342.607	31.87
342.818	31.87
343.029	31.71
343.239	31.06
343.45	31.09
343.661	31.28
343.872	31.47
344.082	32.28
344.293	32.68
344.504	32.45
344.714	32.58
344.925	32.75
345.136	33.53
345.346	33.58
345.557	33.77
345.768	33.79
345.978	33.18
346.189	33.06
346.399	32.64
346.61	31.57
346.821	31.52
347.031	31.57
347.242	31.79
347.452	31.02
347.663	29.73
347.873	28.74
348.084	29.14
348.294	29.63
348.504	29.36
348.715	29.07
348.925	29.63
349.136	29.71
349.346	28.74
349.557	28.85
349.767	29.13
349.977	30.73
350.188	30.55
350.398	30.68
350.608	30.51
350.819	31.19
351.029	31.05
351.239	30.87
351.449	30.77
351.66	31.52
351.87	31.53
352.08	30.91
352.29	31.13
352.501	32.58
352.711	31.95
352.921	31.76
353.131	31.27
353.341	30.57
353.552	30.46
353.762	29.95
353.972	29.76
354.182	29.33
354.392	29.69
354.602	29.57
354.812	28.68
355.022	29.09
355.232	29.05
355.442	29.1
355.652	29.53
355.862	29.43
356.072	29.56
356.282	29.47
356.492	30.44
356.702	30.16
356.912	29.9
357.122	30.59
357.332	30.3
357.542	30.24
357.752	29.7
357.962	30
358.171	30.54
358.381	30.99
358.591	30.61
358.801	29.52
359.011	29.98
359.221	29.96
359.43	29.53
359.64	29.56
359.85	29.25
360.06	29.79
360.269	29.87
360.479	29.52
360.689	29.21
360.899	29.32
361.108	29.16
361.318	28.97
361.528	29.16
361.737	29.57
361.947	29.6
362.156	29.94
362.366	29.69
362.576	29.4
362.785	29.6
362.995	29.8
363.204	29.92
363.414	30.15
363.623	30.25
363.833	29.44
364.042	28.48
364.252	28.97
364.461	28.63
364.671	28.9
364.88	28.58
365.09	28.24
365.299	27.45
365.509	27.16
365.718	27.21
365.927	26.73
366.137	27.4
366.346	27.61
366.555	26.76
366.765	26.59
366.974	26.16
367.183	25.62
367.393	25.58
367.602	25.97
367.811	26.47
368.021	26.12
368.23	26.43
368.439	26.23
368.648	26.85
368.857	26.46
369.067	26.24
369.276	25.42
369.485	26.01
369.694	25.82
369.903	25.4
370.112	25.08
370.321	25.26
370.531	24.97
370.74	24.43
370.949	23.73
371.158	24.41
371.367	24.61
371.576	24.89
371.785	25.19
371.994	25.24
372.203	25.41
372.412	24.75
372.621	24.38
372.83	24.26
373.039	24.22
373.248	24.08
373.457	23.97
373.666	23.97
373.874	23.78
374.083	23.34
374.292	22.88
374.501	22.76
374.71	22.73
374.919	23.05
375.128	23.57
375.336	24.16
375.545	24.3
375.754	24.04
375.963	23.96
376.171	24.12
376.38	24.05
376.589	24.21
376.798	24.11
377.006	24.33
377.215	23.54
377.424	22.92
377.632	22.66
377.841	22.56
378.05	22.08
378.258	22.05
378.467	21.79
378.675	21.71
378.884	21.31
379.093	21.32
379.301	21.44
379.51	21.63
379.718	20.84
379.927	20.64
380.135	20.93
380.344	21.01
380.552	20.56
380.761	20.92
380.969	21.04
381.177	21.72
381.386	21.9
381.594	22.09
381.803	22.2
382.011	22.43
382.219	22.42
382.428	22.13
382.636	22.47
382.845	22.78
383.053	22.43
383.261	22.28
383.469	21.82
383.678	21.42
383.886	21.03
384.094	20.97
384.302	21.06
384.511	20.63
384.719	20.34
384.927	20.13
385.135	20.22
385.343	19.83
385.552	19.66
385.76	19.16
385.968	18.98
386.176	18.44
386.384	18.47
386.592	18.3
386.8	18.01
387.008	17.6
387.216	17.53
387.424	16.83
387.633	17.02
387.841	16.83
388.049	17.2
388.257	16.83
388.465	16.83
388.672	16.47
388.88	16.69
389.088	17.02
389.296	17.01
389.504	16.64
389.712	16.95
389.92	16.93
390.128	16.9
390.336	16.55
390.544	16.84
390.751	16.47
390.959	16.33
391.167	16.51
391.375	16.54
391.583	16.73
391.79	16.4
391.998	16.09
392.206	16.02
392.414	15.63
392.621	15.22
392.829	14.98
393.037	15.52
393.244	15.52
393.452	14.86
393.66	14.63
393.867	14.28
394.075	14.82
394.283	14.76
394.49	14.49
394.698	14.63
394.905	14.74
395.113	14.75
395.32	14.73
395.528	14.71
395.735	14.83
395.943	14.71
396.15	14.74
396.358	14.4
396.565	14.41
396.773	14.48
396.98	14.56
397.188	14.86
397.395	14.71
397.602	14.66
397.81	14.69
398.017	14.64
398.225	14.67
398.432	14.48
398.639	14.48
398.847	14.59
399.054	14.69
399.261	14.62
399.468	14.5
399.676	14.75
399.883	14.36
400.09	14.13
400.297	14.22
400.505	14.08
400.712	14.26
400.919	13.57
401.126	13.38
401.333	13.3
401.54	13.4
401.748	13.57
401.955	13.33
402.162	13.57
402.369	13.81
402.576	13.36
402.783	13.51
402.99	13.4
403.197	13.74
403.404	13.71
403.611	13.42
403.818	13.4
404.025	13.18
404.232	13.08
404.439	12.67
404.646	12.79
404.853	13.03
405.06	12.77
405.267	12.94
405.474	13.25
405.681	13.23
405.887	13.36
406.094	13.08
406.301	12.8
406.508	12.74
406.715	13.02
406.922	13
407.128	12.85
407.335	13.22
407.542	13.23
407.749	12.95
407.955	12.93
408.162	13.09
408.369	13.09
408.575	13.33
408.782	13.45
408.989	13.21
409.195	12.97
409.402	13.12
409.609	12.98
409.815	12.83
410.022	12.99
410.228	12.86
410.435	12.86
410.642	13.21
410.848	13.12
411.055	13.08
411.261	13.22
411.468	13.1
411.674	13.2
411.881	13.1
412.087	12.82
412.294	12.97
412.5	13.05
412.706	12.78
412.913	12.36
413.119	12.35
413.326	12.57
413.532	12.81
413.738	13.08
413.945	13.12
414.151	13.07
414.357	13.32
414.564	12.99
414.77	12.47
414.976	12.77
415.182	12.92
415.389	13
415.595	12.91
415.801	12.63
416.007	12.5
416.214	12.41
416.42	12.54
416.626	12.55
416.832	12.35
417.038	12.9
417.244	12.68
417.45	12.52
417.657	12.55
417.863	12.37
418.069	12.44
418.275	12.32
418.481	12.33
418.687	12.22
418.893	12.36
419.099	12.49
419.305	12.37
419.511	12.43
419.717	12.49
419.923	12.36
420.129	12.32
420.335	12.35
420.541	12.51
420.746	12.43
420.952	12.44
421.158	12.31
421.364	12.24
421.57	12.23
421.776	12.21
421.982	12.15
422.187	12.08
422.393	12.2
422.599	12.12
422.805	12.07
423.01	12.23
423.216	12.25
423.422	12.2
423.628	12.21
423.833	12.16
424.039	12.26
424.245	12.21
424.45	12.3
424.656	12.27
424.862	12.25
425.067	12.08
425.273	11.96
425.478	11.95
425.684	11.95
425.889	11.94
426.095	12.04
426.301	11.72
426.506	11.83
426.712	11.52
426.917	11.61
427.123	11.4
427.328	11.62
427.533	11.58
427.739	11.56
427.944	11.47
428.15	11.4
428.355	11.18
428.561	11.49
428.766	11.47
428.971	11.76
429.177	11.7
429.382	11.94
429.587	11.78
429.793	11.72
429.998	11.64
430.203	11.62
430.408	11.77
430.614	11.83
430.819	11.68
431.024	11.73
431.229	11.68
431.434	11.47
431.64	11.37
431.845	11.23
432.05	11.25
432.255	11.17
432.46	11.21
432.665	11.08
432.87	11.08
433.076	10.96
433.281	10.85
433.486	10.88
433.691	10.88
433.896	10.89
434.101	10.91
434.306	10.89
434.511	10.93
434.716	10.94
434.921	11.01
435.126	10.88
435.331	11.17
435.535	11.22
435.74	11.22
435.945	11.28
436.15	11.25
436.355	11.37
436.56	11.48
436.765	11.46
436.97	11.48
437.174	11.49
437.379	11.67
437.584	11.47
437.789	11.61
437.993	11.65
438.198	11.7
438.403	11.84
438.608	11.76
438.812	11.63
439.017	11.59
439.222	11.74
439.426	11.62
439.631	11.59
439.836	11.67
440.04	11.73
440.245	11.67
440.45	11.64
440.654	11.62
440.859	11.65
441.063	11.62
441.268	11.63
441.472	11.36
441.677	11.49
441.881	11.46
442.086	11.48
442.29	11.2
442.495	11.34
442.699	11.29
442.904	11.28
443.108	11.27
443.312	11.23
443.517	11.23
443.721	11.32
443.925	11.41
444.13	11.41
444.334	11.37
444.538	11.46
444.743	11.25
444.947	11.23
445.151	11.12
445.356	11.17
445.56	11.29
445.764	11.38
445.968	11.39
446.173	11.3
446.377	11.26
446.581	11.19
446.785	11.18
446.989	11.3
447.193	11.26
447.398	11.33
447.602	11.3
447.806	11.15
448.01	11.05
448.214	11.17
448.418	10.96
448.622	10.83
448.826	10.71
449.03	10.62
449.234	10.74
449.438	10.85
449.642	10.84
449.846	10.68
450.05	10.64
450.254	10.66
450.458	10.49
450.662	10.78
450.866	10.9
451.069	11.06
451.273	11.05
451.477	10.76
451.681	10.61
451.885	10.66
452.089	10.68
452.292	10.85
452.496	10.87
452.7	11.04
452.904	11.09
453.107	11.15
453.311	11.02
453.515	11.01
453.719	10.92
453.922	10.72
454.126	10.49
454.33	10.54
454.533	10.42
454.737	10.35
454.94	10.13
455.144	9.99
455.348	10.03
455.551	10.14
455.755	10.18
455.958	10.2
456.162	10.37
456.365	10.54
456.569	10.53
456.772	10.63
456.976	10.56
457.179	10.43
457.383	10.51
457.586	10.51
457.79	10.51
457.993	10.52
458.196	10.55
458.4	10.61
458.603	10.53
458.807	10.6
459.01	10.54
459.213	10.73
459.417	10.86
459.62	10.75
459.823	10.67
460.026	10.55
460.23	10.5
460.433	10.59
460.636	10.67
460.839	10.6
461.042	10.6
461.246	10.68
461.449	10.44
461.652	10.32
461.855	10.39
462.058	10.35
462.261	10.56
462.464	10.66
462.668	10.76
462.871	10.47
463.074	10.63
463.277	10.79
463.48	10.53
463.683	10.55
463.886	10.58
464.089	10.39
464.292	10.6
464.495	10.66
464.698	10.73
464.901	10.48
465.104	10.69
465.306	10.65
465.509	10.39
465.712	10.44
465.915	10.58
466.118	10.67
466.321	10.79
466.524	10.84
466.726	10.7
466.929	10.49
467.132	10.63
467.335	10.41
467.538	10.51
467.74	10.47
467.943	10.55
468.146	10.58
468.348	10.62
468.551	10.61
468.754	10.49
468.956	10.46
469.159	10.46
469.362	10.44
469.564	10.64
469.767	10.52
469.969	10.73
470.172	10.91
470.375	10.72
470.577	10.78
470.78	10.56
470.982	10.68
471.185	10.83
471.387	11.07
471.59	11.14
471.792	11.03
471.995	10.97
472.197	10.94
472.399	10.65
472.602	10.73
472.804	10.42
473.007	10.51
473.209	10.49
473.411	10.24
473.614	10.01
473.816	9.92
474.018	10.2
474.22	10.38
474.423	10.36
474.625	10.5
474.827	10.53
475.03	10.63
475.232	10.84
475.434	10.93
475.636	10.91
475.838	11.01
476.04	10.94
476.243	10.67
476.445	10.64
476.647	10.59
476.849	10.51
477.051	10.5
477.253	10.54
477.455	10.35
477.657	10.16
477.859	10.31
478.061	10.23
478.263	10.27
478.465	10.32
478.667	10.35
478.869	10.3
479.071	10.29
479.273	10.45
479.475	10.45
479.677	10.53
479.879	10.57
480.081	10.49
480.283	10.6
480.485	10.52
480.686	10.71
480.888	10.79
481.09	10.76
481.292	10.92
481.494	10.89
481.695	10.88
481.897	10.92
482.099	10.85
482.301	10.85
482.502	10.85
482.704	10.89
482.906	10.85
483.107	10.77
483.309	10.8
483.511	10.83
483.712	10.81
483.914	10.81
484.115	10.83
484.317	10.89
484.519	10.87
484.72	10.85
484.922	10.84
485.123	10.84
485.325	10.81
485.526	10.82
485.728	10.76
485.929	10.75
486.131	10.75
486.332	10.7
486.534	10.65
486.735	10.69
486.936	10.72
487.138	10.76
487.339	10.75
487.541	10.8
487.742	10.86
487.943	10.87
488.144	10.86
488.346	10.89
488.547	10.83
488.748	10.79
488.95	10.8
489.151	10.77
489.352	10.7
489.553	10.66
489.755	10.65
489.956	10.65
490.157	10.65
490.358	10.68
490.559	10.64
490.76	10.72
490.961	10.78
491.163	10.85
491.364	10.86
491.565	10.86
491.766	10.93
491.967	10.88
492.168	10.91
492.369	10.88
492.57	10.89
492.771	10.91
492.972	10.82
493.173	10.85
493.374	10.86
493.575	10.85
493.776	10.93
493.976	10.85
494.177	10.79
494.378	10.81
494.579	10.86
494.78	10.96
494.981	10.97
495.182	11.18
495.382	11.2
495.583	11.11
495.784	11.19
495.985	11.17
496.185	11.15
496.386	11.21
496.587	10.99
496.788	11.02
496.988	10.92
497.189	11.07
497.39	11.19
497.59	11.09
497.791	11.17
497.992	11.09
498.192	11.02
498.393	11.15
498.593	11.3
498.794	11.39
498.994	11.39
499.195	11.29
499.395	11.18
499.596	11.1
499.796	11.18
499.997	11.21
500.197	11.29
500.398	11.48
500.598	11.62
500.799	11.52
500.999	11.38
501.199	11.38
501.4	11.56
501.6	11.68
501.801	11.64
502.001	11.75
502.201	11.82
502.402	11.87
502.602	11.68
502.802	11.44
503.002	11.6
503.203	11.9
503.403	11.92
503.603	12.01
503.803	12.04
504.003	11.98
504.204	11.93
504.404	11.87
504.604	11.92
504.804	12.13
505.004	12.26
505.204	12.18
505.404	12.23
505.604	12.38
505.804	12.43
506.005	12.28
506.205	12.59
506.405	12.69
506.605	12.86
506.805	12.85
507.005	12.74
507.204	12.86
507.404	12.95
507.604	12.95
507.804	12.83
508.004	12.79
508.204	12.93
508.404	12.86
508.604	12.96
508.804	12.91
509.003	13.21
509.203	13.45
509.403	13.53
509.603	13.55
509.803	13.6
510.002	13.69
510.202	13.88
510.402	13.89
510.602	13.94
510.801	13.99
511.001	14.12
511.201	13.99
511.4	13.88
511.6	13.84
511.8	14.05
511.999	14.17
512.199	14.26
512.398	14.27
512.598	14.37
512.797	14.51
512.997	14.51
513.197	14.46
513.396	14.51
513.596	14.78
513.795	14.92
513.994	14.77
514.194	14.85
514.393	15.03
514.593	15.19
514.792	15.37
514.992	15.45
515.191	15.53
515.39	15.82
515.59	16.12
515.789	16.13
515.988	16.35
516.188	16.68
516.387	16.92
516.586	16.96
516.786	16.87
516.985	16.95
517.184	17.08
517.383	17.11
517.582	17.06
517.782	17.08
517.981	17.32
518.18	17.31
518.379	17.44
518.578	17.39
518.777	17.46
518.976	17.65
519.176	17.76
519.375	17.83
519.574	18.11
519.773	18.25
519.972	18.33
520.171	18.34
520.37	18.45
520.569	18.52
520.768	18.66
520.967	18.86
521.166	19.01
521.365	19.03
521.564	19.21
521.762	19.22
521.961	19.35
522.16	19.53
522.359	19.55
522.558	19.66
522.757	19.74
522.956	19.86
523.154	20.05
523.353	20.19
523.552	20.58
523.751	20.82
523.949	21.11
524.148	21.24
524.347	21.3
524.546	21.59
524.744	21.63
524.943	21.67
525.142	21.71
525.34	21.76
525.539	21.83
525.737	21.91
525.936	21.91
526.135	22.01
526.333	22.18
526.532	22.34
526.73	22.42
526.929	22.64
527.127	22.81
527.326	22.94
527.524	23.04
527.723	23.21
527.921	23.25
528.12	23.35
528.318	23.42
528.516	23.52
528.715	23.61
528.913	23.7
529.112	23.73
529.31	23.84
529.508	23.9
529.707	23.95
529.905	24
530.103	24.05
530.301	24.08
530.5	24.21
530.698	24.19
530.896	24.23
531.094	24.3
531.293	24.44
531.491	24.52
531.689	24.59
531.887	24.69
532.085	24.83
532.283	24.9
532.481	25.08
532.68	25.05
532.878	25.16
533.076	25.3
533.274	25.3
533.472	25.35
533.67	25.4
533.868	25.6
534.066	25.75
534.264	25.79
534.462	25.91
534.66	25.97
534.858	26.04
535.056	26.18
535.253	26.27
535.451	26.39
535.649	26.59
535.847	26.71
536.045	26.73
536.243	26.71
536.441	26.88
536.638	27.07
536.836	27.15
537.034	27.26
537.232	27.28
537.43	27.17
537.627	27.23
537.825	27.2
538.023	27.17
538.22	27.26
538.418	27.35
538.616	27.29
538.813	27.28
539.011	27.32
539.209	27.34
539.406	27.57
539.604	27.81
539.801	27.82
539.999	27.87
540.196	28.07
540.394	28.24
540.591	28.41
540.789	28.44
540.986	28.61
541.184	28.7
541.381	28.79
541.579	28.78
541.776	28.88
541.974	28.99
542.171	29.11
542.368	29.24
542.566	29.26
542.763	29.31
542.96	29.4
543.158	29.42
543.355	29.54
543.552	29.64
543.75	29.71
543.947	29.7
544.144	29.79
544.341	29.74
544.539	29.67
544.736	29.71
544.933	29.82
545.13	29.78
545.327	29.8
545.524	29.73
545.722	29.74
545.919	29.88
546.116	29.92
546.313	30.05
546.51	30.19
546.707	30.27
546.904	30.36
547.101	30.27
547.298	30.48
547.495	30.58
547.692	30.7
547.889	30.82
548.086	30.74
548.283	30.76
548.48	30.75
548.677	30.84
548.874	30.77
549.07	30.65
549.267	30.72
549.464	30.82
549.661	30.86
549.858	30.85
550.055	30.77
550.251	30.85
550.448	31.14
550.645	31.09
550.842	31.04
551.038	31.25
551.235	31.52
551.432	31.52
551.628	31.54
551.825	31.38
552.022	31.4
552.218	31.42
552.415	31.36
552.612	31.07
552.808	31.08
553.005	31.24
553.201	31.32
553.398	31.27
553.594	31.42
553.791	31.54
553.987	31.58
554.184	31.68
554.38	31.83
554.577	32.21
554.773	32.53
554.97	32.65
555.166	32.72
555.362	32.63
555.559	32.61
555.755	32.75
555.952	32.45
556.148	32.64
556.344	32.67
556.541	32.65
556.737	32.52
556.933	32.54
557.129	32.5
557.326	32.35
557.522	32.52
557.718	32.6
557.914	32.65
558.11	33.01
558.307	33.01
558.503	33.18
558.699	33.23
558.895	33.01
559.091	33.07
559.287	33.28
559.483	33.42
559.679	33.4
559.876	33.48
560.072	33.32
560.268	33.13
560.464	33.43
560.66	33.49
560.856	33.55
561.052	33.82
561.247	33.87
561.443	33.85
561.639	33.88
561.835	33.79
562.031	33.73
562.227	33.79
562.423	33.7
562.619	33.62
562.815	33.57
563.01	33.7
563.206	33.61
563.402	33.62
563.598	33.65
563.793	33.76
563.989	33.85
564.185	33.88
564.381	33.72
564.576	34.06
564.772	33.86
564.968	33.79
565.163	33.62
565.359	33.83
565.555	33.97
565.75	34.03
565.946	33.96
566.141	34.01
566.337	34.16
566.532	34.34
566.728	34.32
566.923	34.29
567.119	34.33
567.314	34.51
567.51	34.49
567.705	34.17
567.901	34.16
568.096	34.16
568.292	34.29
568.487	34.28
568.682	34.31
568.878	34.21
569.073	34.34
569.268	34.41
569.464	34.41
569.659	34.41
569.854	34.76
570.05	34.92
570.245	35.25
570.44	35.25
570.635	35.17
570.831	35.16
571.026	35.07
571.221	35.16
571.416	35.09
571.611	35.13
571.806	35.16
572.002	35.16
572.197	35.13
572.392	34.98
572.587	34.94
572.782	34.96
572.977	35.05
573.172	35.21
573.367	35.16
573.562	35.29
573.757	35.11
573.952	35.09
574.147	35
574.342	35.11
574.537	35.2
574.732	35.18
574.927	35.19
575.121	35.32
575.316	35.39
575.511	35.55
575.706	35.5
575.901	35.57
576.096	35.58
576.29	35.63
576.485	35.53
576.68	35.35
576.875	35.66
577.069	35.69
577.264	35.58
577.459	35.56
577.654	35.53
577.848	35.61
578.043	35.74
578.238	35.81
578.432	35.73
578.627	35.78
578.821	36.11
579.016	35.75
579.21	35.79
579.405	35.67
579.6	35.5
579.794	35.51
579.989	35.63
580.183	35.38
580.378	35.31
580.572	35.5
580.766	35.48
580.961	35.05
581.155	34.92
581.35	35.01
581.544	35.14
581.738	35.3
581.933	35.25
582.127	35.15
582.321	35.54
582.516	35.41
582.71	35.3
582.904	35.35
583.099	35.68
583.293	36.17
583.487	36.28
583.681	36.26
583.875	36.09
584.07	36.04
584.264	36.09
584.458	36.26
584.652	36.44
584.846	36.58
585.04	36.29
585.234	36.33
585.428	36.15
585.623	36.06
585.817	36.19
586.011	36.41
586.205	36.61
586.399	36.61
586.593	36.24
586.787	36.48
586.981	36.42
587.174	36.65
587.368	36.33
587.562	36.16
587.756	36.3
587.95	36.25
588.144	36.29
588.338	36.13
588.532	36
588.725	36.18
588.919	36.2
589.113	36.25
589.307	36.24
589.501	36.42
589.694	36.74
589.888	36.62
590.082	36.69
590.275	36.68
590.469	36.54
590.663	36.58
590.856	36.72
591.05	36.45
591.244	36.39
591.437	36.29
591.631	36.28
591.824	36.21
592.018	36.37
592.212	36.37
592.405	36.43
592.599	36.51
592.792	36.54
592.986	36.45
593.179	36.82
593.372	37.01
593.566	37.45
593.759	37.41
593.953	37.41
594.146	37.17
594.339	37.04
594.533	36.91
594.726	36.92
594.92	37.16
595.113	37.21
595.306	37.01
595.499	36.98
595.693	36.77
595.886	36.96
596.079	37.02
596.272	37.37
596.466	37.45
596.659	37.69
596.852	38
597.045	38.02
597.238	37.81
597.431	37.92
597.624	37.94
597.818	38.19
598.011	38.12
598.204	38.08
598.397	37.86
598.59	37.94
598.783	38.07
598.976	37.98
599.169	38.03
599.362	38.17
599.555	38.09
599.748	37.97
599.941	37.66
600.134	37.83
600.326	37.71
600.519	37.67
600.712	37.49
600.905	37.25
601.098	37.03
601.291	36.5
601.483	36.67
601.676	36.43
601.869	36.61
602.062	36.78
602.255	36.38
602.447	36.58
602.64	36.6
602.833	36.8
603.025	36.79
603.218	36.82
603.411	37.16
603.603	37.09
603.796	37.27
603.989	37.48
604.181	37.45
604.374	37.85
604.566	37.86
604.759	37.78
604.951	37.81
605.144	37.88
605.336	38
605.529	37.91
605.721	37.88
605.914	38.06
606.106	37.94
606.299	37.86
606.491	37.78
606.683	37.77
606.876	37.81
607.068	37.84
607.26	37.67
607.453	37.81
607.645	37.86
607.837	37.95
608.03	38.04
608.222	37.94
608.414	37.92
608.606	38.04
608.799	37.82
608.991	38.02
609.183	38.02
609.375	38.35
609.567	38.42
609.759	38.36
609.952	38.6
610.144	38.56
610.336	38.81
610.528	38.87
610.72	38.82
610.912	39.27
611.104	39.4
611.296	39.46
611.488	39.45
611.68	39.33
611.872	39.38
612.064	39.1
612.256	38.91
612.448	38.59
612.64	38.64
612.832	38.51
613.023	38.12
613.215	37.76
613.407	37.53
613.599	37.42
613.791	37.41
613.983	37.47
614.174	37.82
614.366	37.62
614.558	37.7
614.75	37.94
614.941	38.08
615.133	38.12
615.325	38.28
615.516	38.33
615.708	38.39
615.9	38.4
616.091	38.57
616.283	38.39
616.475	38.86
616.666	38.95
616.858	38.68
617.049	38.7
617.241	38.86
617.432	38.76
617.624	38.74
617.815	38.32
618.007	38.36
618.198	38.33
618.39	38.26
618.581	38
618.773	37.74
618.964	37.98
619.155	38.02
619.347	38.11
619.538	38.11
619.729	38.24
619.921	38.44
620.112	38.24
620.303	37.91
620.494	37.93
620.686	37.9
620.877	38.15
621.068	37.88
621.259	37.75
621.451	37.49
621.642	37.39
621.833	37.35
622.024	37.39
622.215	37.72
622.406	38
622.597	37.99
622.788	38.11
622.98	37.92
623.171	38.49
623.362	38.55
623.553	38.43
623.744	38.67
623.935	38.63
624.126	38.84
624.317	38.57
624.508	38.47
624.698	38.47
624.889	38.04
625.08	38.05
625.271	37.79
625.462	37.49
625.653	37.93
625.844	37.84
626.034	38.16
626.225	38.19
626.416	38.25
626.607	38.24
626.798	38.2
626.988	38.81
627.179	38.87
627.37	38.97
627.56	39.11
627.751	39
627.942	39.25
628.132	38.91
628.323	38.75
628.514	38.71
628.704	38.89
628.895	38.87
629.085	38.5
629.276	38.61
629.466	38.76
629.657	38.87
629.847	38.71
630.038	38.57
630.228	38.85
630.419	39
630.609	39.33
630.8	39.29
630.99	39.59
631.181	39.66
631.371	39.67
631.561	39.5
631.752	39.79
631.942	39.97
632.132	40.01
632.323	39.61
632.513	39.83
632.703	39.76
632.893	39.58
633.084	39.21
633.274	39.12
633.464	38.93
633.654	38.76
633.844	38.4
634.034	38.45
634.225	38.17
634.415	38.52
634.605	38.16
634.795	37.78
634.985	38.04
635.175	38.22
635.365	38.32
635.555	38.34
635.745	38.24
635.935	38.25
636.125	38.45
636.315	38.55
636.505	38.62
636.695	38.46
636.885	38.5
637.075	38.46
637.265	38.59
637.455	38.52
637.644	38.81
637.834	38.98
638.024	38.93
638.214	38.66
638.404	38.69
638.593	38.6
638.783	38.86
638.973	38.93
639.163	38.89
639.352	38.62
639.542	38.63
639.732	38.56
639.921	38.44
640.111	38.47
640.301	38.16
640.49	38.24
640.68	38.55
640.87	38.69
641.059	38.92
641.249	39.17
641.438	39.14
641.628	39.44
641.817	39.58
642.007	39.68
642.196	39.84
642.386	40.39
642.575	39.99
642.764	39.59
642.954	39.39
643.143	39.3
643.333	38.88
643.522	38.71
643.711	38.52
643.901	38.45
644.09	38.53
644.279	38.53
644.469	38.47
644.658	38.82
644.847	38.6
645.036	38.56
645.226	38.52
645.415	38.67
645.604	38.97
645.793	39.05
645.982	38.82
646.171	38.69
646.361	38.45
646.55	38.18
646.739	37.88
646.928	37.96
647.117	37.93
647.306	38.33
647.495	38.34
647.684	38.36
647.873	38.47
648.062	38.43
648.251	38.43
648.44	38.6
648.629	39.25
648.818	39.92
649.007	40.38
649.196	40.46
649.384	39.95
649.573	40.31
649.762	40.62
649.951	40.69
650.14	40.69
650.328	40.55
650.517	40.64
650.706	39.81
650.895	39.46
651.083	39.34
651.272	39.15
651.461	39.39
651.65	38.81
651.838	39.09
652.027	38.83
652.216	39.09
652.404	39.4
652.593	39.56
652.781	39.76
652.97	39.94
653.158	39.9
653.347	40.18
653.535	40.2
653.724	40.24
653.912	39.69
654.101	40.1
654.289	39.83
654.478	39.46
654.666	39.3
654.855	39.5
655.043	39.77
655.231	39.62
655.42	39.38
655.608	39.06
655.796	39.77
655.985	39.66
656.173	39.05
656.361	39.07
656.55	39.36
656.738	39.43
656.926	39.24
657.114	38.62
657.302	38.45
657.491	38.86
657.679	39.05
657.867	39.07
658.055	39.03
658.243	39
658.431	39.19
658.619	39.17
658.807	39.13
658.996	39.15
659.184	39.38
659.372	39.49
659.56	39.38
659.748	39.41
659.936	39
660.124	39.09
660.311	39.42
660.499	39.44
660.687	39.36
660.875	39.44
661.063	39.6
661.251	39.7
661.439	39.42
661.627	39.33
661.814	39.27
662.002	39.39
662.19	39.65
662.378	39.83
662.565	39.59
662.753	39.72
662.941	39.59
663.129	39.39
663.316	39.22
663.504	39.86
663.692	39.77
663.879	40.16
664.067	40.43
664.254	40.51
664.442	40.12
664.63	40.55
664.817	40.7
665.005	40.96
665.192	41.06
665.38	40.65
665.567	40.68
665.755	40.99
665.942	40.71
666.13	40.3
666.317	40.02
666.504	39.92
666.692	39.58
666.879	39.71
667.067	39.72
667.254	39.3
667.441	39.86
667.629	39.37
667.816	39.09
668.003	39.21
668.19	39.14
668.378	39.35
668.565	39.49
668.752	39.68
668.939	39.45
669.127	39.25
669.314	39.44
669.501	39.5
669.688	40.11
669.875	40.16
670.062	39.92
670.249	40.22
670.436	39.73
670.623	39.91
670.81	39.9
670.997	39.88
671.184	39.63
671.371	39.88
671.558	39.71
671.745	39.39
671.932	39.39
672.119	38.95
672.306	38.58
672.493	39.3
672.68	38.94
672.867	38.82
673.054	38.53
673.24	38.92
673.427	38.71
673.614	38.73
673.801	38.87
673.988	39.29
674.174	39.44
674.361	39.96
674.548	39.53
674.734	40.1
674.921	39.81
675.108	40.15
675.294	40
675.481	40.32
675.668	40.1
675.854	40.26
676.041	39.82
676.227	40.05
676.414	39.72
676.601	40.21
676.787	39.84
676.974	39.83
677.16	39.71
677.347	40.04
677.533	39.89
677.719	40.25
677.906	39.51
678.092	39.64
678.279	40.21
678.465	39.92
678.651	39.49
678.838	39.73
679.024	40.45
679.21	40.52
679.397	40.48
679.583	40.37
679.769	40.53
679.955	41.31
680.142	41.32
680.328	41.29
680.514	41.51
680.7	41.67
680.886	41.62
681.073	41.33
681.259	40.8
681.445	40.48
681.631	40.81
681.817	40.22
682.003	39.94
682.189	39.9
682.375	39.74
682.561	39.71
682.747	39.53
682.933	39.11
683.119	38.78
683.305	39.14
683.491	39.26
683.677	38.67
683.863	39.28
684.049	39.06
684.235	38.93
684.42	38.65
684.606	39.26
684.792	39.33
684.978	39.64
685.164	40.32
685.349	40.55
685.535	40.5
685.721	41.11
685.907	40.49
686.092	41.28
686.278	41.35
686.464	41.29
686.649	40.51
686.835	40.95
687.021	40.58
687.206	40.71
687.392	40.83
687.577	41.2
687.763	41.37
687.948	41.33
688.134	40.47
688.319	40.29
688.505	40.64
688.69	40.43
688.876	40.29
689.061	41.74
689.247	40.87
689.432	40.39
689.618	40.17
689.803	40.03
689.988	40.2
690.174	40.61
690.359	40.65
690.544	41.1
690.73	41.66
690.915	41.81
691.1	40.77
691.285	41.6
691.471	41.62
691.656	41.8
691.841	41.66
692.026	41.37
692.211	41.02
692.396	40.91
692.582	39.87
692.767	39.32
692.952	38.79
693.137	38.56
693.322	37.95
693.507	38.32
693.692	38.1
693.877	38.14
694.062	39.42
694.247	40.29
694.432	41.11
694.617	41.09
694.802	41.06
694.987	41.35
695.172	41.47
695.357	42.5
695.541	42.26
695.726	42.27
695.911	42.12
696.096	41.76
696.281	41.46
696.466	41.23
696.65	41.71
696.835	42.46
697.02	42.35
697.204	41.92
697.389	41.01
697.574	41.2
697.759	41.19
697.943	41.04
698.128	40.94
698.312	40.66
698.497	40.26
698.682	40.16
698.866	39.82
699.051	40.09
699.235	40.04
699.42	40.28
699.604	40.22
699.789	40.43
699.973	40.56
700.158	40.49
700.342	40.37
700.527	40.58
700.711	40.57
700.895	40.48
701.08	40.31
701.264	40.78
701.448	40.83
701.633	40.81
701.817	39.75
702.001	39.8
702.186	39.64
702.37	39.8
702.554	40.06
702.738	40.65
702.923	41.29
703.107	41.25
703.291	40.91
703.475	40.45
703.659	40.53
703.843	41.11
704.027	41.8
704.212	41.62
704.396	41.39
704.58	40.98
704.764	40.35
704.948	40.21
705.132	40.06
705.316	40.73
705.5	41.27
705.684	41.66
705.868	42.76
706.052	42.19
706.235	42.08
706.419	42.4
706.603	43.16
706.787	42.79
706.971	42.44
707.155	42.78
707.339	43.48
707.522	43.18
707.706	42.5
707.89	41.81
708.074	41.93
708.257	42.49
708.441	41.74
708.625	41.07
708.808	41.66
708.992	41.72
709.176	41.48
709.359	40.05
709.543	40.2
709.727	40.63
709.91	40.49
710.094	40.16
710.277	40.32
710.461	40.72
710.644	40.71
710.828	40.87
711.011	40.79
711.195	40.52
711.378	40.65
711.562	40.31
711.745	40.17
711.928	39.82
712.112	39.86
712.295	38.98
712.478	39.25
712.662	39
712.845	38.18
713.028	38.23
713.212	38.78
713.395	38.77
713.578	38.26
713.761	38.6
713.945	39.31
714.128	39.14
714.311	39.85
714.494	39.98
714.677	39.62
714.86	40.75
715.043	40.65
715.227	40.81
715.41	40.67
715.593	41.57
715.776	41.76
715.959	41.57
716.142	41.58
716.325	41.36
716.508	41
716.691	41.74
716.874	40.97
717.057	41.23
717.239	40.18
717.422	40.11
717.605	39.89
717.788	39.23
717.971	39.02
718.154	39.06
718.337	38.99
718.519	39.08
718.702	39.01
718.885	39.29
719.068	38.76
719.25	39.74
719.433	40.01
719.616	40.41
719.798	40.6
719.981	40.18
720.164	40.03
720.346	40.5
720.529	40.75
720.712	40.08
720.894	39.59
721.077	40.06
721.259	39.24
721.442	38.95
721.624	38.02
721.807	37.6
721.989	38.63
722.172	39.76
722.354	39.38
722.537	40.11
722.719	40.46
722.901	40.81
723.084	40.91
723.266	41.19
723.448	41.5
723.631	42.25
723.813	42.31
723.995	40.98
724.178	40.09
724.36	40.32
724.542	39.2
724.724	39
724.907	38.34
725.089	38.68
725.271	38.7
725.453	39.58
725.635	39
725.817	39.26
725.999	39.46
726.181	39.67
726.364	40.13
726.546	40.22
726.728	40.62
726.91	41.28
727.092	40.73
727.274	40.66
727.456	39.84
727.638	39.9
727.819	40.16
728.001	41.48
728.183	41.44
728.365	40.52
728.547	41.15
728.729	40.76
728.911	40.53
729.093	41.2
729.274	40.86
729.456	41.26
729.638	41.43
729.82	41.27
730.001	40.54
730.183	41.36
730.365	41.94
730.546	41.25
730.728	41.38
730.91	41.37
731.091	39.24
731.273	39.26
731.455	39.16
731.636	39.21
731.818	39.53
731.999	39.56
732.181	38.14
732.362	38.04
732.544	37.79
732.725	38.38
732.907	38.34
733.088	38.78
733.27	38.97
733.451	38.73
733.633	38.48
733.814	38.73
733.995	38.61
734.177	37.9
734.358	38.47
734.539	38.8
734.721	38.42
734.902	39.06
735.083	39.9
735.264	40.6
735.446	40.16
735.627	41.04
735.808	40.74
735.989	39.94
736.17	41.92
736.351	41.15
736.533	42.3
736.714	42.63
736.895	41.99
737.076	42.58
737.257	42.18
737.438	42.67
737.619	42.47
737.8	42.16
737.981	43.05
738.162	42.3
738.343	42.57
738.524	41.02
738.705	40.8
738.886	40.41
739.067	40.38
739.247	39.2
739.428	39.16
739.609	39.11
739.79	39.29
739.971	40.18
740.151	39.41
740.332	38.87
740.513	40.11
740.694	39.96
740.874	40.49
741.055	39.39
741.236	40.18
741.417	40.72
741.597	40.5
741.778	39.76
741.958	38.02
742.139	38.24
742.32	39.82
742.5	38.99
742.681	38.68
742.861	38.76
743.042	39.44
743.222	40.33
743.403	39.46
743.583	39.02
743.764	38.16
743.944	38.41
744.124	39.49
744.305	38.06
744.485	38.66
744.666	39.09
744.846	38.78
745.026	38.41
745.207	38.02
745.387	38.41
745.567	37.85
745.747	38.53
745.928	39.54
746.108	39.58
746.288	40.21
746.468	39.17
746.648	39.1
746.829	39.28
747.009	40.01
747.189	39.9
747.369	40.17
747.549	40.85
747.729	40.77
747.909	40.85
748.089	40.4
748.269	40.44
748.449	41.65
748.629	41.84
748.809	42.15
748.989	43.69
749.169	43.23
749.349	42.05
749.529	42.32
749.709	43.01
749.889	42.17
750.068	41.45
750.248	40.26
750.428	38.92
750.608	37.48
750.788	38.07
750.967	36.1
751.147	35.66
751.327	37.93
751.507	37.76
751.686	38.58
751.866	39.35
752.046	39.97
752.225	39.98
752.405	40.87
752.585	42.5
752.764	41.91
752.944	42.58
753.123	43.58
753.303	40.39
753.482	41.02
753.662	40.68
753.841	40.49
754.021	39.39
754.2	41.37
754.38	41.18
754.559	41.42
754.739	40.74
754.918	40.64
755.097	40.02
755.277	42.51
755.456	41.98
755.635	40.79
755.815	40.42
755.994	42.07
756.173	40.52
756.352	40.79
756.532	39.94
756.711	41.6
756.89	40.89
757.069	40.68
757.248	39.69
757.427	39.94
757.607	40
757.786	39.94
757.965	40.24
758.144	39.9
758.323	39.38
758.502	41.68
758.681	41.21
758.86	41.64
759.039	41.99
759.218	42.26
759.397	42.02
759.576	42.18
759.755	41.67
759.934	40.9
760.113	41.26
760.291	42.32
760.47	40.49
760.649	39.77
760.828	39.81
761.007	39.65
761.186	40.5
761.364	39.68
761.543	41.39
761.722	41.91
761.901	41.37
762.079	40.91
762.258	39.99
762.437	40.08
762.615	39.31
762.794	39.89
762.972	40.47
763.151	40.21
763.33	41.86
763.508	40.69
763.687	41.14
763.865	41.76
764.044	42.17
764.222	41.86
764.401	41.6
764.579	42.77
764.758	42.53
764.936	42.1
765.114	42.18
765.293	41.34
765.471	42.27
765.65	42
765.828	41.1
766.006	40.74
766.184	41.71
766.363	41.65
766.541	41.23
766.719	41.63
766.898	42.18
767.076	40.93
767.254	40.47
767.432	39.45
767.61	39.74
767.788	39.78
767.967	39.88
768.145	37.73
768.323	38.05
768.501	39.19
768.679	38.85
768.857	36.54
769.035	37.27
769.213	37.25
769.391	37.36
769.569	36.25
769.747	36.39
769.925	36.71
770.103	37.15
770.281	36.8
770.459	34.93
770.636	35.43
770.814	38.76
770.992	38.96
771.17	38.37
771.348	37.94
771.525	38.26
771.703	37.65
771.881	37.45
772.059	38.03
772.236	37.39
772.414	35.69
772.592	34.61
772.769	33.14
772.947	33.31
773.125	35.42
773.302	35.43
773.48	35.78
773.657	37.05
773.835	38.59
774.013	36.83
774.19	37.21
774.368	40.4
774.545	38.81
774.723	36.16
774.9	35.64
775.077	33.44
775.255	32.9
775.432	31.91
775.61	30.9
775.787	29.63
775.964	33.09
776.142	32.92
776.319	32.28
776.496	32.24
776.674	35.16
776.851	36.62
777.028	35.21
777.205	36.97
777.382	38.14
777.56	39.26
777.737	39.06
777.914	37.17
778.091	38.14
778.268	36.72
778.445	39.37
778.622	38.64
778.8	37.44
778.977	39.17
779.154	37.6
779.331	35.34
779.508	34.21
779.685	32.51
779.862	32.88
780.038	32.88
780.215	35.3
780.392	32.29
780.569	31.32
780.746	32.65
780.923	32.31
781.1	32.77
781.277	34.04
781.453	36.17
781.63	37.7
781.807	37.41
781.984	37.92
782.16	36.66
782.337	36.7
782.514	35.81
782.691	34.97
782.867	34.91
783.044	34.87
783.221	35.21
783.397	33.36
783.574	31.98
783.75	33.53
783.927	34.89
784.103	37.16
784.28	38.92
784.456	42.78
784.633	41.55
784.809	42
784.986	42.2
785.162	41.94
785.339	42.22
785.515	41.49
785.692	40.53
785.868	37.19
786.044	34.63
786.221	33.1
786.397	31.98
786.573	32.88
786.749	34.03
786.926	32.44
787.102	31.11
787.278	33.18
787.454	36.33
787.631	34.37
787.807	35.56
787.983	35.7
788.159	37.49
788.335	34.29
788.511	35.02
788.687	32.41
788.863	35.57
789.039	39.06
789.216	36.4
789.392	37.46
789.568	38.9
789.744	37.47
789.919	37
790.095	37.63
790.271	41.19
790.447	43.05
790.623	46.26
790.799	47.08
790.975	44.53
791.151	45.53
791.327	44.63
791.502	43.92
791.678	43.67
791.854	42.16
792.03	41.5
792.205	40.95
792.381	40.2
792.557	39.06
792.733	36.95
792.908	39.85
793.084	42.14
793.259	41.31
793.435	44.22
793.611	46.28
793.786	47.69
793.962	48.05
794.137	47.5
794.313	45.89
794.488	45.02
794.664	44.67
794.839	39.98
795.015	38.16
795.19	37.45
795.366	34.67
795.541	33.53
795.716	34.4
795.892	33.47
796.067	34.17
796.242	34.85
796.418	34.07
796.593	35.43
796.768	35.08
796.944	34.38
797.119	33.77
797.294	36.22
797.469	36.9
797.644	35.34
797.82	33.57
797.995	33.71
798.17	33.08
798.345	32.9
798.52	30.07
798.695	32.24
798.87	33.43
799.045	35.71
799.22	34.57
799.395	34.32
799.57	37.34
799.745	37.66
799.92	36.42
800.095	37.75
800.27	37.84
800.445	39.82
800.62	39.37
800.795	38.45
800.97	36.44
801.145	35.51
801.319	35.37
801.494	32.96
801.669	34.76
801.844	34.13
802.018	35.56
802.193	37.32
802.368	34.77
802.543	34.38
802.717	34.62
802.892	37.06
803.067	37.01
803.241	37.24
803.416	40.08
803.59	38.95
803.765	39.56
803.94	35.32
804.114	33.46
804.289	33.31
804.463	33.39
804.638	33.3
804.812	31.08
804.986	32.21
805.161	31.94
805.335	29.12
805.51	31.33
805.684	31.33
805.858	34.61
806.033	37.82
806.207	38.15
806.381	39.26
806.556	43.05
806.73	43.19
806.904	42.78
807.078	40.92
807.253	43.16
807.427	41.44
807.601	40.14
807.775	37.63
807.949	37.17
808.123	37.05
808.298	38.08
808.472	33.67
808.646	31.76
808.82	32.69
808.994	33.57
809.168	31.79
809.342	32.2
809.516	36.59
809.69	36.55
809.864	35.55
810.038	37.46
810.212	33.79
810.385	32.5
810.559	32.82
810.733	27.94
810.907	28.44
811.081	28.64
811.255	25.56
811.428	23.82
811.602	26.03
811.776	25.18
811.95	24.88
812.123	28.92
812.297	30.8
812.471	33.28
812.644	36
812.818	40.01
812.992	38.21
813.165	41.55
813.339	40.04
813.512	38.34
813.686	39.24
813.86	37.54
814.033	34.64
814.207	36.61
814.38	36.59
814.554	43.1
814.727	41.08
814.9	42.91
815.074	46.83
815.247	42.08
815.421	44.46
815.594	44.64
815.767	40.38
815.941	39.45
816.114	37.07
816.287	35.24
816.46	28.74
816.634	27.66
816.807	22.96
816.98	19.8
817.153	25.65
817.327	22.22
817.5	20.55
817.673	25.17
817.846	28.63
818.019	31.24
818.192	30.31
818.365	32.29
818.538	36.38
818.711	41.93
818.884	40.75
819.057	38.81
819.23	37.64
819.403	38.64
819.576	40.27
819.749	38.81
819.922	36.16
820.095	37.47
820.268	36.79
820.441	35.04
820.614	36.14
820.786	36.16
820.959	37.03
821.132	36.87
821.305	37.33
821.477	38.87
821.65	39.66
821.823	39.61
821.996	40.27
822.168	40
822.341	39.66
822.514	38.98
822.686	39.79
822.859	40.68
823.031	41.55
823.204	41.39
823.376	40.88
823.549	40.97
823.722	41.36
823.894	41.42
824.067	40.94
824.239	40.57
824.411	41.37
824.584	41.16
824.756	40.41
824.929	40.54
825.101	40.58
825.273	40.14
825.446	39.96
825.618	40.06
825.79	40.11
825.963	40.88
826.135	41.04
826.307	40.28
826.479	38.87
826.652	38.52
826.824	37.51
826.996	36.99
827.168	37.08
827.34	36.75
827.512	37.22
827.684	36.61
827.856	37.29
828.029	38.14
828.201	38.84
828.373	40.55
828.545	41
828.717	40.75
828.889	40.13
829.061	40.19
829.232	39.59
829.404	38.49
829.576	37.98
829.748	36.48
829.92	37.05
830.092	35.96
830.264	34.59
830.436	35.64
830.607	35.85
830.779	37.21
830.951	36.28
831.123	37.7
831.294	36.3
831.466	36.52
831.638	37.95
831.809	35.15
831.981	34.93
832.153	35.9
832.324	32.14
832.496	29.51
832.667	28.33
832.839	29.03
833.011	31.14
833.182	30.89
833.354	28.79
833.525	30.92
833.697	33.36
833.868	34.78
834.039	35.76
834.211	38.17
834.382	40.98
834.554	42.63
834.725	44.04
834.896	41.25
835.068	43.27
835.239	43.92
835.41	43.33
835.581	42.41
835.753	41.73
835.924	38.55
836.095	37.82
836.266	37.3
836.438	36.51
836.609	35.38
836.78	37.84
836.951	38.7
837.122	40.34
837.293	39.95
837.464	39.87
837.635	38.3
837.806	41.26
837.977	42.54
838.148	42.01
838.319	41.9
838.49	44.78
838.661	42.26
838.832	41.24
839.003	35.51
839.174	28.7
839.345	30.32
839.516	26.55
839.687	23.9
839.857	24.1
840.028	27.84
840.199	31.27
840.37	25.84
840.54	28.83
840.711	30.08
840.882	32.99
841.053	38.77
841.223	36.8
841.394	43.07
841.564	41.8
841.735	38.16
841.906	38.59
842.076	30.68
842.247	30.72
842.417	22.89
842.588	19.1
842.758	26.35
842.929	19.84
843.099	7.83
843.27	-1.03
843.44	5.02
843.611	0.01
843.781	-8.05
843.951	-0.65
844.122	0.94
844.292	6.88
844.462	0.36
844.633	-4.49
844.803	12.11
844.973	23.78
845.144	28.39
845.314	19.15
845.484	34.96
845.654	38.66
845.824	42.78
845.995	37.56
846.165	30.22
846.335	36.88
846.505	23.5
846.675	8.95
846.845	5.22
847.015	-4.27
847.185	-0.21
847.355	-16.14
847.525	-2.65
847.695	-4.1
847.865	-9.98
848.035	-7.46
848.205	-27.07
848.375	-3.31
848.545	-2.93
848.715	-9.27
848.884	-4.46
849.054	-16.73
849.224	-12.89
849.394	-32.77
849.564	-26.83
849.733	4.45
849.903	-4.51
850.073	13.92
850.243	12.62
850.412	-0.17
850.582	-5.28
850.752	-16.7
850.921	12.41
851.091	15.24
851.26	14.57
851.43	14.16
851.599	-7.11
851.769	-14.51
851.939	-32.14
852.108	-74.03
852.278	-43.97
852.447	-10.14
852.616	-3.82
852.786	-39.54
852.955	-50.77
853.125	-41.32
853.294	-51.75
853.463	-65.82
853.633	-106.4
853.802	-108.34
853.971	-92.63
854.141	-121.94
854.31	-165.3
854.479	-237.15
854.648	-212.99
854.818	-194.85
854.987	-193.86
855.156	-195.14
855.325	-113.55
855.494	-51.27
855.663	-53.67
855.832	-92.01
856.001	-32.34
856.171	-35.92
856.34	-26.62
856.509	-52.37
856.678	-23.09
856.847	16.56
857.016	-4.89
857.185	-1.13
857.353	-2.42
857.522	16.86
857.691	29
857.86	23.69
858.029	53.62
858.198	52.53
858.367	48.04
858.535	29.3
858.704	11.37
858.873	40.19
859.042	28.06
859.21	18.76
859.379	-8.79
859.548	-17.98
859.717	-17.69
859.885	-23.84
860.054	-7.85
860.222	-26.11
860.391	-19.08
860.56	8.12
860.728	4.69
860.897	12.8
861.065	17.9
861.234	31.63
861.402	44.43
861.571	43.81
861.739	41.35
861.908	41.37
862.076	56.29
862.244	58.42
862.413	54.92
862.581	49.47
862.749	34.24
862.918	37.38
863.086	44.19
863.254	25.42
863.423	97.44
863.591	71.53
863.759	1.28
863.927	-32.78
864.096	-288.38
864.264	324.32
864.432	574.3
864.6	-709.65
864.768	-224.09
864.936	-77.99
865.104	12.21
865.272	27.18
865.44	16.89
865.608	57.34
865.776	4.69
865.944	34.84
866.112	39.42
866.28	34.66
866.448	41.39
866.616	36.27
866.784	36.16
866.952	5.68
867.12	-0.33
867.288	11.09
867.455	-5.03
867.623	7.62
867.791	11.83
867.959	10.09
868.127	25.4
868.294	14.09
868.462	-2.38
868.63	-1.64
868.797	-4.84
868.965	-65.41
869.133	-106.47
869.3	-138.78
869.468	-51.18
869.636	-38.87
869.803	-70.19
869.971	-84.98
870.138	-45.64
870.306	-34.06
870.473	-48.06
870.641	-42.15
870.808	-26.27
870.975	-31.92
871.143	-1.17
871.31	-19.39
871.478	-72.28
871.645	-24.97
871.812	-25.82
871.98	-58.71
872.147	-55.7
872.314	-19.95
872.482	6.73
872.649	-41.14
872.816	-10.5
872.983	-152.65
873.15	-64.96
873.318	-57.12
873.485	-56.68
873.652	-5.68
873.819	-17.74
873.986	-14.97
874.153	-15.96
874.32	-31.17
874.487	-13.02
874.654	-18.57
874.821	-16.95
874.988	-2.36
875.155	6.32
875.322	21.87
875.489	13.05
875.656	7.28
875.823	-3.02
875.99	0.77
876.157	13.09
876.324	21.49
876.49	22.75
876.657	27.83
876.824	26.54
876.991	28.19
877.157	8.41
877.324	16.02
877.491	30.29
877.658	25.41
877.824	22.77
877.991	21.47
878.157	10.19
878.324	1.49
878.491	13.18
878.657	4.04
878.824	-1.97
878.99	8.1
879.157	-13.68
879.323	6.56
879.49	39.65
879.656	22.06
879.823	10.09
879.989	16.28
880.156	21.23
880.322	21.5
880.488	33.25
880.655	41.68
880.821	13.36
880.987	32.09
881.154	32.8
881.32	22.39
881.486	22.18
881.652	28.81
881.819	33.59
881.985	31.18
882.151	34.31
882.317	27.86
882.483	26.78
882.649	32.94
882.816	30.14
882.982	33.21
883.148	34.45
883.314	36.71
883.48	36.27
883.646	35.6
883.812	36.97
883.978	36.01
884.144	37.19
884.31	36.75
884.476	37.81
884.642	38.16
884.807	36.29
884.973	37.36
885.139	39.08
885.305	40.29
885.471	41.01
885.637	40.5
885.802	40.79
885.968	42.09
886.134	43.61
886.3	41.12
886.465	40.54
886.631	40.09
886.797	37.86
886.962	34.42
887.128	31.41
887.293	28.09
887.459	23.97
887.625	19.88
887.79	18.02
887.956	18.88
888.121	19.16
888.287	19.64
888.452	17.14
888.618	9.48
888.783	-2.3
