Data from CB_110_Reflection_1.txt Node
Date: Sat Nov 14 18:12:58 EST 2015
User: robert
Spectrometer: USB4E03001
Autoset integration time: false
Trigger mode: 4
Integration Time (sec): 1.000000E-1
Scans to average: 15
Electric dark correction enabled: true
Nonlinearity correction enabled: false
Boxcar width: 5
Stray light correction enabled: false
XAxis mode: Wavelengths
Stop averaging: false
Number of Pixels in Spectrum: 3648
>>>>>Begin Spectral Data<<<<<
177.566	173.14
177.785	-11.82
178.005	82.88
178.225	119.12
178.445	1000
178.665	167.45
178.885	-407.22
179.105	106.67
179.324	130.76
179.544	66.92
179.764	74.44
179.984	64.98
180.204	7.5
180.423	17.68
180.643	22.89
180.863	14.33
181.083	36.52
181.302	44.73
181.522	59.04
181.742	54
181.961	52.16
182.181	81.63
182.401	18.97
182.621	53.1
182.84	47.27
183.06	13.1
183.279	19.01
183.499	74.2
183.719	-28.41
183.938	-52.52
184.158	26.29
184.377	48.75
184.597	0.95
184.816	26.24
185.036	35.2
185.256	62.46
185.475	72.49
185.695	56.58
185.914	48.88
186.134	56.67
186.353	69.97
186.572	47.57
186.792	49.48
187.011	53.78
187.231	61.54
187.45	67.57
187.67	50.95
187.889	59.42
188.108	70.94
188.328	68.33
188.547	73.09
188.766	76.07
188.986	79.67
189.205	74.72
189.424	75.69
189.644	75.48
189.863	86.13
190.082	100.34
190.302	79.2
190.521	46.71
190.74	45.37
190.959	36.18
191.178	35.89
191.398	29.11
191.617	35.59
191.836	23.68
192.055	32.4
192.274	-18.46
192.494	-5.46
192.713	-83.33
192.932	-10.37
193.151	-78.19
193.37	-64.23
193.589	-58.27
193.808	-37.98
194.027	-244.85
194.246	303.38
194.465	-542.16
194.685	13.21
194.904	-13.4
195.123	1.9
195.342	-29.67
195.561	7.24
195.78	30.9
195.999	34.33
196.218	15.34
196.436	28.82
196.655	31.86
196.874	42.53
197.093	55.22
197.312	51.79
197.531	65.2
197.75	74.13
197.969	93.68
198.188	95.24
198.407	81.31
198.625	82.51
198.844	93.22
199.063	68.13
199.282	68.99
199.501	45.11
199.719	38.62
199.938	33.89
200.157	37.24
200.376	20.42
200.594	29.28
200.813	29.09
201.032	31.27
201.251	20.46
201.469	50.62
201.688	51.9
201.907	46.78
202.125	53.25
202.344	67.91
202.563	29.18
202.781	23.96
203	30.83
203.218	50.28
203.437	61.31
203.656	51.37
203.874	18.76
204.093	1.3
204.311	56.83
204.53	60.89
204.748	34.65
204.967	49.29
205.185	43.26
205.404	49.95
205.622	33.1
205.841	27.79
206.059	20.68
206.278	24.88
206.496	22.42
206.715	17.27
206.933	33.16
207.151	48.79
207.37	41.96
207.588	50.34
207.806	58.94
208.025	61.75
208.243	57.85
208.461	71.05
208.68	66.25
208.898	70.65
209.116	58.63
209.335	54.42
209.553	57.35
209.771	70.32
209.989	60.42
210.208	28.24
210.426	25.42
210.644	35.52
210.862	26.54
211.081	23.67
211.299	22.06
211.517	19.17
211.735	-5.32
211.953	9.38
212.171	5.91
212.39	10.22
212.608	25.47
212.826	26.89
213.044	25.24
213.262	28.27
213.48	47.12
213.698	47.66
213.916	58.17
214.134	51.8
214.352	51.51
214.57	44.39
214.788	51.01
215.006	51.07
215.224	57.65
215.442	61.81
215.66	85.51
215.878	62.77
216.096	55.73
216.314	61.72
216.532	90.51
216.75	100.41
216.968	118.16
217.185	125.54
217.403	158.27
217.621	174.71
217.839	167.56
218.057	221.98
218.275	161.31
218.492	174.57
218.71	175.88
218.928	198.04
219.146	230.29
219.363	205.9
219.581	205.82
219.799	162.26
220.017	150.01
220.234	150.01
220.452	138.33
220.67	151.92
220.887	294.85
221.105	376.18
221.323	4333.74
221.54	388.7
221.758	1598.93
221.976	542.09
222.193	198.1
222.411	246.72
222.629	176.77
222.846	300.76
223.064	-351.66
223.281	347.99
223.499	209.75
223.716	380.7
223.934	-213.62
224.151	-60.92
224.369	-34.28
224.586	-9.27
224.804	14.38
225.021	1.22
225.239	15.14
225.456	32.33
225.674	51.08
225.891	51.46
226.108	13.02
226.326	-9.8
226.543	36.34
226.76	36.02
226.978	26
227.195	10.82
227.413	1
227.63	-4.8
227.847	-4.29
228.064	1.35
228.282	1.83
228.499	5.12
228.716	2.16
228.934	-4.97
229.151	-5.37
229.368	-3.53
229.585	-5.28
229.802	-3.69
230.02	-1.42
230.237	-2.82
230.454	-1.02
230.671	1.3
230.888	2.13
231.105	3.85
231.323	7.06
231.54	-3.31
231.757	-9.62
231.974	-10.18
232.191	-11.5
232.408	-11.6
232.625	-8.36
232.842	-19.04
233.059	-23.41
233.276	-20.37
233.493	-14.1
233.71	-9.43
233.927	9.59
234.144	13.08
234.361	11.65
234.578	13.79
234.795	11.02
235.012	5.47
235.229	8.87
235.446	7.19
235.663	2.36
235.879	-1.94
236.096	-9.15
236.313	-17.74
236.53	-11.53
236.747	-10.08
236.964	-16.94
237.181	-21.73
237.397	-18.09
237.614	-22.81
237.831	-20.64
238.048	-14.75
238.264	-15.9
238.481	-17.47
238.698	-9.98
238.915	-7.84
239.131	-4.44
239.348	2.86
239.565	8.54
239.781	8.93
239.998	10.42
240.215	8.99
240.431	5.8
240.648	9.69
240.865	13.7
241.081	17.12
241.298	16.37
241.514	17.65
241.731	17.65
241.947	15.24
242.164	15.31
242.38	16.83
242.597	16.81
242.814	18.77
243.03	18.27
243.246	18.19
243.463	16.04
243.679	14.43
243.896	13.6
244.112	12.38
244.329	13.63
244.545	15.5
244.762	13.19
244.978	14.29
245.194	10.45
245.411	9.05
245.627	7.48
245.843	6.91
246.06	7.94
246.276	8.5
246.492	9.65
246.709	8.89
246.925	8.04
247.141	8.68
247.357	9.25
247.574	9.49
247.79	10.21
248.006	10.99
248.222	11.38
248.439	11.2
248.655	10.62
248.871	11.14
249.087	12.65
249.303	12.88
249.519	13.58
249.736	11.51
249.952	13.13
250.168	13.69
250.384	12.91
250.6	12.49
250.816	11.35
251.032	12.78
251.248	11.43
251.464	7.85
251.68	9.5
251.896	7.19
252.112	8
252.328	6.69
252.544	5.6
252.76	4.18
252.976	3.03
253.192	3.37
253.408	1.71
253.624	1.72
253.84	3.51
254.056	1.01
254.272	1.23
254.487	2.38
254.703	3.76
254.919	0.21
255.135	3.88
255.351	1.62
255.567	6.7
255.782	9.43
255.998	6.41
256.214	4.55
256.43	7.53
256.646	8.85
256.861	9.74
257.077	6.24
257.293	11.44
257.508	12.06
257.724	13.32
257.94	12.57
258.155	10.77
258.371	10.83
258.587	10.23
258.802	9.83
259.018	10.11
259.234	9.96
259.449	10.49
259.665	9.11
259.88	8.5
260.096	8.36
260.312	7.98
260.527	8.1
260.743	7.6
260.958	7.96
261.174	7.83
261.389	7.3
261.605	6.55
261.82	5.85
262.036	5.67
262.251	5.79
262.466	7.29
262.682	6.83
262.897	6.07
263.113	7.17
263.328	7.35
263.543	4.97
263.759	4.4
263.974	3.75
264.189	2.52
264.405	2.22
264.62	0.54
264.835	-0.31
265.051	1.97
265.266	2.32
265.481	2.04
265.696	2.57
265.912	5.08
266.127	6.34
266.342	7.32
266.557	9.36
266.773	9.41
266.988	9.69
267.203	9.09
267.418	7.96
267.633	8.33
267.848	8.11
268.064	6.93
268.279	6.73
268.494	6.01
268.709	5.22
268.924	5.4
269.139	5.63
269.354	7.08
269.569	6.94
269.784	6
269.999	4.7
270.214	5.9
270.429	6.31
270.644	5.67
270.859	5.39
271.074	5.27
271.289	4.45
271.504	4.5
271.719	3.85
271.934	2.36
272.149	3.19
272.363	4.66
272.578	5.7
272.793	5.62
273.008	3.96
273.223	4.93
273.438	4.45
273.653	6.27
273.867	4.91
274.082	4.36
274.297	5.88
274.512	3.8
274.726	1.64
274.941	-0.22
275.156	0.4
275.371	2.84
275.585	1.81
275.8	4.65
276.015	2.84
276.229	5.89
276.444	6.06
276.659	7.12
276.873	9.43
277.088	11.09
277.302	11.08
277.517	10.27
277.732	8.7
277.946	8.9
278.161	6.98
278.375	7.63
278.59	8.12
278.804	7.44
279.019	5.47
279.233	5.62
279.448	3.99
279.662	2.24
279.877	2.51
280.091	5.25
280.306	5.06
280.52	6.13
280.735	6.66
280.949	5.25
281.163	5.7
281.378	6.73
281.592	6.95
281.806	8.48
282.021	9.95
282.235	9.92
282.449	8.68
282.664	8.69
282.878	8.32
283.092	7
283.307	6.94
283.521	6.16
283.735	5.89
283.949	4.86
284.164	4.91
284.378	5.61
284.592	6.04
284.806	6.91
285.02	7.74
285.234	7.82
285.449	8.11
285.663	8.63
285.877	9.05
286.091	8.63
286.305	8.97
286.519	9
286.733	8.46
286.947	8.55
287.161	8.49
287.375	7.94
287.589	7.71
287.803	7.76
288.017	7.29
288.231	8.56
288.445	9.42
288.659	9.25
288.873	9.04
289.087	8.58
289.301	8.28
289.515	8.43
289.729	8.61
289.943	8.09
290.157	7.06
290.371	7.39
290.584	6.82
290.798	6.13
291.012	6.98
291.226	6.47
291.44	6.64
291.654	6.27
291.867	6.83
292.081	6.52
292.295	7.74
292.509	9.25
292.722	8.27
292.936	8.15
293.15	8.79
293.364	8.76
293.577	8.34
293.791	8.73
294.005	9
294.218	8.44
294.432	8.78
294.645	8.68
294.859	8.42
295.073	9.24
295.286	9.38
295.5	10.17
295.713	9.45
295.927	10.62
296.14	11
296.354	11
296.568	11.09
296.781	10.89
296.994	10.14
297.208	9.62
297.421	9.67
297.635	8.69
297.848	8.44
298.062	9.08
298.275	9.03
298.489	8.35
298.702	8.66
298.915	8.85
299.129	9.41
299.342	10.63
299.555	11.17
299.769	11.62
299.982	13.31
300.195	12.77
300.409	13.57
300.622	12.96
300.835	13.41
301.048	12.82
301.262	12.18
301.475	11.12
301.688	10.49
301.901	10.12
302.115	9.22
302.328	9.31
302.541	10.45
302.754	8.71
302.967	9.66
303.18	9.25
303.393	10.22
303.607	10.09
303.82	10.42
304.033	11.12
304.246	10.69
304.459	11.87
304.672	11.74
304.885	11.23
305.098	11.62
305.311	11.41
305.524	11.57
305.737	10.32
305.95	10.08
306.163	10.45
306.376	8.04
306.589	9.51
306.802	7.87
307.015	7.15
307.228	7.71
307.44	9.03
307.653	9.06
307.866	9.33
308.079	8.98
308.292	10.01
308.505	10.39
308.718	11.58
308.93	11.85
309.143	12.1
309.356	12.37
309.569	11.94
309.781	12.29
309.994	12.07
310.207	12.55
310.42	13.36
310.632	12.84
310.845	12.53
311.058	13.45
311.27	13.38
311.483	14.42
311.696	14.79
311.908	14.67
312.121	13.07
312.333	12.83
312.546	13.41
312.759	13.54
312.971	13.73
313.184	13.9
313.396	12.87
313.609	11.87
313.821	10.5
314.034	9.45
314.246	9.6
314.459	9.71
314.671	10
314.884	8.69
315.096	8.33
315.309	7.78
315.521	8.45
315.733	8.89
315.946	9.5
316.158	9.37
316.371	10.38
316.583	9.04
316.795	11.11
317.008	11.67
317.22	12.75
317.432	13.05
317.644	12.78
317.857	13.21
318.069	13.32
318.281	13.16
318.494	13.14
318.706	12.21
318.918	13.81
319.13	13.3
319.342	13.28
319.555	12.14
319.767	11.17
319.979	10.28
320.191	9.27
320.403	8.43
320.615	9.09
320.827	8.44
321.039	9.58
321.252	11.16
321.464	11.28
321.676	10.37
321.888	11
322.1	11.81
322.312	13.59
322.524	12.6
322.736	14.59
322.948	14.2
323.16	14.34
323.372	13.21
323.584	10.26
323.796	10.18
324.007	10.56
324.219	11.56
324.431	12.19
324.643	11.44
324.855	12.71
325.067	12.59
325.279	13.07
325.491	15.19
325.702	15.68
325.914	16.77
326.126	17.46
326.338	18.85
326.55	19.5
326.761	20.04
326.973	21.52
327.185	22
327.396	22.7
327.608	22.42
327.82	21.24
328.032	21.13
328.243	21.45
328.455	22.01
328.666	22.29
328.878	22.26
329.09	23.26
329.301	23.1
329.513	23.12
329.725	21.9
329.936	22.62
330.148	23.37
330.359	23.31
330.571	24.28
330.782	23.67
330.994	23.68
331.205	22.73
331.417	21.28
331.628	21.32
331.84	21.06
332.051	21.77
332.262	22.46
332.474	23.28
332.685	24.23
332.897	24.2
333.108	24.82
333.319	24.88
333.531	24.84
333.742	25.23
333.953	25.84
334.165	25.53
334.376	25.6
334.587	25.94
334.799	26.8
335.01	26.67
335.221	26.87
335.432	26.89
335.644	27.61
335.855	28.48
336.066	28.94
336.277	28.05
336.488	29.18
336.7	28.57
336.911	27.92
337.122	26.73
337.333	27.35
337.544	26.97
337.755	26.16
337.966	26.35
338.177	26.11
338.388	26.2
338.599	26.28
338.811	25.5
339.022	26.29
339.233	26.21
339.444	25.54
339.655	25.82
339.866	26.22
340.076	26.96
340.287	25.95
340.498	26.53
340.709	25.96
340.92	27.34
341.131	26.71
341.342	27.3
341.553	26.59
341.764	28.4
341.975	27.91
342.185	28.24
342.396	27.35
342.607	27.59
342.818	26.39
343.029	27.11
343.239	26.95
343.45	28.08
343.661	27.91
343.872	28.4
344.082	27.66
344.293	28.07
344.504	27.18
344.714	27.5
344.925	27.17
345.136	27.7
345.346	26.81
345.557	26.16
345.768	26.09
345.978	24.78
346.189	25.82
346.399	26.07
346.61	25.4
346.821	26.03
347.031	27.11
347.242	28.06
347.452	27.74
347.663	27.24
347.873	27.34
348.084	26.92
348.294	28.12
348.504	27.17
348.715	26.12
348.925	25.43
349.136	25.18
349.346	23.58
349.557	23.09
349.767	23.34
349.977	24.21
350.188	23.31
350.398	23.81
350.608	23.8
350.819	23.96
351.029	24.03
351.239	24.06
351.449	24.54
351.66	24.67
351.87	24.26
352.08	23.73
352.29	24
352.501	24.86
352.711	25.19
352.921	25.53
353.131	25.98
353.341	25.88
353.552	26.91
353.762	26.61
353.972	26.82
354.182	25.8
354.392	25.79
354.602	25.3
354.812	25.07
355.022	24.11
355.232	23.61
355.442	22.82
355.652	23.53
355.862	23.51
356.072	22.78
356.282	22.7
356.492	23.41
356.702	23.6
356.912	23.47
357.122	23.63
357.332	23.63
357.542	23.53
357.752	23.43
357.962	23.06
358.171	22.72
358.381	23.31
358.591	23.35
358.801	23.44
359.011	23.82
359.221	24.03
359.43	23.93
359.64	24.09
359.85	23.56
360.06	23.9
360.269	24.71
360.479	24.72
360.689	24.6
360.899	24.84
361.108	25.15
361.318	24.97
361.528	24.88
361.737	25.16
361.947	25.06
362.156	25.43
362.366	25.42
362.576	24.62
362.785	24.83
362.995	25.32
363.204	25.24
363.414	24.71
363.623	24.68
363.833	24.54
364.042	23.95
364.252	24.1
364.461	24.52
364.671	24.84
364.88	24.77
365.09	24.11
365.299	23.28
365.509	23.12
365.718	22.87
365.927	22.6
366.137	22.73
366.346	23.25
366.555	23.2
366.765	22.34
366.974	22.03
367.183	21.73
367.393	22.57
367.602	22.42
367.811	22.39
368.021	22.56
368.23	22.57
368.439	22.37
368.648	22.76
368.857	22.45
369.067	22.88
369.276	22.34
369.485	22.64
369.694	21.77
369.903	22.24
370.112	22.15
370.321	22.44
370.531	22.37
370.74	22.29
370.949	21.7
371.158	21.86
371.367	21.37
371.576	21.44
371.785	21.69
371.994	21.58
372.203	21.53
372.412	21.59
372.621	21.62
372.83	21.8
373.039	21.93
373.248	21.98
373.457	21.66
373.666	21.52
373.874	21.14
374.083	20.86
374.292	20.5
374.501	20.39
374.71	19.73
374.919	19.46
375.128	19.09
375.336	19.03
375.545	18.86
375.754	18.94
375.963	19.51
376.171	19.87
376.38	19.9
376.589	20.33
376.798	19.91
377.006	20.11
377.215	19.53
377.424	19.6
377.632	19.36
377.841	19.21
378.05	18.9
378.258	18.27
378.467	17.83
378.675	17.74
378.884	17.32
379.093	17.44
379.301	17.56
379.51	17.93
379.718	17.79
379.927	18.04
380.135	18.35
380.344	18.21
380.552	17.99
380.761	18.01
380.969	18.27
381.177	18.72
381.386	18.33
381.594	18.37
381.803	18.73
382.011	18.62
382.219	18.27
382.428	17.9
382.636	18.33
382.845	18.54
383.053	18.74
383.261	18.15
383.469	17.62
383.678	17.87
383.886	17.64
384.094	16.85
384.302	16.4
384.511	16.53
384.719	16.35
384.927	15.87
385.135	15.86
385.343	15.39
385.552	14.99
385.76	14.98
385.968	14.68
386.176	14.3
386.384	14.74
386.592	14.97
386.8	14.03
387.008	13.83
387.216	14.3
387.424	13.97
387.633	14.26
387.841	14.57
388.049	14.67
388.257	14.65
388.465	14.46
388.672	13.78
388.88	13.39
389.088	14.04
389.296	13.52
389.504	12.89
389.712	12.77
389.92	12.67
390.128	12.58
390.336	12.48
390.544	12.16
390.751	11.96
390.959	11.82
391.167	12.22
391.375	11.81
391.583	11.99
391.79	12.04
391.998	12.22
392.206	12.19
392.414	12.02
392.621	11.53
392.829	11.71
393.037	11.96
393.244	12.36
393.452	12.01
393.66	12.17
393.867	12
394.075	12.36
394.283	12.2
394.49	11.88
394.698	11.75
394.905	11.88
395.113	11.73
395.32	11.66
395.528	11.27
395.735	11.53
395.943	11.36
396.15	11.43
396.358	11.04
396.565	11
396.773	11.21
396.98	11.3
397.188	11.49
397.395	11.4
397.602	11.32
397.81	11.46
398.017	11.08
398.225	10.94
398.432	10.84
398.639	10.51
398.847	10.56
399.054	10.6
399.261	10.63
399.468	10.47
399.676	10.46
399.883	10.19
400.09	10.3
400.297	10.22
400.505	10.23
400.712	10.22
400.919	10.14
401.126	9.89
401.333	9.48
401.54	9.79
401.748	9.57
401.955	9.31
402.162	9.62
402.369	9.25
402.576	9.14
402.783	9.27
402.99	9.35
403.197	9.57
403.404	9.64
403.611	9.73
403.818	9.42
404.025	9.52
404.232	9.52
404.439	9.59
404.646	9.45
404.853	9.56
405.06	9.45
405.267	9.67
405.474	9.64
405.681	9.57
405.887	9.43
406.094	9.16
406.301	9.13
406.508	9.26
406.715	9
406.922	9.18
407.128	9.29
407.335	9.27
407.542	9.06
407.749	9.02
407.955	8.82
408.162	8.97
408.369	8.87
408.575	8.78
408.782	8.68
408.989	8.77
409.195	8.91
409.402	8.6
409.609	8.75
409.815	8.75
410.022	8.59
410.228	8.59
410.435	8.71
410.642	9.04
410.848	9.07
411.055	9.24
411.261	9.07
411.468	8.95
411.674	9.12
411.881	9.08
412.087	8.77
412.294	9.14
412.5	9.36
412.706	9.13
412.913	8.82
413.119	8.74
413.326	8.52
413.532	8.93
413.738	8.99
413.945	8.89
414.151	8.91
414.357	9.47
414.564	9.07
414.77	8.9
414.976	9.08
415.182	9.03
415.389	9.24
415.595	9.47
415.801	9.24
416.007	9.18
416.214	9.12
416.42	9.11
416.626	8.77
416.832	8.76
417.038	8.96
417.244	8.9
417.45	9.1
417.657	8.96
417.863	8.68
418.069	8.59
418.275	8.4
418.481	8.41
418.687	8.37
418.893	8.43
419.099	8.48
419.305	8.34
419.511	8.3
419.717	8.18
419.923	8.12
420.129	8.23
420.335	8.34
420.541	8.52
420.746	8.5
420.952	8.56
421.158	8.56
421.364	8.44
421.57	8.4
421.776	8.34
421.982	8.34
422.187	8.27
422.393	8.22
422.599	8.02
422.805	7.94
423.01	8.12
423.216	8.07
423.422	8.02
423.628	8.15
423.833	8.27
424.039	8.43
424.245	8.4
424.45	8.48
424.656	8.57
424.862	8.55
425.067	8.46
425.273	8.26
425.478	8.21
425.684	8.24
425.889	8.08
426.095	8.08
426.301	7.92
426.506	8.03
426.712	8.08
426.917	8.07
427.123	8.07
427.328	8.3
427.533	8.36
427.739	8.46
427.944	8.36
428.15	8.39
428.355	8.04
428.561	8
428.766	7.88
428.971	7.79
429.177	7.82
429.382	7.94
429.587	7.81
429.793	7.73
429.998	7.43
430.203	7.49
430.408	7.84
430.614	7.95
430.819	7.97
431.024	8.11
431.229	8.02
431.434	7.86
431.64	7.74
431.845	7.73
432.05	7.76
432.255	7.98
432.46	8.01
432.665	7.62
432.87	7.8
433.076	7.72
433.281	7.58
433.486	7.7
433.691	7.66
433.896	7.79
434.101	7.83
434.306	7.73
434.511	7.58
434.716	7.46
434.921	7.57
435.126	7.44
435.331	7.5
435.535	7.63
435.74	7.53
435.945	7.59
436.15	7.49
436.355	7.3
436.56	7.52
436.765	7.53
436.97	7.66
437.174	7.74
437.379	7.82
437.584	7.78
437.789	7.71
437.993	7.75
438.198	7.83
438.403	7.91
438.608	8.08
438.812	8
439.017	7.99
439.222	8.04
439.426	8
439.631	7.93
439.836	7.93
440.04	8.06
440.245	7.93
440.45	7.95
440.654	7.98
440.859	7.92
441.063	7.81
441.268	7.82
441.472	7.79
441.677	7.92
441.881	8.05
442.086	8.12
442.29	7.92
442.495	8.15
442.699	8
442.904	7.98
443.108	7.82
443.312	7.91
443.517	7.92
443.721	7.74
443.925	7.62
444.13	7.47
444.334	7.42
444.538	7.44
444.743	7.39
444.947	7.53
445.151	7.58
445.356	7.77
445.56	7.78
445.764	7.86
445.968	7.88
446.173	7.81
446.377	7.73
446.581	7.79
446.785	7.83
446.989	7.81
447.193	7.8
447.398	7.85
447.602	7.88
447.806	7.89
448.01	7.79
448.214	7.84
448.418	7.75
448.622	7.83
448.826	7.61
449.03	7.62
449.234	7.71
449.438	7.68
449.642	7.48
449.846	7.29
450.05	7.03
450.254	7.11
450.458	7.04
450.662	7.25
450.866	7.25
451.069	7.48
451.273	7.35
451.477	7.25
451.681	7.12
451.885	7.23
452.089	7.25
452.292	7.54
452.496	7.39
452.7	7.55
452.904	7.59
453.107	7.55
453.311	7.5
453.515	7.6
453.719	7.56
453.922	7.42
454.126	7.17
454.33	7.13
454.533	6.93
454.737	7.02
454.94	6.74
455.144	6.65
455.348	6.72
455.551	6.7
455.755	6.55
455.958	6.63
456.162	6.72
456.365	6.87
456.569	6.93
456.772	7.17
456.976	7.2
457.179	7.23
457.383	7.14
457.586	7.14
457.79	7.03
457.993	7.12
458.196	7.04
458.4	7.21
458.603	7.09
458.807	7.12
459.01	7.08
459.213	7.19
459.417	7.34
459.62	7.31
459.823	7.21
460.026	7.27
460.23	7.27
460.433	7.4
460.636	7.38
460.839	7.58
461.042	7.59
461.246	7.56
461.449	7.4
461.652	7.32
461.855	7.5
462.058	7.5
462.261	7.55
462.464	7.69
462.668	7.62
462.871	7.56
463.074	7.38
463.277	7.51
463.48	7.27
463.683	7.23
463.886	7.26
464.089	7.06
464.292	7.3
464.495	7.29
464.698	7.03
464.901	6.99
465.104	7.13
465.306	7.18
465.509	6.93
465.712	7.03
465.915	7.2
466.118	7.1
466.321	7.05
466.524	6.91
466.726	6.97
466.929	6.79
467.132	6.83
467.335	6.6
467.538	6.66
467.74	6.76
467.943	6.85
468.146	6.96
468.348	7.08
468.551	7.26
468.754	7.44
468.956	7.39
469.159	7.62
469.362	7.67
469.564	7.78
469.767	7.76
469.969	7.74
470.172	8.03
470.375	7.79
470.577	7.78
470.78	7.7
470.982	7.86
471.185	7.96
471.387	8.02
471.59	7.92
471.792	7.84
471.995	7.86
472.197	7.85
472.399	7.48
472.602	7.44
472.804	7.45
473.007	7.44
473.209	7.2
473.411	6.93
473.614	6.84
473.816	6.79
474.018	6.8
474.22	6.75
474.423	6.84
474.625	7.02
474.827	7.22
475.03	7.16
475.232	7.16
475.434	7.32
475.636	7.69
475.838	7.8
476.04	7.83
476.243	7.87
476.445	7.92
476.647	7.75
476.849	7.6
477.051	7.64
477.253	7.68
477.455	7.52
477.657	7.32
477.859	7.11
478.061	7.05
478.263	7.02
478.465	7.03
478.667	7.09
478.869	7.19
479.071	7.13
479.273	7.02
479.475	7.01
479.677	7.05
479.879	7.02
480.081	7.11
480.283	7.1
480.485	7.19
480.686	7.37
480.888	7.36
481.09	7.37
481.292	7.49
481.494	7.47
481.695	7.59
481.897	7.78
482.099	7.83
482.301	7.75
482.502	7.7
482.704	7.68
482.906	7.61
483.107	7.56
483.309	7.58
483.511	7.61
483.712	7.63
483.914	7.55
484.115	7.48
484.317	7.5
484.519	7.46
484.72	7.46
484.922	7.43
485.123	7.37
485.325	7.33
485.526	7.27
485.728	7.23
485.929	7.24
486.131	7.24
486.332	7.22
486.534	7.19
486.735	7.24
486.936	7.31
487.138	7.34
487.339	7.42
487.541	7.5
487.742	7.53
487.943	7.53
488.144	7.54
488.346	7.58
488.547	7.55
488.748	7.56
488.95	7.63
489.151	7.57
489.352	7.53
489.553	7.5
489.755	7.53
489.956	7.53
490.157	7.59
490.358	7.54
490.559	7.55
490.76	7.6
490.961	7.58
491.163	7.61
491.364	7.63
491.565	7.64
491.766	7.72
491.967	7.68
492.168	7.76
492.369	7.73
492.57	7.74
492.771	7.7
492.972	7.73
493.173	7.69
493.374	7.74
493.575	7.78
493.776	7.71
493.976	7.63
494.177	7.58
494.378	7.56
494.579	7.57
494.78	7.73
494.981	7.84
495.182	7.9
495.382	8.03
495.583	7.87
495.784	7.83
495.985	7.97
496.185	7.92
496.386	7.97
496.587	7.96
496.788	7.95
496.988	7.87
497.189	7.91
497.39	8.03
497.59	7.98
497.791	8.02
497.992	8.06
498.192	8.09
498.393	8.06
498.593	8.07
498.794	7.98
498.994	8.09
499.195	8.03
499.395	7.93
499.596	7.89
499.796	8.04
499.997	8.04
500.197	7.97
500.398	7.93
500.598	8.01
500.799	8.04
500.999	8.04
501.199	7.89
501.4	8
501.6	8.01
501.801	7.84
502.001	7.8
502.201	7.87
502.402	8.1
502.602	8.11
502.802	8.17
503.002	8.22
503.203	8.34
503.403	8.27
503.603	8.33
503.803	8.51
504.003	8.66
504.204	8.72
504.404	8.76
504.604	8.89
504.804	9.02
505.004	9.05
505.204	9.05
505.404	9.18
505.604	9.33
505.804	9.38
506.005	9.24
506.205	9.41
506.405	9.41
506.605	9.43
506.805	9.28
507.005	9.25
507.204	9.42
507.404	9.47
507.604	9.4
507.804	9.36
508.004	9.29
508.204	9.43
508.404	9.32
508.604	9.48
508.804	9.6
509.003	9.82
509.203	9.98
509.403	10
509.603	10.15
509.803	10.36
510.002	10.55
510.202	10.73
510.402	10.73
510.602	10.74
510.801	10.76
511.001	10.68
511.201	10.6
511.4	10.56
511.6	10.52
511.8	10.63
511.999	10.54
512.199	10.68
512.398	10.65
512.598	10.77
512.797	11.02
512.997	11.14
513.197	11.3
513.396	11.43
513.596	11.66
513.795	12
513.994	11.87
514.194	12.13
514.393	12.23
514.593	12.47
514.792	12.49
514.992	12.56
515.191	12.54
515.39	12.69
515.59	12.7
515.789	12.73
515.988	12.77
516.188	13.15
516.387	13.22
516.586	13.22
516.786	13.26
516.985	13.41
517.184	13.43
517.383	13.52
517.582	13.52
517.782	13.72
517.981	13.79
518.18	13.85
518.379	13.93
518.578	13.88
518.777	13.84
518.976	13.97
519.176	14.01
519.375	14.22
519.574	14.38
519.773	14.41
519.972	14.48
520.171	14.59
520.37	14.67
520.569	14.71
520.768	14.88
520.967	15.23
521.166	15.32
521.365	15.53
521.564	15.51
521.762	15.53
521.961	15.74
522.16	15.93
522.359	16.13
522.558	16.27
522.757	16.37
522.956	16.55
523.154	16.64
523.353	16.81
523.552	16.9
523.751	17.17
523.949	17.28
524.148	17.35
524.347	17.42
524.546	17.38
524.744	17.48
524.943	17.45
525.142	17.42
525.34	17.36
525.539	17.42
525.737	17.59
525.936	17.64
526.135	17.77
526.333	17.91
526.532	17.97
526.73	18.12
526.929	18.13
527.127	18.35
527.326	18.5
527.524	18.66
527.723	18.75
527.921	18.84
528.12	18.94
528.318	19
528.516	19.13
528.715	19.19
528.913	19.29
529.112	19.37
529.31	19.44
529.508	19.51
529.707	19.57
529.905	19.68
530.103	19.73
530.301	19.75
530.5	19.95
530.698	19.95
530.896	20.09
531.094	20.17
531.293	20.25
531.491	20.29
531.689	20.47
531.887	20.55
532.085	20.66
532.283	20.7
532.481	20.8
532.68	20.79
532.878	21.01
533.076	21.07
533.274	21.06
533.472	21.13
533.67	21.26
533.868	21.28
534.066	21.31
534.264	21.34
534.462	21.49
534.66	21.56
534.858	21.53
535.056	21.5
535.253	21.57
535.451	21.73
535.649	21.9
535.847	21.91
536.045	22
536.243	22.12
536.441	22.2
536.638	22.17
536.836	22.27
537.034	22.38
537.232	22.41
537.43	22.5
537.627	22.59
537.825	22.59
538.023	22.63
538.22	22.62
538.418	22.65
538.616	22.63
538.813	22.67
539.011	22.73
539.209	22.8
539.406	22.85
539.604	23
539.801	23.07
539.999	23.28
540.196	23.5
540.394	23.64
540.591	23.83
540.789	23.87
540.986	24.02
541.184	24.18
541.381	24.26
541.579	24.28
541.776	24.31
541.974	24.29
542.171	24.2
542.368	24.26
542.566	24.29
542.763	24.38
542.96	24.45
543.158	24.5
543.355	24.55
543.552	24.66
543.75	24.68
543.947	24.71
544.144	24.79
544.341	24.9
544.539	24.91
544.736	25.08
544.933	25.07
545.13	25.07
545.327	25.06
545.524	25.05
545.722	25
545.919	25.14
546.116	25.13
546.313	25.25
546.51	25.39
546.707	25.39
546.904	25.26
547.101	25.31
547.298	25.4
547.495	25.38
547.692	25.4
547.889	25.46
548.086	25.5
548.283	25.59
548.48	25.61
548.677	25.61
548.874	25.68
549.07	25.78
549.267	25.77
549.464	25.84
549.661	25.99
549.858	26.03
550.055	26.08
550.251	26.12
550.448	26.12
550.645	26.13
550.842	26.08
551.038	26.25
551.235	26.48
551.432	26.41
551.628	26.45
551.825	26.44
552.022	26.35
552.218	26.52
552.415	26.67
552.612	26.78
552.808	26.88
553.005	27.13
553.201	27.13
553.398	27.05
553.594	27.22
553.791	27.3
553.987	27.47
554.184	27.61
554.38	27.71
554.577	27.8
554.773	27.94
554.97	27.98
555.166	27.95
555.362	27.99
555.559	28.12
555.755	28.26
555.952	28.42
556.148	28.34
556.344	28.29
556.541	28.38
556.737	28.18
556.933	28.16
557.129	28.23
557.326	28.3
557.522	28.4
557.718	28.25
557.914	28.27
558.11	28.32
558.307	28.65
558.503	28.77
558.699	28.79
558.895	28.85
559.091	28.7
559.287	28.84
559.483	28.87
559.679	28.89
559.876	29.06
560.072	29
560.268	28.68
560.464	28.8
560.66	29.06
560.856	29.02
561.052	29.36
561.247	29.66
561.443	29.5
561.639	29.58
561.835	29.57
562.031	29.73
562.227	29.8
562.423	30.24
562.619	30.17
562.815	30.01
563.01	29.95
563.206	29.77
563.402	29.66
563.598	29.71
563.793	29.53
563.989	29.6
564.185	29.32
564.381	29.29
564.576	29.18
564.772	29.14
564.968	29.25
565.163	29.25
565.359	29.38
565.555	29.5
565.75	29.59
565.946	29.69
566.141	29.61
566.337	29.83
566.532	29.98
566.728	30.1
566.923	29.93
567.119	29.82
567.314	29.81
567.51	29.93
567.705	29.91
567.901	29.83
568.096	29.86
568.292	29.96
568.487	30.04
568.682	29.95
568.878	30
569.073	30.17
569.268	30.34
569.464	30.33
569.659	30.39
569.854	30.53
570.05	30.72
570.245	31.03
570.44	31.14
570.635	31.11
570.831	31.18
571.026	30.86
571.221	30.89
571.416	30.95
571.611	31.07
571.806	30.78
572.002	30.78
572.197	30.87
572.392	30.63
572.587	30.47
572.782	30.43
572.977	30.45
573.172	30.62
573.367	30.54
573.562	30.47
573.757	30.41
573.952	30.53
574.147	30.43
574.342	30.39
574.537	30.43
574.732	30.66
574.927	30.51
575.121	30.39
575.316	30.36
575.511	30.64
575.706	30.76
575.901	30.8
576.096	30.85
576.29	30.8
576.485	30.88
576.68	31.01
576.875	30.95
577.069	31.02
577.264	31.14
577.459	31.09
577.654	31.03
577.848	30.76
578.043	31.03
578.238	31.21
578.432	31.3
578.627	31.39
578.821	31.28
579.016	31.11
579.21	31.24
579.405	31.19
579.6	31.37
579.794	31.04
579.989	31.24
580.183	30.99
580.378	30.56
580.572	30.48
580.766	30.27
580.961	30.24
581.155	30.29
581.35	30.2
581.544	30.27
581.738	30.56
581.933	30.86
582.127	30.93
582.321	30.96
582.516	31.22
582.71	31.48
582.904	31.6
583.099	31.54
583.293	31.87
583.487	32.13
583.681	31.97
583.875	31.79
584.07	31.69
584.264	31.61
584.458	31.85
584.652	31.73
584.846	31.67
585.04	31.38
585.234	31.56
585.428	31.45
585.623	31.74
585.817	32.1
586.011	31.97
586.205	32.11
586.399	31.98
586.593	31.77
586.787	31.96
586.981	31.73
587.174	31.8
587.368	31.7
587.562	31.4
587.756	30.98
587.95	30.92
588.144	31.12
588.338	30.94
588.532	30.99
588.725	31.18
588.919	31.26
589.113	31.58
589.307	31.53
589.501	31.66
589.694	32.14
589.888	32.34
590.082	32.11
590.275	32.22
590.469	32.29
590.663	32.09
590.856	32.03
591.05	32.12
591.244	32.02
591.437	32.31
591.631	32.29
591.824	32.18
592.018	31.99
592.212	31.99
592.405	32.04
592.599	31.97
592.792	32.25
592.986	32.16
593.179	32.28
593.372	32.38
593.566	32.41
593.759	32.66
593.953	32.7
594.146	32.81
594.339	33.21
594.533	32.98
594.726	33.06
594.92	33.13
595.113	33.34
595.306	33.2
595.499	33.24
595.693	33.15
595.886	33.14
596.079	32.95
596.272	33.02
596.466	32.76
596.659	32.98
596.852	33.07
597.045	33.06
597.238	32.87
597.431	32.95
597.624	32.87
597.818	32.99
598.011	32.72
598.204	32.81
598.397	32.88
598.59	33.06
598.783	33.17
598.976	33.21
599.169	33.25
599.362	33.38
599.555	33.17
599.748	33.31
599.941	33.04
600.134	33.13
600.326	33.22
600.519	32.88
600.712	32.91
600.905	32.54
601.098	32.31
601.291	32.3
601.483	32.28
601.676	32.36
601.869	32.23
602.062	32.37
602.255	32.57
602.447	32.41
602.64	32.61
602.833	32.51
603.025	32.64
603.218	32.7
603.411	32.74
603.603	32.72
603.796	32.74
603.989	32.87
604.181	33.01
604.374	32.97
604.566	32.87
604.759	32.68
604.951	32.94
605.144	32.89
605.336	33.08
605.529	33.07
605.721	33.19
605.914	33.1
606.106	32.98
606.299	32.7
606.491	32.83
606.683	33.07
606.876	33.15
607.068	32.88
607.26	32.98
607.453	33.02
607.645	33.05
607.837	32.75
608.03	32.9
608.222	33.16
608.414	33.38
608.606	33.25
608.799	33.08
608.991	33.5
609.183	33.65
609.375	33.81
609.567	33.71
609.759	33.94
609.952	34.3
610.144	34.37
610.336	34.53
610.528	34.81
610.72	34.73
610.912	34.96
611.104	34.78
611.296	34.76
611.488	34.68
611.68	34.45
611.872	34.44
612.064	34.44
612.256	34.29
612.448	34.09
612.64	33.67
612.832	33.75
613.023	33.75
613.215	33.68
613.407	33.7
613.599	33.35
613.791	33.68
613.983	33.38
614.174	33.38
614.366	33.58
614.558	33.61
614.75	33.79
614.941	33.84
615.133	33.76
615.325	33.97
615.516	33.82
615.708	34.04
615.9	34.08
616.091	34.33
616.283	34.3
616.475	34.2
616.666	33.92
616.858	33.99
617.049	33.84
617.241	34.03
617.432	33.89
617.624	33.89
617.815	33.88
618.007	33.74
618.198	33.85
618.39	33.6
618.581	33.58
618.773	33.49
618.964	33.38
619.155	33.75
619.347	33.46
619.538	33.69
619.729	33.91
619.921	34.22
620.112	34.2
620.303	33.88
620.494	34.14
620.686	34.12
620.877	34.24
621.068	34.21
621.259	34.01
621.451	34.24
621.642	34.05
621.833	33.84
622.024	33.59
622.215	33.87
622.406	34.17
622.597	33.92
622.788	34.08
622.98	34.08
623.171	34.24
623.362	34.09
623.553	34
623.744	33.98
623.935	33.94
624.126	34.13
624.317	33.89
624.508	33.72
624.698	34.01
624.889	33.87
625.08	33.91
625.271	33.99
625.462	34.05
625.653	34.29
625.844	34.32
626.034	34.52
626.225	34.16
626.416	34.25
626.607	34.22
626.798	34.18
626.988	34.47
627.179	34.73
627.37	34.82
627.56	34.87
627.751	34.7
627.942	34.7
628.132	34.8
628.323	35.04
628.514	35.09
628.704	35.51
628.895	35.22
629.085	34.97
629.276	34.9
629.466	34.88
629.657	34.96
629.847	34.94
630.038	34.62
630.228	34.5
630.419	34.63
630.609	34.5
630.8	34.39
630.99	34.8
631.181	34.98
631.371	35.25
631.561	35.23
631.752	35.11
631.942	35.09
632.132	35.71
632.323	35.38
632.513	35.33
632.703	35.41
632.893	35.07
633.084	34.45
633.274	34.29
633.464	33.93
633.654	33.95
633.844	34.16
634.034	34.16
634.225	33.95
634.415	34.12
634.605	34.08
634.795	33.88
634.985	33.77
635.175	34.18
635.365	34.23
635.555	34.3
635.745	34.15
635.935	33.94
636.125	34.06
636.315	34.07
636.505	34.26
636.695	34.07
636.885	34.34
637.075	34.6
637.265	34.95
637.455	34.97
637.644	34.95
637.834	34.93
638.024	35.27
638.214	35.24
638.404	35.08
638.593	34.88
638.783	34.88
638.973	35.29
639.163	35.06
639.352	34.79
639.542	34.81
639.732	34.76
639.921	34.48
640.111	33.92
640.301	33.67
640.49	33.49
640.68	33.89
640.87	34.03
641.059	33.82
641.249	34.19
641.438	33.94
641.628	33.79
641.817	33.99
642.007	34.67
642.196	35.1
642.386	35.53
642.575	35.53
642.764	35.37
642.954	35.46
643.143	35.24
643.333	34.89
643.522	34.77
643.711	35.21
643.901	34.98
644.09	34.69
644.279	34.66
644.469	34.57
644.658	34.69
644.847	34.77
645.036	34.62
645.226	34.81
645.415	34.94
645.604	35.44
645.793	35.29
645.982	34.99
646.171	34.72
646.361	34.53
646.55	34.46
646.739	34.33
646.928	34.06
647.117	34.46
647.306	34.37
647.495	34.28
647.684	34.38
647.873	34.35
648.062	34.8
648.251	34.77
648.44	34.83
648.629	35.06
648.818	35.57
649.007	35.78
649.196	35.16
649.384	35.04
649.573	35.39
649.762	35.28
649.951	35.24
650.14	35.1
650.328	35.38
650.517	35.31
650.706	35.18
650.895	34.72
651.083	34.85
651.272	34.93
651.461	34.75
651.65	34.27
651.838	34.25
652.027	34.25
652.216	34.27
652.404	34.31
652.593	34.69
652.781	34.23
652.97	34.36
653.158	34.27
653.347	34.49
653.535	34.81
653.724	35.02
653.912	35.02
654.101	35
654.289	34.88
654.478	35.01
654.666	34.84
654.855	35.58
655.043	35.53
655.231	35.33
655.42	35.43
655.608	35.37
655.796	35.45
655.985	35.63
656.173	35.64
656.361	35.94
656.55	35.96
656.738	35.8
656.926	35.49
657.114	35.55
657.302	35.34
657.491	35.32
657.679	35.32
657.867	35.59
658.055	35.69
658.243	35.2
658.431	34.66
658.619	34.44
658.807	34.68
658.996	34.63
659.184	34.59
659.372	34.94
659.56	34.48
659.748	34.39
659.936	33.95
660.124	33.54
660.311	33.95
660.499	34.51
660.687	34.36
660.875	34.24
661.063	34.5
661.251	34.91
661.439	34.41
661.627	34.62
661.814	34.78
662.002	35.27
662.19	35.4
662.378	35.71
662.565	35.79
662.753	35.78
662.941	35.77
663.129	35.47
663.316	35.08
663.504	35.5
663.692	35.91
663.879	35.91
664.067	35.48
664.254	35.51
664.442	35.09
664.63	34.72
664.817	35.09
665.005	34.78
665.192	34.65
665.38	34.79
665.567	35.02
665.755	34.92
665.942	34.91
666.13	34.64
666.317	34.59
666.504	34.41
666.692	34.61
666.879	34.78
667.067	34.91
667.254	34.94
667.441	35.2
667.629	34.94
667.816	35.13
668.003	34.85
668.19	35.13
668.378	35.17
668.565	35.39
668.752	35.33
668.939	35.29
669.127	35.17
669.314	35.11
669.501	34.43
669.688	34.77
669.875	34.4
670.062	34.57
670.249	34.75
670.436	34.55
670.623	34.65
670.81	34.52
670.997	34.71
671.184	35.07
671.371	35.43
671.558	35.85
671.745	35.9
671.932	35.92
672.119	35.63
672.306	35.7
672.493	36.07
672.68	35.64
672.867	35.33
673.054	34.92
673.24	35.01
673.427	34.83
673.614	35.13
673.801	34.71
673.988	34.79
674.174	34.97
674.361	34.9
674.548	34.96
674.734	35.32
674.921	35.69
675.108	35.85
675.294	35.59
675.481	34.87
675.668	34.72
675.854	34.7
676.041	34.19
676.227	34.59
676.414	34.32
676.601	34.36
676.787	34.31
676.974	34.21
677.16	34.02
677.347	34.17
677.533	35.12
677.719	35.12
677.906	35.42
678.092	35.78
678.279	35.74
678.465	35.88
678.651	35.35
678.838	35.25
679.024	35.68
679.21	35.75
679.397	36.03
679.583	35.43
679.769	35.48
679.955	35.13
680.142	35.5
680.328	35.62
680.514	35.69
680.7	35.9
680.886	36.37
681.073	35.96
681.259	35.65
681.445	35.01
681.631	35.33
681.817	34.94
682.003	34.72
682.189	34.37
682.375	34.06
682.561	34.25
682.747	34.25
682.933	33.73
683.119	34.14
683.305	34.26
683.491	34.8
683.677	35.01
683.863	35.17
684.049	35.49
684.235	35.9
684.42	35.68
684.606	35.71
684.792	35.3
684.978	35.09
685.164	35.08
685.349	35.41
685.535	35.28
685.721	35.53
685.907	35.7
686.092	36.47
686.278	36.03
686.464	35.94
686.649	35.22
686.835	35.94
687.021	35.77
687.206	35.99
687.392	35.63
687.577	35.69
687.763	35.67
687.948	35.42
688.134	34.72
688.319	34.59
688.505	34.89
688.69	35.24
688.876	34.8
689.061	35.63
689.247	35.08
689.432	35.2
689.618	34.65
689.803	34.35
689.988	34.55
690.174	34.78
690.359	34.58
690.544	34.68
690.73	34.7
690.915	34.77
691.1	34.49
691.285	34.37
691.471	34.47
691.656	35.21
691.841	35.29
692.026	35.06
692.211	34.95
692.396	35.03
692.582	35.14
692.767	35.5
692.952	35.75
693.137	35.61
693.322	35.84
693.507	35.7
693.692	35.15
693.877	35.34
694.062	36.26
694.247	36.66
694.432	37.68
694.617	37.48
694.802	37.14
694.987	37.15
695.172	37.13
695.357	37.06
695.541	37.49
695.726	38.02
695.911	38.02
696.096	37.68
696.281	37.7
696.466	37.46
696.65	37.65
696.835	37.31
697.02	37.18
697.204	37.16
697.389	36.61
697.574	36.23
697.759	36.03
697.943	35.65
698.128	35.46
698.312	35.41
698.497	35.34
698.682	35.12
698.866	35.5
699.051	35.54
699.235	35.7
699.42	35.84
699.604	35.68
699.789	35.39
699.973	35.54
700.158	35.71
700.342	35.25
700.527	35
700.711	34.63
700.895	34.5
701.08	34.28
701.264	33.92
701.448	34.52
701.633	35
701.817	34.56
702.001	34.7
702.186	34.94
702.37	35.47
702.554	35.45
702.738	36.22
702.923	36.45
703.107	37.12
703.291	36.84
703.475	36.23
703.659	36.05
703.843	36.94
704.027	37.01
704.212	36.83
704.396	36.63
704.58	37.21
704.764	36.75
704.948	36.62
705.132	36.66
705.316	38.01
705.5	38.54
705.684	38.61
705.868	39.22
706.052	39
706.235	38.22
706.419	38.3
706.603	37.95
706.787	38.23
706.971	38.27
707.155	37.9
707.339	37.35
707.522	37.64
707.706	37.42
707.89	36.88
708.074	36.58
708.257	37.19
708.441	36.86
708.625	36.56
708.808	36.84
708.992	37.04
709.176	37.64
709.359	37.21
709.543	36.83
709.727	37.43
709.91	37.19
710.094	36.76
710.277	36.67
710.461	36.73
710.644	36.69
710.828	36.61
711.011	36.31
711.195	35.15
711.378	35.33
711.562	35.53
711.745	35
711.928	35.31
712.112	36.43
712.295	36.07
712.478	36.31
712.662	36.45
712.845	35.97
713.028	35.79
713.212	36.13
713.395	35.99
713.578	35.24
713.761	35.47
713.945	35.46
714.128	34.49
714.311	34.86
714.494	34.8
714.677	34.75
714.86	35.46
715.043	35.29
715.227	35.16
715.41	35
715.593	34.82
715.776	34.75
715.959	35.25
716.142	35.75
716.325	35.24
716.508	35.38
716.691	35.79
716.874	35.07
717.057	35.56
717.239	35.51
717.422	35.58
717.605	36.79
717.788	36.42
717.971	35.82
718.154	35.02
718.337	35.47
718.519	35.34
718.702	34.87
718.885	35.05
719.068	34.89
719.25	35.74
719.433	35.98
719.616	35.13
719.798	35.7
719.981	35.56
720.164	36.22
720.346	36.83
720.529	36.37
720.712	35.71
720.894	35.64
721.077	35.98
721.259	35.11
721.442	34.96
721.624	34.94
721.807	34.24
721.989	34.13
722.172	34.2
722.354	34.37
722.537	34.86
722.719	35.91
722.901	36.56
723.084	36.79
723.266	37.33
723.448	36.4
723.631	36.41
723.813	37.19
723.995	36.77
724.178	36.97
724.36	37.03
724.542	36.62
724.724	36.61
724.907	36.59
725.089	36.12
725.271	35.48
725.453	36.27
725.635	35.99
725.817	35.08
725.999	35.32
726.181	35.38
726.364	35.04
726.546	35.41
726.728	35.01
726.91	34.35
727.092	33.71
727.274	34.15
727.456	34.33
727.638	34.92
727.819	35.23
728.001	36
728.183	35.53
728.365	35.08
728.547	34.7
728.729	34.21
728.911	33.89
729.093	34.1
729.274	33.86
729.456	32.88
729.638	32.33
729.82	32.32
730.001	32.04
730.183	32.92
730.365	32.75
730.546	33.36
730.728	33.88
730.91	35.02
731.091	33.87
731.273	34.17
731.455	34.63
731.636	34.62
731.818	35.9
731.999	36.47
732.181	35.51
732.362	35.87
732.544	35.11
732.725	35.55
732.907	35.56
733.088	36.55
733.27	36.41
733.451	36.72
733.633	37.57
733.814	36.07
733.995	35.37
734.177	34.58
734.358	35.69
734.539	35.56
734.721	34.56
734.902	33.44
735.083	33.85
735.264	33.21
735.446	34.06
735.627	33.52
735.808	35.03
735.989	33.72
736.17	35.12
736.351	32.59
736.533	33.36
736.714	33.72
736.895	34.06
737.076	33.69
737.257	35.07
737.438	33.74
737.619	33.2
737.8	32.27
737.981	33.75
738.162	33.02
738.343	34.44
738.524	34.88
738.705	34.62
738.886	34.25
739.067	34.62
739.247	34.61
739.428	34.93
739.609	34.98
739.79	35.07
739.971	35.54
740.151	35.94
740.332	34.88
740.513	33.97
740.694	34.64
740.874	35.24
741.055	34.14
741.236	34.2
741.417	34.15
741.597	34.86
741.778	34.57
741.958	33.28
742.139	33.65
742.32	33.18
742.5	33.48
742.681	33.44
742.861	33.83
743.042	34.77
743.222	34.1
743.403	34.05
743.583	34.12
743.764	33.82
743.944	34.61
744.124	34.02
744.305	34.96
744.485	34.52
744.666	34.47
744.846	33.07
745.026	32.37
745.207	32.4
745.387	32.75
745.567	32.52
745.747	32.8
745.928	32.3
746.108	32.29
746.288	34.08
746.468	35.09
746.648	35.56
746.829	36.96
747.009	37.93
747.189	37.75
747.369	38
747.549	38.3
747.729	38.12
747.909	37.82
748.089	37.69
748.269	36.26
748.449	36.04
748.629	36.19
748.809	36.01
748.989	36.21
749.169	35.95
749.349	35.6
749.529	36.51
749.709	36.7
749.889	36.83
750.068	37.39
750.248	36.69
750.428	37.15
750.608	36.72
750.788	37.54
750.967	36.58
751.147	36.59
751.327	38.08
751.507	35.52
751.686	35.56
751.866	35.54
752.046	35.46
752.225	36.2
752.405	35.17
752.585	35.72
752.764	35.15
752.944	35.32
753.123	35.74
753.303	34.21
753.482	35.37
753.662	35.83
753.841	35.79
754.021	34.65
754.2	33.64
754.38	34.93
754.559	34.42
754.739	33.61
754.918	34.08
755.097	33.84
755.277	33.92
755.456	34.26
755.635	33.65
755.815	33.19
755.994	34.97
756.173	36.31
756.352	34.73
756.532	35.15
756.711	35.92
756.89	35.88
757.069	35.2
757.248	34.88
757.427	34.5
757.607	33.74
757.786	35.26
757.965	34.96
758.144	35.58
758.323	36.09
758.502	37.1
758.681	36.32
758.86	37.11
759.039	37.67
759.218	38.17
759.397	38.56
759.576	39.86
759.755	39.34
759.934	39.63
760.113	38.17
760.291	38.14
760.47	37.86
760.649	37.86
760.828	37.12
761.007	36.6
761.186	37.13
761.364	36.48
761.543	37
761.722	38.29
761.901	37.7
762.079	38.6
762.258	38
762.437	37.63
762.615	37.65
762.794	38.15
762.972	39
763.151	38.59
763.33	38.7
763.508	38.26
763.687	36.99
763.865	36.51
764.044	35.78
764.222	36.08
764.401	35.26
764.579	36.38
764.758	35.57
764.936	35.01
765.114	34.91
765.293	35.14
765.471	36.01
765.65	36.01
765.828	36.96
766.006	38.31
766.184	38.72
766.363	38.9
766.541	38.4
766.719	39.39
766.898	39.08
767.076	38.77
767.254	38.21
767.432	37.26
767.61	37.8
767.788	37.33
767.967	36.13
768.145	36.41
768.323	35.99
768.501	36.59
768.679	35.57
768.857	35.35
769.035	35.99
769.213	36.94
769.391	35.32
769.569	35.55
769.747	35.39
769.925	34.63
770.103	33.36
770.281	33.98
770.459	31.63
770.636	32.14
770.814	35.17
770.992	34.73
771.17	34.27
771.348	35.01
771.525	35.14
771.703	34.38
771.881	35.05
772.059	35.07
772.236	36.38
772.414	36.78
772.592	37.93
772.769	36.19
772.947	36.43
773.125	37.55
773.302	37.89
773.48	38.54
773.657	38.53
773.835	39.09
774.013	39.28
774.19	37.14
774.368	38.11
774.545	36.78
774.723	34.34
774.9	34.68
775.077	32.86
775.255	33.39
775.432	30.85
775.61	32.72
775.787	30.28
775.964	32.2
776.142	32.31
776.319	32.14
776.496	31.96
776.674	34.09
776.851	35.97
777.028	34.88
777.205	34.64
777.382	34.63
777.56	32.89
777.737	31.95
777.914	29.48
778.091	30.82
778.268	29.24
778.445	29.27
778.622	30.79
778.8	29.12
778.977	32.23
779.154	25.43
779.331	26.4
779.508	27.84
779.685	31.32
779.862	32.92
780.038	32.07
780.215	34.26
780.392	35.06
780.569	31.43
780.746	32.52
780.923	31.48
781.1	38.11
781.277	41.03
781.453	41.11
781.63	42.59
781.807	42.4
781.984	43.11
782.16	41.29
782.337	39.91
782.514	38.97
782.691	36.52
782.867	35.13
783.044	34.93
783.221	33.75
783.397	31.27
783.574	26.12
783.75	25.85
783.927	25.51
784.103	29.38
784.28	30.69
784.456	36.93
784.633	36.94
784.809	38.78
784.986	39.4
785.162	37.22
785.339	40.22
785.515	43.2
785.692	43.1
785.868	42.14
786.044	36.8
786.221	36.45
786.397	32.06
786.573	33.43
786.749	31.11
786.926	29.5
787.102	28
787.278	26.89
787.454	26.06
787.631	24.98
787.807	26.55
787.983	28.37
788.159	27.96
788.335	28.53
788.511	29.36
788.687	30.86
788.863	32.34
789.039	35.41
789.216	34.8
789.392	35.42
789.568	36.01
789.744	33.96
789.919	34.24
790.095	34.54
790.271	34.1
790.447	34.6
790.623	37.04
790.799	37.43
790.975	35.78
791.151	36.29
791.327	37.11
791.502	37.35
791.678	38.27
791.854	38.51
792.03	38.47
792.205	39.91
792.381	36.8
792.557	34.41
792.733	33.22
792.908	32.54
793.084	32.7
793.259	34.26
793.435	34.91
793.611	35.49
793.786	35.21
793.962	36.79
794.137	37.18
794.313	40.07
794.488	36.49
794.664	36.59
794.839	36.16
795.015	36.14
795.19	34.4
795.366	33.5
795.541	34.66
795.716	35.9
795.892	33.34
796.067	31.93
796.242	34.15
796.418	35.52
796.593	36.09
796.768	38.29
796.944	36.82
797.119	37.57
797.294	37.35
797.469	37.75
797.644	34.95
797.82	35.13
797.995	34.28
798.17	31.73
798.345	32.1
798.52	30.35
798.695	27.56
798.87	28.46
799.045	28
799.22	28.97
799.395	28.6
799.57	31.83
799.745	31.43
799.92	32.02
800.095	30.79
800.27	28.99
800.445	29.65
800.62	30.4
800.795	29.55
800.97	30.92
801.145	32.76
801.319	32.55
801.494	30.48
801.669	30.9
801.844	31.21
802.018	32.3
802.193	36.83
802.368	34.46
802.543	33.2
802.717	35.79
802.892	36.07
803.067	34.26
803.241	35.67
803.416	35.36
803.59	38.95
803.765	39.37
803.94	37.49
804.114	34.17
804.289	36.67
804.463	39.7
804.638	37.96
804.812	36.5
804.986	36.74
805.161	33.74
805.335	34.07
805.51	33.61
805.684	33.58
805.858	35.56
806.033	37.79
806.207	36.15
806.381	35.13
806.556	34.8
806.73	33.18
806.904	33.18
807.078	31.4
807.253	34.64
807.427	30.67
807.601	27.89
807.775	28.42
807.949	27.11
808.123	27.72
808.298	29.51
808.472	28.53
808.646	26.78
808.82	27.35
808.994	27.01
809.168	24.51
809.342	26.44
809.516	32.29
809.69	28.47
809.864	29.73
810.038	33.9
810.212	31.82
810.385	33.6
810.559	34.94
810.733	31.11
810.907	32.29
811.081	33.67
811.255	32.92
811.428	31.04
811.602	34.94
811.776	39.41
811.95	38.45
812.123	40.27
812.297	39.12
812.471	44.25
812.644	45.06
812.818	45.41
812.992	40.14
813.165	40.37
813.339	39.04
813.512	36.6
813.686	36.11
813.86	35.3
814.033	32.01
814.207	33.84
814.38	31.53
814.554	38.23
814.727	43.47
814.9	44.4
815.074	44.89
815.247	46.84
815.421	46.91
815.594	43.34
815.767	41.17
815.941	41.31
816.114	38.49
816.287	34.65
816.46	27.59
816.634	22.22
816.807	21.85
816.98	21.84
817.153	22.68
817.327	23.18
817.5	21.05
817.673	19.72
817.846	20.22
818.019	28.33
818.192	28.45
818.365	34.73
818.538	37.87
818.711	40.71
818.884	37.84
819.057	33.81
819.23	32.32
819.403	32.5
819.576	34.62
819.749	33.23
819.922	29.67
820.095	31.15
820.268	28.84
820.441	26.71
820.614	28.73
820.786	30.07
820.959	32
821.132	32.96
821.305	33.54
821.477	33.88
821.65	34.82
821.823	34.4
821.996	34.06
822.168	33.86
822.341	33.99
822.514	33.94
822.686	34.42
822.859	34.79
823.031	34.64
823.204	34.23
823.376	34.23
823.549	33.78
823.722	33.67
823.894	34.13
824.067	34.26
824.239	33.89
824.411	33.8
824.584	33.56
824.756	32.93
824.929	32.99
825.101	33.1
825.273	33.53
825.446	33.89
825.618	33.6
825.79	32.87
825.963	32.37
826.135	33.39
826.307	32.84
826.479	32.19
826.652	32.49
826.824	32.63
826.996	32.74
827.168	31.62
827.34	31.36
827.512	32.35
827.684	32.46
827.856	33.67
828.029	33.47
828.201	33.31
828.373	34.83
828.545	34.3
828.717	33.03
828.889	32.78
829.061	33.25
829.232	33.64
829.404	32.87
829.576	34.24
829.748	32.87
829.92	33.53
830.092	34.33
830.264	31.4
830.436	32.64
830.607	32.75
830.779	34.61
830.951	33.33
831.123	34.21
831.294	33.35
831.466	30.1
831.638	30.59
831.809	28.53
831.981	27.96
832.153	31.95
832.324	30.4
832.496	31.11
832.667	27.56
832.839	27.13
833.011	27.31
833.182	28.39
833.354	29.7
833.525	30.63
833.697	33.28
833.868	34.84
834.039	33.13
834.211	33.45
834.382	35.62
834.554	37.66
834.725	39.67
834.896	38.11
835.068	38.17
835.239	38.38
835.41	36.71
835.581	37.08
835.753	35.87
835.924	35.3
836.095	36.73
836.266	36.18
836.438	38.37
836.609	38.02
836.78	39.89
836.951	40.91
837.122	42.36
837.293	42.59
837.464	40.47
837.635	39.78
837.806	41.66
837.977	37.44
838.148	37.24
838.319	29.34
838.49	31.07
838.661	30.14
838.832	27.47
839.003	21.01
839.174	24.27
839.345	24.01
839.516	24.63
839.687	19.06
839.857	26.17
840.028	21.06
840.199	23.97
840.37	21.71
840.54	23.95
840.711	25.31
840.882	27.87
841.053	25.86
841.223	28.02
841.394	32.2
841.564	33.87
841.735	33.39
841.906	35.54
842.076	34.25
842.247	35.74
842.417	28.25
842.588	29.98
842.758	28.89
842.929	28.9
843.099	16.5
843.27	8.98
843.44	9.49
843.611	1
843.781	-9.67
843.951	-3.79
844.122	-7.71
844.292	-8.21
844.462	-10.64
844.633	-2.55
844.803	6.98
844.973	22.1
845.144	25.98
845.314	26.34
845.484	38.03
845.654	54.23
845.824	51.93
845.995	58.1
846.165	67.02
846.335	66.05
846.505	61.01
846.675	53.04
846.845	48.01
847.015	43.56
847.185	46.08
847.355	27.07
847.525	36.95
847.695	40.89
847.865	21.46
848.035	21.64
848.205	10
848.375	25.16
848.545	20.25
848.715	-0.45
848.884	-1.53
849.054	-22.48
849.224	6.34
849.394	-7.45
849.564	-6.01
849.733	28.24
849.903	-10.82
850.073	-5.48
850.243	-3.77
850.412	6.85
850.582	26.99
850.752	4.95
850.921	14.98
851.091	3.57
851.26	-7
851.43	-10.36
851.599	-27.3
851.769	2.26
851.939	-0.05
852.108	-48.25
852.278	-51.57
852.447	-84.11
852.616	-34.65
852.786	-26.85
852.955	5.64
853.125	-5.86
853.294	30.64
853.463	22.48
853.633	36.36
853.802	37.11
853.971	39.39
854.141	11.46
854.31	39.21
854.479	20.7
854.648	18.73
854.818	-32.06
854.987	11.98
855.156	-4.52
855.325	29.58
855.494	22.09
855.663	27.29
855.832	16.47
856.001	36.45
856.171	11.09
856.34	38.37
856.509	14.2
856.678	34.6
856.847	33.72
857.016	3.44
857.185	-4.04
857.353	18.35
857.522	23.93
857.691	37.1
857.86	39.2
858.029	49.99
858.198	28.68
858.367	30.2
858.535	28.22
858.704	18.96
858.873	30.06
859.042	15.28
859.21	-3.79
859.379	-6.57
859.548	-23.12
859.717	-15.65
859.885	-17.11
860.054	-3.58
860.222	-4.48
860.391	2.52
860.56	11.75
860.728	12.42
860.897	19.78
861.065	12.84
861.234	13.35
861.402	11.97
861.571	10.97
861.739	2.88
861.908	11.36
862.076	20.39
862.244	24.4
862.413	32.18
862.581	14.88
862.749	-30.37
862.918	-37.67
863.086	-50.71
863.254	-14.11
863.423	-175.34
863.591	-9.19
863.759	-64.34
863.927	-128.51
864.096	-1094.44
864.264	485.43
864.432	744.19
864.6	-663.04
864.768	-114.42
864.936	19.34
865.104	2.15
865.272	55.13
865.44	5.36
865.608	12.75
865.776	-47.07
865.944	-24.41
866.112	30.29
866.28	40.55
866.448	29.94
866.616	40.27
866.784	26.13
866.952	11.77
867.12	26.79
867.288	39.51
867.455	31.16
867.623	42.99
867.791	21.58
867.959	14.03
868.127	27.32
868.294	41.26
868.462	23.96
868.63	24.84
868.797	31.67
868.965	-26.58
869.133	-40.06
869.3	-28.76
869.468	6.87
869.636	79.08
869.803	65.93
869.971	7.96
870.138	-0.17
870.306	-17.35
870.473	-14.62
870.641	-13.5
870.808	-7.65
870.975	-11.67
871.143	5.41
871.31	-4.83
871.478	-109.78
871.645	-24.17
871.812	-18.16
871.98	-48.55
872.147	-50.04
872.314	7.68
872.482	-12.71
872.649	-5.71
872.816	30.61
872.983	-5.33
873.15	20.51
873.318	14.66
873.485	29.73
873.652	120.97
873.819	86.61
873.986	63.89
874.153	59.44
874.32	79.09
874.487	82.88
874.654	71.54
874.821	70.82
874.988	77.95
875.155	86.76
875.322	72.87
875.489	60.16
875.656	54.53
875.823	52.77
875.99	45.58
876.157	41.06
876.324	39.48
876.49	53.68
876.657	38.5
876.824	33.56
876.991	26.79
877.157	17.33
877.324	22.74
877.491	28.62
877.658	36.93
877.824	32.23
877.991	49.48
878.157	31.53
878.324	30.05
878.491	35.49
878.657	25.26
878.824	32.54
878.99	40.48
879.157	20.32
879.323	41.52
879.49	39.31
879.656	27.45
879.823	17.74
879.989	35.34
880.156	8.86
880.322	25.3
880.488	43.06
880.655	35.91
880.821	42.34
880.987	53.45
881.154	47.49
881.32	44.07
881.486	43.59
881.652	50.77
881.819	48.16
881.985	48.45
882.151	39.2
882.317	32.9
882.483	29.93
882.649	28.91
882.816	26.8
882.982	29.38
883.148	29.63
883.314	29.78
883.48	27.64
883.646	25.93
883.812	25.96
883.978	26.72
884.144	28.01
884.31	29.91
884.476	29.39
884.642	30.37
884.807	30.26
884.973	31.05
885.139	32.57
885.305	33.97
885.471	35.22
885.637	36.26
885.802	37.23
885.968	35.88
886.134	35.64
886.3	37.46
886.465	37.75
886.631	37.69
886.797	36.79
886.962	36.12
887.128	33.23
887.293	30.63
887.459	27.27
887.625	23.53
887.79	20.56
887.956	31.21
888.121	28.92
888.287	26.75
888.452	21.3
888.618	16.57
888.783	2.57
