Data from CB_102_Reflection_1.txt Node
Date: Sat Nov 14 17:51:16 EST 2015
User: robert
Spectrometer: USB4E03001
Autoset integration time: false
Trigger mode: 4
Integration Time (sec): 1.000000E-1
Scans to average: 15
Electric dark correction enabled: true
Nonlinearity correction enabled: false
Boxcar width: 5
Stray light correction enabled: false
XAxis mode: Wavelengths
Stop averaging: false
Number of Pixels in Spectrum: 3648
>>>>>Begin Spectral Data<<<<<
177.566	152.16
177.785	-98.03
178.005	193.97
178.225	249.5
178.445	-686.32
178.665	123.38
178.885	358.76
179.105	71.32
179.324	120.13
179.544	55.5
179.764	63.56
179.984	78.9
180.204	34.84
180.423	42.96
180.643	56.61
180.863	101.61
181.083	64.41
181.302	77.97
181.522	106.29
181.742	86.54
181.961	136.56
182.181	202.43
182.401	389.17
182.621	299.35
182.84	410.58
183.06	198.19
183.279	105.86
183.499	181.45
183.719	77.1
183.938	31.97
184.158	46.02
184.377	49.63
184.597	-19.88
184.816	27.87
185.036	53.3
185.256	67.44
185.475	60.13
185.695	57.86
185.914	60.06
186.134	73.28
186.353	63.11
186.572	61.71
186.792	59.9
187.011	73.78
187.231	64.84
187.45	53.4
187.67	57.1
187.889	66.51
188.108	85.83
188.328	85.3
188.547	80.61
188.766	98.15
188.986	72.06
189.205	72.34
189.424	62.84
189.644	67.97
189.863	59.54
190.082	41.18
190.302	19.94
190.521	-10.21
190.74	-13.18
190.959	-41.47
191.178	-53.49
191.398	-57.82
191.617	-20.93
191.836	-1.05
192.055	17.91
192.274	13.2
192.494	9.7
192.713	-38.07
192.932	67.14
193.151	142.88
193.37	110.74
193.589	104.79
193.808	178.93
194.027	95.76
194.246	-14.35
194.465	-321.9
194.685	7.68
194.904	66.4
195.123	49.53
195.342	-19.38
195.561	6.53
195.78	-4.38
195.999	26.74
196.218	33.13
196.436	39.55
196.655	48.9
196.874	53.94
197.093	68.26
197.312	59.31
197.531	64.19
197.75	77.91
197.969	72.88
198.188	74.08
198.407	62.8
198.625	59.42
198.844	74.12
199.063	57.66
199.282	64.08
199.501	62.46
199.719	59.33
199.938	57.82
200.157	41.97
200.376	48.93
200.594	69.2
200.813	75.09
201.032	62.85
201.251	57.25
201.469	70.08
201.688	69.13
201.907	39.07
202.125	49.04
202.344	72.33
202.563	92.66
202.781	74.07
203	88
203.218	99.41
203.437	91.3
203.656	84
203.874	48.27
204.093	33.55
204.311	79.73
204.53	72.38
204.748	58.3
204.967	70.86
205.185	94.52
205.404	87.7
205.622	54.13
205.841	59.11
206.059	50.25
206.278	80.65
206.496	75.2
206.715	89.09
206.933	82.14
207.151	94.03
207.37	87.01
207.588	81.02
207.806	79.08
208.025	91.58
208.243	86.49
208.461	108.35
208.68	88.09
208.898	90.78
209.116	81.67
209.335	85.05
209.553	85.83
209.771	103.18
209.989	80.24
210.208	67.41
210.426	58.16
210.644	51.21
210.862	39.89
211.081	30.79
211.299	34.25
211.517	52.14
211.735	36.38
211.953	51.98
212.171	47.09
212.39	56.34
212.608	59.81
212.826	75.49
213.044	81.29
213.262	77.73
213.48	95.78
213.698	79.72
213.916	74.97
214.134	75.34
214.352	61.65
214.57	53.4
214.788	52.46
215.006	67.67
215.224	65.49
215.442	74.41
215.66	95.91
215.878	72.78
216.096	96.73
216.314	106.15
216.532	122.34
216.75	108.55
216.968	122.8
217.185	153.27
217.403	149.3
217.621	153.98
217.839	141.41
218.057	150.28
218.275	183.16
218.492	215.86
218.71	193.39
218.928	155.97
219.146	245.96
219.363	203.15
219.581	204.76
219.799	216.68
220.017	186.13
220.234	153
220.452	135.8
220.67	102.14
220.887	151.32
221.105	164.86
221.323	3231.9
221.54	312.62
221.758	808.93
221.976	-9.25
222.193	59.84
222.411	51.08
222.629	101.37
222.846	345.91
223.064	-368.42
223.281	444.28
223.499	293.13
223.716	222.41
223.934	-11.19
224.151	20.91
224.369	-12.42
224.586	1.98
224.804	11.45
225.021	20.58
225.239	35.51
225.456	40.11
225.674	51.11
225.891	56.21
226.108	11.86
226.326	14.82
226.543	-3.7
226.76	5.75
226.978	16.99
227.195	7.28
227.413	-11.58
227.63	-0.61
227.847	-1.46
228.064	3.63
228.282	1.31
228.499	8.76
228.716	6.1
228.934	7.39
229.151	6.41
229.368	7.22
229.585	6.26
229.802	9.62
230.02	7.5
230.237	7.74
230.454	8.61
230.671	9.65
230.888	10.39
231.105	9.38
231.323	7.42
231.54	1.61
231.757	-3.12
231.974	-3.24
232.191	0.03
232.408	1.1
232.625	6.39
232.842	6.92
233.059	10.04
233.276	4.05
233.493	7.38
233.71	18.9
233.927	32.47
234.144	34.34
234.361	33.62
234.578	24.5
234.795	21.45
235.012	15.62
235.229	9.49
235.446	8.23
235.663	5.1
235.879	9.16
236.096	1.7
236.313	-3.54
236.53	-6.96
236.747	-7.13
236.964	-9.02
237.181	-15.38
237.397	-14.11
237.614	-10.24
237.831	-10.16
238.048	-6.99
238.264	-18.38
238.481	-14.88
238.698	-4.27
238.915	2.45
239.131	4.95
239.348	11.8
239.565	12.93
239.781	15.9
239.998	13.42
240.215	16.9
240.431	13.93
240.648	19.32
240.865	19.31
241.081	15.73
241.298	14.03
241.514	13.77
241.731	13.79
241.947	14.15
242.164	13.49
242.38	15.5
242.597	13.79
242.814	14.42
243.03	11.72
243.246	10.48
243.463	10.13
243.679	9.69
243.896	10.56
244.112	8.57
244.329	8.94
244.545	11.09
244.762	11.49
244.978	12.8
245.194	10.27
245.411	9.37
245.627	10.02
245.843	7.86
246.06	7.2
246.276	7.69
246.492	8.35
246.709	8.42
246.925	7.55
247.141	7.22
247.357	7.11
247.574	8.01
247.79	9.4
248.006	10.1
248.222	10.91
248.439	11.34
248.655	9.94
248.871	9.67
249.087	10.34
249.303	10.42
249.519	9.8
249.736	9.35
249.952	9.75
250.168	11.05
250.384	8.39
250.6	9.11
250.816	7.81
251.032	9.38
251.248	9.55
251.464	6.02
251.68	4.66
251.896	4.98
252.112	3.75
252.328	2.3
252.544	0.09
252.76	-0.37
252.976	-2.41
253.192	-2
253.408	-2.65
253.624	-3.04
253.84	-0.94
254.056	-0.59
254.272	-2.44
254.487	-3.44
254.703	0.11
254.919	-4.13
255.135	-3.73
255.351	-7.56
255.567	-5.59
255.782	-6.98
255.998	-5.61
256.214	-6.98
256.43	-4.87
256.646	-1.93
256.861	3.57
257.077	0.94
257.293	5.81
257.508	10.72
257.724	12.96
257.94	13.34
258.155	12.22
258.371	10.86
258.587	9.87
258.802	8.72
259.018	8.24
259.234	7.66
259.449	7.42
259.665	6.27
259.88	5.37
260.096	5.83
260.312	5.42
260.527	6.05
260.743	5.75
260.958	6.34
261.174	6.67
261.389	6.29
261.605	5.84
261.82	5.56
262.036	5.76
262.251	4.7
262.466	5.19
262.682	4.02
262.897	4.64
263.113	5.57
263.328	6.4
263.543	4.01
263.759	3.51
263.974	2.79
264.189	2.7
264.405	3.01
264.62	4.93
264.835	4.07
265.051	6.89
265.266	4.97
265.481	6.59
265.696	4.06
265.912	7.43
266.127	8.56
266.342	8.52
266.557	8.58
266.773	6.09
266.988	5.24
267.203	5.46
267.418	5.04
267.633	6.77
267.848	6.27
268.064	7.24
268.279	5.65
268.494	4.46
268.709	4.47
268.924	6.68
269.139	7.5
269.354	7.56
269.569	7.18
269.784	6.69
269.999	4.89
270.214	4.42
270.429	2.26
270.644	3.12
270.859	3.88
271.074	3.56
271.289	2.36
271.504	3.79
271.719	4.24
271.934	4.35
272.149	5.82
272.363	6.82
272.578	7.83
272.793	8.44
273.008	7.67
273.223	8.33
273.438	8.62
273.653	9.29
273.867	8.44
274.082	7.78
274.297	7.05
274.512	3.47
274.726	0.78
274.941	-1.64
275.156	-0.66
275.371	0.12
275.585	-0.15
275.8	-0.48
276.015	-2.06
276.229	-0.65
276.444	0.13
276.659	0.46
276.873	2.97
277.088	5.75
277.302	6.32
277.517	6.02
277.732	6.08
277.946	5.43
278.161	6.06
278.375	7.16
278.59	7.15
278.804	6.36
279.019	6.51
279.233	6.16
279.448	5.2
279.662	5.8
279.877	6.04
280.091	7
280.306	6.7
280.52	6.76
280.735	6.19
280.949	6.99
281.163	8.75
281.378	7.28
281.592	7.65
281.806	8.47
282.021	7.45
282.235	7.54
282.449	7.01
282.664	6.65
282.878	7.06
283.092	7.59
283.307	7.07
283.521	5.57
283.735	7.75
283.949	8.27
284.164	6.96
284.378	7.43
284.592	7.01
284.806	6.75
285.02	8.04
285.234	7.96
285.449	7.94
285.663	7.71
285.877	7.79
286.091	6.35
286.305	6.21
286.519	6.89
286.733	7.28
286.947	7.6
287.161	8.52
287.375	8.35
287.589	9.36
287.803	9.61
288.017	9.33
288.231	9.59
288.445	10.57
288.659	9.89
288.873	9.2
289.087	8.75
289.301	8.59
289.515	8.19
289.729	7.14
289.943	5.29
290.157	5.16
290.371	6.19
290.584	6.79
290.798	5.95
291.012	7.26
291.226	7.83
291.44	7.4
291.654	6.77
291.867	6.49
292.081	7.51
292.295	8.85
292.509	8.73
292.722	8.67
292.936	8.29
293.15	9.3
293.364	8.59
293.577	8.46
293.791	9.92
294.005	10.81
294.218	10.3
294.432	8.33
294.645	8
294.859	9.22
295.073	7.98
295.286	7.89
295.5	8.16
295.713	7.62
295.927	8.04
296.14	7.16
296.354	7.52
296.568	7.62
296.781	10.13
296.994	10.44
297.208	8.61
297.421	9.54
297.635	9.01
297.848	9.93
298.062	10.34
298.275	10.36
298.489	10.1
298.702	10.21
298.915	10.44
299.129	9.84
299.342	10.57
299.555	11.07
299.769	11.19
299.982	11.93
300.195	10.42
300.409	10.94
300.622	10.87
300.835	11.59
301.048	10.77
301.262	11.06
301.475	10.55
301.688	7.69
301.901	8.29
302.115	8
302.328	9.02
302.541	9.78
302.754	8.93
302.967	8.94
303.18	9.94
303.393	11.49
303.607	10.12
303.82	9.79
304.033	12.35
304.246	12.22
304.459	11.86
304.672	11.67
304.885	10.75
305.098	11.62
305.311	11.63
305.524	10.1
305.737	8.35
305.95	10.52
306.163	10.49
306.376	8.79
306.589	9.81
306.802	9.35
307.015	8.23
307.228	9.99
307.44	10.47
307.653	11.13
307.866	12.37
308.079	12.51
308.292	11.94
308.505	12.6
308.718	12.83
308.93	13.33
309.143	13.78
309.356	14.97
309.569	14.45
309.781	14.18
309.994	14
310.207	14.11
310.42	14.78
310.632	14.94
310.845	14.26
311.058	14.94
311.27	15.81
311.483	16.52
311.696	16.77
311.908	16.81
312.121	15.9
312.333	16.12
312.546	16.98
312.759	16.52
312.971	15.86
313.184	15.86
313.396	14.76
313.609	12.68
313.821	12.1
314.034	9.72
314.246	9.72
314.459	11.09
314.671	10.36
314.884	9.74
315.096	11.24
315.309	11.48
315.521	11.49
315.733	12.07
315.946	12.37
316.158	12.06
316.371	14.32
316.583	14.2
316.795	12.92
317.008	13.66
317.22	13.22
317.432	12.35
317.644	11.69
317.857	13.76
318.069	13.31
318.281	12.85
318.494	11.74
318.706	10.65
318.918	9.99
319.13	12.07
319.342	11.54
319.555	10.94
319.767	11.22
319.979	11.07
320.191	10.85
320.403	11.66
320.615	12.54
320.827	14.27
321.039	14.89
321.252	15.98
321.464	14.91
321.676	14.6
321.888	15.98
322.1	15.07
322.312	16.92
322.524	16.22
322.736	18.01
322.948	18.63
323.16	19.24
323.372	18.97
323.584	19.48
323.796	19.1
324.007	18.58
324.219	18.68
324.431	18.98
324.643	17.51
324.855	17.69
325.067	17.13
325.279	16.19
325.491	16.37
325.702	16.75
325.914	16.28
326.126	16.62
326.338	18.66
326.55	19.12
326.761	21.36
326.973	22.89
327.185	23.31
327.396	23.13
327.608	23.27
327.82	22.31
328.032	23.48
328.243	23.64
328.455	24.54
328.666	25.19
328.878	26.07
329.09	24.95
329.301	25.45
329.513	25.43
329.725	26.11
329.936	27.48
330.148	27.7
330.359	26.85
330.571	27.13
330.782	26.86
330.994	26.4
331.205	25.91
331.417	26.65
331.628	27.6
331.84	27.31
332.051	27.28
332.262	27.15
332.474	27.9
332.685	28.98
332.897	28.9
333.108	29
333.319	28.67
333.531	28.32
333.742	27.94
333.953	27.76
334.165	28.46
334.376	28.75
334.587	29.71
334.799	30.9
335.01	30.31
335.221	31.18
335.432	32.63
335.644	33.54
335.855	34.48
336.066	35.44
336.277	34.71
336.488	34.38
336.7	33.47
336.911	32.89
337.122	32.08
337.333	32.78
337.544	31.85
337.755	29.86
337.966	29.6
338.177	28.47
338.388	27.17
338.599	27.06
338.811	27.65
339.022	28.74
339.233	28.8
339.444	28.16
339.655	27.26
339.866	28.46
340.076	28.92
340.287	28.47
340.498	28.57
340.709	28.74
340.92	30.26
341.131	29.55
341.342	29.56
341.553	28.6
341.764	29.91
341.975	30.21
342.185	29.77
342.396	29.66
342.607	29.67
342.818	30.05
343.029	29.8
343.239	29.32
343.45	29.07
343.661	28.81
343.872	29.23
344.082	28.68
344.293	28.71
344.504	28.76
344.714	29.5
344.925	29.3
345.136	29.38
345.346	29.41
345.557	29.22
345.768	29.8
345.978	28.82
346.189	28.86
346.399	29.13
346.61	28.46
346.821	27.81
347.031	27.84
347.242	28.38
347.452	27.67
347.663	27.17
347.873	26.77
348.084	26.78
348.294	27.27
348.504	27.57
348.715	26.56
348.925	26.91
349.136	27.09
349.346	26.09
349.557	26.17
349.767	26.5
349.977	27.37
350.188	26.29
350.398	26.26
350.608	26.98
350.819	26.43
351.029	27.12
351.239	27.78
351.449	28.26
351.66	28.94
351.87	28.96
352.08	28.87
352.29	28.8
352.501	29.84
352.711	30.18
352.921	30.05
353.131	30.14
353.341	29.71
353.552	28.78
353.762	28.08
353.972	28.28
354.182	27.24
354.392	26.49
354.602	26.63
354.812	26.59
355.022	26.59
355.232	26.1
355.442	26.38
355.652	26.03
355.862	26.23
356.072	26.5
356.282	26.91
356.492	27.99
356.702	29.12
356.912	29.07
357.122	29.49
357.332	29.36
357.542	29.52
357.752	29.13
357.962	29.87
358.171	30
358.381	29.99
358.591	29.1
358.801	28.56
359.011	28.11
359.221	27.88
359.43	27.1
359.64	26.29
359.85	26.2
360.06	26.48
360.269	26.1
360.479	26.06
360.689	26.32
360.899	26.77
361.108	26.55
361.318	26.85
361.528	26.84
361.737	27.37
361.947	27.54
362.156	27.72
362.366	27.64
362.576	27.67
362.785	27.88
362.995	27.77
363.204	27.52
363.414	27.84
363.623	27.78
363.833	27.54
364.042	26.97
364.252	27
364.461	26.56
364.671	26.24
364.88	26.03
365.09	25.86
365.299	25.42
365.509	24.85
365.718	24.39
365.927	23.9
366.137	23.76
366.346	23.8
366.555	24.05
366.765	23.96
366.974	24.18
367.183	23.52
367.393	23.39
367.602	23.6
367.811	24.31
368.021	24.03
368.23	24.11
368.439	23.97
368.648	24.34
368.857	24
369.067	24.1
369.276	23.65
369.485	24.4
369.694	23.93
369.903	23.92
370.112	23.9
370.321	24.92
370.531	24.57
370.74	24.44
370.949	23.73
371.158	23.98
371.367	24.05
371.576	24.16
371.785	23.77
371.994	23.96
372.203	23.95
372.412	23.54
372.621	22.99
372.83	22.95
373.039	23.43
373.248	23.86
373.457	23.32
373.666	22.87
373.874	22.91
374.083	22.93
374.292	22.51
374.501	21.92
374.71	21.3
374.919	20.93
375.128	21.11
375.336	20.73
375.545	20.12
375.754	20.32
375.963	20.6
376.171	20.36
376.38	20.32
376.589	20.37
376.798	20.34
377.006	21.17
377.215	21.13
377.424	20.93
377.632	20.61
377.841	20.61
378.05	20.3
378.258	20.36
378.467	20.05
378.675	20.03
378.884	19.76
379.093	19.78
379.301	19.03
379.51	18.68
379.718	18.51
379.927	18.88
380.135	19.48
380.344	19.68
380.552	18.88
380.761	19.28
380.969	19.18
381.177	19.85
381.386	19.61
381.594	19.62
381.803	19.76
382.011	19.68
382.219	19.32
382.428	18.9
382.636	18.71
382.845	18.59
383.053	18.72
383.261	18.32
383.469	17.57
383.678	17.84
383.886	18.19
384.094	18.23
384.302	17.81
384.511	17.77
384.719	17.48
384.927	16.99
385.135	17.15
385.343	16.57
385.552	16.7
385.76	16.37
385.968	16.03
386.176	15.47
386.384	15.32
386.592	15.56
386.8	15.34
387.008	15.44
387.216	15.77
387.424	15.76
387.633	15.85
387.841	16.03
388.049	16.56
388.257	16.32
388.465	16.05
388.672	15.91
388.88	16.16
389.088	16.34
389.296	15.89
389.504	15.59
389.712	15.86
389.92	15.74
390.128	15.61
390.336	15.24
390.544	15.54
390.751	15.53
390.959	15.41
391.167	15.13
391.375	14.76
391.583	14.66
391.79	14.68
391.998	14.4
392.206	14.4
392.414	14.08
392.621	13.84
392.829	13.59
393.037	13.88
393.244	13.92
393.452	13.58
393.66	13.84
393.867	13.8
394.075	13.98
394.283	13.77
394.49	13.45
394.698	13.42
394.905	13.58
395.113	13.38
395.32	13.01
395.528	12.75
395.735	12.88
395.943	12.46
396.15	12.39
396.358	12.15
396.565	12.28
396.773	12.42
396.98	12.18
397.188	12.32
397.395	12.68
397.602	12.91
397.81	13.13
398.017	12.8
398.225	13.04
398.432	13.21
398.639	13.13
398.847	12.96
399.054	12.75
399.261	12.93
399.468	12.74
399.676	12.65
399.883	12.45
400.09	12.19
400.297	12.41
400.505	12.02
400.712	11.86
400.919	11.4
401.126	11.18
401.333	11.58
401.54	11.77
401.748	11.74
401.955	11.37
402.162	11.65
402.369	11.74
402.576	11.68
402.783	12.1
402.99	12.51
403.197	12.69
403.404	12.58
403.611	11.99
403.818	11.75
404.025	11.85
404.232	11.96
404.439	11.9
404.646	11.68
404.853	11.8
405.06	11.65
405.267	11.56
405.474	11.7
405.681	11.8
405.887	12
406.094	11.74
406.301	11.86
406.508	11.9
406.715	11.72
406.922	11.92
407.128	12.03
407.335	12.2
407.542	12
407.749	11.85
407.955	12.1
408.162	12.38
408.369	12.48
408.575	12.14
408.782	12.02
408.989	12.05
409.195	11.99
409.402	11.61
409.609	11.47
409.815	11.52
410.022	11.41
410.228	11.08
410.435	10.86
410.642	11.11
410.848	10.67
411.055	10.55
411.261	10.33
411.468	10.33
411.674	10.4
411.881	10.2
412.087	9.76
412.294	10.17
412.5	10.38
412.706	10.31
412.913	10
413.119	10.27
413.326	10.36
413.532	10.41
413.738	10.3
413.945	10.5
414.151	10.65
414.357	10.91
414.564	10.49
414.77	10.04
414.976	10.27
415.182	10.25
415.389	10.47
415.595	10.46
415.801	10.44
416.007	10.32
416.214	10.21
416.42	10.22
416.626	10.11
416.832	10.28
417.038	10.6
417.244	10.37
417.45	10.51
417.657	10.09
417.863	10.1
418.069	10.18
418.275	10.24
418.481	10.26
418.687	10.31
418.893	10.4
419.099	10.4
419.305	10.27
419.511	10.36
419.717	10.24
419.923	10.41
420.129	10.37
420.335	10.39
420.541	10.54
420.746	10.38
420.952	10.21
421.158	10.14
421.364	10.01
421.57	10.11
421.776	10.04
421.982	9.99
422.187	9.82
422.393	9.86
422.599	9.76
422.805	9.54
423.01	9.66
423.216	9.66
423.422	9.58
423.628	9.56
423.833	9.6
424.039	9.73
424.245	9.76
424.45	9.87
424.656	9.99
424.862	10.04
425.067	10.09
425.273	10.06
425.478	10.07
425.684	10.13
425.889	10.14
426.095	10.11
426.301	9.81
426.506	9.96
426.712	9.88
426.917	9.84
427.123	9.6
427.328	9.73
427.533	9.68
427.739	9.7
427.944	9.67
428.15	9.6
428.355	9.44
428.561	9.59
428.766	9.49
428.971	9.55
429.177	9.35
429.382	9.57
429.587	9.43
429.793	9.48
429.998	9.6
430.203	9.55
430.408	9.91
430.614	9.73
430.819	9.7
431.024	9.76
431.229	9.84
431.434	9.79
431.64	9.89
431.845	9.85
432.05	9.61
432.255	9.44
432.46	9.47
432.665	9.22
432.87	9.46
433.076	9.61
433.281	9.51
433.486	9.45
433.691	9.52
433.896	9.45
434.101	9.35
434.306	9.3
434.511	9.32
434.716	9.17
434.921	9.17
435.126	8.99
435.331	8.93
435.535	9.04
435.74	9.07
435.945	9.14
436.15	8.92
436.355	8.98
436.56	9.19
436.765	9.22
436.97	9.29
437.174	9.37
437.379	9.43
437.584	9.37
437.789	9.31
437.993	9.4
438.198	9.14
438.403	9.33
438.608	9.24
438.812	9.31
439.017	9.22
439.222	9.36
439.426	9.32
439.631	9.28
439.836	9.2
440.04	9.15
440.245	9.12
440.45	9.26
440.654	9.14
440.859	9.21
441.063	9.12
441.268	9.08
441.472	8.95
441.677	9.11
441.881	9.17
442.086	9.25
442.29	9.25
442.495	9.32
442.699	9.15
442.904	9.23
443.108	9.1
443.312	9.07
443.517	9.09
443.721	9.07
443.925	8.98
444.13	9
444.334	8.84
444.538	8.85
444.743	8.72
444.947	8.9
445.151	8.85
445.356	9.04
445.56	9.03
445.764	9.23
445.968	9.3
446.173	9.21
446.377	9.06
446.581	9.03
446.785	8.99
446.989	8.85
447.193	8.79
447.398	8.92
447.602	8.91
447.806	8.98
448.01	8.83
448.214	8.89
448.418	8.64
448.622	8.6
448.826	8.51
449.03	8.61
449.234	8.85
449.438	8.88
449.642	8.66
449.846	8.48
450.05	8.12
450.254	8.08
450.458	7.92
450.662	8.22
450.866	8.39
451.069	8.71
451.273	8.58
451.477	8.55
451.681	8.35
451.885	8.58
452.089	8.59
452.292	8.82
452.496	8.77
452.7	8.81
452.904	8.84
453.107	8.83
453.311	8.76
453.515	8.67
453.719	8.57
453.922	8.57
454.126	8.39
454.33	8.26
454.533	8.34
454.737	8.37
454.94	8.34
455.144	8.3
455.348	8.3
455.551	8.23
455.755	8.35
455.958	8.41
456.162	8.32
456.365	8.4
456.569	8.49
456.772	8.52
456.976	8.64
457.179	8.69
457.383	8.75
457.586	8.83
457.79	8.91
457.993	9
458.196	8.9
458.4	8.98
458.603	8.84
458.807	8.95
459.01	8.9
459.213	8.83
459.417	8.88
459.62	8.77
459.823	8.6
460.026	8.52
460.23	8.36
460.433	8.42
460.636	8.57
460.839	8.6
461.042	8.56
461.246	8.46
461.449	8.33
461.652	8.32
461.855	8.38
462.058	8.3
462.261	8.43
462.464	8.47
462.668	8.48
462.871	8.32
463.074	8.41
463.277	8.32
463.48	8.31
463.683	8.56
463.886	8.43
464.089	8.26
464.292	8.39
464.495	8.47
464.698	8.48
464.901	8.48
465.104	8.62
465.306	8.61
465.509	8.49
465.712	8.63
465.915	8.46
466.118	8.41
466.321	8.49
466.524	8.51
466.726	8.34
466.929	8.22
467.132	8.21
467.335	8.01
467.538	8.12
467.74	8.22
467.943	8.13
468.146	8.25
468.348	8.32
468.551	8.29
468.754	8.31
468.956	8.43
469.159	8.47
469.362	8.41
469.564	8.52
469.767	8.39
469.969	8.48
470.172	8.6
470.375	8.57
470.577	8.68
470.78	8.73
470.982	8.91
471.185	8.84
471.387	9.03
471.59	9
471.792	9.02
471.995	9.07
472.197	8.97
472.399	8.75
472.602	8.63
472.804	8.32
473.007	8.21
473.209	8.12
473.411	7.97
473.614	7.79
473.816	7.86
474.018	7.94
474.22	8.06
474.423	8.16
474.625	8.44
474.827	8.43
475.03	8.63
475.232	8.69
475.434	8.79
475.636	8.88
475.838	9.09
476.04	9.04
476.243	8.8
476.445	8.58
476.647	8.51
476.849	8.37
477.051	8.52
477.253	8.49
477.455	8.29
477.657	8.16
477.859	8.07
478.061	8.05
478.263	8.09
478.465	8.18
478.667	8.26
478.869	8.37
479.071	8.38
479.273	8.33
479.475	8.38
479.677	8.48
479.879	8.32
480.081	8.42
480.283	8.34
480.485	8.23
480.686	8.34
480.888	8.31
481.09	8.41
481.292	8.47
481.494	8.46
481.695	8.5
481.897	8.66
482.099	8.75
482.301	8.72
482.502	8.68
482.704	8.72
482.906	8.69
483.107	8.72
483.309	8.64
483.511	8.65
483.712	8.64
483.914	8.56
484.115	8.52
484.317	8.55
484.519	8.54
484.72	8.52
484.922	8.49
485.123	8.46
485.325	8.42
485.526	8.43
485.728	8.38
485.929	8.38
486.131	8.42
486.332	8.46
486.534	8.43
486.735	8.42
486.936	8.45
487.138	8.52
487.339	8.5
487.541	8.55
487.742	8.54
487.943	8.56
488.144	8.56
488.346	8.56
488.547	8.55
488.748	8.55
488.95	8.64
489.151	8.63
489.352	8.59
489.553	8.59
489.755	8.53
489.956	8.53
490.157	8.52
490.358	8.5
490.559	8.5
490.76	8.51
490.961	8.53
491.163	8.6
491.364	8.61
491.565	8.55
491.766	8.63
491.967	8.63
492.168	8.68
492.369	8.7
492.57	8.73
492.771	8.65
492.972	8.62
493.173	8.55
493.374	8.48
493.575	8.54
493.776	8.66
493.976	8.67
494.177	8.61
494.378	8.63
494.579	8.7
494.78	8.63
494.981	8.85
495.182	8.87
495.382	8.99
495.583	8.84
495.784	8.73
495.985	8.74
496.185	8.57
496.386	8.69
496.587	8.62
496.788	8.71
496.988	8.78
497.189	8.76
497.39	8.92
497.59	8.8
497.791	8.93
497.992	9.02
498.192	8.92
498.393	8.95
498.593	8.96
498.794	8.94
498.994	8.78
499.195	8.67
499.395	8.65
499.596	8.56
499.796	8.6
499.997	8.58
500.197	8.5
500.398	8.72
500.598	8.83
500.799	8.87
500.999	8.96
501.199	8.9
501.4	9.05
501.6	9.09
501.801	9.06
502.001	9.16
502.201	9.13
502.402	9.15
502.602	8.97
502.802	8.88
503.002	8.94
503.203	8.86
503.403	8.92
503.603	8.97
503.803	9.1
504.003	9.22
504.204	9.18
504.404	9.23
504.604	9.35
504.804	9.44
505.004	9.55
505.204	9.38
505.404	9.57
505.604	9.56
505.804	9.62
506.005	9.42
506.205	9.55
506.405	9.55
506.605	9.64
506.805	9.56
507.005	9.48
507.204	9.51
507.404	9.66
507.604	9.51
507.804	9.56
508.004	9.52
508.204	9.63
508.404	9.43
508.604	9.69
508.804	9.66
509.003	9.87
509.203	10.04
509.403	10.11
509.603	9.97
509.803	10.31
510.002	10.46
510.202	10.56
510.402	10.64
510.602	10.87
510.801	10.77
511.001	10.78
511.201	10.75
511.4	10.69
511.6	10.64
511.8	10.88
511.999	10.68
512.199	10.68
512.398	10.56
512.598	10.62
512.797	10.57
512.997	10.6
513.197	10.73
513.396	10.75
513.596	11.02
513.795	11.27
513.994	11.22
514.194	11.37
514.393	11.57
514.593	11.77
514.792	11.83
514.992	11.94
515.191	12.03
515.39	12.14
515.59	12.27
515.789	12.3
515.988	12.29
516.188	12.52
516.387	12.63
516.586	12.67
516.786	12.75
516.985	12.76
517.184	12.87
517.383	12.92
517.582	12.97
517.782	13.04
517.981	13.01
518.18	13.21
518.379	13.31
518.578	13.31
518.777	13.2
518.976	13.41
519.176	13.49
519.375	13.48
519.574	13.72
519.773	13.73
519.972	13.87
520.171	14.04
520.37	14
520.569	14.11
520.768	14.22
520.967	14.53
521.166	14.49
521.365	14.8
521.564	14.98
521.762	15
521.961	15.22
522.16	15.4
522.359	15.51
522.558	15.66
522.757	15.75
522.956	15.96
523.154	16.17
523.353	16.34
523.552	16.35
523.751	16.55
523.949	16.69
524.148	16.79
524.347	16.82
524.546	16.94
524.744	17.08
524.943	17.12
525.142	17.09
525.34	17.17
525.539	17.11
525.737	17.29
525.936	17.36
526.135	17.52
526.333	17.6
526.532	17.78
526.73	17.9
526.929	17.97
527.127	18.2
527.326	18.37
527.524	18.46
527.723	18.81
527.921	18.89
528.12	18.97
528.318	19.01
528.516	19.12
528.715	19.19
528.913	19.26
529.112	19.33
529.31	19.42
529.508	19.47
529.707	19.61
529.905	19.59
530.103	19.66
530.301	19.74
530.5	19.87
530.698	19.92
530.896	20
531.094	20.17
531.293	20.3
531.491	20.34
531.689	20.45
531.887	20.46
532.085	20.6
532.283	20.76
532.481	20.85
532.68	20.86
532.878	21.1
533.076	21.17
533.274	21.17
533.472	21.24
533.67	21.26
533.868	21.33
534.066	21.4
534.264	21.42
534.462	21.48
534.66	21.61
534.858	21.76
535.056	21.7
535.253	21.77
535.451	21.94
535.649	22.12
535.847	22.32
536.045	22.56
536.243	22.7
536.441	22.92
536.638	22.91
536.836	23.01
537.034	23.1
537.232	23.2
537.43	23.32
537.627	23.36
537.825	23.4
538.023	23.36
538.22	23.42
538.418	23.45
538.616	23.41
538.813	23.57
539.011	23.53
539.209	23.57
539.406	23.82
539.604	23.9
539.801	23.97
539.999	24.15
540.196	24.24
540.394	24.28
540.591	24.34
540.789	24.38
540.986	24.45
541.184	24.61
541.381	24.66
541.579	24.61
541.776	24.65
541.974	24.64
542.171	24.63
542.368	24.78
542.566	24.82
542.763	24.96
542.96	24.98
543.158	25.08
543.355	25.14
543.552	25.28
543.75	25.45
543.947	25.47
544.144	25.67
544.341	25.69
544.539	25.72
544.736	25.79
544.933	25.81
545.13	25.83
545.327	25.9
545.524	25.88
545.722	25.8
545.919	25.75
546.116	25.9
546.313	25.78
546.51	25.85
546.707	25.8
546.904	25.84
547.101	25.86
547.298	25.94
547.495	25.89
547.692	26
547.889	26.06
548.086	26.03
548.283	25.96
548.48	26.11
548.677	26.07
548.874	26.29
549.07	26.27
549.267	26.35
549.464	26.49
549.661	26.38
549.858	26.34
550.055	26.48
550.251	26.53
550.448	26.82
550.645	26.91
550.842	26.98
551.038	26.76
551.235	26.89
551.432	26.74
551.628	26.76
551.825	26.93
552.022	26.84
552.218	27
552.415	27.09
552.612	26.94
552.808	26.9
553.005	26.97
553.201	27.11
553.398	27.01
553.594	27.11
553.791	27.26
553.987	27.25
554.184	27.46
554.38	27.52
554.577	27.37
554.773	27.65
554.97	27.68
555.166	27.77
555.362	27.97
555.559	28.16
555.755	28.33
555.952	28.29
556.148	28.25
556.344	28.24
556.541	28.2
556.737	28.37
556.933	28.2
557.129	28.29
557.326	28.24
557.522	28.34
557.718	28.53
557.914	28.57
558.11	28.67
558.307	28.96
558.503	28.98
558.699	29.06
558.895	29.05
559.091	29.18
559.287	29.33
559.483	29.43
559.679	29.25
559.876	29.23
560.072	29.21
560.268	29.08
560.464	29.02
560.66	29.14
560.856	29.24
561.052	29.75
561.247	29.87
561.443	29.82
561.639	29.9
561.835	29.86
562.031	29.86
562.227	29.95
562.423	30.03
562.619	30.18
562.815	30.22
563.01	30.09
563.206	29.89
563.402	29.93
563.598	29.93
563.793	30.07
563.989	30.32
564.185	30.34
564.381	30.31
564.576	30.49
564.772	30.56
564.968	30.44
565.163	30.41
565.359	30.53
565.555	30.56
565.75	30.63
565.946	30.66
566.141	30.57
566.337	30.52
566.532	30.52
566.728	30.56
566.923	30.44
567.119	30.53
567.314	30.58
567.51	30.37
567.705	30.17
567.901	30.21
568.096	30.01
568.292	30.05
568.487	30.12
568.682	30.29
568.878	30.33
569.073	30.44
569.268	30.48
569.464	30.46
569.659	30.5
569.854	30.62
570.05	30.62
570.245	30.94
570.44	31.01
570.635	31.08
570.831	30.92
571.026	30.68
571.221	30.78
571.416	30.78
571.611	30.96
571.806	31.09
572.002	31.31
572.197	31.44
572.392	31.34
572.587	31.21
572.782	31.22
572.977	31.44
573.172	31.56
573.367	31.42
573.562	31.55
573.757	31.47
573.952	31.46
574.147	31.36
574.342	31.25
574.537	31.16
574.732	31.37
574.927	31.46
575.121	31.3
575.316	31.23
575.511	31.46
575.706	31.45
575.901	31.51
576.096	31.43
576.29	31.3
576.485	31.5
576.68	31.67
576.875	31.71
577.069	31.58
577.264	31.77
577.459	31.91
577.654	31.79
577.848	31.73
578.043	31.88
578.238	32.07
578.432	32.06
578.627	31.89
578.821	31.92
579.016	31.77
579.21	31.74
579.405	31.55
579.6	31.49
579.794	31.31
579.989	31.35
580.183	31.26
580.378	31.15
580.572	31.37
580.766	31.55
580.961	31.45
581.155	31.55
581.35	31.71
581.544	31.79
581.738	31.85
581.933	32.04
582.127	32.38
582.321	32.33
582.516	32.12
582.71	32.06
582.904	31.93
583.099	32.02
583.293	32.21
583.487	32.33
583.681	32.32
583.875	32.31
584.07	32.34
584.264	32.08
584.458	32.17
584.652	32.42
584.846	32.59
585.04	32.49
585.234	32.31
585.428	32.12
585.623	32.25
585.817	32.24
586.011	32.36
586.205	32.25
586.399	32.13
586.593	31.8
586.787	31.92
586.981	31.78
587.174	31.99
587.368	32.07
587.562	31.98
587.756	31.68
587.95	31.84
588.144	31.97
588.338	32.09
588.532	32.05
588.725	32.39
588.919	32.36
589.113	32.32
589.307	32.39
589.501	32.38
589.694	32.65
589.888	32.69
590.082	32.7
590.275	32.49
590.469	32.48
590.663	32.48
590.856	32.52
591.05	32.53
591.244	32.82
591.437	32.67
591.631	32.73
591.824	32.84
592.018	33.18
592.212	32.95
592.405	33.24
592.599	33.05
592.792	33.31
592.986	33.02
593.179	33.18
593.372	33.1
593.566	33.48
593.759	33.54
593.953	33.34
594.146	32.98
594.339	33.29
594.533	33.26
594.726	33.74
594.92	33.69
595.113	33.78
595.306	33.55
595.499	33.43
595.693	33.4
595.886	33.5
596.079	33.51
596.272	33.75
596.466	33.67
596.659	33.76
596.852	33.58
597.045	33.65
597.238	33.68
597.431	33.95
597.624	33.98
597.818	33.83
598.011	33.64
598.204	33.69
598.397	33.78
598.59	33.79
598.783	33.72
598.976	33.83
599.169	33.97
599.362	34.07
599.555	33.83
599.748	34.17
599.941	34.16
600.134	34.39
600.326	34.47
600.519	33.97
600.712	33.98
600.905	33.91
601.098	33.68
601.291	33.49
601.483	33.47
601.676	33.64
601.869	33.47
602.062	33.47
602.255	33.45
602.447	33.48
602.64	33.74
602.833	33.69
603.025	33.81
603.218	33.9
603.411	34.11
603.603	34.35
603.796	34.36
603.989	34.32
604.181	34.34
604.374	34.43
604.566	34.31
604.759	34.3
604.951	34.48
605.144	34.48
605.336	34.4
605.529	34.22
605.721	34.06
605.914	33.86
606.106	33.77
606.299	33.74
606.491	33.74
606.683	33.76
606.876	33.72
607.068	33.69
607.26	33.64
607.453	33.93
607.645	34.04
607.837	33.99
608.03	34.34
608.222	34.55
608.414	34.71
608.606	34.54
608.799	34.29
608.991	34.42
609.183	34.25
609.375	34.27
609.567	34.28
609.759	33.97
609.952	34.03
610.144	33.88
610.336	33.86
610.528	33.74
610.72	33.81
610.912	34.11
611.104	33.93
611.296	33.85
611.488	33.8
611.68	33.64
611.872	33.89
612.064	33.85
612.256	33.73
612.448	33.4
612.64	33.38
612.832	33.32
613.023	33.55
613.215	33.51
613.407	33.58
613.599	33.39
613.791	33.53
613.983	33.49
614.174	33.71
614.366	34.1
614.558	34.62
614.75	34.75
614.941	34.95
615.133	34.71
615.325	34.81
615.516	34.88
615.708	35.19
615.9	35.17
616.091	35.2
616.283	35.31
616.475	35.28
616.666	34.97
616.858	34.89
617.049	34.78
617.241	34.77
617.432	34.68
617.624	34.83
617.815	34.61
618.007	34.85
618.198	34.87
618.39	34.56
618.581	34.38
618.773	34.51
618.964	34.53
619.155	34.97
619.347	35.04
619.538	35.21
619.729	35.35
619.921	35.59
620.112	35.16
620.303	35.19
620.494	35.42
620.686	35.66
620.877	35.75
621.068	35.68
621.259	35.22
621.451	35.17
621.642	35.32
621.833	35.15
622.024	35.17
622.215	35.38
622.406	35.65
622.597	35.5
622.788	35.18
622.98	35.06
623.171	35.44
623.362	35.3
623.553	35.35
623.744	35.28
623.935	35.34
624.126	35.49
624.317	35.25
624.508	35.18
624.698	35.52
624.889	35.39
625.08	35.43
625.271	35.33
625.462	35.37
625.653	35.64
625.844	35.51
626.034	35.72
626.225	35.43
626.416	35.57
626.607	35.35
626.798	34.92
626.988	35.21
627.179	35.4
627.37	35.55
627.56	35.88
627.751	35.61
627.942	35.64
628.132	35.54
628.323	35.75
628.514	35.71
628.704	36.03
628.895	36.06
629.085	35.89
629.276	35.57
629.466	35.56
629.657	35.41
629.847	35.32
630.038	35.37
630.228	35.07
630.419	35.15
630.609	34.99
630.8	34.6
630.99	34.6
631.181	34.59
631.371	34.77
631.561	34.93
631.752	34.91
631.942	34.87
632.132	34.89
632.323	35.23
632.513	35.17
632.703	35.45
632.893	35.73
633.084	35.96
633.274	35.74
633.464	35.69
633.654	35.56
633.844	35.34
634.034	35.45
634.225	35.61
634.415	35.5
634.605	35.26
634.795	35.33
634.985	35.26
635.175	35.55
635.365	35.87
635.555	35.78
635.745	35.32
635.935	35.28
636.125	35.32
636.315	35.34
636.505	35.43
636.695	35.63
636.885	35.59
637.075	35.64
637.265	35.65
637.455	35.72
637.644	36.09
637.834	36.26
638.024	36.54
638.214	36.52
638.404	36.38
638.593	36.25
638.783	36.25
638.973	36.47
639.163	36.36
639.352	36.02
639.542	35.84
639.732	35.56
639.921	35.59
640.111	35.56
640.301	35.67
640.49	35.8
640.68	35.88
640.87	35.51
641.059	35.35
641.249	35.59
641.438	35.8
641.628	35.98
641.817	36.16
642.007	36.21
642.196	36.46
642.386	36.77
642.575	36.6
642.764	37.07
642.954	37.72
643.143	37.51
643.333	37.46
643.522	36.91
643.711	37.2
643.901	37.31
644.09	37.37
644.279	37.19
644.469	37.14
644.658	36.93
644.847	36.46
645.036	35.92
645.226	36.25
645.415	36.07
645.604	36.57
645.793	36.42
645.982	36.33
646.171	36.01
646.361	35.8
646.55	35.48
646.739	35.7
646.928	35.84
647.117	36.37
647.306	36.07
647.495	36.17
647.684	35.82
647.873	35.59
648.062	35.5
648.251	35.78
648.44	36.13
648.629	36.41
648.818	36.34
649.007	36.23
649.196	35.82
649.384	35.73
649.573	35.95
649.762	36.11
649.951	36.61
650.14	36.68
650.328	36.61
650.517	36.59
650.706	36.26
650.895	36.17
651.083	36.32
651.272	36.15
651.461	36.59
651.65	36.2
651.838	36.57
652.027	36.28
652.216	36.28
652.404	36.73
652.593	36.74
652.781	36.81
652.97	36.94
653.158	36.95
653.347	37.29
653.535	36.86
653.724	37.12
653.912	36.82
654.101	36.66
654.289	36.56
654.478	36.38
654.666	36.36
654.855	36.61
655.043	36.61
655.231	36.54
655.42	36.43
655.608	36.37
655.796	36.19
655.985	36.46
656.173	36.32
656.361	36.27
656.55	36.36
656.738	36.37
656.926	36.25
657.114	36.26
657.302	36.34
657.491	36.35
657.679	36.64
657.867	36.99
658.055	36.79
658.243	37
658.431	36.57
658.619	36.53
658.807	36.43
658.996	36.57
659.184	36.53
659.372	36.59
659.56	36.49
659.748	36.5
659.936	36.47
660.124	36.54
660.311	36.63
660.499	37
660.687	36.93
660.875	36.83
661.063	36.94
661.251	37.55
661.439	37.25
661.627	37.31
661.814	37.42
662.002	37.5
662.19	37.15
662.378	37.14
662.565	37.1
662.753	36.98
662.941	37.77
663.129	37.37
663.316	36.98
663.504	37.26
663.692	37.45
663.879	37.43
664.067	37.19
664.254	37.36
664.442	37.22
664.63	37.73
664.817	37.77
665.005	37.09
665.192	37.13
665.38	36.93
665.567	37.29
665.755	37.46
665.942	37.33
666.13	37.11
666.317	37.25
666.504	37.08
666.692	36.91
666.879	37.22
667.067	37.32
667.254	37.32
667.441	37.25
667.629	36.72
667.816	36.95
668.003	36.93
668.19	37.16
668.378	37.26
668.565	37.32
668.752	37.27
668.939	37.44
669.127	37.35
669.314	37.1
669.501	37.13
669.688	37.39
669.875	37.11
670.062	37.25
670.249	37.82
670.436	37.46
670.623	37.58
670.81	38.03
670.997	37.5
671.184	37.38
671.371	37.99
671.558	38.04
671.745	37.95
671.932	37.92
672.119	37.79
672.306	37.02
672.493	37.41
672.68	37.91
672.867	37.12
673.054	37.15
673.24	37.24
673.427	36.99
673.614	37.05
673.801	37.36
673.988	36.87
674.174	37.07
674.361	37.38
674.548	37.35
674.734	36.87
674.921	37.04
675.108	36.93
675.294	36.98
675.481	36.39
675.668	36.42
675.854	36.25
676.041	36.64
676.227	36.17
676.414	35.98
676.601	35.51
676.787	35.8
676.974	35.61
677.16	35.59
677.347	36.24
677.533	36.91
677.719	37
677.906	36.6
678.092	36.71
678.279	37.62
678.465	37.16
678.651	37.37
678.838	36.98
679.024	37.43
679.21	37.38
679.397	37.04
679.583	36.81
679.769	36.58
679.955	36.9
680.142	37.12
680.328	36.74
680.514	37.01
680.7	37.14
680.886	37.81
681.073	37.8
681.259	37.86
681.445	37.45
681.631	37.39
681.817	37.23
682.003	36.76
682.189	36.46
682.375	36.07
682.561	36.4
682.747	36.27
682.933	35.52
683.119	35.39
683.305	35.59
683.491	35.89
683.677	36.23
683.863	37.14
684.049	37.64
684.235	37.39
684.42	37.69
684.606	37.54
684.792	37.96
684.978	37.84
685.164	37.93
685.349	37.85
685.535	37.68
685.721	37.86
685.907	37.14
686.092	37.73
686.278	37.47
686.464	37.58
686.649	37.18
686.835	37.12
687.021	37.27
687.206	37.11
687.392	37.36
687.577	37.87
687.763	37.65
687.948	37.48
688.134	37.08
688.319	37.21
688.505	37.03
688.69	37.18
688.876	37.23
689.061	38.22
689.247	38.2
689.432	37.88
689.618	37.38
689.803	37.25
689.988	37.91
690.174	38.05
690.359	37.63
690.544	37.65
690.73	37.84
690.915	37.71
691.1	36.79
691.285	36.77
691.471	36.74
691.656	37.57
691.841	37.84
692.026	37.34
692.211	36.78
692.396	37.58
692.582	38.03
692.767	37.69
692.952	37.36
693.137	37.37
693.322	37.35
693.507	37.44
693.692	37.06
693.877	37.19
694.062	37.52
694.247	38.21
694.432	38.82
694.617	37.89
694.802	38.42
694.987	38.66
695.172	39.2
695.357	39.63
695.541	39.68
695.726	39.12
695.911	38.78
696.096	38.62
696.281	38.02
696.466	37.56
696.65	38.35
696.835	38.16
697.02	37.77
697.204	37.39
697.389	37.12
697.574	36.74
697.759	37.49
697.943	37.78
698.128	38
698.312	38.07
698.497	38.2
698.682	38.25
698.866	37.72
699.051	38.26
699.235	38.26
699.42	38.43
699.604	38.28
699.789	37.81
699.973	37.53
700.158	37.54
700.342	37.46
700.527	37.34
700.711	37.04
700.895	37.54
701.08	37.07
701.264	37.3
701.448	37.4
701.633	38.03
701.817	37.9
702.001	38.23
702.186	37.93
702.37	38.14
702.554	38.29
702.738	38.62
702.923	38.81
703.107	39.2
703.291	38.89
703.475	38.02
703.659	37.81
703.843	38.11
704.027	37.94
704.212	37.89
704.396	38.24
704.58	37.81
704.764	37.08
704.948	36.84
705.132	36.4
705.316	36.5
705.5	37.43
705.684	38.4
705.868	38.76
706.052	38.42
706.235	38.18
706.419	37.53
706.603	38.04
706.787	38.08
706.971	38.41
707.155	38.78
707.339	38.78
707.522	38.44
707.706	37.09
707.89	36.5
708.074	36.67
708.257	37.47
708.441	37.57
708.625	37.38
708.808	37.91
708.992	37.9
709.176	37.7
709.359	38.18
709.543	38.29
709.727	39
709.91	39.3
710.094	39.54
710.277	39.6
710.461	39.79
710.644	39.56
710.828	39.57
711.011	39.45
711.195	39.86
711.378	39.02
711.562	38.69
711.745	38.52
711.928	38.48
712.112	38.24
712.295	37.47
712.478	37.37
712.662	37.24
712.845	37.07
713.028	36.7
713.212	36.99
713.395	37.31
713.578	36.9
713.761	36.87
713.945	36.91
714.128	36.7
714.311	37.82
714.494	38.59
714.677	38.89
714.86	39.71
715.043	40.03
715.227	39.46
715.41	39.31
715.593	39.53
715.776	39.62
715.959	39.52
716.142	40.01
716.325	39.37
716.508	38.45
716.691	38.01
716.874	37.15
717.057	36.89
717.239	36.25
717.422	36.38
717.605	36.93
717.788	36.71
717.971	36.5
718.154	36.42
718.337	36.07
718.519	36.48
718.702	36.77
718.885	37.54
719.068	37.61
719.25	38.08
719.433	37.3
719.616	36.95
719.798	37.44
719.981	37.16
720.164	37.45
720.346	37.52
720.529	36.81
720.712	36.17
720.894	35.16
721.077	35.3
721.259	35.04
721.442	35.76
721.624	36.54
721.807	36.8
721.989	37.84
722.172	37.23
722.354	37.34
722.537	37.36
722.719	38.63
722.901	39.02
723.084	39.52
723.266	39.57
723.448	39.21
723.631	39.37
723.813	38.73
723.995	37.08
724.178	37.36
724.36	38.45
724.542	38.79
724.724	38.19
724.907	38.4
725.089	38.02
725.271	38.15
725.453	39.08
725.635	37.78
725.817	38.19
725.999	38.54
726.181	38.53
726.364	37.58
726.546	38.35
726.728	38.51
726.91	38.75
727.092	39.03
727.274	39.04
727.456	39.14
727.638	39.24
727.819	39.12
728.001	40.24
728.183	40.69
728.365	40.7
728.547	40.07
728.729	39.71
728.911	38.99
729.093	39.07
729.274	39.19
729.456	38.02
729.638	38.43
729.82	38.5
730.001	38.35
730.183	38.25
730.365	37.85
730.546	38.31
730.728	38.69
730.91	38.57
731.091	37.41
731.273	37.11
731.455	37.91
731.636	37.47
731.818	37.7
731.999	38.1
732.181	36.96
732.362	37.22
732.544	36.66
732.725	36.17
732.907	36.31
733.088	37.33
733.27	37.96
733.451	37.96
733.633	38.27
733.814	37.54
733.995	36.37
734.177	36.84
734.358	37.43
734.539	37.22
734.721	37.97
734.902	38.09
735.083	38.21
735.264	37.92
735.446	38.77
735.627	39.56
735.808	40.57
735.989	40.12
736.17	40.57
736.351	39.83
736.533	41.27
736.714	41.2
736.895	40.3
737.076	40
737.257	40.04
737.438	38.16
737.619	37.22
737.8	36.76
737.981	37.68
738.162	37.54
738.343	37.82
738.524	36.23
738.705	36.16
738.886	36.72
739.067	36.03
739.247	36.75
739.428	37.05
739.609	37.69
739.79	37.47
739.971	37.66
740.151	38.06
740.332	37.58
740.513	38.3
740.694	38.44
740.874	39.38
741.055	39.1
741.236	38.3
741.417	38.93
741.597	38.79
741.778	39.43
741.958	38.68
742.139	38.08
742.32	38.52
742.5	37.56
742.681	37.93
742.861	38.03
743.042	38.2
743.222	38.37
743.403	38
743.583	37.32
743.764	36.98
743.944	37.6
744.124	38.01
744.305	38.55
744.485	39.32
744.666	38.85
744.846	38.25
745.026	38.46
745.207	37.25
745.387	38.12
745.567	37.89
745.747	36.6
745.928	37.11
746.108	36.6
746.288	36.14
746.468	35.89
746.648	35.66
746.829	35.93
747.009	36.51
747.189	37.75
747.369	37.37
747.549	37.84
747.729	39.58
747.909	38.65
748.089	39.28
748.269	38.94
748.449	39.3
748.629	38.93
748.809	39.23
748.989	40.56
749.169	40.34
749.349	39.48
749.529	40.01
749.709	39.88
749.889	39.62
750.068	39.32
750.248	39.44
750.428	39.45
750.608	39.61
750.788	39.92
750.967	38.02
751.147	38.05
751.327	39.5
751.507	39.46
751.686	38.87
751.866	38.98
752.046	38.89
752.225	38
752.405	37.89
752.585	39.47
752.764	38.07
752.944	39.36
753.123	39.72
753.303	38.42
753.482	38.12
753.662	38.3
753.841	39.12
754.021	38.37
754.2	39.44
754.38	39.6
754.559	38.55
754.739	39.29
754.918	39.06
755.097	37.78
755.277	38.07
755.456	37.05
755.635	35.94
755.815	35.76
755.994	36.54
756.173	36.18
756.352	36.09
756.532	36.25
756.711	35.07
756.89	34.46
757.069	36.47
757.248	35.75
757.427	37.27
757.607	36.89
757.786	37.61
757.965	38.86
758.144	39.34
758.323	38.61
758.502	40.05
758.681	40.93
758.86	41.62
759.039	39.74
759.218	40.81
759.397	40.91
759.576	41.76
759.755	41.33
759.934	40.84
760.113	39.59
760.291	40.44
760.47	37.96
760.649	37.86
760.828	37.62
761.007	38.89
761.186	38.41
761.364	37.36
761.543	38.38
761.722	38.22
761.901	37.48
762.079	38.58
762.258	38.58
762.437	39.69
762.615	39.7
762.794	39.9
762.972	39.79
763.151	40.16
763.33	40.64
763.508	40.07
763.687	39.59
763.865	39.27
764.044	38.59
764.222	38.22
764.401	37.47
764.579	38.56
764.758	38.14
764.936	38.36
765.114	38.51
765.293	38.69
765.471	39.43
765.65	39.83
765.828	40.1
766.006	40.44
766.184	40.94
766.363	41.82
766.541	41.02
766.719	41.42
766.898	41.05
767.076	40.31
767.254	40.01
767.432	38.94
767.61	38.64
767.788	38.82
767.967	39.18
768.145	40.18
768.323	38.76
768.501	39.18
768.679	40.19
768.857	39.58
769.035	39.6
769.213	40.62
769.391	39.84
769.569	39.73
769.747	37.55
769.925	36.84
770.103	36.04
770.281	35.22
770.459	33.42
770.636	32.9
770.814	35.74
770.992	36.77
771.17	33.85
771.348	35.16
771.525	36.21
771.703	38.06
771.881	38.61
772.059	38.46
772.236	38.58
772.414	38.59
772.592	37.93
772.769	34.88
772.947	35.55
773.125	37.02
773.302	36.72
773.48	36.8
773.657	37.7
773.835	37.79
774.013	38.08
774.19	39.15
774.368	41.06
774.545	39.4
774.723	39.69
774.9	37.94
775.077	39.07
775.255	40.3
775.432	38.41
775.61	39.12
775.787	36.87
775.964	36.14
776.142	36.85
776.319	35.73
776.496	35.7
776.674	36.29
776.851	35.93
777.028	33.46
777.205	32.34
777.382	33.27
777.56	30.78
777.737	33.08
777.914	31.77
778.091	31.43
778.268	30.2
778.445	30.91
778.622	31.11
778.8	32.84
778.977	34.56
779.154	36.43
779.331	37.94
779.508	39.16
779.685	39.61
779.862	41.39
780.038	43.59
780.215	45.65
780.392	44.72
780.569	43.04
780.746	43.24
780.923	41.66
781.1	38.05
781.277	38.03
781.453	39.64
781.63	39.27
781.807	37.7
781.984	37.34
782.16	35.92
782.337	38.08
782.514	39.46
782.691	38.51
782.867	40.47
783.044	42
783.221	41.36
783.397	39.24
783.574	38.74
783.75	40.09
783.927	40.74
784.103	42.71
784.28	41.86
784.456	44.32
784.633	44.75
784.809	45.85
784.986	46
785.162	44.63
785.339	46.88
785.515	45.22
785.692	46.81
785.868	46.47
786.044	46.24
786.221	45.92
786.397	43.28
786.573	43.27
786.749	41.31
786.926	41.49
787.102	41.87
787.278	42.55
787.454	45.9
787.631	42.2
787.807	40.4
787.983	39.31
788.159	39.04
788.335	38.5
788.511	38.54
788.687	38.09
788.863	37.55
789.039	40
789.216	37.35
789.392	34.92
789.568	35.69
789.744	35.82
789.919	35.26
790.095	36.75
790.271	37.25
790.447	36.3
790.623	39.78
790.799	39.25
790.975	38.35
791.151	39.23
791.327	42.72
791.502	41.51
791.678	40.94
791.854	38.69
792.03	36.45
792.205	37.07
792.381	37.68
792.557	36.07
792.733	35.83
792.908	35.53
793.084	33.85
793.259	32.27
793.435	35.92
793.611	37.98
793.786	40.46
793.962	40.27
794.137	42.05
794.313	41.14
794.488	40.57
794.664	41.48
794.839	39.41
795.015	44.05
795.19	44.68
795.366	42.23
795.541	39.66
795.716	41
795.892	41.19
796.067	38.75
796.242	40.85
796.418	37.51
796.593	38.08
796.768	40.34
796.944	39.02
797.119	38.17
797.294	39.57
797.469	41.4
797.644	41.37
797.82	40.41
797.995	42.2
798.17	39.44
798.345	43.1
798.52	43.12
798.695	42.06
798.87	39.9
799.045	39.98
799.22	40.49
799.395	39.36
799.57	40.21
799.745	42.81
799.92	40.57
800.095	41.65
800.27	38.49
800.445	38.17
800.62	37.14
800.795	35.74
800.97	37.95
801.145	39.96
801.319	38.99
801.494	37.74
801.669	38.04
801.844	39.55
802.018	39.45
802.193	40.45
802.368	40.95
802.543	40.58
802.717	43.64
802.892	42.02
803.067	39.3
803.241	41.42
803.416	40.18
803.59	40.76
803.765	43.34
803.94	42.8
804.114	42.71
804.289	42.38
804.463	41.39
804.638	38.38
804.812	36.5
804.986	39.28
805.161	38.46
805.335	38.17
805.51	35.65
805.684	32.63
805.858	33.76
806.033	34.46
806.207	32.09
806.381	34.54
806.556	35.77
806.73	37.89
806.904	32.8
807.078	32.3
807.253	33.33
807.427	34.15
807.601	34.01
807.775	33.6
807.949	33.81
808.123	35.46
808.298	35.39
808.472	37.56
808.646	35.29
808.82	38.03
808.994	39.2
809.168	35.98
809.342	36.14
809.516	35.71
809.69	34.35
809.864	33.41
810.038	35.07
810.212	35.31
810.385	34.61
810.559	37.37
810.733	35.24
810.907	34.29
811.081	36.51
811.255	33.31
811.428	32.05
811.602	33.6
811.776	35.75
811.95	34.44
812.123	33.96
812.297	33.06
812.471	29.83
812.644	31.6
812.818	35.53
812.992	35.82
813.165	36.98
813.339	41.15
813.512	38.96
813.686	42
813.86	43
814.033	41.57
814.207	41.01
814.38	42.88
814.554	46.47
814.727	46.36
814.9	48.1
815.074	47.45
815.247	42.28
815.421	44.95
815.594	36.82
815.767	31.36
815.941	33.81
816.114	32.53
816.287	34.35
816.46	29.64
816.634	22.4
816.807	18.84
816.98	21.64
817.153	26.24
817.327	23.2
817.5	26.56
817.673	30.61
817.846	29.89
818.019	32.54
818.192	31.84
818.365	35.07
818.538	42.73
818.711	43.1
818.884	41.35
819.057	35.59
819.23	35.21
819.403	37.64
819.576	36.04
819.749	35.32
819.922	35.76
820.095	37.05
820.268	34.56
820.441	31.28
820.614	35.51
820.786	36.69
820.959	39.04
821.132	39.27
821.305	39.02
821.477	40.09
821.65	40.83
821.823	40.87
821.996	40.61
822.168	41.22
822.341	41.76
822.514	40.75
822.686	40.48
822.859	40.85
823.031	41.19
823.204	41.02
823.376	41.01
823.549	40.74
823.722	40.54
823.894	40.88
824.067	41.03
824.239	40.81
824.411	41.04
824.584	41.27
824.756	41.66
824.929	41.78
825.101	41.93
825.273	41.68
825.446	41.82
825.618	42.74
825.79	42.98
825.963	42.45
826.135	41.91
826.307	42.15
826.479	41.59
826.652	41.03
826.824	40.55
826.996	39.96
827.168	40.33
827.34	40.01
827.512	39.54
827.684	38.27
827.856	37.96
828.029	37.46
828.201	36.87
828.373	38.39
828.545	37.65
828.717	37.84
828.889	39.34
829.061	39.79
829.232	39.72
829.404	38.89
829.576	39.61
829.748	40.16
829.92	42.05
830.092	41.96
830.264	40.15
830.436	41.95
830.607	42.19
830.779	40.93
830.951	40.54
831.123	40.85
831.294	40.52
831.466	38.92
831.638	37.93
831.809	36.9
831.981	37.4
832.153	36.71
832.324	33.93
832.496	32.5
832.667	29.99
832.839	30.27
833.011	31.28
833.182	32.15
833.354	32.04
833.525	33.03
833.697	34.63
833.868	33.85
834.039	37.29
834.211	39.02
834.382	40.66
834.554	42.9
834.725	42.91
834.896	41.97
835.068	42.39
835.239	41.39
835.41	42.39
835.581	43.15
835.753	46.31
835.924	44.24
836.095	45.8
836.266	45.75
836.438	45.19
836.609	44.82
836.78	45.06
836.951	44.16
837.122	45.84
837.293	44.71
837.464	43.64
837.635	39.87
837.806	39.88
837.977	34.65
838.148	32.55
838.319	30.71
838.49	30.7
838.661	28.31
838.832	32.09
839.003	31.69
839.174	25.44
839.345	21.15
839.516	15.8
839.687	13.04
839.857	21.69
840.028	29.22
840.199	30.27
840.37	29.13
840.54	31.8
840.711	28.54
840.882	28.93
841.053	32.38
841.223	31.76
841.394	36.76
841.564	36.99
841.735	30.85
841.906	20.43
842.076	18.34
842.247	19.63
842.417	13.67
842.588	13.35
842.758	10.08
842.929	10.52
843.099	13.9
843.27	12.5
843.44	12.36
843.611	12.18
843.781	12.11
843.951	16.69
844.122	17.68
844.292	25.84
844.462	26.62
844.633	39.47
844.803	50.29
844.973	49.63
845.144	50.11
845.314	59.19
845.484	68.87
845.654	82.47
845.824	96.02
845.995	90.79
846.165	85.58
846.335	92.9
846.505	76.24
846.675	52.26
846.845	44.88
847.015	35.85
847.185	39.95
847.355	24.55
847.525	9.72
847.695	-0.51
847.865	-9.17
848.035	-11.92
848.205	-36.68
848.375	-23.92
848.545	-12.33
848.715	-6.48
848.884	-2.44
849.054	-35.06
849.224	-40.8
849.394	13.36
849.564	10.21
849.733	37.12
849.903	20.35
850.073	31.29
850.243	51.52
850.412	43.92
850.582	22.87
850.752	7.35
850.921	40.95
851.091	24.79
851.26	-13.43
851.43	-21.43
851.599	-46.15
851.769	-50.29
851.939	-72.57
852.108	-109.6
852.278	-124.74
852.447	-95.86
852.616	-45.27
852.786	-80.1
852.955	-47.08
853.125	-51.3
853.294	-14.33
853.463	-26.22
853.633	-11.55
853.802	4.65
853.971	-15.5
854.141	-3.78
854.31	19.75
854.479	-3.24
854.648	6.22
854.818	-12.89
854.987	13.64
855.156	-27.7
855.325	10.12
855.494	-4.37
855.663	-17.2
855.832	-45.14
856.001	-66.42
856.171	-77.06
856.34	-50.26
856.509	-42.86
856.678	-19.45
856.847	27.14
857.016	25.77
857.185	15.7
857.353	30.86
857.522	37.74
857.691	66.33
857.86	88
858.029	96.88
858.198	84.69
858.367	80.08
858.535	70.01
858.704	49.96
858.873	57.55
859.042	61.16
859.21	58.9
859.379	37.29
859.548	15.75
859.717	13.04
859.885	4.53
860.054	-0.61
860.222	-15.93
860.391	3.31
860.56	22.88
860.728	28.9
860.897	30.63
861.065	37.72
861.234	47.42
861.402	43.24
861.571	29.69
861.739	35.04
861.908	52.51
862.076	46.66
862.244	52.75
862.413	43.54
862.581	18.65
862.749	-16.04
862.918	-7.29
863.086	-7.06
863.254	72.45
863.423	239.68
863.591	185.97
863.759	185.66
863.927	412.92
864.096	862.63
864.264	-172.61
864.432	-543.44
864.6	1520.94
864.768	571.97
864.936	305.94
865.104	149.31
865.272	91.18
865.44	44.8
865.608	53.49
865.776	-0.32
865.944	8.29
866.112	7.38
866.28	5.31
866.448	1.48
866.616	11.95
866.784	3.41
866.952	5.04
867.12	14.55
867.288	45.16
867.455	33.07
867.623	54.41
867.791	48.79
867.959	57.64
868.127	63.37
868.294	59.4
868.462	34.72
868.63	41.2
868.797	37.29
868.965	-10.99
869.133	-30.94
869.3	-32.65
869.468	-20.84
869.636	19.71
869.803	20.67
869.971	40.06
870.138	43.17
870.306	33.28
870.473	10.07
870.641	0.26
870.808	7.68
870.975	12.5
871.143	17.59
871.31	19.06
871.478	-26.02
871.645	0.84
871.812	-18.02
871.98	-25.93
872.147	-12.17
872.314	57.67
872.482	96.48
872.649	164.69
872.816	101.22
872.983	162.45
873.15	64.74
873.318	46.76
873.485	92.11
873.652	158.8
873.819	75.39
873.986	61.34
874.153	54.73
874.32	61.93
874.487	52
874.654	35.3
874.821	35.4
874.988	49.25
875.155	52.78
875.322	45.65
875.489	32.38
875.656	45.94
875.823	48.13
875.99	42.65
876.157	39.75
876.324	56.07
876.49	71.77
876.657	75.02
876.824	75.94
876.991	75.66
877.157	68.04
877.324	62.72
877.491	56.1
877.658	51.04
877.824	42.45
877.991	41.3
878.157	30.81
878.324	21.62
878.491	31.24
878.657	6.22
878.824	14.64
878.99	30.75
879.157	43.07
879.323	29.66
879.49	33.24
879.656	56.82
879.823	67.34
879.989	74.26
880.156	66.86
880.322	64.35
880.488	77.67
880.655	85.54
880.821	69.04
880.987	64.37
881.154	68.77
881.32	57.3
881.486	45.61
881.652	37.12
881.819	33.06
881.985	34.06
882.151	36.48
882.317	32.39
882.483	30.84
882.649	34
882.816	33.5
882.982	35.71
883.148	35.93
883.314	36.02
883.48	35.64
883.646	35.21
883.812	36.04
883.978	35.64
884.144	35.38
884.31	37.29
884.476	38.33
884.642	38.49
884.807	40.68
884.973	42.92
885.139	44
885.305	46.71
885.471	47.97
885.637	45.66
885.802	46.07
885.968	51.15
886.134	50.09
886.3	48.84
886.465	47.36
886.631	44.85
886.797	44.25
886.962	45.54
887.128	40.48
887.293	38.78
887.459	44.02
887.625	45.49
887.79	36.52
887.956	33.71
888.121	35.09
888.287	40.98
888.452	30.31
888.618	21.84
888.783	2.18
