Data from CB_115_Reflection_2.txt Node
Date: Sat Nov 14 19:04:05 EST 2015
User: robert
Spectrometer: USB4E03001
Autoset integration time: false
Trigger mode: 4
Integration Time (sec): 1.000000E-1
Scans to average: 15
Electric dark correction enabled: true
Nonlinearity correction enabled: false
Boxcar width: 5
Stray light correction enabled: false
XAxis mode: Wavelengths
Stop averaging: false
Number of Pixels in Spectrum: 3648
>>>>>Begin Spectral Data<<<<<
177.566	-20.12
177.785	-3.28
178.005	33.62
178.225	56.88
178.445	50.05
178.665	43.8
178.885	52.97
179.105	-106.1
179.324	-112.57
179.544	-5078.95
179.764	-84.53
179.984	-145.11
180.204	-104.55
180.423	-102.06
180.643	-155.4
180.863	-167.94
181.083	-314.94
181.302	-240.79
181.522	-1391.53
181.742	-1176.15
181.961	-216.15
182.181	-457.2
182.401	-142
182.621	-107.38
182.84	-163.32
183.06	-24.61
183.279	555.66
183.499	178.59
183.719	81.46
183.938	139.88
184.158	117.34
184.377	8.32
184.597	16.95
184.816	-2.34
185.036	3.08
185.256	23.05
185.475	41.07
185.695	33.06
185.914	29.92
186.134	-14.66
186.353	5.18
186.572	-1.92
186.792	76.22
187.011	70.67
187.231	61.4
187.45	61.82
187.67	84.19
187.889	159.12
188.108	78.09
188.328	82.79
188.547	139.05
188.766	221.96
188.986	-285.76
189.205	12.27
189.424	9.16
189.644	-174.84
189.863	-144.29
190.082	102.59
190.302	146.17
190.521	173.27
190.74	107.04
190.959	135.5
191.178	115.09
191.398	133.95
191.617	143.9
191.836	155.48
192.055	134.98
192.274	105.28
192.494	75.23
192.713	130.65
192.932	-45.2
193.151	-3.94
193.37	49.41
193.589	26.85
193.808	29.05
194.027	-1.82
194.246	-3.31
194.465	-6.34
194.685	-26.91
194.904	-115.69
195.123	-24.89
195.342	4.86
195.561	28.6
195.78	-9.79
195.999	-11.74
196.218	81.39
196.436	29.54
196.655	85.45
196.874	580.56
197.093	310.92
197.312	8140
197.531	-55.6
197.75	-24.09
197.969	-47.33
198.188	-103.92
198.407	-180.77
198.625	-149.01
198.844	-140.67
199.063	-118.83
199.282	-9.99
199.501	-5.46
199.719	-191.57
199.938	108.13
200.157	71.42
200.376	93.05
200.594	196.58
200.813	126.93
201.032	121.44
201.251	78.48
201.469	75.43
201.688	57.95
201.907	81.28
202.125	88.56
202.344	88.19
202.563	122.07
202.781	104.07
203	92.32
203.218	107.48
203.437	141.99
203.656	117.13
203.874	249.62
204.093	327.69
204.311	-73.76
204.53	-10.41
204.748	-4.48
204.967	8.65
205.185	10.96
205.404	-69.51
205.622	-37.72
205.841	-159.93
206.059	-84.91
206.278	-404.15
206.496	-64.12
206.715	-103.22
206.933	-240.91
207.151	-186.38
207.37	-187.18
207.588	-330.88
207.806	-112.71
208.025	-172.16
208.243	-2.33
208.461	42.51
208.68	247.47
208.898	-103.06
209.116	-471.34
209.335	66.51
209.553	-39.43
209.771	-71.94
209.989	57.57
210.208	26.97
210.426	43.15
210.644	13.76
210.862	22.34
211.081	45.55
211.299	164.46
211.517	946.3
211.735	-250.23
211.953	-1910.21
212.171	564.61
212.39	368.32
212.608	-128.36
212.826	-288.86
213.044	-646.52
213.262	7513.64
213.48	-67.59
213.698	327.34
213.916	-34.75
214.134	15.72
214.352	-75.07
214.57	-76
214.788	-752.49
215.006	-2246.55
215.224	4650.72
215.442	-226.88
215.66	-531.83
215.878	1084.65
216.096	159.83
216.314	149.65
216.532	116.79
216.75	102.11
216.968	90.4
217.185	117.31
217.403	121.94
217.621	63.89
217.839	30.12
218.057	-14.04
218.275	-378.74
218.492	1014.01
218.71	1550.66
218.928	-6321.85
219.146	-577.46
219.363	-355.94
219.581	-314.68
219.799	-254.25
220.017	-395.83
220.234	-368.74
220.452	-319.45
220.67	-170.9
220.887	-420.45
221.105	-191.92
221.323	-511.14
221.54	-241.2
221.758	-783
221.976	1047.26
222.193	644.48
222.411	356.15
222.629	-4202.48
222.846	-2624.68
223.064	2703.95
223.281	-190.88
223.499	491.11
223.716	-212.07
223.934	195.23
224.151	835.57
224.369	-42.2
224.586	49.94
224.804	42.63
225.021	82.75
225.239	101.72
225.456	91.28
225.674	61.19
225.891	49.02
226.108	42.15
226.326	55.59
226.543	62.8
226.76	48.84
226.978	45.51
227.195	35.15
227.413	12.44
227.63	12.34
227.847	12.53
228.064	12.33
228.282	16.5
228.499	14
228.716	11.07
228.934	12.03
229.151	12.18
229.368	9.45
229.585	12.56
229.802	16.42
230.02	15.3
230.237	17.29
230.454	15.7
230.671	19.69
230.888	23.63
231.105	24.75
231.323	27.09
231.54	26.65
231.757	30.08
231.974	25.79
232.191	25.38
232.408	29.39
232.625	23.86
232.842	28.9
233.059	16.12
233.276	13.3
233.493	11.66
233.71	9.68
233.927	7.1
234.144	6.94
234.361	7.86
234.578	5.31
234.795	5.19
235.012	4.86
235.229	6.63
235.446	9.28
235.663	3.05
235.879	11.09
236.096	9.84
236.313	6.62
236.53	4.23
236.747	3.22
236.964	7.98
237.181	8.76
237.397	11.97
237.614	10.29
237.831	7.59
238.048	11.65
238.264	4.35
238.481	5.45
238.698	19.45
238.915	20.36
239.131	22.13
239.348	20.44
239.565	21.76
239.781	17.52
239.998	18.88
240.215	19.18
240.431	14.68
240.648	13.66
240.865	13.82
241.081	10.88
241.298	11.3
241.514	10.54
241.731	11.3
241.947	11.6
242.164	12.02
242.38	12.51
242.597	11.66
242.814	13.31
243.03	14.49
243.246	12.12
243.463	11.28
243.679	9.1
243.896	8.25
244.112	6.2
244.329	5.49
244.545	7.37
244.762	6.84
244.978	6.19
245.194	7.2
245.411	7.28
245.627	8.72
245.843	10.1
246.06	8.94
246.276	8.52
246.492	8.78
246.709	7.6
246.925	7.11
247.141	7.45
247.357	8.59
247.574	7.88
247.79	7.23
248.006	7
248.222	6.94
248.439	8.06
248.655	8.57
248.871	8.55
249.087	8.45
249.303	9.33
249.519	8.48
249.736	7.74
249.952	7.67
250.168	9.26
250.384	10.27
250.6	7.68
250.816	7.13
251.032	7.71
251.248	8.74
251.464	9.71
251.68	9.18
251.896	8.15
252.112	7.58
252.328	7.15
252.544	6.59
252.76	7.87
252.976	10.05
253.192	9
253.408	7.96
253.624	5.45
253.84	3.84
254.056	2.74
254.272	1.82
254.487	0.89
254.703	3.55
254.919	6.13
255.135	3.9
255.351	1.14
255.567	4.13
255.782	5.38
255.998	7.47
256.214	10.45
256.43	10.53
256.646	10.75
256.861	12.99
257.077	11.69
257.293	7.12
257.508	6.72
257.724	4.86
257.94	5.46
258.155	4.35
258.371	4.98
258.587	4.51
258.802	2.8
259.018	1.77
259.234	1.63
259.449	2.75
259.665	3.39
259.88	3.32
260.096	4.04
260.312	2.97
260.527	3.5
260.743	3.41
260.958	3.77
261.174	4.83
261.389	5.9
261.605	5.63
261.82	3.62
262.036	4.38
262.251	6.13
262.466	6.08
262.682	7.05
262.897	6.22
263.113	7.88
263.328	6.79
263.543	4.67
263.759	4.24
263.974	5.63
264.189	8.16
264.405	6.32
264.62	1.56
264.835	3.73
265.051	5.85
265.266	5.83
265.481	4.67
265.696	5.86
265.912	8.27
266.127	9.45
266.342	6.52
266.557	6.19
266.773	6.97
266.988	7.43
267.203	5.91
267.418	6.24
267.633	6.29
267.848	4.92
268.064	4.61
268.279	6
268.494	5.43
268.709	6.38
268.924	6.18
269.139	6.9
269.354	7.54
269.569	6.99
269.784	6.05
269.999	6.18
270.214	5.86
270.429	4.7
270.644	2.79
270.859	3.47
271.074	4.22
271.289	5.93
271.504	5.37
271.719	5.68
271.934	6.29
272.149	6.36
272.363	7.35
272.578	7.49
272.793	8.59
273.008	9.29
273.223	9.88
273.438	9.5
273.653	8.69
273.867	8
274.082	7.8
274.297	7.1
274.512	5.99
274.726	4.61
274.941	5.76
275.156	4.62
275.371	4.37
275.585	1.59
275.8	1.17
276.015	0.82
276.229	2.21
276.444	2.24
276.659	3.53
276.873	4.54
277.088	4.3
277.302	3.4
277.517	4.77
277.732	4.26
277.946	4.11
278.161	4.17
278.375	3.49
278.59	3.74
278.804	2.38
279.019	1.25
279.233	1.9
279.448	3.13
279.662	4.39
279.877	3.09
280.091	4.04
280.306	5.59
280.52	7.29
280.735	6.5
280.949	7.23
281.163	8.63
281.378	9.25
281.592	8.07
281.806	6.56
282.021	6.66
282.235	6.88
282.449	5.77
282.664	6.28
282.878	3.51
283.092	4.51
283.307	3.9
283.521	3.77
283.735	4.46
283.949	3.98
284.164	6.07
284.378	5.16
284.592	4.59
284.806	4.25
285.02	3.84
285.234	7
285.449	6.8
285.663	5.61
285.877	5.4
286.091	4.69
286.305	5.77
286.519	4.77
286.733	4.37
286.947	5.04
287.161	5.77
287.375	4.89
287.589	3.94
287.803	4.82
288.017	5.81
288.231	5.8
288.445	6.62
288.659	5.89
288.873	5.22
289.087	5.56
289.301	5.8
289.515	4.89
289.729	4.93
289.943	4.19
290.157	3.09
290.371	2.83
290.584	3.73
290.798	4.29
291.012	5.13
291.226	5.22
291.44	6.47
291.654	6.81
291.867	8.02
292.081	9.62
292.295	11.05
292.509	11.62
292.722	11.93
292.936	9.86
293.15	9.45
293.364	7.08
293.577	8.36
293.791	6.05
294.005	6.39
294.218	5.72
294.432	5.44
294.645	4.86
294.859	4.68
295.073	3.9
295.286	6.6
295.5	4.7
295.713	5.99
295.927	5.56
296.14	5.76
296.354	4.95
296.568	5.73
296.781	5.86
296.994	4.85
297.208	4.36
297.421	4.63
297.635	4.13
297.848	4.4
298.062	4.31
298.275	3.89
298.489	4.63
298.702	4.33
298.915	2.66
299.129	1.68
299.342	2.23
299.555	2.87
299.769	3.14
299.982	3.07
300.195	3.7
300.409	3.85
300.622	3.53
300.835	2.5
301.048	2.83
301.262	2.93
301.475	3.2
301.688	3.88
301.901	3.15
302.115	3.03
302.328	1.63
302.541	1.03
302.754	0.06
302.967	1.33
303.18	2.98
303.393	2.96
303.607	3.94
303.82	4.34
304.033	3.57
304.246	4.38
304.459	4.01
304.672	3.95
304.885	5.58
305.098	6.66
305.311	6.19
305.524	6.77
305.737	7.12
305.95	7.69
306.163	8.19
306.376	9.01
306.589	9.26
306.802	9.47
307.015	10.18
307.228	9.76
307.44	9.74
307.653	9.55
307.866	8.56
308.079	7.88
308.292	7.81
308.505	8.12
308.718	7
308.93	7.13
309.143	7.33
309.356	7.1
309.569	7.21
309.781	7.16
309.994	6.96
310.207	6.81
310.42	7.01
310.632	6.97
310.845	6.03
311.058	6.85
311.27	6.81
311.483	6.4
311.696	6.56
311.908	4.8
312.121	4.97
312.333	6.27
312.546	5.51
312.759	5.54
312.971	6.17
313.184	5.92
313.396	4.61
313.609	3.72
313.821	4.55
314.034	4.42
314.246	4.51
314.459	5.3
314.671	4.63
314.884	6.88
315.096	6.38
315.309	5.17
315.521	5.55
315.733	5.86
315.946	5.28
316.158	5.44
316.371	5.6
316.583	8.3
316.795	8.08
317.008	6.48
317.22	5.17
317.432	5.32
317.644	6.35
317.857	6.35
318.069	6.96
318.281	9.15
318.494	8.16
318.706	9.26
318.918	7.59
319.13	7.29
319.342	9.27
319.555	8.99
319.767	8.46
319.979	7.54
320.191	8.16
320.403	8.68
320.615	7.15
320.827	7.67
321.039	6.7
321.252	7.06
321.464	7.68
321.676	7.2
321.888	8.12
322.1	10.13
322.312	9.96
322.524	10.22
322.736	10.41
322.948	11
323.16	11.58
323.372	12.57
323.584	13.35
323.796	12.79
324.007	12.34
324.219	12.6
324.431	12.57
324.643	13.22
324.855	14.14
325.067	14.41
325.279	14.8
325.491	14.44
325.702	14.49
325.914	14.89
326.126	15.65
326.338	15.48
326.55	15.6
326.761	15.94
326.973	16.5
327.185	15.81
327.396	16.35
327.608	17.22
327.82	18.9
328.032	19.54
328.243	19.77
328.455	20.15
328.666	21.56
328.878	22.21
329.09	22.88
329.301	22.13
329.513	22.22
329.725	22.8
329.936	23.18
330.148	23.44
330.359	24.34
330.571	25.36
330.782	25.48
330.994	26.12
331.205	26.51
331.417	26.04
331.628	27.74
331.84	27.64
332.051	27.08
332.262	27.55
332.474	26.93
332.685	26.34
332.897	25.16
333.108	25.42
333.319	25.45
333.531	24.68
333.742	24.56
333.953	23.17
334.165	25.33
334.376	24.99
334.587	24.1
334.799	24.29
335.01	24.38
335.221	24.69
335.432	24.93
335.644	25.09
335.855	26.06
336.066	27.83
336.277	29.23
336.488	28.53
336.7	29.86
336.911	30.84
337.122	31.04
337.333	30.95
337.544	31.75
337.755	31.43
337.966	31.48
338.177	31.44
338.388	31.39
338.599	31.88
338.811	31.91
339.022	30.7
339.233	29.86
339.444	29.63
339.655	28.54
339.866	28.64
340.076	29.4
340.287	30.71
340.498	30.73
340.709	29.34
340.92	29.41
341.131	29.37
341.342	29.53
341.553	30.48
341.764	32.29
341.975	33.76
342.185	33.02
342.396	32.7
342.607	30.98
342.818	31.1
343.029	31.04
343.239	31.01
343.45	31.35
343.661	31.31
343.872	30.44
344.082	28.28
344.293	27.76
344.504	28.72
344.714	28.56
344.925	29.68
345.136	29.94
345.346	31.39
345.557	30.8
345.768	30.4
345.978	30.99
346.189	31.28
346.399	31.94
346.61	31.52
346.821	30.81
347.031	30.99
347.242	30.44
347.452	29.34
347.663	28.26
347.873	29.01
348.084	28.46
348.294	27.97
348.504	27.98
348.715	28.13
348.925	27.94
349.136	27.69
349.346	27.57
349.557	27.37
349.767	27.72
349.977	28.23
350.188	27.83
350.398	28.79
350.608	28.95
350.819	28.77
351.029	27.78
351.239	28.34
351.449	28.4
351.66	28.23
351.87	28.78
352.08	28.87
352.29	27.74
352.501	27.36
352.711	27.02
352.921	27.02
353.131	27.71
353.341	27.58
353.552	27.93
353.762	28.16
353.972	28.15
354.182	27.54
354.392	27.91
354.602	28.25
354.812	27.74
355.022	27.33
355.232	26.95
355.442	26.47
355.652	27.14
355.862	26.88
356.072	27.26
356.282	27.51
356.492	27.32
356.702	27.28
356.912	28.15
357.122	28.05
357.332	28.21
357.542	28.86
357.752	29.14
357.962	29.35
358.171	30.13
358.381	28.78
358.591	28.37
358.801	29.16
359.011	29.07
359.221	28.19
359.43	28.63
359.64	29.53
359.85	29.33
360.06	28.4
360.269	28.82
360.479	28.15
360.689	29.13
360.899	29.48
361.108	29.04
361.318	29.38
361.528	28.74
361.737	28.43
361.947	27.36
362.156	27.47
362.366	28.36
362.576	28.08
362.785	27.92
362.995	27.68
363.204	27.14
363.414	27.4
363.623	27.29
363.833	28.31
364.042	28.26
364.252	28.36
364.461	27.41
364.671	26.57
364.88	26.09
365.09	25.61
365.299	25.8
365.509	26.34
365.718	26.25
365.927	25.28
366.137	24.36
366.346	25.73
366.555	26.3
366.765	26.49
366.974	26.31
367.183	26.56
367.393	26.89
367.602	26.44
367.811	25.92
368.021	25.45
368.23	26.52
368.439	26.42
368.648	25.11
368.857	24.21
369.067	24.67
369.276	25.2
369.485	25.04
369.694	24.83
369.903	25.21
370.112	25.45
370.321	25.47
370.531	25.06
370.74	25.57
370.949	25.97
371.158	26.53
371.367	26.61
371.576	26.28
371.785	26.26
371.994	26.07
372.203	25.21
372.412	24.13
372.621	24.06
372.83	23.5
373.039	23.34
373.248	22.88
373.457	22.96
373.666	22.83
373.874	22.36
374.083	22.35
374.292	23.12
374.501	23.77
374.71	24.87
374.919	24.9
375.128	25.13
375.336	24.78
375.545	25.04
375.754	24.97
375.963	24.49
376.171	25.35
376.38	24.87
376.589	24.49
376.798	24.89
377.006	24.18
377.215	23.63
377.424	23.25
377.632	23.13
377.841	23.25
378.05	23.1
378.258	23.51
378.467	23.07
378.675	22.69
378.884	22.49
379.093	21.95
379.301	22.55
379.51	22.91
379.718	23.22
379.927	24.39
380.135	23.92
380.344	23.95
380.552	23.78
380.761	24.14
380.969	24.89
381.177	25.01
381.386	24.96
381.594	24.7
381.803	24.89
382.011	24.86
382.219	23.86
382.428	23.67
382.636	23.9
382.845	23.66
383.053	23.33
383.261	22.78
383.469	23.41
383.678	23.7
383.886	23.5
384.094	23.2
384.302	23.42
384.511	23.81
384.719	23.83
384.927	23.6
385.135	23.31
385.343	23.48
385.552	23.47
385.76	23.31
385.968	22.9
386.176	22.81
386.384	23.03
386.592	22.74
386.8	22.39
387.008	22.43
387.216	21.65
387.424	22.22
387.633	21.54
387.841	21.48
388.049	20.77
388.257	20.54
388.465	20.46
388.672	20.13
388.88	20.19
389.088	20.24
389.296	20.03
389.504	20.14
389.712	19.84
389.92	20.06
390.128	20.01
390.336	20.09
390.544	20.51
390.751	20.52
390.959	20.65
391.167	20.52
391.375	20.23
391.583	20.41
391.79	20.13
391.998	20.38
392.206	20.44
392.414	20.71
392.621	20.76
392.829	20.61
393.037	20.66
393.244	20.65
393.452	20.97
393.66	21.29
393.867	21.17
394.075	21.9
394.283	21.05
394.49	21.12
394.698	20.64
394.905	20.72
395.113	20.92
395.32	21.05
395.528	21.09
395.735	20.59
395.943	20.21
396.15	19.99
396.358	19.88
396.565	20.4
396.773	20.27
396.98	20.59
397.188	20.4
397.395	20.35
397.602	20.28
397.81	20.23
398.017	20.44
398.225	20.92
398.432	21.25
398.639	21.15
398.847	21.04
399.054	20.89
399.261	20.75
399.468	20.85
399.676	20.96
399.883	21.1
400.09	21.05
400.297	20.96
400.505	20.5
400.712	20.56
400.919	20.38
401.126	20.8
401.333	21.15
401.54	21.41
401.748	21.48
401.955	21.37
402.162	21.53
402.369	21.51
402.576	21.73
402.783	22.13
402.99	22.13
403.197	22.33
403.404	22.2
403.611	22.28
403.818	22.24
404.025	22.32
404.232	22.35
404.439	22.31
404.646	22.66
404.853	22.68
405.06	22.77
405.267	22.65
405.474	22.3
405.681	22.42
405.887	22.22
406.094	22.42
406.301	22.51
406.508	22.48
406.715	22.51
406.922	22.33
407.128	22.2
407.335	22.08
407.542	22.25
407.749	22.56
407.955	22.73
408.162	22.64
408.369	22.75
408.575	22.58
408.782	22.57
408.989	22.73
409.195	22.86
409.402	23.26
409.609	23.26
409.815	23.41
410.022	23.56
410.228	23.15
410.435	23.39
410.642	23.06
410.848	23.16
411.055	23.06
411.261	23.04
411.468	22.96
411.674	22.96
411.881	23.13
412.087	23.24
412.294	23.4
412.5	23.39
412.706	23.55
412.913	23.89
413.119	24.48
413.326	24.83
413.532	25.01
413.738	25.17
413.945	25.33
414.151	25.21
414.357	25.13
414.564	25.37
414.77	25.79
414.976	25.88
415.182	25.65
415.389	25.24
415.595	25.31
415.801	25.11
416.007	25.31
416.214	25.12
416.42	25.26
416.626	25.37
416.832	25.41
417.038	25.32
417.244	25.27
417.45	25.66
417.657	25.76
417.863	25.9
418.069	26.23
418.275	26.24
418.481	26.49
418.687	26.43
418.893	26.56
419.099	26.45
419.305	26.34
419.511	26.52
419.717	26.38
419.923	26.39
420.129	26.37
420.335	26.36
420.541	26.35
420.746	26.25
420.952	26.43
421.158	26.34
421.364	26.36
421.57	26.55
421.776	26.51
421.982	26.82
422.187	26.96
422.393	26.91
422.599	26.9
422.805	26.95
423.01	26.99
423.216	26.94
423.422	27
423.628	27.08
423.833	27.31
424.039	27.36
424.245	27.18
424.45	27.17
424.656	27.32
424.862	27.32
425.067	27.34
425.273	27.31
425.478	27.35
425.684	27.42
425.889	27.44
426.095	27.18
426.301	27.14
426.506	27.08
426.712	26.97
426.917	26.87
427.123	26.8
427.328	26.74
427.533	27.01
427.739	27
427.944	26.97
428.15	26.91
428.355	27.12
428.561	27.24
428.766	27.35
428.971	27.52
429.177	27.43
429.382	27.5
429.587	27.5
429.793	27.33
429.998	27.33
430.203	27.65
430.408	27.72
430.614	27.69
430.819	27.63
431.024	27.46
431.229	27.28
431.434	27.55
431.64	27.68
431.845	27.71
432.05	27.7
432.255	27.99
432.46	27.71
432.665	27.61
432.87	27.64
433.076	27.68
433.281	27.72
433.486	27.94
433.691	27.77
433.896	27.57
434.101	27.67
434.306	27.6
434.511	27.48
434.716	27.57
434.921	27.87
435.126	27.87
435.331	27.89
435.535	28
435.74	27.86
435.945	28.05
436.15	28.34
436.355	28.38
436.56	28.49
436.765	28.55
436.97	28.64
437.174	28.49
437.379	28.48
437.584	28.34
437.789	28.43
437.993	28.55
438.198	28.65
438.403	28.52
438.608	28.54
438.812	28.58
439.017	28.49
439.222	28.35
439.426	28.46
439.631	28.48
439.836	28.66
440.04	28.58
440.245	28.57
440.45	28.41
440.654	28.48
440.859	28.28
441.063	28.28
441.268	28.31
441.472	28.51
441.677	28.4
441.881	28.57
442.086	28.53
442.29	28.6
442.495	28.56
442.699	28.57
442.904	28.65
443.108	28.84
443.312	28.88
443.517	28.96
443.721	28.82
443.925	28.72
444.13	28.64
444.334	28.75
444.538	28.67
444.743	28.68
444.947	28.52
445.151	28.21
445.356	28.15
445.56	28.08
445.764	28.14
445.968	28.18
446.173	28.32
446.377	28.16
446.581	28.03
446.785	28.02
446.989	27.96
447.193	28.04
447.398	28.11
447.602	28.18
447.806	28.18
448.01	27.99
448.214	28.08
448.418	28.01
448.622	28
448.826	28.17
449.03	28.25
449.234	28.21
449.438	28.28
449.642	28.38
449.846	28.44
450.05	28.37
450.254	28.45
450.458	28.21
450.662	28.21
450.866	28.22
451.069	27.95
451.273	27.9
451.477	27.88
451.681	27.7
451.885	27.63
452.089	27.43
452.292	27.62
452.496	27.56
452.7	27.57
452.904	27.62
453.107	27.64
453.311	27.78
453.515	27.67
453.719	27.95
453.922	28.08
454.126	28.14
454.33	28.16
454.533	27.95
454.737	28.04
454.94	28.08
455.144	27.91
455.348	27.95
455.551	27.92
455.755	28.13
455.958	28.1
456.162	28.08
456.365	28.11
456.569	28.06
456.772	28.14
456.976	27.99
457.179	27.95
457.383	27.98
457.586	27.94
457.79	27.9
457.993	27.72
458.196	27.61
458.4	27.54
458.603	27.58
458.807	27.67
459.01	27.71
459.213	27.76
459.417	27.82
459.62	27.82
459.823	27.91
460.026	27.9
460.23	27.94
460.433	28.02
460.636	28.19
460.839	28.03
461.042	28.08
461.246	27.99
461.449	27.94
461.652	27.82
461.855	27.9
462.058	27.74
462.261	27.66
462.464	27.7
462.668	27.8
462.871	27.78
463.074	28.02
463.277	27.96
463.48	28.21
463.683	28.59
463.886	28.78
464.089	28.98
464.292	29.09
464.495	29.48
464.698	29.58
464.901	29.35
465.104	29.39
465.306	29.4
465.509	29.53
465.712	29.26
465.915	29.17
466.118	29.26
466.321	29.1
466.524	29.18
466.726	28.96
466.929	28.94
467.132	29.02
467.335	29.04
467.538	29.13
467.74	29.07
467.943	29.24
468.146	29.27
468.348	29.07
468.551	29.05
468.754	29.21
468.956	29.3
469.159	29.36
469.362	29.33
469.564	29.3
469.767	29.43
469.969	29.37
470.172	29.58
470.375	29.67
470.577	29.89
470.78	30.06
470.982	29.98
471.185	29.91
471.387	30.09
471.59	30.28
471.792	30.38
471.995	30.22
472.197	30.47
472.399	30.37
472.602	30.31
472.804	30.34
473.007	30.38
473.209	30.54
473.411	30.58
473.614	30.69
473.816	30.6
474.018	30.61
474.22	30.6
474.423	30.61
474.625	30.7
474.827	30.79
475.03	30.8
475.232	30.77
475.434	30.64
475.636	30.67
475.838	30.5
476.04	30.61
476.243	30.61
476.445	30.81
476.647	30.89
476.849	30.91
477.051	30.89
477.253	30.9
477.455	30.86
477.657	30.93
477.859	31
478.061	30.9
478.263	30.72
478.465	30.78
478.667	30.58
478.869	30.54
479.071	30.77
479.273	30.74
479.475	30.77
479.677	30.68
479.879	30.63
480.081	30.61
480.283	30.62
480.485	30.74
480.686	30.79
480.888	30.98
481.09	30.93
481.292	30.81
481.494	30.69
481.695	30.66
481.897	30.78
482.099	30.88
482.301	31.04
482.502	31.11
482.704	31.1
482.906	31.02
483.107	31.07
483.309	31.16
483.511	31.06
483.712	31.16
483.914	31.14
484.115	31.18
484.317	31.14
484.519	31.11
484.72	31.13
484.922	31.19
485.123	31.26
485.325	31.28
485.526	31.18
485.728	31.25
485.929	31.24
486.131	31.3
486.332	31.27
486.534	31.34
486.735	31.4
486.936	31.39
487.138	31.39
487.339	31.43
487.541	31.37
487.742	31.45
487.943	31.45
488.144	31.49
488.346	31.51
488.547	31.58
488.748	31.59
488.95	31.56
489.151	31.62
489.352	31.62
489.553	31.61
489.755	31.62
489.956	31.62
490.157	31.74
490.358	31.8
490.559	31.87
490.76	31.95
490.961	32.04
491.163	32.14
491.364	32.18
491.565	32.22
491.766	32.35
491.967	32.47
492.168	32.6
492.369	32.64
492.57	32.64
492.771	32.66
492.972	32.74
493.173	32.86
493.374	32.8
493.575	32.88
493.776	32.97
493.976	33
494.177	33.1
494.378	33.26
494.579	33.38
494.78	33.57
494.981	33.79
495.182	33.95
495.382	33.92
495.583	34.15
495.784	34.27
495.985	34.38
496.185	34.35
496.386	34.35
496.587	34.35
496.788	34.58
496.988	34.64
497.189	34.65
497.39	34.76
497.59	34.92
497.791	35.01
497.992	35.23
498.192	35.52
498.393	35.68
498.593	35.83
498.794	35.77
498.994	35.85
499.195	35.99
499.395	36.14
499.596	36.17
499.796	36.36
499.997	36.63
500.197	36.55
500.398	36.6
500.598	36.88
500.799	37.14
500.999	37.54
501.199	37.54
501.4	37.74
501.6	37.96
501.801	38.18
502.001	38.24
502.201	38.52
502.402	38.92
502.602	38.93
502.802	38.89
503.002	38.83
503.203	38.88
503.403	39.12
503.603	39.4
503.803	39.48
504.003	39.47
504.204	39.71
504.404	39.74
504.604	39.71
504.804	40.07
505.004	40.27
505.204	40.61
505.404	40.84
505.604	41
505.804	41.08
506.005	41.41
506.205	41.71
506.405	41.77
506.605	41.92
506.805	42.23
507.005	42.44
507.204	42.66
507.404	42.77
507.604	42.94
507.804	43.06
508.004	43.32
508.204	43.36
508.404	43.5
508.604	43.8
508.804	43.91
509.003	43.88
509.203	43.85
509.403	44.03
509.603	44.27
509.803	44.43
510.002	44.56
510.202	44.71
510.402	45.07
510.602	45.22
510.801	45.37
511.001	45.53
511.201	45.92
511.4	46.21
511.6	46.27
511.8	46.38
511.999	46.59
512.199	46.94
512.398	47.14
512.598	47.13
512.797	47.24
512.997	47.32
513.197	47.6
513.396	47.73
513.596	47.96
513.795	48.24
513.994	48.35
514.194	48.55
514.393	48.66
514.593	48.69
514.792	48.73
514.992	49.11
515.191	49.44
515.39	49.55
515.59	49.69
515.789	49.72
515.988	49.94
516.188	50.15
516.387	50.29
516.586	50.47
516.786	50.74
516.985	51.1
517.184	51.14
517.383	51.17
517.582	51.39
517.782	51.45
517.981	51.68
518.18	51.81
518.379	52
518.578	52.13
518.777	52.33
518.976	52.45
519.176	52.5
519.375	52.61
519.574	52.8
519.773	52.85
519.972	52.96
520.171	53.17
520.37	53.31
520.569	53.38
520.768	53.6
520.967	53.66
521.166	53.79
521.365	54.02
521.564	54.2
521.762	54.24
521.961	54.3
522.16	54.4
522.359	54.44
522.558	54.53
522.757	54.7
522.956	54.65
523.154	54.83
523.353	54.97
523.552	54.98
523.751	55.07
523.949	55.13
524.148	55.2
524.347	55.41
524.546	55.41
524.744	55.6
524.943	55.67
525.142	55.86
525.34	55.82
525.539	55.8
525.737	55.96
525.936	56.06
526.135	56.24
526.333	56.32
526.532	56.39
526.73	56.48
526.929	56.6
527.127	56.75
527.326	56.83
527.524	56.91
527.723	57.09
527.921	57.23
528.12	57.38
528.318	57.42
528.516	57.45
528.715	57.57
528.913	57.66
529.112	57.63
529.31	57.61
529.508	57.65
529.707	57.76
529.905	57.7
530.103	57.57
530.301	57.55
530.5	57.49
530.698	57.55
530.896	57.44
531.094	57.4
531.293	57.53
531.491	57.59
531.689	57.65
531.887	57.65
532.085	57.75
532.283	57.9
532.481	57.92
532.68	58.1
532.878	58.25
533.076	58.47
533.274	58.65
533.472	58.67
533.67	58.74
533.868	58.84
534.066	58.84
534.264	58.87
534.462	58.97
534.66	58.96
534.858	59.09
535.056	59.08
535.253	59.04
535.451	59.03
535.649	59.06
535.847	59.08
536.045	59.06
536.243	59.07
536.441	59.18
536.638	59.26
536.836	59.28
537.034	59.25
537.232	59.24
537.43	59.2
537.627	59.21
537.825	59.34
538.023	59.4
538.22	59.43
538.418	59.54
538.616	59.64
538.813	59.61
539.011	59.77
539.209	59.84
539.406	60.06
539.604	60.06
539.801	60.15
539.999	60.12
540.196	60.05
540.394	60.17
540.591	60.13
540.789	60.17
540.986	60.18
541.184	60.21
541.381	60.16
541.579	60.24
541.776	60.37
541.974	60.26
542.171	60.18
542.368	60.29
542.566	60.3
542.763	60.42
542.96	60.37
543.158	60.4
543.355	60.41
543.552	60.48
543.75	60.45
543.947	60.44
544.144	60.48
544.341	60.61
544.539	60.46
544.736	60.34
544.933	60.35
545.13	60.33
545.327	60.25
545.524	60.17
545.722	60.03
545.919	59.95
546.116	60.01
546.313	60.12
546.51	60.08
546.707	60.29
546.904	60.22
547.101	60.32
547.298	60.34
547.495	60.62
547.692	60.64
547.889	60.81
548.086	60.92
548.283	60.82
548.48	60.82
548.677	60.86
548.874	60.91
549.07	61.19
549.267	60.99
549.464	61.05
549.661	60.63
549.858	60.87
550.055	60.92
550.251	60.94
550.448	60.96
550.645	60.96
550.842	61.07
551.038	60.95
551.235	60.86
551.432	60.85
551.628	60.8
551.825	61.02
552.022	60.9
552.218	60.99
552.415	61.05
552.612	61.22
552.808	61.09
553.005	61.16
553.201	61.26
553.398	61.47
553.594	61.44
553.791	61.51
553.987	61.59
554.184	61.76
554.38	61.77
554.577	61.79
554.773	61.74
554.97	61.82
555.166	61.67
555.362	61.6
555.559	61.4
555.755	61.61
555.952	61.94
556.148	61.97
556.344	61.87
556.541	62.05
556.737	62.03
556.933	62.06
557.129	62.19
557.326	62.26
557.522	62.19
557.718	62.12
557.914	62.36
558.11	62.14
558.307	62.07
558.503	62.12
558.699	61.84
558.895	61.79
559.091	61.71
559.287	61.63
559.483	61.65
559.679	62.03
559.876	61.97
560.072	61.68
560.268	61.7
560.464	61.76
560.66	61.76
560.856	61.92
561.052	61.63
561.247	61.61
561.443	61.46
561.639	61.34
561.835	61.1
562.031	61.16
562.227	61.15
562.423	61.18
562.619	61.29
562.815	61.13
563.01	61.05
563.206	61.34
563.402	61.67
563.598	61.93
563.793	61.85
563.989	61.91
564.185	62
564.381	62.04
564.576	62.12
564.772	62.02
564.968	62.12
565.163	62.32
565.359	62.59
565.555	62.47
565.75	62.68
565.946	62.91
566.141	62.98
566.337	63.05
566.532	63.11
566.728	63.01
566.923	63.21
567.119	63.34
567.314	63.15
567.51	62.8
567.705	62.69
567.901	62.62
568.096	62.62
568.292	62.38
568.487	62.19
568.682	62.42
568.878	62.63
569.073	62.39
569.268	62.52
569.464	62.49
569.659	62.49
569.854	62.55
570.05	62.41
570.245	62.2
570.44	62.38
570.635	62.45
570.831	62.19
571.026	62.04
571.221	62.05
571.416	61.91
571.611	62.14
571.806	62.32
572.002	62.33
572.197	62.42
572.392	62.71
572.587	62.62
572.782	62.57
572.977	62.58
573.172	62.69
573.367	62.7
573.562	62.71
573.757	62.61
573.952	62.47
574.147	62.44
574.342	62.5
574.537	62.31
574.732	62.36
574.927	62.37
575.121	62.37
575.316	62.24
575.511	62.25
575.706	62.16
575.901	61.91
576.096	62.17
576.29	62.25
576.485	61.99
576.68	61.94
576.875	61.89
577.069	62.01
577.264	61.93
577.459	62.06
577.654	62.08
577.848	61.83
578.043	62
578.238	61.76
578.432	61.71
578.627	62
578.821	61.98
579.016	62.03
579.21	61.9
579.405	61.94
579.6	61.87
579.794	61.84
579.989	62.13
580.183	62.29
580.378	62.29
580.572	62.14
580.766	61.89
580.961	62.18
581.155	62.32
581.35	62.4
581.544	62.34
581.738	62.25
581.933	62.33
582.127	62.51
582.321	62.32
582.516	62.2
582.71	62.18
582.904	62.27
583.099	62.17
583.293	61.92
583.487	61.85
583.681	62.26
583.875	62.38
584.07	62.5
584.264	62.46
584.458	62.32
584.652	62.51
584.846	62.47
585.04	62.51
585.234	62.4
585.428	62.61
585.623	62.73
585.817	62.59
586.011	62.43
586.205	62.32
586.399	62.19
586.593	62.44
586.787	62.5
586.981	62.76
587.174	62.63
587.368	62.69
587.562	62.86
587.756	62.79
587.95	62.55
588.144	62.72
588.338	62.59
588.532	62.65
588.725	62.37
588.919	62.31
589.113	62.34
589.307	62.57
589.501	62.33
589.694	62.25
589.888	62.03
590.082	62.14
590.275	61.93
590.469	61.94
590.663	62.03
590.856	62.06
591.05	62.08
591.244	62.05
591.437	61.99
591.631	62.01
591.824	61.7
592.018	62.03
592.212	61.84
592.405	61.99
592.599	61.98
592.792	61.81
592.986	61.86
593.179	61.74
593.372	61.31
593.566	61.15
593.759	61.04
593.953	61.05
594.146	60.87
594.339	60.84
594.533	60.84
594.726	60.67
594.92	60.66
595.113	60.82
595.306	60.81
595.499	60.99
595.693	60.85
595.886	61.08
596.079	60.91
596.272	60.91
596.466	61.05
596.659	60.83
596.852	60.77
597.045	60.72
597.238	60.35
597.431	60.24
597.624	60.18
597.818	60.24
598.011	60.07
598.204	60.36
598.397	60.36
598.59	60.3
598.783	60.3
598.976	60.27
599.169	60.35
599.362	60.59
599.555	60.54
599.748	60.6
599.941	60.65
600.134	60.91
600.326	60.56
600.519	60.31
600.712	60.53
600.905	60.5
601.098	60.68
601.291	60.13
601.483	60
601.676	60.16
601.869	60.16
602.062	60.3
602.255	60.03
602.447	60.35
602.64	60.25
602.833	59.81
603.025	59.62
603.218	59.45
603.411	59.67
603.603	59.63
603.796	59.49
603.989	59.37
604.181	59.22
604.374	59.03
604.566	58.69
604.759	58.75
604.951	58.69
605.144	58.67
605.336	58.57
605.529	58.51
605.721	58.54
605.914	58.56
606.106	58.43
606.299	58.3
606.491	58.2
606.683	58.32
606.876	58.34
607.068	58.39
607.26	58.53
607.453	58.47
607.645	58.64
607.837	58.48
608.03	58.22
608.222	58.28
608.414	58.05
608.606	58.13
608.799	57.99
608.991	57.92
609.183	57.57
609.375	57.59
609.567	57.63
609.759	57.51
609.952	57.6
610.144	57.7
610.336	57.71
610.528	57.78
610.72	57.85
610.912	57.62
611.104	57.53
611.296	57.66
611.488	57.56
611.68	57.28
611.872	57.09
612.064	56.77
612.256	56.6
612.448	56.4
612.64	56.24
612.832	55.95
613.023	56.18
613.215	56.29
613.407	56.4
613.599	55.99
613.791	56.29
613.983	56.3
614.174	56.25
614.366	56.08
614.558	55.93
614.75	56.19
614.941	56.19
615.133	56.19
615.325	55.84
615.516	55.82
615.708	55.96
615.9	56.25
616.091	56.2
616.283	56.25
616.475	56.31
616.666	56.25
616.858	55.99
617.049	55.9
617.241	55.75
617.432	55.64
617.624	55.43
617.815	55.44
618.007	54.86
618.198	54.63
618.39	54.37
618.581	54.59
618.773	54.67
618.964	54.61
619.155	54.63
619.347	54.51
619.538	54.62
619.729	54.82
619.921	54.72
620.112	55.05
620.303	55.23
620.494	55.31
620.686	55.23
620.877	55.16
621.068	54.97
621.259	54.92
621.451	55.03
621.642	54.94
621.833	54.61
622.024	54.48
622.215	54.18
622.406	54.34
622.597	54.33
622.788	53.93
622.98	53.62
623.171	53.63
623.362	53.8
623.553	53.54
623.744	53.67
623.935	53.72
624.126	53.77
624.317	53.5
624.508	53.28
624.698	53.23
624.889	53.31
625.08	53.53
625.271	53.28
625.462	53.06
625.653	52.81
625.844	52.73
626.034	52.32
626.225	52.59
626.416	52.67
626.607	52.5
626.798	52.39
626.988	52.41
627.179	52
627.37	52.39
627.56	52.16
627.751	52.24
627.942	52.29
628.132	52.63
628.323	52.45
628.514	52.27
628.704	52.19
628.895	52.37
629.085	52.02
629.276	52.51
629.466	51.92
629.657	52.43
629.847	52.48
630.038	52.02
630.228	51.87
630.419	51.42
630.609	51.34
630.8	51.45
630.99	51.18
631.181	51.51
631.371	51.2
631.561	51.59
631.752	51.35
631.942	51.32
632.132	51.5
632.323	51.24
632.513	51.65
632.703	51.7
632.893	51.29
633.084	51.33
633.274	50.76
633.464	50.62
633.654	50.39
633.844	50.23
634.034	50.27
634.225	50.25
634.415	50.18
634.605	49.78
634.795	49.56
634.985	49.77
635.175	49.29
635.365	49.42
635.555	49.34
635.745	49.19
635.935	48.73
636.125	48.36
636.315	48.3
636.505	48.49
636.695	48.57
636.885	48.88
637.075	48.47
637.265	48.97
637.455	48.9
637.644	48.9
637.834	48.78
638.024	49.04
638.214	49.21
638.404	48.85
638.593	48.6
638.783	48.44
638.973	48.22
639.163	48.4
639.352	48.01
639.542	47.82
639.732	47.83
639.921	47.93
640.111	48.01
640.301	47.67
640.49	47.74
640.68	47.81
640.87	47.98
641.059	47.99
641.249	47.74
641.438	48.25
641.628	48.66
641.817	48.37
642.007	48.16
642.196	48.18
642.386	48.19
642.575	48.08
642.764	48.03
642.954	47.92
643.143	48.07
643.333	48.04
643.522	47.53
643.711	47.16
643.901	47.16
644.09	47.44
644.279	47.36
644.469	47.39
644.658	47.56
644.847	47.62
645.036	47.57
645.226	47.21
645.415	47.35
645.604	47.16
645.793	47.24
645.982	47.29
646.171	47.43
646.361	47.06
646.55	47.14
646.739	47.02
646.928	47.09
647.117	46.55
647.306	46.82
647.495	46.71
647.684	46.96
647.873	46.8
648.062	46.91
648.251	46.17
648.44	46.06
648.629	45.99
648.818	46
649.007	45.59
649.196	45.99
649.384	45.83
649.573	46.03
649.762	46.01
649.951	45.97
650.14	45.94
650.328	46.38
650.517	46.22
650.706	46.07
650.895	45.99
651.083	46.27
651.272	46.2
651.461	45.72
651.65	45.72
651.838	45.67
652.027	45.69
652.216	45.19
652.404	45.08
652.593	45.41
652.781	45.25
652.97	45.12
653.158	44.9
653.347	44.6
653.535	44.89
653.724	44.56
653.912	44.56
654.101	44.75
654.289	44.83
654.478	44.59
654.666	44.33
654.855	44.53
655.043	44.36
655.231	44.2
655.42	44.33
655.608	44.1
655.796	44.11
655.985	43.68
656.173	43.5
656.361	43.76
656.55	43.75
656.738	43.58
656.926	43.66
657.114	43.88
657.302	43.96
657.491	43.95
657.679	44.29
657.867	44.23
658.055	44.56
658.243	44.52
658.431	44.39
658.619	44.53
658.807	44.64
658.996	44.66
659.184	44.88
659.372	45.21
659.56	45.07
659.748	44.66
659.936	44.74
660.124	44.48
660.311	44.84
660.499	44.57
660.687	44.19
660.875	44.34
661.063	44.31
661.251	43.73
661.439	43.27
661.627	43.49
661.814	43.85
662.002	43.78
662.19	43.45
662.378	42.66
662.565	42.76
662.753	42.73
662.941	42.28
663.129	42.05
663.316	42.13
663.504	42.03
663.692	42.12
663.879	42.08
664.067	41.61
664.254	42.19
664.442	42.58
664.63	42.91
664.817	43.01
665.005	43.27
665.192	43.03
665.38	43.49
665.567	43.26
665.755	42.73
665.942	42.49
666.13	42.74
666.317	42.46
666.504	41.93
666.692	42.1
666.879	42.22
667.067	42.14
667.254	42.53
667.441	42.41
667.629	42.69
667.816	42.82
668.003	42.83
668.19	42.88
668.378	42.9
668.565	43.27
668.752	42.9
668.939	42.85
669.127	42.72
669.314	42.45
669.501	41.91
669.688	41.77
669.875	41.99
670.062	41.64
670.249	41.94
670.436	41.88
670.623	41.72
670.81	41.98
670.997	42.52
671.184	42.93
671.371	42.99
671.558	43.39
671.745	43.4
671.932	43.01
672.119	43.3
672.306	43.61
672.493	44.05
672.68	44.04
672.867	44.08
673.054	43.77
673.24	43.17
673.427	43.27
673.614	43.2
673.801	43.61
673.988	43.57
674.174	43.42
674.361	42.68
674.548	42.32
674.734	42.96
674.921	42.45
675.108	42.26
675.294	43.05
675.481	42.66
675.668	42.33
675.854	41.95
676.041	42.17
676.227	42.36
676.414	42.55
676.601	42.67
676.787	42.25
676.974	42.83
677.16	42.83
677.347	42.16
677.533	42.31
677.719	42.54
677.906	42.11
678.092	42.07
678.279	41.72
678.465	41.82
678.651	41.94
678.838	41.78
679.024	41.27
679.21	41.1
679.397	40.88
679.583	41.12
679.769	41.08
679.955	41.48
680.142	41.4
680.328	41.38
680.514	41.24
680.7	40.64
680.886	40.65
681.073	40.6
681.259	40.54
681.445	40.88
681.631	40.77
681.817	40.82
682.003	40.94
682.189	40.96
682.375	41.24
682.561	41.54
682.747	41.91
682.933	41.84
683.119	42.08
683.305	41.92
683.491	41.72
683.677	41.59
683.863	41.36
684.049	40.98
684.235	41.1
684.42	41.08
684.606	40.62
684.792	40.4
684.978	40.61
685.164	40.3
685.349	40.36
685.535	40.16
685.721	40.08
685.907	40.24
686.092	40.19
686.278	39.33
686.464	39.43
686.649	39.81
686.835	39.89
687.021	39.5
687.206	39.69
687.392	40.16
687.577	40.84
687.763	41.24
687.948	41.46
688.134	41.87
688.319	42.58
688.505	42.53
688.69	42.33
688.876	42.55
689.061	42.6
689.247	42.3
689.432	42.39
689.618	41.82
689.803	41.4
689.988	41.03
690.174	40.95
690.359	40.66
690.544	40.35
690.73	40.28
690.915	40.27
691.1	40.14
691.285	39.98
691.471	39.58
691.656	40.15
691.841	40.09
692.026	40.11
692.211	39.82
692.396	40.05
692.582	40.37
692.767	40.08
692.952	39.69
693.137	40.12
693.322	40.66
693.507	40.41
693.692	40.27
693.877	40.1
694.062	40.19
694.247	40.5
694.432	40.44
694.617	39.95
694.802	39.91
694.987	39.98
695.172	39.32
695.357	38.65
695.541	38.88
695.726	38.81
695.911	39.28
696.096	39.52
696.281	38.98
696.466	38.14
696.65	38.64
696.835	38.64
697.02	38.71
697.204	39.37
697.389	39.78
697.574	39.53
697.759	39.58
697.943	39.31
698.128	39.12
698.312	39.06
698.497	39.57
698.682	39.47
698.866	39.28
699.051	39.33
699.235	38.92
699.42	38.41
699.604	38.23
699.789	38.02
699.973	37.94
700.158	37.58
700.342	37.5
700.527	37.6
700.711	37.6
700.895	37.5
701.08	37.15
701.264	37.09
701.448	37.82
701.633	37.82
701.817	37.71
702.001	37.61
702.186	38.17
702.37	38.81
702.554	38.56
702.738	38.6
702.923	39.19
703.107	39.02
703.291	39.71
703.475	39.46
703.659	39.42
703.843	39.22
704.027	39.43
704.212	39.03
704.396	38.16
704.58	37.68
704.764	37.04
704.948	36.61
705.132	36.78
705.316	36.66
705.5	36.65
705.684	37.14
705.868	37.82
706.052	37.91
706.235	37.99
706.419	38.19
706.603	38.53
706.787	38.56
706.971	38.74
707.155	38.26
707.339	37.55
707.522	37.54
707.706	37.02
707.89	36.57
708.074	36.18
708.257	36.82
708.441	36.87
708.625	37.15
708.808	37.39
708.992	37.31
709.176	37.46
709.359	37.53
709.543	36.92
709.727	37.59
709.91	38.02
710.094	38.07
710.277	37.33
710.461	37.14
710.644	36.68
710.828	36.7
711.011	36.52
711.195	37.29
711.378	37.64
711.562	38.48
711.745	39.12
711.928	38.54
712.112	38.94
712.295	39.25
712.478	39.65
712.662	39.52
712.845	39.51
713.028	40.16
713.212	39.51
713.395	39.17
713.578	39.3
713.761	37.45
713.945	37.44
714.128	36.93
714.311	36.37
714.494	36.76
714.677	36.4
714.86	36.41
715.043	36.08
715.227	36.54
715.41	36.69
715.593	36.4
715.776	37.33
715.959	37.64
716.142	38.03
716.325	37.97
716.508	37.41
716.691	37.96
716.874	37.51
717.057	37.42
717.239	36.93
717.422	36.88
717.605	36.61
717.788	36.72
717.971	36.03
718.154	35.46
718.337	36.43
718.519	36
718.702	36.59
718.885	37.09
719.068	36.99
719.25	37.55
719.433	37.97
719.616	38.18
719.798	38
719.981	38.87
720.164	38.7
720.346	38.53
720.529	38.74
720.712	38.3
720.894	38.43
721.077	37.78
721.259	37.3
721.442	37.05
721.624	36.59
721.807	36.8
721.989	36.44
722.172	36.34
722.354	36.4
722.537	35.99
722.719	35.83
722.901	35.96
723.084	35.47
723.266	34.81
723.448	34.67
723.631	34.46
723.813	34.16
723.995	33.36
724.178	34.1
724.36	32.91
724.542	33.69
724.724	33.95
724.907	33.84
725.089	35.41
725.271	35.8
725.453	35.64
725.635	36.82
725.817	36.61
725.999	37.12
726.181	36.92
726.364	36.8
726.546	36.72
726.728	35.67
726.91	34.35
727.092	34.02
727.274	33.79
727.456	33.75
727.638	32.69
727.819	32.54
728.001	32.21
728.183	32.6
728.365	32.99
728.547	33.88
728.729	34.34
728.911	35.57
729.093	35.05
729.274	35.21
729.456	35.01
729.638	34.97
729.82	35.75
730.001	36.9
730.183	36.43
730.365	35.95
730.546	35.38
730.728	35.74
730.91	35.54
731.091	36.35
731.273	36.97
731.455	37.83
731.636	37.61
731.818	36.73
731.999	35.98
732.181	35.87
732.362	36.47
732.544	36.87
732.725	36.9
732.907	36.21
733.088	35.09
733.27	34.57
733.451	33.78
733.633	34.39
733.814	35
733.995	35.51
734.177	35.74
734.358	35.55
734.539	34.99
734.721	34.03
734.902	34.98
735.083	35.76
735.264	36.12
735.446	35.58
735.627	34.91
735.808	34.77
735.989	33.88
736.17	33.92
736.351	34.49
736.533	35.47
736.714	36.26
736.895	36.2
737.076	36.23
737.257	35.62
737.438	34.81
737.619	35.51
737.8	34.92
737.981	35.17
738.162	34.88
738.343	35.16
738.524	33.42
738.705	32.72
738.886	32.34
739.067	31.99
739.247	32.13
739.428	33.28
739.609	33.62
739.79	34.67
739.971	35.09
740.151	33.97
740.332	33.06
740.513	32.51
740.694	32.39
740.874	32.69
741.055	33.43
741.236	32.89
741.417	32.18
741.597	31.7
741.778	30.89
741.958	31.29
742.139	32.55
742.32	32.56
742.5	33.65
742.681	34.07
742.861	34.78
743.042	35.31
743.222	36.62
743.403	37.67
743.583	37.61
743.764	37.04
743.944	35.53
744.124	36.3
744.305	36.07
744.485	36.42
744.666	36.63
744.846	35.22
745.026	34.63
745.207	33.53
745.387	34.32
745.567	33.78
745.747	34.13
745.928	34.27
746.108	33.39
746.288	33.89
746.468	33.26
746.648	32.89
746.829	33
747.009	32.7
747.189	32.26
747.369	31.87
747.549	31.53
747.729	31.48
747.909	31.35
748.089	31.43
748.269	31.06
748.449	31.15
748.629	31.57
748.809	31.84
748.989	31.2
749.169	32.94
749.349	31.94
749.529	31.51
749.709	32.21
749.889	32.82
750.068	33.29
750.248	34.44
750.428	33.41
750.608	34.3
750.788	34.42
750.967	34.53
751.147	34.29
751.327	33.99
751.507	34.76
751.686	34.6
751.866	33.15
752.046	32.48
752.225	32.38
752.405	33.35
752.585	32.22
752.764	31.83
752.944	31.88
753.123	31.51
753.303	32.72
753.482	32.56
753.662	32.12
753.841	32.74
754.021	33.03
754.2	32.33
754.38	31.83
754.559	32.56
754.739	32.79
754.918	33.46
755.097	32.9
755.277	32.69
755.456	33.14
755.635	33.93
755.815	34.57
755.994	34.17
756.173	33.36
756.352	33.53
756.532	33.37
756.711	33.95
756.89	33.04
757.069	33.48
757.248	33.32
757.427	32.54
757.607	31.69
757.786	32.68
757.965	32.86
758.144	34.76
758.323	35.85
758.502	35.34
758.681	33.77
758.86	34.21
759.039	34.63
759.218	34.74
759.397	34.98
759.576	34.37
759.755	33.56
759.934	33.7
760.113	33.17
760.291	31.75
760.47	31.21
760.649	31.64
760.828	31.45
761.007	30.35
761.186	29.26
761.364	30.01
761.543	30.88
761.722	31.45
761.901	31.77
762.079	31.01
762.258	31.23
762.437	31.93
762.615	32.61
762.794	32.32
762.972	32.65
763.151	33.58
763.33	32.98
763.508	32.63
763.687	32.78
763.865	31.39
764.044	31.75
764.222	31.45
764.401	31.11
764.579	30.7
764.758	30.21
764.936	30.83
765.114	30.29
765.293	30.24
765.471	30.47
765.65	28.96
765.828	30.34
766.006	30.22
766.184	31.25
766.363	31.72
766.541	33.14
766.719	33.71
766.898	33.06
767.076	33.37
767.254	32.82
767.432	33.06
767.61	33.32
767.788	32.41
767.967	32.25
768.145	31.76
768.323	31.08
768.501	29.39
768.679	30.11
768.857	29.69
769.035	29.85
769.213	31.63
769.391	31.13
769.569	31.99
769.747	31.87
769.925	32.48
770.103	31.92
770.281	31.22
770.459	30.76
770.636	29.73
770.814	30.88
770.992	30.32
771.17	29.8
771.348	31.26
771.525	30.59
771.703	31.15
771.881	30.79
772.059	29.97
772.236	30.23
772.414	30.3
772.592	31.7
772.769	30.23
772.947	32.07
773.125	32.39
773.302	31
773.48	30.77
773.657	31.64
773.835	29.94
774.013	29
774.19	30.19
774.368	32.09
774.545	31.66
774.723	31.74
774.9	29.77
775.077	29.47
775.255	29.28
775.432	29.93
775.61	29.44
775.787	31.68
775.964	35.41
776.142	35.46
776.319	35.43
776.496	35.64
776.674	36.36
776.851	36.29
777.028	35.64
777.205	35.16
777.382	34.99
777.56	35.92
777.737	33.83
777.914	33.23
778.091	32.17
778.268	30.52
778.445	30.56
778.622	29.52
778.8	31.08
778.977	31.74
779.154	32.52
779.331	32.33
779.508	32.07
779.685	32.13
779.862	32
780.038	32.78
780.215	34.33
780.392	31.95
780.569	33.06
780.746	32.93
780.923	33.03
781.1	32.94
781.277	33.28
781.453	32
781.63	32.7
781.807	32.63
781.984	32.21
782.16	31.2
782.337	33.09
782.514	32.3
782.691	31.56
782.867	31.59
783.044	32.73
783.221	31.54
783.397	33.17
783.574	33.63
783.75	32.26
783.927	33.91
784.103	32.81
784.28	32.1
784.456	33.48
784.633	32.63
784.809	31.6
784.986	31.27
785.162	32.2
785.339	32.09
785.515	33.22
785.692	33.66
785.868	33.34
786.044	33.73
786.221	36.34
786.397	36.75
786.573	36.72
786.749	35.88
786.926	33.55
787.102	31.5
787.278	29.15
787.454	28.87
787.631	28.29
787.807	27.33
787.983	27.05
788.159	24.41
788.335	24.38
788.511	25.94
788.687	27.87
788.863	28.46
789.039	32.13
789.216	32.74
789.392	32.88
789.568	34.08
789.744	33.01
789.919	34.08
790.095	34.31
790.271	33.28
790.447	34.07
790.623	32.9
790.799	33.42
790.975	32.8
791.151	32.35
791.327	32.29
791.502	32.38
791.678	32.84
791.854	32.62
792.03	32.76
792.205	33.86
792.381	31.28
792.557	31.82
792.733	31.67
792.908	27.82
793.084	28.8
793.259	27.63
793.435	25.49
793.611	26.62
793.786	25.74
793.962	29.48
794.137	27.76
794.313	28.35
794.488	28.83
794.664	31.21
794.839	33.96
795.015	33.93
795.19	33.4
795.366	34.94
795.541	33.38
795.716	36.18
795.892	33.17
796.067	33.43
796.242	31.86
796.418	32.18
796.593	28.55
796.768	27.7
796.944	29.54
797.119	28.7
797.294	27.93
797.469	29.25
797.644	24.85
797.82	25.96
797.995	27.63
798.17	27.87
798.345	24.66
798.52	28.71
798.695	28.24
798.87	27.9
799.045	28.77
799.22	28.87
799.395	31.71
799.57	32.25
799.745	31.36
799.92	29.17
800.095	30.18
800.27	33.03
800.445	29.52
800.62	27.73
800.795	25.67
800.97	26.63
801.145	27.29
801.319	25.99
801.494	28.38
801.669	28.39
801.844	29.59
802.018	29.47
802.193	24.98
802.368	27.98
802.543	29.76
802.717	30.72
802.892	28.69
803.067	28.04
803.241	24.84
803.416	20.87
803.59	20.88
803.765	20.3
803.94	19.39
804.114	22.47
804.289	21.28
804.463	24.99
804.638	26.43
804.812	25.23
804.986	23.77
805.161	25.91
805.335	28.94
805.51	29.36
805.684	31.85
805.858	31.63
806.033	29.2
806.207	28.97
806.381	26.84
806.556	25.91
806.73	30.24
806.904	32.92
807.078	32.11
807.253	29.77
807.427	28.87
807.601	26.21
807.775	28.27
807.949	30.92
808.123	33.18
808.298	35.64
808.472	32.94
808.646	30.94
808.82	27.46
808.994	26.28
809.168	29.38
809.342	29.43
809.516	28.76
809.69	26.19
809.864	26.56
810.038	22.8
810.212	18.29
810.385	19.12
810.559	17.62
810.733	18.73
810.907	18.56
811.081	16.84
811.255	16.24
811.428	17.65
811.602	18.83
811.776	16.46
811.95	17.49
812.123	16.96
812.297	19.42
812.471	19.79
812.644	20.67
812.818	23.87
812.992	23.66
813.165	26.04
813.339	26.36
813.512	26.36
813.686	29.97
813.86	34.34
814.033	38.77
814.207	39.8
814.38	41.85
814.554	42.46
814.727	38.46
814.9	37.89
815.074	35.84
815.247	35.64
815.421	35.43
815.594	36.14
815.767	34.87
815.941	32.51
816.114	27.85
816.287	25.36
816.46	25.47
816.634	27.73
816.807	29.12
816.98	27.52
817.153	27.18
817.327	25.6
817.5	25.37
817.673	23.96
817.846	26.88
818.019	32.1
818.192	32.05
818.365	29.35
818.538	27.53
818.711	28.37
818.884	30.3
819.057	32
819.23	35.54
819.403	34.23
819.576	34.31
819.749	30.81
819.922	28.64
820.095	28.94
820.268	31.14
820.441	33.92
820.614	33.38
820.786	33.08
820.959	31.37
821.132	29.69
821.305	28.71
821.477	28.4
821.65	27.68
821.823	27.59
821.996	26.83
822.168	26.59
822.341	25.73
822.514	25.81
822.686	25.3
822.859	25.23
823.031	25.04
823.204	25.29
823.376	24.97
823.549	25.71
823.722	26.18
823.894	26.94
824.067	26.71
824.239	27.07
824.411	26.44
824.584	26.9
824.756	27.15
824.929	27.2
825.101	27.27
825.273	28.07
825.446	27.7
825.618	26.97
825.79	26.45
825.963	26.77
826.135	26.25
826.307	27.02
826.479	26.89
826.652	27.71
826.824	28.04
826.996	27.82
827.168	27.52
827.34	27.45
827.512	27.6
827.684	28.34
827.856	28.54
828.029	28.09
828.201	27.58
828.373	27.52
828.545	25.98
828.717	26.52
828.889	26.58
829.061	26.78
829.232	26.69
829.404	26.6
829.576	25.23
829.748	23.41
829.92	24.45
830.092	24.96
830.264	24.96
830.436	25.33
830.607	24.51
830.779	24.31
830.951	22.74
831.123	23.28
831.294	24.25
831.466	25
831.638	26.9
831.809	25.72
831.981	23.85
832.153	22.89
832.324	22.37
832.496	23.53
832.667	25.59
832.839	26.5
833.011	24.77
833.182	23.61
833.354	25.33
833.525	25.77
833.697	26.75
833.868	28.85
834.039	28.62
834.211	28.29
834.382	28.13
834.554	27.41
834.725	28.08
834.896	29.63
835.068	29.86
835.239	30.57
835.41	28.88
835.581	29.38
835.753	28.52
835.924	29.2
836.095	32.26
836.266	32.06
836.438	31.69
836.609	30.98
836.78	31.05
836.951	32.1
837.122	29.03
837.293	29.72
837.464	28.33
837.635	31.04
837.806	31.19
837.977	28.5
838.148	27.84
838.319	26.49
838.49	25.78
838.661	25.88
838.832	24.56
839.003	26.46
839.174	27.63
839.345	26.04
839.516	21.56
839.687	22.86
839.857	17.9
840.028	18.56
840.199	17.19
840.37	19.19
840.54	19.14
840.711	21.15
840.882	21.78
841.053	22.21
841.223	26.82
841.394	26.53
841.564	24.75
841.735	30.13
841.906	30.66
842.076	32.92
842.247	28.57
842.417	26.23
842.588	24.36
842.758	21.87
842.929	20.38
843.099	20.37
843.27	24.55
843.44	26.9
843.611	23.97
843.781	13.97
843.951	21.92
844.122	31.63
844.292	31.36
844.462	31.79
844.633	31.14
844.803	31.19
844.973	25.48
845.144	21.64
845.314	17.13
845.484	15.51
845.654	23.59
845.824	25.5
845.995	26.45
846.165	16.77
846.335	18.03
846.505	20.72
846.675	22.56
846.845	16.54
847.015	16.59
847.185	13.06
847.355	15.51
847.525	14.86
847.695	-0.46
847.865	-1.8
848.035	11.45
848.205	10.74
848.375	10.05
848.545	10.57
848.715	10.05
848.884	10.99
849.054	14.64
849.224	15.1
849.394	9.9
849.564	16.41
849.733	4.87
849.903	10
850.073	13.57
850.243	18.96
850.412	16.74
850.582	24.21
850.752	21.4
850.921	34.56
851.091	28.52
851.26	25.49
851.43	27.06
851.599	38.52
851.769	25.31
851.939	19.74
852.108	3.36
852.278	-9.98
852.447	-6.59
852.616	-2.64
852.786	-22.12
852.955	-5.12
853.125	7.56
853.294	4.5
853.463	5.67
853.633	-1.55
853.802	-7.06
853.971	5.24
854.141	16.43
854.31	2.87
854.479	-10.94
854.648	5.32
854.818	-1.35
854.987	-8.28
855.156	-8.88
855.325	-19.32
855.494	3.89
855.663	12.83
855.832	10.39
856.001	15.44
856.171	25.72
856.34	37.23
856.509	39.4
856.678	38.48
856.847	41.16
857.016	47.23
857.185	49.91
857.353	51.41
857.522	44.92
857.691	45.72
857.86	44.95
858.029	42.43
858.198	39.68
858.367	31.47
858.535	32.48
858.704	38.27
858.873	26.19
859.042	21.85
859.21	17.38
859.379	8.07
859.548	1.21
859.717	-3.14
859.885	10.32
860.054	3.86
860.222	-17.7
860.391	-12.67
860.56	-15.61
860.728	-0.24
860.897	-2.3
861.065	4.06
861.234	10.48
861.402	25.02
861.571	26.32
861.739	25.46
861.908	36.3
862.076	50.56
862.244	52.56
862.413	45.09
862.581	37.92
862.749	40.52
862.918	39.68
863.086	45.7
863.254	31.93
863.423	34.29
863.591	31.4
863.759	30.24
863.927	24.54
864.096	23.86
864.264	40.15
864.432	40.01
864.6	37.63
864.768	32.41
864.936	27.16
865.104	32.57
865.272	31.82
865.44	33.2
865.608	34.49
865.776	32.2
865.944	33.53
866.112	24.5
866.28	16.27
866.448	12.5
866.616	17.22
866.784	11.26
866.952	-0.02
867.12	2.76
867.288	-0.89
867.455	2.34
867.623	3.81
867.791	0.45
867.959	11.28
868.127	6.62
868.294	15.37
868.462	12.29
868.63	6.42
868.797	40.56
868.965	44.26
869.133	38.38
869.3	35.04
869.468	33.35
869.636	25.05
869.803	12.88
869.971	25.98
870.138	15.41
870.306	10.95
870.473	27.34
870.641	16.45
870.808	23.41
870.975	12.67
871.143	-1.73
871.31	7.79
871.478	30.37
871.645	39.69
871.812	21.9
871.98	28.14
872.147	30.94
872.314	27.27
872.482	18.95
872.649	15.58
872.816	23.36
872.983	25.21
873.15	28.74
873.318	29.32
873.485	18.08
873.652	38.4
873.819	45.94
873.986	56.11
874.153	46.35
874.32	49.97
874.487	46.9
874.654	51.24
874.821	58.16
874.988	54.33
875.155	48.54
875.322	52.21
875.489	46.16
875.656	41.6
875.823	32.13
875.99	32.07
876.157	25.91
876.324	23.59
876.49	34.75
876.657	30.87
876.824	42.03
876.991	48.9
877.157	40.48
877.324	35.18
877.491	30.86
877.658	33.08
877.824	46.84
877.991	55.49
878.157	59.13
878.324	42.26
878.491	49.16
878.657	41.34
878.824	26.32
878.99	36.5
879.157	34.55
879.323	38.01
879.49	27.88
879.656	26.49
879.823	25.71
879.989	27.22
880.156	38.42
880.322	32.01
880.488	27.82
880.655	31.93
880.821	20.7
880.987	25.31
881.154	24.47
881.32	30.31
881.486	30.05
881.652	26.73
881.819	22.88
881.985	20.09
882.151	19.66
882.317	24.12
882.483	26.18
882.649	28.05
882.816	26.67
882.982	25.16
883.148	26.22
883.314	25.66
883.48	24.88
883.646	25.86
883.812	26.49
883.978	26.49
884.144	24.25
884.31	23.16
884.476	21.93
884.642	24.34
884.807	26.03
884.973	23.63
885.139	23.04
885.305	23.23
885.471	22.38
885.637	20.97
885.802	20.37
885.968	19.1
886.134	19.61
886.3	21.44
886.465	19.06
886.631	15.54
886.797	19.29
886.962	17.13
887.128	18.06
887.293	19.72
887.459	21.37
887.625	23.01
887.79	24.84
887.956	29.27
888.121	29.59
888.287	28.99
888.452	34.54
888.618	31.84
888.783	34.54
