Data from CB_107_Reflection_2.txt Node
Date: Sat Nov 14 18:04:59 EST 2015
User: robert
Spectrometer: USB4E03001
Autoset integration time: false
Trigger mode: 4
Integration Time (sec): 1.000000E-1
Scans to average: 15
Electric dark correction enabled: true
Nonlinearity correction enabled: false
Boxcar width: 5
Stray light correction enabled: false
XAxis mode: Wavelengths
Stop averaging: false
Number of Pixels in Spectrum: 3648
>>>>>Begin Spectral Data<<<<<
177.566	256.13
177.785	-1529.56
178.005	444.38
178.225	632.81
178.445	-2311.58
178.665	217.86
178.885	-1291.75
179.105	239.52
179.324	388.94
179.544	113.01
179.764	119.93
179.984	83.13
180.204	74.36
180.423	77.38
180.643	146.95
180.863	222.27
181.083	135.52
181.302	141.59
181.522	168.86
181.742	157.61
181.961	253.16
182.181	332.34
182.401	912.87
182.621	525.61
182.84	706.04
183.06	248.93
183.279	172.25
183.499	316.14
183.719	201.78
183.938	123.59
184.158	156.89
184.377	150.65
184.597	166.7
184.816	139.27
185.036	159.5
185.256	160.64
185.475	169.52
185.695	142.09
185.914	124.19
186.134	125.88
186.353	130.81
186.572	115.22
186.792	105.85
187.011	111.66
187.231	108.19
187.45	109.6
187.67	99.05
187.889	99.84
188.108	118.88
188.328	127.95
188.547	148.89
188.766	149.5
188.986	123.51
189.205	134.12
189.424	118.6
189.644	144.4
189.863	149.59
190.082	182.42
190.302	160.34
190.521	134.32
190.74	138.93
190.959	134.41
191.178	138.04
191.398	189.91
191.617	191.34
191.836	178.68
192.055	119.72
192.274	130.18
192.494	140.35
192.713	298.72
192.932	294.84
193.151	391.15
193.37	278.22
193.589	254.91
193.808	415.74
194.027	738.03
194.246	-2321.31
194.465	3281.37
194.685	241.79
194.904	249.51
195.123	150.2
195.342	158.26
195.561	129.69
195.78	124.61
195.999	136.53
196.218	106.48
196.436	103.77
196.655	109.34
196.874	123.54
197.093	131
197.312	121.55
197.531	128.91
197.75	129.48
197.969	140.42
198.188	149.45
198.407	135.47
198.625	150.84
198.844	150.56
199.063	126.79
199.282	127.87
199.501	173.5
199.719	162.57
199.938	129.69
200.157	116.05
200.376	121.14
200.594	120.32
200.813	144.65
201.032	122.8
201.251	145.29
201.469	149.12
201.688	140.34
201.907	126.49
202.125	142.01
202.344	206.73
202.563	227.2
202.781	208.62
203	252
203.218	244.15
203.437	203.4
203.656	180.66
203.874	149.15
204.093	198.22
204.311	185.96
204.53	189.34
204.748	172.03
204.967	204.25
205.185	235.16
205.404	209.6
205.622	160.42
205.841	180.52
206.059	163.05
206.278	137.05
206.496	126.6
206.715	134.02
206.933	118.98
207.151	101.87
207.37	91.38
207.588	76.02
207.806	72.23
208.025	87.71
208.243	90.32
208.461	114.4
208.68	127.3
208.898	118.93
209.116	108.2
209.335	97.02
209.553	112.74
209.771	121.05
209.989	126.15
210.208	129.18
210.426	126.56
210.644	113.09
210.862	85.1
211.081	84.34
211.299	83.68
211.517	79.49
211.735	101.59
211.953	86.92
212.171	92.79
212.39	85.57
212.608	90.88
212.826	96.87
213.044	104.41
213.262	110.89
213.48	113.94
213.698	104.83
213.916	120.46
214.134	104.71
214.352	119.39
214.57	105.4
214.788	122.15
215.006	127.43
215.224	134.78
215.442	160.83
215.66	147.35
215.878	174.54
216.096	236.98
216.314	210.09
216.532	236.26
216.75	219.71
216.968	245.42
217.185	229.82
217.403	252.15
217.621	333.59
217.839	257.09
218.057	373.69
218.275	282.16
218.492	277.99
218.71	301.61
218.928	314.86
219.146	424.72
219.363	291.58
219.581	316.19
219.799	350.59
220.017	255.65
220.234	224.82
220.452	232.35
220.67	257.43
220.887	433.85
221.105	605.03
221.323	8161.96
221.54	653.86
221.758	3623.21
221.976	1615.07
222.193	297.25
222.411	438.34
222.629	795.21
222.846	1024.62
223.064	-993.21
223.281	1097.45
223.499	770.03
223.716	1624.52
223.934	-1294.95
224.151	-433.35
224.369	-276.48
224.586	-164.64
224.804	-101.35
225.021	-112.54
225.239	-107.81
225.456	-135.01
225.674	-100.81
225.891	-84.05
226.108	-94.38
226.326	-92.64
226.543	-52.33
226.76	-24.65
226.978	-4.98
227.195	-17.4
227.413	-25.13
227.63	-13
227.847	-12.54
228.064	-6.08
228.282	-7.01
228.499	-4.98
228.716	-5.99
228.934	-8.7
229.151	-8.69
229.368	-9.34
229.585	-9.48
229.802	-6.02
230.02	-7.72
230.237	-6.83
230.454	-6.45
230.671	-6.04
230.888	-5.61
231.105	-10.37
231.323	-12.82
231.54	-23.11
231.757	-30.69
231.974	-32.18
232.191	-40.44
232.408	-38.62
232.625	-38.83
232.842	-40.29
233.059	-37.11
233.276	-38.53
233.493	-30.88
233.71	-18.97
233.927	-6.99
234.144	-4.55
234.361	-4.34
234.578	-2.37
234.795	-1.36
235.012	-6.91
235.229	-13.17
235.446	-14.02
235.663	-13.54
235.879	-15.6
236.096	-28.08
236.313	-31.08
236.53	-28.33
236.747	-28.17
236.964	-27.08
237.181	-37.01
237.397	-37.41
237.614	-38.55
237.831	-33.16
238.048	-31.53
238.264	-35.09
238.481	-36
238.698	-30.49
238.915	-32.27
239.131	-30.22
239.348	-33.21
239.565	-22.56
239.781	-13.21
239.998	-9.75
240.215	-13.11
240.431	-12.86
240.648	-5.76
240.865	-0.33
241.081	0.68
241.298	1.53
241.514	1
241.731	3.75
241.947	1.72
242.164	0.24
242.38	3.74
242.597	5.36
242.814	7.6
243.03	7.13
243.246	8.23
243.463	8.36
243.679	7.54
243.896	7.28
244.112	6.23
244.329	6.29
244.545	6.65
244.762	7.35
244.978	7.92
245.194	4.83
245.411	3.25
245.627	2.23
245.843	2.03
246.06	4.2
246.276	4.95
246.492	6.55
246.709	7.12
246.925	8.74
247.141	8.58
247.357	8.73
247.574	9.85
247.79	10.47
248.006	11.32
248.222	11.44
248.439	10.81
248.655	10.6
248.871	10.76
249.087	11.26
249.303	9.41
249.519	7.79
249.736	6.21
249.952	4.35
250.168	5.51
250.384	4.47
250.6	4.22
250.816	3.5
251.032	5.28
251.248	3.34
251.464	-0.39
251.68	0.39
251.896	0.23
252.112	0.14
252.328	-1.23
252.544	-3.28
252.76	-4.54
252.976	-6.51
253.192	-6.48
253.408	-7.27
253.624	-6.55
253.84	-6.04
254.056	-6.36
254.272	-5.94
254.487	-6.8
254.703	-4.65
254.919	-7.87
255.135	-7.86
255.351	-8.9
255.567	-6.48
255.782	-7.13
255.998	-9.1
256.214	-6.85
256.43	-1.6
256.646	-3.59
256.861	-1.71
257.077	-4.86
257.293	-1.37
257.508	1.67
257.724	3.34
257.94	3.85
258.155	3.53
258.371	5.61
258.587	5.32
258.802	4.31
259.018	6.34
259.234	7.27
259.449	8.45
259.665	8.5
259.88	8.21
260.096	8.6
260.312	8.52
260.527	8.92
260.743	7.96
260.958	8.49
261.174	8.82
261.389	8.33
261.605	7.11
261.82	6.33
262.036	5.58
262.251	4.03
262.466	3.41
262.682	3.09
262.897	2.06
263.113	1.19
263.328	1
263.543	-3.61
263.759	-7.58
263.974	-8.84
264.189	-10.72
264.405	-10.89
264.62	-10.44
264.835	-9.14
265.051	-7.75
265.266	-8.68
265.481	-5.26
265.696	-6.15
265.912	-2.64
266.127	0.17
266.342	3.4
266.557	3.91
266.773	4.07
266.988	3.9
267.203	4.05
267.418	2.67
267.633	5.84
267.848	5.41
268.064	5.39
268.279	6.14
268.494	6.12
268.709	5.71
268.924	7.55
269.139	5.98
269.354	6.93
269.569	6.73
269.784	6.5
269.999	4.5
270.214	3.81
270.429	3.32
270.644	3.38
270.859	4.15
271.074	1.95
271.289	1.35
271.504	3.98
271.719	3.58
271.934	2.66
272.149	3.61
272.363	4.12
272.578	5.94
272.793	5.77
273.008	4.82
273.223	4.25
273.438	4.92
273.653	5.29
273.867	4.28
274.082	3.57
274.297	4.46
274.512	3.65
274.726	1.75
274.941	-0.91
275.156	0.48
275.371	1.17
275.585	0.9
275.8	2.26
276.015	1.32
276.229	2.27
276.444	2.24
276.659	1.62
276.873	2.44
277.088	4.21
277.302	4.32
277.517	3.32
277.732	2.13
277.946	3.28
278.161	2.8
278.375	3.06
278.59	2.29
278.804	2.01
279.019	0.95
279.233	1.38
279.448	-0.85
279.662	-0.63
279.877	-0.04
280.091	1.35
280.306	0.86
280.52	-0.22
280.735	0.79
280.949	0.35
281.163	1.24
281.378	2.73
281.592	3.71
281.806	5.2
282.021	4.74
282.235	4.44
282.449	3.16
282.664	3.51
282.878	4.69
283.092	3.37
283.307	3.51
283.521	4.11
283.735	4.03
283.949	3.01
284.164	4.25
284.378	5.99
284.592	6.54
284.806	8.14
285.02	8.53
285.234	9.12
285.449	10.41
285.663	10.89
285.877	10.45
286.091	9.74
286.305	10.29
286.519	9.61
286.733	8.61
286.947	8.8
287.161	8.28
287.375	7.39
287.589	6.63
287.803	6.67
288.017	5.91
288.231	6.97
288.445	7.84
288.659	6.48
288.873	5.23
289.087	5.57
289.301	4.89
289.515	5.04
289.729	4.53
289.943	3.33
290.157	1.72
290.371	2.24
290.584	1.08
290.798	0.21
291.012	1.14
291.226	1.23
291.44	1.12
291.654	1.45
291.867	1.42
292.081	2.56
292.295	4.69
292.509	5.37
292.722	5.94
292.936	7.38
293.15	8.51
293.364	8.72
293.577	9.7
293.791	11.04
294.005	10.87
294.218	10.72
294.432	9.53
294.645	8.79
294.859	10.13
295.073	8.68
295.286	7.05
295.5	7.3
295.713	7.19
295.927	7.3
296.14	6.83
296.354	6.98
296.568	6.35
296.781	7.82
296.994	7.68
297.208	6.84
297.421	7.72
297.635	7.97
297.848	7.64
298.062	7.53
298.275	8.29
298.489	7.61
298.702	8.19
298.915	9.06
299.129	8.03
299.342	8.52
299.555	7.78
299.769	7.75
299.982	7.28
300.195	7.29
300.409	8.39
300.622	7.04
300.835	8.12
301.048	7.15
301.262	6.07
301.475	6.87
301.688	6.36
301.901	7.13
302.115	6.58
302.328	7.92
302.541	8.37
302.754	6.75
302.967	8.2
303.18	7.28
303.393	7.64
303.607	7.65
303.82	8.67
304.033	9.28
304.246	9.52
304.459	9.92
304.672	9.76
304.885	9.04
305.098	9.41
305.311	8.07
305.524	8.16
305.737	7.08
305.95	7.97
306.163	5.21
306.376	3.34
306.589	2.86
306.802	1.79
307.015	1.06
307.228	1.75
307.44	3.53
307.653	4.75
307.866	5.88
308.079	8.05
308.292	8.71
308.505	9.83
308.718	11.46
308.93	12.35
309.143	13.43
309.356	12.93
309.569	12.97
309.781	13.08
309.994	12.76
310.207	11.96
310.42	11.09
310.632	11.23
310.845	10.95
311.058	11.59
311.27	12.27
311.483	12.86
311.696	14.51
311.908	14.94
312.121	13.3
312.333	13.4
312.546	13.63
312.759	13.94
312.971	14.08
313.184	14.37
313.396	12.93
313.609	11.56
313.821	10.89
314.034	9.27
314.246	8.29
314.459	10.23
314.671	9.23
314.884	9.56
315.096	8.55
315.309	7.58
315.521	7.74
315.733	7.87
315.946	8.28
316.158	8.58
316.371	10.19
316.583	9.71
316.795	8.39
317.008	9.76
317.22	9.24
317.432	10.09
317.644	9.19
317.857	10.84
318.069	11.19
318.281	11.85
318.494	10.49
318.706	9.67
318.918	9.73
319.13	10.02
319.342	9.94
319.555	9.92
319.767	10.26
319.979	10.86
320.191	10.19
320.403	9.22
320.615	9.03
320.827	8.97
321.039	8.8
321.252	10.47
321.464	10.21
321.676	8.42
321.888	9.67
322.1	9.67
322.312	9.75
322.524	8.99
322.736	10.95
322.948	10.26
323.16	10.24
323.372	10.01
323.584	8.83
323.796	9.2
324.007	10.67
324.219	10.98
324.431	10.75
324.643	10.2
324.855	10.54
325.067	10.44
325.279	10.54
325.491	12.52
325.702	12.16
325.914	12.56
326.126	13.06
326.338	14.08
326.55	14.12
326.761	15.89
326.973	17.53
327.185	18.31
327.396	19.69
327.608	20.46
327.82	19.43
328.032	21.73
328.243	22.04
328.455	22.51
328.666	22.63
328.878	22.96
329.09	22.92
329.301	23.78
329.513	23.16
329.725	22.47
329.936	22.92
330.148	23.28
330.359	22.48
330.571	23.47
330.782	24.35
330.994	24.02
331.205	24.3
331.417	23.32
331.628	22.98
331.84	23.3
332.051	23.09
332.262	23.61
332.474	24.4
332.685	24.43
332.897	24.51
333.108	23.27
333.319	23.87
333.531	23.59
333.742	24.23
333.953	24.84
334.165	25.05
334.376	25.76
334.587	26.07
334.799	26.19
335.01	26.01
335.221	26.69
335.432	28.66
335.644	28.95
335.855	28.91
336.066	29.14
336.277	29.03
336.488	29.17
336.7	28.04
336.911	27.48
337.122	27.95
337.333	28.58
337.544	27.53
337.755	25.06
337.966	25.08
338.177	25.71
338.388	25.34
338.599	25.21
338.811	24.98
339.022	25.78
339.233	24.81
339.444	23.23
339.655	23.41
339.866	23.7
340.076	24.69
340.287	24.04
340.498	24.04
340.709	24.18
340.92	24.12
341.131	24.48
341.342	24.21
341.553	24.23
341.764	25.38
341.975	25.68
342.185	26.63
342.396	26.16
342.607	26.72
342.818	26.29
343.029	26.44
343.239	26.93
343.45	27.13
343.661	27.6
343.872	28.69
344.082	28.85
344.293	28.57
344.504	27.7
344.714	28.73
344.925	27.62
345.136	27.88
345.346	27.33
345.557	27.35
345.768	27.18
345.978	26.22
346.189	25.76
346.399	25.49
346.61	24.98
346.821	24.79
347.031	24.21
347.242	25.27
347.452	25.32
347.663	25.69
347.873	24.69
348.084	25.19
348.294	26.04
348.504	26.19
348.715	26.33
348.925	26.71
349.136	27.04
349.346	27.62
349.557	27.71
349.767	26.86
349.977	26.99
350.188	26.58
350.398	26.26
350.608	26.32
350.819	26.49
351.029	26.49
351.239	25.93
351.449	25.58
351.66	25.18
351.87	24.96
352.08	24.99
352.29	24.76
352.501	25.67
352.711	26.22
352.921	25.75
353.131	25.5
353.341	25.7
353.552	26.1
353.762	26.22
353.972	26.17
354.182	25.16
354.392	25.12
354.602	25.32
354.812	25.28
355.022	24.2
355.232	24.53
355.442	25.04
355.652	24.4
355.862	24.41
356.072	24.19
356.282	23.92
356.492	24.86
356.702	25.11
356.912	24.7
357.122	24.54
357.332	24.52
357.542	24.08
357.752	23.48
357.962	24.09
358.171	23.93
358.381	24.28
358.591	24.62
358.801	24.41
359.011	24.22
359.221	24.71
359.43	24.78
359.64	24.65
359.85	24.75
360.06	24.56
360.269	24.25
360.479	24.37
360.689	24.17
360.899	24.02
361.108	24.4
361.318	24.41
361.528	24.36
361.737	24.61
361.947	25.3
362.156	25.13
362.366	25.09
362.576	24.74
362.785	24.51
362.995	24.63
363.204	24.5
363.414	23.98
363.623	24.08
363.833	23.86
364.042	23.95
364.252	23.74
364.461	24.08
364.671	25.01
364.88	25.57
365.09	25.43
365.299	24.68
365.509	24.6
365.718	24.42
365.927	24.28
366.137	24.36
366.346	23.95
366.555	23.83
366.765	23.73
366.974	22.93
367.183	22.11
367.393	22.42
367.602	22.26
367.811	22.9
368.021	23.27
368.23	23.53
368.439	22.84
368.648	23.19
368.857	22.57
369.067	22.05
369.276	21.68
369.485	21.44
369.694	20.95
369.903	21.35
370.112	21.17
370.321	21.07
370.531	20.72
370.74	21.14
370.949	20.55
371.158	21.88
371.367	22.34
371.576	22.48
371.785	22.86
371.994	23.02
372.203	23.42
372.412	22.79
372.621	22.71
372.83	22.82
373.039	22.72
373.248	22.67
373.457	21.12
373.666	20.38
373.874	20.46
374.083	19.73
374.292	19.34
374.501	18.73
374.71	18.14
374.919	17.91
375.128	17.95
375.336	18.02
375.545	17.75
375.754	17.81
375.963	18.35
376.171	18.13
376.38	19.09
376.589	19.39
376.798	19.47
377.006	19.95
377.215	19.79
377.424	19.57
377.632	19.33
377.841	19.53
378.05	19.36
378.258	19.02
378.467	18.81
378.675	18.87
378.884	17.8
379.093	17.73
379.301	17.76
379.51	17.72
379.718	17.61
379.927	17.61
380.135	17.55
380.344	17.67
380.552	17.18
380.761	17.03
380.969	16.69
381.177	17.62
381.386	18.08
381.594	18.12
381.803	18.2
382.011	17.68
382.219	17.29
382.428	17.46
382.636	17.56
382.845	17.89
383.053	18.53
383.261	18.37
383.469	18.02
383.678	17.33
383.886	17.27
384.094	17.1
384.302	17.42
384.511	17.62
384.719	17.28
384.927	17.12
385.135	17.23
385.343	16.77
385.552	16.74
385.76	16.27
385.968	16.19
386.176	15.65
386.384	15.77
386.592	15.5
386.8	14.62
387.008	14.45
387.216	14.49
387.424	13.73
387.633	13.5
387.841	13.21
388.049	13.98
388.257	13.89
388.465	13.86
388.672	13.41
388.88	13.48
389.088	14.2
389.296	14.05
389.504	13.69
389.712	14.34
389.92	14.41
390.128	14.13
390.336	13.82
390.544	14.14
390.751	14.08
390.959	13.82
391.167	13.81
391.375	13.89
391.583	13.94
391.79	13.84
391.998	13.57
392.206	13.51
392.414	13.24
392.621	12.95
392.829	12.5
393.037	12.69
393.244	12.89
393.452	12.68
393.66	12.71
393.867	12.21
394.075	12.46
394.283	12.51
394.49	12.63
394.698	13
394.905	13.02
395.113	12.95
395.32	12.68
395.528	12.54
395.735	12.56
395.943	12.07
396.15	12.18
396.358	12.11
396.565	12.16
396.773	12.18
396.98	11.97
397.188	11.91
397.395	12
397.602	11.94
397.81	11.87
398.017	11.57
398.225	11.61
398.432	11.92
398.639	11.65
398.847	11.4
399.054	11.18
399.261	11.21
399.468	11.35
399.676	11.54
399.883	11.54
400.09	11.55
400.297	11.55
400.505	11.29
400.712	10.82
400.919	10.62
401.126	10.18
401.333	10.14
401.54	10.65
401.748	10.28
401.955	9.83
402.162	9.87
402.369	9.88
402.576	10.02
402.783	10.17
402.99	10.39
403.197	10.76
403.404	10.91
403.611	10.71
403.818	10.06
404.025	10
404.232	9.82
404.439	9.87
404.646	9.88
404.853	9.94
405.06	9.8
405.267	9.84
405.474	9.71
405.681	9.75
405.887	9.6
406.094	9.53
406.301	9.75
406.508	10.17
406.715	9.77
406.922	9.76
407.128	9.94
407.335	10.28
407.542	10.38
407.749	10.56
407.955	10.55
408.162	10.74
408.369	10.61
408.575	10.57
408.782	10.2
408.989	10.19
409.195	10.25
409.402	9.83
409.609	9.78
409.815	9.78
410.022	9.51
410.228	9.65
410.435	9.62
410.642	10.15
410.848	9.94
411.055	10.26
411.261	10.37
411.468	10.14
411.674	10.27
411.881	9.95
412.087	9.6
412.294	9.62
412.5	9.6
412.706	9.66
412.913	9.28
413.119	9.57
413.326	9.22
413.532	9.44
413.738	9.7
413.945	9.51
414.151	9.64
414.357	9.85
414.564	9.82
414.77	9.55
414.976	9.58
415.182	9.71
415.389	9.56
415.595	9.61
415.801	9.52
416.007	9.39
416.214	9.41
416.42	9.51
416.626	9.4
416.832	9.38
417.038	9.82
417.244	9.77
417.45	9.67
417.657	9.46
417.863	9.42
418.069	9.39
418.275	9.1
418.481	9.14
418.687	9.07
418.893	9.25
419.099	9.27
419.305	9.02
419.511	9.06
419.717	8.97
419.923	9.04
420.129	9.05
420.335	9.04
420.541	9.3
420.746	9.28
420.952	9.24
421.158	9.08
421.364	8.96
421.57	8.92
421.776	8.94
421.982	9.07
422.187	9.02
422.393	9.07
422.599	9.06
422.805	8.96
423.01	9.11
423.216	9.02
423.422	9.06
423.628	9.08
423.833	9.16
424.039	9.09
424.245	9.08
424.45	9.15
424.656	9.03
424.862	9.08
425.067	9.05
425.273	8.88
425.478	8.86
425.684	8.8
425.889	8.81
426.095	8.89
426.301	8.78
426.506	8.73
426.712	8.59
426.917	8.8
427.123	8.61
427.328	8.73
427.533	8.77
427.739	8.93
427.944	8.95
428.15	8.86
428.355	8.62
428.561	8.81
428.766	8.84
428.971	8.99
429.177	8.82
429.382	9.02
429.587	8.69
429.793	8.65
429.998	8.84
430.203	8.77
430.408	9.08
430.614	8.82
430.819	8.65
431.024	8.58
431.229	8.54
431.434	8.48
431.64	8.42
431.845	8.43
432.05	8.3
432.255	8.05
432.46	8.1
432.665	7.72
432.87	7.81
433.076	7.83
433.281	7.77
433.486	7.72
433.691	7.68
433.896	7.7
434.101	7.92
434.306	8.09
434.511	8.18
434.716	8.28
434.921	8.44
435.126	8.58
435.331	8.5
435.535	8.65
435.74	8.7
435.945	8.67
436.15	8.55
436.355	8.36
436.56	8.3
436.765	8.22
436.97	8.11
437.174	8.24
437.379	8.2
437.584	8.37
437.789	8.36
437.993	8.4
438.198	8.42
438.403	8.46
438.608	8.43
438.812	8.65
439.017	8.54
439.222	8.61
439.426	8.53
439.631	8.5
439.836	8.39
440.04	8.39
440.245	8.29
440.45	8.42
440.654	8.34
440.859	8.5
441.063	8.25
441.268	8.22
441.472	8.13
441.677	8.22
441.881	8.33
442.086	8.47
442.29	8.18
442.495	8.4
442.699	8.34
442.904	8.5
443.108	8.18
443.312	8.22
443.517	8.28
443.721	8.2
443.925	8.17
444.13	8.07
444.334	7.96
444.538	8.25
444.743	7.97
444.947	7.96
445.151	7.95
445.356	8.32
445.56	8.28
445.764	8.41
445.968	8.53
446.173	8.46
446.377	8.36
446.581	8.28
446.785	8.1
446.989	8.15
447.193	8.13
447.398	8.2
447.602	8.1
447.806	8.16
448.01	8.03
448.214	8.07
448.418	7.79
448.622	7.8
448.826	7.73
449.03	7.87
449.234	7.98
449.438	8.02
449.642	7.65
449.846	7.31
450.05	7.18
450.254	7.27
450.458	6.93
450.662	7.28
450.866	7.23
451.069	7.56
451.273	7.43
451.477	7.45
451.681	7.34
451.885	7.68
452.089	7.77
452.292	7.93
452.496	7.8
452.7	7.93
452.904	7.95
453.107	7.94
453.311	7.79
453.515	7.91
453.719	7.62
453.922	7.48
454.126	7.32
454.33	7.4
454.533	7.17
454.737	7.16
454.94	7.23
455.144	7.08
455.348	7.25
455.551	7.21
455.755	7.17
455.958	7.31
456.162	7.45
456.365	7.47
456.569	7.55
456.772	7.74
456.976	7.84
457.179	7.8
457.383	7.76
457.586	7.69
457.79	7.85
457.993	7.94
458.196	7.89
458.4	7.93
458.603	7.79
458.807	7.71
459.01	7.7
459.213	7.76
459.417	7.83
459.62	7.77
459.823	7.72
460.026	7.54
460.23	7.47
460.433	7.56
460.636	7.66
460.839	7.67
461.042	7.73
461.246	7.7
461.449	7.49
461.652	7.29
461.855	7.38
462.058	7.31
462.261	7.52
462.464	7.42
462.668	7.39
462.871	7.27
463.074	7.5
463.277	7.49
463.48	7.37
463.683	7.43
463.886	7.46
464.089	7.23
464.292	7.47
464.495	7.34
464.698	7.35
464.901	7.19
465.104	7.16
465.306	6.99
465.509	6.91
465.712	7.06
465.915	7.29
466.118	7.34
466.321	7.28
466.524	7.15
466.726	7.18
466.929	7.18
467.132	7.33
467.335	7.33
467.538	7.52
467.74	7.57
467.943	7.52
468.146	7.52
468.348	7.68
468.551	7.99
468.754	8.01
468.956	8.11
469.159	8.12
469.362	8.14
469.564	8.1
469.767	8.09
469.969	8.07
470.172	8.22
470.375	8.04
470.577	8.03
470.78	7.88
470.982	8.02
471.185	7.91
471.387	7.91
471.59	7.91
471.792	8
471.995	7.92
472.197	7.81
472.399	7.55
472.602	7.49
472.804	7.39
473.007	7.35
473.209	7.37
473.411	7.17
473.614	7.21
473.816	7.21
474.018	7.08
474.22	7.05
474.423	7.12
474.625	7.31
474.827	7.48
475.03	7.45
475.232	7.6
475.434	7.71
475.636	8.07
475.838	8.02
476.04	8.05
476.243	8.09
476.445	8.03
476.647	8.28
476.849	8.28
477.051	8.15
477.253	8.08
477.455	7.97
477.657	7.82
477.859	7.8
478.061	7.9
478.263	7.8
478.465	7.81
478.667	7.95
478.869	7.75
479.071	7.65
479.273	7.71
479.475	7.87
479.677	7.88
479.879	7.72
480.081	7.53
480.283	7.41
480.485	7.42
480.686	7.47
480.888	7.52
481.09	7.65
481.292	7.77
481.494	7.78
481.695	7.68
481.897	7.83
482.099	7.9
482.301	7.98
482.502	8.13
482.704	8.14
482.906	8.18
483.107	8.15
483.309	8.15
483.511	8.16
483.712	8.18
483.914	8.2
484.115	8.18
484.317	8.24
484.519	8.21
484.72	8.09
484.922	8.11
485.123	8.05
485.325	8.01
485.526	8
485.728	8
485.929	7.98
486.131	7.98
486.332	7.98
486.534	7.91
486.735	7.93
486.936	8.07
487.138	8.08
487.339	8.04
487.541	8.19
487.742	8.23
487.943	8.14
488.144	8.22
488.346	8.22
488.547	8.18
488.748	8.21
488.95	8.23
489.151	8.16
489.352	8.06
489.553	8.17
489.755	8.06
489.956	7.97
490.157	8
490.358	7.87
490.559	7.9
490.76	7.87
490.961	7.88
491.163	7.94
491.364	7.94
491.565	8.08
491.766	8.12
491.967	8.11
492.168	8.15
492.369	8.17
492.57	8.14
492.771	8.06
492.972	8.09
493.173	8.02
493.374	7.98
493.575	8.05
493.776	7.98
493.976	7.88
494.177	7.69
494.378	7.69
494.579	7.75
494.78	7.8
494.981	7.95
495.182	8.01
495.382	8.16
495.583	8.13
495.784	8
495.985	7.89
496.185	7.88
496.386	8.09
496.587	8.05
496.788	8
496.988	8.05
497.189	7.93
497.39	8.05
497.59	8.07
497.791	8.01
497.992	8.26
498.192	8.3
498.393	8.33
498.593	8.36
498.794	8.15
498.994	8.17
499.195	8.08
499.395	8.22
499.596	8.22
499.796	8.25
499.997	8.45
500.197	8.37
500.398	8.46
500.598	8.55
500.799	8.52
500.999	8.7
501.199	8.67
501.4	8.82
501.6	8.82
501.801	8.63
502.001	8.53
502.201	8.43
502.402	8.5
502.602	8.51
502.802	8.33
503.002	8.52
503.203	8.7
503.403	8.67
503.603	8.57
503.803	8.64
504.003	8.62
504.204	8.58
504.404	8.61
504.604	8.66
504.804	8.6
505.004	8.75
505.204	8.56
505.404	8.56
505.604	8.72
505.804	8.8
506.005	8.74
506.205	9.06
506.405	9.22
506.605	9.44
506.805	9.25
507.005	9.34
507.204	9.49
507.404	9.6
507.604	9.54
507.804	9.57
508.004	9.56
508.204	9.65
508.404	9.45
508.604	9.72
508.804	9.67
509.003	9.92
509.203	9.96
509.403	9.97
509.603	9.99
509.803	10.12
510.002	10.1
510.202	10.31
510.402	10.43
510.602	10.53
510.801	10.49
511.001	10.34
511.201	10.37
511.4	10.5
511.6	10.57
511.8	10.76
511.999	10.76
512.199	10.82
512.398	10.78
512.598	10.8
512.797	10.93
512.997	10.88
513.197	11.16
513.396	11.16
513.596	11.19
513.795	11.29
513.994	11.22
514.194	11.29
514.393	11.54
514.593	11.62
514.792	11.71
514.992	11.9
515.191	11.95
515.39	12.01
515.59	12.2
515.789	12.33
515.988	12.38
516.188	12.59
516.387	12.75
516.586	12.82
516.786	13.05
516.985	13
517.184	13.06
517.383	13.21
517.582	13.21
517.782	13.36
517.981	13.42
518.18	13.54
518.379	13.75
518.578	13.81
518.777	13.78
518.976	13.79
519.176	13.96
519.375	14.14
519.574	14.31
519.773	14.39
519.972	14.4
520.171	14.52
520.37	14.54
520.569	14.52
520.768	14.63
520.967	14.8
521.166	14.94
521.365	15.06
521.564	14.98
521.762	15.01
521.961	15.18
522.16	15.25
522.359	15.53
522.558	15.67
522.757	15.7
522.956	15.84
523.154	16.11
523.353	16.24
523.552	16.42
523.751	16.67
523.949	16.87
524.148	16.99
524.347	17.05
524.546	16.9
524.744	17.14
524.943	17.3
525.142	17.41
525.34	17.57
525.539	17.62
525.737	17.77
525.936	17.81
526.135	17.89
526.333	18.01
526.532	18.2
526.73	18.51
526.929	18.47
527.127	18.62
527.326	18.78
527.524	18.83
527.723	19.02
527.921	19.06
528.12	19.22
528.318	19.33
528.516	19.47
528.715	19.55
528.913	19.61
529.112	19.75
529.31	19.79
529.508	19.86
529.707	19.95
529.905	20.07
530.103	20.2
530.301	20.25
530.5	20.35
530.698	20.39
530.896	20.56
531.094	20.68
531.293	20.79
531.491	20.89
531.689	21.02
531.887	20.97
532.085	21.12
532.283	21.21
532.481	21.33
532.68	21.4
532.878	21.54
533.076	21.64
533.274	21.65
533.472	21.64
533.67	21.82
533.868	21.88
534.066	22.06
534.264	22.07
534.462	22.07
534.66	22.16
534.858	22.24
535.056	22.3
535.253	22.32
535.451	22.53
535.649	22.83
535.847	22.8
536.045	22.93
536.243	22.99
536.441	23.24
536.638	23.39
536.836	23.48
537.034	23.45
537.232	23.46
537.43	23.57
537.627	23.6
537.825	23.56
538.023	23.66
538.22	23.66
538.418	23.81
538.616	23.81
538.813	24.06
539.011	24.14
539.209	24.41
539.406	24.64
539.604	24.86
539.801	25.07
539.999	25.34
540.196	25.52
540.394	25.81
540.591	26.02
540.789	26.11
540.986	26.23
541.184	26.43
541.381	26.58
541.579	26.62
541.776	26.66
541.974	26.71
542.171	26.73
542.368	26.91
542.566	26.91
542.763	26.95
542.96	27
543.158	26.97
543.355	27.1
543.552	27.2
543.75	27.35
543.947	27.55
544.144	27.7
544.341	27.91
544.539	28.1
544.736	28.44
544.933	28.66
545.13	28.8
545.327	28.98
545.524	29.06
545.722	29.11
545.919	29.36
546.116	29.32
546.313	29.39
546.51	29.22
546.707	29.07
546.904	28.91
547.101	28.85
547.298	28.79
547.495	28.81
547.692	28.73
547.889	28.7
548.086	28.49
548.283	28.42
548.48	28.32
548.677	28.4
548.874	28.45
549.07	28.39
549.267	28.46
549.464	28.58
549.661	28.53
549.858	28.5
550.055	28.49
550.251	28.56
550.448	28.48
550.645	28.65
550.842	28.6
551.038	28.48
551.235	28.69
551.432	28.44
551.628	28.49
551.825	28.36
552.022	28.37
552.218	28.4
552.415	28.38
552.612	28.37
552.808	28.21
553.005	28.33
553.201	28.45
553.398	28.33
553.594	28.48
553.791	28.5
553.987	28.59
554.184	28.57
554.38	28.67
554.577	28.86
554.773	29.17
554.97	29.2
555.166	29.14
555.362	29.32
555.559	29.4
555.755	29.56
555.952	29.47
556.148	29.54
556.344	29.81
556.541	29.82
556.737	29.67
556.933	29.55
557.129	29.58
557.326	29.78
557.522	29.63
557.718	29.47
557.914	29.53
558.11	29.92
558.307	29.95
558.503	29.79
558.699	29.84
558.895	29.9
559.091	30.09
559.287	30.21
559.483	30.32
559.679	30.37
559.876	30.45
560.072	30.33
560.268	30.11
560.464	30.36
560.66	30.38
560.856	30.48
561.052	30.58
561.247	30.63
561.443	30.66
561.639	30.87
561.835	30.91
562.031	31.22
562.227	31.12
562.423	31.21
562.619	31.25
562.815	31.48
563.01	31.42
563.206	31.45
563.402	31.29
563.598	31.26
563.793	31.08
563.989	31.27
564.185	31.2
564.381	31.32
564.576	31.43
564.772	31.22
564.968	31.05
565.163	31.04
565.359	31.25
565.555	31.31
565.75	31.44
565.946	31.48
566.141	31.49
566.337	31.54
566.532	31.58
566.728	31.52
566.923	31.6
567.119	31.65
567.314	31.54
567.51	31.35
567.705	31.29
567.901	31.24
568.096	31.3
568.292	31.3
568.487	31.35
568.682	31.45
568.878	31.56
569.073	31.63
569.268	31.76
569.464	31.83
569.659	31.75
569.854	32.13
570.05	32.4
570.245	32.57
570.44	32.54
570.635	32.56
570.831	32.54
571.026	32.38
571.221	32.27
571.416	32.14
571.611	32.32
571.806	32.44
572.002	32.29
572.197	32.26
572.392	32.13
572.587	32.07
572.782	32.01
572.977	32.05
573.172	32.23
573.367	32.26
573.562	32.35
573.757	32.25
573.952	32.26
574.147	32.26
574.342	32.27
574.537	32.26
574.732	32.61
574.927	32.52
575.121	32.47
575.316	32.47
575.511	32.72
575.706	32.8
575.901	32.99
576.096	33.1
576.29	33.23
576.485	33.18
576.68	33.29
576.875	33.21
577.069	33.22
577.264	33.43
577.459	33.44
577.654	33.52
577.848	33.66
578.043	33.78
578.238	33.9
578.432	33.8
578.627	34
578.821	33.99
579.016	33.62
579.21	33.89
579.405	33.73
579.6	33.62
579.794	33.65
579.989	33.68
580.183	33.37
580.378	33.36
580.572	33.43
580.766	33.26
580.961	33.19
581.155	33.43
581.35	33.57
581.544	33.55
581.738	33.62
581.933	33.46
582.127	33.4
582.321	33.65
582.516	33.29
582.71	33.31
582.904	33.24
583.099	33.41
583.293	33.49
583.487	33.41
583.681	33.46
583.875	33.54
584.07	33.5
584.264	33.57
584.458	33.49
584.652	33.73
584.846	33.85
585.04	33.86
585.234	34.09
585.428	34.15
585.623	34.15
585.817	34.3
586.011	34.19
586.205	34.24
586.399	34.14
586.593	34.12
586.787	34.34
586.981	34.39
587.174	34.5
587.368	34.04
587.562	34.06
587.756	34.01
587.95	34.09
588.144	34.43
588.338	34.41
588.532	34.42
588.725	34.74
588.919	34.94
589.113	34.67
589.307	34.99
589.501	35.34
589.694	35.38
589.888	35.54
590.082	35.42
590.275	35.42
590.469	35.37
590.663	35.35
590.856	35.23
591.05	34.96
591.244	35.4
591.437	35.31
591.631	35.1
591.824	35.08
592.018	35.13
592.212	34.97
592.405	35.02
592.599	34.98
592.792	34.88
592.986	34.92
593.179	34.98
593.372	34.47
593.566	34.54
593.759	34.46
593.953	34.68
594.146	34.38
594.339	34.57
594.533	34.4
594.726	34.77
594.92	34.86
595.113	34.75
595.306	34.59
595.499	34.97
595.693	34.77
595.886	34.89
596.079	34.9
596.272	35.13
596.466	35.02
596.659	35.14
596.852	35.06
597.045	35.36
597.238	35.43
597.431	35.66
597.624	35.44
597.818	35.67
598.011	35.51
598.204	35.42
598.397	35.49
598.59	35.71
598.783	35.65
598.976	35.7
599.169	35.66
599.362	35.63
599.555	35.58
599.748	35.69
599.941	35.42
600.134	35.47
600.326	35.21
600.519	34.88
600.712	34.89
600.905	34.73
601.098	34.3
601.291	33.59
601.483	33.3
601.676	33.33
601.869	33.45
602.062	33.61
602.255	33.92
602.447	34.11
602.64	34.26
602.833	34.29
603.025	34.25
603.218	34.4
603.411	34.85
603.603	35.2
603.796	35.08
603.989	35.15
604.181	35.11
604.374	35.31
604.566	35.42
604.759	35.47
604.951	35.33
605.144	35.44
605.336	35.49
605.529	35.49
605.721	35.52
605.914	35.59
606.106	35.53
606.299	35.53
606.491	35.11
606.683	34.89
606.876	34.76
607.068	34.89
607.26	34.97
607.453	35.11
607.645	35.23
607.837	35.18
608.03	35.58
608.222	35.96
608.414	36.22
608.606	36.61
608.799	37.04
608.991	37.61
609.183	38.22
609.375	39
609.567	39.71
609.759	40.48
609.952	41.55
610.144	42.38
610.336	43.29
610.528	44.43
610.72	45.55
610.912	46.62
611.104	47.42
611.296	48
611.488	48.23
611.68	48.43
611.872	48.54
612.064	48.39
612.256	47.81
612.448	47.09
612.64	46.17
612.832	45.28
613.023	44.27
613.215	43.39
613.407	42.45
613.599	41.88
613.791	41.35
613.983	40.77
614.174	40.23
614.366	39.94
614.558	39.6
614.75	39.47
614.941	39.17
615.133	39.01
615.325	38.68
615.516	38.59
615.708	38.38
615.9	37.98
616.091	37.75
616.283	37.34
616.475	37.33
616.666	37.11
616.858	36.61
617.049	36.29
617.241	36.05
617.432	36.11
617.624	36.13
617.815	35.81
618.007	35.85
618.198	35.86
618.39	35.51
618.581	35.32
618.773	35.34
618.964	35.52
619.155	35.85
619.347	36.05
619.538	35.96
619.729	35.87
619.921	35.92
620.112	35.97
620.303	35.78
620.494	35.88
620.686	35.96
620.877	35.95
621.068	36.09
621.259	35.93
621.451	36.11
621.642	36.11
621.833	35.94
622.024	36.19
622.215	36.33
622.406	36.6
622.597	36.74
622.788	36.61
622.98	36.46
623.171	36.63
623.362	36.86
623.553	36.58
623.744	36.75
623.935	36.89
624.126	36.9
624.317	36.6
624.508	36.73
624.698	36.97
624.889	36.82
625.08	37.06
625.271	37.13
625.462	36.75
625.653	37
625.844	36.79
626.034	36.77
626.225	36.75
626.416	36.76
626.607	36.63
626.798	36.32
626.988	36.72
627.179	36.66
627.37	36.83
627.56	37.13
627.751	37.06
627.942	37.22
628.132	37.28
628.323	37.39
628.514	37.49
628.704	37.73
628.895	37.86
629.085	37.68
629.276	37.94
629.466	37.64
629.657	37.6
629.847	37.67
630.038	37.72
630.228	37.75
630.419	37.68
630.609	37.85
630.8	37.43
630.99	37.6
631.181	37.41
631.371	37.24
631.561	37.3
631.752	37.41
631.942	37.36
632.132	37.19
632.323	36.92
632.513	36.72
632.703	36.38
632.893	36.41
633.084	36.14
633.274	35.96
633.464	36.02
633.654	35.8
633.844	35.6
634.034	35.19
634.225	35.29
634.415	35.22
634.605	35.09
634.795	35.24
634.985	35.37
635.175	35.76
635.365	35.92
635.555	35.84
635.745	35.86
635.935	35.58
636.125	35.53
636.315	35.53
636.505	35.61
636.695	36.01
636.885	36.01
637.075	35.73
637.265	35.77
637.455	35.67
637.644	35.71
637.834	35.54
638.024	35.75
638.214	36.32
638.404	36.28
638.593	36.38
638.783	36.05
638.973	36.1
639.163	36.33
639.352	36.03
639.542	35.99
639.732	35.96
639.921	35.82
640.111	35.57
640.301	35.09
640.49	34.94
640.68	34.9
640.87	35.04
641.059	35.07
641.249	35.36
641.438	35.55
641.628	35.87
641.817	35.85
642.007	36.2
642.196	36.73
642.386	37.13
642.575	36.73
642.764	36.91
642.954	36.92
643.143	36.94
643.333	36.72
643.522	36.51
643.711	36.32
643.901	36.66
644.09	36.78
644.279	36.3
644.469	36.03
644.658	36.61
644.847	36.69
645.036	36.47
645.226	36.47
645.415	36.36
645.604	36.23
645.793	36
645.982	35.65
646.171	35.46
646.361	35.72
646.55	35.81
646.739	35.39
646.928	35.07
647.117	35.48
647.306	35.47
647.495	35.24
647.684	35.45
647.873	35.72
648.062	35.6
648.251	35.61
648.44	35.71
648.629	36.03
648.818	36.49
649.007	36.97
649.196	36.93
649.384	36.69
649.573	37.35
649.762	37.26
649.951	37.29
650.14	37.18
650.328	37.06
650.517	36.97
650.706	36.29
650.895	36.18
651.083	35.97
651.272	35.66
651.461	36.11
651.65	35.4
651.838	35.75
652.027	35.59
652.216	35.8
652.404	36.05
652.593	36.15
652.781	36.74
652.97	36.29
653.158	36.24
653.347	36.57
653.535	36.11
653.724	36.54
653.912	35.88
654.101	36.47
654.289	36.26
654.478	36.53
654.666	36.06
654.855	36.08
655.043	36.67
655.231	36.65
655.42	36.46
655.608	36.57
655.796	36.58
655.985	37.13
656.173	36.73
656.361	36.81
656.55	36.62
656.738	36.9
656.926	36.85
657.114	36.57
657.302	36.41
657.491	36.35
657.679	36.31
657.867	36.3
658.055	35.97
658.243	36.06
658.431	35.96
658.619	35.94
658.807	36.28
658.996	36.08
659.184	36.2
659.372	36.33
659.56	36.46
659.748	36.47
659.936	36.42
660.124	36.57
660.311	36.56
660.499	37.09
660.687	37.01
660.875	36.55
661.063	36.54
661.251	36.99
661.439	36.84
661.627	36.79
661.814	37.1
662.002	36.83
662.19	36.6
662.378	36.62
662.565	36.34
662.753	36.18
662.941	36.51
663.129	36.54
663.316	36.03
663.504	36.36
663.692	35.95
663.879	35.35
664.067	35.49
664.254	35.73
664.442	35.89
664.63	35.69
664.817	35.92
665.005	35.76
665.192	35.67
665.38	35.97
665.567	35.74
665.755	36.33
665.942	36.71
666.13	36.29
666.317	36.15
666.504	35.43
666.692	35.35
666.879	35.8
667.067	36
667.254	35.97
667.441	36.06
667.629	36.33
667.816	36.54
668.003	36.3
668.19	36.89
668.378	37.2
668.565	37.62
668.752	37.63
668.939	37.33
669.127	36.8
669.314	36.61
669.501	36.31
669.688	36.59
669.875	36.23
670.062	36.52
670.249	36.42
670.436	36.35
670.623	36.37
670.81	36.4
670.997	36.15
671.184	36.59
671.371	37.05
671.558	36.81
671.745	36.43
671.932	36.3
672.119	36.02
672.306	36.09
672.493	36.3
672.68	36.65
672.867	36.64
673.054	36.5
673.24	36.34
673.427	36.37
673.614	36.83
673.801	36.52
673.988	36.28
674.174	36.62
674.361	36.72
674.548	36.49
674.734	36.18
674.921	36.1
675.108	36.13
675.294	36.38
675.481	35.94
675.668	35.75
675.854	36.14
676.041	36.46
676.227	36.39
676.414	35.97
676.601	35.73
676.787	35.67
676.974	35.62
677.16	35.85
677.347	35.7
677.533	36.21
677.719	36.41
677.906	36.13
678.092	35.97
678.279	36.12
678.465	36.26
678.651	36.18
678.838	36.14
679.024	36.72
679.21	36.43
679.397	36.9
679.583	36.52
679.769	36.34
679.955	36.75
680.142	37.06
680.328	37.19
680.514	36.96
680.7	37.13
680.886	37.45
681.073	37.32
681.259	37.14
681.445	36.55
681.631	36.62
681.817	36.25
682.003	35.93
682.189	35.65
682.375	35.53
682.561	35.85
682.747	36.09
682.933	35.71
683.119	35.35
683.305	35.66
683.491	35.8
683.677	35.77
683.863	36.47
684.049	36.56
684.235	36.87
684.42	36.42
684.606	36.76
684.792	36.57
684.978	36.56
685.164	36.97
685.349	37.09
685.535	37.69
685.721	38.31
685.907	38.05
686.092	38.41
686.278	38.53
686.464	38.76
686.649	38.07
686.835	38.75
687.021	38.99
687.206	38.95
687.392	38.64
687.577	38.21
687.763	38.43
687.948	38.2
688.134	37.62
688.319	37.2
688.505	37.15
688.69	37.22
688.876	36.28
689.061	36.6
689.247	36.5
689.432	36.9
689.618	36.44
689.803	35.48
689.988	35.64
690.174	36.01
690.359	35.93
690.544	35.76
690.73	35.88
690.915	36.02
691.1	35.66
691.285	34.95
691.471	34.72
691.656	35.47
691.841	35.73
692.026	35.59
692.211	35.31
692.396	35.68
692.582	36.1
692.767	36.4
692.952	36.58
693.137	36.41
693.322	37.07
693.507	36.72
693.692	36.21
693.877	36.45
694.062	36.43
694.247	37.24
694.432	37.21
694.617	36.88
694.802	36.64
694.987	36.78
695.172	36.94
695.357	36.85
695.541	37.03
695.726	37.19
695.911	37.23
696.096	37.66
696.281	37.33
696.466	37.64
696.65	37.92
696.835	37.65
697.02	37.41
697.204	36.91
697.389	36.98
697.574	37.19
697.759	37.65
697.943	37.4
698.128	37.44
698.312	36.92
698.497	36.82
698.682	36.66
698.866	37
699.051	36.88
699.235	37.03
699.42	37.1
699.604	37.28
699.789	36.81
699.973	36.5
700.158	36.59
700.342	36.92
700.527	36.75
700.711	36.84
700.895	36.56
701.08	36.7
701.264	36.65
701.448	37
701.633	36.72
701.817	36.49
702.001	36.54
702.186	36.13
702.37	35.87
702.554	35.8
702.738	36.18
702.923	36.1
703.107	36.08
703.291	36.17
703.475	35.21
703.659	35.42
703.843	35.7
704.027	36.43
704.212	36.31
704.396	35.55
704.58	35.35
704.764	34.45
704.948	34.36
705.132	34.51
705.316	35.35
705.5	35.43
705.684	35.37
705.868	35.78
706.052	35.03
706.235	35.14
706.419	35.86
706.603	36.24
706.787	36.74
706.971	37.4
707.155	37.31
707.339	36.67
707.522	37.51
707.706	37.03
707.89	36.08
708.074	36.9
708.257	37.29
708.441	37.42
708.625	37.08
708.808	37.31
708.992	37.02
709.176	36.53
709.359	35.94
709.543	35.24
709.727	35.48
709.91	36.13
710.094	35.55
710.277	35.14
710.461	35.08
710.644	35.14
710.828	34.39
711.011	34.69
711.195	34.7
711.378	34.86
711.562	34.84
711.745	35.19
711.928	35.5
712.112	35.8
712.295	35.66
712.478	36.02
712.662	36.1
712.845	35.77
713.028	35.18
713.212	34.85
713.395	34.86
713.578	35.05
713.761	34.71
713.945	34.35
714.128	34.07
714.311	34.18
714.494	34.21
714.677	33.97
714.86	35.27
715.043	35.34
715.227	36.02
715.41	36.26
715.593	36.17
715.776	36.39
715.959	36.65
716.142	36.07
716.325	35.66
716.508	35.44
716.691	35.89
716.874	35.21
717.057	35.6
717.239	35.6
717.422	36.15
717.605	36.36
717.788	36.33
717.971	35.17
718.154	35.52
718.337	35.5
718.519	35.3
718.702	34.67
718.885	35.44
719.068	34.75
719.25	34.18
719.433	32.69
719.616	31.68
719.798	31.05
719.981	31.32
720.164	31.79
720.346	32.82
720.529	32.91
720.712	32.49
720.894	31.74
721.077	31.91
721.259	32.1
721.442	32.94
721.624	34.2
721.807	34.84
721.989	35.84
722.172	35.38
722.354	34.43
722.537	34.45
722.719	34.56
722.901	35.23
723.084	36.3
723.266	36.64
723.448	35.85
723.631	35.66
723.813	35.93
723.995	34.43
724.178	35.11
724.36	36.29
724.542	36.38
724.724	36.67
724.907	35.88
725.089	35.59
725.271	35.06
725.453	36.09
725.635	35.57
725.817	34.76
725.999	35.56
726.181	34.64
726.364	33.87
726.546	33.54
726.728	34.09
726.91	34.03
727.092	33.53
727.274	33.45
727.456	33.17
727.638	33.03
727.819	33.11
728.001	34.02
728.183	34.37
728.365	34.85
728.547	34.98
728.729	33.66
728.911	33.66
729.093	33.68
729.274	34.39
729.456	33.87
729.638	34.02
729.82	34.14
730.001	34.31
730.183	35.63
730.365	35.39
730.546	35.7
730.728	37.17
730.91	38.05
731.091	37.27
731.273	37.5
731.455	38.02
731.636	38.12
731.818	38.7
731.999	38.39
732.181	37.22
732.362	37.29
732.544	37.07
732.725	36.36
732.907	35.87
733.088	36.81
733.27	35.63
733.451	35.6
733.633	35.63
733.814	34.97
733.995	34.12
734.177	33.23
734.358	33.63
734.539	32.92
734.721	33.29
734.902	33.12
735.083	32.8
735.264	33.49
735.446	34.91
735.627	34.6
735.808	35.65
735.989	34.97
736.17	36.61
736.351	35.32
736.533	35.93
736.714	35.4
736.895	35.02
737.076	35.4
737.257	35.16
737.438	33.99
737.619	33.66
737.8	33.03
737.981	34.02
738.162	33.87
738.343	34.45
738.524	34.3
738.705	34.39
738.886	33.77
739.067	33.41
739.247	33.7
739.428	33.24
739.609	34.32
739.79	34.44
739.971	35.35
740.151	34.62
740.332	33.89
740.513	33.99
740.694	35.43
740.874	36.84
741.055	36.3
741.236	37.11
741.417	37.4
741.597	37.44
741.778	36.97
741.958	35.77
742.139	35.72
742.32	36.23
742.5	36.67
742.681	35.77
742.861	34.43
743.042	34.02
743.222	33.84
743.403	32.96
743.583	32.42
743.764	31.41
743.944	31.19
744.124	31.85
744.305	31.97
744.485	32.42
744.666	32.22
744.846	32.6
745.026	33.1
745.207	31.95
745.387	32.5
745.567	31.96
745.747	32.27
745.928	33.37
746.108	33.34
746.288	33.65
746.468	32.87
746.648	33.08
746.829	32.55
747.009	33.31
747.189	34.27
747.369	34.28
747.549	35.26
747.729	34.99
747.909	34.66
748.089	34.5
748.269	33.21
748.449	32.42
748.629	31.87
748.809	33.54
748.989	32.88
749.169	32.52
749.349	31.96
749.529	32.06
749.709	32.88
749.889	32.6
750.068	32.33
750.248	33.28
750.428	34
750.608	35.03
750.788	33.86
750.967	32.9
751.147	32.34
751.327	33.36
751.507	32.75
751.686	32.36
751.866	32.59
752.046	32.73
752.225	32.68
752.405	32.67
752.585	32.49
752.764	32.83
752.944	34.32
753.123	34.98
753.303	34.92
753.482	33.52
753.662	33.94
753.841	33.79
754.021	33.02
754.2	33.79
754.38	33.64
754.559	33.17
754.739	33.65
754.918	33.72
755.097	32.96
755.277	32.66
755.456	33.94
755.635	33.59
755.815	32.67
755.994	33.81
756.173	32.51
756.352	33.18
756.532	34.25
756.711	33.74
756.89	33.01
757.069	33.72
757.248	33.53
757.427	33.63
757.607	32.99
757.786	34.9
757.965	35.43
758.144	36.03
758.323	35.53
758.502	35.97
758.681	36.34
758.86	36.68
759.039	36
759.218	35.41
759.397	36.07
759.576	37.05
759.755	35.59
759.934	35.05
760.113	34.49
760.291	34.36
760.47	33.11
760.649	31.64
760.828	31.29
761.007	31.13
761.186	33.05
761.364	32.96
761.543	33.13
761.722	34.4
761.901	34.76
762.079	34.98
762.258	35.32
762.437	34.93
762.615	35.36
762.794	36.6
762.972	37
763.151	36.44
763.33	36.68
763.508	36.39
763.687	35.79
763.865	34.93
764.044	35
764.222	34.53
764.401	34.37
764.579	36.04
764.758	35.18
764.936	35.59
765.114	36.05
765.293	35.55
765.471	35.71
765.65	35.58
765.828	35.96
766.006	36.65
766.184	37
766.363	38.01
766.541	37.45
766.719	38.8
766.898	39.07
767.076	37.64
767.254	37.29
767.432	37.37
767.61	37.5
767.788	36.29
767.967	35.66
768.145	35.37
768.323	34.61
768.501	33.19
768.679	31.81
768.857	30.2
769.035	31.8
769.213	32.1
769.391	31.69
769.569	32.64
769.747	33.74
769.925	32.5
770.103	32.49
770.281	31.31
770.459	31.3
770.636	32.24
770.814	34.13
770.992	33.26
771.17	32.39
771.348	31.92
771.525	31.52
771.703	30.21
771.881	32.15
772.059	32.64
772.236	33.52
772.414	32.34
772.592	30.09
772.769	28.87
772.947	29.19
773.125	30.76
773.302	31.35
773.48	30.58
773.657	33.13
773.835	32.91
774.013	32.09
774.19	31.06
774.368	33
774.545	33.34
774.723	31.4
774.9	28.63
775.077	24.89
775.255	24.26
775.432	22.65
775.61	22.16
775.787	18.37
775.964	18.39
776.142	18.11
776.319	17.85
776.496	18.12
776.674	18.75
776.851	21.25
777.028	23.54
777.205	23.18
777.382	22.06
777.56	20.81
777.737	22.64
777.914	21.77
778.091	22.62
778.268	20.39
778.445	19.87
778.622	20.34
778.8	21.94
778.977	23.91
779.154	23.39
779.331	24.23
779.508	25.11
779.685	25.34
779.862	25.4
780.038	25.91
780.215	28.46
780.392	28.9
780.569	26.58
780.746	26.05
780.923	23.88
781.1	24.18
781.277	25.9
781.453	27.61
781.63	29.7
781.807	30.75
781.984	31.93
782.16	30.19
782.337	30.76
782.514	33.29
782.691	29.99
782.867	29.34
783.044	29.88
783.221	28.56
783.397	26.77
783.574	22.73
783.75	25.05
783.927	24.81
784.103	26.51
784.28	27.31
784.456	29.88
784.633	32.68
784.809	34.74
784.986	34.82
785.162	35.87
785.339	37.79
785.515	39.93
785.692	38.43
785.868	34.36
786.044	31.76
786.221	29.93
786.397	26.49
786.573	24.99
786.749	26.22
786.926	28.3
787.102	26.33
787.278	25.11
787.454	23.03
787.631	20.54
787.807	23.53
787.983	25.02
788.159	25.8
788.335	25.78
788.511	29.25
788.687	28.18
788.863	28.76
789.039	31.52
789.216	30.23
789.392	30.91
789.568	31.58
789.744	30.21
789.919	30.8
790.095	32.97
790.271	32.54
790.447	28.16
790.623	27.08
790.799	25.42
790.975	23.99
791.151	23.34
791.327	27.32
791.502	27.32
791.678	28.36
791.854	26.31
792.03	23.65
792.205	26.29
792.381	27.75
792.557	30.73
792.733	30.76
792.908	32.39
793.084	34.07
793.259	31.44
793.435	32.93
793.611	33.75
793.786	34
793.962	33.31
794.137	34.13
794.313	35.52
794.488	33.06
794.664	33.98
794.839	31.23
795.015	30.54
795.19	30.65
795.366	28.55
795.541	27.94
795.716	29.77
795.892	30.82
796.067	29.97
796.242	30.08
796.418	25.9
796.593	23.66
796.768	24.38
796.944	25.19
797.119	25.57
797.294	26.28
797.469	27.42
797.644	25.84
797.82	23.72
797.995	22.23
798.17	22.21
798.345	25.09
798.52	26.39
798.695	28.09
798.87	28.36
799.045	28.6
799.22	29.77
799.395	29.55
799.57	31.93
799.745	32.14
799.92	33.95
800.095	34.48
800.27	34.15
800.445	32.3
800.62	32.15
800.795	30
800.97	29.35
801.145	27.75
801.319	25.6
801.494	24.09
801.669	24.46
801.844	24.23
802.018	25.64
802.193	26.41
802.368	26.58
802.543	26.8
802.717	27.91
802.892	27.9
803.067	28.74
803.241	32.21
803.416	33.12
803.59	31.29
803.765	29.04
803.94	23.65
804.114	23.32
804.289	22.55
804.463	21.89
804.638	21.17
804.812	19.76
804.986	23.22
805.161	22.71
805.335	23.03
805.51	27.42
805.684	27.89
805.858	31.21
806.033	30.73
806.207	32.49
806.381	30.43
806.556	31.85
806.73	33.91
806.904	30.42
807.078	28.19
807.253	28.4
807.427	27.28
807.601	27.54
807.775	24.6
807.949	25.75
808.123	24.98
808.298	29.02
808.472	27.27
808.646	22.49
808.82	22.83
808.994	21.5
809.168	17.85
809.342	15.11
809.516	14.43
809.69	13.65
809.864	12.65
810.038	15.35
810.212	8.99
810.385	10.57
810.559	13.22
810.733	11.51
810.907	12.44
811.081	12.45
811.255	11.27
811.428	9.92
811.602	11.54
811.776	12.86
811.95	13.58
812.123	16.68
812.297	14.61
812.471	15.57
812.644	14.1
812.818	17.6
812.992	15.54
813.165	14.26
813.339	15.76
813.512	17.71
813.686	20.71
813.86	21.1
814.033	19.81
814.207	23.15
814.38	22.21
814.554	26.92
814.727	22.82
814.9	23.97
815.074	26.5
815.247	25.68
815.421	27.97
815.594	24.16
815.767	23.27
815.941	24.68
816.114	20.92
816.287	22.31
816.46	19.65
816.634	14.57
816.807	13.36
816.98	14.25
817.153	18.51
817.327	17.17
817.5	15.59
817.673	12.35
817.846	7.52
818.019	13.24
818.192	14.56
818.365	16.57
818.538	24.13
818.711	24.57
818.884	25.89
819.057	16.74
819.23	11.85
819.403	12.73
819.576	12.96
819.749	20.29
819.922	17.45
820.095	16.89
820.268	15.02
820.441	13.74
820.614	18.02
820.786	19.31
820.959	24.31
821.132	25.19
821.305	26.64
821.477	29.42
821.65	29.78
821.823	31.3
821.996	31.76
822.168	33.11
822.341	33.83
822.514	34.25
822.686	34.63
822.859	35.59
823.031	36.6
823.204	36.53
823.376	36.17
823.549	36.03
823.722	35.99
823.894	36.38
824.067	36.95
824.239	36.44
824.411	36.61
824.584	36.67
824.756	35.55
824.929	35.08
825.101	35.32
825.273	35.13
825.446	35.5
825.618	35.64
825.79	35.78
825.963	34.19
826.135	34.57
826.307	33.87
826.479	33.08
826.652	33.51
826.824	33.67
826.996	33.66
827.168	32.97
827.34	31.52
827.512	30.8
827.684	29.89
827.856	30.35
828.029	30.58
828.201	31.68
828.373	31.75
828.545	31.81
828.717	30.9
828.889	29.95
829.061	31.63
829.232	32.31
829.404	31.96
829.576	31.82
829.748	30.95
829.92	30.53
830.092	27.31
830.264	25.4
830.436	25.2
830.607	23.79
830.779	24.04
830.951	23.5
831.123	22.67
831.294	22.62
831.466	22.71
831.638	21.21
831.809	19.6
831.981	23.01
832.153	24.08
832.324	22.26
832.496	23.13
832.667	22.4
832.839	20.6
833.011	20.25
833.182	18.46
833.354	16.64
833.525	21.26
833.697	24.54
833.868	22.19
834.039	24.22
834.211	27.44
834.382	29.61
834.554	31.39
834.725	32.71
834.896	32.32
835.068	34.37
835.239	33.28
835.41	32.26
835.581	31.54
835.753	32.78
835.924	31.72
836.095	30.16
836.266	30.57
836.438	29.3
836.609	27.09
836.78	28.22
836.951	26.66
837.122	31.08
837.293	29.74
837.464	30.12
837.635	27.25
837.806	29.58
837.977	25.93
838.148	18.06
838.319	15.46
838.49	15
838.661	12.88
838.832	12.44
839.003	8.18
839.174	2.89
839.345	-5.8
839.516	-9.75
839.687	-23.95
839.857	-8.98
840.028	3.04
840.199	4.98
840.37	6.6
840.54	13.62
840.711	16.23
840.882	8.67
841.053	16.17
841.223	21.12
841.394	30.38
841.564	35.48
841.735	28.44
841.906	25.55
842.076	25.85
842.247	22.09
842.417	10.98
842.588	12.11
842.758	15.95
842.929	8.16
843.099	2.47
843.27	-2.38
843.44	-4.58
843.611	-7.9
843.781	-18.4
843.951	-8.45
844.122	-3.98
844.292	1.55
844.462	-17.87
844.633	-11.71
844.803	0.43
844.973	7.1
845.144	-2.82
845.314	-10.24
845.484	-3.07
845.654	13.74
845.824	4.1
845.995	-7.52
846.165	-11.88
846.335	9.01
846.505	-5.22
846.675	-19.72
846.845	-26.57
847.015	-22.04
847.185	-11.41
847.355	-25.28
847.525	-19.23
847.695	-21.48
847.865	-29.01
848.035	-32.53
848.205	-43.27
848.375	-23.69
848.545	-25.61
848.715	-21.75
848.884	-25.56
849.054	-65.29
849.224	-52.45
849.394	-65.96
849.564	-59.16
849.733	-10.23
849.903	-15.57
850.073	-3.54
850.243	-10.53
850.412	-10.41
850.582	-26.11
850.752	-36.51
850.921	-8.46
851.091	-22.56
851.26	-22.44
851.43	-22.97
851.599	-59.05
851.769	-64.14
851.939	-71.18
852.108	-122.98
852.278	-116.89
852.447	-115.51
852.616	-89.79
852.786	-88.95
852.955	-76.02
853.125	-118.6
853.294	-133.25
853.463	-142.13
853.633	-160.97
853.802	-175.11
853.971	-120.87
854.141	-120
854.31	-146.04
854.479	-201.69
854.648	-228.91
854.818	-220.18
854.987	-141.25
855.156	-116.33
855.325	-81.67
855.494	-96.32
855.663	-119.02
855.832	-153.14
856.001	-135.82
856.171	-119.67
856.34	-85.13
856.509	-103.6
856.678	-123.72
856.847	-113.03
857.016	-125.1
857.185	-129.15
857.353	-75.11
857.522	-75.46
857.691	-54.16
857.86	-67.82
858.029	-47.87
858.198	-53.89
858.367	-48.75
858.535	-64.22
858.704	-85.54
858.873	-69.98
859.042	-62.46
859.21	-80.92
859.379	-62.32
859.548	-72.57
859.717	-71.88
859.885	-67.6
860.054	-52.76
860.222	-59.92
860.391	-34.51
860.56	-14.22
860.728	-18.6
860.897	-15.19
861.065	-18.46
861.234	-24.04
861.402	-21.99
861.571	-16.68
861.739	-32.85
861.908	-43.44
862.076	-29.66
862.244	-30.24
862.413	-51.51
862.581	-71.2
862.749	-141.35
862.918	-165.1
863.086	-176.97
863.254	-209.91
863.423	-419.91
863.591	-219.91
863.759	-426.44
863.927	-658.56
864.096	-3106.82
864.264	793.27
864.432	1360.65
864.6	-2232.65
864.768	-838.36
864.936	-344.8
865.104	-172.12
865.272	-100.52
865.44	-185.99
865.608	-90.75
865.776	-162.95
865.944	-123.82
866.112	-49.47
866.28	-41.39
866.448	-43.97
866.616	-38.67
866.784	-36.5
866.952	-59
867.12	-47.94
867.288	-26.63
867.455	-17.73
867.623	-0.31
867.791	-0.44
867.959	-15.7
868.127	-16.44
868.294	-19.06
868.462	-42.71
868.63	-61.06
868.797	-102.15
868.965	-268.26
869.133	-188.64
869.3	-271.73
869.468	-130.74
869.636	-99.24
869.803	-124.92
869.971	-105.76
870.138	-74.02
870.306	-60.91
870.473	-48.93
870.641	-39.38
870.808	-16.49
870.975	-35.43
871.143	-20.37
871.31	-35.23
871.478	-105.81
871.645	-20.46
871.812	-42.36
871.98	-48.55
872.147	-20.53
872.314	-36.49
872.482	-50.55
872.649	-66.94
872.816	-42.7
872.983	-149.15
873.15	-68.3
873.318	-52.13
873.485	-96.73
873.652	-45.67
873.819	-17.84
873.986	-24.27
874.153	-12.7
874.32	-15.99
874.487	-16.22
874.654	-30.64
874.821	-23.01
874.988	-23.87
875.155	-2.18
875.322	-0.12
875.489	-2.95
875.656	-28.7
875.823	-44.55
875.99	-61.68
876.157	-44.05
876.324	-35.58
876.49	-21.33
876.657	-34.13
876.824	-12.71
876.991	-39.62
877.157	-50.26
877.324	-34.4
877.491	-1.48
877.658	-1.11
877.824	15.26
877.991	6.92
878.157	-7.8
878.324	-21.21
878.491	-17.94
878.657	-59.65
878.824	-54.63
878.99	-51.62
879.157	-59.05
879.323	-82.76
879.49	-45.38
879.656	-39.8
879.823	-24.63
879.989	-16.78
880.156	-34.46
880.322	-23.5
880.488	-2.67
880.655	-13.54
880.821	-38.49
880.987	-44.48
881.154	-39.58
881.32	-39.28
881.486	-33.73
881.652	-32.41
881.819	-21.83
881.985	-2.6
882.151	4.77
882.317	6.22
882.483	11.72
882.649	19.24
882.816	19.02
882.982	22
883.148	22.39
883.314	25.6
883.48	26.73
883.646	25.77
883.812	27.58
883.978	26.41
884.144	27.87
884.31	28.61
884.476	28.62
884.642	30.25
884.807	29.71
884.973	32.16
885.139	32.06
885.305	32.65
885.471	33.08
885.637	32.02
885.802	33.83
885.968	32.5
886.134	32.99
886.3	32.29
886.465	28.98
886.631	28.73
886.797	25.09
886.962	23.01
887.128	22.2
887.293	20.91
887.459	15.78
887.625	8.18
887.79	4.69
887.956	7.49
888.121	4.24
888.287	10.27
888.452	6.72
888.618	6
888.783	4.48
