Data from CB_104_Reflection_1.txt Node
Date: Sat Nov 14 17:56:36 EST 2015
User: robert
Spectrometer: USB4E03001
Autoset integration time: false
Trigger mode: 4
Integration Time (sec): 1.000000E-1
Scans to average: 15
Electric dark correction enabled: true
Nonlinearity correction enabled: false
Boxcar width: 5
Stray light correction enabled: false
XAxis mode: Wavelengths
Stop averaging: false
Number of Pixels in Spectrum: 3648
>>>>>Begin Spectral Data<<<<<
177.566	98.25
177.785	-447.29
178.005	36.58
178.225	28.25
178.445	657.89
178.665	31.49
178.885	544.33
179.105	5.01
179.324	-58.66
179.544	25.6
179.764	-1.22
179.984	8.33
180.204	-0.71
180.423	-1.37
180.643	-6.22
180.863	-13.17
181.083	-1.01
181.302	18.56
181.522	40.19
181.742	43.75
181.961	59.48
182.181	119.08
182.401	276.48
182.621	179.07
182.84	281.6
183.06	131.17
183.279	73.74
183.499	147.85
183.719	39.9
183.938	7.16
184.158	80.85
184.377	95.25
184.597	140.27
184.816	105.57
185.036	99.61
185.256	103.48
185.475	112.45
185.695	91.92
185.914	84.63
186.134	100.5
186.353	114.05
186.572	117.05
186.792	109.59
187.011	101.42
187.231	101.28
187.45	109.25
187.67	97.74
187.889	104.92
188.108	130.53
188.328	139.21
188.547	141.86
188.766	139.53
188.986	103.01
189.205	112.62
189.424	90.38
189.644	94.83
189.863	99.61
190.082	124.97
190.302	92.56
190.521	77.97
190.74	67.64
190.959	51.09
191.178	28.75
191.398	35.81
191.617	12.96
191.836	34.92
192.055	51.3
192.274	51.04
192.494	43.03
192.713	57
192.932	74.6
193.151	168.05
193.37	90.18
193.589	98.32
193.808	152.79
194.027	219.02
194.246	-771.73
194.465	1373.86
194.685	87.47
194.904	85.06
195.123	53.41
195.342	52.73
195.561	64.18
195.78	95.44
195.999	124.3
196.218	104.28
196.436	98.78
196.655	94.88
196.874	100.87
197.093	112.25
197.312	101.49
197.531	116.96
197.75	120.55
197.969	123.84
198.188	116.94
198.407	91.54
198.625	95.17
198.844	101.5
199.063	80
199.282	86.04
199.501	80.19
199.719	80.08
199.938	70.39
200.157	50.58
200.376	25.85
200.594	58.93
200.813	48.45
201.032	22.85
201.251	17.04
201.469	33.69
201.688	34.94
201.907	31.96
202.125	8.43
202.344	10.64
202.563	28.98
202.781	34.1
203	-2.55
203.218	11.82
203.437	69.75
203.656	56.94
203.874	19.85
204.093	36.64
204.311	68.22
204.53	71.59
204.748	66.06
204.967	88.39
205.185	97.77
205.404	80.98
205.622	78.3
205.841	87.14
206.059	86.22
206.278	81.63
206.496	43.71
206.715	46.13
206.933	47.87
207.151	39.26
207.37	24.54
207.588	49.21
207.806	55.92
208.025	59.81
208.243	63.62
208.461	86.15
208.68	85.32
208.898	98.97
209.116	85.9
209.335	89.2
209.553	105.19
209.771	103.76
209.989	78.53
210.208	56.74
210.426	61.26
210.644	61.64
210.862	38.01
211.081	40.77
211.299	44.16
211.517	51.15
211.735	48.51
211.953	45.34
212.171	57.87
212.39	64.43
212.608	71.39
212.826	79.36
213.044	77.97
213.262	91.65
213.48	107.71
213.698	92.66
213.916	103.09
214.134	98.77
214.352	119.39
214.57	108.27
214.788	125.16
215.006	138.67
215.224	141.68
215.442	156.47
215.66	126.04
215.878	105.69
216.096	135.12
216.314	111.82
216.532	109.59
216.75	75.51
216.968	91.61
217.185	74.58
217.403	95.5
217.621	123.13
217.839	100.57
218.057	85.86
218.275	100.42
218.492	99.96
218.71	148.83
218.928	194.19
219.146	285.75
219.363	196.94
219.581	208.9
219.799	221
220.017	146.02
220.234	145.83
220.452	181.86
220.67	196.45
220.887	349.55
221.105	430.8
221.323	5561.96
221.54	519.85
221.758	3089.29
221.976	1281.34
222.193	256.86
222.411	435.26
222.629	825.16
222.846	1033.48
223.064	-925.58
223.281	889.49
223.499	617.69
223.716	1130.65
223.934	-821.53
224.151	-252.48
224.369	-177.32
224.586	-96.68
224.804	-45.7
225.021	-72.47
225.239	-84.12
225.456	-126.8
225.674	-138.48
225.891	-136.74
226.108	-190.22
226.326	-158.57
226.543	-103.38
226.76	-70.99
226.978	-51.75
227.195	-57.44
227.413	-39.62
227.63	-21.31
227.847	-12.88
228.064	0.93
228.282	1.3
228.499	8.02
228.716	4.4
228.934	0.9
229.151	4.41
229.368	6.05
229.585	5.91
229.802	8.08
230.02	8
230.237	10.1
230.454	12.37
230.671	14.54
230.888	13.64
231.105	8.47
231.323	8.44
231.54	2.34
231.757	-6.67
231.974	-11.64
232.191	-16.67
232.408	-13.74
232.625	-21.59
232.842	-31.08
233.059	-30.35
233.276	-30.13
233.493	-13.59
233.71	-1.14
233.927	-0.97
234.144	1.85
234.361	1.23
234.578	-0.65
234.795	0.02
235.012	-0.45
235.229	-1.59
235.446	-1.94
235.663	-1.44
235.879	-8.16
236.096	-16.16
236.313	-13.59
236.53	-11.02
236.747	-7.38
236.964	-6.58
237.181	-15.14
237.397	-14.16
237.614	-13.54
237.831	-14.62
238.048	-17.65
238.264	-24.71
238.481	-19.32
238.698	-10.95
238.915	-4.26
239.131	-5.15
239.348	-6.92
239.565	-0.58
239.781	1.93
239.998	2.03
240.215	1.08
240.431	0.24
240.648	7.37
240.865	8.32
241.081	6.32
241.298	5.16
241.514	7.43
241.731	9.94
241.947	8.91
242.164	7.63
242.38	10.74
242.597	11.79
242.814	13.25
243.03	12.43
243.246	12.3
243.463	11.3
243.679	10.63
243.896	10.23
244.112	8.05
244.329	8.53
244.545	11.05
244.762	9.41
244.978	10.76
245.194	8.08
245.411	4.58
245.627	5.1
245.843	6.83
246.06	7.21
246.276	7.31
246.492	9.49
246.709	9.02
246.925	8.16
247.141	7.04
247.357	5.86
247.574	6.75
247.79	8.26
248.006	8.71
248.222	9.01
248.439	9.39
248.655	8.34
248.871	7.09
249.087	8.4
249.303	8.71
249.519	10.05
249.736	10.52
249.952	11.02
250.168	10.46
250.384	6.79
250.6	5.65
250.816	4.06
251.032	7.01
251.248	7.3
251.464	3.38
251.68	3.27
251.896	1.71
252.112	0.69
252.328	-0.8
252.544	-0.88
252.76	-0.54
252.976	-2.06
253.192	-2.16
253.408	-2.96
253.624	-2.79
253.84	-1.51
254.056	-2.68
254.272	-3.29
254.487	-3.95
254.703	-4.15
254.919	-8.03
255.135	-8.23
255.351	-9.23
255.567	-5.27
255.782	-7.13
255.998	-5.94
256.214	-7.79
256.43	-4.37
256.646	-2.79
256.861	1.7
257.077	-0.32
257.293	4.14
257.508	6.04
257.724	7.4
257.94	7.13
258.155	6.2
258.371	6.39
258.587	6.98
258.802	6.36
259.018	7.24
259.234	7.42
259.449	8.56
259.665	8.05
259.88	7.81
260.096	7.93
260.312	7.97
260.527	8.58
260.743	8.61
260.958	8.89
261.174	9.03
261.389	8.19
261.605	7.06
261.82	6.37
262.036	6.5
262.251	6.74
262.466	6.8
262.682	5.08
262.897	4.85
263.113	3.9
263.328	4.28
263.543	4.41
263.759	3.03
263.974	2.53
264.189	3.71
264.405	1.17
264.62	0.36
264.835	0.59
265.051	1.92
265.266	1.03
265.481	0.91
265.696	-0.21
265.912	-0.31
266.127	1.84
266.342	3.8
266.557	2.5
266.773	3.24
266.988	2.92
267.203	2.95
267.418	3.08
267.633	4.32
267.848	4.64
268.064	5.5
268.279	5.94
268.494	6.52
268.709	5.97
268.924	8.6
269.139	8.46
269.354	10.67
269.569	10.57
269.784	10.28
269.999	10.14
270.214	10.47
270.429	8.49
270.644	7.68
270.859	7.4
271.074	6
271.289	4.01
271.504	5.69
271.719	5.42
271.934	4.55
272.149	5.44
272.363	5.3
272.578	6.28
272.793	6.74
273.008	5.81
273.223	5.84
273.438	6.03
273.653	7.74
273.867	6.42
274.082	5.4
274.297	6.23
274.512	4.52
274.726	2.86
274.941	1.26
275.156	2.76
275.371	4.98
275.585	5.14
275.8	5.83
276.015	3.93
276.229	4.09
276.444	4.69
276.659	4.92
276.873	6.33
277.088	7.29
277.302	6.34
277.517	6.47
277.732	5.02
277.946	4.93
278.161	4.56
278.375	4.74
278.59	7.23
278.804	6
279.019	6.77
279.233	7.01
279.448	7.03
279.662	6.66
279.877	5.92
280.091	7.24
280.306	6.19
280.52	7.61
280.735	7.91
280.949	6.75
281.163	8.52
281.378	6.82
281.592	6.28
281.806	6.13
282.021	7.21
282.235	7.97
282.449	6.92
282.664	6.35
282.878	6.14
283.092	5.92
283.307	5.86
283.521	4.49
283.735	4.94
283.949	4.85
284.164	4.64
284.378	5.85
284.592	5.2
284.806	5.74
285.02	6.89
285.234	6.75
285.449	6.05
285.663	5.98
285.877	5.68
286.091	4.66
286.305	5.07
286.519	5.67
286.733	4.45
286.947	4.92
287.161	5.03
287.375	4.36
287.589	4.3
287.803	5.21
288.017	4.54
288.231	5.5
288.445	6.64
288.659	6.28
288.873	6
289.087	6.39
289.301	5.75
289.515	5.78
289.729	5.48
289.943	4.44
290.157	3.61
290.371	5.12
290.584	4.56
290.798	4.59
291.012	5.31
291.226	5.99
291.44	5.59
291.654	5.3
291.867	5.51
292.081	6.93
292.295	8.4
292.509	9.72
292.722	8.2
292.936	8.87
293.15	9.96
293.364	10.3
293.577	9.2
293.791	10.74
294.005	11.19
294.218	11.01
294.432	10.82
294.645	10.34
294.859	10.87
295.073	11.17
295.286	10.5
295.5	10.78
295.713	9.45
295.927	9.98
296.14	8.88
296.354	9.21
296.568	9.15
296.781	9.3
296.994	8.71
297.208	7.85
297.421	8.51
297.635	8.81
297.848	8.31
298.062	8.94
298.275	9.66
298.489	9.86
298.702	10.08
298.915	10.15
299.129	11.09
299.342	12.61
299.555	11.53
299.769	11.29
299.982	11.51
300.195	10.48
300.409	10.04
300.622	8.55
300.835	8.04
301.048	7.57
301.262	8.02
301.475	5.68
301.688	3.86
301.901	4.91
302.115	3.98
302.328	3.21
302.541	4.23
302.754	3.75
302.967	4.76
303.18	4.71
303.393	5.27
303.607	4.85
303.82	5.5
304.033	7.04
304.246	8.34
304.459	9.48
304.672	11.2
304.885	10.86
305.098	12.08
305.311	12.01
305.524	12.96
305.737	12.33
305.95	12.82
306.163	13.25
306.376	12.23
306.589	11.67
306.802	10.06
307.015	7.56
307.228	7.95
307.44	8.3
307.653	8.79
307.866	8.85
308.079	8.89
308.292	8.89
308.505	8.79
308.718	9.53
308.93	9.73
309.143	10.6
309.356	11.51
309.569	11.83
309.781	11.64
309.994	10.79
310.207	10.24
310.42	9.93
310.632	9.59
310.845	9.46
311.058	9.74
311.27	10.63
311.483	11.9
311.696	12.47
311.908	12.31
312.121	11.93
312.333	12.06
312.546	12.07
312.759	12.79
312.971	13.48
313.184	14.2
313.396	12.55
313.609	11.32
313.821	10.56
314.034	10.02
314.246	9.97
314.459	9.59
314.671	9.4
314.884	9.89
315.096	9.11
315.309	7.14
315.521	6.71
315.733	7.17
315.946	7.43
316.158	6.43
316.371	7.22
316.583	6.04
316.795	6.97
317.008	8.08
317.22	8.14
317.432	8.39
317.644	8.65
317.857	8.98
318.069	11.32
318.281	10.35
318.494	10.01
318.706	10.14
318.918	10.59
319.13	9.79
319.342	9.69
319.555	9.8
319.767	10.15
319.979	10.31
320.191	11.61
320.403	10.68
320.615	12.27
320.827	12.58
321.039	11.27
321.252	12.27
321.464	13.56
321.676	13.03
321.888	12.92
322.1	12.97
322.312	14.76
322.524	12.43
322.736	12.96
322.948	12.63
323.16	14.57
323.372	14.43
323.584	14.29
323.796	14.01
324.007	13.87
324.219	13.9
324.431	13.32
324.643	12.63
324.855	14
325.067	13.79
325.279	12.61
325.491	12.81
325.702	13.44
325.914	13.38
326.126	13.9
326.338	16.27
326.55	18.45
326.761	20.42
326.973	21.68
327.185	22.05
327.396	22.93
327.608	24.08
327.82	23.55
328.032	24.39
328.243	24.75
328.455	24.8
328.666	22.91
328.878	22.19
329.09	22.49
329.301	22.72
329.513	23.74
329.725	23.5
329.936	23.78
330.148	24.15
330.359	23.57
330.571	24.34
330.782	25.14
330.994	25.12
331.205	24.87
331.417	23.65
331.628	22.76
331.84	21.14
332.051	20.95
332.262	22.35
332.474	21.45
332.685	21.67
332.897	22.51
333.108	20.71
333.319	22.06
333.531	21.88
333.742	22.06
333.953	22.98
334.165	23.54
334.376	24.42
334.587	24.65
334.799	26.71
335.01	27.13
335.221	26.95
335.432	29.14
335.644	29.63
335.855	29.9
336.066	30.43
336.277	30.58
336.488	30.21
336.7	29.04
336.911	27.81
337.122	27.9
337.333	28.01
337.544	27.31
337.755	25.66
337.966	25.24
338.177	25.46
338.388	24.72
338.599	24.57
338.811	24.31
339.022	25.29
339.233	25.71
339.444	23.78
339.655	22.86
339.866	23.34
340.076	23.8
340.287	23.75
340.498	24.42
340.709	25.16
340.92	25.71
341.131	25.99
341.342	25.8
341.553	24.8
341.764	26.58
341.975	28.15
342.185	27.96
342.396	28.04
342.607	27.68
342.818	27.31
343.029	26.58
343.239	26.09
343.45	26.1
343.661	26.23
343.872	27.07
344.082	26.08
344.293	25.82
344.504	24.94
344.714	25.02
344.925	24.75
345.136	25.04
345.346	25.01
345.557	24.48
345.768	25.26
345.978	24.87
346.189	24.91
346.399	25.36
346.61	25.06
346.821	25.99
347.031	26.08
347.242	26.95
347.452	25.34
347.663	25.44
347.873	25.36
348.084	25.21
348.294	25.64
348.504	25.85
348.715	26.17
348.925	25.48
349.136	24.71
349.346	24.49
349.557	24.05
349.767	24.86
349.977	24.77
350.188	24.66
350.398	24.7
350.608	24.41
350.819	24.02
351.029	23.51
351.239	23.47
351.449	23.77
351.66	23.78
351.87	23.87
352.08	23.54
352.29	24.3
352.501	24.97
352.711	25.24
352.921	25.17
353.131	25.69
353.341	24.77
353.552	24.99
353.762	24.46
353.972	24.54
354.182	24.14
354.392	23.94
354.602	22.89
354.812	22.86
355.022	21.72
355.232	21.18
355.442	21.42
355.652	22.16
355.862	22.18
356.072	22.41
356.282	22.32
356.492	22.48
356.702	23.15
356.912	23.91
357.122	23.68
357.332	24.94
357.542	25.17
357.752	24.32
357.962	24.2
358.171	24
358.381	24.89
358.591	24.79
358.801	24.51
359.011	24.05
359.221	24.12
359.43	23.93
359.64	22.67
359.85	22.78
360.06	22.93
360.269	22.34
360.479	22.59
360.689	22.19
360.899	22.15
361.108	22.33
361.318	22.74
361.528	22.42
361.737	22.68
361.947	23.07
362.156	23.3
362.366	23.18
362.576	23.45
362.785	23.8
362.995	24.08
363.204	23.88
363.414	23.99
363.623	23.79
363.833	23.72
364.042	23.26
364.252	23.34
364.461	22.91
364.671	23.4
364.88	23.24
365.09	22.57
365.299	22.06
365.509	22.06
365.718	21.61
365.927	21.55
366.137	21.12
366.346	20.96
366.555	20.85
366.765	20.46
366.974	20.21
367.183	19.88
367.393	20.18
367.602	20.05
367.811	20.19
368.021	20.09
368.23	19.89
368.439	20.1
368.648	20.36
368.857	19.41
369.067	19.89
369.276	19.22
369.485	18.87
369.694	18.64
369.903	18.65
370.112	18.55
370.321	19.2
370.531	18.85
370.74	18.61
370.949	18.78
371.158	19.06
371.367	19.21
371.576	19.65
371.785	19.81
371.994	19.28
372.203	19.43
372.412	19.5
372.621	18.98
372.83	19.36
373.039	19.79
373.248	20.04
373.457	19.86
373.666	19.39
373.874	18.86
374.083	19.7
374.292	19.48
374.501	19.01
374.71	18.35
374.919	18.38
375.128	18.54
375.336	18.72
375.545	17.9
375.754	17.83
375.963	18.16
376.171	18.39
376.38	17.88
376.589	17.77
376.798	17.71
377.006	18.21
377.215	17.5
377.424	16.97
377.632	16.63
377.841	16.9
378.05	16.71
378.258	16.62
378.467	15.93
378.675	15.85
378.884	15.39
379.093	15.27
379.301	14.86
379.51	15.41
379.718	15.6
379.927	15.51
380.135	15.64
380.344	16.07
380.552	15.11
380.761	15.47
380.969	15.94
381.177	16.78
381.386	16.85
381.594	17.52
381.803	17.22
382.011	16.82
382.219	16.72
382.428	16.13
382.636	15.83
382.845	16.37
383.053	16.33
383.261	15.54
383.469	15.31
383.678	15.17
383.886	14.75
384.094	15.06
384.302	14.91
384.511	14.8
384.719	15.02
384.927	15.18
385.135	14.83
385.343	14.55
385.552	14.27
385.76	14.06
385.968	13.53
386.176	13.22
386.384	12.85
386.592	12.45
386.8	11.89
387.008	11.69
387.216	11.67
387.424	11.81
387.633	12.06
387.841	12.34
388.049	12.72
388.257	13.34
388.465	13.22
388.672	13.08
388.88	13.29
389.088	13.42
389.296	12.97
389.504	12.4
389.712	12.62
389.92	12.59
390.128	12.62
390.336	11.95
390.544	11.65
390.751	11.8
390.959	11.78
391.167	11.94
391.375	12.07
391.583	12.2
391.79	12.24
391.998	11.77
392.206	11.51
392.414	11.45
392.621	11.47
392.829	11.2
393.037	10.91
393.244	10.96
393.452	10.79
393.66	10.99
393.867	10.69
394.075	10.82
394.283	10.93
394.49	10.89
394.698	10.46
394.905	10.45
395.113	10.33
395.32	10.34
395.528	9.92
395.735	10.07
395.943	9.65
396.15	9.92
396.358	9.79
396.565	9.92
396.773	9.81
396.98	9.97
397.188	10.22
397.395	10.5
397.602	10.68
397.81	10.88
398.017	10.46
398.225	10.56
398.432	10.48
398.639	10.35
398.847	10.07
399.054	10.02
399.261	9.86
399.468	9.61
399.676	9.9
399.883	9.63
400.09	9.7
400.297	9.73
400.505	9.55
400.712	9.47
400.919	9.38
401.126	9.21
401.333	9.34
401.54	9.8
401.748	9.67
401.955	9.05
402.162	9.06
402.369	9.02
402.576	9.21
402.783	9.58
402.99	9.61
403.197	9.66
403.404	9.84
403.611	9.77
403.818	9.69
404.025	9.83
404.232	9.86
404.439	9.89
404.646	9.67
404.853	9.46
405.06	8.93
405.267	8.99
405.474	8.95
405.681	8.7
405.887	8.48
406.094	7.82
406.301	7.98
406.508	8.25
406.715	8.07
406.922	8.01
407.128	8.21
407.335	8.6
407.542	8.55
407.749	8.64
407.955	8.64
408.162	9.01
408.369	9.24
408.575	9.16
408.782	8.92
408.989	8.96
409.195	9.29
409.402	9.14
409.609	9.15
409.815	9.22
410.022	9
410.228	9.26
410.435	8.88
410.642	9.3
410.848	9.01
411.055	8.97
411.261	8.93
411.468	8.84
411.674	8.77
411.881	8.59
412.087	8.41
412.294	8.84
412.5	8.75
412.706	8.78
412.913	8.14
413.119	8.08
413.326	8.28
413.532	8.45
413.738	8.44
413.945	8.27
414.151	8.3
414.357	8.44
414.564	8.25
414.77	8
414.976	8.16
415.182	8.36
415.389	8.69
415.595	8.35
415.801	8.37
416.007	8.35
416.214	8.45
416.42	8.61
416.626	8.44
416.832	8.42
417.038	8.76
417.244	8.76
417.45	8.8
417.657	8.57
417.863	8.75
418.069	8.59
418.275	8.41
418.481	8.47
418.687	8.39
418.893	8.51
419.099	8.43
419.305	8.29
419.511	8.18
419.717	8.22
419.923	8.14
420.129	8.11
420.335	8.19
420.541	8.38
420.746	8.37
420.952	8.33
421.158	8.4
421.364	8.43
421.57	8.42
421.776	8.55
421.982	8.48
422.187	8.61
422.393	8.71
422.599	8.68
422.805	8.51
423.01	8.53
423.216	8.56
423.422	8.45
423.628	8.43
423.833	8.39
424.039	8.42
424.245	8.5
424.45	8.49
424.656	8.44
424.862	8.42
425.067	8.4
425.273	8.37
425.478	8.32
425.684	8.33
425.889	8.2
426.095	8.35
426.301	8.23
426.506	8.18
426.712	8.27
426.917	8.26
427.123	8.07
427.328	8.29
427.533	8.41
427.739	8.64
427.944	8.5
428.15	8.44
428.355	8.13
428.561	8.03
428.766	8.2
428.971	7.94
429.177	7.8
429.382	8.13
429.587	7.93
429.793	7.62
429.998	7.45
430.203	7.46
430.408	7.79
430.614	7.77
430.819	7.88
431.024	7.76
431.229	7.88
431.434	7.85
431.64	7.81
431.845	7.94
432.05	7.91
432.255	7.71
432.46	7.75
432.665	7.45
432.87	7.66
433.076	7.61
433.281	7.45
433.486	7.43
433.691	7.48
433.896	7.39
434.101	7.43
434.306	7.36
434.511	7.24
434.716	7.24
434.921	7.46
435.126	7.25
435.331	7.22
435.535	7.32
435.74	7.3
435.945	7.39
436.15	7.39
436.355	7.3
436.56	7.56
436.765	7.79
436.97	7.84
437.174	7.84
437.379	8.06
437.584	8.15
437.789	8.19
437.993	8.08
438.198	8.01
438.403	8.2
438.608	8.25
438.812	8.23
439.017	8.24
439.222	8.44
439.426	8.38
439.631	8.33
439.836	8.44
440.04	8.41
440.245	8.52
440.45	8.53
440.654	8.27
440.859	8.24
441.063	8.19
441.268	8.1
441.472	7.89
441.677	8.02
441.881	8.01
442.086	7.96
442.29	7.9
442.495	7.9
442.699	7.78
442.904	7.86
443.108	7.68
443.312	7.73
443.517	7.76
443.721	7.67
443.925	7.61
444.13	7.62
444.334	7.48
444.538	7.54
444.743	7.54
444.947	7.5
445.151	7.63
445.356	7.74
445.56	7.85
445.764	7.95
445.968	7.96
446.173	7.97
446.377	7.82
446.581	7.78
446.785	7.71
446.989	7.7
447.193	7.7
447.398	7.75
447.602	7.87
447.806	7.79
448.01	7.59
448.214	7.67
448.418	7.55
448.622	7.51
448.826	7.46
449.03	7.52
449.234	7.54
449.438	7.68
449.642	7.45
449.846	7.25
450.05	7.15
450.254	7.27
450.458	7.19
450.662	7.31
450.866	7.48
451.069	7.74
451.273	7.64
451.477	7.69
451.681	7.49
451.885	7.64
452.089	7.69
452.292	7.73
452.496	7.63
452.7	7.7
452.904	7.62
453.107	7.63
453.311	7.65
453.515	7.79
453.719	7.77
453.922	7.73
454.126	7.57
454.33	7.57
454.533	7.49
454.737	7.57
454.94	7.4
455.144	7.41
455.348	7.4
455.551	7.17
455.755	7.07
455.958	7.08
456.162	7.13
456.365	7.18
456.569	7.08
456.772	7.29
456.976	7.27
457.179	7.39
457.383	7.34
457.586	7.33
457.79	7.46
457.993	7.45
458.196	7.24
458.4	7.4
458.603	7.32
458.807	7.35
459.01	7.26
459.213	7.29
459.417	7.36
459.62	7.39
459.823	7.32
460.026	7.24
460.23	7.26
460.433	7.24
460.636	7.25
460.839	7.28
461.042	7.34
461.246	7.32
461.449	7.27
461.652	7.16
461.855	7.19
462.058	7.2
462.261	7.36
462.464	7.48
462.668	7.72
462.871	7.55
463.074	7.63
463.277	7.59
463.48	7.27
463.683	7.23
463.886	7.27
464.089	7.09
464.292	7.06
464.495	7
464.698	6.88
464.901	6.65
465.104	6.83
465.306	6.96
465.509	6.84
465.712	7.07
465.915	7.26
466.118	7.11
466.321	7.09
466.524	7.21
466.726	7.09
466.929	6.89
467.132	7.02
467.335	6.84
467.538	6.7
467.74	6.82
467.943	6.75
468.146	6.71
468.348	6.9
468.551	7.08
468.754	7.14
468.956	7.17
469.159	7.33
469.362	7.3
469.564	7.37
469.767	7.43
469.969	7.42
470.172	7.55
470.375	7.48
470.577	7.52
470.78	7.46
470.982	7.45
471.185	7.38
471.387	7.32
471.59	7.29
471.792	7.36
471.995	7.46
472.197	7.39
472.399	7.23
472.602	7.17
472.804	7.01
473.007	6.94
473.209	7.03
473.411	6.94
473.614	7.02
473.816	7.06
474.018	7.09
474.22	6.97
474.423	7.05
474.625	7.25
474.827	7.27
475.03	7.12
475.232	7.11
475.434	7.13
475.636	7.3
475.838	7.37
476.04	7.36
476.243	7.19
476.445	7.17
476.647	7.15
476.849	7.2
477.051	7.24
477.253	7.32
477.455	7.26
477.657	7.02
477.859	7.02
478.061	6.93
478.263	7.01
478.465	6.98
478.667	6.95
478.869	6.94
479.071	6.84
479.273	6.89
479.475	6.98
479.677	7.12
479.879	7.18
480.081	7.22
480.283	7.12
480.485	6.95
480.686	7.04
480.888	7.09
481.09	7.1
481.292	7.26
481.494	7.23
481.695	7.35
481.897	7.41
482.099	7.41
482.301	7.4
482.502	7.48
482.704	7.6
482.906	7.67
483.107	7.65
483.309	7.62
483.511	7.6
483.712	7.64
483.914	7.59
484.115	7.57
484.317	7.6
484.519	7.58
484.72	7.55
484.922	7.56
485.123	7.55
485.325	7.52
485.526	7.53
485.728	7.49
485.929	7.49
486.131	7.44
486.332	7.41
486.534	7.34
486.735	7.36
486.936	7.4
487.138	7.35
487.339	7.29
487.541	7.41
487.742	7.42
487.943	7.41
488.144	7.43
488.346	7.49
488.547	7.52
488.748	7.56
488.95	7.61
489.151	7.59
489.352	7.59
489.553	7.69
489.755	7.61
489.956	7.6
490.157	7.56
490.358	7.46
490.559	7.45
490.76	7.41
490.961	7.42
491.163	7.48
491.364	7.42
491.565	7.43
491.766	7.41
491.967	7.44
492.168	7.46
492.369	7.55
492.57	7.54
492.771	7.58
492.972	7.6
493.173	7.58
493.374	7.54
493.575	7.64
493.776	7.66
493.976	7.63
494.177	7.53
494.378	7.55
494.579	7.73
494.78	7.85
494.981	7.78
495.182	7.86
495.382	7.91
495.583	7.7
495.784	7.68
495.985	7.82
496.185	7.76
496.386	7.84
496.587	7.85
496.788	7.71
496.988	7.7
497.189	7.81
497.39	7.9
497.59	7.86
497.791	7.93
497.992	8.01
498.192	7.84
498.393	7.99
498.593	8.01
498.794	7.92
498.994	7.96
499.195	7.87
499.395	7.78
499.596	7.62
499.796	7.61
499.997	7.78
500.197	7.72
500.398	7.77
500.598	7.67
500.799	7.78
500.999	7.9
501.199	7.8
501.4	8.03
501.6	8.08
501.801	8.21
502.001	8.46
502.201	8.47
502.402	8.6
502.602	8.53
502.802	8.44
503.002	8.33
503.203	8.47
503.403	8.46
503.603	8.42
503.803	8.52
504.003	8.57
504.204	8.55
504.404	8.63
504.604	8.6
504.804	8.74
505.004	8.88
505.204	8.91
505.404	8.78
505.604	8.75
505.804	8.82
506.005	8.81
506.205	8.85
506.405	8.63
506.605	8.57
506.805	8.54
507.005	8.49
507.204	8.61
507.404	8.65
507.604	8.65
507.804	8.84
508.004	8.9
508.204	8.91
508.404	8.88
508.604	9.22
508.804	9.37
509.003	9.65
509.203	9.84
509.403	9.99
509.603	10.1
509.803	10.26
510.002	10.26
510.202	10.32
510.402	10.37
510.602	10.43
510.801	10.37
511.001	10.13
511.201	10.16
511.4	10.03
511.6	10
511.8	10.16
511.999	10.18
512.199	10.13
512.398	10.18
512.598	10.27
512.797	10.34
512.997	10.46
513.197	10.82
513.396	10.72
513.596	10.81
513.795	10.95
513.994	10.84
514.194	10.99
514.393	11.25
514.593	11.41
514.792	11.51
514.992	11.55
515.191	11.68
515.39	11.78
515.59	11.91
515.789	12.23
515.988	12.31
516.188	12.54
516.387	12.72
516.586	12.81
516.786	12.78
516.985	12.91
517.184	13.09
517.383	13.14
517.582	13.13
517.782	13.29
517.981	13.41
518.18	13.47
518.379	13.58
518.578	13.69
518.777	13.8
518.976	13.93
519.176	14.02
519.375	14.15
519.574	14.27
519.773	14.38
519.972	14.47
520.171	14.47
520.37	14.5
520.569	14.65
520.768	14.6
520.967	14.7
521.166	14.79
521.365	14.89
521.564	14.83
521.762	14.95
521.961	15.1
522.16	15.3
522.359	15.55
522.558	15.72
522.757	15.78
522.956	16.15
523.154	16.35
523.353	16.45
523.552	16.67
523.751	17.08
523.949	17.2
524.148	17.25
524.347	17.26
524.546	17.36
524.744	17.53
524.943	17.61
525.142	17.52
525.34	17.55
525.539	17.65
525.737	17.77
525.936	17.81
526.135	18.01
526.333	18.18
526.532	18.39
526.73	18.53
526.929	18.62
527.127	18.89
527.326	19.04
527.524	19.13
527.723	19.38
527.921	19.48
528.12	19.65
528.318	19.69
528.516	19.78
528.715	19.84
528.913	19.95
529.112	19.99
529.31	19.99
529.508	20.07
529.707	20.24
529.905	20.23
530.103	20.22
530.301	20.22
530.5	20.32
530.698	20.36
530.896	20.46
531.094	20.49
531.293	20.64
531.491	20.68
531.689	20.84
531.887	20.85
532.085	21.03
532.283	21.26
532.481	21.37
532.68	21.48
532.878	21.73
533.076	21.86
533.274	21.95
533.472	22.07
533.67	22.35
533.868	22.45
534.066	22.48
534.264	22.63
534.462	22.72
534.66	22.85
534.858	22.94
535.056	22.88
535.253	22.88
535.451	23
535.649	23.16
535.847	23.01
536.045	23.07
536.243	23.25
536.441	23.29
536.638	23.36
536.836	23.46
537.034	23.55
537.232	23.68
537.43	23.74
537.627	23.78
537.825	23.88
538.023	24.02
538.22	24.09
538.418	24.12
538.616	24.21
538.813	24.3
539.011	24.21
539.209	24.35
539.406	24.5
539.604	24.69
539.801	24.76
539.999	24.8
540.196	24.96
540.394	25.09
540.591	25.25
540.789	25.24
540.986	25.33
541.184	25.49
541.381	25.52
541.579	25.56
541.776	25.56
541.974	25.69
542.171	25.78
542.368	25.91
542.566	25.93
542.763	25.99
542.96	26.08
543.158	26.26
543.355	26.39
543.552	26.38
543.75	26.51
543.947	26.62
544.144	26.72
544.341	26.66
544.539	26.66
544.736	26.78
544.933	26.87
545.13	26.86
545.327	26.81
545.524	26.8
545.722	26.78
545.919	26.81
546.116	26.93
546.313	26.81
546.51	26.83
546.707	26.83
546.904	26.85
547.101	26.9
547.298	27.04
547.495	26.99
547.692	27.05
547.889	27.37
548.086	27.41
548.283	27.39
548.48	27.5
548.677	27.66
548.874	27.89
549.07	28.07
549.267	27.95
549.464	28.08
549.661	28.11
549.858	28.13
550.055	27.99
550.251	27.98
550.448	27.96
550.645	28.12
550.842	28.03
551.038	27.78
551.235	27.88
551.432	28
551.628	28.13
551.825	28.18
552.022	28.32
552.218	28.52
552.415	28.73
552.612	28.82
552.808	28.91
553.005	29.09
553.201	29.11
553.398	28.99
553.594	29.17
553.791	29.16
553.987	29.14
554.184	29.03
554.38	29.04
554.577	28.97
554.773	29.23
554.97	29.25
555.166	29.22
555.362	29.51
555.559	29.66
555.755	29.69
555.952	29.52
556.148	29.41
556.344	29.66
556.541	29.71
556.737	29.89
556.933	29.67
557.129	29.68
557.326	29.92
557.522	30.04
557.718	30.03
557.914	30.09
558.11	30.3
558.307	30.72
558.503	30.79
558.699	30.66
558.895	30.44
559.091	30.49
559.287	30.58
559.483	30.63
559.679	30.4
559.876	30.54
560.072	30.38
560.268	30.31
560.464	30.4
560.66	30.38
560.856	30.64
561.052	30.89
561.247	31.05
561.443	31.02
561.639	31.09
561.835	31.2
562.031	31.43
562.227	31.61
562.423	31.69
562.619	31.8
562.815	31.88
563.01	31.85
563.206	31.72
563.402	31.86
563.598	31.9
563.793	31.67
563.989	31.66
564.185	31.48
564.381	31.45
564.576	31.6
564.772	31.4
564.968	31.17
565.163	31.1
565.359	31.33
565.555	31.32
565.75	31.37
565.946	31.55
566.141	31.55
566.337	31.58
566.532	31.56
566.728	31.59
566.923	31.59
567.119	31.77
567.314	31.8
567.51	31.77
567.705	31.66
567.901	31.66
568.096	31.67
568.292	31.87
568.487	31.94
568.682	32.04
568.878	32.25
569.073	32.47
569.268	32.5
569.464	32.65
569.659	32.67
569.854	32.78
570.05	32.97
570.245	32.96
570.44	32.98
570.635	32.84
570.831	32.85
571.026	32.5
571.221	32.29
571.416	32.22
571.611	32.23
571.806	32.19
572.002	32.41
572.197	32.41
572.392	32.36
572.587	32.2
572.782	32.35
572.977	32.5
573.172	32.65
573.367	32.79
573.562	32.83
573.757	32.79
573.952	32.83
574.147	32.66
574.342	32.57
574.537	32.69
574.732	32.82
574.927	32.94
575.121	32.94
575.316	33.05
575.511	33.34
575.706	33.51
575.901	33.54
576.096	33.52
576.29	33.48
576.485	33.56
576.68	33.61
576.875	33.86
577.069	33.65
577.264	33.79
577.459	34
577.654	33.83
577.848	33.72
578.043	33.98
578.238	33.81
578.432	33.77
578.627	33.88
578.821	33.8
579.016	33.57
579.21	33.66
579.405	33.45
579.6	33
579.794	32.69
579.989	32.88
580.183	32.55
580.378	32.8
580.572	33.11
580.766	33.07
580.961	33.04
581.155	33.11
581.35	33.26
581.544	33.53
581.738	33.71
581.933	33.96
582.127	33.8
582.321	33.83
582.516	33.53
582.71	33.5
582.904	33.34
583.099	33.39
583.293	33.55
583.487	33.71
583.681	33.52
583.875	33.59
584.07	33.6
584.264	33.84
584.458	34.13
584.652	34.46
584.846	34.25
585.04	34.18
585.234	34.26
585.428	34.06
585.623	33.99
585.817	33.91
586.011	33.93
586.205	33.88
586.399	33.97
586.593	33.63
586.787	33.79
586.981	33.81
587.174	33.89
587.368	33.86
587.562	33.86
587.756	33.91
587.95	34.15
588.144	34.36
588.338	34.35
588.532	33.95
588.725	34.21
588.919	34.36
589.113	34.4
589.307	34.49
589.501	34.55
589.694	34.74
589.888	34.56
590.082	34.41
590.275	34.25
590.469	34.28
590.663	34.49
590.856	34.57
591.05	34.41
591.244	34.6
591.437	34.93
591.631	34.9
591.824	34.92
592.018	34.98
592.212	34.88
592.405	34.94
592.599	34.9
592.792	34.55
592.986	34.52
593.179	34.66
593.372	34.6
593.566	34.26
593.759	34.23
593.953	34.33
594.146	34.34
594.339	34.54
594.533	34.61
594.726	34.58
594.92	34.67
595.113	34.66
595.306	34.46
595.499	34.45
595.693	34.85
595.886	35.01
596.079	34.81
596.272	34.75
596.466	34.63
596.659	34.72
596.852	34.94
597.045	35.3
597.238	35.37
597.431	35.53
597.624	35.64
597.818	35.43
598.011	35.34
598.204	35.45
598.397	35.62
598.59	35.66
598.783	35.57
598.976	35.59
599.169	35.42
599.362	35.19
599.555	35.12
599.748	34.95
599.941	34.71
600.134	34.78
600.326	34.72
600.519	34.61
600.712	34.57
600.905	34.41
601.098	34.24
601.291	34.19
601.483	34.46
601.676	34.41
601.869	34.58
602.062	34.75
602.255	34.7
602.447	34.85
602.64	34.85
602.833	35.06
603.025	35.29
603.218	35.15
603.411	35.42
603.603	35.31
603.796	35.42
603.989	35.64
604.181	35.79
604.374	36.03
604.566	35.76
604.759	35.76
604.951	35.75
605.144	35.68
605.336	35.86
605.529	35.75
605.721	35.93
605.914	35.89
606.106	35.71
606.299	35.61
606.491	35.37
606.683	35.55
606.876	35.62
607.068	35.56
607.26	35.53
607.453	35.58
607.645	35.56
607.837	35.21
608.03	35.31
608.222	35.41
608.414	35.65
608.606	35.75
608.799	35.51
608.991	35.57
609.183	35.68
609.375	35.63
609.567	35.48
609.759	35.55
609.952	35.76
610.144	35.74
610.336	35.83
610.528	35.74
610.72	35.62
610.912	35.81
611.104	35.91
611.296	35.84
611.488	35.96
611.68	36.2
611.872	36.1
612.064	36.18
612.256	36.12
612.448	35.71
612.64	35.54
612.832	35.54
613.023	35.72
613.215	35.46
613.407	35.28
613.599	34.98
613.791	34.99
613.983	34.73
614.174	34.71
614.366	34.86
614.558	35.2
614.75	35.5
614.941	35.65
615.133	35.59
615.325	35.7
615.516	35.95
615.708	36.27
615.9	36.31
616.091	36.9
616.283	37.01
616.475	36.9
616.666	36.67
616.858	36.3
617.049	36.22
617.241	36.2
617.432	36.28
617.624	36.2
617.815	36.08
618.007	35.86
618.198	35.9
618.39	35.65
618.581	35.34
618.773	35.4
618.964	35.76
619.155	36.05
619.347	36.03
619.538	36.07
619.729	36.5
619.921	36.84
620.112	36.8
620.303	36.45
620.494	36.45
620.686	36.9
620.877	37.08
621.068	36.89
621.259	36.87
621.451	36.96
621.642	36.73
621.833	36.27
622.024	36.03
622.215	36.5
622.406	36.46
622.597	36.52
622.788	36.44
622.98	36.11
623.171	36.13
623.362	35.73
623.553	35.5
623.744	35.74
623.935	35.55
624.126	35.7
624.317	35.12
624.508	35.61
624.698	35.69
624.889	35.61
625.08	35.79
625.271	35.8
625.462	35.74
625.653	35.92
625.844	35.96
626.034	36.2
626.225	36.09
626.416	36.36
626.607	36.11
626.798	36.27
626.988	36.4
627.179	36.51
627.37	36.64
627.56	36.99
627.751	36.99
627.942	37.01
628.132	37
628.323	37.09
628.514	37.05
628.704	37.13
628.895	36.86
629.085	36.84
629.276	36.78
629.466	36.88
629.657	36.87
629.847	36.96
630.038	36.88
630.228	37.14
630.419	37.17
630.609	37.12
630.8	36.92
630.99	37.19
631.181	36.94
631.371	36.93
631.561	36.69
631.752	36.81
631.942	36.88
632.132	37.19
632.323	36.76
632.513	36.98
632.703	37.17
632.893	37.48
633.084	37.33
633.274	37.53
633.464	37.57
633.654	37.76
633.844	37.62
634.034	37.54
634.225	37.26
634.415	37.69
634.605	37.54
634.795	37.39
634.985	37.42
635.175	37.64
635.365	37.68
635.555	37.68
635.745	37.48
635.935	37.46
636.125	37.68
636.315	37.78
636.505	37.54
636.695	37.38
636.885	37.73
637.075	37.55
637.265	37.6
637.455	37.62
637.644	37.73
637.834	37.92
638.024	38.03
638.214	37.97
638.404	37.89
638.593	38
638.783	37.99
638.973	37.77
639.163	37.75
639.352	37.34
639.542	37.55
639.732	37.73
639.921	37.3
640.111	37.19
640.301	36.85
640.49	36.99
640.68	37.19
640.87	37.17
641.059	37.53
641.249	37.61
641.438	37.62
641.628	37.13
641.817	37.29
642.007	37.68
642.196	37.83
642.386	38.1
642.575	37.6
642.764	37.25
642.954	37.41
643.143	37.08
643.333	37.47
643.522	37.25
643.711	37.61
643.901	37.18
644.09	37.24
644.279	37.11
644.469	37.02
644.658	37.1
644.847	37.03
645.036	36.77
645.226	36.64
645.415	36.41
645.604	36.8
645.793	36.95
645.982	37.13
646.171	36.91
646.361	37.14
646.55	37.08
646.739	37.31
646.928	37.42
647.117	37.77
647.306	37.77
647.495	37.64
647.684	37.56
647.873	37.43
648.062	37.3
648.251	37.51
648.44	37.11
648.629	37.53
648.818	37.89
649.007	38.18
649.196	38.05
649.384	37.88
649.573	38.1
649.762	38.67
649.951	38.83
650.14	38.52
650.328	38.39
650.517	38.48
650.706	37.82
650.895	37.3
651.083	36.71
651.272	36.76
651.461	37.01
651.65	36.77
651.838	36.64
652.027	36.35
652.216	36.56
652.404	36.96
652.593	37.02
652.781	37.19
652.97	37.43
653.158	37.66
653.347	37.46
653.535	37.56
653.724	37.53
653.912	37.04
654.101	37.25
654.289	37.39
654.478	36.92
654.666	37.01
654.855	37.24
655.043	37.37
655.231	37.37
655.42	37.41
655.608	37.28
655.796	37.71
655.985	37.99
656.173	37.92
656.361	37.73
656.55	37.82
656.738	37.95
656.926	38.11
657.114	37.85
657.302	37.97
657.491	38.02
657.679	37.85
657.867	37.79
658.055	37.84
658.243	37.4
658.431	37.31
658.619	37.33
658.807	37.11
658.996	36.64
659.184	36.69
659.372	36.59
659.56	36.6
659.748	37.04
659.936	37.04
660.124	36.99
660.311	37.38
660.499	37.89
660.687	37.74
660.875	37.44
661.063	37.9
661.251	38.11
661.439	37.9
661.627	38
661.814	37.78
662.002	37.45
662.19	37.25
662.378	37.27
662.565	36.83
662.753	37.02
662.941	37.76
663.129	37.08
663.316	36.68
663.504	37.19
663.692	36.96
663.879	37.09
664.067	37.15
664.254	37.14
664.442	37.35
664.63	37.41
664.817	37.41
665.005	36.86
665.192	37.61
665.38	37.77
665.567	37.74
665.755	38.4
665.942	37.91
666.13	37.49
666.317	37.36
666.504	36.86
666.692	37.04
666.879	37.42
667.067	37.6
667.254	37.05
667.441	37.5
667.629	37.73
667.816	37.63
668.003	37.76
668.19	38.27
668.378	38.57
668.565	38.58
668.752	38.23
668.939	38.09
669.127	37.84
669.314	38.01
669.501	38.09
669.688	37.88
669.875	37.5
670.062	37.71
670.249	37.66
670.436	37.42
670.623	38.02
670.81	38.05
670.997	37.88
671.184	38.22
671.371	38.58
671.558	38.02
671.745	38.35
671.932	38.5
672.119	38.67
672.306	38.46
672.493	39.22
672.68	38.74
672.867	38.85
673.054	38.87
673.24	38.82
673.427	38.38
673.614	38.56
673.801	38.14
673.988	37.84
674.174	37.83
674.361	38.18
674.548	38.09
674.734	38.52
674.921	38.55
675.108	38.31
675.294	38.69
675.481	38.64
675.668	38.75
675.854	38.76
676.041	38.91
676.227	38.67
676.414	38.44
676.601	37.95
676.787	37.5
676.974	37.17
677.16	37.38
677.347	37.36
677.533	37.77
677.719	37.65
677.906	37.3
678.092	37.31
678.279	37.74
678.465	37.42
678.651	37.63
678.838	37.92
679.024	38.27
679.21	38.25
679.397	38.33
679.583	38.12
679.769	38.47
679.955	38.97
680.142	38.75
680.328	38.4
680.514	38.61
680.7	38.67
680.886	38.74
681.073	38.7
681.259	38.63
681.445	38.45
681.631	38.72
681.817	38.5
682.003	38.25
682.189	38.39
682.375	38.51
682.561	38.75
682.747	38.58
682.933	38.05
683.119	38.31
683.305	38.36
683.491	38.18
683.677	38.26
683.863	38.64
684.049	38.9
684.235	39.16
684.42	39.11
684.606	39.36
684.792	39.42
684.978	39.46
685.164	39.5
685.349	39.82
685.535	40.31
685.721	40.55
685.907	40.08
686.092	40.26
686.278	40.08
686.464	40.27
686.649	39.72
686.835	39.82
687.021	39.78
687.206	39.64
687.392	39.26
687.577	38.68
687.763	38.14
687.948	38.04
688.134	37.84
688.319	37.99
688.505	37.72
688.69	37.65
688.876	37.63
689.061	38.35
689.247	37.98
689.432	37.88
689.618	38.14
689.803	38.38
689.988	38.52
690.174	39.03
690.359	38.44
690.544	38.17
690.73	38.41
690.915	38.18
691.1	37.8
691.285	37.63
691.471	38.31
691.656	38.67
691.841	38.9
692.026	38.65
692.211	37.76
692.396	38.24
692.582	38.58
692.767	38.15
692.952	38.4
693.137	38.17
693.322	38.43
693.507	37.68
693.692	37.08
693.877	36.53
694.062	36.65
694.247	37.31
694.432	37.75
694.617	37.39
694.802	37.82
694.987	38.15
695.172	38.08
695.357	38.61
695.541	38.9
695.726	39.22
695.911	39.47
696.096	39.64
696.281	39.45
696.466	39.17
696.65	39.65
696.835	39.5
697.02	38.92
697.204	38.52
697.389	38.53
697.574	38.75
697.759	38.73
697.943	38.45
698.128	38.45
698.312	38.47
698.497	38.46
698.682	38.6
698.866	38.75
699.051	38.79
699.235	39.19
699.42	39.15
699.604	38.8
699.789	38.73
699.973	39.13
700.158	39.37
700.342	39.17
700.527	39.6
700.711	39.26
700.895	39.41
701.08	39.71
701.264	39.9
701.448	40.09
701.633	40.7
701.817	40.2
702.001	39.91
702.186	39.16
702.37	39.4
702.554	38.18
702.738	38.43
702.923	38.52
703.107	38.21
703.291	38.04
703.475	37.68
703.659	37.46
703.843	38.41
704.027	38.75
704.212	39.16
704.396	38.46
704.58	38.97
704.764	39.11
704.948	38.31
705.132	38.09
705.316	38.28
705.5	38.2
705.684	38.67
705.868	38.72
706.052	38.29
706.235	37.82
706.419	38.58
706.603	39.18
706.787	38.67
706.971	39.26
707.155	40.15
707.339	40.12
707.522	40.04
707.706	39.23
707.89	38.28
708.074	39.09
708.257	39.87
708.441	39.62
708.625	39.52
708.808	39.96
708.992	39.71
709.176	39.02
709.359	38.74
709.543	38.47
709.727	38.92
709.91	38.53
710.094	37.67
710.277	38.23
710.461	38.4
710.644	38.02
710.828	37.95
711.011	38.19
711.195	37.98
711.378	37.78
711.562	38.02
711.745	38.05
711.928	39.1
712.112	39
712.295	38.19
712.478	38.53
712.662	39.07
712.845	39.2
713.028	39.03
713.212	39.86
713.395	39.81
713.578	39.37
713.761	38.52
713.945	38.65
714.128	38.01
714.311	38.31
714.494	38.1
714.677	37.57
714.86	37.48
715.043	37.69
715.227	37.04
715.41	37.06
715.593	37.3
715.776	38.42
715.959	38.67
716.142	39.79
716.325	39.76
716.508	39.46
716.691	39.62
716.874	39.8
717.057	39.55
717.239	39.82
717.422	40.08
717.605	40.51
717.788	40
717.971	39.29
718.154	38.89
718.337	38.79
718.519	39.22
718.702	39.07
718.885	38.57
719.068	38.98
719.25	38.5
719.433	39.47
719.616	39.17
719.798	38.68
719.981	38.4
720.164	39.01
720.346	39.16
720.529	38.78
720.712	39.11
720.894	39.19
721.077	38.97
721.259	39.26
721.442	38.46
721.624	38.51
721.807	39.08
721.989	40.43
722.172	40.45
722.354	41.14
722.537	41.1
722.719	40.85
722.901	41.28
723.084	42.12
723.266	42.2
723.448	41.52
723.631	41.58
723.813	42.1
723.995	39.53
724.178	39.18
724.36	38.45
724.542	38.73
724.724	38.25
724.907	37.72
725.089	37.59
725.271	37.49
725.453	37.59
725.635	37.21
725.817	36.01
725.999	37.12
726.181	37.2
726.364	36.8
726.546	36.57
726.728	37.7
726.91	37.02
727.092	36.04
727.274	35.83
727.456	36.5
727.638	36.75
727.819	38.03
728.001	38.53
728.183	38.62
728.365	39.22
728.547	39.59
728.729	38.37
728.911	38.38
729.093	39.41
729.274	39.4
729.456	39
729.638	38.62
729.82	38.23
730.001	38.72
730.183	38.73
730.365	38.65
730.546	38.37
730.728	38.53
730.91	39.23
731.091	38
731.273	38.57
731.455	38.88
731.636	39.92
731.818	39.58
731.999	39.22
732.181	38.5
732.362	38.25
732.544	38
732.725	38.38
732.907	38.31
733.088	38.15
733.27	37.48
733.451	37.12
733.633	36.63
733.814	36.1
733.995	35.92
734.177	35.89
734.358	36.38
734.539	36.56
734.721	36.44
734.902	37.06
735.083	38.06
735.264	38.5
735.446	39.1
735.627	39.4
735.808	40.71
735.989	40
736.17	41.66
736.351	40.06
736.533	40.14
736.714	40.06
736.895	40.03
737.076	39.67
737.257	39.8
737.438	39.16
737.619	38.51
737.8	37.85
737.981	38.94
738.162	36.95
738.343	38.5
738.524	39.72
738.705	39.83
738.886	38.72
739.067	38.52
739.247	38.36
739.428	38.07
739.609	38.88
739.79	39.21
739.971	39.51
740.151	40.08
740.332	39.63
740.513	38.08
740.694	38.3
740.874	38.58
741.055	38.06
741.236	37.62
741.417	38.23
741.597	37.21
741.778	37.33
741.958	36.39
742.139	36.51
742.32	36.3
742.5	36.74
742.681	37.54
742.861	38.63
743.042	37.9
743.222	38.3
743.403	36.96
743.583	37.53
743.764	36.12
743.944	36.82
744.124	37.13
744.305	37.06
744.485	36.61
744.666	35.97
744.846	33.52
745.026	34.04
745.207	34.35
745.387	36.25
745.567	35.43
745.747	36.71
745.928	36.62
746.108	37.02
746.288	38.22
746.468	37.66
746.648	37.29
746.829	38.97
747.009	40.25
747.189	39.67
747.369	39.72
747.549	41.18
747.729	40.7
747.909	40
748.089	39.06
748.269	37.44
748.449	38.65
748.629	38.44
748.809	38.85
748.989	39.62
749.169	39.66
749.349	39
749.529	39.07
749.709	38.49
749.889	38.82
750.068	38.22
750.248	38.71
750.428	38.42
750.608	38.36
750.788	38.4
750.967	36.81
751.147	37.52
751.327	38.82
751.507	38.08
751.686	38.47
751.866	38.91
752.046	39.34
752.225	39.51
752.405	40.73
752.585	41.9
752.764	41.45
752.944	41.73
753.123	41.07
753.303	38.23
753.482	37.88
753.662	37.78
753.841	37.66
754.021	37.46
754.2	37.07
754.38	35.8
754.559	34.9
754.739	34.36
754.918	35.31
755.097	35.06
755.277	36.84
755.456	36.37
755.635	36.25
755.815	35.62
755.994	36.55
756.173	36.03
756.352	36.24
756.532	36.45
756.711	36.35
756.89	36.86
757.069	37.91
757.248	37.79
757.427	38.44
757.607	39.03
757.786	40.28
757.965	40.51
758.144	41.53
758.323	41.63
758.502	43.45
758.681	44.4
758.86	43.38
759.039	42.41
759.218	42.26
759.397	43.18
759.576	42.49
759.755	41.16
759.934	41.05
760.113	40.38
760.291	39.91
760.47	38.77
760.649	38.05
760.828	37.28
761.007	37.66
761.186	37.56
761.364	37.44
761.543	37.49
761.722	37.91
761.901	37.16
762.079	38.67
762.258	38.91
762.437	38.75
762.615	38.04
762.794	39.54
762.972	39.72
763.151	40.24
763.33	39.4
763.508	39.99
763.687	40.31
763.865	40.55
764.044	39.51
764.222	38.94
764.401	38.59
764.579	40
764.758	38.98
764.936	38.52
765.114	38.11
765.293	38.28
765.471	38.37
765.65	38.16
765.828	37.84
766.006	39.03
766.184	40.22
766.363	40.55
766.541	41.05
766.719	42.17
766.898	42.89
767.076	42.52
767.254	43.2
767.432	43.58
767.61	43.61
767.788	44.31
767.967	42.9
768.145	42.4
768.323	41.53
768.501	41.33
768.679	41.05
768.857	40.61
769.035	41.07
769.213	40.39
769.391	38.61
769.569	38.74
769.747	37.01
769.925	37.13
770.103	36.23
770.281	36.52
770.459	34.04
770.636	33.63
770.814	34.75
770.992	35.28
771.17	33.8
771.348	34.07
771.525	34.79
771.703	36.12
771.881	37.32
772.059	37.76
772.236	37.22
772.414	36.73
772.592	37.4
772.769	35.98
772.947	36.74
773.125	38.99
773.302	39.24
773.48	39.56
773.657	41.02
773.835	40.07
774.013	39.15
774.19	39.03
774.368	40.74
774.545	39.52
774.723	39.22
774.9	37.84
775.077	35.54
775.255	37.17
775.432	34.48
775.61	34.08
775.787	33.94
775.964	35.33
776.142	36.24
776.319	36.31
776.496	34.93
776.674	35.39
776.851	36.28
777.028	35.82
777.205	36.12
777.382	36.84
777.56	36.08
777.737	35.34
777.914	33.99
778.091	33.41
778.268	32.4
778.445	34.3
778.622	34.82
778.8	34.04
778.977	36.09
779.154	34.17
779.331	34.34
779.508	35.57
779.685	35.74
779.862	37.14
780.038	37.01
780.215	37.03
780.392	35.13
780.569	33.21
780.746	31.59
780.923	32.22
781.1	31.96
781.277	32.66
781.453	31.61
781.63	32.49
781.807	31.96
781.984	31.64
782.16	31.14
782.337	31.68
782.514	31.16
782.691	32.7
782.867	31.58
783.044	33.02
783.221	32.62
783.397	32.66
783.574	30.11
783.75	31.2
783.927	33.4
784.103	35.31
784.28	36.07
784.456	39.15
784.633	38.24
784.809	40.78
784.986	40
785.162	37.94
785.339	38.9
785.515	41.76
785.692	41.33
785.868	40.73
786.044	39.58
786.221	40.12
786.397	40.55
786.573	41.2
786.749	39.93
786.926	41.55
787.102	43.16
787.278	42.18
787.454	39.83
787.631	39.07
787.807	37.06
787.983	38.34
788.159	37.47
788.335	34.77
788.511	35
788.687	31.94
788.863	32.78
789.039	34.75
789.216	32.34
789.392	32.39
789.568	32.46
789.744	34.04
789.919	34.3
790.095	34.86
790.271	37.88
790.447	38.52
790.623	43.4
790.799	43.01
790.975	40.84
791.151	42.16
791.327	45.51
791.502	44.22
791.678	45.91
791.854	44.87
792.03	45.48
792.205	45.82
792.381	44.66
792.557	42.84
792.733	43.18
792.908	43.05
793.084	43.81
793.259	42.43
793.435	45.26
793.611	45.84
793.786	45.37
793.962	44.66
794.137	43.06
794.313	43.93
794.488	43.4
794.664	42.58
794.839	42.12
795.015	42.73
795.19	41.54
795.366	38.34
795.541	36.72
795.716	38.56
795.892	36.43
796.067	34.42
796.242	38.01
796.418	38.29
796.593	37.84
796.768	37.36
796.944	37.6
797.119	38.34
797.294	37.94
797.469	37.93
797.644	35.94
797.82	35.97
797.995	37.92
798.17	36.02
798.345	36.57
798.52	35.73
798.695	36.56
798.87	34.92
799.045	36.12
799.22	40.15
799.395	39.29
799.57	41.52
799.745	40.31
799.92	40.62
800.095	40.11
800.27	39.14
800.445	37.86
800.62	35.24
800.795	36.73
800.97	38.75
801.145	36.81
801.319	36.02
801.494	33.89
801.669	35.21
801.844	35.43
802.018	35.5
802.193	35.51
802.368	35.15
802.543	37.31
802.717	38.38
802.892	34.9
803.067	35.47
803.241	37.87
803.416	39.38
803.59	42.25
803.765	42.45
803.94	40.59
804.114	39.54
804.289	39.42
804.463	39.11
804.638	37.77
804.812	35.96
804.986	37.68
805.161	39.84
805.335	36.21
805.51	34.65
805.684	33.53
805.858	34.52
806.033	33.51
806.207	32.49
806.381	35.09
806.556	34.63
806.73	37.43
806.904	36.47
807.078	33.77
807.253	36.19
807.427	38.42
807.601	38.93
807.775	38.23
807.949	41.49
808.123	42.99
808.298	43.09
808.472	43.09
808.646	39.47
808.82	37.11
808.994	33.89
809.168	33.79
809.342	30.64
809.516	32.23
809.69	30.42
809.864	28.52
810.038	33.2
810.212	30.88
810.385	31.61
810.559	34.6
810.733	35.41
810.907	37.69
811.081	38.23
811.255	36.62
811.428	36.39
811.602	39.07
811.776	38.52
811.95	35.52
812.123	37.01
812.297	36.76
812.471	35.62
812.644	34.41
812.818	35.12
812.992	32.39
813.165	31.9
813.339	31.37
813.512	30.47
813.686	35.78
813.86	37.93
814.033	33.55
814.207	34.5
814.38	37.58
814.554	43.71
814.727	44.1
814.9	44.98
815.074	48.07
815.247	45.83
815.421	46.93
815.594	42.11
815.767	39.74
815.941	45.41
816.114	41.94
816.287	42.54
816.46	36.38
816.634	34
816.807	35.19
816.98	37.62
817.153	36.64
817.327	33.55
817.5	33.44
817.673	33.97
817.846	30.56
818.019	33.52
818.192	35.11
818.365	33.1
818.538	37.11
818.711	34.75
818.884	31.22
819.057	27.77
819.23	29.35
819.403	31.6
819.576	28.59
819.749	29.91
819.922	28.1
820.095	26.66
820.268	30.17
820.441	29.53
820.614	33.44
820.786	35.64
820.959	39.31
821.132	37.85
821.305	37.74
821.477	39.12
821.65	39.13
821.823	39.73
821.996	39.52
822.168	39.69
822.341	39.35
822.514	38.85
822.686	38.67
822.859	38.72
823.031	39.44
823.204	39.47
823.376	39.53
823.549	39.53
823.722	39.9
823.894	40.43
824.067	40.62
824.239	40.5
824.411	41.32
824.584	41.5
824.756	41.18
824.929	41.31
825.101	42.29
825.273	42.85
825.446	42.6
825.618	42.09
825.79	41.71
825.963	40.94
826.135	41.26
826.307	40.1
826.479	39.39
826.652	39.36
826.824	38.9
826.996	38.16
827.168	36.64
827.34	36.35
827.512	36.94
827.684	37.42
827.856	37.98
828.029	36.99
828.201	37.63
828.373	38.81
828.545	38.13
828.717	37.96
828.889	36.74
829.061	37.79
829.232	38.02
829.404	37.59
829.576	36.63
829.748	36.56
829.92	38.22
830.092	37.88
830.264	36.49
830.436	37.3
830.607	37.49
830.779	38.43
830.951	38.39
831.123	40.05
831.294	39.69
831.466	37.27
831.638	35.79
831.809	33.9
831.981	33.87
832.153	33.53
832.324	33.35
832.496	32.73
832.667	30.43
832.839	31.78
833.011	29.05
833.182	31.66
833.354	31.22
833.525	37.2
833.697	39.66
833.868	39.94
834.039	40.41
834.211	42.73
834.382	42.47
834.554	45.45
834.725	44.78
834.896	45.49
835.068	42.93
835.239	45.31
835.41	44.28
835.581	44.54
835.753	44.51
835.924	44.69
836.095	42.9
836.266	43.91
836.438	41.56
836.609	41
836.78	41.32
836.951	42.06
837.122	42.61
837.293	40.03
837.464	39.26
837.635	39.33
837.806	40.35
837.977	38.99
838.148	39.09
838.319	36.31
838.49	38.85
838.661	39.04
838.832	39.15
839.003	33.66
839.174	27.34
839.345	21.74
839.516	16.66
839.687	4.92
839.857	13.43
840.028	14.83
840.199	21.96
840.37	17.77
840.54	22.74
840.711	25.41
840.882	29.68
841.053	36.25
841.223	39.42
841.394	40.45
841.564	41.43
841.735	37.25
841.906	37.03
842.076	33.75
842.247	33.27
842.417	29.97
842.588	28.03
842.758	27.05
842.929	24.21
843.099	18.99
843.27	17.8
843.44	28.05
843.611	27.16
843.781	18.85
843.951	23.95
844.122	27.31
844.292	24.15
844.462	25.42
844.633	30.17
844.803	31.92
844.973	33.21
845.144	29.2
845.314	15.96
845.484	22.14
845.654	29
845.824	18.77
845.995	14.52
846.165	15.24
846.335	17.98
846.505	-3.69
846.675	-4.62
846.845	-5.24
847.015	-7.93
847.185	-0.84
847.355	-21.31
847.525	-12.48
847.695	-19.64
847.865	-31.43
848.035	-29.91
848.205	-49.83
848.375	-27.41
848.545	-34.28
848.715	-34.18
848.884	-37.39
849.054	-64.63
849.224	-31.36
849.394	-47.64
849.564	-17.08
849.733	11.94
849.903	-2.95
850.073	-5.09
850.243	-2.36
850.412	-0.32
850.582	-5.45
850.752	-30.65
850.921	-2.75
851.091	-25.9
851.26	-25.44
851.43	-37.69
851.599	-72.04
851.769	-66.79
851.939	-63.98
852.108	-111.99
852.278	-125.54
852.447	-108.73
852.616	-30.36
852.786	-51.6
852.955	-23.28
853.125	-47.66
853.294	-36.18
853.463	-26.25
853.633	-36.89
853.802	-16.22
853.971	0.56
854.141	0.2
854.31	-1.09
854.479	-41.04
854.648	-11.47
854.818	-18.06
854.987	7.48
855.156	-12.59
855.325	-19.22
855.494	-50.03
855.663	-79.93
855.832	-100.4
856.001	-83.56
856.171	-107.74
856.34	-90.08
856.509	-84.63
856.678	-77.9
856.847	-55.35
857.016	-62.76
857.185	-40.33
857.353	5.75
857.522	-10.9
857.691	-0.91
857.86	-11.97
858.029	21.7
858.198	16.19
858.367	13.01
858.535	-5.15
858.704	-29.3
858.873	-11.76
859.042	-18.34
859.21	-37.75
859.379	-24.82
859.548	-37.73
859.717	-47.84
859.885	-62.13
860.054	-52.51
860.222	-59.74
860.391	-34.51
860.56	-11.41
860.728	0.63
860.897	3.39
861.065	5.68
861.234	11.77
861.402	9.82
861.571	17.31
861.739	33
861.908	31.57
862.076	30.06
862.244	27.37
862.413	14.4
862.581	-10.16
862.749	-29.85
862.918	-52.84
863.086	-101.33
863.254	-174.78
863.423	-373.61
863.591	-234.28
863.759	-301.78
863.927	-311.26
864.096	-1458.84
864.264	314.16
864.432	488.39
864.6	-652.36
864.768	-19.7
864.936	115.59
865.104	139.65
865.272	115.65
865.44	63.6
865.608	49.7
865.776	0.16
865.944	-13.44
866.112	8.46
866.28	-9.11
866.448	-5.39
866.616	-23.99
866.784	-27.6
866.952	-36.7
867.12	-53.72
867.288	-34.44
867.455	-26.19
867.623	-14.87
867.791	-4.64
867.959	-13.11
868.127	6.54
868.294	-4.43
868.462	-15.79
868.63	-25.58
868.797	-52.37
868.965	-74.19
869.133	-20.09
869.3	-34.49
869.468	-32.78
869.636	9.82
869.803	-18.77
869.971	-45.13
870.138	-23.68
870.306	-3.89
870.473	-3.03
870.641	1
870.808	0.54
870.975	-14.63
871.143	-4.76
871.31	11.24
871.478	-32.42
871.645	25.93
871.812	23.64
871.98	-0.41
872.147	-18.26
872.314	-18.07
872.482	-23.01
872.649	-49.13
872.816	28.09
872.983	-88.72
873.15	-55.38
873.318	-46.7
873.485	-123.91
873.652	-17.67
873.819	1.74
873.986	28.14
874.153	48.59
874.32	48.74
874.487	56.2
874.654	39.24
874.821	57.55
874.988	69.8
875.155	66.56
875.322	65.01
875.489	36.02
875.656	34.65
875.823	15.74
875.99	7.08
876.157	11.9
876.324	30.14
876.49	28.73
876.657	14.45
876.824	8.11
876.991	-2.17
877.157	-3.28
877.324	10.66
877.491	24.96
877.658	28.23
877.824	18.89
877.991	40.5
878.157	9.5
878.324	22.95
878.491	34.26
878.657	44.96
878.824	51.19
878.99	52.48
879.157	62.1
879.323	46.27
879.49	60.92
879.656	55.06
879.823	11.12
879.989	34.2
880.156	19.38
880.322	30.13
880.488	28.87
880.655	29.2
880.821	18.16
880.987	24.63
881.154	30.98
881.32	17.05
881.486	24.91
881.652	41.33
881.819	42.17
881.985	44.14
882.151	41.29
882.317	39.22
882.483	38.42
882.649	38.98
882.816	38.34
882.982	40.28
883.148	41.14
883.314	41.44
883.48	38.69
883.646	36.3
883.812	36.41
883.978	36.07
884.144	35.72
884.31	35.77
884.476	35.83
884.642	37.02
884.807	35.92
884.973	36.74
885.139	37.14
885.305	37.42
885.471	37.64
885.637	36.33
885.802	35.75
885.968	35.97
886.134	36.23
886.3	36.72
886.465	33.65
886.631	35.69
886.797	36.62
886.962	34.07
887.128	35.15
887.293	36.37
887.459	35.2
887.625	43.77
887.79	44.93
887.956	46.06
888.121	49.72
888.287	57.25
888.452	51.53
888.618	45.3
888.783	63.18
