Data from CB_105_Reflection_1.txt Node
Date: Sat Nov 14 17:59:42 EST 2015
User: robert
Spectrometer: USB4E03001
Autoset integration time: false
Trigger mode: 4
Integration Time (sec): 1.000000E-1
Scans to average: 15
Electric dark correction enabled: true
Nonlinearity correction enabled: false
Boxcar width: 5
Stray light correction enabled: false
XAxis mode: Wavelengths
Stop averaging: false
Number of Pixels in Spectrum: 3648
>>>>>Begin Spectral Data<<<<<
177.566	85.17
177.785	245.32
178.005	50
178.225	203
178.445	111.58
178.665	140.89
178.885	968.04
179.105	14.08
179.324	13.17
179.544	30.63
179.764	25.34
179.984	27.27
180.204	-22.92
180.423	-0.74
180.643	12.04
180.863	14.66
181.083	37.64
181.302	52.02
181.522	60.56
181.742	52.53
181.961	80.31
182.181	111.22
182.401	267.44
182.621	283.68
182.84	456.56
183.06	179.81
183.279	113.05
183.499	138.9
183.719	58.28
183.938	43.06
184.158	64.39
184.377	100.59
184.597	110.02
184.816	58.45
185.036	51.53
185.256	47.5
185.475	57.75
185.695	51.54
185.914	50.65
186.134	59.56
186.353	55.14
186.572	45.69
186.792	41.96
187.011	43.81
187.231	57.61
187.45	60.53
187.67	51.56
187.889	60.27
188.108	60.49
188.328	56.28
188.547	64.57
188.766	63.65
188.986	61.67
189.205	54.29
189.424	43.96
189.644	53.35
189.863	42.84
190.082	58.99
190.302	32.38
190.521	39.6
190.74	37.02
190.959	18.72
191.178	42.34
191.398	41.78
191.617	47.72
191.836	70.28
192.055	43.36
192.274	32.76
192.494	36.54
192.713	79.42
192.932	58.38
193.151	104.01
193.37	29.93
193.589	-56.19
193.808	-14.82
194.027	-172.58
194.246	316.03
194.465	-472.55
194.685	40.72
194.904	-5.83
195.123	9.86
195.342	-3.01
195.561	21.53
195.78	29
195.999	45.46
196.218	23.55
196.436	43.47
196.655	42.42
196.874	37.07
197.093	41.85
197.312	49.6
197.531	61.84
197.75	61.43
197.969	74.46
198.188	72.26
198.407	78.39
198.625	108.47
198.844	100.73
199.063	88.06
199.282	108.78
199.501	125.3
199.719	121.99
199.938	83.91
200.157	87.56
200.376	90.71
200.594	93.43
200.813	113.56
201.032	102.56
201.251	100.75
201.469	116.41
201.688	113.81
201.907	105.63
202.125	99.9
202.344	153.42
202.563	158.84
202.781	144.62
203	199.65
203.218	171.39
203.437	97.89
203.656	102.16
203.874	42.54
204.093	35.29
204.311	51.2
204.53	70.52
204.748	56.2
204.967	39.34
205.185	42.29
205.404	33.32
205.622	32.29
205.841	34.39
206.059	29.3
206.278	51.68
206.496	26.7
206.715	22.75
206.933	14.39
207.151	29.11
207.37	42.22
207.588	42.71
207.806	43.77
208.025	35.21
208.243	32.45
208.461	24.14
208.68	23.84
208.898	26.28
209.116	25.29
209.335	42.18
209.553	16.99
209.771	11.5
209.989	9.67
210.208	-1.71
210.426	2.37
210.644	12.21
210.862	8.03
211.081	8.4
211.299	11.25
211.517	34.06
211.735	21.21
211.953	49.01
212.171	58.83
212.39	56.83
212.608	66.44
212.826	72.11
213.044	75.53
213.262	85.24
213.48	86.74
213.698	84.32
213.916	87.59
214.134	80.58
214.352	77.12
214.57	64.43
214.788	69.56
215.006	70.05
215.224	70.32
215.442	87.71
215.66	96.32
215.878	77.59
216.096	93.26
216.314	87.23
216.532	90.87
216.75	102.22
216.968	129.8
217.185	121.9
217.403	115.98
217.621	102.55
217.839	56.38
218.057	42.2
218.275	47.38
218.492	91.32
218.71	87.24
218.928	70
219.146	54.16
219.363	68.5
219.581	91.21
219.799	134.3
220.017	142.26
220.234	139.03
220.452	160.7
220.67	198.33
220.887	269.86
221.105	318.58
221.323	5764.42
221.54	444.87
221.758	2236.79
221.976	703.88
222.193	136.8
222.411	193.71
222.629	436.92
222.846	429.17
223.064	-415.9
223.281	353.4
223.499	268.62
223.716	255.78
223.934	-221.7
224.151	-65.49
224.369	-27.58
224.586	19.18
224.804	48.18
225.021	69.81
225.239	59.83
225.456	58.5
225.674	40.86
225.891	39.74
226.108	18.05
226.326	27.54
226.543	45.65
226.76	26.78
226.978	14.34
227.195	1.67
227.413	-18.21
227.63	-13.78
227.847	-5.63
228.064	4.1
228.282	5.33
228.499	9.84
228.716	6.87
228.934	5.15
229.151	6.16
229.368	4.83
229.585	1.41
229.802	2.74
230.02	4.07
230.237	5.13
230.454	4.27
230.671	2.66
230.888	1.22
231.105	-1.53
231.323	-5.01
231.54	-11.61
231.757	-10.8
231.974	-10.16
232.191	-0.63
232.408	1.59
232.625	2.04
232.842	-3.59
233.059	3.43
233.276	-7.24
233.493	-2.31
233.71	8.86
233.927	12.82
234.144	8.83
234.361	7.98
234.578	-0.1
234.795	0.3
235.012	-1.91
235.229	-2.6
235.446	-10.53
235.663	-6.72
235.879	-8.21
236.096	-17.03
236.313	-26.39
236.53	-22.05
236.747	-19.6
236.964	-24.4
237.181	-27.37
237.397	-24.55
237.614	-22.54
237.831	-17.24
238.048	-11.91
238.264	-22.04
238.481	-19.34
238.698	-8.48
238.915	-3.79
239.131	-0.53
239.348	5.22
239.565	3.11
239.781	3.35
239.998	5.39
240.215	3.3
240.431	-1.5
240.648	4.91
240.865	8.02
241.081	7.81
241.298	6.59
241.514	8.31
241.731	8.92
241.947	8.72
242.164	7.77
242.38	9.24
242.597	10.2
242.814	12.4
243.03	12.56
243.246	12.7
243.463	12.12
243.679	11.69
243.896	11.98
244.112	10.85
244.329	10.76
244.545	11.71
244.762	10.8
244.978	12.65
245.194	9.69
245.411	8.22
245.627	7.85
245.843	7.72
246.06	6.35
246.276	5.52
246.492	7.81
246.709	8.35
246.925	8.08
247.141	8.87
247.357	8.22
247.574	8.71
247.79	9.83
248.006	9.37
248.222	9.63
248.439	9.99
248.655	9.2
248.871	8
249.087	8.19
249.303	8.68
249.519	7.82
249.736	8.05
249.952	8.22
250.168	9.14
250.384	8.78
250.6	9.12
250.816	8.84
251.032	9.87
251.248	8.88
251.464	6.91
251.68	5.87
251.896	4.35
252.112	3.03
252.328	1.88
252.544	-0.92
252.76	-1.47
252.976	-2.65
253.192	-1.79
253.408	-3.1
253.624	-1.52
253.84	-0.42
254.056	-0.72
254.272	-1.67
254.487	-2.82
254.703	-1.47
254.919	-2.08
255.135	-2.5
255.351	-3.72
255.567	-2.44
255.782	-0.41
255.998	-1.91
256.214	-3.1
256.43	-2.61
256.646	-1.52
256.861	1.92
257.077	0.42
257.293	4.1
257.508	7.98
257.724	9.28
257.94	10.66
258.155	10.65
258.371	10.1
258.587	8.84
258.802	8.8
259.018	9.02
259.234	8.25
259.449	7.81
259.665	6.93
259.88	6.48
260.096	6.47
260.312	5.55
260.527	5.69
260.743	5.31
260.958	5.76
261.174	5.65
261.389	6.14
261.605	6.52
261.82	6.86
262.036	7.45
262.251	7.04
262.466	8.37
262.682	8.98
262.897	8.48
263.113	10.52
263.328	12.93
263.543	10.38
263.759	7.42
263.974	6.42
264.189	7.77
264.405	5.14
264.62	5.81
264.835	4.33
265.051	5.26
265.266	5.37
265.481	5.38
265.696	2.37
265.912	5.15
266.127	6.26
266.342	8.18
266.557	7.32
266.773	7.07
266.988	5.98
267.203	5.46
267.418	4.59
267.633	5.54
267.848	4.66
268.064	5.75
268.279	5.58
268.494	6.28
268.709	5.85
268.924	7.48
269.139	7.92
269.354	10.27
269.569	11.21
269.784	11.39
269.999	11.51
270.214	11
270.429	10.58
270.644	10.56
270.859	9.16
271.074	7.05
271.289	5.14
271.504	5.34
271.719	5.03
271.934	3.36
272.149	4.05
272.363	2.98
272.578	4.65
272.793	4.3
273.008	3.96
273.223	4.64
273.438	4.55
273.653	6.5
273.867	5.87
274.082	4.81
274.297	5.39
274.512	4.43
274.726	3.98
274.941	2.29
275.156	3.44
275.371	5.31
275.585	5.11
275.8	5.84
276.015	3.22
276.229	4.84
276.444	3.34
276.659	2.49
276.873	2.94
277.088	3.5
277.302	3.5
277.517	2.3
277.732	0.35
277.946	-0.01
278.161	0.2
278.375	1.47
278.59	1.51
278.804	2.5
279.019	2.81
279.233	1.93
279.448	1.72
279.662	2.13
279.877	4.67
280.091	6.8
280.306	6.99
280.52	6.84
280.735	6.08
280.949	4.25
281.163	4.94
281.378	5.61
281.592	7.77
281.806	8.42
282.021	8.69
282.235	7.49
282.449	5.32
282.664	6.38
282.878	6.78
283.092	6.46
283.307	7.67
283.521	7.09
283.735	6.9
283.949	5.04
284.164	5.67
284.378	5.89
284.592	5.65
284.806	6.48
285.02	5.84
285.234	5.04
285.449	6.08
285.663	6.55
285.877	7
286.091	7.52
286.305	7.9
286.519	7.6
286.733	6.94
286.947	6.69
287.161	7.03
287.375	7.6
287.589	8.55
287.803	8.65
288.017	8.78
288.231	9.08
288.445	8.43
288.659	7.8
288.873	7.75
289.087	8.99
289.301	8.4
289.515	8.16
289.729	7.01
289.943	5.61
290.157	4.36
290.371	4.28
290.584	3.67
290.798	3.32
291.012	4.54
291.226	4.42
291.44	3.46
291.654	3.92
291.867	4.58
292.081	5.02
292.295	6.67
292.509	6.56
292.722	5.71
292.936	6.3
293.15	7.82
293.364	7.37
293.577	6.95
293.791	7.33
294.005	8.4
294.218	7.74
294.432	7.87
294.645	8.44
294.859	10.36
295.073	10.96
295.286	11.2
295.5	10.77
295.713	10.65
295.927	11.02
296.14	11.06
296.354	10.41
296.568	10.11
296.781	10.47
296.994	10.03
297.208	8.71
297.421	8.8
297.635	8.45
297.848	8.99
298.062	8.77
298.275	9.39
298.489	9.17
298.702	10.15
298.915	11.03
299.129	11.52
299.342	11.87
299.555	11.93
299.769	12.18
299.982	12.88
300.195	11.87
300.409	12.47
300.622	11.53
300.835	11.75
301.048	11.32
301.262	11.11
301.475	9.26
301.688	8.22
301.901	9.89
302.115	9.59
302.328	9.11
302.541	9.97
302.754	10.46
302.967	10.53
303.18	10.09
303.393	9.85
303.607	9.7
303.82	10.39
304.033	11.32
304.246	10.12
304.459	10.52
304.672	10.66
304.885	10.61
305.098	10.05
305.311	10.82
305.524	11.46
305.737	11.16
305.95	11.03
306.163	11.22
306.376	10.6
306.589	11.08
306.802	9.42
307.015	8.2
307.228	7.68
307.44	7.9
307.653	8.63
307.866	9.02
308.079	9.61
308.292	10.84
308.505	10.24
308.718	10.44
308.93	10.96
309.143	11.89
309.356	12.34
309.569	12.63
309.781	13.3
309.994	12.11
310.207	11.39
310.42	10.45
310.632	9.81
310.845	10.22
311.058	11.01
311.27	11.38
311.483	11.74
311.696	12.54
311.908	12.79
312.121	11.72
312.333	11.74
312.546	11.65
312.759	12.35
312.971	12.02
313.184	12.92
313.396	11.26
313.609	9.91
313.821	10.65
314.034	9.27
314.246	9.06
314.459	10.02
314.671	9.54
314.884	10.18
315.096	9.79
315.309	9.77
315.521	9.52
315.733	10.43
315.946	9.71
316.158	8.19
316.371	10.05
316.583	8.88
316.795	9.04
317.008	9.17
317.22	9.55
317.432	9.46
317.644	8.26
317.857	9.11
318.069	9.87
318.281	10.53
318.494	10.23
318.706	8.96
318.918	9.65
319.13	10.24
319.342	11.69
319.555	11.49
319.767	11.42
319.979	11.18
320.191	10.98
320.403	11.01
320.615	11.84
320.827	11.82
321.039	11.87
321.252	13.25
321.464	12.09
321.676	11.06
321.888	11.31
322.1	11.51
322.312	13.4
322.524	11.85
322.736	11.96
322.948	12.1
323.16	12.04
323.372	12.75
323.584	11.4
323.796	10.48
324.007	11.67
324.219	11.85
324.431	11.75
324.643	10.98
324.855	11.98
325.067	12.81
325.279	12
325.491	13.81
325.702	12.44
325.914	12.54
326.126	13.27
326.338	14.06
326.55	14.85
326.761	16.58
326.973	17.44
327.185	18.76
327.396	18.75
327.608	19.61
327.82	19.46
328.032	20.7
328.243	21.2
328.455	22.95
328.666	22.39
328.878	22.84
329.09	23.18
329.301	24.18
329.513	22.96
329.725	21.82
329.936	21.55
330.148	21.28
330.359	21.03
330.571	21.89
330.782	21.92
330.994	21.95
331.205	20.68
331.417	19.99
331.628	19.85
331.84	19.58
332.051	19.86
332.262	20.85
332.474	21.29
332.685	23.15
332.897	23.51
333.108	22.93
333.319	23.03
333.531	23.33
333.742	23.43
333.953	23.78
334.165	23.24
334.376	22.95
334.587	23.36
334.799	23.68
335.01	23.46
335.221	23.51
335.432	24.2
335.644	25.15
335.855	25.54
336.066	25.3
336.277	24.26
336.488	25.9
336.7	26.47
336.911	26.57
337.122	26.66
337.333	26.63
337.544	26.21
337.755	24.7
337.966	23.47
338.177	23.88
338.388	24.38
338.599	24.45
338.811	23.17
339.022	23.27
339.233	22.64
339.444	21.7
339.655	21.94
339.866	22.2
340.076	23.91
340.287	24.22
340.498	23.88
340.709	23.32
340.92	23.93
341.131	24.56
341.342	25.25
341.553	24.93
341.764	25.68
341.975	25.33
342.185	25.48
342.396	23.88
342.607	24.1
342.818	24.83
343.029	25.07
343.239	25.33
343.45	25.02
343.661	24.26
343.872	25.29
344.082	24.69
344.293	24.68
344.504	24.71
344.714	26.3
344.925	25.74
345.136	24.84
345.346	24.82
345.557	24.51
345.768	25.26
345.978	25.12
346.189	24.99
346.399	24.87
346.61	23.97
346.821	23.55
347.031	23.05
347.242	23.64
347.452	23.9
347.663	23.38
347.873	22.78
348.084	22.57
348.294	23.29
348.504	22.51
348.715	22.42
348.925	22.91
349.136	23.05
349.346	23.18
349.557	23.06
349.767	22.22
349.977	22.58
350.188	22.74
350.398	23.06
350.608	22.29
350.819	22.71
351.029	23.38
351.239	23.07
351.449	22.97
351.66	23.55
351.87	23.79
352.08	24.32
352.29	24.31
352.501	25.32
352.711	24.68
352.921	24.91
353.131	24.77
353.341	24.08
353.552	24.25
353.762	24.29
353.972	23.32
354.182	22.37
354.392	22.48
354.602	22.72
354.812	22.5
355.022	22.39
355.232	23.03
355.442	23.59
355.652	23.96
355.862	23.31
356.072	23.46
356.282	23.37
356.492	24.14
356.702	23.71
356.912	23.42
357.122	23.47
357.332	23.57
357.542	22.45
357.752	22.19
357.962	22.33
358.171	22.74
358.381	23.16
358.591	23.37
358.801	22.84
359.011	23.31
359.221	23.21
359.43	22.2
359.64	22.1
359.85	22.6
360.06	22.11
360.269	22.02
360.479	22.39
360.689	21.99
360.899	21.64
361.108	21.81
361.318	21.85
361.528	21.86
361.737	22.38
361.947	22.36
362.156	22.33
362.366	22.19
362.576	22.02
362.785	22.08
362.995	22.13
363.204	22.05
363.414	22.21
363.623	21.85
363.833	21.93
364.042	21.78
364.252	21.81
364.461	21.99
364.671	22.72
364.88	23.08
365.09	22.7
365.299	22.52
365.509	22.08
365.718	21.71
365.927	21.56
366.137	21.02
366.346	20.96
366.555	20.84
366.765	20.34
366.974	19.47
367.183	18.64
367.393	19.11
367.602	18.88
367.811	19.93
368.021	19.9
368.23	20.15
368.439	20.27
368.648	20.94
368.857	20.51
369.067	20.47
369.276	20.07
369.485	19.79
369.694	19.42
369.903	19.37
370.112	18.44
370.321	18.94
370.531	18.96
370.74	19.4
370.949	19.03
371.158	19.75
371.367	19.86
371.576	20.08
371.785	20.7
371.994	20.08
372.203	20.05
372.412	20.48
372.621	19.99
372.83	19.85
373.039	19.77
373.248	19.29
373.457	18.86
373.666	18.81
373.874	18.81
374.083	18.31
374.292	18.18
374.501	17.9
374.71	17.22
374.919	17.66
375.128	17.42
375.336	17.46
375.545	17.43
375.754	17.04
375.963	17.28
376.171	17.25
376.38	17.44
376.589	17.59
376.798	17.26
377.006	17.28
377.215	16.47
377.424	16.29
377.632	15.81
377.841	15.76
378.05	15.57
378.258	15.11
378.467	15.01
378.675	14.99
378.884	14.72
379.093	14.8
379.301	14.91
379.51	15.12
379.718	15.15
379.927	15.18
380.135	15.37
380.344	15.88
380.552	15.41
380.761	15.92
380.969	15.91
381.177	16.41
381.386	16.44
381.594	16.83
381.803	16.55
382.011	16.64
382.219	16.59
382.428	16.32
382.636	16.28
382.845	16.61
383.053	15.78
383.261	15.36
383.469	14.94
383.678	15.19
383.886	15.02
384.094	15.11
384.302	14.33
384.511	14.41
384.719	14.56
384.927	14.39
385.135	14.52
385.343	14.68
385.552	14.77
385.76	14.38
385.968	13.84
386.176	13.3
386.384	13.46
386.592	13.91
386.8	13.31
387.008	13.09
387.216	13.39
387.424	13.26
387.633	13.51
387.841	13.65
388.049	14.14
388.257	14.29
388.465	14.66
388.672	14.11
388.88	14.02
389.088	14.2
389.296	13.97
389.504	13.42
389.712	13.67
389.92	13.53
390.128	13.39
390.336	13.14
390.544	13.12
390.751	12.82
390.959	13.17
391.167	13.18
391.375	13.04
391.583	13.09
391.79	12.7
391.998	12.29
392.206	12.2
392.414	11.87
392.621	11.62
392.829	11.21
393.037	11.18
393.244	10.99
393.452	10.52
393.66	11.03
393.867	11.02
394.075	11.59
394.283	11.5
394.49	11.49
394.698	11.67
394.905	11.95
395.113	12.25
395.32	12.57
395.528	12.5
395.735	12.86
395.943	12.54
396.15	12.17
396.358	11.72
396.565	12.13
396.773	12.09
396.98	11.82
397.188	11.85
397.395	11.87
397.602	11.57
397.81	11.95
398.017	12.17
398.225	12.16
398.432	12.15
398.639	12.07
398.847	11.77
399.054	11.75
399.261	11.91
399.468	11.89
399.676	11.81
399.883	11.79
400.09	11.51
400.297	11.34
400.505	11.23
400.712	11.6
400.919	11.36
401.126	11.2
401.333	11.23
401.54	11.51
401.748	11.4
401.955	11.37
402.162	11.15
402.369	11.01
402.576	11.07
402.783	11.04
402.99	11.07
403.197	11.42
403.404	11.56
403.611	11.41
403.818	11.04
404.025	11.02
404.232	11.07
404.439	11.44
404.646	11.68
404.853	11.53
405.06	11.38
405.267	11.25
405.474	11.17
405.681	11.23
405.887	11.09
406.094	10.95
406.301	11.04
406.508	10.9
406.715	10.46
406.922	10.14
407.128	10.31
407.335	10.74
407.542	10.77
407.749	11.02
407.955	10.92
408.162	11.3
408.369	11.41
408.575	11.4
408.782	11.46
408.989	11.5
409.195	11.7
409.402	11.35
409.609	11.09
409.815	11.13
410.022	10.92
410.228	10.75
410.435	10.55
410.642	10.92
410.848	10.66
411.055	10.7
411.261	10.89
411.468	10.73
411.674	11.03
411.881	10.82
412.087	10.84
412.294	11.05
412.5	11.28
412.706	11.23
412.913	10.71
413.119	10.88
413.326	10.85
413.532	11.01
413.738	10.98
413.945	10.85
414.151	11.06
414.357	10.85
414.564	10.55
414.77	10.27
414.976	10.49
415.182	10.63
415.389	10.57
415.595	10.51
415.801	10.25
416.007	10.44
416.214	10.42
416.42	10.45
416.626	10.35
416.832	10.46
417.038	10.68
417.244	10.6
417.45	10.86
417.657	10.62
417.863	10.49
418.069	10.55
418.275	10.11
418.481	10.1
418.687	10.04
418.893	10.19
419.099	10.13
419.305	9.92
419.511	9.82
419.717	9.62
419.923	9.63
420.129	9.86
420.335	9.82
420.541	10.19
420.746	10.14
420.952	10.13
421.158	10.15
421.364	10.02
421.57	10.12
421.776	10.04
421.982	9.87
422.187	9.91
422.393	9.83
422.599	9.74
422.805	9.52
423.01	9.58
423.216	9.45
423.422	9.45
423.628	9.56
423.833	9.45
424.039	9.61
424.245	9.81
424.45	9.97
424.656	10
424.862	10.04
425.067	10.11
425.273	9.96
425.478	10.16
425.684	10.12
425.889	9.99
426.095	10.24
426.301	10.11
426.506	10.04
426.712	9.82
426.917	10.02
427.123	9.96
427.328	10.01
427.533	10.22
427.739	10.15
427.944	10.28
428.15	10.32
428.355	9.94
428.561	9.95
428.766	10.1
428.971	10.15
429.177	9.82
429.382	9.92
429.587	9.56
429.793	9.45
429.998	9.61
430.203	9.23
430.408	9.56
430.614	9.73
430.819	9.84
431.024	9.81
431.229	9.91
431.434	9.95
431.64	9.99
431.845	10.35
432.05	10.26
432.255	10
432.46	10.17
432.665	9.87
432.87	9.89
433.076	9.74
433.281	9.7
433.486	9.73
433.691	9.82
433.896	9.84
434.101	9.84
434.306	10.1
434.511	10.36
434.716	10.73
434.921	11.14
435.126	11.36
435.331	11.77
435.535	12.02
435.74	12.15
435.945	12.22
436.15	12.1
436.355	11.95
436.56	11.79
436.765	11.5
436.97	11.15
437.174	10.91
437.379	10.75
437.584	10.47
437.789	10.29
437.993	10.14
438.198	9.88
438.403	10.13
438.608	10.05
438.812	10.12
439.017	10.22
439.222	10.2
439.426	10.15
439.631	10.07
439.836	10.07
440.04	10.1
440.245	10.17
440.45	10.14
440.654	9.95
440.859	10.02
441.063	9.99
441.268	9.9
441.472	9.83
441.677	9.95
441.881	9.95
442.086	10.07
442.29	9.94
442.495	9.9
442.699	9.97
442.904	9.96
443.108	9.9
443.312	9.85
443.517	9.94
443.721	9.81
443.925	9.7
444.13	9.69
444.334	9.61
444.538	9.73
444.743	9.53
444.947	9.52
445.151	9.59
445.356	9.81
445.56	9.83
445.764	10.03
445.968	10.07
446.173	9.99
446.377	9.77
446.581	9.61
446.785	9.47
446.989	9.63
447.193	9.53
447.398	9.58
447.602	9.55
447.806	9.46
448.01	9.11
448.214	9.15
448.418	9.07
448.622	9.11
448.826	9.06
449.03	9.22
449.234	9.16
449.438	9.34
449.642	9.14
449.846	8.87
450.05	8.98
450.254	9.04
450.458	9.05
450.662	9.27
450.866	9.39
451.069	9.67
451.273	9.57
451.477	9.75
451.681	9.53
451.885	9.76
452.089	9.73
452.292	9.62
452.496	9.68
452.7	9.83
452.904	9.78
453.107	9.83
453.311	9.78
453.515	9.79
453.719	9.61
453.922	9.78
454.126	9.6
454.33	9.66
454.533	9.57
454.737	9.59
454.94	9.37
455.144	9.52
455.348	9.58
455.551	9.5
455.755	9.48
455.958	9.48
456.162	9.48
456.365	9.5
456.569	9.57
456.772	9.87
456.976	9.94
457.179	9.8
457.383	9.67
457.586	9.74
457.79	9.79
457.993	9.99
458.196	9.91
458.4	9.89
458.603	9.9
458.807	9.85
459.01	9.63
459.213	9.63
459.417	9.84
459.62	9.61
459.823	9.52
460.026	9.5
460.23	9.36
460.433	9.43
460.636	9.51
460.839	9.53
461.042	9.49
461.246	9.56
461.449	9.52
461.652	9.45
461.855	9.61
462.058	9.61
462.261	9.69
462.464	9.68
462.668	9.75
462.871	9.54
463.074	9.54
463.277	9.84
463.48	9.75
463.683	9.7
463.886	9.58
464.089	9.56
464.292	9.67
464.495	9.58
464.698	9.6
464.901	9.46
465.104	9.59
465.306	9.56
465.509	9.22
465.712	9.27
465.915	9.27
466.118	9.35
466.321	9.45
466.524	9.41
466.726	9.5
466.929	9.17
467.132	9.2
467.335	9
467.538	9.06
467.74	9.12
467.943	9.07
468.146	9.18
468.348	9.16
468.551	9.23
468.754	9.31
468.956	9.13
469.159	9.47
469.362	9.5
469.564	9.69
469.767	9.7
469.969	9.81
470.172	9.95
470.375	9.74
470.577	9.8
470.78	9.68
470.982	9.69
471.185	9.81
471.387	9.68
471.59	9.63
471.792	9.46
471.995	9.4
472.197	9.31
472.399	9.03
472.602	9.03
472.804	8.93
473.007	8.77
473.209	8.65
473.411	8.47
473.614	8.63
473.816	8.72
474.018	8.81
474.22	8.97
474.423	9.11
474.625	9.34
474.827	9.4
475.03	9.5
475.232	9.59
475.434	9.8
475.636	9.94
475.838	9.76
476.04	9.75
476.243	9.71
476.445	9.58
476.647	9.51
476.849	9.42
477.051	9.37
477.253	9.26
477.455	9.1
477.657	8.95
477.859	8.84
478.061	8.86
478.263	8.83
478.465	8.82
478.667	8.82
478.869	8.82
479.071	8.87
479.273	8.93
479.475	9.09
479.677	9.33
479.879	9.36
480.081	9.43
480.283	9.48
480.485	9.45
480.686	9.59
480.888	9.62
481.09	9.57
481.292	9.59
481.494	9.58
481.695	9.55
481.897	9.57
482.099	9.54
482.301	9.59
482.502	9.61
482.704	9.68
482.906	9.62
483.107	9.62
483.309	9.67
483.511	9.7
483.712	9.75
483.914	9.72
484.115	9.7
484.317	9.75
484.519	9.69
484.72	9.64
484.922	9.63
485.123	9.7
485.325	9.68
485.526	9.7
485.728	9.75
485.929	9.75
486.131	9.73
486.332	9.75
486.534	9.77
486.735	9.84
486.936	9.97
487.138	9.98
487.339	9.89
487.541	10
487.742	10.01
487.943	10.01
488.144	10.03
488.346	10.08
488.547	10.07
488.748	10.08
488.95	10.07
489.151	10
489.352	9.97
489.553	10.03
489.755	9.94
489.956	9.82
490.157	9.77
490.358	9.65
490.559	9.69
490.76	9.65
490.961	9.57
491.163	9.61
491.364	9.63
491.565	9.6
491.766	9.58
491.967	9.57
492.168	9.63
492.369	9.54
492.57	9.59
492.771	9.54
492.972	9.62
493.173	9.56
493.374	9.63
493.575	9.6
493.776	9.64
493.976	9.62
494.177	9.53
494.378	9.51
494.579	9.68
494.78	9.75
494.981	9.73
495.182	9.79
495.382	9.92
495.583	9.78
495.784	9.89
495.985	10.01
496.185	10.09
496.386	10.05
496.587	10.09
496.788	10.05
496.988	9.98
497.189	10.14
497.39	10.09
497.59	10.07
497.791	10.03
497.992	9.97
498.192	9.89
498.393	9.91
498.593	10.07
498.794	9.91
498.994	9.97
499.195	9.92
499.395	9.85
499.596	9.73
499.796	9.82
499.997	9.97
500.197	10.02
500.398	10.07
500.598	10.02
500.799	10.06
500.999	10.14
501.199	10.05
501.4	10.1
501.6	9.96
501.801	10.1
502.001	10.19
502.201	10.31
502.402	10.36
502.602	10.32
502.802	10.24
503.002	10.33
503.203	10.45
503.403	10.5
503.603	10.51
503.803	10.64
504.003	10.56
504.204	10.37
504.404	10.29
504.604	10.29
504.804	10.35
505.004	10.59
505.204	10.44
505.404	10.58
505.604	10.5
505.804	10.57
506.005	10.64
506.205	10.88
506.405	10.96
506.605	10.82
506.805	10.83
507.005	10.71
507.204	10.62
507.404	10.65
507.604	10.52
507.804	10.68
508.004	10.58
508.204	10.56
508.404	10.39
508.604	10.48
508.804	10.65
509.003	10.77
509.203	10.87
509.403	11.07
509.603	11.11
509.803	11.26
510.002	11.31
510.202	11.38
510.402	11.36
510.602	11.4
510.801	11.48
511.001	11.32
511.201	11.33
511.4	11.29
511.6	11.2
511.8	11.39
511.999	11.31
512.199	11.11
512.398	11.23
512.598	11.47
512.797	11.56
512.997	11.57
513.197	11.74
513.396	11.62
513.596	11.82
513.795	12.05
513.994	11.8
514.194	11.91
514.393	12.16
514.593	12.3
514.792	12.32
514.992	12.47
515.191	12.49
515.39	12.6
515.59	12.85
515.789	12.89
515.988	12.76
516.188	13.11
516.387	13.2
516.586	13.29
516.786	13.16
516.985	13.03
517.184	13
517.383	13
517.582	12.85
517.782	12.95
517.981	12.97
518.18	13.14
518.379	13.21
518.578	13.21
518.777	13.18
518.976	13.32
519.176	13.48
519.375	13.5
519.574	13.67
519.773	13.87
519.972	13.92
520.171	13.91
520.37	13.83
520.569	13.89
520.768	13.97
520.967	14.12
521.166	14.17
521.365	14.19
521.564	14.3
521.762	14.42
521.961	14.57
522.16	14.69
522.359	14.89
522.558	15.08
522.757	15.18
522.956	15.48
523.154	15.8
523.353	15.97
523.552	16.27
523.751	16.43
523.949	16.53
524.148	16.62
524.347	16.63
524.546	16.79
524.744	16.84
524.943	16.8
525.142	16.64
525.34	16.52
525.539	16.51
525.737	16.57
525.936	16.75
526.135	16.83
526.333	16.89
526.532	16.95
526.73	16.99
526.929	17.05
527.127	17.16
527.326	17.31
527.524	17.33
527.723	17.51
527.921	17.48
528.12	17.49
528.318	17.52
528.516	17.62
528.715	17.73
528.913	17.85
529.112	17.87
529.31	17.99
529.508	18.08
529.707	18.23
529.905	18.24
530.103	18.37
530.301	18.44
530.5	18.62
530.698	18.7
530.896	18.77
531.094	18.86
531.293	19.12
531.491	19.18
531.689	19.26
531.887	19.38
532.085	19.56
532.283	19.63
532.481	19.84
532.68	19.89
532.878	20.03
533.076	20.21
533.274	20.32
533.472	20.36
533.67	20.48
533.868	20.55
534.066	20.68
534.264	20.81
534.462	20.94
534.66	21
534.858	21.13
535.056	21.26
535.253	21.39
535.451	21.53
535.649	21.75
535.847	21.93
536.045	22.22
536.243	22.35
536.441	22.56
536.638	22.69
536.836	22.87
537.034	22.92
537.232	23.03
537.43	23.05
537.627	23.2
537.825	23.35
538.023	23.44
538.22	23.54
538.418	23.74
538.616	24
538.813	24.35
539.011	24.73
539.209	25.2
539.406	25.68
539.604	26.18
539.801	26.62
539.999	27.16
540.196	27.69
540.394	28.11
540.591	28.55
540.789	28.87
540.986	29.19
541.184	29.49
541.381	29.69
541.579	29.81
541.776	29.99
541.974	30.18
542.171	30.33
542.368	30.47
542.566	30.67
542.763	30.84
542.96	30.94
543.158	31.2
543.355	31.38
543.552	31.87
543.75	32.39
543.947	32.97
544.144	33.71
544.341	34.5
544.539	35.39
544.736	36.4
544.933	37.45
545.13	38.51
545.327	39.38
545.524	40.36
545.722	40.79
545.919	41.19
546.116	41.26
546.313	41.04
546.51	40.65
546.707	40.24
546.904	39.37
547.101	38.52
547.298	37.72
547.495	36.84
547.692	35.91
547.889	35.24
548.086	34.63
548.283	34.1
548.48	33.67
548.677	33.26
548.874	32.84
549.07	32.76
549.267	32.63
549.464	32.45
549.661	32.17
549.858	31.98
550.055	31.62
550.251	31.4
550.448	30.97
550.645	30.68
550.842	30.35
551.038	30.06
551.235	30.13
551.432	29.83
551.628	29.65
551.825	29.63
552.022	29.45
552.218	29.34
552.415	29.29
552.612	29.23
552.808	29.12
553.005	29.23
553.201	29.11
553.398	28.75
553.594	28.72
553.791	28.74
553.987	28.55
554.184	28.6
554.38	28.65
554.577	28.48
554.773	28.62
554.97	28.56
555.166	28.42
555.362	28.61
555.559	28.6
555.755	28.56
555.952	28.35
556.148	28.54
556.344	28.64
556.541	28.67
556.737	28.74
556.933	28.78
557.129	28.78
557.326	28.83
557.522	28.95
557.718	29.14
557.914	29.18
558.11	29.37
558.307	29.34
558.503	29.13
558.699	29.11
558.895	29.02
559.091	28.98
559.287	29.11
559.483	29.3
559.679	29.16
559.876	29.07
560.072	29.19
560.268	29.26
560.464	29.67
560.66	29.87
560.856	29.95
561.052	30.14
561.247	30.14
561.443	30.17
561.639	29.97
561.835	29.71
562.031	29.84
562.227	29.82
562.423	29.75
562.619	29.5
562.815	29.44
563.01	29.56
563.206	29.55
563.402	29.75
563.598	29.54
563.793	29.68
563.989	29.99
564.185	29.91
564.381	29.95
564.576	30.16
564.772	29.97
564.968	29.96
565.163	29.8
565.359	29.95
565.555	29.91
565.75	29.98
565.946	29.97
566.141	29.94
566.337	30.09
566.532	30.04
566.728	30.04
566.923	30.14
567.119	30.02
567.314	30.04
567.51	30.06
567.705	30.06
567.901	30.06
568.096	30.05
568.292	30.03
568.487	30
568.682	30.12
568.878	30.13
569.073	30.2
569.268	30.45
569.464	30.49
569.659	30.33
569.854	30.31
570.05	30.52
570.245	30.73
570.44	30.76
570.635	30.69
570.831	30.66
571.026	30.49
571.221	30.58
571.416	30.55
571.611	30.63
571.806	30.57
572.002	30.73
572.197	30.77
572.392	30.76
572.587	30.75
572.782	30.77
572.977	30.83
573.172	31.03
573.367	30.9
573.562	30.88
573.757	30.71
573.952	30.66
574.147	30.58
574.342	30.68
574.537	30.66
574.732	30.86
574.927	31.09
575.121	31.11
575.316	31.21
575.511	31.59
575.706	31.82
575.901	32.13
576.096	32.58
576.29	32.73
576.485	32.85
576.68	33.23
576.875	33.47
577.069	33.56
577.264	33.81
577.459	33.87
577.654	34.05
577.848	34.14
578.043	34.38
578.238	34.47
578.432	34.61
578.627	34.71
578.821	34.58
579.016	34.56
579.21	34.69
579.405	34.79
579.6	34.77
579.794	34.67
579.989	34.5
580.183	34.22
580.378	34.13
580.572	34.1
580.766	34.06
580.961	34.19
581.155	34.14
581.35	34.17
581.544	34.05
581.738	34.31
581.933	34.23
582.127	34.47
582.321	34.81
582.516	34.65
582.71	34.57
582.904	34.6
583.099	34.54
583.293	34.87
583.487	35.06
583.681	34.95
583.875	34.66
584.07	34.75
584.264	34.86
584.458	34.75
584.652	35.04
584.846	35.6
585.04	35.66
585.234	35.85
585.428	35.83
585.623	35.99
585.817	36.36
586.011	36.68
586.205	36.95
586.399	37.07
586.593	37.22
586.787	37.65
586.981	37.53
587.174	37.61
587.368	37.41
587.562	37.17
587.756	36.87
587.95	36.8
588.144	36.76
588.338	36.54
588.532	36.29
588.725	36.38
588.919	36.05
589.113	35.85
589.307	35.87
589.501	35.82
589.694	36.04
589.888	35.98
590.082	35.89
590.275	35.64
590.469	35.62
590.663	35.51
590.856	35.53
591.05	35.66
591.244	35.86
591.437	35.93
591.631	36.13
591.824	36.38
592.018	36.55
592.212	36.74
592.405	37.31
592.599	37.27
592.792	37.59
592.986	37.49
593.179	37.49
593.372	37.49
593.566	37.36
593.759	37.15
593.953	37.04
594.146	36.6
594.339	36.32
594.533	35.99
594.726	35.95
594.92	35.81
595.113	35.73
595.306	35.22
595.499	35.02
595.693	34.85
595.886	34.84
596.079	34.42
596.272	34.57
596.466	34.47
596.659	34.55
596.852	34.48
597.045	34.56
597.238	34.62
597.431	35.04
597.624	35.29
597.818	35.57
598.011	35.61
598.204	35.87
598.397	36.07
598.59	36.4
598.783	36.36
598.976	36.73
599.169	37.01
599.362	37.14
599.555	37.12
599.748	37.02
599.941	36.64
600.134	36.89
600.326	36.87
600.519	36.69
600.712	36.7
600.905	36.73
601.098	36.29
601.291	35.76
601.483	35.62
601.676	35.2
601.869	35.05
602.062	35.1
602.255	34.71
602.447	34.65
602.64	34.61
602.833	34.62
603.025	34.43
603.218	34.41
603.411	34.34
603.603	34.31
603.796	34.42
603.989	34.38
604.181	34.39
604.374	34.53
604.566	34.56
604.759	34.47
604.951	34.51
605.144	34.68
605.336	34.78
605.529	35.1
605.721	35.21
605.914	35.39
606.106	35.61
606.299	35.77
606.491	35.96
606.683	36.19
606.876	36.41
607.068	36.56
607.26	36.8
607.453	37.24
607.645	37.36
607.837	37.8
608.03	38.41
608.222	39.17
608.414	40.18
608.606	41.29
608.799	42.68
608.991	44.87
609.183	47.14
609.375	50.05
609.567	53.39
609.759	57
609.952	60.79
610.144	65.04
610.336	69.38
610.528	73.79
610.72	78.19
610.912	82.25
611.104	85.71
611.296	88.57
611.488	90.41
611.68	91.65
611.872	91.83
612.064	91.63
612.256	89.97
612.448	87.86
612.64	85.46
612.832	82.35
613.023	79.51
613.215	76.33
613.407	73.17
613.599	70.53
613.791	67.69
613.983	65.49
614.174	63.14
614.366	61.22
614.558	59.36
614.75	57.65
614.941	56.03
615.133	54.38
615.325	52.57
615.516	51.58
615.708	50.1
615.9	48.97
616.091	47.63
616.283	46.4
616.475	45.46
616.666	44.36
616.858	43.43
617.049	42.68
617.241	41.97
617.432	41.91
617.624	41.18
617.815	40.66
618.007	40.05
618.198	39.9
618.39	39.38
618.581	39
618.773	38.97
618.964	38.94
619.155	39.1
619.347	38.98
619.538	38.79
619.729	39.09
619.921	39.01
620.112	38.77
620.303	38.63
620.494	38.64
620.686	38.99
620.877	39.25
621.068	39.13
621.259	39.05
621.451	39.1
621.642	39.01
621.833	38.67
622.024	38.91
622.215	39.26
622.406	39.29
622.597	39.68
622.788	39.46
622.98	39.38
623.171	39.66
623.362	39.63
623.553	39.74
623.744	40.2
623.935	40.46
624.126	40.2
624.317	39.81
624.508	40.07
624.698	39.91
624.889	39.82
625.08	39.78
625.271	39.81
625.462	39.6
625.653	39.41
625.844	39
626.034	38.97
626.225	39.18
626.416	39.51
626.607	39.02
626.798	39.13
626.988	39.47
627.179	39.48
627.37	39.46
627.56	39.59
627.751	39.72
627.942	40.01
628.132	39.93
628.323	39.92
628.514	39.96
628.704	40.51
628.895	40.54
629.085	40.66
629.276	40.96
629.466	41.08
629.657	41.17
629.847	41.59
630.038	41.6
630.228	41.85
630.419	42.45
630.609	42.47
630.8	42.57
630.99	42.4
631.181	42.13
631.371	41.88
631.561	41.46
631.752	41.5
631.942	40.95
632.132	40.61
632.323	39.8
632.513	39.01
632.703	39.1
632.893	38.46
633.084	38.26
633.274	38.09
633.464	37.96
633.654	37.91
633.844	37.34
634.034	37.03
634.225	36.74
634.415	36.73
634.605	36.36
634.795	35.97
634.985	36.22
635.175	36.32
635.365	36.52
635.555	36.24
635.745	36.05
635.935	36.25
636.125	36.56
636.315	36.63
636.505	36.66
636.695	37.21
636.885	37.24
637.075	37.22
637.265	37.17
637.455	36.91
637.644	36.86
637.834	36.89
638.024	36.59
638.214	36.59
638.404	36.5
638.593	36.41
638.783	36.27
638.973	36.19
639.163	36
639.352	35.71
639.542	35.73
639.732	35.99
639.921	35.7
640.111	35.75
640.301	35.39
640.49	35.57
640.68	35.67
640.87	35.62
641.059	35.41
641.249	35.81
641.438	36.08
641.628	36.25
641.817	35.96
642.007	36.23
642.196	36.58
642.386	36.98
642.575	36.49
642.764	37.33
642.954	37.24
643.143	37.32
643.333	37.48
643.522	37
643.711	37
643.901	37.06
644.09	36.91
644.279	36.98
644.469	36.51
644.658	36.82
644.847	36.14
645.036	36.31
645.226	36.28
645.415	35.54
645.604	35.98
645.793	35.92
645.982	36.38
646.171	36.56
646.361	36.23
646.55	36.25
646.739	36.17
646.928	36.36
647.117	36.44
647.306	36.95
647.495	37.3
647.684	37.53
647.873	37.22
648.062	36.61
648.251	36.84
648.44	36.87
648.629	37.3
648.818	37.54
649.007	37.76
649.196	37.66
649.384	37.28
649.573	37.72
649.762	37.98
649.951	38.26
650.14	38.45
650.328	38.12
650.517	38.4
650.706	38.14
650.895	38.1
651.083	38
651.272	37.82
651.461	38.12
651.65	37.61
651.838	37.42
652.027	37.13
652.216	37.42
652.404	37.75
652.593	37.95
652.781	38.09
652.97	38.39
653.158	38.33
653.347	38.61
653.535	38.33
653.724	38.45
653.912	38.51
654.101	38.92
654.289	38.36
654.478	38.15
654.666	37.65
654.855	38.14
655.043	37.93
655.231	37.61
655.42	37.63
655.608	37.71
655.796	38.03
655.985	37.85
656.173	37.6
656.361	37.76
656.55	37.61
656.738	37.82
656.926	37.22
657.114	37.32
657.302	37.29
657.491	36.91
657.679	36.93
657.867	36.83
658.055	36.78
658.243	36.66
658.431	36.45
658.619	36.79
658.807	36.56
658.996	36.34
659.184	36.3
659.372	36.64
659.56	36.77
659.748	36.83
659.936	36.79
660.124	36.86
660.311	36.99
660.499	37.54
660.687	37.12
660.875	37.21
661.063	37.68
661.251	37.64
661.439	37.47
661.627	37.71
661.814	37.77
662.002	37.77
662.19	37.53
662.378	37.82
662.565	37.54
662.753	38.06
662.941	38.38
663.129	38.05
663.316	38.32
663.504	38.44
663.692	38.36
663.879	38.26
664.067	38.29
664.254	38.41
664.442	38.28
664.63	38.21
664.817	37.87
665.005	37.66
665.192	37.37
665.38	37.32
665.567	37.23
665.755	37.32
665.942	37.15
666.13	36.85
666.317	37.06
666.504	36.66
666.692	36.64
666.879	37.2
667.067	37.18
667.254	37.54
667.441	37.71
667.629	37.82
667.816	37.59
668.003	36.97
668.19	36.93
668.378	36.97
668.565	37.49
668.752	37.54
668.939	37.41
669.127	37.56
669.314	37.77
669.501	37.55
669.688	37.36
669.875	37.51
670.062	38.19
670.249	38.22
670.436	38.08
670.623	37.75
670.81	38.06
670.997	37.8
671.184	37.67
671.371	37.73
671.558	37.55
671.745	37.25
671.932	36.99
672.119	36.93
672.306	37.06
672.493	37.68
672.68	37.93
672.867	37.64
673.054	37.65
673.24	37.61
673.427	37.28
673.614	37.46
673.801	38
673.988	38.19
674.174	38.16
674.361	38.38
674.548	37.57
674.734	37.69
674.921	37.43
675.108	37.34
675.294	37.61
675.481	37.63
675.668	37.41
675.854	37.08
676.041	36.89
676.227	36.85
676.414	36.39
676.601	36.82
676.787	36.6
676.974	36.7
677.16	36.75
677.347	36.45
677.533	36.8
677.719	36.94
677.906	36.71
678.092	37.07
678.279	37.78
678.465	37.96
678.651	37.38
678.838	37.55
679.024	37.4
679.21	37.63
679.397	38.17
679.583	37.55
679.769	37.68
679.955	37.94
680.142	37.78
680.328	37.65
680.514	38
680.7	38.15
680.886	38.1
681.073	38.16
681.259	37.82
681.445	36.81
681.631	36.98
681.817	36.67
682.003	36.6
682.189	36.64
682.375	36.17
682.561	35.8
682.747	35.76
682.933	35.21
683.119	35.63
683.305	35.99
683.491	36.38
683.677	36.9
683.863	37.13
684.049	36.97
684.235	36.69
684.42	36.79
684.606	37.09
684.792	37.65
684.978	38.01
685.164	38.25
685.349	38.03
685.535	38.53
685.721	38.63
685.907	38.41
686.092	39.56
686.278	39.92
686.464	39.8
686.649	38.85
686.835	38.62
687.021	38.3
687.206	37.88
687.392	38.16
687.577	38.01
687.763	37.89
687.948	38.03
688.134	37.37
688.319	37.18
688.505	37.27
688.69	37.64
688.876	37.65
689.061	38.68
689.247	38.78
689.432	38.14
689.618	38.04
689.803	37.5
689.988	37.66
690.174	37.45
690.359	36.71
690.544	36.78
690.73	37.22
690.915	36.73
691.1	35.56
691.285	34.84
691.471	35.4
691.656	35.91
691.841	36.32
692.026	35.82
692.211	35.73
692.396	36.43
692.582	36.57
692.767	36.19
692.952	36.35
693.137	36.86
693.322	37.67
693.507	37.56
693.692	36.44
693.877	36.69
694.062	36.77
694.247	37.39
694.432	38.26
694.617	37.61
694.802	38.21
694.987	38.39
695.172	38.22
695.357	38.09
695.541	38.25
695.726	38.82
695.911	39
696.096	39.18
696.281	39.1
696.466	38.53
696.65	39.31
696.835	38.94
697.02	38.53
697.204	38.93
697.389	38.71
697.574	38.46
697.759	38.45
697.943	38.19
698.128	37.94
698.312	37.3
698.497	37.28
698.682	37.11
698.866	36.75
699.051	36.85
699.235	36.39
699.42	36.58
699.604	36.81
699.789	36.7
699.973	36.89
700.158	37.52
700.342	37.67
700.527	37.48
700.711	37.34
700.895	37.79
701.08	38.07
701.264	38.37
701.448	38.17
701.633	37.91
701.817	38.07
702.001	37.36
702.186	37.27
702.37	37.69
702.554	38
702.738	38.47
702.923	38.78
703.107	38.94
703.291	39.05
703.475	38.71
703.659	38.68
703.843	38.69
704.027	39.7
704.212	39.3
704.396	38.91
704.58	38.6
704.764	38.18
704.948	37.75
705.132	37.84
705.316	38.43
705.5	39.83
705.684	40.71
705.868	41.07
706.052	40.87
706.235	40.78
706.419	41.24
706.603	41.91
706.787	41.71
706.971	42.52
707.155	42.52
707.339	41.98
707.522	41.9
707.706	41.29
707.89	41.18
708.074	41.33
708.257	41.46
708.441	41.6
708.625	40.89
708.808	40.98
708.992	40.38
709.176	40.18
709.359	39.97
709.543	39.57
709.727	39.89
709.91	39.57
710.094	39.27
710.277	39.43
710.461	39.49
710.644	39.85
710.828	40.53
711.011	40.53
711.195	40.27
711.378	40.68
711.562	40.65
711.745	40.69
711.928	41.46
712.112	41.38
712.295	41.06
712.478	40.97
712.662	40.67
712.845	40.2
713.028	40.6
713.212	40.72
713.395	39.97
713.578	39.36
713.761	38.77
713.945	38.26
714.128	38.16
714.311	38.09
714.494	38.67
714.677	38.9
714.86	39.4
715.043	38.66
715.227	38.54
715.41	38.59
715.593	39.01
715.776	39.13
715.959	39.07
716.142	38.93
716.325	38.67
716.508	38.08
716.691	37.77
716.874	37.27
717.057	37.71
717.239	38.34
717.422	38.76
717.605	38.77
717.788	38.55
717.971	37.81
718.154	37.03
718.337	37
718.519	36.76
718.702	36.72
718.885	36.35
719.068	36.49
719.25	35.67
719.433	35.94
719.616	35.3
719.798	35.4
719.981	36.26
720.164	37.69
720.346	38.2
720.529	37.59
720.712	37.9
720.894	37.73
721.077	36.85
721.259	36.79
721.442	36.55
721.624	36.94
721.807	36.95
721.989	37.25
722.172	36.64
722.354	36.25
722.537	36.36
722.719	36.34
722.901	37.39
723.084	38.59
723.266	39.3
723.448	38.45
723.631	38.25
723.813	38.36
723.995	37.61
724.178	38.83
724.36	39.75
724.542	40.02
724.724	40.69
724.907	39.71
725.089	39.3
725.271	39.27
725.453	40.19
725.635	39.72
725.817	39.72
725.999	39.19
726.181	39.04
726.364	38.97
726.546	39.01
726.728	38.6
726.91	38.71
727.092	38.77
727.274	37.8
727.456	37.45
727.638	38.25
727.819	37.74
728.001	38.08
728.183	37.92
728.365	37.4
728.547	37.48
728.729	36.64
728.911	37.2
729.093	37.05
729.274	37.88
729.456	38
729.638	38.39
729.82	38.98
730.001	39.32
730.183	38.53
730.365	39.42
730.546	39.52
730.728	40.38
730.91	39.78
731.091	38.49
731.273	38.42
731.455	38.18
731.636	38.19
731.818	38.48
731.999	39.1
732.181	39.06
732.362	38.14
732.544	37.19
732.725	36.93
732.907	37.44
733.088	37.94
733.27	37.6
733.451	37.32
733.633	37.08
733.814	36.34
733.995	36.22
734.177	35.31
734.358	36.1
734.539	36.94
734.721	36.75
734.902	36.6
735.083	37.21
735.264	37.25
735.446	38.68
735.627	39.02
735.808	40.15
735.989	38.79
736.17	39.92
736.351	38.63
736.533	39.17
736.714	39.32
736.895	38.78
737.076	39.04
737.257	39.71
737.438	38.49
737.619	37.48
737.8	37.31
737.981	38.45
738.162	37.9
738.343	39.06
738.524	38.99
738.705	39.24
738.886	39.16
739.067	38.89
739.247	38.42
739.428	38.4
739.609	38.41
739.79	37.61
739.971	37.95
740.151	38.44
740.332	38.27
740.513	38.28
740.694	37.95
740.874	38.27
741.055	38.16
741.236	38.02
741.417	38.06
741.597	38.43
741.778	38.47
741.958	37.56
742.139	37.87
742.32	37.68
742.5	37.84
742.681	37.95
742.861	38.76
743.042	38.1
743.222	38.3
743.403	37.97
743.583	39.13
743.764	38.98
743.944	39.25
744.124	40.21
744.305	40.72
744.485	40.87
744.666	41.04
744.846	41
745.026	41.44
745.207	40.75
745.387	40.8
745.567	40
745.747	40.12
745.928	39.53
746.108	38.46
746.288	38.72
746.468	37.86
746.648	37.91
746.829	37.81
747.009	37.5
747.189	38.59
747.369	39.25
747.549	38.35
747.729	37.97
747.909	39.86
748.089	38.38
748.269	36.78
748.449	36.58
748.629	36.36
748.809	35.75
748.989	37.5
749.169	35.71
749.349	35.65
749.529	36.33
749.709	37.08
749.889	36.21
750.068	37.69
750.248	38.54
750.428	38.14
750.608	38.75
750.788	39.21
750.967	37.36
751.147	38.46
751.327	39.69
751.507	39.51
751.686	40.31
751.866	40.61
752.046	39.41
752.225	39.15
752.405	40.19
752.585	40.63
752.764	40.63
752.944	40.77
753.123	40.34
753.303	38.93
753.482	39.19
753.662	37.54
753.841	36.94
754.021	37.86
754.2	38.71
754.38	39.04
754.559	39.54
754.739	39.22
754.918	39.93
755.097	40.45
755.277	40.61
755.456	40.04
755.635	39.81
755.815	39.35
755.994	39.66
756.173	38.58
756.352	38.74
756.532	37.05
756.711	36.78
756.89	36.09
757.069	36.74
757.248	36.07
757.427	36.46
757.607	36.28
757.786	37.2
757.965	38.19
758.144	38.65
758.323	37.29
758.502	39.1
758.681	39.36
758.86	39.65
759.039	39.02
759.218	40.3
759.397	40.77
759.576	40.98
759.755	40.48
759.934	38.4
760.113	37.46
760.291	38.56
760.47	37.15
760.649	36.79
760.828	36.28
761.007	36.78
761.186	36.41
761.364	36.1
761.543	37.37
761.722	37.47
761.901	39.28
762.079	40.9
762.258	40.51
762.437	40.71
762.615	40.29
762.794	41.48
762.972	41.4
763.151	41.47
763.33	40.83
763.508	39.55
763.687	39.94
763.865	38.94
764.044	38.79
764.222	38.02
764.401	36.95
764.579	37.82
764.758	37.3
764.936	37.11
765.114	37.43
765.293	37.92
765.471	39.77
765.65	38.91
765.828	38.37
766.006	37.85
766.184	38.6
766.363	39.31
766.541	39.22
766.719	39.46
766.898	40.13
767.076	39.08
767.254	38.42
767.432	37.7
767.61	38.15
767.788	39.3
767.967	39.54
768.145	39.24
768.323	39.59
768.501	40.11
768.679	40.43
768.857	39.15
769.035	39.57
769.213	40.58
769.391	39.8
769.569	40.17
769.747	39.88
769.925	39.58
770.103	39.94
770.281	39.71
770.459	38.86
770.636	40.13
770.814	41.19
770.992	40.82
771.17	39.49
771.348	38.27
771.525	39.34
771.703	39.35
771.881	39.73
772.059	38.59
772.236	38.2
772.414	37.38
772.592	35.56
772.769	33.59
772.947	35.67
773.125	37.31
773.302	38.75
773.48	38.01
773.657	38.27
773.835	37.34
774.013	37.56
774.19	36.26
774.368	35.38
774.545	34.03
774.723	33.21
774.9	32.08
775.077	31.3
775.255	33.38
775.432	31.78
775.61	32.42
775.787	33.49
775.964	35.01
776.142	38.07
776.319	41.06
776.496	40.29
776.674	42.24
776.851	42.72
777.028	41.65
777.205	39.14
777.382	39.12
777.56	38.14
777.737	38.61
777.914	38.23
778.091	36.66
778.268	35.2
778.445	36.58
778.622	36.49
778.8	36.17
778.977	38.54
779.154	40.32
779.331	41.98
779.508	42.67
779.685	41.95
779.862	40.89
780.038	40.86
780.215	40.95
780.392	41.44
780.569	41.35
780.746	41.93
780.923	41
781.1	38
781.277	36.78
781.453	36.87
781.63	38.15
781.807	38.59
781.984	40.49
782.16	40.42
782.337	40.53
782.514	39.91
782.691	38.01
782.867	36.68
783.044	37.05
783.221	37.78
783.397	36.36
783.574	31.72
783.75	32.16
783.927	31.77
784.103	33.21
784.28	34.93
784.456	37.69
784.633	37.37
784.809	38.44
784.986	40.13
785.162	38.58
785.339	39.29
785.515	41.09
785.692	43.4
785.868	41.6
786.044	39.71
786.221	37.8
786.397	36.93
786.573	35.93
786.749	35.43
786.926	36.16
787.102	36.23
787.278	38.91
787.454	40.09
787.631	37.27
787.807	37.22
787.983	37.79
788.159	35.8
788.335	34.06
788.511	36.56
788.687	36.9
788.863	35.33
789.039	37.37
789.216	34.12
789.392	34.45
789.568	33.3
789.744	34.98
789.919	34.06
790.095	36.52
790.271	37.35
790.447	36.94
790.623	39.02
790.799	41.61
790.975	38.27
791.151	40.27
791.327	42.97
791.502	44.86
791.678	45.28
791.854	46.22
792.03	44.24
792.205	43.53
792.381	42.19
792.557	43.75
792.733	42.87
792.908	45.54
793.084	46.45
793.259	44.87
793.435	44.16
793.611	44.27
793.786	44.76
793.962	45.81
794.137	48.01
794.313	49.5
794.488	45.34
794.664	44.79
794.839	41.28
795.015	41.81
795.19	42.36
795.366	42.35
795.541	39.39
795.716	39.02
795.892	39.16
796.067	37.46
796.242	37.62
796.418	37.91
796.593	38.81
796.768	40.14
796.944	37.38
797.119	36.12
797.294	35.8
797.469	38.62
797.644	37.92
797.82	35.4
797.995	35.12
798.17	33.47
798.345	34.13
798.52	32.15
798.695	33.32
798.87	33.43
799.045	31.31
799.22	30.38
799.395	29.48
799.57	30.48
799.745	32.37
799.92	31.91
800.095	33.41
800.27	31.66
800.445	32.44
800.62	31.18
800.795	29.89
800.97	32.21
801.145	34.17
801.319	33.4
801.494	34.1
801.669	34.29
801.844	38.1
802.018	40.25
802.193	42.15
802.368	41.79
802.543	40.84
802.717	45.98
802.892	45.59
803.067	45.66
803.241	44.44
803.416	42.78
803.59	43.43
803.765	42.07
803.94	38.23
804.114	36.87
804.289	35.57
804.463	34.47
804.638	29.42
804.812	27.47
804.986	30.77
805.161	33.9
805.335	36.1
805.51	35.17
805.684	34.43
805.858	36.29
806.033	37.35
806.207	36.84
806.381	39.26
806.556	42.41
806.73	46.04
806.904	43.9
807.078	42.89
807.253	41.19
807.427	44.26
807.601	44.88
807.775	44.75
807.949	41.32
808.123	42.32
808.298	44.32
808.472	42.22
808.646	37.63
808.82	34.36
808.994	31.09
809.168	33.79
809.342	33.73
809.516	36.72
809.69	34.64
809.864	37.86
810.038	41.55
810.212	39.88
810.385	41.13
810.559	42.51
810.733	43.77
810.907	45.64
811.081	44.19
811.255	38.64
811.428	34.08
811.602	38.77
811.776	42.76
811.95	40.32
812.123	41.72
812.297	41.21
812.471	43.57
812.644	42.33
812.818	44.55
812.992	42.14
813.165	43.41
813.339	46.83
813.512	42.26
813.686	39.64
813.86	41.06
814.033	38.18
814.207	40.08
814.38	39.47
814.554	43.68
814.727	45.05
814.9	44.32
815.074	48.13
815.247	42.45
815.421	44.57
815.594	42.24
815.767	40.76
815.941	42.02
816.114	40.99
816.287	42.55
816.46	38.44
816.634	33.8
816.807	34.02
816.98	34.2
817.153	36.06
817.327	34.51
817.5	34.23
817.673	34.06
817.846	35.51
818.019	33.49
818.192	31.95
818.365	34.76
818.538	42.05
818.711	39.47
818.884	37.58
819.057	35.17
819.23	33.43
819.403	34.75
819.576	34.23
819.749	32.61
819.922	33.82
820.095	33.6
820.268	33.86
820.441	30.79
820.614	34.22
820.786	34.78
820.959	37.82
821.132	37.8
821.305	37.98
821.477	38.78
821.65	40.42
821.823	40.21
821.996	41.17
822.168	41.22
822.341	41.19
822.514	40.47
822.686	40.29
822.859	40.3
823.031	40.87
823.204	40.8
823.376	40.71
823.549	39.91
823.722	39.61
823.894	38.85
824.067	38.66
824.239	38.32
824.411	39.13
824.584	39.73
824.756	39.93
824.929	39.8
825.101	39.61
825.273	39.27
825.446	39.2
825.618	40.02
825.79	40.27
825.963	39.8
826.135	40
826.307	38.76
826.479	38.01
826.652	37.01
826.824	36.35
826.996	36.08
827.168	35.73
827.34	35.54
827.512	35.03
827.684	35.15
827.856	36.08
828.029	36.75
828.201	37.77
828.373	37.81
828.545	37.44
828.717	36.93
828.889	37.4
829.061	38.38
829.232	38.64
829.404	38.61
829.576	38.63
829.748	38.56
829.92	37.6
830.092	36.75
830.264	35.5
830.436	35.95
830.607	35.54
830.779	34.73
830.951	32.77
831.123	34.02
831.294	32.52
831.466	29.44
831.638	27.55
831.809	27.65
831.981	30.38
832.153	31.11
832.324	31.81
832.496	34.27
832.667	34.03
832.839	36.21
833.011	38.18
833.182	40.57
833.354	44.86
833.525	46.33
833.697	47.06
833.868	45.49
834.039	45.9
834.211	45.44
834.382	45.04
834.554	45.59
834.725	45.92
834.896	43.32
835.068	42.67
835.239	41.67
835.41	39.92
835.581	39.99
835.753	39.22
835.924	38.5
836.095	39.58
836.266	40.36
836.438	41.38
836.609	39.98
836.78	40.41
836.951	41.8
837.122	40
837.293	41.51
837.464	40.23
837.635	37.76
837.806	39.29
837.977	37.05
838.148	35.93
838.319	32.13
838.49	32.17
838.661	30.66
838.832	26.33
839.003	26.52
839.174	22.11
839.345	20.82
839.516	21.51
839.687	11.65
839.857	23
840.028	26.35
840.199	28.13
840.37	31.32
840.54	35.08
840.711	35.35
840.882	37.35
841.053	37.92
841.223	36.04
841.394	40.98
841.564	42.92
841.735	35.54
841.906	33.03
842.076	30.28
842.247	33.32
842.417	29.85
842.588	33.42
842.758	29.74
842.929	26.12
843.099	21.78
843.27	17.62
843.44	21.17
843.611	19.47
843.781	8.58
843.951	13.47
844.122	13.96
844.292	11.7
844.462	4.77
844.633	13.27
844.803	26.51
844.973	29.28
845.144	28.22
845.314	20.35
845.484	32.66
845.654	47.35
845.824	53.4
845.995	44.1
846.165	37.35
846.335	40.04
846.505	24.53
846.675	3.26
846.845	12.83
847.015	16.4
847.185	20.56
847.355	9.94
847.525	17.14
847.695	8.23
847.865	-1.42
848.035	13.48
848.205	11.42
848.375	22.86
848.545	25.16
848.715	17.34
848.884	12.69
849.054	-1.84
849.224	5.52
849.394	-1.97
849.564	18.44
849.733	41.13
849.903	14.26
850.073	25.21
850.243	33
850.412	31.61
850.582	23.98
850.752	16.74
850.921	35.96
851.091	23.07
851.26	14.84
851.43	9.77
851.599	-15.04
851.769	8.33
851.939	9.16
852.108	-12.3
852.278	-0.92
852.447	8.07
852.616	33.44
852.786	34.55
852.955	33
853.125	21.7
853.294	12.53
853.463	16.71
853.633	13.28
853.802	-5.97
853.971	-11.41
854.141	-19.36
854.31	-29.34
854.479	-56.3
854.648	-88.46
854.818	-107.54
854.987	-67.17
855.156	-74.63
855.325	-29.94
855.494	-54.09
855.663	-54
855.832	-63.66
856.001	-59.61
856.171	-66.75
856.34	-73.24
856.509	-57.41
856.678	-40.41
856.847	-19.61
857.016	-8.56
857.185	-9.24
857.353	17.19
857.522	13.59
857.691	31.64
857.86	46.13
858.029	57.29
858.198	59.67
858.367	53.34
858.535	45.56
858.704	31.37
858.873	28.88
859.042	25.32
859.21	30.45
859.379	34.25
859.548	26.92
859.717	15.55
859.885	28.51
860.054	30.1
860.222	19.39
860.391	21.82
860.56	38.03
860.728	44.93
860.897	43.69
861.065	42.42
861.234	36.07
861.402	34.34
861.571	33.57
861.739	27.1
861.908	33.39
862.076	44.79
862.244	38.54
862.413	17.88
862.581	-7.17
862.749	-59.2
862.918	-114.78
863.086	-151.5
863.254	-175.56
863.423	-341.78
863.591	-195.83
863.759	-345.94
863.927	-496.94
864.096	-1338.64
864.264	214.1
864.432	177.2
864.6	91.38
864.768	179.03
864.936	148.69
865.104	119.74
865.272	69.08
865.44	8.73
865.608	33.6
865.776	19.67
865.944	-3.04
866.112	20.07
866.28	22.25
866.448	0.49
866.616	19.11
866.784	15.04
866.952	10.4
867.12	34.27
867.288	69.53
867.455	63.17
867.623	65.58
867.791	73.35
867.959	75.94
868.127	91.31
868.294	114.16
868.462	75.56
868.63	95.38
868.797	76.87
868.965	95.3
869.133	6.42
869.3	-4.93
869.468	-11.16
869.636	-11.33
869.803	-34.61
869.971	-35.73
870.138	-20.9
870.306	-24.19
870.473	-35.89
870.641	-20.68
870.808	-20.45
870.975	-29.16
871.143	-21.86
871.31	-48.49
871.478	-149.62
871.645	-44.62
871.812	-60.01
871.98	-52.44
872.147	-45.6
872.314	8.49
872.482	46.91
872.649	82.47
872.816	101.32
872.983	93.8
873.15	44.65
873.318	59.47
873.485	76.3
873.652	149.51
873.819	32.32
873.986	41.8
874.153	66.89
874.32	66.42
874.487	60.98
874.654	56.46
874.821	79.08
874.988	91.44
875.155	79.88
875.322	69.51
875.489	60.37
875.656	76.76
875.823	61.13
875.99	46.11
876.157	47.66
876.324	67.49
876.49	72.06
876.657	68.01
876.824	64.67
876.991	87.68
877.157	102.85
877.324	78.47
877.491	80.79
877.658	82.66
877.824	66.43
877.991	74.59
878.157	48.69
878.324	48.1
878.491	48.63
878.657	43.75
878.824	47.28
878.99	62.89
879.157	75.23
879.323	56.9
879.49	72.4
879.656	72.35
879.823	48.62
879.989	49.57
880.156	51.17
880.322	56.21
880.488	57.82
880.655	42.22
880.821	13.93
880.987	26.96
881.154	27.08
881.32	11.4
881.486	21.66
881.652	29.3
881.819	27.73
881.985	22.74
882.151	19.23
882.317	19.5
882.483	25.1
882.649	27.26
882.816	24.37
882.982	27.34
883.148	29.48
883.314	31.56
883.48	32.97
883.646	33.53
883.812	35.79
883.978	36.86
884.144	36
884.31	35.08
884.476	36.41
884.642	38.47
884.807	37.56
884.973	39.74
885.139	39.58
885.305	37.31
885.471	38.66
885.637	36.94
885.802	38.66
885.968	41.18
886.134	43.99
886.3	43.74
886.465	43.29
886.631	44.46
886.797	42.23
886.962	42.06
887.128	42.96
887.293	42.46
887.459	41.17
887.625	41.38
887.79	45.49
887.956	42.14
888.121	43.04
888.287	45.88
888.452	44.74
888.618	49.15
888.783	42.21
