Data from CB_103_Reflection_2.txt Node
Date: Sat Nov 14 17:54:31 EST 2015
User: robert
Spectrometer: USB4E03001
Autoset integration time: false
Trigger mode: 4
Integration Time (sec): 1.000000E-1
Scans to average: 15
Electric dark correction enabled: true
Nonlinearity correction enabled: false
Boxcar width: 5
Stray light correction enabled: false
XAxis mode: Wavelengths
Stop averaging: false
Number of Pixels in Spectrum: 3648
>>>>>Begin Spectral Data<<<<<
177.566	31.65
177.785	253.2
178.005	-150.68
178.225	63.62
178.445	1871.58
178.665	30.79
178.885	1181.44
179.105	-29.93
179.324	-190.93
179.544	15.4
179.764	16.41
179.984	25.25
180.204	5.44
180.423	-7.27
180.643	15.69
180.863	20.71
181.083	23.93
181.302	33.38
181.522	20.61
181.742	45.07
181.961	59.17
182.181	72.99
182.401	128.25
182.621	136.67
182.84	298.06
183.06	121.11
183.279	55.6
183.499	130.22
183.719	67.42
183.938	63.29
184.158	105.65
184.377	92.06
184.597	125.2
184.816	104.62
185.036	102.49
185.256	105.67
185.475	127.64
185.695	113.77
185.914	96.99
186.134	111.42
186.353	130.62
186.572	130.5
186.792	125.62
187.011	108.92
187.231	105.01
187.45	104.4
187.67	93.5
187.889	84.63
188.108	99.86
188.328	114.24
188.547	120.51
188.766	98.22
188.986	91.61
189.205	85.51
189.424	80.57
189.644	91.4
189.863	99.19
190.082	99.19
190.302	91.88
190.521	56.34
190.74	53.7
190.959	26.88
191.178	40.12
191.398	12.76
191.617	19.49
191.836	38.55
192.055	21.76
192.274	8.13
192.494	28.27
192.713	32.94
192.932	131.69
193.151	237.78
193.37	182.2
193.589	117.06
193.808	173.69
194.027	144.62
194.246	-68.14
194.465	351.96
194.685	57.79
194.904	62.55
195.123	36.27
195.342	-32.75
195.561	23.2
195.78	35.75
195.999	49.76
196.218	62.53
196.436	81.38
196.655	94.68
196.874	105.96
197.093	114.31
197.312	101.77
197.531	109.2
197.75	125.17
197.969	125.09
198.188	123.22
198.407	122.33
198.625	129.78
198.844	114.06
199.063	84.99
199.282	82.22
199.501	61.92
199.719	57.35
199.938	59.51
200.157	49.13
200.376	27.35
200.594	36.31
200.813	38.4
201.032	36.02
201.251	57.94
201.469	74.03
201.688	67.11
201.907	66.78
202.125	74.64
202.344	95.79
202.563	117.76
202.781	127.72
203	180.07
203.218	143.9
203.437	107.32
203.656	58.76
203.874	52.29
204.093	66.36
204.311	110.98
204.53	127.14
204.748	85.69
204.967	86.87
205.185	99.6
205.404	96.97
205.622	86.08
205.841	104.02
206.059	98.61
206.278	73.52
206.496	62.23
206.715	61.6
206.933	59.31
207.151	77.78
207.37	84.79
207.588	76.44
207.806	72.91
208.025	88.55
208.243	90.28
208.461	111.82
208.68	126.19
208.898	121.45
209.116	102.96
209.335	99.16
209.553	112.26
209.771	105.89
209.989	95.05
210.208	75.79
210.426	49.26
210.644	31.31
210.862	27.71
211.081	25.94
211.299	33.53
211.517	29.78
211.735	30.65
211.953	24.46
212.171	30.73
212.39	35.55
212.608	48.22
212.826	55.65
213.044	74.6
213.262	87.88
213.48	88.55
213.698	90.62
213.916	103.21
214.134	91.99
214.352	101
214.57	104.45
214.788	126.2
215.006	128.49
215.224	117.54
215.442	134
215.66	96.1
215.878	82.2
216.096	85.25
216.314	100.32
216.532	119.43
216.75	122.04
216.968	154.27
217.185	129.32
217.403	158.17
217.621	224.76
217.839	201.35
218.057	278.48
218.275	206.1
218.492	167.6
218.71	147.52
218.928	152.27
219.146	232.59
219.363	109.99
219.581	117.94
219.799	101.26
220.017	79.9
220.234	54.36
220.452	78.83
220.67	123.73
220.887	284.82
221.105	360.14
221.323	5398.16
221.54	385.45
221.758	2348.57
221.976	663.28
222.193	175.89
222.411	313.29
222.629	592.4
222.846	631.14
223.064	-641.4
223.281	547.37
223.499	399.04
223.716	523.72
223.934	-434.99
224.151	-178.97
224.369	-191.25
224.586	-105.96
224.804	-72.79
225.021	-52.26
225.239	-50.93
225.456	-42.18
225.674	-45.75
225.891	-53.26
226.108	-98.03
226.326	-114.41
226.543	-48.45
226.76	-17.96
226.978	-8.06
227.195	-4.5
227.413	-20.26
227.63	-7.7
227.847	-14.52
228.064	-4.44
228.282	-2.75
228.499	2.86
228.716	1.99
228.934	-4.32
229.151	-1.33
229.368	-0.11
229.585	-2
229.802	1
230.02	-1.35
230.237	-0.78
230.454	-1.01
230.671	-1.34
230.888	-4.98
231.105	-6.57
231.323	-8.12
231.54	-20.47
231.757	-26.72
231.974	-32.8
232.191	-35.18
232.408	-36.24
232.625	-30.64
232.842	-36.03
233.059	-34.46
233.276	-34.95
233.493	-35.36
233.71	-23.69
233.927	-11.35
234.144	-17.85
234.361	-19.25
234.578	-22.89
234.795	-16
235.012	-17.51
235.229	-19.82
235.446	-25.53
235.663	-21.23
235.879	-17.18
236.096	-22.37
236.313	-23.18
236.53	-13.65
236.747	-6.91
236.964	-15.15
237.181	-23.74
237.397	-25.68
237.614	-27.94
237.831	-23.99
238.048	-26.53
238.264	-33.62
238.481	-32.44
238.698	-31.08
238.915	-26.48
239.131	-22.67
239.348	-15.09
239.565	-9.73
239.781	-4.17
239.998	-2.7
240.215	-2.08
240.431	-2.5
240.648	5.57
240.865	9.25
241.081	9.23
241.298	7.56
241.514	8.86
241.731	9.35
241.947	7.7
242.164	5.36
242.38	7.7
242.597	8.91
242.814	11.02
243.03	8.26
243.246	6.73
243.463	6.48
243.679	5.17
243.896	3.02
244.112	0.45
244.329	0.5
244.545	3.94
244.762	4.56
244.978	5.41
245.194	3.08
245.411	3.18
245.627	5.06
245.843	5.05
246.06	5.43
246.276	5.97
246.492	8.54
246.709	7.79
246.925	6.88
247.141	5.95
247.357	6.42
247.574	6.87
247.79	7.89
248.006	7.63
248.222	7.5
248.439	7.22
248.655	6.29
248.871	5.42
249.087	6.06
249.303	5.58
249.519	5.66
249.736	3.12
249.952	2.75
250.168	3.54
250.384	3.44
250.6	4.39
250.816	4.89
251.032	8.38
251.248	7.6
251.464	5.23
251.68	4.58
251.896	3.38
252.112	2.25
252.328	0.86
252.544	-2.06
252.76	-4.75
252.976	-6.98
253.192	-6.66
253.408	-9.48
253.624	-8.31
253.84	-6.33
254.056	-6.8
254.272	-8.65
254.487	-8.07
254.703	-8.44
254.919	-8.75
255.135	-5.66
255.351	-6.51
255.567	-2.78
255.782	-3.18
255.998	-3.36
256.214	-6.81
256.43	-1.58
256.646	3.2
256.861	4.49
257.077	4.5
257.293	8.06
257.508	9.9
257.724	11.89
257.94	10.8
258.155	10.56
258.371	9.13
258.587	8.72
258.802	5.8
259.018	4.76
259.234	5.39
259.449	5.92
259.665	4.28
259.88	4.08
260.096	3.75
260.312	3.5
260.527	4.3
260.743	4.02
260.958	4.85
261.174	5.05
261.389	5.36
261.605	5.06
261.82	4.73
262.036	4.8
262.251	3.17
262.466	3.05
262.682	2.34
262.897	0
263.113	0.11
263.328	0.75
263.543	0.38
263.759	-2.71
263.974	-3.24
264.189	-4.51
264.405	-4.72
264.62	-3.46
264.835	-2.8
265.051	-0.58
265.266	1.27
265.481	1.58
265.696	1.12
265.912	2.75
266.127	4.11
266.342	4.36
266.557	4.96
266.773	5.06
266.988	5.02
267.203	5.83
267.418	3.44
267.633	4.17
267.848	3.56
268.064	1.41
268.279	0.48
268.494	0.97
268.709	1.52
268.924	2.32
269.139	0.81
269.354	2.2
269.569	2.07
269.784	3.33
269.999	1.76
270.214	2.56
270.429	2.24
270.644	2.25
270.859	1.78
271.074	0.9
271.289	0.22
271.504	3.5
271.719	2.27
271.934	0.75
272.149	0.68
272.363	0.98
272.578	2.57
272.793	4.45
273.008	3.26
273.223	3.86
273.438	3.68
273.653	4.17
273.867	3.17
274.082	3.47
274.297	3.85
274.512	2.81
274.726	1.67
274.941	-0.66
275.156	0.1
275.371	2.77
275.585	2.25
275.8	2.5
276.015	1.64
276.229	1.41
276.444	0.56
276.659	0.33
276.873	2.01
277.088	2.5
277.302	2.62
277.517	1.23
277.732	-1.33
277.946	-1.93
278.161	-2.78
278.375	-1.38
278.59	-0.55
278.804	-0.86
279.019	-2.75
279.233	-3.17
279.448	-3.73
279.662	-3.96
279.877	-3.97
280.091	-0.62
280.306	0.21
280.52	1.18
280.735	1.14
280.949	-0.84
281.163	0.42
281.378	2.54
281.592	4.1
281.806	5.29
282.021	6.12
282.235	6.35
282.449	5.07
282.664	4.62
282.878	3.91
283.092	3.42
283.307	4.28
283.521	4.14
283.735	4.67
283.949	2.91
284.164	3.11
284.378	3.55
284.592	3.37
284.806	3.07
285.02	4.02
285.234	4.93
285.449	5.25
285.663	5.93
285.877	5.67
286.091	5.27
286.305	5.57
286.519	5.45
286.733	5.03
286.947	5.6
287.161	5.88
287.375	5.21
287.589	6
287.803	5.81
288.017	5.03
288.231	5.18
288.445	5.36
288.659	5.02
288.873	5.26
289.087	5.31
289.301	5.05
289.515	6.37
289.729	6.03
289.943	4.12
290.157	3.89
290.371	4.71
290.584	4.86
290.798	4.02
291.012	5.31
291.226	5.2
291.44	5.17
291.654	4.77
291.867	4.12
292.081	5.54
292.295	6.92
292.509	6.88
292.722	6.08
292.936	6.57
293.15	8.03
293.364	7.19
293.577	7.05
293.791	7.62
294.005	7.33
294.218	6.98
294.432	6.61
294.645	5.73
294.859	6.16
295.073	6.16
295.286	5.58
295.5	5.63
295.713	6.04
295.927	6.4
296.14	6.82
296.354	6.46
296.568	6.42
296.781	6.92
296.994	7.57
297.208	7.05
297.421	7.67
297.635	7.66
297.848	8.22
298.062	7.56
298.275	7.73
298.489	7.29
298.702	8.19
298.915	8.4
299.129	8.33
299.342	8.24
299.555	7.8
299.769	7.89
299.982	8.36
300.195	7.19
300.409	7.87
300.622	6.93
300.835	6.46
301.048	5.74
301.262	5.93
301.475	5.13
301.688	4.65
301.901	6.32
302.115	6.06
302.328	6.32
302.541	7.22
302.754	7.35
302.967	8.26
303.18	8.52
303.393	8.83
303.607	8.7
303.82	9.12
304.033	9.29
304.246	8.49
304.459	9.51
304.672	8.83
304.885	8.48
305.098	8.1
305.311	7.97
305.524	7.57
305.737	7.64
305.95	7.81
306.163	7.38
306.376	6.81
306.589	7.9
306.802	6.03
307.015	6.32
307.228	7.29
307.44	7.95
307.653	8.15
307.866	9.13
308.079	9.31
308.292	10.35
308.505	9.9
308.718	10.67
308.93	11.04
309.143	10.61
309.356	10.02
309.569	10.28
309.781	10.87
309.994	10.36
310.207	9.6
310.42	8.59
310.632	7.3
310.845	7.31
311.058	8.03
311.27	7.73
311.483	9.03
311.696	9.97
311.908	9.19
312.121	8.23
312.333	8.44
312.546	9.32
312.759	11.19
312.971	11.47
313.184	11.85
313.396	10.43
313.609	8.97
313.821	7.62
314.034	6.84
314.246	6.88
314.459	8.08
314.671	7.33
314.884	5.96
315.096	5.26
315.309	4.55
315.521	5.24
315.733	5.76
315.946	6.31
316.158	7.12
316.371	7.54
316.583	6.57
316.795	5.93
317.008	6.94
317.22	7.43
317.432	6.03
317.644	5.68
317.857	6.7
318.069	8.27
318.281	8.39
318.494	7.68
318.706	7.5
318.918	8.01
319.13	8.12
319.342	8.36
319.555	8.64
319.767	7.96
319.979	8.63
320.191	8.55
320.403	7.63
320.615	8.51
320.827	8.23
321.039	8.44
321.252	9.76
321.464	9.75
321.676	9.41
321.888	9.38
322.1	11.37
322.312	12.24
322.524	11.41
322.736	12.61
322.948	12.84
323.16	13.12
323.372	12.95
323.584	11.69
323.796	12.21
324.007	12.14
324.219	13.31
324.431	13.22
324.643	12.24
324.855	12.81
325.067	12.96
325.279	12.16
325.491	13.2
325.702	13.83
325.914	15.05
326.126	15.37
326.338	16.38
326.55	16.68
326.761	17.48
326.973	18.91
327.185	19.47
327.396	19.65
327.608	21.72
327.82	22.39
328.032	22.95
328.243	23.44
328.455	24.41
328.666	24.48
328.878	25.27
329.09	26.39
329.301	27.29
329.513	28.24
329.725	28
329.936	27.03
330.148	26.63
330.359	26.63
330.571	27.04
330.782	26.55
330.994	26.88
331.205	26.16
331.417	25.95
331.628	26.97
331.84	25.6
332.051	26.17
332.262	27.11
332.474	27.42
332.685	28.96
332.897	29.46
333.108	29.84
333.319	30
333.531	31.11
333.742	30.93
333.953	30.73
334.165	31.35
334.376	31.81
334.587	32.53
334.799	33.93
335.01	34.24
335.221	34.61
335.432	35.59
335.644	36.85
335.855	37.01
336.066	37.46
336.277	36.63
336.488	37.06
336.7	36.64
336.911	37.3
337.122	36.63
337.333	36.77
337.544	36.07
337.755	35.19
337.966	35.04
338.177	35.32
338.388	34.92
338.599	36.32
338.811	35.85
339.022	36.89
339.233	36
339.444	35.86
339.655	34.96
339.866	34.29
340.076	35.18
340.287	34.94
340.498	35.15
340.709	35.36
340.92	35.49
341.131	35.85
341.342	36.01
341.553	36.25
341.764	37.26
341.975	37.23
342.185	37.89
342.396	37.43
342.607	37.97
342.818	37.55
343.029	38.28
343.239	37.48
343.45	37.58
343.661	36.75
343.872	37.05
344.082	36.78
344.293	37.29
344.504	38.34
344.714	38.24
344.925	38.33
345.136	38.23
345.346	37.71
345.557	37.61
345.768	38
345.978	37.58
346.189	37.36
346.399	37.45
346.61	37.45
346.821	36.59
347.031	36.98
347.242	36.05
347.452	36.02
347.663	35.67
347.873	36.07
348.084	36.3
348.294	36.44
348.504	36.51
348.715	35.82
348.925	35.53
349.136	36.12
349.346	34.8
349.557	35.6
349.767	35.52
349.977	36.09
350.188	35.39
350.398	35.38
350.608	36.1
350.819	36.28
351.029	36.93
351.239	36.43
351.449	36.19
351.66	37.09
351.87	37.16
352.08	36.99
352.29	36.91
352.501	37.83
352.711	37.51
352.921	37.36
353.131	36.91
353.341	36.8
353.552	37.51
353.762	36.79
353.972	36.67
354.182	35.8
354.392	35.37
354.602	35.09
354.812	34.7
355.022	34.68
355.232	34.68
355.442	34.84
355.652	33.85
355.862	33.54
356.072	33.56
356.282	33.5
356.492	34.09
356.702	35.46
356.912	35.38
357.122	35.82
357.332	35.62
357.542	35.35
357.752	34.68
357.962	36.27
358.171	36.01
358.381	36.57
358.591	36.64
358.801	36.49
359.011	35.75
359.221	36.06
359.43	35.67
359.64	35.04
359.85	35.09
360.06	35.55
360.269	35.17
360.479	35.32
360.689	34.8
360.899	34.63
361.108	34.75
361.318	34.64
361.528	34.55
361.737	34.42
361.947	34.85
362.156	34.74
362.366	34.73
362.576	34.36
362.785	33.78
362.995	34.5
363.204	34.49
363.414	34.07
363.623	33.84
363.833	33.29
364.042	32.8
364.252	32.6
364.461	32.64
364.671	32.79
364.88	32.68
365.09	33.11
365.299	32.49
365.509	32.54
365.718	32.11
365.927	32.3
366.137	32.63
366.346	32.77
366.555	32.8
366.765	32.64
366.974	32.29
367.183	31.66
367.393	31.8
367.602	31.85
367.811	31.76
368.021	32.48
368.23	32.19
368.439	31.56
368.648	32.03
368.857	32.04
369.067	31.81
369.276	30.85
369.485	31.04
369.694	30.68
369.903	30.71
370.112	31.53
370.321	31.46
370.531	31.39
370.74	31.81
370.949	31.46
371.158	31.19
371.367	31
371.576	31.07
371.785	30.72
371.994	30.47
372.203	30.27
372.412	29.2
372.621	28.95
372.83	28.67
373.039	28.53
373.248	28.63
373.457	28.36
373.666	28.41
373.874	28.12
374.083	28.55
374.292	27.96
374.501	27.76
374.71	27.06
374.919	26.94
375.128	26.77
375.336	27
375.545	26.01
375.754	26.16
375.963	26.12
376.171	26.72
376.38	26.81
376.589	27.47
376.798	27.26
377.006	27.87
377.215	27.23
377.424	27
377.632	26.43
377.841	27.11
378.05	26.8
378.258	26.77
378.467	26.14
378.675	25.7
378.884	24.98
379.093	24.55
379.301	24.34
379.51	24.38
379.718	24.64
379.927	24.77
380.135	24.69
380.344	24.71
380.552	24.18
380.761	24.38
380.969	24.66
381.177	25.18
381.386	25.26
381.594	25.26
381.803	24.87
382.011	24.36
382.219	24.07
382.428	23.59
382.636	23.87
382.845	24
383.053	23.88
383.261	23.33
383.469	22.94
383.678	23.37
383.886	23.37
384.094	23.7
384.302	23.94
384.511	24.03
384.719	24.26
384.927	23.73
385.135	23.35
385.343	23.48
385.552	23.24
385.76	22.86
385.968	22.64
386.176	22.26
386.384	22.39
386.592	22.65
386.8	22.27
387.008	22.25
387.216	22.35
387.424	22.48
387.633	22.42
387.841	22.72
388.049	23.37
388.257	23.25
388.465	22.89
388.672	22.32
388.88	21.8
389.088	21.92
389.296	21.19
389.504	20.8
389.712	20.87
389.92	20.87
390.128	20.69
390.336	20.02
390.544	19.96
390.751	20.24
390.959	20.29
391.167	20.41
391.375	20.3
391.583	20.15
391.79	20.41
391.998	20.28
392.206	20.01
392.414	19.6
392.621	19.28
392.829	19.13
393.037	19.29
393.244	19.22
393.452	19.03
393.66	18.95
393.867	18.93
394.075	18.76
394.283	18.75
394.49	18.67
394.698	18.62
394.905	18.98
395.113	18.93
395.32	18.52
395.528	18.43
395.735	18.26
395.943	18.03
396.15	18.36
396.358	18.09
396.565	18.17
396.773	18.35
396.98	18.28
397.188	18.28
397.395	18.11
397.602	18.23
397.81	18.43
398.017	18.41
398.225	18.63
398.432	18.48
398.639	18.6
398.847	18.42
399.054	18.29
399.261	18.41
399.468	18.05
399.676	18.03
399.883	17.85
400.09	17.66
400.297	17.69
400.505	17.33
400.712	17.43
400.919	17.1
401.126	16.9
401.333	16.74
401.54	16.88
401.748	17.13
401.955	17.01
402.162	17.14
402.369	16.87
402.576	16.65
402.783	16.84
402.99	16.48
403.197	16.85
403.404	17.09
403.611	16.92
403.818	16.86
404.025	17.08
404.232	16.96
404.439	16.99
404.646	17.1
404.853	17.17
405.06	17.04
405.267	17.46
405.474	17.42
405.681	17.09
405.887	16.93
406.094	16.65
406.301	16.35
406.508	16.25
406.715	16.03
406.922	15.96
407.128	15.98
407.335	16.08
407.542	15.77
407.749	15.66
407.955	15.67
408.162	16.11
408.369	16.19
408.575	16.17
408.782	16.37
408.989	16.41
409.195	16.73
409.402	16.85
409.609	16.67
409.815	16.69
410.022	16.51
410.228	16.6
410.435	16.41
410.642	16.79
410.848	16.76
411.055	16.74
411.261	16.58
411.468	16.26
411.674	16.27
411.881	16.38
412.087	16.01
412.294	16.19
412.5	16.15
412.706	16.27
412.913	15.76
413.119	15.7
413.326	15.79
413.532	16.21
413.738	16.19
413.945	15.93
414.151	16.1
414.357	16.56
414.564	16.29
414.77	16.04
414.976	16
415.182	15.98
415.389	16.09
415.595	16.01
415.801	15.73
416.007	15.69
416.214	15.61
416.42	15.47
416.626	15.21
416.832	15.27
417.038	15.48
417.244	15.38
417.45	15.5
417.657	15.26
417.863	15.13
418.069	15.08
418.275	14.98
418.481	15.04
418.687	15.15
418.893	15.15
419.099	15.25
419.305	15.14
419.511	15.09
419.717	15.14
419.923	15.15
420.129	15.2
420.335	15.14
420.541	15.38
420.746	15.38
420.952	15.27
421.158	15.39
421.364	15.27
421.57	15.27
421.776	15.21
421.982	15.06
422.187	15.15
422.393	15.19
422.599	15.27
422.805	15.17
423.01	15.16
423.216	15.08
423.422	14.93
423.628	15.04
423.833	15.03
424.039	15.27
424.245	15.27
424.45	15.18
424.656	15.11
424.862	15.07
425.067	14.97
425.273	14.91
425.478	14.98
425.684	15.04
425.889	14.95
426.095	15.02
426.301	14.75
426.506	14.79
426.712	14.76
426.917	14.87
427.123	14.77
427.328	14.99
427.533	15.07
427.739	14.96
427.944	14.79
428.15	14.73
428.355	14.64
428.561	14.63
428.766	14.7
428.971	14.63
429.177	14.51
429.382	14.68
429.587	14.41
429.793	14.21
429.998	14.23
430.203	14.43
430.408	14.54
430.614	14.39
430.819	14.48
431.024	14.41
431.229	14.5
431.434	14.42
431.64	14.25
431.845	14.32
432.05	14.36
432.255	14.34
432.46	14.37
432.665	14.23
432.87	14.27
433.076	14.12
433.281	13.92
433.486	14.02
433.691	13.91
433.896	14.07
434.101	14.06
434.306	14.07
434.511	14.07
434.716	14.1
434.921	14.1
435.126	14.07
435.331	14.08
435.535	14.39
435.74	14.28
435.945	14.44
436.15	14.38
436.355	14.31
436.56	14.47
436.765	14.63
436.97	14.49
437.174	14.67
437.379	14.73
437.584	14.87
437.789	14.91
437.993	14.92
438.198	14.83
438.403	14.87
438.608	14.95
438.812	15.03
439.017	14.87
439.222	15
439.426	14.88
439.631	14.86
439.836	14.79
440.04	14.66
440.245	14.65
440.45	14.67
440.654	14.61
440.859	14.56
441.063	14.45
441.268	14.37
441.472	14.22
441.677	14.24
441.881	14.28
442.086	14.33
442.29	14.31
442.495	14.41
442.699	14.41
442.904	14.32
443.108	14.33
443.312	14.13
443.517	14.2
443.721	14.08
443.925	13.99
444.13	13.98
444.334	13.91
444.538	14.01
444.743	13.95
444.947	14.04
445.151	14.12
445.356	14.21
445.56	14.3
445.764	14.42
445.968	14.56
446.173	14.53
446.377	14.4
446.581	14.44
446.785	14.22
446.989	14.16
447.193	13.96
447.398	13.88
447.602	13.81
447.806	13.86
448.01	13.73
448.214	13.65
448.418	13.57
448.622	13.56
448.826	13.47
449.03	13.68
449.234	13.85
449.438	13.9
449.642	13.93
449.846	13.76
450.05	13.63
450.254	13.59
450.458	13.52
450.662	13.65
450.866	13.8
451.069	14
451.273	13.88
451.477	13.78
451.681	13.82
451.885	13.96
452.089	14
452.292	14.16
452.496	14.1
452.7	14.11
452.904	13.95
453.107	13.82
453.311	13.7
453.515	13.65
453.719	13.58
453.922	13.48
454.126	13.29
454.33	13.44
454.533	13.25
454.737	13.3
454.94	13.3
455.144	13.53
455.348	13.69
455.551	13.66
455.755	13.61
455.958	13.8
456.162	13.95
456.365	13.98
456.569	14.06
456.772	14.1
456.976	14.16
457.179	14.09
457.383	13.87
457.586	13.9
457.79	13.93
457.993	14.08
458.196	13.92
458.4	14.01
458.603	13.92
458.807	13.79
459.01	13.75
459.213	13.79
459.417	13.88
459.62	13.94
459.823	13.93
460.026	13.8
460.23	13.69
460.433	13.69
460.636	13.78
460.839	13.86
461.042	13.94
461.246	13.98
461.449	13.87
461.652	13.88
461.855	13.99
462.058	13.8
462.261	13.92
462.464	14.08
462.668	14.1
462.871	14.03
463.074	13.99
463.277	13.9
463.48	13.79
463.683	13.65
463.886	13.63
464.089	13.35
464.292	13.46
464.495	13.54
464.698	13.44
464.901	13.35
465.104	13.26
465.306	13.11
465.509	13.06
465.712	13.11
465.915	13.21
466.118	13.16
466.321	13.18
466.524	13.28
466.726	13.12
466.929	13.13
467.132	13.19
467.335	13.09
467.538	13.29
467.74	13.28
467.943	13.41
468.146	13.56
468.348	13.7
468.551	13.89
468.754	13.94
468.956	13.96
469.159	13.9
469.362	13.97
469.564	14
469.767	13.91
469.969	13.98
470.172	14.09
470.375	14.02
470.577	14.03
470.78	13.9
470.982	13.96
471.185	14.15
471.387	14.11
471.59	14.14
471.792	14.03
471.995	14.02
472.197	13.98
472.399	13.58
472.602	13.43
472.804	13.34
473.007	13.43
473.209	13.25
473.411	13.03
473.614	13.16
473.816	13.07
474.018	13.18
474.22	13.3
474.423	13.33
474.625	13.63
474.827	13.8
475.03	13.73
475.232	13.74
475.434	13.87
475.636	13.95
475.838	13.95
476.04	13.94
476.243	13.91
476.445	13.9
476.647	13.87
476.849	13.71
477.051	13.77
477.253	13.69
477.455	13.5
477.657	13.43
477.859	13.33
478.061	13.28
478.263	13.34
478.465	13.33
478.667	13.31
478.869	13.34
479.071	13.34
479.273	13.29
479.475	13.42
479.677	13.49
479.879	13.4
480.081	13.63
480.283	13.69
480.485	13.56
480.686	13.66
480.888	13.56
481.09	13.62
481.292	13.83
481.494	13.74
481.695	13.88
481.897	13.92
482.099	14.06
482.301	14.01
482.502	14.02
482.704	14.11
482.906	14.12
483.107	14.2
483.309	14.14
483.511	14.1
483.712	14.2
483.914	14.14
484.115	14.11
484.317	14.1
484.519	14.1
484.72	14
484.922	14
485.123	14.01
485.325	13.95
485.526	13.94
485.728	13.91
485.929	13.84
486.131	13.75
486.332	13.77
486.534	13.78
486.735	13.77
486.936	13.92
487.138	13.92
487.339	13.89
487.541	13.91
487.742	13.96
487.943	13.98
488.144	14.06
488.346	14.09
488.547	14.11
488.748	14.11
488.95	14.08
489.151	13.97
489.352	13.9
489.553	13.86
489.755	13.87
489.956	13.88
490.157	13.82
490.358	13.74
490.559	13.82
490.76	13.76
490.961	13.8
491.163	13.83
491.364	13.92
491.565	13.98
491.766	14.01
491.967	13.99
492.168	14
492.369	14.06
492.57	14.03
492.771	14.03
492.972	14.05
493.173	13.92
493.374	14.02
493.575	13.97
493.776	13.91
493.976	13.9
494.177	13.76
494.378	13.74
494.579	13.74
494.78	13.79
494.981	13.7
495.182	13.84
495.382	13.93
495.583	13.75
495.784	13.74
495.985	13.8
496.185	13.72
496.386	13.8
496.587	13.82
496.788	13.91
496.988	13.91
497.189	14.02
497.39	13.99
497.59	13.99
497.791	13.99
497.992	14.03
498.192	13.95
498.393	14.08
498.593	14.13
498.794	13.96
498.994	13.89
499.195	13.74
499.395	13.73
499.596	13.72
499.796	13.91
499.997	14.18
500.197	14.18
500.398	14.15
500.598	13.96
500.799	14.08
500.999	14.22
501.199	14.04
501.4	14.01
501.6	14.04
501.801	14.01
502.001	13.84
502.201	13.67
502.402	13.72
502.602	13.74
502.802	13.86
503.002	13.79
503.203	13.95
503.403	13.98
503.603	14.15
503.803	14.2
504.003	14.26
504.204	14.24
504.404	14.33
504.604	14.46
504.804	14.59
505.004	14.71
505.204	14.73
505.404	14.77
505.604	15
505.804	15
506.005	14.99
506.205	15.09
506.405	15.27
506.605	15.19
506.805	15.15
507.005	15.18
507.204	15.18
507.404	15.13
507.604	15.12
507.804	15.04
508.004	15.13
508.204	15.26
508.404	15.17
508.604	15.3
508.804	15.45
509.003	15.61
509.203	15.74
509.403	15.95
509.603	16.1
509.803	16.13
510.002	16.25
510.202	16.34
510.402	16.28
510.602	16.34
510.801	16.3
511.001	16.24
511.201	16.19
511.4	16.15
511.6	16.1
511.8	16.18
511.999	16.21
512.199	16.21
512.398	16.14
512.598	16.36
512.797	16.38
512.997	16.34
513.197	16.44
513.396	16.41
513.596	16.48
513.795	16.6
513.994	16.65
514.194	16.73
514.393	16.93
514.593	17.19
514.792	17.3
514.992	17.53
515.191	17.74
515.39	17.95
515.59	18.16
515.789	18.43
515.988	18.48
516.188	18.63
516.387	18.92
516.586	18.94
516.786	18.93
516.985	18.89
517.184	18.99
517.383	19.03
517.582	19.03
517.782	19.17
517.981	19.12
518.18	19.27
518.379	19.34
518.578	19.28
518.777	19.34
518.976	19.39
519.176	19.52
519.375	19.59
519.574	19.74
519.773	19.75
519.972	19.83
520.171	19.94
520.37	19.93
520.569	20.12
520.768	20.31
520.967	20.53
521.166	20.73
521.365	20.82
521.564	20.93
521.762	21.19
521.961	21.39
522.16	21.5
522.359	21.77
522.558	22
522.757	21.99
522.956	22.17
523.154	22.46
523.353	22.6
523.552	22.86
523.751	23.08
523.949	23.18
524.148	23.34
524.347	23.53
524.546	23.7
524.744	23.76
524.943	23.91
525.142	24.03
525.34	24.05
525.539	24.13
525.737	24.3
525.936	24.37
526.135	24.51
526.333	24.75
526.532	25
526.73	25.22
526.929	25.44
527.127	25.7
527.326	25.88
527.524	25.99
527.723	26.35
527.921	26.49
528.12	26.64
528.318	26.68
528.516	26.83
528.715	26.9
528.913	26.96
529.112	27.07
529.31	27.18
529.508	27.29
529.707	27.47
529.905	27.5
530.103	27.55
530.301	27.72
530.5	27.97
530.698	28.03
530.896	28.2
531.094	28.33
531.293	28.55
531.491	28.69
531.689	28.9
531.887	29.01
532.085	29.2
532.283	29.36
532.481	29.49
532.68	29.67
532.878	29.91
533.076	30.01
533.274	30.08
533.472	30.15
533.67	30.25
533.868	30.29
534.066	30.39
534.264	30.44
534.462	30.62
534.66	30.71
534.858	30.74
535.056	30.83
535.253	30.99
535.451	31.24
535.649	31.5
535.847	31.63
536.045	31.93
536.243	32.17
536.441	32.39
536.638	32.52
536.836	32.61
537.034	32.79
537.232	32.97
537.43	33.05
537.627	33.08
537.825	33.05
538.023	33.22
538.22	33.22
538.418	33.27
538.616	33.29
538.813	33.46
539.011	33.57
539.209	33.6
539.406	33.64
539.604	33.83
539.801	34.14
539.999	34.37
540.196	34.42
540.394	34.54
540.591	34.67
540.789	34.71
540.986	34.73
541.184	34.91
541.381	35
541.579	34.99
541.776	35.06
541.974	35.09
542.171	35.11
542.368	35.33
542.566	35.38
542.763	35.46
542.96	35.6
543.158	35.74
543.355	35.82
543.552	35.95
543.75	36.1
543.947	36.11
544.144	36.22
544.341	36.37
544.539	36.36
544.736	36.4
544.933	36.39
545.13	36.41
545.327	36.39
545.524	36.32
545.722	36.31
545.919	36.49
546.116	36.59
546.313	36.59
546.51	36.57
546.707	36.59
546.904	36.62
547.101	36.8
547.298	36.9
547.495	37.01
547.692	37.14
547.889	37.31
548.086	37.32
548.283	37.38
548.48	37.5
548.677	37.51
548.874	37.71
549.07	37.86
549.267	37.95
549.464	38.13
549.661	38.08
549.858	38.22
550.055	38.32
550.251	38.2
550.448	38.23
550.645	38.2
550.842	38.2
551.038	38.12
551.235	38.34
551.432	38.28
551.628	38.25
551.825	38.63
552.022	38.69
552.218	38.55
552.415	38.69
552.612	38.8
552.808	38.98
553.005	39.19
553.201	39.21
553.398	39.08
553.594	39.1
553.791	39.17
553.987	38.89
554.184	38.9
554.38	39.05
554.577	39.29
554.773	39.52
554.97	39.36
555.166	39.34
555.362	39.44
555.559	39.42
555.755	39.61
555.952	39.7
556.148	39.82
556.344	39.97
556.541	40.09
556.737	40.01
556.933	39.68
557.129	39.83
557.326	39.98
557.522	40.1
557.718	40.29
557.914	40.34
558.11	40.43
558.307	40.57
558.503	40.56
558.699	40.62
558.895	40.6
559.091	40.79
559.287	40.82
559.483	40.69
559.679	40.81
559.876	40.93
560.072	40.78
560.268	40.54
560.464	40.76
560.66	40.71
560.856	40.77
561.052	40.94
561.247	40.86
561.443	40.99
561.639	41.18
561.835	40.97
562.031	40.94
562.227	41.1
562.423	41.15
562.619	41.23
562.815	41.54
563.01	41.31
563.206	41.22
563.402	41.34
563.598	41.33
563.793	41.27
563.989	41.39
564.185	41.29
564.381	41.3
564.576	41.55
564.772	41.24
564.968	41.03
565.163	41.07
565.359	41.39
565.555	41.35
565.75	41.4
565.946	41.52
566.141	41.56
566.337	41.75
566.532	41.67
566.728	41.62
566.923	41.87
567.119	41.93
567.314	42.11
567.51	41.92
567.705	41.9
567.901	41.84
568.096	41.86
568.292	41.84
568.487	41.86
568.682	41.92
568.878	41.98
569.073	41.96
569.268	41.97
569.464	41.76
569.659	41.86
569.854	42.08
570.05	42.36
570.245	42.38
570.44	42.28
570.635	42.09
570.831	42.08
571.026	41.91
571.221	42.03
571.416	42.1
571.611	42.33
571.806	42.2
572.002	42.17
572.197	42.14
572.392	42.13
572.587	42.34
572.782	42.5
572.977	42.62
573.172	42.86
573.367	42.53
573.562	42.49
573.757	42.45
573.952	42.6
574.147	42.69
574.342	42.67
574.537	42.69
574.732	42.82
574.927	42.92
575.121	42.91
575.316	42.96
575.511	43.44
575.706	43.47
575.901	43.4
576.096	43.39
576.29	43.4
576.485	43.38
576.68	43.42
576.875	43.38
577.069	43.16
577.264	43.18
577.459	43.14
577.654	43.01
577.848	43.16
578.043	43.31
578.238	43.38
578.432	43.29
578.627	43.37
578.821	43.22
579.016	42.96
579.21	43.05
579.405	43.22
579.6	43.18
579.794	42.92
579.989	42.78
580.183	42.61
580.378	42.4
580.572	42.55
580.766	42.38
580.961	42.6
581.155	42.7
581.35	42.78
581.544	42.65
581.738	42.56
581.933	42.73
582.127	42.71
582.321	42.88
582.516	42.94
582.71	42.79
582.904	42.95
583.099	42.84
583.293	42.96
583.487	42.93
583.681	43.04
583.875	43.14
584.07	43.1
584.264	43.31
584.458	43.45
584.652	43.49
584.846	43.5
585.04	43.36
585.234	43.53
585.428	43.54
585.623	43.88
585.817	43.8
586.011	43.7
586.205	43.64
586.399	43.61
586.593	43.42
586.787	43.61
586.981	43.68
587.174	43.85
587.368	43.48
587.562	43.24
587.756	43.02
587.95	43.23
588.144	43.56
588.338	43.48
588.532	43.46
588.725	43.61
588.919	43.62
589.113	43.71
589.307	43.71
589.501	44.01
589.694	44.15
589.888	44.23
590.082	43.98
590.275	43.73
590.469	43.87
590.663	43.86
590.856	43.98
591.05	44.04
591.244	44.21
591.437	44.31
591.631	44.12
591.824	44.23
592.018	44.22
592.212	44.33
592.405	44.64
592.599	44.64
592.792	44.5
592.986	44.53
593.179	44.73
593.372	44.52
593.566	44.57
593.759	44.75
593.953	44.82
594.146	44.42
594.339	44.6
594.533	44.36
594.726	44.51
594.92	44.5
595.113	44.32
595.306	43.98
595.499	44.16
595.693	44.17
595.886	44.35
596.079	44.39
596.272	44.75
596.466	44.57
596.659	44.65
596.852	44.62
597.045	44.74
597.238	44.66
597.431	44.7
597.624	44.7
597.818	44.75
598.011	44.82
598.204	44.79
598.397	44.79
598.59	44.9
598.783	45.12
598.976	45.15
599.169	45.42
599.362	45.52
599.555	45.58
599.748	45.7
599.941	45.34
600.134	45.22
600.326	45.25
600.519	44.98
600.712	45.13
600.905	44.79
601.098	44.62
601.291	44.02
601.483	43.87
601.676	43.87
601.869	43.63
602.062	43.74
602.255	43.6
602.447	43.45
602.64	43.72
602.833	43.69
603.025	43.84
603.218	43.96
603.411	44.27
603.603	44.48
603.796	44.66
603.989	44.83
604.181	44.94
604.374	45.19
604.566	45.34
604.759	45.2
604.951	45.28
605.144	45.28
605.336	45.29
605.529	45.37
605.721	45.46
605.914	45.27
606.106	45.04
606.299	44.92
606.491	44.8
606.683	44.63
606.876	44.82
607.068	44.77
607.26	44.77
607.453	44.77
607.645	44.67
607.837	44.62
608.03	44.89
608.222	45.12
608.414	45.29
608.606	45.34
608.799	45.35
608.991	45.4
609.183	45.34
609.375	45.43
609.567	45.51
609.759	45.6
609.952	45.64
610.144	45.55
610.336	45.55
610.528	45.5
610.72	45.38
610.912	45.35
611.104	45.33
611.296	45.35
611.488	45.21
611.68	45.28
611.872	44.95
612.064	44.8
612.256	44.39
612.448	44.16
612.64	44.24
612.832	44.16
613.023	44.35
613.215	43.98
613.407	43.8
613.599	43.81
613.791	43.77
613.983	43.89
614.174	44.18
614.366	44.52
614.558	44.64
614.75	44.76
614.941	44.68
615.133	44.68
615.325	44.9
615.516	45.09
615.708	45.14
615.9	45.05
616.091	45.25
616.283	44.92
616.475	45.02
616.666	45
616.858	44.86
617.049	44.73
617.241	44.61
617.432	44.51
617.624	44.28
617.815	44.36
618.007	44.28
618.198	44.65
618.39	44.47
618.581	44.4
618.773	44.25
618.964	44.17
619.155	44.65
619.347	44.83
619.538	44.87
619.729	45.27
619.921	45.3
620.112	45.18
620.303	44.52
620.494	44.64
620.686	44.61
620.877	44.9
621.068	44.8
621.259	44.92
621.451	44.81
621.642	44.78
621.833	44.58
622.024	44.4
622.215	44.71
622.406	45.04
622.597	45.2
622.788	45.42
622.98	45.37
623.171	45.63
623.362	45.28
623.553	45.25
623.744	45.61
623.935	45.69
624.126	45.51
624.317	45.28
624.508	45.19
624.698	45.49
624.889	44.98
625.08	45.19
625.271	45.26
625.462	45.37
625.653	45.61
625.844	45.2
626.034	45.33
626.225	45.58
626.416	45.63
626.607	45.76
626.798	45.5
626.988	45.75
627.179	45.76
627.37	45.84
627.56	46.01
627.751	45.84
627.942	46.18
628.132	46.05
628.323	46.22
628.514	46.15
628.704	46.27
628.895	46.2
629.085	46.06
629.276	45.8
629.466	45.81
629.657	45.65
629.847	45.71
630.038	45.53
630.228	45.62
630.419	45.76
630.609	45.79
630.8	45.47
630.99	45.58
631.181	45.99
631.371	46.05
631.561	45.88
631.752	45.7
631.942	45.68
632.132	45.56
632.323	45.07
632.513	44.75
632.703	45.19
632.893	45.33
633.084	45.27
633.274	44.91
633.464	45.17
633.654	45.13
633.844	45.2
634.034	45.09
634.225	45.41
634.415	45.73
634.605	45.66
634.795	45.31
634.985	45.51
635.175	45.87
635.365	46.11
635.555	45.69
635.745	45.71
635.935	45.73
636.125	46.04
636.315	45.71
636.505	45.57
636.695	45.5
636.885	45.54
637.075	45.27
637.265	45.28
637.455	45.17
637.644	45.26
637.834	45
638.024	44.85
638.214	44.87
638.404	45.02
638.593	44.88
638.783	44.95
638.973	45.17
639.163	45.15
639.352	44.54
639.542	44.62
639.732	44.7
639.921	45.04
640.111	45.23
640.301	44.98
640.49	44.83
640.68	45.13
640.87	44.96
641.059	44.97
641.249	45.12
641.438	45.27
641.628	45.21
641.817	45.39
642.007	45.49
642.196	45.63
642.386	46.03
642.575	46.07
642.764	46.2
642.954	46.47
643.143	46.44
643.333	46.59
643.522	46.38
643.711	46.58
643.901	46.4
644.09	46.23
644.279	46.29
644.469	46.12
644.658	46.4
644.847	46.35
645.036	46.25
645.226	46.15
645.415	46.07
645.604	46.37
645.793	46.33
645.982	46.65
646.171	46.49
646.361	46.06
646.55	45.94
646.739	45.65
646.928	45.65
647.117	45.52
647.306	45.37
647.495	45.34
647.684	45.38
647.873	45.36
648.062	45.36
648.251	45.39
648.44	45.73
648.629	45.76
648.818	46.16
649.007	46.45
649.196	46.81
649.384	46.6
649.573	46.86
649.762	46.67
649.951	46.83
650.14	46.42
650.328	46.73
650.517	46.66
650.706	46.44
650.895	45.95
651.083	45.47
651.272	45.16
651.461	45.62
651.65	45.1
651.838	45.37
652.027	45.17
652.216	45.44
652.404	45.67
652.593	45.67
652.781	45.35
652.97	45.58
653.158	45.63
653.347	45.62
653.535	45.33
653.724	45.76
653.912	45.84
654.101	45.81
654.289	45.57
654.478	44.84
654.666	44.52
654.855	45.26
655.043	45.6
655.231	45.76
655.42	46.09
655.608	46.01
655.796	45.56
655.985	45.72
656.173	45.55
656.361	45.82
656.55	46.1
656.738	45.99
656.926	45.62
657.114	45
657.302	44.64
657.491	44.33
657.679	44.78
657.867	45.39
658.055	45.13
658.243	44.91
658.431	44.62
658.619	44.62
658.807	44.78
658.996	44.86
659.184	44.94
659.372	45.17
659.56	45.27
659.748	45.19
659.936	44.76
660.124	44.73
660.311	44.95
660.499	45.4
660.687	45.28
660.875	45.39
661.063	45.32
661.251	45.91
661.439	45.97
661.627	46.15
661.814	46.29
662.002	46.36
662.19	46
662.378	46.32
662.565	45.66
662.753	45.82
662.941	46.03
663.129	45.97
663.316	45.66
663.504	45.69
663.692	45.61
663.879	45.7
664.067	45.67
664.254	45.99
664.442	45.93
664.63	46.55
664.817	46.76
665.005	46.58
665.192	46.53
665.38	46.27
665.567	45.93
665.755	45.99
665.942	45.48
666.13	45.3
666.317	45.58
666.504	45.11
666.692	44.44
666.879	44.77
667.067	44.79
667.254	44.64
667.441	44.73
667.629	45.1
667.816	45
668.003	44.73
668.19	45.16
668.378	44.98
668.565	45.31
668.752	45.74
668.939	45.55
669.127	45.66
669.314	45.7
669.501	45.71
669.688	45.56
669.875	45.31
670.062	45.68
670.249	45.8
670.436	45.91
670.623	46.19
670.81	46.43
670.997	46.23
671.184	45.85
671.371	45.95
671.558	46.17
671.745	46.17
671.932	46.63
672.119	46.49
672.306	45.83
672.493	46.32
672.68	45.95
672.867	45.94
673.054	45.24
673.24	45.56
673.427	45.45
673.614	45.56
673.801	45.7
673.988	45.58
674.174	45.57
674.361	46.16
674.548	45.28
674.734	45.49
674.921	45.08
675.108	45.68
675.294	45.84
675.481	45.87
675.668	45.34
675.854	45.65
676.041	45.71
676.227	45.44
676.414	45.13
676.601	45.23
676.787	45.31
676.974	45.28
677.16	45.22
677.347	45.39
677.533	46.1
677.719	46.3
677.906	45.99
678.092	46.29
678.279	46.69
678.465	46.51
678.651	46.59
678.838	46.52
679.024	46.53
679.21	46.66
679.397	47.03
679.583	46.35
679.769	46.44
679.955	46.2
680.142	45.75
680.328	45.82
680.514	46.23
680.7	46.5
680.886	46.64
681.073	46.66
681.259	46.34
681.445	45.43
681.631	45.58
681.817	45.18
682.003	45.39
682.189	45.55
682.375	45.32
682.561	45.15
682.747	44.88
682.933	44.44
683.119	44.63
683.305	45.06
683.491	45.36
683.677	45.83
683.863	46.29
684.049	46.57
684.235	46.39
684.42	46.17
684.606	46.29
684.792	46.4
684.978	46.17
685.164	46.25
685.349	46.16
685.535	46.23
685.721	46.15
685.907	46.2
686.092	46.29
686.278	46.19
686.464	46.43
686.649	45.78
686.835	46.18
687.021	46.77
687.206	46.94
687.392	46.85
687.577	46.62
687.763	46.6
687.948	46.64
688.134	46.37
688.319	46.7
688.505	46.47
688.69	46.7
688.876	46.35
689.061	46.69
689.247	46.2
689.432	45.75
689.618	46.17
689.803	46.02
689.988	46.05
690.174	46.02
690.359	45.83
690.544	46.24
690.73	46.59
690.915	46.86
691.1	46.83
691.285	46.81
691.471	47.37
691.656	47.33
691.841	47.63
692.026	47.23
692.211	46.4
692.396	46.04
692.582	46.12
692.767	45.52
692.952	45.36
693.137	44.54
693.322	44.73
693.507	44.36
693.692	43.94
693.877	43.45
694.062	43.47
694.247	44.58
694.432	45.61
694.617	45.17
694.802	45.98
694.987	46.14
695.172	46.8
695.357	46.76
695.541	46.8
695.726	47
695.911	47.13
696.096	47.54
696.281	47.11
696.466	47.12
696.65	47.55
696.835	47.15
697.02	46.78
697.204	46.6
697.389	46.74
697.574	47.08
697.759	47.09
697.943	47.14
698.128	47.18
698.312	47.23
698.497	46.63
698.682	46.63
698.866	46.3
699.051	46.19
699.235	46.08
699.42	45.98
699.604	45.68
699.789	45.41
699.973	45.45
700.158	45.29
700.342	45.31
700.527	45.53
700.711	45.1
700.895	45.34
701.08	45.43
701.264	45.29
701.448	45.44
701.633	45.66
701.817	45.46
702.001	45.11
702.186	44.65
702.37	44.32
702.554	44.04
702.738	44.63
702.923	45.04
703.107	45.03
703.291	45.16
703.475	44.55
703.659	44.08
703.843	44.91
704.027	45.77
704.212	45.58
704.396	45.41
704.58	44.93
704.764	44.67
704.948	44.08
705.132	44.33
705.316	44.74
705.5	45.7
705.684	46.82
705.868	46.91
706.052	45.73
706.235	46.37
706.419	46.83
706.603	47.78
706.787	47.55
706.971	48.22
707.155	48.53
707.339	48.05
707.522	47.83
707.706	46.83
707.89	46.79
708.074	47.16
708.257	47.58
708.441	47.2
708.625	46.74
708.808	47.13
708.992	46.75
709.176	46.38
709.359	46.74
709.543	46.59
709.727	47.29
709.91	46.93
710.094	46.89
710.277	46.26
710.461	46.77
710.644	46.97
710.828	46.42
711.011	46.69
711.195	46.57
711.378	46.31
711.562	45.77
711.745	45.71
711.928	45.81
712.112	45.93
712.295	45.79
712.478	46.14
712.662	45.87
712.845	46.04
713.028	45.86
713.212	45.64
713.395	45.57
713.578	45.89
713.761	45.27
713.945	46.03
714.128	45.59
714.311	46.33
714.494	45.87
714.677	45.54
714.86	45.94
715.043	45.31
715.227	44.89
715.41	45.11
715.593	45.03
715.776	45.48
715.959	45.63
716.142	46.21
716.325	45.16
716.508	44.73
716.691	45.05
716.874	44.91
717.057	45.72
717.239	46.48
717.422	46.03
717.605	45.96
717.788	45.84
717.971	44.83
718.154	44.73
718.337	45.52
718.519	46.15
718.702	46.12
718.885	45.97
719.068	45.87
719.25	45.18
719.433	45.22
719.616	44.5
719.798	44.84
719.981	45.07
720.164	44.38
720.346	43.84
720.529	43.37
720.712	43
720.894	43.45
721.077	43.09
721.259	42.72
721.442	42.44
721.624	42.97
721.807	43.44
721.989	43.74
722.172	44.36
722.354	44.58
722.537	44.82
722.719	45.08
722.901	44.26
723.084	44.64
723.266	45.6
723.448	45.35
723.631	46.07
723.813	45.47
723.995	44.53
724.178	43.89
724.36	44.96
724.542	44.5
724.724	44.68
724.907	44.77
725.089	45.08
725.271	45.63
725.453	46.17
725.635	44.59
725.817	44.5
725.999	44.12
726.181	45.18
726.364	43.97
726.546	44.41
726.728	44.58
726.91	45.29
727.092	45.19
727.274	44.94
727.456	44.55
727.638	44.85
727.819	44.61
728.001	45.13
728.183	44.06
728.365	44.59
728.547	44.95
728.729	44.66
728.911	43.55
729.093	43.3
729.274	43.76
729.456	43.95
729.638	45.06
729.82	45.07
730.001	45.74
730.183	46.75
730.365	46.6
730.546	46.67
730.728	47.36
730.91	47.82
731.091	46.72
731.273	45.14
731.455	45.09
731.636	45.35
731.818	46.27
731.999	46.03
732.181	45.71
732.362	45.29
732.544	44.59
732.725	44.08
732.907	44.93
733.088	45.31
733.27	46.23
733.451	46.57
733.633	45.36
733.814	43.87
733.995	43.25
734.177	43.09
734.358	44.08
734.539	43.55
734.721	42.68
734.902	42.08
735.083	42.65
735.264	42.62
735.446	42.99
735.627	44.15
735.808	45.52
735.989	44.85
736.17	44.88
736.351	43.19
736.533	44.68
736.714	44.82
736.895	44.36
737.076	44.29
737.257	43.83
737.438	43.45
737.619	43.37
737.8	43.16
737.981	44.33
738.162	43.67
738.343	44.78
738.524	45.15
738.705	46.49
738.886	45.54
739.067	45.39
739.247	46.51
739.428	46.51
739.609	46.29
739.79	45.2
739.971	45.47
740.151	45.79
740.332	45.82
740.513	45.25
740.694	44.43
740.874	45.14
741.055	44.89
741.236	44.05
741.417	43.87
741.597	43.44
741.778	43.47
741.958	42.79
742.139	43.26
742.32	43.31
742.5	43.35
742.681	44.07
742.861	45.25
743.042	44.44
743.222	44.61
743.403	45.03
743.583	44.24
743.764	44.67
743.944	45.4
744.124	44.53
744.305	44.31
744.485	43.13
744.666	42.56
744.846	41.62
745.026	43.26
745.207	42.8
745.387	42.83
745.567	42.98
745.747	42.97
745.928	42.57
746.108	43.26
746.288	44.42
746.468	45.43
746.648	45.09
746.829	46.3
747.009	46.94
747.189	46.3
747.369	45.24
747.549	46
747.729	46.58
747.909	47.46
748.089	48.33
748.269	46.09
748.449	45.89
748.629	46.82
748.809	46.79
748.989	45.33
749.169	46.36
749.349	47.02
749.529	47.09
749.709	46.57
749.889	46.04
750.068	45.17
750.248	45.51
750.428	44.86
750.608	44.52
750.788	44.94
750.967	44.95
751.147	44.89
751.327	45.7
751.507	45.12
751.686	45.42
751.866	44.32
752.046	43.82
752.225	43.99
752.405	44.94
752.585	45.64
752.764	44.58
752.944	44.95
753.123	44.78
753.303	43.48
753.482	43.53
753.662	42.67
753.841	43.47
754.021	43.18
754.2	43.65
754.38	42.93
754.559	42.67
754.739	42.4
754.918	41.75
755.097	41.95
755.277	42.95
755.456	42.29
755.635	43.21
755.815	43.06
755.994	43.68
756.173	43.03
756.352	43.39
756.532	42.88
756.711	43.21
756.89	43.6
757.069	43.91
757.248	43.65
757.427	45.05
757.607	43.91
757.786	44.76
757.965	45.51
758.144	46.64
758.323	45.99
758.502	48.19
758.681	46.83
758.86	47.27
759.039	46.85
759.218	46.58
759.397	47.16
759.576	47.48
759.755	46.18
759.934	45.83
760.113	44.1
760.291	44.65
760.47	42.47
760.649	43.63
760.828	43.12
761.007	43.29
761.186	43.06
761.364	42.2
761.543	43.18
761.722	43.43
761.901	42.92
762.079	45.01
762.258	45.04
762.437	45.04
762.615	44.35
762.794	45.16
762.972	45.61
763.151	46.51
763.33	46.42
763.508	46.04
763.687	46.56
763.865	46.08
764.044	45.09
764.222	44.75
764.401	44.74
764.579	45.76
764.758	45.52
764.936	44.73
765.114	44.03
765.293	44.2
765.471	44.53
765.65	43.5
765.828	44.15
766.006	44.43
766.184	45.16
766.363	45.19
766.541	44.65
766.719	45.11
766.898	45.53
767.076	45.07
767.254	43.99
767.432	43.35
767.61	44.57
767.788	45.55
767.967	45.64
768.145	45.44
768.323	44.59
768.501	44.27
768.679	43.51
768.857	43.14
769.035	43.87
769.213	45.41
769.391	44.64
769.569	44.35
769.747	43.11
769.925	43.51
770.103	42.27
770.281	43.36
770.459	42.06
770.636	42.54
770.814	44.9
770.992	45.48
771.17	43.19
771.348	44.43
771.525	44.47
771.703	43.5
771.881	43.85
772.059	44.67
772.236	44.8
772.414	45.62
772.592	45.68
772.769	42.81
772.947	42.28
773.125	44.89
773.302	45.39
773.48	46.15
773.657	47.44
773.835	46.65
774.013	45.88
774.19	43.18
774.368	44.28
774.545	42.28
774.723	42.14
774.9	41.76
775.077	41.39
775.255	40.58
775.432	37.57
775.61	38.03
775.787	36.6
775.964	37.55
776.142	39.52
776.319	39.82
776.496	39.52
776.674	40.44
776.851	41.69
777.028	40.17
777.205	41.59
777.382	43
777.56	41.56
777.737	41.69
777.914	40.52
778.091	40.6
778.268	39.78
778.445	40.42
778.622	39.99
778.8	39.73
778.977	39.79
779.154	33.84
779.331	33.3
779.508	34.64
779.685	35.67
779.862	35.87
780.038	36.16
780.215	35.62
780.392	35.89
780.569	34.53
780.746	34.69
780.923	34.94
781.1	38.9
781.277	41.94
781.453	41.02
781.63	40.17
781.807	41.23
781.984	41.8
782.16	44.03
782.337	43.26
782.514	42.85
782.691	43.2
782.867	43.91
783.044	44.99
783.221	43.33
783.397	43.12
783.574	41.19
783.75	42.66
783.927	43.52
784.103	42.33
784.28	43.55
784.456	45.04
784.633	43.73
784.809	43.97
784.986	44.59
785.162	43.82
785.339	44.87
785.515	48.17
785.692	46.32
785.868	42.62
786.044	42.05
786.221	42.05
786.397	44.18
786.573	44.13
786.749	44.07
786.926	41.85
787.102	40.22
787.278	42.54
787.454	41.29
787.631	39.53
787.807	40.94
787.983	40.05
788.159	39.92
788.335	38.59
788.511	38.54
788.687	37.42
788.863	36.68
789.039	39.55
789.216	35.16
789.392	36.85
789.568	37.6
789.744	36.56
789.919	38.79
790.095	40.83
790.271	42.43
790.447	43.63
790.623	45.68
790.799	49.37
790.975	46.36
791.151	47.3
791.327	47.3
791.502	47.8
791.678	51.64
791.854	50.13
792.03	46.91
792.205	44.9
792.381	43.24
792.557	43.56
792.733	44.92
792.908	47.9
793.084	47.88
793.259	48.63
793.435	50.27
793.611	51.1
793.786	48.35
793.962	49.94
794.137	50.92
794.313	53.47
794.488	53.13
794.664	51.5
794.839	49.3
795.015	50.28
795.19	48.88
795.366	46.58
795.541	45.35
795.716	48.67
795.892	47.7
796.067	49.36
796.242	49.08
796.418	45.83
796.593	43.88
796.768	44.57
796.944	43.87
797.119	42.75
797.294	42.94
797.469	43.99
797.644	42.24
797.82	42.53
797.995	40.68
798.17	37.76
798.345	38.37
798.52	38.78
798.695	37.58
798.87	37.91
799.045	39.05
799.22	40.7
799.395	40.66
799.57	42.09
799.745	41.91
799.92	41.61
800.095	43.72
800.27	43.57
800.445	43.93
800.62	44.63
800.795	45.36
800.97	45.28
801.145	46.34
801.319	42.39
801.494	42.15
801.669	44.46
801.844	46.2
802.018	47.72
802.193	51.78
802.368	51.57
802.543	52.09
802.717	53.63
802.892	53.23
803.067	50.43
803.241	51.3
803.416	53.45
803.59	53.01
803.765	50.72
803.94	49.59
804.114	44.91
804.289	41.21
804.463	39.65
804.638	36.84
804.812	35.94
804.986	38.68
805.161	39.8
805.335	34.82
805.51	34.16
805.684	33.26
805.858	31.6
806.033	33.57
806.207	35.71
806.381	36.81
806.556	37.04
806.73	38.19
806.904	34.93
807.078	34.08
807.253	37.87
807.427	34.47
807.601	36.39
807.775	39.08
807.949	39.07
808.123	37.42
808.298	37.62
808.472	35.24
808.646	31.67
808.82	34.96
808.994	34.96
809.168	31.47
809.342	30.1
809.516	31.76
809.69	29.11
809.864	28.19
810.038	32.77
810.212	30.56
810.385	33.7
810.559	37.02
810.733	34.08
810.907	31.64
811.081	36.96
811.255	38.83
811.428	34.16
811.602	34.53
811.776	34.05
811.95	33.83
812.123	38.73
812.297	38.58
812.471	40.58
812.644	38.24
812.818	40.18
812.992	34.34
813.165	36.04
813.339	41.6
813.512	38.39
813.686	41.85
813.86	40.94
814.033	34.93
814.207	34.98
814.38	31.37
814.554	40.15
814.727	40.1
814.9	40.06
815.074	42.19
815.247	38.29
815.421	41.52
815.594	39.83
815.767	37.55
815.941	39.19
816.114	37.56
816.287	39.33
816.46	34.79
816.634	37.92
816.807	38.79
816.98	35.76
817.153	37.02
817.327	34.51
817.5	35.95
817.673	37.75
817.846	38.18
818.019	38.66
818.192	40.71
818.365	40.92
818.538	40.77
818.711	39.83
818.884	39.55
819.057	35.04
819.23	37.23
819.403	38.86
819.576	37.88
819.749	37.11
819.922	37.71
820.095	38.4
820.268	39.11
820.441	38.76
820.614	41.25
820.786	42.66
820.959	46.6
821.132	46.36
821.305	45.53
821.477	46.62
821.65	47.69
821.823	47.13
821.996	46.25
822.168	46.27
822.341	45.69
822.514	45.76
822.686	46.04
822.859	45.66
823.031	46.23
823.204	45.9
823.376	45.26
823.549	45.38
823.722	45.82
823.894	46.44
824.067	46.38
824.239	46.59
824.411	46.9
824.584	46.8
824.756	46.76
824.929	46.88
825.101	46.42
825.273	47.06
825.446	46.57
825.618	46.09
825.79	45.32
825.963	44.96
826.135	44.55
826.307	44.06
826.479	43.1
826.652	42.85
826.824	42.02
826.996	42.42
827.168	41.79
827.34	41.24
827.512	42.25
827.684	42.2
827.856	42.79
828.029	42.52
828.201	42.55
828.373	43.23
828.545	43.86
828.717	43.04
828.889	42.92
829.061	43.68
829.232	44.14
829.404	42.75
829.576	42.13
829.748	41.14
829.92	41.81
830.092	41.41
830.264	40.67
830.436	39.89
830.607	40.73
830.779	42.71
830.951	40.82
831.123	40.91
831.294	40.99
831.466	38.61
831.638	36.35
831.809	36.55
831.981	36.83
832.153	36.75
832.324	34.45
832.496	34.24
832.667	29.05
832.839	28.94
833.011	30.79
833.182	29.27
833.354	30.61
833.525	35.23
833.697	36.55
833.868	36.58
834.039	38.43
834.211	40.66
834.382	40.08
834.554	43.49
834.725	44.72
834.896	43.03
835.068	43.6
835.239	43.82
835.41	42.43
835.581	43.51
835.753	43.14
835.924	42.08
836.095	42.06
836.266	42.24
836.438	41.57
836.609	41.4
836.78	41.62
836.951	42.35
837.122	44.74
837.293	47.64
837.464	46.49
837.635	46.73
837.806	45.96
837.977	44.02
838.148	43.37
838.319	38.19
838.49	39.86
838.661	37.93
838.832	35.07
839.003	32.81
839.174	23.72
839.345	17.13
839.516	11.53
839.687	2.74
839.857	9.08
840.028	14.16
840.199	20.19
840.37	23.13
840.54	30.57
840.711	38.7
840.882	38
841.053	39.79
841.223	41.33
841.394	46.73
841.564	48.01
841.735	46.17
841.906	44.83
842.076	46.88
842.247	44.54
842.417	41.88
842.588	38.26
842.758	38.75
842.929	38.68
843.099	31.9
843.27	27.73
843.44	32.78
843.611	35.11
843.781	27.44
843.951	28.88
844.122	30.95
844.292	30.75
844.462	29.67
844.633	27.53
844.803	34.03
844.973	45.94
845.144	44.15
845.314	46.91
845.484	58.02
845.654	72.13
845.824	74.32
845.995	65.7
846.165	70.59
846.335	66.14
846.505	54.09
846.675	30.78
846.845	35.65
847.015	34.71
847.185	24.1
847.355	-2.66
847.525	-3.3
847.695	-20.31
847.865	-32.83
848.035	-36.26
848.205	-45.22
848.375	-14.16
848.545	-12.47
848.715	-37.37
848.884	-41.35
849.054	-47.49
849.224	-35
849.394	-24.61
849.564	-8.15
849.733	0.26
849.903	-27.05
850.073	-20.7
850.243	-32.36
850.412	-18.56
850.582	-42.49
850.752	-72.91
850.921	-53.93
851.091	-63.34
851.26	-81.68
851.43	-70.6
851.599	-106.02
851.769	-84.48
851.939	-80.76
852.108	-143.69
852.278	-134.66
852.447	-78.3
852.616	-21.12
852.786	-27.09
852.955	-1.48
853.125	-7.6
853.294	-22.7
853.463	11.14
853.633	-17.42
853.802	-41.66
853.971	3.89
854.141	-14.49
854.31	-8.1
854.479	-44.53
854.648	-76.39
854.818	-90.29
854.987	-44.51
855.156	-58.5
855.325	-56.6
855.494	-59.26
855.663	-56.9
855.832	-94.91
856.001	-91.07
856.171	-90.61
856.34	-76.32
856.509	-49.3
856.678	-35.88
856.847	-22.01
857.016	-28.95
857.185	-25
857.353	9.06
857.522	16.19
857.691	26.84
857.86	16.15
858.029	35.54
858.198	40.76
858.367	37.07
858.535	27.14
858.704	7.74
858.873	26.99
859.042	26.31
859.21	21.76
859.379	12.09
859.548	13.57
859.717	13.36
859.885	4.19
860.054	4.15
860.222	-10.83
860.391	-2.23
860.56	18.2
860.728	15.75
860.897	17.8
861.065	8.2
861.234	6.76
861.402	0.75
861.571	2.37
861.739	-4.65
861.908	2.7
862.076	6.88
862.244	8.54
862.413	-6.25
862.581	-25.75
862.749	-58.7
862.918	-66.01
863.086	-72.11
863.254	-59.79
863.423	-141.19
863.591	-39.37
863.759	-113.88
863.927	-87.34
864.096	-485.35
864.264	254.15
864.432	374.41
864.6	-522.79
864.768	-169.96
864.936	-27.43
865.104	-34.19
865.272	-10.8
865.44	-42.1
865.608	-23.54
865.776	-76.61
865.944	-86.98
866.112	-30.04
866.28	-31.02
866.448	-28.46
866.616	-18.73
866.784	-17.25
866.952	-28.19
867.12	0.13
867.288	1.5
867.455	-5.22
867.623	15.59
867.791	7.86
867.959	22.56
868.127	42.52
868.294	39.52
868.462	35.49
868.63	31.93
868.797	30.51
868.965	4.02
869.133	13.06
869.3	29.76
869.468	9.45
869.636	52.83
869.803	-1.62
869.971	-16.01
870.138	1.74
870.306	-5.87
870.473	-13.87
870.641	-7.04
870.808	-9.24
870.975	-16.45
871.143	-2.16
871.31	-13.98
871.478	-85.27
871.645	-8.89
871.812	-41.15
871.98	-81.82
872.147	-117.5
872.314	-47.69
872.482	-49.13
872.649	-83.81
872.816	-23.11
872.983	-145.62
873.15	-46.59
873.318	-56.59
873.485	-91.25
873.652	-39.75
873.819	-1.42
873.986	20.9
874.153	10.45
874.32	36.89
874.487	38.64
874.654	36.28
874.821	40.64
874.988	30.49
875.155	39.78
875.322	43.55
875.489	36.22
875.656	25.34
875.823	17.72
875.99	14.05
876.157	-1.49
876.324	14.73
876.49	12.49
876.657	11.99
876.824	23.92
876.991	16.45
877.157	13.92
877.324	20.93
877.491	33.7
877.658	25.32
877.824	21.4
877.991	39.88
878.157	14.49
878.324	19.1
878.491	24.27
878.657	19.92
878.824	26.21
878.99	33.06
879.157	49.49
879.323	41.3
879.49	73.58
879.656	84.48
879.823	63.52
879.989	79.9
880.156	64.83
880.322	77.1
880.488	71.5
880.655	86.2
880.821	57.88
880.987	55.2
881.154	50.68
881.32	32.59
881.486	18
881.652	23.68
881.819	22.87
881.985	27.11
882.151	22.79
882.317	23.46
882.483	20.76
882.649	29.18
882.816	27.57
882.982	30.73
883.148	32.2
883.314	32.91
883.48	32.09
883.646	32.09
883.812	33.72
883.978	35.42
884.144	35.47
884.31	36.84
884.476	36
884.642	36.99
884.807	37.31
884.973	37.46
885.139	42.05
885.305	44.43
885.471	44.95
885.637	44.81
885.802	44.58
885.968	44.84
886.134	46.62
886.3	46.15
886.465	45.11
886.631	43.76
886.797	48.14
886.962	45
887.128	40.41
887.293	38.22
887.459	38.33
887.625	34.74
887.79	31.83
887.956	32.42
888.121	36.8
888.287	43.17
888.452	50.06
888.618	26.4
888.783	16.79
