Data from CB_112_Reflection_2.txt Node
Date: Sat Nov 14 18:18:33 EST 2015
User: robert
Spectrometer: USB4E03001
Autoset integration time: false
Trigger mode: 4
Integration Time (sec): 1.000000E-1
Scans to average: 15
Electric dark correction enabled: true
Nonlinearity correction enabled: false
Boxcar width: 5
Stray light correction enabled: false
XAxis mode: Wavelengths
Stop averaging: false
Number of Pixels in Spectrum: 3648
>>>>>Begin Spectral Data<<<<<
177.566	210.28
177.785	-1053.2
178.005	385.34
178.225	464.19
178.445	24.21
178.665	114.81
178.885	538.14
179.105	151.72
179.324	120.56
179.544	63.7
179.764	74.03
179.984	55.75
180.204	25.38
180.423	32.24
180.643	41.82
180.863	24.57
181.083	39.18
181.302	73.74
181.522	81.2
181.742	90.79
181.961	119.59
182.181	151.6
182.401	442.55
182.621	272.01
182.84	335.94
183.06	152.33
183.279	82.51
183.499	126.65
183.719	35.13
183.938	35.04
184.158	76.44
184.377	76.99
184.597	77.1
184.816	61.39
185.036	77.01
185.256	92.78
185.475	101.2
185.695	100.13
185.914	82.93
186.134	87.44
186.353	83.63
186.572	72.37
186.792	81.81
187.011	82.8
187.231	90.53
187.45	78.8
187.67	68.51
187.889	63.86
188.108	71.23
188.328	84.25
188.547	84.55
188.766	76.92
188.986	77.51
189.205	66.56
189.424	67.96
189.644	69.15
189.863	80.75
190.082	89.3
190.302	77.65
190.521	65.69
190.74	70.82
190.959	49.93
191.178	60.79
191.398	78.74
191.617	87.19
191.836	113.96
192.055	90.86
192.274	76.33
192.494	99.54
192.713	235.69
192.932	215.11
193.151	321.36
193.37	238.25
193.589	170.24
193.808	297.35
194.027	634.09
194.246	-1266.67
194.465	1962.09
194.685	209.67
194.904	244.92
195.123	146.07
195.342	176.08
195.561	118.84
195.78	121.56
195.999	136.21
196.218	94.06
196.436	71.23
196.655	72.21
196.874	81.52
197.093	84.7
197.312	61.9
197.531	73.11
197.75	74.4
197.969	73.82
198.188	70.31
198.407	77.97
198.625	90.6
198.844	111.34
199.063	107.5
199.282	113.22
199.501	115.82
199.719	106.91
199.938	58.59
200.157	64.75
200.376	57.43
200.594	71.02
200.813	67.86
201.032	54.31
201.251	45.6
201.469	36.28
201.688	38.75
201.907	42.36
202.125	50.52
202.344	130.27
202.563	89.44
202.781	115.98
203	148.82
203.218	116.89
203.437	69.64
203.656	75.66
203.874	68.94
204.093	75.14
204.311	104.54
204.53	127.14
204.748	72.94
204.967	91.35
205.185	95.34
205.404	78.21
205.622	75.66
205.841	98.24
206.059	106.66
206.278	104.84
206.496	95.69
206.715	108.19
206.933	71.97
207.151	73.63
207.37	77.39
207.588	82.03
207.806	75.57
208.025	81.57
208.243	85.78
208.461	97.3
208.68	95.33
208.898	92.49
209.116	78.25
209.335	80.49
209.553	83.66
209.771	89.45
209.989	73.5
210.208	57.08
210.426	53.74
210.644	52.31
210.862	29.46
211.081	20.44
211.299	27.56
211.517	14.2
211.735	13.28
211.953	39.51
212.171	41.1
212.39	30.94
212.608	58.94
212.826	55.42
213.044	64.46
213.262	76.68
213.48	87.72
213.698	68.71
213.916	88.71
214.134	75.79
214.352	81.11
214.57	73.7
214.788	86.99
215.006	75.83
215.224	81.25
215.442	76.31
215.66	66.45
215.878	50.85
216.096	82.21
216.314	60.95
216.532	88.33
216.75	72.66
216.968	98.92
217.185	122.76
217.403	146.12
217.621	205.45
217.839	174.63
218.057	211.92
218.275	188.77
218.492	186.49
218.71	232.21
218.928	223.22
219.146	312.09
219.363	210.67
219.581	190.91
219.799	188.77
220.017	156.52
220.234	147.08
220.452	165.71
220.67	170.87
220.887	279.44
221.105	392.19
221.323	5549.69
221.54	396.91
221.758	2288.21
221.976	1097.91
222.193	161.53
222.411	266.26
222.629	445.89
222.846	755.23
223.064	-799.21
223.281	1103.94
223.499	614.37
223.716	1274.97
223.934	-1069.13
224.151	-313.06
224.369	-215.5
224.586	-157.65
224.804	-93.8
225.021	-94.06
225.239	-74.05
225.456	-92.14
225.674	-52.9
225.891	-85.3
226.108	-97.86
226.326	-86.74
226.543	-74.52
226.76	-34.98
226.978	-11.27
227.195	-21.87
227.413	-20.85
227.63	-10.42
227.847	-8.24
228.064	-0.09
228.282	4.07
228.499	7.43
228.716	6.58
228.934	6.97
229.151	8.1
229.368	6.5
229.585	6.67
229.802	7.59
230.02	5.39
230.237	9.3
230.454	12.17
230.671	11.04
230.888	10.84
231.105	8.44
231.323	8.01
231.54	0.73
231.757	1.48
231.974	1.21
232.191	1.45
232.408	10.14
232.625	6.79
232.842	-0.72
233.059	2.28
233.276	4.57
233.493	7.12
233.71	9.24
233.927	11.52
234.144	6.22
234.361	-3.27
234.578	-10.66
234.795	-6.96
235.012	-13.64
235.229	-20.85
235.446	-23.51
235.663	-24.45
235.879	-27.4
236.096	-31.9
236.313	-33.53
236.53	-31.14
236.747	-23.58
236.964	-16.39
237.181	-31.56
237.397	-25.64
237.614	-21.74
237.831	-18.49
238.048	-20.12
238.264	-23.94
238.481	-28.13
238.698	-22.2
238.915	-12.62
239.131	-7.91
239.348	-7.13
239.565	0.26
239.781	-0.77
239.998	0.8
240.215	-0.54
240.431	-2.3
240.648	4.83
240.865	9.89
241.081	11.44
241.298	8.64
241.514	7.85
241.731	9.48
241.947	9.55
242.164	10.08
242.38	12.2
242.597	12.67
242.814	14.38
243.03	14.54
243.246	12.32
243.463	11.8
243.679	12.15
243.896	11.75
244.112	10.55
244.329	10.3
244.545	11.86
244.762	10.22
244.978	11.47
245.194	10.82
245.411	8.03
245.627	10.16
245.843	7.71
246.06	7.28
246.276	8.46
246.492	9.71
246.709	9.69
246.925	8.83
247.141	8.64
247.357	8.04
247.574	8.24
247.79	8.54
248.006	8.52
248.222	8.73
248.439	8.75
248.655	8.15
248.871	7.37
249.087	7.08
249.303	5.69
249.519	4.66
249.736	3.63
249.952	3.65
250.168	3.58
250.384	2.24
250.6	3.09
250.816	1.38
251.032	2.96
251.248	2.33
251.464	0.99
251.68	2.62
251.896	3.04
252.112	2.77
252.328	0.2
252.544	-0.78
252.76	-1.59
252.976	-3.17
253.192	-2.36
253.408	-1.01
253.624	0.78
253.84	3.29
254.056	4.26
254.272	5.21
254.487	4.98
254.703	8.84
254.919	11.85
255.135	15.02
255.351	12.5
255.567	15.3
255.782	12.12
255.998	9.79
256.214	9.56
256.43	11.35
256.646	11.15
256.861	14.04
257.077	9.65
257.293	9.92
257.508	10.13
257.724	12.61
257.94	12.7
258.155	11.73
258.371	10.63
258.587	8.91
258.802	7.04
259.018	7.17
259.234	6.55
259.449	7.71
259.665	6.86
259.88	6.19
260.096	6.52
260.312	6.56
260.527	6.8
260.743	6.25
260.958	6.92
261.174	7.59
261.389	7.6
261.605	7.83
261.82	6.96
262.036	6.59
262.251	6.35
262.466	5.63
262.682	5
262.897	4.1
263.113	5.45
263.328	5.16
263.543	1.88
263.759	-0.14
263.974	-1.8
264.189	-2.17
264.405	-0.81
264.62	0.23
264.835	1.65
265.051	1.68
265.266	2.39
265.481	1.72
265.696	0.05
265.912	3.44
266.127	5.77
266.342	8.64
266.557	9.5
266.773	8.53
266.988	7.93
267.203	7.65
267.418	7.45
267.633	7.81
267.848	8.1
268.064	9.51
268.279	7.88
268.494	6.9
268.709	5.12
268.924	6.41
269.139	5.56
269.354	7.7
269.569	8.01
269.784	6.18
269.999	5.48
270.214	5.95
270.429	4.88
270.644	5.77
270.859	5.72
271.074	5.34
271.289	3.99
271.504	5.87
271.719	4.94
271.934	3.25
272.149	4.85
272.363	6.17
272.578	7.23
272.793	7.03
273.008	5.68
273.223	6.51
273.438	6.38
273.653	7.26
273.867	5.55
274.082	4.67
274.297	6.7
274.512	6.14
274.726	4.11
274.941	2.32
275.156	3.86
275.371	6.27
275.585	5.34
275.8	6.25
276.015	6.34
276.229	8.42
276.444	10.23
276.659	9.43
276.873	10
277.088	10.57
277.302	10.86
277.517	11.21
277.732	9.81
277.946	9.9
278.161	8.22
278.375	8.29
278.59	7.75
278.804	5.92
279.019	5.24
279.233	4.07
279.448	2.32
279.662	1.83
279.877	0.73
280.091	2.14
280.306	2.8
280.52	3.76
280.735	2.91
280.949	2.37
281.163	3.13
281.378	3.8
281.592	4.74
281.806	6.2
282.021	6.3
282.235	6.9
282.449	5.87
282.664	6.24
282.878	7.34
283.092	7.66
283.307	8.78
283.521	8.06
283.735	7.71
283.949	7.75
284.164	7.86
284.378	8.25
284.592	8.22
284.806	9.55
285.02	9.83
285.234	9.32
285.449	10.08
285.663	9.08
285.877	9.6
286.091	9.43
286.305	10.3
286.519	10.41
286.733	9.59
286.947	9.73
287.161	9.29
287.375	8.55
287.589	8.86
287.803	8.09
288.017	8.83
288.231	8.6
288.445	9.08
288.659	7.27
288.873	6.56
289.087	7.05
289.301	5.87
289.515	5.76
289.729	5.02
289.943	2.99
290.157	2.51
290.371	2.91
290.584	3.59
290.798	2.43
291.012	2.94
291.226	3.61
291.44	3.52
291.654	3.62
291.867	4.13
292.081	5.23
292.295	7.55
292.509	8.63
292.722	6.68
292.936	5.53
293.15	8.1
293.364	9.37
293.577	9.39
293.791	10.24
294.005	10.25
294.218	9.46
294.432	8.83
294.645	7.67
294.859	8.03
295.073	9.25
295.286	9.77
295.5	9.73
295.713	9.18
295.927	9.36
296.14	9
296.354	8.89
296.568	9.43
296.781	10.39
296.994	10.47
297.208	9.07
297.421	9.69
297.635	8.87
297.848	8.1
298.062	8.39
298.275	8.98
298.489	9.49
298.702	9.92
298.915	9.37
299.129	8.57
299.342	9.38
299.555	9.25
299.769	9.16
299.982	9.85
300.195	9.14
300.409	9.52
300.622	7.77
300.835	6.92
301.048	6.37
301.262	6.8
301.475	6.74
301.688	5.45
301.901	6.12
302.115	4.95
302.328	5.21
302.541	5.29
302.754	4.77
302.967	6.78
303.18	6.07
303.393	7.35
303.607	7.18
303.82	8.67
304.033	10.48
304.246	10.91
304.459	12.21
304.672	12.41
304.885	13.28
305.098	13.16
305.311	12.4
305.524	13.24
305.737	12.82
305.95	13.97
306.163	12.61
306.376	11.58
306.589	12.15
306.802	10.51
307.015	10.72
307.228	10.63
307.44	10.57
307.653	11
307.866	11.24
308.079	11.53
308.292	11.1
308.505	12.25
308.718	12.54
308.93	11.89
309.143	12.61
309.356	10.9
309.569	10.7
309.781	11
309.994	11.26
310.207	11.01
310.42	10.95
310.632	11.39
310.845	10.9
311.058	11.4
311.27	12.45
311.483	12.72
311.696	13.96
311.908	14.72
312.121	14.04
312.333	13.23
312.546	13.48
312.759	13.42
312.971	12.09
313.184	11.47
313.396	9.87
313.609	7.96
313.821	7.23
314.034	6.26
314.246	5.85
314.459	5.99
314.671	5.92
314.884	6.24
315.096	6.18
315.309	6.16
315.521	7.17
315.733	7.58
315.946	9.14
316.158	9.26
316.371	10.2
316.583	9.23
316.795	10.33
317.008	12.08
317.22	11.28
317.432	11.3
317.644	10.04
317.857	10.48
318.069	12.21
318.281	10.07
318.494	9.63
318.706	10.05
318.918	10.68
319.13	10.71
319.342	10.22
319.555	10.03
319.767	9.48
319.979	10.99
320.191	11
320.403	9.95
320.615	11.73
320.827	11.22
321.039	9.94
321.252	10.8
321.464	10.72
321.676	8.57
321.888	9.5
322.1	9.79
322.312	10.55
322.524	10.39
322.736	11.35
322.948	11
323.16	12.24
323.372	13.07
323.584	12.5
323.796	10.7
324.007	11.51
324.219	12.03
324.431	12.41
324.643	12.54
324.855	12.46
325.067	12.1
325.279	12.95
325.491	14.09
325.702	14.72
325.914	14.47
326.126	16.08
326.338	18.18
326.55	18.67
326.761	20.43
326.973	21.14
327.185	21.54
327.396	22.56
327.608	22.14
327.82	21.03
328.032	21.84
328.243	22.88
328.455	24
328.666	23.99
328.878	25.18
329.09	24.5
329.301	25.52
329.513	26.93
329.725	26.64
329.936	27.61
330.148	28.89
330.359	28.4
330.571	28.47
330.782	28.17
330.994	27.76
331.205	26.47
331.417	26.62
331.628	25.56
331.84	23.18
332.051	23.48
332.262	24.15
332.474	23.56
332.685	24.29
332.897	24.5
333.108	24.47
333.319	23.88
333.531	24.74
333.742	24.73
333.953	25.74
334.165	25.95
334.376	26.32
334.587	26.28
334.799	27.97
335.01	27.3
335.221	28.52
335.432	29.14
335.644	29.77
335.855	29.7
336.066	30.17
336.277	28.76
336.488	29.94
336.7	29.86
336.911	30.13
337.122	29.71
337.333	29.95
337.544	29.33
337.755	27.33
337.966	27.66
338.177	27.48
338.388	27.33
338.599	28.28
338.811	27.75
339.022	28.41
339.233	27.4
339.444	26.39
339.655	26.91
339.866	26.4
340.076	27.29
340.287	26.2
340.498	26.06
340.709	26.18
340.92	26.54
341.131	26.75
341.342	26.31
341.553	26.75
341.764	27.64
341.975	27.42
342.185	27.84
342.396	28.09
342.607	28.23
342.818	28.08
343.029	27.92
343.239	28.1
343.45	28.94
343.661	29.35
343.872	29.58
344.082	29.3
344.293	29.95
344.504	30.03
344.714	31
344.925	31.15
345.136	32.03
345.346	31.26
345.557	31.06
345.768	30.8
345.978	30
346.189	29.73
346.399	29.99
346.61	29.27
346.821	29.14
347.031	28.56
347.242	28.94
347.452	28.54
347.663	28.99
347.873	28.14
348.084	27.54
348.294	27.88
348.504	27.84
348.715	27.53
348.925	27.35
349.136	27.56
349.346	27.09
349.557	26.9
349.767	26.5
349.977	26.66
350.188	26.78
350.398	26.8
350.608	26.49
350.819	26.91
351.029	26.88
351.239	27.13
351.449	26.72
351.66	26.71
351.87	27.29
352.08	27.21
352.29	27.18
352.501	27.3
352.711	27.85
352.921	27.85
353.131	27.54
353.341	27.23
353.552	27.89
353.762	27.95
353.972	27.77
354.182	27.11
354.392	26.33
354.602	26.35
354.812	26.56
355.022	26.27
355.232	26.09
355.442	25.81
355.652	26.07
355.862	25.27
356.072	25.28
356.282	25.64
356.492	25.81
356.702	26.92
356.912	27.16
357.122	27.35
357.332	26.74
357.542	26.66
357.752	27.02
357.962	27.16
358.171	26.82
358.381	26.75
358.591	27.18
358.801	26.72
359.011	26.43
359.221	26.36
359.43	26.51
359.64	26.82
359.85	26.91
360.06	26.66
360.269	26.26
360.479	26.68
360.689	26.69
360.899	26.63
361.108	27.19
361.318	26.97
361.528	26.78
361.737	26.78
361.947	26.92
362.156	26.98
362.366	27.05
362.576	26.93
362.785	27.05
362.995	27.21
363.204	26.89
363.414	26.55
363.623	26.76
363.833	26.31
364.042	25.73
364.252	25.81
364.461	25.75
364.671	25.76
364.88	25.7
365.09	25.09
365.299	24.84
365.509	25.22
365.718	25.09
365.927	24.51
366.137	24.88
366.346	24.89
366.555	24.66
366.765	24.27
366.974	23.79
367.183	23.97
367.393	24.58
367.602	24.72
367.811	24.17
368.021	24.33
368.23	24.79
368.439	24.95
368.648	24.95
368.857	25.09
369.067	25.19
369.276	25.14
369.485	24.46
369.694	23.75
369.903	22.86
370.112	22.81
370.321	23.18
370.531	22.97
370.74	22.36
370.949	22.56
371.158	22.43
371.367	22.77
371.576	22.81
371.785	23.21
371.994	23.58
372.203	24.35
372.412	24.25
372.621	23.42
372.83	23.01
373.039	23.02
373.248	22.64
373.457	22.29
373.666	21.8
373.874	21.32
374.083	20.82
374.292	20.22
374.501	19.67
374.71	19.13
374.919	19.39
375.128	20.16
375.336	20.4
375.545	20.6
375.754	20.88
375.963	21.11
376.171	21.35
376.38	22.21
376.589	22.32
376.798	21.88
377.006	22.14
377.215	21.43
377.424	20.71
377.632	20.26
377.841	19.9
378.05	19.09
378.258	18.92
378.467	18.6
378.675	17.75
378.884	17.51
379.093	17.52
379.301	17.33
379.51	17.99
379.718	18.23
379.927	18.42
380.135	18.78
380.344	19.38
380.552	18.89
380.761	19.19
380.969	19.36
381.177	20.08
381.386	20.01
381.594	20.15
381.803	19.63
382.011	19.12
382.219	19.12
382.428	18.89
382.636	18.44
382.845	18.69
383.053	18.49
383.261	18.32
383.469	17.77
383.678	18.16
383.886	18.46
384.094	18.65
384.302	18.77
384.511	18.94
384.719	19.03
384.927	18.98
385.135	18.98
385.343	19
385.552	18.8
385.76	18.15
385.968	17.71
386.176	17.09
386.384	17
386.592	17.18
386.8	16.54
387.008	16.36
387.216	16.33
387.424	15.78
387.633	15.72
387.841	15.92
388.049	16.67
388.257	16.59
388.465	16.55
388.672	16.39
388.88	15.9
389.088	15.99
389.296	15.61
389.504	15.61
389.712	16.02
389.92	16.05
390.128	15.79
390.336	15.35
390.544	15.34
390.751	14.98
390.959	14.62
391.167	14.85
391.375	14.79
391.583	14.6
391.79	14.61
391.998	14.32
392.206	14.07
392.414	14.22
392.621	13.65
392.829	13.67
393.037	13.83
393.244	13.97
393.452	13.65
393.66	13.7
393.867	13.77
394.075	13.64
394.283	13.61
394.49	13.24
394.698	13.03
394.905	13.38
395.113	13.43
395.32	13.6
395.528	13.62
395.735	13.86
395.943	14.16
396.15	14.15
396.358	14.21
396.565	14.48
396.773	14.87
396.98	14.56
397.188	14.96
397.395	14.86
397.602	14.59
397.81	14.57
398.017	14.32
398.225	13.89
398.432	13.82
398.639	13.64
398.847	13.11
399.054	13.07
399.261	13.24
399.468	12.82
399.676	13.01
399.883	13.25
400.09	13.16
400.297	12.88
400.505	12.75
400.712	12.82
400.919	12.7
401.126	12.61
401.333	12.71
401.54	12.66
401.748	12.83
401.955	12.3
402.162	12.3
402.369	12.45
402.576	12.51
402.783	12.83
402.99	12.73
403.197	12.98
403.404	12.93
403.611	12.66
403.818	12.99
404.025	12.85
404.232	12.93
404.439	12.73
404.646	12.6
404.853	12.53
405.06	12.04
405.267	12.02
405.474	11.78
405.681	11.79
405.887	11.75
406.094	11.05
406.301	10.85
406.508	10.77
406.715	10.59
406.922	10.44
407.128	10.95
407.335	11.24
407.542	11.26
407.749	11.4
407.955	11.56
408.162	11.94
408.369	12.53
408.575	12.81
408.782	12.88
408.989	12.8
409.195	12.96
409.402	12.69
409.609	12.69
409.815	12.58
410.022	12.28
410.228	12.23
410.435	11.82
410.642	11.98
410.848	11.66
411.055	11.71
411.261	11.86
411.468	11.73
411.674	11.55
411.881	11.55
412.087	11.35
412.294	11.72
412.5	11.71
412.706	11.68
412.913	11.41
413.119	11.54
413.326	11.43
413.532	11.48
413.738	11.77
413.945	11.81
414.151	11.7
414.357	11.79
414.564	11.66
414.77	11.56
414.976	11.63
415.182	11.43
415.389	11.35
415.595	11.54
415.801	11.13
416.007	10.96
416.214	10.84
416.42	10.92
416.626	11.08
416.832	10.82
417.038	10.86
417.244	11.06
417.45	11.04
417.657	11.08
417.863	11.01
418.069	11.13
418.275	11.02
418.481	11.13
418.687	11.07
418.893	10.91
419.099	11.01
419.305	11.17
419.511	11.07
419.717	11.12
419.923	11.04
420.129	10.96
420.335	11.04
420.541	11.23
420.746	11.22
420.952	11.15
421.158	11.28
421.364	11.33
421.57	11.15
421.776	11.06
421.982	10.93
422.187	10.91
422.393	11.04
422.599	11.04
422.805	10.94
423.01	11.05
423.216	11.03
423.422	11.04
423.628	11
423.833	11.08
424.039	11.15
424.245	11.33
424.45	11.4
424.656	11.36
424.862	11.3
425.067	11.21
425.273	11.11
425.478	11.22
425.684	11.07
425.889	10.92
426.095	11.12
426.301	10.95
426.506	10.8
426.712	10.8
426.917	10.73
427.123	10.79
427.328	10.98
427.533	11.05
427.739	10.98
427.944	11.05
428.15	11.09
428.355	10.67
428.561	10.87
428.766	11.03
428.971	10.86
429.177	10.88
429.382	10.91
429.587	10.6
429.793	10.52
429.998	10.62
430.203	10.49
430.408	10.83
430.614	10.73
430.819	10.74
431.024	10.57
431.229	10.84
431.434	10.68
431.64	10.6
431.845	10.71
432.05	10.6
432.255	10.48
432.46	10.66
432.665	10.52
432.87	10.76
433.076	10.68
433.281	10.73
433.486	10.64
433.691	10.62
433.896	10.67
434.101	10.69
434.306	10.56
434.511	10.56
434.716	10.56
434.921	10.54
435.126	10.42
435.331	10.55
435.535	10.53
435.74	10.37
435.945	10.5
436.15	10.37
436.355	10.34
436.56	10.45
436.765	10.5
436.97	10.48
437.174	10.34
437.379	10.34
437.584	10.24
437.789	10.35
437.993	10.55
438.198	10.37
438.403	10.54
438.608	10.58
438.812	10.68
439.017	10.68
439.222	10.73
439.426	10.86
439.631	10.89
439.836	10.83
440.04	10.85
440.245	10.78
440.45	10.81
440.654	10.84
440.859	10.7
441.063	10.66
441.268	10.59
441.472	10.52
441.677	10.55
441.881	10.49
442.086	10.55
442.29	10.42
442.495	10.32
442.699	10.29
442.904	10.22
443.108	10.26
443.312	10.04
443.517	10.09
443.721	9.91
443.925	9.9
444.13	9.97
444.334	9.97
444.538	10
444.743	10.13
444.947	10.15
445.151	10.2
445.356	10.39
445.56	10.63
445.764	10.75
445.968	10.74
446.173	10.6
446.377	10.45
446.581	10.39
446.785	10.34
446.989	10.27
447.193	10.4
447.398	10.35
447.602	10.25
447.806	10.18
448.01	10.02
448.214	10.13
448.418	10
448.622	9.97
448.826	9.86
449.03	10
449.234	10.17
449.438	10.11
449.642	10.03
449.846	9.81
450.05	9.63
450.254	9.71
450.458	9.67
450.662	9.91
450.866	10.07
451.069	10.28
451.273	10.04
451.477	10.04
451.681	9.85
451.885	9.98
452.089	10.14
452.292	10.36
452.496	10.14
452.7	10.17
452.904	10.28
453.107	10.21
453.311	10.34
453.515	10.58
453.719	10.43
453.922	10.48
454.126	10.24
454.33	10.12
454.533	9.89
454.737	10.03
454.94	10.18
455.144	10.18
455.348	10.35
455.551	10.05
455.755	9.89
455.958	9.91
456.162	10
456.365	10.17
456.569	10.2
456.772	10.52
456.976	10.51
457.179	10.22
457.383	10.12
457.586	10.11
457.79	10.25
457.993	10.37
458.196	10.2
458.4	10.27
458.603	10.18
458.807	10.27
459.01	10.12
459.213	10.08
459.417	10.09
459.62	9.89
459.823	9.84
460.026	9.83
460.23	9.73
460.433	9.82
460.636	9.88
460.839	9.86
461.042	9.88
461.246	9.82
461.449	9.83
461.652	9.86
461.855	10.13
462.058	10.02
462.261	10.01
462.464	9.94
462.668	9.89
462.871	9.65
463.074	9.67
463.277	9.64
463.48	9.48
463.683	9.31
463.886	9.36
464.089	9.17
464.292	9.3
464.495	9.34
464.698	9.39
464.901	9.37
465.104	9.46
465.306	9.56
465.509	9.43
465.712	9.63
465.915	9.78
466.118	9.69
466.321	9.7
466.524	9.83
466.726	9.76
466.929	9.52
467.132	9.49
467.335	9.5
467.538	9.49
467.74	9.48
467.943	9.5
468.146	9.6
468.348	9.68
468.551	9.65
468.754	9.61
468.956	9.72
469.159	9.99
469.362	10.26
469.564	10.13
469.767	10
469.969	10.22
470.172	10.29
470.375	10.15
470.577	10.12
470.78	10.11
470.982	10.12
471.185	10.09
471.387	10.06
471.59	9.91
471.792	9.92
471.995	10
472.197	9.79
472.399	9.55
472.602	9.62
472.804	9.49
473.007	9.52
473.209	9.6
473.411	9.39
473.614	9.35
473.816	9.3
474.018	9.39
474.22	9.44
474.423	9.52
474.625	9.66
474.827	9.8
475.03	9.95
475.232	10
475.434	10.03
475.636	10.18
475.838	10.22
476.04	10.27
476.243	10.08
476.445	10.06
476.647	10.04
476.849	9.99
477.051	9.83
477.253	9.84
477.455	9.64
477.657	9.53
477.859	9.45
478.061	9.4
478.263	9.4
478.465	9.51
478.667	9.66
478.869	9.61
479.071	9.61
479.273	9.64
479.475	9.79
479.677	9.98
479.879	9.87
480.081	9.93
480.283	9.97
480.485	9.87
480.686	9.95
480.888	9.88
481.09	9.89
481.292	10.04
481.494	10.04
481.695	9.9
481.897	10
482.099	9.95
482.301	9.94
482.502	9.96
482.704	9.99
482.906	9.94
483.107	9.85
483.309	9.88
483.511	9.85
483.712	9.87
483.914	9.86
484.115	9.83
484.317	9.9
484.519	9.84
484.72	9.75
484.922	9.7
485.123	9.73
485.325	9.77
485.526	9.77
485.728	9.74
485.929	9.69
486.131	9.64
486.332	9.6
486.534	9.56
486.735	9.6
486.936	9.71
487.138	9.79
487.339	9.73
487.541	9.76
487.742	9.71
487.943	9.7
488.144	9.7
488.346	9.72
488.547	9.67
488.748	9.67
488.95	9.75
489.151	9.67
489.352	9.63
489.553	9.64
489.755	9.63
489.956	9.71
490.157	9.69
490.358	9.72
490.559	9.83
490.76	9.82
490.961	9.87
491.163	9.86
491.364	9.93
491.565	9.94
491.766	9.96
491.967	9.9
492.168	9.94
492.369	9.93
492.57	9.89
492.771	9.75
492.972	9.8
493.173	9.73
493.374	9.68
493.575	9.63
493.776	9.57
493.976	9.57
494.177	9.54
494.378	9.4
494.579	9.51
494.78	9.68
494.981	9.83
495.182	9.99
495.382	9.99
495.583	9.92
495.784	9.89
495.985	10
496.185	9.8
496.386	9.79
496.587	9.69
496.788	9.66
496.988	9.59
497.189	9.6
497.39	9.66
497.59	9.68
497.791	9.74
497.992	9.86
498.192	9.64
498.393	9.79
498.593	9.93
498.794	9.95
498.994	10.02
499.195	9.93
499.395	9.97
499.596	9.8
499.796	9.83
499.997	9.97
500.197	9.84
500.398	10.05
500.598	10.1
500.799	10.08
500.999	10.23
501.199	10.12
501.4	10.28
501.6	10.22
501.801	10.25
502.001	10.24
502.201	10.19
502.402	10.38
502.602	10.39
502.802	10.38
503.002	10.41
503.203	10.4
503.403	10.35
503.603	10.22
503.803	10.27
504.003	10.28
504.204	10.17
504.404	10.1
504.604	10.08
504.804	10.02
505.004	10.01
505.204	9.98
505.404	10.03
505.604	10.07
505.804	10.25
506.005	10.27
506.205	10.44
506.405	10.5
506.605	10.47
506.805	10.41
507.005	10.52
507.204	10.72
507.404	10.78
507.604	10.75
507.804	10.82
508.004	10.82
508.204	10.85
508.404	10.69
508.604	10.84
508.804	10.96
509.003	11.15
509.203	11.17
509.403	11.16
509.603	11.03
509.803	11.1
510.002	11.06
510.202	11.1
510.402	11.14
510.602	11.18
510.801	11.3
511.001	11.24
511.201	11.23
511.4	11.15
511.6	11.12
511.8	11.31
511.999	11.29
512.199	11.47
512.398	11.43
512.598	11.61
512.797	11.7
512.997	11.64
513.197	11.8
513.396	11.88
513.596	12.07
513.795	12.21
513.994	12.15
514.194	12.34
514.393	12.4
514.593	12.66
514.792	12.59
514.992	12.77
515.191	12.7
515.39	12.72
515.59	12.72
515.789	12.79
515.988	12.81
516.188	13.09
516.387	13.06
516.586	13.19
516.786	13.16
516.985	13.26
517.184	13.28
517.383	13.42
517.582	13.37
517.782	13.53
517.981	13.65
518.18	13.65
518.379	13.65
518.578	13.62
518.777	13.54
518.976	13.66
519.176	13.73
519.375	13.76
519.574	13.95
519.773	14.1
519.972	14.1
520.171	14.07
520.37	14.23
520.569	14.39
520.768	14.59
520.967	14.79
521.166	14.79
521.365	14.8
521.564	14.82
521.762	14.9
521.961	15.03
522.16	15.15
522.359	15.4
522.558	15.46
522.757	15.45
522.956	15.62
523.154	15.8
523.353	15.9
523.552	16.08
523.751	16.29
523.949	16.28
524.148	16.35
524.347	16.45
524.546	16.6
524.744	16.63
524.943	16.68
525.142	16.68
525.34	16.68
525.539	16.8
525.737	16.82
525.936	16.95
526.135	17.18
526.333	17.36
526.532	17.51
526.73	17.59
526.929	17.72
527.127	17.96
527.326	18.17
527.524	18.25
527.723	18.45
527.921	18.56
528.12	18.61
528.318	18.65
528.516	18.7
528.715	18.77
528.913	18.87
529.112	18.95
529.31	19.03
529.508	19.09
529.707	19.24
529.905	19.29
530.103	19.4
530.301	19.57
530.5	19.68
530.698	19.79
530.896	19.9
531.094	19.96
531.293	20.08
531.491	20.11
531.689	20.2
531.887	20.25
532.085	20.34
532.283	20.44
532.481	20.5
532.68	20.65
532.878	20.89
533.076	20.98
533.274	21.09
533.472	21.26
533.67	21.41
533.868	21.53
534.066	21.73
534.264	21.84
534.462	21.95
534.66	22
534.858	22.08
535.056	21.98
535.253	22.16
535.451	22.29
535.649	22.41
535.847	22.55
536.045	22.66
536.243	22.73
536.441	22.86
536.638	23.05
536.836	23.19
537.034	23.33
537.232	23.53
537.43	23.59
537.627	23.68
537.825	23.74
538.023	23.76
538.22	23.87
538.418	23.73
538.616	23.84
538.813	23.9
539.011	24.04
539.209	24.18
539.406	24.32
539.604	24.46
539.801	24.66
539.999	24.89
540.196	25.12
540.394	25.29
540.591	25.59
540.789	25.61
540.986	25.8
541.184	25.94
541.381	25.98
541.579	26.04
541.776	26.12
541.974	26.15
542.171	26.18
542.368	26.26
542.566	26.37
542.763	26.45
542.96	26.54
543.158	26.61
543.355	26.69
543.552	26.81
543.75	27
543.947	27.11
544.144	27.18
544.341	27.25
544.539	27.35
544.736	27.36
544.933	27.46
545.13	27.53
545.327	27.59
545.524	27.68
545.722	27.6
545.919	27.59
546.116	27.66
546.313	27.74
546.51	27.85
546.707	27.8
546.904	27.84
547.101	27.85
547.298	28.06
547.495	28.02
547.692	28.23
547.889	28.48
548.086	28.59
548.283	28.69
548.48	28.8
548.677	28.79
548.874	29
549.07	29.06
549.267	29.36
549.464	29.48
549.661	29.52
549.858	29.53
550.055	29.69
550.251	29.66
550.448	29.78
550.645	29.94
550.842	30.19
551.038	30.26
551.235	30.44
551.432	30.33
551.628	30.33
551.825	30.47
552.022	30.28
552.218	30.19
552.415	30.38
552.612	30.41
552.808	30.46
553.005	30.41
553.201	30.53
553.398	30.43
553.594	30.44
553.791	30.46
553.987	30.5
554.184	30.69
554.38	30.92
554.577	31.02
554.773	31.06
554.97	31.06
555.166	31.13
555.362	31.04
555.559	31.24
555.755	31.32
555.952	31.35
556.148	31.36
556.344	31.35
556.541	31.29
556.737	31.33
556.933	31.42
557.129	31.27
557.326	31.45
557.522	31.69
557.718	31.43
557.914	31.65
558.11	31.88
558.307	32.11
558.503	32.06
558.699	32.15
558.895	31.96
559.091	31.85
559.287	32.18
559.483	32.2
559.679	32.17
559.876	32.58
560.072	32.39
560.268	32.13
560.464	32.35
560.66	32.73
560.856	32.7
561.052	32.98
561.247	33.08
561.443	33.03
561.639	32.94
561.835	32.97
562.031	33.01
562.227	33.18
562.423	33.35
562.619	33.31
562.815	33.23
563.01	33.31
563.206	33.19
563.402	33.3
563.598	33.39
563.793	33.42
563.989	33.47
564.185	33.53
564.381	33.62
564.576	33.68
564.772	33.63
564.968	33.48
565.163	33.53
565.359	33.76
565.555	33.76
565.75	33.83
565.946	33.97
566.141	34.01
566.337	34.08
566.532	33.95
566.728	34.08
566.923	34.15
567.119	34.31
567.314	34.14
567.51	34.19
567.705	34.08
567.901	34.06
568.096	34.22
568.292	34.08
568.487	34.14
568.682	34.1
568.878	34.15
569.073	34.22
569.268	34.26
569.464	34.34
569.659	34.42
569.854	34.58
570.05	34.85
570.245	34.9
570.44	35.2
570.635	35.29
570.831	35.5
571.026	35.51
571.221	35.3
571.416	35.33
571.611	35.4
571.806	35.34
572.002	35.43
572.197	35.35
572.392	35.31
572.587	35.26
572.782	35.11
572.977	35.26
573.172	35.18
573.367	35.25
573.562	35.16
573.757	35.32
573.952	35.2
574.147	35.23
574.342	35.29
574.537	35.29
574.732	35.49
574.927	35.51
575.121	35.35
575.316	35.37
575.511	35.61
575.706	35.67
575.901	35.65
576.096	35.79
576.29	35.75
576.485	35.8
576.68	35.78
576.875	35.83
577.069	35.81
577.264	36.03
577.459	36.17
577.654	36.13
577.848	36.27
578.043	36.42
578.238	36.63
578.432	36.7
578.627	36.77
578.821	36.8
579.016	36.39
579.21	36.53
579.405	36.42
579.6	36.4
579.794	36.35
579.989	36.33
580.183	35.83
580.378	35.67
580.572	35.78
580.766	35.73
580.961	35.81
581.155	35.92
581.35	35.94
581.544	35.97
581.738	35.98
581.933	36.03
582.127	35.97
582.321	36.58
582.516	36.28
582.71	36.1
582.904	35.96
583.099	35.84
583.293	36.1
583.487	36.11
583.681	36.06
583.875	35.94
584.07	35.96
584.264	36.3
584.458	36.18
584.652	36.49
584.846	36.73
585.04	36.92
585.234	36.9
585.428	36.82
585.623	36.96
585.817	37.32
586.011	37.5
586.205	37.53
586.399	37.27
586.593	36.99
586.787	37.41
586.981	37.32
587.174	37.26
587.368	37.25
587.562	37.12
587.756	37.13
587.95	36.84
588.144	37.02
588.338	37.18
588.532	37.15
588.725	37.44
588.919	37.34
589.113	37.47
589.307	37.59
589.501	37.66
589.694	37.8
589.888	37.74
590.082	37.75
590.275	37.58
590.469	37.26
590.663	37.27
590.856	37.41
591.05	37.15
591.244	37.24
591.437	37.25
591.631	37.34
591.824	37.51
592.018	37.22
592.212	37.35
592.405	37.6
592.599	37.81
592.792	37.81
592.986	37.88
593.179	37.94
593.372	37.91
593.566	38.09
593.759	37.97
593.953	38.09
594.146	38.29
594.339	38.25
594.533	37.99
594.726	37.95
594.92	37.93
595.113	37.9
595.306	37.87
595.499	37.81
595.693	37.6
595.886	37.72
596.079	37.34
596.272	37.5
596.466	37.58
596.659	37.85
596.852	37.77
597.045	38
597.238	37.91
597.431	38.08
597.624	38.29
597.818	38.5
598.011	38.63
598.204	38.87
598.397	39.1
598.59	38.92
598.783	38.86
598.976	39.19
599.169	39.23
599.362	39.22
599.555	39.12
599.748	38.91
599.941	38.48
600.134	38.26
600.326	38.21
600.519	37.79
600.712	38.04
600.905	37.98
601.098	37.54
601.291	37.08
601.483	37.02
601.676	37.13
601.869	37.23
602.062	37.43
602.255	37.45
602.447	37.55
602.64	37.76
602.833	38
603.025	38.04
603.218	38.28
603.411	38.55
603.603	38.65
603.796	38.62
603.989	38.75
604.181	38.83
604.374	39.06
604.566	39.09
604.759	39.04
604.951	38.94
605.144	38.95
605.336	38.92
605.529	38.93
605.721	39.03
605.914	38.99
606.106	38.81
606.299	38.91
606.491	38.6
606.683	38.64
606.876	38.73
607.068	38.67
607.26	38.52
607.453	38.71
607.645	38.93
607.837	38.8
608.03	38.93
608.222	39.03
608.414	39.09
608.606	39.29
608.799	39.08
608.991	39.08
609.183	39.12
609.375	39.45
609.567	39.59
609.759	39.48
609.952	39.76
610.144	39.78
610.336	39.96
610.528	39.95
610.72	40.16
610.912	40.44
611.104	40.66
611.296	40.65
611.488	40.44
611.68	40.31
611.872	40.53
612.064	40.19
612.256	40.08
612.448	39.72
612.64	39.47
612.832	39.29
613.023	39.31
613.215	38.95
613.407	39.05
613.599	39.16
613.791	39.19
613.983	38.8
614.174	39.08
614.366	39.25
614.558	39.6
614.75	39.81
614.941	39.72
615.133	39.36
615.325	39.53
615.516	39.79
615.708	39.8
615.9	39.62
616.091	39.78
616.283	39.94
616.475	40.09
616.666	39.94
616.858	39.95
617.049	40.21
617.241	40.19
617.432	40.15
617.624	39.82
617.815	39.59
618.007	39.64
618.198	39.74
618.39	39.51
618.581	39.19
618.773	39.03
618.964	38.87
619.155	39
619.347	39.28
619.538	39.28
619.729	39.46
619.921	39.84
620.112	39.91
620.303	39.64
620.494	39.82
620.686	40.15
620.877	40.23
621.068	40.53
621.259	40.43
621.451	40.64
621.642	40.47
621.833	40.36
622.024	40.01
622.215	40.01
622.406	40.02
622.597	39.83
622.788	39.72
622.98	39.87
623.171	40.03
623.362	39.82
623.553	39.38
623.744	39.48
623.935	39.29
624.126	39.7
624.317	39.6
624.508	39.74
624.698	39.9
624.889	39.75
625.08	39.35
625.271	39.4
625.462	39.4
625.653	39.86
625.844	40.02
626.034	40.32
626.225	40.11
626.416	40.35
626.607	40.51
626.798	40.4
626.988	40.89
627.179	41.22
627.37	41.18
627.56	41.18
627.751	40.92
627.942	41.17
628.132	40.99
628.323	40.96
628.514	40.87
628.704	40.92
628.895	40.75
629.085	40.33
629.276	40.38
629.466	40.43
629.657	40.56
629.847	40.53
630.038	40.4
630.228	40.44
630.419	40.54
630.609	40.53
630.8	40.26
630.99	40.66
631.181	40.68
631.371	40.76
631.561	40.52
631.752	40.56
631.942	40.78
632.132	40.61
632.323	40.61
632.513	40.79
632.703	40.69
632.893	41.08
633.084	40.96
633.274	40.94
633.464	41.07
633.654	41.09
633.844	41.01
634.034	40.86
634.225	40.68
634.415	40.7
634.605	40.63
634.795	40.64
634.985	40.42
635.175	40.55
635.365	40.66
635.555	40.42
635.745	40.21
635.935	40
636.125	39.98
636.315	40.02
636.505	39.93
636.695	39.91
636.885	40.09
637.075	40.25
637.265	39.91
637.455	39.58
637.644	39.83
637.834	39.87
638.024	39.98
638.214	40.29
638.404	40.58
638.593	40.62
638.783	40.53
638.973	40.72
639.163	40.61
639.352	40.78
639.542	41.19
639.732	41.08
639.921	41.09
640.111	41.25
640.301	40.74
640.49	40.42
640.68	40.6
640.87	40.51
641.059	40.26
641.249	40.28
641.438	40.25
641.628	39.96
641.817	39.72
642.007	39.74
642.196	40.06
642.386	40.39
642.575	40.08
642.764	40.2
642.954	40.16
643.143	40.33
643.333	40.48
643.522	40.14
643.711	40.3
643.901	40.58
644.09	40.71
644.279	40.15
644.469	39.89
644.658	40.23
644.847	39.82
645.036	40.07
645.226	39.83
645.415	39.84
645.604	40.17
645.793	40.12
645.982	40.02
646.171	39.96
646.361	40.48
646.55	40.54
646.739	40.38
646.928	40.58
647.117	40.55
647.306	40.71
647.495	40.38
647.684	40.36
647.873	40.55
648.062	40.68
648.251	40.89
648.44	40.27
648.629	40.81
648.818	41.09
649.007	41.34
649.196	41.23
649.384	40.97
649.573	41.19
649.762	41.24
649.951	41.32
650.14	40.96
650.328	40.64
650.517	40.81
650.706	40.34
650.895	40.15
651.083	39.98
651.272	39.93
651.461	40.28
651.65	39.83
651.838	39.99
652.027	39.88
652.216	40.11
652.404	40.59
652.593	41.01
652.781	40.82
652.97	40.7
653.158	40.68
653.347	40.88
653.535	40.81
653.724	41.22
653.912	40.82
654.101	40.95
654.289	40.63
654.478	40.78
654.666	40.68
654.855	40.91
655.043	41.13
655.231	41.12
655.42	40.72
655.608	40.63
655.796	40.59
655.985	41.06
656.173	40.79
656.361	41.34
656.55	40.79
656.738	40.88
656.926	41.07
657.114	41.05
657.302	40.99
657.491	41.63
657.679	41.48
657.867	41.64
658.055	41.57
658.243	41.37
658.431	40.72
658.619	40.9
658.807	40.82
658.996	40.65
659.184	40.6
659.372	40.66
659.56	40.11
659.748	40.56
659.936	40.59
660.124	40.7
660.311	41.09
660.499	41.47
660.687	41.39
660.875	41.17
661.063	41.34
661.251	41.8
661.439	41.73
661.627	42.38
661.814	42.14
662.002	42.17
662.19	42.01
662.378	41.77
662.565	41.7
662.753	41.38
662.941	41.9
663.129	41.79
663.316	41.23
663.504	41.39
663.692	40.89
663.879	40.9
664.067	40.54
664.254	40.66
664.442	40.6
664.63	40.33
664.817	40.4
665.005	40.07
665.192	39.74
665.38	40.2
665.567	40.23
665.755	40.13
665.942	40.01
666.13	39.71
666.317	39.61
666.504	39.23
666.692	39.56
666.879	40.26
667.067	40.14
667.254	40.79
667.441	40.62
667.629	40.55
667.816	40.7
668.003	40.3
668.19	41.16
668.378	41.38
668.565	41.61
668.752	41.93
668.939	41.63
669.127	41.73
669.314	41.22
669.501	41.36
669.688	41.39
669.875	41.06
670.062	41.59
670.249	41.33
670.436	40.89
670.623	41.12
670.81	41.21
670.997	41.28
671.184	41.17
671.371	41.66
671.558	41.24
671.745	41.68
671.932	42.19
672.119	41.67
672.306	41.3
672.493	41.76
672.68	41.86
672.867	41.18
673.054	41.09
673.24	41.13
673.427	40.93
673.614	41.14
673.801	40.8
673.988	40.43
674.174	41.03
674.361	41.29
674.548	40.98
674.734	41.23
674.921	41.42
675.108	41.02
675.294	41.1
675.481	41.03
675.668	41.34
675.854	40.98
676.041	41.54
676.227	41.34
676.414	41
676.601	40.65
676.787	40.28
676.974	40.11
677.16	40.55
677.347	40.29
677.533	40.41
677.719	40.32
677.906	40.29
678.092	40.15
678.279	40.32
678.465	40.24
678.651	40.57
678.838	40.78
679.024	41.39
679.21	41.65
679.397	42.11
679.583	41.98
679.769	42.19
679.955	42.4
680.142	42.57
680.328	42.37
680.514	42.82
680.7	43
680.886	42.76
681.073	42.5
681.259	41.97
681.445	41.48
681.631	41.49
681.817	40.88
682.003	40.8
682.189	40.43
682.375	40.46
682.561	40.74
682.747	40.65
682.933	40.25
683.119	40.08
683.305	40.4
683.491	40.74
683.677	40.79
683.863	41.46
684.049	41.3
684.235	41.4
684.42	41.72
684.606	41.66
684.792	41.14
684.978	41.56
685.164	42.06
685.349	42.12
685.535	42.29
685.721	42.4
685.907	41.5
686.092	42.32
686.278	42.42
686.464	41.98
686.649	40.77
686.835	41.48
687.021	41.04
687.206	40.73
687.392	40.48
687.577	40.09
687.763	40.08
687.948	40.9
688.134	40.42
688.319	40.27
688.505	39.98
688.69	40.62
688.876	40.21
689.061	41.23
689.247	41.23
689.432	41.38
689.618	41.6
689.803	41.39
689.988	40.74
690.174	40.92
690.359	40.5
690.544	40.92
690.73	41.09
690.915	41.41
691.1	40.92
691.285	41
691.471	41.44
691.656	41.57
691.841	41.98
692.026	42.41
692.211	41.99
692.396	42.43
692.582	42.51
692.767	42.3
692.952	41.93
693.137	42.04
693.322	41.77
693.507	41.19
693.692	40.99
693.877	40.94
694.062	41.19
694.247	41.43
694.432	41.71
694.617	41.35
694.802	41.12
694.987	41.7
695.172	41.71
695.357	42.67
695.541	43.24
695.726	43.34
695.911	43.34
696.096	42.83
696.281	42.48
696.466	42.7
696.65	43.14
696.835	43.44
697.02	43.25
697.204	42.32
697.389	41.74
697.574	41.42
697.759	41.51
697.943	41.2
698.128	41.45
698.312	41.82
698.497	41.78
698.682	41.75
698.866	41.82
699.051	41.61
699.235	41.68
699.42	41.54
699.604	41.15
699.789	40.97
699.973	40.98
700.158	40.93
700.342	40.64
700.527	40.36
700.711	40.35
700.895	40.35
701.08	40.14
701.264	40.45
701.448	40.38
701.633	40.77
701.817	40.59
702.001	40.93
702.186	40.44
702.37	40.89
702.554	40.58
702.738	41.12
702.923	40.85
703.107	40.86
703.291	40.8
703.475	40.44
703.659	40.9
703.843	41.22
704.027	41.22
704.212	41.63
704.396	40.67
704.58	41.21
704.764	40.33
704.948	40.31
705.132	40.47
705.316	42.2
705.5	42.84
705.684	43.12
705.868	43.75
706.052	43.02
706.235	42.9
706.419	43.36
706.603	44.19
706.787	43.97
706.971	43.94
707.155	44.3
707.339	43.28
707.522	43.52
707.706	42.6
707.89	41.87
708.074	42.63
708.257	43.14
708.441	43.29
708.625	42.22
708.808	43.04
708.992	43.28
709.176	43.29
709.359	42.92
709.543	42.92
709.727	42.91
709.91	42.93
710.094	42.83
710.277	43.25
710.461	43.09
710.644	43.06
710.828	43.59
711.011	43.31
711.195	43.11
711.378	43.07
711.562	42.93
711.745	42.76
711.928	43.13
712.112	43.27
712.295	41.87
712.478	42.77
712.662	43.22
712.845	41.69
713.028	42.07
713.212	42.1
713.395	42.01
713.578	41.03
713.761	41.49
713.945	41.39
714.128	40.67
714.311	41.51
714.494	41.13
714.677	40.29
714.86	41.11
715.043	40.69
715.227	41.13
715.41	40.98
715.593	41.32
715.776	41.02
715.959	41.07
716.142	41.44
716.325	41.32
716.508	40.62
716.691	41.19
716.874	40.92
717.057	41.46
717.239	40.95
717.422	41.19
717.605	41.91
717.788	42.27
717.971	41.81
718.154	41.39
718.337	41.66
718.519	41.9
718.702	41.1
718.885	41.5
719.068	41.05
719.25	41.19
719.433	41.83
719.616	41.08
719.798	41.47
719.981	40.89
720.164	41.67
720.346	41.15
720.529	41.04
720.712	42.17
720.894	41.65
721.077	41.92
721.259	40.85
721.442	40.35
721.624	40.86
721.807	40.02
721.989	41.35
722.172	40.67
722.354	41.27
722.537	42.34
722.719	41.88
722.901	41.85
723.084	41.69
723.266	42.72
723.448	42.28
723.631	43.45
723.813	44.37
723.995	43.46
724.178	44.31
724.36	44.09
724.542	42.76
724.724	42.78
724.907	41.85
725.089	42.14
725.271	42.03
725.453	42.31
725.635	40.72
725.817	40.13
725.999	39.97
726.181	39.94
726.364	40.27
726.546	41.6
726.728	42.12
726.91	42.79
727.092	42.37
727.274	41.88
727.456	41.73
727.638	41.96
727.819	42.16
728.001	43.31
728.183	42.67
728.365	43.21
728.547	42.56
728.729	41.64
728.911	41.94
729.093	42.58
729.274	43.1
729.456	43.66
729.638	44.4
729.82	43.77
730.001	43.36
730.183	44.42
730.365	43.09
730.546	42.79
730.728	43.04
730.91	42.96
731.091	41.32
731.273	41.03
731.455	40.66
731.636	39.59
731.818	40.65
731.999	40.95
732.181	40.25
732.362	40.93
732.544	40.79
732.725	41.04
732.907	41.48
733.088	42.15
733.27	41.83
733.451	41.8
733.633	42.57
733.814	40.84
733.995	40.42
734.177	38.6
734.358	38.98
734.539	39.14
734.721	38.65
734.902	38.5
735.083	38.76
735.264	39.11
735.446	39.54
735.627	39.46
735.808	41.11
735.989	39.78
736.17	41.93
736.351	40.68
736.533	41.4
736.714	41.9
736.895	41.28
737.076	41.16
737.257	41.59
737.438	41.35
737.619	39.98
737.8	39.68
737.981	41.24
738.162	40.45
738.343	40.69
738.524	40.58
738.705	41.16
738.886	40.04
739.067	39.66
739.247	39.76
739.428	39.71
739.609	40.45
739.79	39.98
739.971	39.39
740.151	39.39
740.332	40.07
740.513	40.31
740.694	39.44
740.874	40.06
741.055	40.51
741.236	40.45
741.417	39.93
741.597	40
741.778	39.17
741.958	39.33
742.139	39.56
742.32	39.2
742.5	38.6
742.681	39.06
742.861	39.58
743.042	38.1
743.222	37.7
743.403	38.05
743.583	38.19
743.764	38.17
743.944	38.37
744.124	38.98
744.305	39.4
744.485	39.43
744.666	39.25
744.846	39.25
745.026	40.7
745.207	41.3
745.387	40.59
745.567	41.21
745.747	41.29
745.928	41.89
746.108	41.44
746.288	41.02
746.468	39.92
746.648	40.12
746.829	41.02
747.009	40.5
747.189	39.84
747.369	40.56
747.549	40.07
747.729	40.8
747.909	40.9
748.089	41.46
748.269	40.79
748.449	42.11
748.629	41.82
748.809	40.91
748.989	41.8
749.169	42.01
749.349	40.42
749.529	40.34
749.709	40.33
749.889	40.38
750.068	38.93
750.248	39.12
750.428	38.88
750.608	39.26
750.788	39.75
750.967	38.43
751.147	38.62
751.327	41.03
751.507	40.44
751.686	40.23
751.866	39.51
752.046	39.83
752.225	39.1
752.405	38.84
752.585	39.24
752.764	39.48
752.944	40.56
753.123	40.33
753.303	39.32
753.482	39.21
753.662	39.55
753.841	40.17
754.021	40.84
754.2	41.35
754.38	42.21
754.559	41.93
754.739	41.86
754.918	41.47
755.097	40.59
755.277	39.63
755.456	40.62
755.635	41.3
755.815	40.78
755.994	40.95
756.173	41.55
756.352	40.76
756.532	39.81
756.711	39.83
756.89	40.16
757.069	41.32
757.248	42.45
757.427	42.21
757.607	40.28
757.786	41.18
757.965	41.78
758.144	42.4
758.323	42.65
758.502	44.26
758.681	43.53
758.86	44.35
759.039	44.76
759.218	44.8
759.397	46.03
759.576	46.99
759.755	44.59
759.934	44.46
760.113	43.04
760.291	43.04
760.47	42.56
760.649	43.5
760.828	42.22
761.007	42.1
761.186	43.21
761.364	41.52
761.543	43.12
761.722	44.19
761.901	43.43
762.079	43.06
762.258	41.7
762.437	41.03
762.615	40.42
762.794	41.1
762.972	40.17
763.151	39.84
763.33	40.13
763.508	38.97
763.687	39.52
763.865	39.17
764.044	39.44
764.222	39.52
764.401	38.93
764.579	39.96
764.758	39.75
764.936	39.72
765.114	39.54
765.293	39.89
765.471	40.77
765.65	39.92
765.828	40.73
766.006	41.65
766.184	42.51
766.363	43.53
766.541	42.99
766.719	42.7
766.898	43.84
767.076	42.62
767.254	41.21
767.432	41.16
767.61	41.35
767.788	41.14
767.967	40.81
768.145	40.54
768.323	40.78
768.501	40.92
768.679	41.42
768.857	40.41
769.035	41.56
769.213	42.09
769.391	40.4
769.569	40.98
769.747	40.76
769.925	40.52
770.103	39.84
770.281	38.81
770.459	36.96
770.636	38.6
770.814	40.48
770.992	40
771.17	39.21
771.348	40.08
771.525	40.76
771.703	38.78
771.881	38.71
772.059	39.45
772.236	39.81
772.414	40.42
772.592	40.28
772.769	39.64
772.947	39.92
773.125	40.98
773.302	39.99
773.48	38.76
773.657	42.11
773.835	43.46
774.013	43.02
774.19	41.87
774.368	41
774.545	38.51
774.723	35.53
774.9	36.52
775.077	35.97
775.255	36.92
775.432	37.74
775.61	37.87
775.787	36.42
775.964	36.98
776.142	37.89
776.319	39.54
776.496	38.18
776.674	40.94
776.851	41.16
777.028	41.55
777.205	41.91
777.382	41.22
777.56	38.81
777.737	36.72
777.914	36.46
778.091	35.86
778.268	35.04
778.445	36.2
778.622	33.46
778.8	33.02
778.977	33.56
779.154	34.1
779.331	35.49
779.508	36.85
779.685	37.87
779.862	37.96
780.038	37.68
780.215	37.02
780.392	36.83
780.569	36.16
780.746	36.71
780.923	36.83
781.1	34.69
781.277	35.06
781.453	35.71
781.63	37.5
781.807	35.53
781.984	38
782.16	37.89
782.337	38.85
782.514	39.83
782.691	38.35
782.867	38.71
783.044	38.67
783.221	36.26
783.397	33.07
783.574	31.71
783.75	34.9
783.927	33.47
784.103	35.72
784.28	35.61
784.456	38.79
784.633	36.4
784.809	36.47
784.986	37.49
785.162	36.45
785.339	38.1
785.515	37.02
785.692	35.46
785.868	35.2
786.044	32.43
786.221	32.48
786.397	28.22
786.573	30.47
786.749	30.54
786.926	30.72
787.102	32.16
787.278	34.46
787.454	35.74
787.631	36.76
787.807	37.56
787.983	38.99
788.159	38.58
788.335	39.6
788.511	39.98
788.687	39.18
788.863	40.41
789.039	41.71
789.216	39.71
789.392	38.91
789.568	38.52
789.744	38.73
789.919	38.39
790.095	38.89
790.271	40.1
790.447	40.1
790.623	41.24
790.799	41.45
790.975	40.63
791.151	40.56
791.327	42.76
791.502	42.14
791.678	41.19
791.854	40.32
792.03	39.69
792.205	40.4
792.381	39.78
792.557	39.81
792.733	37.89
792.908	38.41
793.084	37.78
793.259	38.72
793.435	40.45
793.611	42.01
793.786	41.42
793.962	40.89
794.137	40.02
794.313	40.76
794.488	38.77
794.664	39.33
794.839	37.34
795.015	37.4
795.19	36.77
795.366	34.6
795.541	33.59
795.716	34
795.892	34.4
796.067	33.66
796.242	35.74
796.418	35.43
796.593	35.43
796.768	37.05
796.944	39.02
797.119	38.86
797.294	38.8
797.469	39.45
797.644	42.99
797.82	42.88
797.995	43.65
798.17	40.93
798.345	42.44
798.52	42.98
798.695	41.27
798.87	37.4
799.045	37.03
799.22	40.02
799.395	41.21
799.57	38.68
799.745	38.54
799.92	35.4
800.095	34.99
800.27	34.55
800.445	33.86
800.62	33.95
800.795	35.34
800.97	35.03
801.145	34.35
801.319	31.97
801.494	29.72
801.669	30.34
801.844	33.86
802.018	36.63
802.193	37.41
802.368	36.85
802.543	38.03
802.717	41.02
802.892	41.41
803.067	38.92
803.241	42.48
803.416	44.54
803.59	43.41
803.765	44.18
803.94	41.61
804.114	37.52
804.289	35.96
804.463	34.9
804.638	33.1
804.812	32.87
804.986	34.79
805.161	32.19
805.335	31.77
805.51	32.9
805.684	31.45
805.858	33.56
806.033	36.22
806.207	38.93
806.381	41.22
806.556	41.86
806.73	41.54
806.904	41.01
807.078	41.29
807.253	40.15
807.427	39.89
807.601	40.09
807.775	39.55
807.949	42.64
808.123	41.71
808.298	40.32
808.472	39.71
808.646	36.8
808.82	36.79
808.994	33.64
809.168	34.98
809.342	34.32
809.516	37.87
809.69	41.32
809.864	36.71
810.038	40.15
810.212	41.5
810.385	44.16
810.559	46.76
810.733	42.42
810.907	42.37
811.081	44.09
811.255	44.58
811.428	44.44
811.602	39.1
811.776	45.23
811.95	42.5
812.123	44.37
812.297	41.35
812.471	42.18
812.644	45.29
812.818	49.66
812.992	46.41
813.165	43.49
813.339	40.55
813.512	38.92
813.686	33.99
813.86	33.55
814.033	24.69
814.207	25.35
814.38	22.72
814.554	28.79
814.727	29.74
814.9	30.98
815.074	37.45
815.247	35.76
815.421	39.18
815.594	37.68
815.767	38.21
815.941	45.69
816.114	45.62
816.287	47.82
816.46	41.59
816.634	39.65
816.807	36.96
816.98	34.53
817.153	35.19
817.327	37.11
817.5	36.83
817.673	35.49
817.846	34.38
818.019	36.81
818.192	35.48
818.365	42.73
818.538	46.54
818.711	48.71
818.884	45.09
819.057	40.82
819.23	38.7
819.403	40.74
819.576	39.15
819.749	38.43
819.922	37.35
820.095	38.48
820.268	34.81
820.441	29.55
820.614	32.15
820.786	32.96
820.959	35.56
821.132	36.47
821.305	37.24
821.477	39.18
821.65	38.43
821.823	38.01
821.996	38.14
822.168	39.11
822.341	40.19
822.514	39.26
822.686	40.29
822.859	41.56
823.031	41.9
823.204	41.38
823.376	41.84
823.549	42.17
823.722	42.21
823.894	42.67
824.067	42.77
824.239	42.48
824.411	43.49
824.584	42.66
824.756	41.77
824.929	41.37
825.101	41.76
825.273	41.01
825.446	40.73
825.618	41.19
825.79	40.68
825.963	39.68
826.135	39.38
826.307	37.93
826.479	38.44
826.652	38.49
826.824	38.6
826.996	37.63
827.168	36.56
827.34	36.58
827.512	36.86
827.684	36.57
827.856	37.55
828.029	38.42
828.201	40.32
828.373	41.06
828.545	40.83
828.717	39.91
828.889	39.6
829.061	41.08
829.232	40.5
829.404	38.05
829.576	37.98
829.748	37.41
829.92	37.21
830.092	35.4
830.264	33.09
830.436	33.38
830.607	35.5
830.779	36.53
830.951	33.79
831.123	35.11
831.294	37.01
831.466	36.23
831.638	35.51
831.809	34.38
831.981	34.64
832.153	35.8
832.324	35.82
832.496	31.98
832.667	32.02
832.839	34.27
833.011	35.69
833.182	34.77
833.354	35.93
833.525	36.77
833.697	38.52
833.868	40.15
834.039	41.09
834.211	41.79
834.382	41.05
834.554	42.33
834.725	41.88
834.896	41.29
835.068	43.18
835.239	43.57
835.41	44.35
835.581	43.24
835.753	42.34
835.924	39.73
836.095	39.51
836.266	41.56
836.438	40.39
836.609	39.68
836.78	39.47
836.951	39.77
837.122	38.67
837.293	36.42
837.464	38.88
837.635	38.73
837.806	40.34
837.977	38.16
838.148	36.96
838.319	34.76
838.49	36.91
838.661	34.84
838.832	29.37
839.003	27.32
839.174	23.12
839.345	16.6
839.516	13.47
839.687	7.86
839.857	13.02
840.028	14.65
840.199	14.96
840.37	15.44
840.54	23.08
840.711	27.93
840.882	27.79
841.053	30.31
841.223	31.66
841.394	38.24
841.564	38.23
841.735	36.51
841.906	36.06
842.076	38.55
842.247	39.47
842.417	31.19
842.588	33.55
842.758	37.81
842.929	36.14
843.099	36.76
843.27	24.87
843.44	24.52
843.611	21.94
843.781	20.23
843.951	29.43
844.122	36.9
844.292	40.02
844.462	35.23
844.633	37.83
844.803	41.96
844.973	45.19
845.144	46.15
845.314	49.97
845.484	60.33
845.654	64.45
845.824	45.34
845.995	31.86
846.165	25.49
846.335	32.3
846.505	16.18
846.675	3.57
846.845	-12.55
847.015	-15.78
847.185	-14.91
847.355	-20.59
847.525	-17.12
847.695	-12.31
847.865	-23.75
848.035	-6.96
848.205	-23.97
848.375	3.58
848.545	6.52
848.715	18.5
848.884	29.54
849.054	27.28
849.224	27.75
849.394	42.67
849.564	23.41
849.733	42.68
849.903	25.35
850.073	52.13
850.243	32.39
850.412	42.45
850.582	30.75
850.752	5.01
850.921	22.78
851.091	18.93
851.26	5.66
851.43	22.09
851.599	11.52
851.769	16.16
851.939	-20.43
852.108	-55.26
852.278	-76.83
852.447	-87.58
852.616	-57.19
852.786	-55.14
852.955	-49.72
853.125	-46.97
853.294	-54.01
853.463	-80.74
853.633	-114.26
853.802	-120.92
853.971	-82.43
854.141	-83.04
854.31	-84.26
854.479	-134.25
854.648	-204.16
854.818	-210.48
854.987	-177.1
855.156	-180.41
855.325	-100.56
855.494	-132.37
855.663	-111.79
855.832	-155.1
856.001	-171.08
856.171	-129.78
856.34	-66.76
856.509	-40.26
856.678	-40.43
856.847	-16.69
857.016	-6.82
857.185	-4.45
857.353	9.77
857.522	5.9
857.691	11.91
857.86	18.92
858.029	16.16
858.198	1.8
858.367	0.47
858.535	-12.47
858.704	-13.16
858.873	-1.96
859.042	-8.89
859.21	-23.98
859.379	-14.06
859.548	-28.36
859.717	-25.26
859.885	-24.02
860.054	-10.72
860.222	-1.14
860.391	11.61
860.56	1.25
860.728	-0.52
860.897	8.6
861.065	15.66
861.234	13.63
861.402	23.63
861.571	25.17
861.739	20.48
861.908	7.5
862.076	0.01
862.244	6.66
862.413	7.27
862.581	-30.35
862.749	-103.98
862.918	-158.44
863.086	-226.63
863.254	-282.26
863.423	-413.06
863.591	-204.08
863.759	-339.45
863.927	-415.59
864.096	-2143.18
864.264	587.64
864.432	663.76
864.6	-453.39
864.768	-190.26
864.936	72.81
865.104	119.72
865.272	58.77
865.44	29.53
865.608	39.62
865.776	-6.15
865.944	-25.47
866.112	17.73
866.28	7.72
866.448	-23.11
866.616	10.18
866.784	-12.96
866.952	-59.9
867.12	-52.15
867.288	-17.78
867.455	-5.79
867.623	12.35
867.791	22.51
867.959	10.99
868.127	27.59
868.294	34.8
868.462	0.22
868.63	-13.13
868.797	-27.39
868.965	-72.69
869.133	-90.74
869.3	-139.14
869.468	-58.82
869.636	-27.05
869.803	-67.25
869.971	-64.77
870.138	-34.32
870.306	-25.73
870.473	-3.65
870.641	26.37
870.808	17.04
870.975	1.4
871.143	24.53
871.31	49.19
871.478	21.23
871.645	44.42
871.812	31.18
871.98	24.53
872.147	73.94
872.314	75.29
872.482	39.17
872.649	50.16
872.816	78.39
872.983	-17.73
873.15	-23.18
873.318	-27.67
873.485	-41.02
873.652	42.89
873.819	8.01
873.986	14.37
874.153	24.9
874.32	30.24
874.487	24.28
874.654	5.29
874.821	19.98
874.988	20.21
875.155	47.37
875.322	45.26
875.489	18.32
875.656	28.68
875.823	15.19
875.99	5.33
876.157	12.3
876.324	43.51
876.49	56.61
876.657	43.09
876.824	48.27
876.991	31.66
877.157	-1.42
877.324	18.57
877.491	21.76
877.658	27.11
877.824	16.3
877.991	8.44
878.157	-18.97
878.324	-41.57
878.491	-3.87
878.657	-15.12
878.824	-15.91
878.99	24.5
879.157	17.57
879.323	20.66
879.49	18.05
879.656	9.31
879.823	21.45
879.989	36.06
880.156	23.48
880.322	34.61
880.488	47.27
880.655	49.64
880.821	19.43
880.987	28.02
881.154	30.22
881.32	16.3
881.486	25.94
881.652	27.46
881.819	30.25
881.985	34.68
882.151	29.02
882.317	24.33
882.483	25.55
882.649	30.89
882.816	28.36
882.982	28.92
883.148	31.19
883.314	33.28
883.48	32.63
883.646	32.28
883.812	33.48
883.978	34.49
884.144	35.22
884.31	36.14
884.476	36.45
884.642	38.44
884.807	40.87
884.973	42.01
885.139	42.12
885.305	43.48
885.471	43.65
885.637	42.94
885.802	43.55
885.968	44.84
886.134	45.36
886.3	45.57
886.465	46.03
886.631	43.76
886.797	41.59
886.962	41.19
887.128	37.21
887.293	35.79
887.459	34.31
887.625	34.45
887.79	32.36
887.956	39.56
888.121	38.61
888.287	34.23
888.452	31.49
888.618	44.69
888.783	39.38
