Data from CB_111_Reflection_3.txt Node
Date: Sat Nov 14 18:15:41 EST 2015
User: robert
Spectrometer: USB4E03001
Autoset integration time: false
Trigger mode: 4
Integration Time (sec): 1.000000E-1
Scans to average: 15
Electric dark correction enabled: true
Nonlinearity correction enabled: false
Boxcar width: 5
Stray light correction enabled: false
XAxis mode: Wavelengths
Stop averaging: false
Number of Pixels in Spectrum: 3648
>>>>>Begin Spectral Data<<<<<
177.566	439.28
177.785	-5244.33
178.005	1249.73
178.225	1158.35
178.445	-5863.16
178.665	478.61
178.885	-1671.13
179.105	354.95
179.324	487.37
179.544	180.1
179.764	135.78
179.984	115.27
180.204	154.18
180.423	100.31
180.643	134.76
180.863	149.25
181.083	79.28
181.302	62.72
181.522	54.86
181.742	55.56
181.961	88.23
182.181	137.22
182.401	454.88
182.621	289.73
182.84	397.57
183.06	185.35
183.279	155.9
183.499	296.47
183.719	191.97
183.938	139.01
184.158	205.93
184.377	165.06
184.597	185.62
184.816	122.9
185.036	121.94
185.256	137.92
185.475	116.79
185.695	112.76
185.914	93.59
186.134	109.13
186.353	124.42
186.572	99.02
186.792	103.82
187.011	120.02
187.231	138.46
187.45	137.06
187.67	124.57
187.889	134.3
188.108	137.71
188.328	158.99
188.547	173.17
188.766	160.07
188.986	156.4
189.205	154.23
189.424	118.77
189.644	127.34
189.863	151.02
190.082	159.76
190.302	134.15
190.521	96.71
190.74	87.15
190.959	80.5
191.178	86.79
191.398	88.46
191.617	96.92
191.836	115.47
192.055	79.09
192.274	34.79
192.494	77.08
192.713	162.08
192.932	298.47
193.151	467.21
193.37	272.18
193.589	260.88
193.808	485.29
194.027	717.65
194.246	-1737.97
194.465	3189.22
194.685	313.42
194.904	332.51
195.123	177.75
195.342	191.05
195.561	137.89
195.78	127.89
195.999	121.44
196.218	83.99
196.436	108.61
196.655	110.23
196.874	120.91
197.093	113.94
197.312	100.88
197.531	112.82
197.75	117.81
197.969	123.47
198.188	135.6
198.407	124.85
198.625	134.28
198.844	124.45
199.063	113.47
199.282	104.16
199.501	137.03
199.719	116.63
199.938	108.54
200.157	92.12
200.376	92.93
200.594	102.02
200.813	130.62
201.032	109.97
201.251	127.59
201.469	136.43
201.688	127.98
201.907	109.42
202.125	132.53
202.344	162.67
202.563	132.48
202.781	146.4
203	168.38
203.218	96.47
203.437	105.92
203.656	95.03
203.874	71.27
204.093	105.55
204.311	123.84
204.53	137.33
204.748	105.48
204.967	147.94
205.185	137.93
205.404	120.5
205.622	124.28
205.841	139.07
206.059	126.88
206.278	121.73
206.496	99.8
206.715	126.43
206.933	115.89
207.151	121.04
207.37	148.35
207.588	154.87
207.806	159.56
208.025	154.05
208.243	150.54
208.461	189.25
208.68	198.62
208.898	208.52
209.116	167.13
209.335	156.99
209.553	206.87
209.771	171.72
209.989	139.94
210.208	131.29
210.426	122.61
210.644	115.11
210.862	87.4
211.081	88.75
211.299	71.85
211.517	89.54
211.735	113.21
211.953	84.33
212.171	81.35
212.39	98.2
212.608	103.52
212.826	121.61
213.044	122.9
213.262	126.94
213.48	134.51
213.698	126.07
213.916	128.84
214.134	101.56
214.352	102.2
214.57	102.47
214.788	112.14
215.006	133.74
215.224	123.57
215.442	145.1
215.66	139.74
215.878	147.55
216.096	202.96
216.314	180.4
216.532	219.33
216.75	231.11
216.968	257.05
217.185	259.14
217.403	251.23
217.621	370.63
217.839	269.71
218.057	366.88
218.275	302.98
218.492	286.56
218.71	307.14
218.928	294.14
219.146	386.61
219.363	275.09
219.581	264.25
219.799	289.79
220.017	200.98
220.234	219.18
220.452	224.73
220.67	245.26
220.887	378.94
221.105	523.02
221.323	7829.45
221.54	731.48
221.758	3833.57
221.976	1691.34
222.193	374.47
222.411	517.14
222.629	863.45
222.846	1144.09
223.064	-908.96
223.281	1138.95
223.499	817.13
223.716	1576.58
223.934	-1264.68
224.151	-474.72
224.369	-326.74
224.586	-169.44
224.804	-116.15
225.021	-124.78
225.239	-125.67
225.456	-170.37
225.674	-150.07
225.891	-158.64
226.108	-181.44
226.326	-164.09
226.543	-94.06
226.76	-51.98
226.978	-49.52
227.195	-63.63
227.413	-56.69
227.63	-30.67
227.847	-18.36
228.064	-7.62
228.282	-6.76
228.499	-5.17
228.716	-6.65
228.934	-7.76
229.151	-7.72
229.368	-6.11
229.585	-7.53
229.802	-4.65
230.02	-5.14
230.237	-6.85
230.454	-6.33
230.671	-4.35
230.888	-4.3
231.105	-5.61
231.323	-8.89
231.54	-13.88
231.757	-15
231.974	-13.74
232.191	-15.24
232.408	-15.33
232.625	-16.97
232.842	-24.48
233.059	-23.25
233.276	-29.69
233.493	-28.8
233.71	-16.35
233.927	-2.31
234.144	-3
234.361	-7.17
234.578	-11.18
234.795	-4.61
235.012	-7.08
235.229	-9.48
235.446	-11.42
235.663	-5.58
235.879	-9.42
236.096	-15.14
236.313	-32.03
236.53	-32.11
236.747	-27.35
236.964	-29.42
237.181	-41.22
237.397	-47.26
237.614	-42.87
237.831	-40.43
238.048	-41.06
238.264	-47.97
238.481	-55.56
238.698	-38.12
238.915	-34.74
239.131	-33.93
239.348	-33.79
239.565	-30.58
239.781	-22.24
239.998	-16.87
240.215	-19.06
240.431	-20.29
240.648	-8.16
240.865	-3.58
241.081	-3.95
241.298	-2.19
241.514	-0.39
241.731	2.28
241.947	2.92
242.164	2.69
242.38	3
242.597	4
242.814	6.76
243.03	4.68
243.246	5.2
243.463	5.02
243.679	2.85
243.896	1.21
244.112	-0.62
244.329	-2.18
244.545	-2.34
244.762	-2.29
244.978	-1.24
245.194	-3.44
245.411	-4.3
245.627	-4.19
245.843	-3.91
246.06	-2.7
246.276	-0.49
246.492	2.68
246.709	3.55
246.925	3.91
247.141	3.72
247.357	3.88
247.574	4.18
247.79	4.92
248.006	5.51
248.222	5.55
248.439	6.46
248.655	6.09
248.871	4.86
249.087	4.76
249.303	4.64
249.519	4.28
249.736	3.57
249.952	3.12
250.168	3.27
250.384	1.05
250.6	0.8
250.816	-1.14
251.032	0.06
251.248	1.47
251.464	-0.85
251.68	-1.69
251.896	-1.63
252.112	-1.13
252.328	-3.32
252.544	-5.27
252.76	-5.32
252.976	-6.61
253.192	-5.98
253.408	-7.12
253.624	-7.54
253.84	-5.41
254.056	-6.31
254.272	-7.15
254.487	-9.02
254.703	-3.54
254.919	-3.55
255.135	-4.94
255.351	-6.96
255.567	-5.89
255.782	-5.51
255.998	-7.57
256.214	-10.5
256.43	-5.44
256.646	-7.06
256.861	-4.36
257.077	-9.93
257.293	-7.14
257.508	-3.82
257.724	-2.61
257.94	-1.67
258.155	-1.64
258.371	0.23
258.587	0.44
258.802	0.25
259.018	1.84
259.234	1.62
259.449	3.03
259.665	2.81
259.88	2.58
260.096	3.38
260.312	3.36
260.527	3.65
260.743	3.24
260.958	3.98
261.174	3.55
261.389	3.28
261.605	2.74
261.82	2.27
262.036	1.97
262.251	1.38
262.466	2.1
262.682	1.2
262.897	-0.28
263.113	0.5
263.328	1.1
263.543	1.57
263.759	-0.28
263.974	0.14
264.189	-2.58
264.405	-2.01
264.62	-0.76
264.835	-1.92
265.051	-1.38
265.266	-0.07
265.481	-0.32
265.696	-1.19
265.912	-0.75
266.127	0.91
266.342	1.1
266.557	3.23
266.773	2.92
266.988	3.77
267.203	3.81
267.418	3.3
267.633	3.75
267.848	4.47
268.064	3.29
268.279	2.92
268.494	2.03
268.709	2.02
268.924	2.04
269.139	-0.37
269.354	-0.49
269.569	-0.89
269.784	-0.91
269.999	-2.73
270.214	-3.58
270.429	-1.99
270.644	-1.92
270.859	-0.15
271.074	-0.71
271.289	-0.79
271.504	1.77
271.719	1.38
271.934	1.1
272.149	1.82
272.363	2.64
272.578	2.73
272.793	1.25
273.008	1.05
273.223	0.18
273.438	-0.08
273.653	0.14
273.867	-1.2
274.082	-0.92
274.297	-0.74
274.512	-1.99
274.726	-2.72
274.941	-3.44
275.156	-1.86
275.371	-0.63
275.585	-0.64
275.8	0.91
276.015	0.44
276.229	1.99
276.444	0.15
276.659	-0.55
276.873	0.5
277.088	0.94
277.302	1.11
277.517	1.44
277.732	-0.4
277.946	0.19
278.161	-0.66
278.375	-0.36
278.59	1.07
278.804	0.52
279.019	1.1
279.233	0.79
279.448	1.52
279.662	1.23
279.877	-0.38
280.091	1.62
280.306	0.54
280.52	1.53
280.735	2.34
280.949	0.31
281.163	2.57
281.378	2.06
281.592	3.66
281.806	3.57
282.021	4.28
282.235	4.74
282.449	3.69
282.664	3.92
282.878	3.74
283.092	2.87
283.307	3.19
283.521	1.99
283.735	2.15
283.949	0.63
284.164	0.64
284.378	0.59
284.592	0.88
284.806	1.68
285.02	2.3
285.234	2.16
285.449	3.02
285.663	4.01
285.877	4.75
286.091	4.31
286.305	4.17
286.519	4.64
286.733	4.14
286.947	4.53
287.161	4.43
287.375	4.18
287.589	4.37
287.803	4.07
288.017	4.08
288.231	3.8
288.445	4.41
288.659	4.83
288.873	3.88
289.087	4.29
289.301	3.73
289.515	2.86
289.729	3.01
289.943	2.06
290.157	0.38
290.371	-0.37
290.584	-0.13
290.798	-0.9
291.012	-1.03
291.226	-0.3
291.44	-0.61
291.654	-0.92
291.867	1.23
292.081	2.12
292.295	3.62
292.509	4.28
292.722	3.38
292.936	3.27
293.15	4.7
293.364	5.02
293.577	4.4
293.791	6.03
294.005	7.57
294.218	5.41
294.432	5.28
294.645	4.41
294.859	6.35
295.073	6.97
295.286	6.37
295.5	6.46
295.713	6.59
295.927	7.42
296.14	7
296.354	6.63
296.568	7.74
296.781	7.57
296.994	8.15
297.208	7.2
297.421	7.85
297.635	8.04
297.848	8.14
298.062	8.65
298.275	8.92
298.489	8.78
298.702	8.57
298.915	7.46
299.129	7.35
299.342	7.53
299.555	6.29
299.769	5.87
299.982	6.17
300.195	4.58
300.409	4.57
300.622	3.53
300.835	3.19
301.048	3.03
301.262	3.54
301.475	1.88
301.688	0.11
301.901	1.48
302.115	1.17
302.328	1.65
302.541	3.34
302.754	2.87
302.967	3.08
303.18	4.2
303.393	4.52
303.607	4.82
303.82	7.02
304.033	9.14
304.246	9.71
304.459	10.31
304.672	10.64
304.885	10.48
305.098	10.51
305.311	11.07
305.524	10.03
305.737	10.05
305.95	10.64
306.163	9.11
306.376	8.35
306.589	10.06
306.802	8.85
307.015	6.53
307.228	7.3
307.44	8.46
307.653	8.57
307.866	9.05
308.079	8.83
308.292	9.42
308.505	10.31
308.718	10.8
308.93	10.06
309.143	11.06
309.356	12.73
309.569	13.37
309.781	13.69
309.994	14.11
310.207	13.51
310.42	13.37
310.632	12.49
310.845	12.14
311.058	12.53
311.27	13.13
311.483	13.3
311.696	13.53
311.908	13.41
312.121	12.06
312.333	11.13
312.546	11.33
312.759	12.28
312.971	13.56
313.184	13.55
313.396	12.49
313.609	10.6
313.821	10.94
314.034	10.08
314.246	9.45
314.459	11.08
314.671	10.65
314.884	11.35
315.096	10.25
315.309	8.8
315.521	10.42
315.733	10
315.946	11.63
316.158	11.6
316.371	12.28
316.583	11.36
316.795	11.29
317.008	12.51
317.22	12.7
317.432	13.23
317.644	13.03
317.857	13.31
318.069	15.7
318.281	14.97
318.494	14.08
318.706	13.14
318.918	12.72
319.13	12.31
319.342	12.7
319.555	13.03
319.767	13.63
319.979	13.3
320.191	13.46
320.403	12.33
320.615	12.66
320.827	12.01
321.039	13.36
321.252	15.94
321.464	16.05
321.676	14.79
321.888	14.22
322.1	13.64
322.312	14.04
322.524	13.06
322.736	14.04
322.948	13.6
323.16	14.88
323.372	13.91
323.584	12.16
323.796	11
324.007	11.9
324.219	12.6
324.431	12.03
324.643	12.18
324.855	13.3
325.067	13.56
325.279	13.25
325.491	13.53
325.702	14.08
325.914	14.97
326.126	16.42
326.338	17.33
326.55	17.59
326.761	19.62
326.973	20.43
327.185	20.32
327.396	20.19
327.608	21.25
327.82	20.41
328.032	21.13
328.243	21.27
328.455	21.51
328.666	21.15
328.878	21.59
329.09	21.39
329.301	22.44
329.513	22.36
329.725	22.5
329.936	21.93
330.148	22.03
330.359	21.72
330.571	21.32
330.782	20.83
330.994	21
331.205	21.03
331.417	20.98
331.628	20.16
331.84	20.29
332.051	19.49
332.262	19.91
332.474	21.32
332.685	22.26
332.897	23.42
333.108	23.31
333.319	23.6
333.531	23.83
333.742	22.92
333.953	23.32
334.165	23.64
334.376	24.4
334.587	25.23
334.799	26.03
335.01	25.44
335.221	26.08
335.432	27.77
335.644	28
335.855	28.3
336.066	29.62
336.277	29
336.488	28.64
336.7	28.34
336.911	28.94
337.122	28.09
337.333	28.85
337.544	28.38
337.755	26.73
337.966	26.86
338.177	26.94
338.388	26.86
338.599	27.79
338.811	28.04
339.022	28.92
339.233	27.96
339.444	27.72
339.655	27.05
339.866	26.87
340.076	27.47
340.287	27.43
340.498	26.89
340.709	25.84
340.92	26.97
341.131	26.96
341.342	26.79
341.553	27.17
341.764	27.94
341.975	28.73
342.185	29.44
342.396	29.49
342.607	29.69
342.818	29.92
343.029	30.28
343.239	29.48
343.45	29.9
343.661	29.77
343.872	30.07
344.082	29.98
344.293	29.69
344.504	29.19
344.714	29.9
344.925	29.56
345.136	29.65
345.346	30
345.557	29.59
345.768	29.84
345.978	29.36
346.189	29.62
346.399	29.92
346.61	29.58
346.821	30.33
347.031	30.08
347.242	29.96
347.452	29.55
347.663	29.18
347.873	29.21
348.084	28.64
348.294	28.95
348.504	28.67
348.715	28.52
348.925	28.56
349.136	27.84
349.346	27.82
349.557	28.31
349.767	28.74
349.977	29.28
350.188	27.53
350.398	28.08
350.608	28.14
350.819	28.05
351.029	27.76
351.239	27.63
351.449	27.95
351.66	27.9
351.87	27.97
352.08	27.97
352.29	27.8
352.501	29.55
352.711	29.06
352.921	29.37
353.131	28.82
353.341	28.04
353.552	28.04
353.762	27.79
353.972	26.99
354.182	26.05
354.392	25.55
354.602	25.07
354.812	25.17
355.022	25
355.232	24.16
355.442	24.07
355.652	24.78
355.862	24.56
356.072	24.53
356.282	25.33
356.492	26.07
356.702	26.12
356.912	26.95
357.122	26.71
357.332	26.54
357.542	26.8
357.752	27.22
357.962	27.13
358.171	27.95
358.381	27.67
358.591	27.27
358.801	26.76
359.011	27.35
359.221	26.91
359.43	26.64
359.64	26.8
359.85	26.59
360.06	26.4
360.269	26.5
360.479	26.46
360.689	26.47
360.899	26.6
361.108	27.44
361.318	27
361.528	26.95
361.737	27.3
361.947	27.19
362.156	27.42
362.366	27.97
362.576	27.81
362.785	27.78
362.995	27.91
363.204	27.63
363.414	26.98
363.623	26.82
363.833	26.81
364.042	26.67
364.252	26.92
364.461	27.23
364.671	26.68
364.88	26.63
365.09	25.86
365.299	25.56
365.509	25.56
365.718	25.24
365.927	25.32
366.137	25.53
366.346	25.25
366.555	25.32
366.765	24.45
366.974	24.34
367.183	23.59
367.393	24.11
367.602	24.29
367.811	24.36
368.021	24.29
368.23	23.84
368.439	23.82
368.648	24.48
368.857	24.17
369.067	24.66
369.276	23.72
369.485	24.07
369.694	23.72
369.903	23.94
370.112	24.29
370.321	25.13
370.531	25.36
370.74	24.68
370.949	24.37
371.158	24.46
371.367	24.35
371.576	25
371.785	24.88
371.994	24.88
372.203	24.54
372.412	23.99
372.621	23.71
372.83	23.81
373.039	23.73
373.248	23.37
373.457	22.89
373.666	22.75
373.874	22.47
374.083	22.84
374.292	22.33
374.501	22.2
374.71	21.94
374.919	21.64
375.128	21.26
375.336	21.4
375.545	21.25
375.754	21.53
375.963	21.48
376.171	21.81
376.38	22.04
376.589	22.31
376.798	22.15
377.006	23.17
377.215	22.57
377.424	22.67
377.632	22.53
377.841	22.77
378.05	22.41
378.258	22.66
378.467	22.08
378.675	21.78
378.884	21.51
379.093	21.7
379.301	21.22
379.51	21.62
379.718	21.8
379.927	22.27
380.135	22.6
380.344	22.85
380.552	22.09
380.761	22.52
380.969	22.89
381.177	23.4
381.386	23.25
381.594	23.31
381.803	23.11
382.011	22.71
382.219	22.27
382.428	21.83
382.636	21.7
382.845	22.23
383.053	22.45
383.261	21.28
383.469	20.67
383.678	20.61
383.886	20.5
384.094	20.58
384.302	20.42
384.511	20.18
384.719	19.92
384.927	19.9
385.135	19.69
385.343	19.18
385.552	19.31
385.76	19.29
385.968	18.84
386.176	18.21
386.384	18.34
386.592	18.44
386.8	18.36
387.008	18.6
387.216	18.46
387.424	18.22
387.633	18.78
387.841	18.88
388.049	19.15
388.257	19.42
388.465	19.52
388.672	18.98
388.88	18.9
389.088	19.04
389.296	18.95
389.504	18.87
389.712	19.09
389.92	18.4
390.128	18.5
390.336	18.39
390.544	18.06
390.751	17.91
390.959	17.96
391.167	18.21
391.375	18.19
391.583	17.84
391.79	17.8
391.998	17.54
392.206	17.74
392.414	17.61
392.621	17.37
392.829	17.66
393.037	17.67
393.244	17.8
393.452	17.26
393.66	17.22
393.867	17.06
394.075	17.14
394.283	17.15
394.49	16.9
394.698	16.85
394.905	16.61
395.113	16.43
395.32	16.31
395.528	15.86
395.735	15.96
395.943	15.79
396.15	15.86
396.358	15.77
396.565	15.88
396.773	16.03
396.98	15.9
397.188	16.29
397.395	16.33
397.602	16.49
397.81	16.68
398.017	16.61
398.225	16.62
398.432	16.74
398.639	16.86
398.847	16.57
399.054	16.41
399.261	16.39
399.468	16.19
399.676	16.25
399.883	16.39
400.09	16.62
400.297	16.45
400.505	16.47
400.712	16.33
400.919	15.87
401.126	15.96
401.333	15.91
401.54	16.33
401.748	16.54
401.955	16.24
402.162	16.15
402.369	15.76
402.576	15.93
402.783	15.91
402.99	15.88
403.197	15.97
403.404	15.98
403.611	15.91
403.818	15.56
404.025	15.53
404.232	15.77
404.439	15.8
404.646	15.85
404.853	15.64
405.06	15.54
405.267	15.69
405.474	15.76
405.681	15.67
405.887	15.51
406.094	15.29
406.301	15.06
406.508	14.74
406.715	14.17
406.922	14.29
407.128	14.61
407.335	14.66
407.542	14.59
407.749	14.52
407.955	14.29
408.162	14.7
408.369	14.94
408.575	14.97
408.782	15.22
408.989	15.42
409.195	15.39
409.402	15.27
409.609	15.23
409.815	14.95
410.022	14.85
410.228	15.05
410.435	15.04
410.642	15.21
410.848	14.96
411.055	14.72
411.261	14.79
411.468	14.72
411.674	14.59
411.881	14.32
412.087	14.23
412.294	14.36
412.5	14.12
412.706	13.83
412.913	13.49
413.119	13.64
413.326	13.79
413.532	13.72
413.738	13.71
413.945	13.89
414.151	14.06
414.357	14.24
414.564	14.39
414.77	14.39
414.976	14.49
415.182	14.35
415.389	14.47
415.595	14.41
415.801	14.46
416.007	14.48
416.214	14.15
416.42	14.24
416.626	14.32
416.832	14.2
417.038	14.36
417.244	14.43
417.45	14.49
417.657	14.39
417.863	14.39
418.069	14.4
418.275	14.17
418.481	14.34
418.687	14.43
418.893	14.59
419.099	14.69
419.305	14.74
419.511	14.53
419.717	14.58
419.923	14.56
420.129	14.55
420.335	14.54
420.541	14.63
420.746	14.66
420.952	14.63
421.158	14.41
421.364	14.21
421.57	14.09
421.776	14.11
421.982	14.04
422.187	13.95
422.393	14.01
422.599	14.01
422.805	14.1
423.01	14.07
423.216	13.95
423.422	14.09
423.628	14.17
423.833	14.19
424.039	14.42
424.245	14.43
424.45	14.48
424.656	14.44
424.862	14.41
425.067	14.25
425.273	14.22
425.478	14.23
425.684	14.08
425.889	14.01
426.095	14.13
426.301	13.82
426.506	13.83
426.712	13.81
426.917	13.95
427.123	13.89
427.328	14.16
427.533	14.22
427.739	14.38
427.944	14.48
428.15	14.34
428.355	14.08
428.561	14.17
428.766	14.2
428.971	14.21
429.177	14.03
429.382	14.04
429.587	13.77
429.793	13.81
429.998	13.69
430.203	13.63
430.408	14.03
430.614	14.02
430.819	14.09
431.024	14.03
431.229	14.03
431.434	13.91
431.64	13.98
431.845	14
432.05	13.84
432.255	13.68
432.46	13.58
432.665	13.33
432.87	13.4
433.076	13.21
433.281	13.31
433.486	13.35
433.691	13.3
433.896	13.28
434.101	13.3
434.306	13.29
434.511	13.25
434.716	13.43
434.921	13.53
435.126	13.44
435.331	13.5
435.535	13.42
435.74	13.28
435.945	13.36
436.15	13.26
436.355	13.15
436.56	13.35
436.765	13.37
436.97	13.32
437.174	13.45
437.379	13.66
437.584	13.58
437.789	13.68
437.993	13.74
438.198	13.72
438.403	13.87
438.608	14.01
438.812	13.97
439.017	13.98
439.222	14.12
439.426	13.91
439.631	13.87
439.836	14.04
440.04	14.15
440.245	14.27
440.45	14.26
440.654	14.16
440.859	14.15
441.063	14.07
441.268	14.1
441.472	13.99
441.677	14.2
441.881	14.27
442.086	14.26
442.29	14.19
442.495	14.09
442.699	14.03
442.904	14.17
443.108	13.98
443.312	14
443.517	13.93
443.721	13.85
443.925	13.75
444.13	13.68
444.334	13.67
444.538	13.6
444.743	13.59
444.947	13.6
445.151	13.58
445.356	13.72
445.56	13.78
445.764	14.01
445.968	14.13
446.173	14.1
446.377	13.97
446.581	13.93
446.785	13.94
446.989	13.87
447.193	13.93
447.398	14.01
447.602	14.03
447.806	13.94
448.01	13.79
448.214	13.65
448.418	13.48
448.622	13.44
448.826	13.36
449.03	13.42
449.234	13.6
449.438	13.61
449.642	13.54
449.846	13.26
450.05	13.21
450.254	13.2
450.458	13.13
450.662	13.28
450.866	13.46
451.069	13.72
451.273	13.68
451.477	13.66
451.681	13.62
451.885	13.65
452.089	13.78
452.292	13.79
452.496	13.84
452.7	13.93
452.904	13.86
453.107	13.71
453.311	13.53
453.515	13.4
453.719	13.28
453.922	13.32
454.126	13.16
454.33	13.31
454.533	13.38
454.737	13.38
454.94	13.52
455.144	13.72
455.348	13.81
455.551	13.75
455.755	13.85
455.958	13.92
456.162	13.8
456.365	13.81
456.569	13.69
456.772	13.71
456.976	13.61
457.179	13.47
457.383	13.28
457.586	13.34
457.79	13.47
457.993	13.5
458.196	13.44
458.4	13.69
458.603	13.71
458.807	13.81
459.01	13.8
459.213	13.82
459.417	13.86
459.62	13.75
459.823	13.62
460.026	13.57
460.23	13.52
460.433	13.55
460.636	13.48
460.839	13.38
461.042	13.36
461.246	13.39
461.449	13.44
461.652	13.43
461.855	13.63
462.058	13.76
462.261	13.83
462.464	13.84
462.668	13.81
462.871	13.7
463.074	13.8
463.277	13.74
463.48	13.6
463.683	13.38
463.886	13.12
464.089	13.05
464.292	13
464.495	12.92
464.698	12.97
464.901	12.95
465.104	12.96
465.306	12.96
465.509	12.76
465.712	12.7
465.915	12.83
466.118	13.01
466.321	13.06
466.524	13.05
466.726	13.07
466.929	13.01
467.132	13.05
467.335	13
467.538	13.05
467.74	13.11
467.943	13.14
468.146	13.15
468.348	13.29
468.551	13.18
468.754	13.36
468.956	13.37
469.159	13.25
469.362	13.27
469.564	13.26
469.767	13.15
469.969	13.28
470.172	13.33
470.375	13.26
470.577	13.15
470.78	13.13
470.982	13.07
471.185	13.03
471.387	13.25
471.59	13.1
471.792	13.15
471.995	13.26
472.197	13.29
472.399	13.28
472.602	13.28
472.804	13.2
473.007	13.3
473.209	13.3
473.411	13.12
473.614	13.03
473.816	13.11
474.018	13.06
474.22	12.96
474.423	12.9
474.625	12.97
474.827	13.09
475.03	13.13
475.232	13.06
475.434	13.1
475.636	13.4
475.838	13.36
476.04	13.36
476.243	13.32
476.445	13.4
476.647	13.27
476.849	13.3
477.051	13.16
477.253	13.16
477.455	13.01
477.657	12.86
477.859	12.79
478.061	12.67
478.263	12.77
478.465	12.82
478.667	12.77
478.869	12.89
479.071	12.68
479.273	12.73
479.475	12.78
479.677	12.81
479.879	12.84
480.081	12.87
480.283	13.07
480.485	12.95
480.686	13.08
480.888	13.23
481.09	13.36
481.292	13.55
481.494	13.49
481.695	13.5
481.897	13.69
482.099	13.62
482.301	13.61
482.502	13.61
482.704	13.68
482.906	13.63
483.107	13.54
483.309	13.51
483.511	13.52
483.712	13.57
483.914	13.57
484.115	13.53
484.317	13.58
484.519	13.56
484.72	13.48
484.922	13.41
485.123	13.41
485.325	13.45
485.526	13.45
485.728	13.43
485.929	13.45
486.131	13.44
486.332	13.37
486.534	13.35
486.735	13.33
486.936	13.41
487.138	13.55
487.339	13.49
487.541	13.49
487.742	13.53
487.943	13.5
488.144	13.44
488.346	13.36
488.547	13.43
488.748	13.42
488.95	13.49
489.151	13.42
489.352	13.31
489.553	13.38
489.755	13.4
489.956	13.33
490.157	13.37
490.358	13.33
490.559	13.4
490.76	13.36
490.961	13.44
491.163	13.4
491.364	13.43
491.565	13.39
491.766	13.37
491.967	13.28
492.168	13.3
492.369	13.27
492.57	13.32
492.771	13.3
492.972	13.27
493.173	13.23
493.374	13.3
493.575	13.26
493.776	13.39
493.976	13.38
494.177	13.31
494.378	13.37
494.579	13.42
494.78	13.51
494.981	13.57
495.182	13.64
495.382	13.61
495.583	13.46
495.784	13.52
495.985	13.27
496.185	13.22
496.386	13.26
496.587	13.11
496.788	13.11
496.988	13
497.189	13.07
497.39	13.18
497.59	13.14
497.791	13.2
497.992	13.33
498.192	13.42
498.393	13.46
498.593	13.52
498.794	13.5
498.994	13.48
499.195	13.47
499.395	13.44
499.596	13.24
499.796	13.18
499.997	13.31
500.197	13.1
500.398	13.22
500.598	13.23
500.799	13.3
500.999	13.37
501.199	13.34
501.4	13.43
501.6	13.46
501.801	13.56
502.001	13.68
502.201	13.54
502.402	13.67
502.602	13.54
502.802	13.6
503.002	13.64
503.203	13.6
503.403	13.69
503.603	13.76
503.803	13.74
504.003	13.77
504.204	13.75
504.404	13.79
504.604	13.88
504.804	13.93
505.004	13.86
505.204	13.79
505.404	13.89
505.604	13.8
505.804	13.63
506.005	13.7
506.205	13.87
506.405	13.86
506.605	13.94
506.805	13.9
507.005	13.93
507.204	14.02
507.404	14.02
507.604	13.94
507.804	13.97
508.004	13.96
508.204	13.95
508.404	13.83
508.604	13.95
508.804	13.92
509.003	14.06
509.203	14.15
509.403	14.3
509.603	14.43
509.803	14.59
510.002	14.57
510.202	14.85
510.402	14.83
510.602	14.81
510.801	14.86
511.001	14.84
511.201	14.7
511.4	14.73
511.6	14.66
511.8	14.61
511.999	14.5
512.199	14.5
512.398	14.39
512.598	14.47
512.797	14.62
512.997	14.68
513.197	14.74
513.396	14.84
513.596	14.84
513.795	15
513.994	14.94
514.194	15.07
514.393	15.21
514.593	15.2
514.792	15.12
514.992	15.19
515.191	15.05
515.39	15.25
515.59	15.36
515.789	15.48
515.988	15.41
516.188	15.72
516.387	15.78
516.586	15.77
516.786	15.82
516.985	15.87
517.184	15.84
517.383	15.9
517.582	15.78
517.782	15.88
517.981	15.79
518.18	15.87
518.379	15.81
518.578	15.84
518.777	15.87
518.976	15.91
519.176	16.02
519.375	16.09
519.574	16.25
519.773	16.22
519.972	16.18
520.171	16.29
520.37	16.24
520.569	16.28
520.768	16.34
520.967	16.48
521.166	16.71
521.365	16.71
521.564	16.69
521.762	16.64
521.961	16.78
522.16	16.82
522.359	16.95
522.558	17.1
522.757	17.17
522.956	17.35
523.154	17.54
523.353	17.58
523.552	17.78
523.751	18.02
523.949	18.12
524.148	18.27
524.347	18.25
524.546	18.3
524.744	18.3
524.943	18.42
525.142	18.36
525.34	18.27
525.539	18.18
525.737	18.2
525.936	18.28
526.135	18.45
526.333	18.64
526.532	18.88
526.73	19.02
526.929	19.09
527.127	19.22
527.326	19.39
527.524	19.57
527.723	19.81
527.921	19.96
528.12	20
528.318	20.06
528.516	20.04
528.715	20.07
528.913	20.15
529.112	20.2
529.31	20.3
529.508	20.35
529.707	20.45
529.905	20.44
530.103	20.48
530.301	20.55
530.5	20.63
530.698	20.73
530.896	20.86
531.094	20.91
531.293	21.08
531.491	20.99
531.689	21.05
531.887	21.06
532.085	21.21
532.283	21.3
532.481	21.34
532.68	21.48
532.878	21.61
533.076	21.72
533.274	21.84
533.472	21.92
533.67	22.08
533.868	22.22
534.066	22.28
534.264	22.3
534.462	22.43
534.66	22.63
534.858	22.58
535.056	22.64
535.253	22.6
535.451	22.68
535.649	22.96
535.847	22.98
536.045	23.05
536.243	23.18
536.441	23.38
536.638	23.36
536.836	23.39
537.034	23.53
537.232	23.55
537.43	23.62
537.627	23.63
537.825	23.51
538.023	23.63
538.22	23.78
538.418	23.86
538.616	23.98
538.813	24.13
539.011	24.21
539.209	24.41
539.406	24.57
539.604	24.86
539.801	24.98
539.999	25.32
540.196	25.51
540.394	25.62
540.591	25.8
540.789	25.79
540.986	25.91
541.184	25.98
541.381	26.02
541.579	26.03
541.776	26.05
541.974	26.12
542.171	26.04
542.368	26.17
542.566	26.11
542.763	26.13
542.96	26.15
543.158	26.24
543.355	26.34
543.552	26.39
543.75	26.51
543.947	26.66
544.144	26.71
544.341	26.74
544.539	26.7
544.736	27
544.933	27.1
545.13	27.2
545.327	27.2
545.524	27.22
545.722	27.18
545.919	27.22
546.116	27.19
546.313	27.32
546.51	27.49
546.707	27.55
546.904	27.48
547.101	27.47
547.298	27.51
547.495	27.53
547.692	27.54
547.889	27.85
548.086	27.95
548.283	28.13
548.48	28.11
548.677	28.24
548.874	28.24
549.07	28.31
549.267	28.5
549.464	28.79
549.661	28.87
549.858	29.03
550.055	29
550.251	29.14
550.448	29.03
550.645	28.86
550.842	28.71
551.038	29.19
551.235	29.41
551.432	29.33
551.628	29.37
551.825	29.42
552.022	29.5
552.218	29.46
552.415	29.31
552.612	29.39
552.808	29.8
553.005	29.93
553.201	29.74
553.398	29.57
553.594	29.69
553.791	29.69
553.987	29.7
554.184	29.64
554.38	29.77
554.577	30.12
554.773	30.31
554.97	30.18
555.166	30.26
555.362	30.37
555.559	30.5
555.755	30.61
555.952	30.59
556.148	30.65
556.344	30.81
556.541	30.88
556.737	30.8
556.933	30.77
557.129	30.84
557.326	30.94
557.522	30.83
557.718	30.94
557.914	31.03
558.11	31.14
558.307	31.43
558.503	31.42
558.699	31.57
558.895	31.44
559.091	31.54
559.287	31.68
559.483	31.77
559.679	31.91
559.876	31.7
560.072	31.61
560.268	31.45
560.464	31.56
560.66	31.77
560.856	31.87
561.052	32.18
561.247	32.08
561.443	32.02
561.639	32.11
561.835	32.04
562.031	32.34
562.227	32.44
562.423	32.62
562.619	32.52
562.815	32.35
563.01	32.27
563.206	32.2
563.402	32.35
563.598	32.59
563.793	32.41
563.989	32.53
564.185	32.64
564.381	32.74
564.576	32.68
564.772	32.84
564.968	32.82
565.163	32.89
565.359	33.08
565.555	33.17
565.75	33.09
565.946	33.28
566.141	33.2
566.337	33.27
566.532	33.16
566.728	33.29
566.923	33.21
567.119	33.4
567.314	33.16
567.51	33.03
567.705	32.9
567.901	32.97
568.096	32.95
568.292	33.18
568.487	33.26
568.682	33.37
568.878	33.56
569.073	33.75
569.268	33.64
569.464	33.78
569.659	33.88
569.854	34.14
570.05	34.36
570.245	34.61
570.44	34.71
570.635	34.59
570.831	34.66
571.026	34.31
571.221	34.3
571.416	34.57
571.611	34.81
571.806	34.88
572.002	34.95
572.197	34.92
572.392	34.71
572.587	34.49
572.782	34.67
572.977	34.66
573.172	34.89
573.367	34.77
573.562	34.66
573.757	34.55
573.952	34.38
574.147	34.15
574.342	34.22
574.537	34.36
574.732	34.61
574.927	34.33
575.121	34.29
575.316	34.41
575.511	34.56
575.706	34.7
575.901	34.86
576.096	35.05
576.29	35.24
576.485	35.23
576.68	35.12
576.875	35.29
577.069	35.36
577.264	35.62
577.459	35.67
577.654	35.85
577.848	35.91
578.043	35.99
578.238	36.07
578.432	36.1
578.627	36.09
578.821	36.29
579.016	36.11
579.21	36.42
579.405	36.4
579.6	36.28
579.794	36
579.989	36.08
580.183	35.74
580.378	35.7
580.572	35.72
580.766	35.75
580.961	35.66
581.155	35.53
581.35	35.31
581.544	35.26
581.738	35.31
581.933	35.56
582.127	35.36
582.321	35.66
582.516	35.69
582.71	35.73
582.904	35.71
583.099	35.94
583.293	36.25
583.487	36.55
583.681	36.56
583.875	36.57
584.07	36.64
584.264	36.93
584.458	37.05
584.652	37.17
584.846	37.26
585.04	37.26
585.234	37.08
585.428	37.03
585.623	37
585.817	37.16
586.011	37.32
586.205	37.27
586.399	36.94
586.593	36.77
586.787	37
586.981	37.18
587.174	36.98
587.368	36.81
587.562	36.64
587.756	36.64
587.95	36.86
588.144	37.03
588.338	36.95
588.532	37.13
588.725	37.19
588.919	37.16
589.113	37.03
589.307	37.29
589.501	37.55
589.694	37.63
589.888	37.71
590.082	37.35
590.275	37.17
590.469	37.11
590.663	36.93
590.856	37.04
591.05	36.84
591.244	36.87
591.437	37.05
591.631	37.04
591.824	37.23
592.018	36.98
592.212	37.02
592.405	37.18
592.599	37.2
592.792	37.19
592.986	36.91
593.179	37.2
593.372	37.15
593.566	37.02
593.759	37
593.953	37.06
594.146	37.09
594.339	37.29
594.533	37.17
594.726	37.49
594.92	37.73
595.113	37.91
595.306	37.6
595.499	37.65
595.693	37.79
595.886	37.95
596.079	37.91
596.272	38.18
596.466	38.16
596.659	38.27
596.852	38.24
597.045	38.4
597.238	38.6
597.431	38.92
597.624	39.06
597.818	38.98
598.011	38.79
598.204	38.91
598.397	38.91
598.59	38.99
598.783	39.1
598.976	39.23
599.169	39.21
599.362	39.07
599.555	38.89
599.748	38.81
599.941	38.82
600.134	39.13
600.326	38.86
600.519	38.53
600.712	38.49
600.905	38.45
601.098	37.98
601.291	37.78
601.483	37.83
601.676	37.79
601.869	38.1
602.062	38.02
602.255	37.89
602.447	38.21
602.64	38.42
602.833	38.44
603.025	38.48
603.218	38.72
603.411	38.84
603.603	39
603.796	38.95
603.989	38.84
604.181	38.9
604.374	39.16
604.566	39.26
604.759	39.29
604.951	39.48
605.144	39.56
605.336	39.54
605.529	39.78
605.721	39.91
605.914	40.02
606.106	40.07
606.299	40.06
606.491	40
606.683	39.73
606.876	39.64
607.068	39.46
607.26	39.4
607.453	39.42
607.645	39.23
607.837	38.86
608.03	38.99
608.222	39.02
608.414	39.1
608.606	38.95
608.799	39
608.991	39.27
609.183	39.27
609.375	39.46
609.567	39.74
609.759	39.72
609.952	40.06
610.144	40.06
610.336	40.23
610.528	40.42
610.72	40.55
610.912	40.64
611.104	40.5
611.296	40.52
611.488	40.26
611.68	40.03
611.872	40.01
612.064	39.71
612.256	39.71
612.448	39.41
612.64	39.46
612.832	39.11
613.023	39.31
613.215	39.2
613.407	39.25
613.599	39.23
613.791	39.4
613.983	39.33
614.174	39.61
614.366	39.63
614.558	39.62
614.75	39.41
614.941	39.95
615.133	39.51
615.325	39.49
615.516	39.58
615.708	39.34
615.9	39.39
616.091	39.57
616.283	39.52
616.475	39.48
616.666	39.46
616.858	39.39
617.049	39.19
617.241	39.54
617.432	39.77
617.624	39.62
617.815	39.85
618.007	39.76
618.198	39.68
618.39	39.53
618.581	39.6
618.773	39.79
618.964	39.8
619.155	40.09
619.347	39.98
619.538	40.33
619.729	40.78
619.921	41.01
620.112	40.96
620.303	40.87
620.494	41.04
620.686	41.02
620.877	40.98
621.068	41.26
621.259	41.08
621.451	41.4
621.642	41.01
621.833	40.77
622.024	40.73
622.215	40.95
622.406	41.16
622.597	41.16
622.788	41.13
622.98	41.05
623.171	41.16
623.362	41.04
623.553	40.78
623.744	41.25
623.935	41.24
624.126	41.27
624.317	40.8
624.508	41.02
624.698	41.03
624.889	40.71
625.08	40.72
625.271	40.38
625.462	40.2
625.653	40.55
625.844	40.35
626.034	40.42
626.225	40.3
626.416	40.59
626.607	40.4
626.798	40.3
626.988	40.74
627.179	40.75
627.37	41.1
627.56	41.4
627.751	41.11
627.942	40.91
628.132	40.79
628.323	40.83
628.514	40.83
628.704	40.97
628.895	40.82
629.085	40.67
629.276	40.9
629.466	40.79
629.657	40.59
629.847	40.61
630.038	40.54
630.228	40.63
630.419	40.82
630.609	40.7
630.8	40.49
630.99	40.68
631.181	40.71
631.371	40.6
631.561	40.4
631.752	40.47
631.942	40.44
632.132	40.72
632.323	40.69
632.513	40.71
632.703	40.89
632.893	41.08
633.084	40.9
633.274	41.12
633.464	41.15
633.654	41.38
633.844	41.59
634.034	41.75
634.225	41.85
634.415	41.86
634.605	41.58
634.795	41.38
634.985	41.41
635.175	41.79
635.365	41.78
635.555	41.88
635.745	41.98
635.935	41.85
636.125	41.9
636.315	41.62
636.505	41.55
636.695	41.87
636.885	42.05
637.075	41.99
637.265	41.86
637.455	41.86
637.644	41.71
637.834	41.65
638.024	41.49
638.214	41.41
638.404	41.76
638.593	41.94
638.783	41.8
638.973	42.1
639.163	41.9
639.352	41.9
639.542	41.8
639.732	41.93
639.921	41.61
640.111	41.99
640.301	41.64
640.49	41.47
640.68	41.51
640.87	41.38
641.059	41.32
641.249	41.65
641.438	41.71
641.628	41.55
641.817	41.43
642.007	41.28
642.196	41.26
642.386	41.42
642.575	41.39
642.764	41.59
642.954	41.73
643.143	41.64
643.333	41.48
643.522	41.06
643.711	41.17
643.901	41.09
644.09	41.55
644.279	41.53
644.469	41.78
644.658	41.52
644.847	41.48
645.036	41.54
645.226	41.61
645.415	41.73
645.604	42.11
645.793	42.23
645.982	42.29
646.171	42.08
646.361	41.86
646.55	42.07
646.739	42.03
646.928	41.86
647.117	41.87
647.306	41.9
647.495	41.79
647.684	41.85
647.873	41.68
648.062	41.55
648.251	41.81
648.44	41.4
648.629	40.97
648.818	41.35
649.007	41.37
649.196	41.04
649.384	40.78
649.573	40.97
649.762	41.07
649.951	41.05
650.14	41.16
650.328	41.03
650.517	41.31
650.706	41.36
650.895	41.1
651.083	41.13
651.272	41.1
651.461	41.4
651.65	41.04
651.838	40.63
652.027	40.51
652.216	40.47
652.404	40.87
652.593	41.49
652.781	41.4
652.97	41.63
653.158	41.77
653.347	42.13
653.535	42.11
653.724	42.55
653.912	42.64
654.101	43
654.289	42.82
654.478	42.64
654.666	42.54
654.855	42.67
655.043	42.87
655.231	42.65
655.42	42.32
655.608	42.07
655.796	41.71
655.985	42.41
656.173	42.54
656.361	42.87
656.55	42.54
656.738	42.2
656.926	42.12
657.114	41.58
657.302	41.37
657.491	41.56
657.679	41.47
657.867	41.66
658.055	41.05
658.243	40.48
658.431	40.38
658.619	40.45
658.807	40.5
658.996	40.4
659.184	40.45
659.372	40.91
659.56	40.69
659.748	40.89
659.936	40.91
660.124	40.91
660.311	41.58
660.499	41.86
660.687	41.98
660.875	42.22
661.063	42.6
661.251	43.07
661.439	42.65
661.627	43.11
661.814	43.13
662.002	43.33
662.19	43.68
662.378	43.56
662.565	43.55
662.753	43.45
662.941	43.23
663.129	43.05
663.316	42.96
663.504	43.43
663.692	43.4
663.879	43.41
664.067	43.19
664.254	43.42
664.442	43.02
664.63	42.56
664.817	42.36
665.005	42.47
665.192	42.24
665.38	42.42
665.567	42.36
665.755	42.34
665.942	42.24
666.13	41.81
666.317	41.78
666.504	41.42
666.692	41.7
666.879	42.4
667.067	42.31
667.254	42.63
667.441	42.42
667.629	42.3
667.816	42.54
668.003	42.36
668.19	42.86
668.378	42.46
668.565	43.1
668.752	43.66
668.939	43.24
669.127	43.13
669.314	43.13
669.501	43.11
669.688	43.14
669.875	42.41
670.062	42.58
670.249	42.41
670.436	42.21
670.623	41.85
670.81	41.27
670.997	41.04
671.184	41.38
671.371	41.14
671.558	41.38
671.745	41.27
671.932	41.77
672.119	41.75
672.306	41.57
672.493	42.03
672.68	42.03
672.867	42.07
673.054	42.32
673.24	42.46
673.427	42.32
673.614	42.19
673.801	42.04
673.988	41.86
674.174	42.02
674.361	42.38
674.548	42.13
674.734	42.33
674.921	42.07
675.108	41.97
675.294	41.69
675.481	41.56
675.668	41.45
675.854	41.6
676.041	41.64
676.227	41.35
676.414	40.75
676.601	40.66
676.787	40.21
676.974	40.16
677.16	40.32
677.347	39.91
677.533	40.28
677.719	39.88
677.906	40.05
678.092	40.42
678.279	41.26
678.465	41.84
678.651	42.03
678.838	42.8
679.024	43.49
679.21	43.48
679.397	43.92
679.583	43.41
679.769	43.81
679.955	43.93
680.142	43.7
680.328	43.22
680.514	43.19
680.7	43.05
680.886	42.77
681.073	42.22
681.259	42.17
681.445	41.64
681.631	42
681.817	41.79
682.003	41.54
682.189	41.3
682.375	41.16
682.561	41.22
682.747	41.31
682.933	41.36
683.119	41.83
683.305	41.85
683.491	42.51
683.677	42.86
683.863	43.37
684.049	43.29
684.235	43.89
684.42	43.76
684.606	43.59
684.792	43.85
684.978	43.37
685.164	43.36
685.349	43
685.535	42.94
685.721	43.23
685.907	42.42
686.092	43.1
686.278	42.79
686.464	43.04
686.649	42.76
686.835	42.96
687.021	43.24
687.206	42.72
687.392	43.01
687.577	43.05
687.763	42.62
687.948	42.94
688.134	42.54
688.319	42.75
688.505	42.67
688.69	42.71
688.876	42.18
689.061	42.88
689.247	43.14
689.432	42.91
689.618	42.89
689.803	43.03
689.988	43.14
690.174	42.93
690.359	42.22
690.544	41.98
690.73	41.79
690.915	41.69
691.1	41.49
691.285	41.07
691.471	41.19
691.656	41.54
691.841	41.31
692.026	41
692.211	41.09
692.396	41.67
692.582	41.86
692.767	42.31
692.952	42.41
693.137	41.97
693.322	42.56
693.507	42.39
693.692	41.4
693.877	41.89
694.062	42.22
694.247	42.63
694.432	42.26
694.617	41.86
694.802	41.98
694.987	42.46
695.172	42.61
695.357	42.26
695.541	42.83
695.726	43.21
695.911	43.27
696.096	43.94
696.281	43.79
696.466	43.91
696.65	44.64
696.835	44.9
697.02	44.76
697.204	44.38
697.389	44.31
697.574	44
697.759	44.22
697.943	43.77
698.128	43.27
698.312	43.35
698.497	43.78
698.682	43.65
698.866	43.16
699.051	43.23
699.235	43.49
699.42	43.84
699.604	43.86
699.789	43.64
699.973	43.61
700.158	43.6
700.342	43.18
700.527	43.13
700.711	42.99
700.895	43.29
701.08	42.97
701.264	42.78
701.448	42.37
701.633	42.74
701.817	42.7
702.001	42.98
702.186	42.97
702.37	43.47
702.554	42.98
702.738	42.89
702.923	43.09
703.107	43.2
703.291	42.89
703.475	42.78
703.659	42.18
703.843	42.37
704.027	42.31
704.212	42.13
704.396	41.66
704.58	41.45
704.764	41.46
704.948	41.37
705.132	41.7
705.316	42.36
705.5	42.88
705.684	43.48
705.868	43.73
706.052	43.89
706.235	44.54
706.419	44.23
706.603	44.94
706.787	45.2
706.971	44.79
707.155	45.25
707.339	45.37
707.522	45.05
707.706	44.62
707.89	44.09
708.074	43.78
708.257	43.1
708.441	43.17
708.625	42.52
708.808	42.3
708.992	42.42
709.176	41.33
709.359	40.75
709.543	40.87
709.727	40.78
709.91	40.88
710.094	40.76
710.277	41.27
710.461	41.65
710.644	41.74
710.828	41.97
711.011	42.06
711.195	41.69
711.378	41.9
711.562	41.78
711.745	42.29
711.928	42.56
712.112	42.91
712.295	42.21
712.478	42.51
712.662	42.51
712.845	42.07
713.028	41.77
713.212	42.53
713.395	42.51
713.578	42.16
713.761	41.92
713.945	41.79
714.128	41.36
714.311	41.54
714.494	41.57
714.677	40.95
714.86	41.68
715.043	42.04
715.227	41.95
715.41	41.31
715.593	41.65
715.776	41.33
715.959	41.49
716.142	41.54
716.325	41.52
716.508	40.97
716.691	41.65
716.874	41.48
717.057	41.47
717.239	41.5
717.422	42.48
717.605	42.69
717.788	42.67
717.971	41.72
718.154	41.58
718.337	41.48
718.519	41.72
718.702	41.9
718.885	42.06
719.068	42.08
719.25	41.55
719.433	41.01
719.616	41.34
719.798	42.09
719.981	42.24
720.164	41.97
720.346	42.26
720.529	42.35
720.712	41.86
720.894	40.63
721.077	39.98
721.259	39.58
721.442	39.4
721.624	38.48
721.807	37.56
721.989	39
722.172	39.78
722.354	39.34
722.537	39.23
722.719	39.84
722.901	41.09
723.084	41.88
723.266	42.38
723.448	41.62
723.631	41.42
723.813	41.67
723.995	39.71
724.178	39.28
724.36	40.45
724.542	40.31
724.724	39.83
724.907	38.96
725.089	39.31
725.271	39.63
725.453	40.53
725.635	40.49
725.817	39.67
725.999	40.5
726.181	41.52
726.364	40.56
726.546	40.83
726.728	40.67
726.91	40.68
727.092	39.9
727.274	40.53
727.456	40.43
727.638	41.07
727.819	42.06
728.001	42.87
728.183	42.21
728.365	42.57
728.547	42.14
728.729	42.06
728.911	42.43
729.093	42.41
729.274	41.84
729.456	41.49
729.638	41.29
729.82	40.47
730.001	39.94
730.183	40.43
730.365	40.49
730.546	41.25
730.728	41.55
730.91	42.06
731.091	41.47
731.273	41.46
731.455	41.49
731.636	41.18
731.818	42.1
731.999	42.44
732.181	42.16
732.362	42.88
732.544	42.05
732.725	42.53
732.907	42.18
733.088	42.35
733.27	41.45
733.451	41.45
733.633	41.65
733.814	41.21
733.995	40.67
734.177	40.3
734.358	40.06
734.539	39.67
734.721	38.62
734.902	37.93
735.083	38.51
735.264	39.17
735.446	39.4
735.627	39.83
735.808	40.46
735.989	39.86
736.17	40.61
736.351	40.17
736.533	41.02
736.714	41.79
736.895	42.06
737.076	42.41
737.257	42.85
737.438	43.14
737.619	42.5
737.8	42.51
737.981	43.46
738.162	42.9
738.343	42.53
738.524	43.02
738.705	42.86
738.886	42.92
739.067	42.46
739.247	42.08
739.428	41.95
739.609	42
739.79	42.37
739.971	42.31
740.151	41.48
740.332	41.45
740.513	41.9
740.694	41.48
740.874	40.69
741.055	40.24
741.236	40
741.417	40.24
741.597	40.78
741.778	40.29
741.958	40.2
742.139	41.16
742.32	41.2
742.5	40.02
742.681	42.09
742.861	43.14
743.042	43.23
743.222	44.14
743.403	42.81
743.583	42.59
743.764	41.41
743.944	41.55
744.124	41.49
744.305	41.14
744.485	41.15
744.666	39.63
744.846	38.49
745.026	39.43
745.207	39.22
745.387	39.41
745.567	39.14
745.747	40.12
745.928	40.32
746.108	39.68
746.288	40.41
746.468	40.08
746.648	40.32
746.829	40.16
747.009	39.38
747.189	39.18
747.369	39.89
747.549	39.67
747.729	38.79
747.909	38.85
748.089	39.41
748.269	39.31
748.449	39.35
748.629	38.96
748.809	40.3
748.989	40.73
749.169	40.65
749.349	40.36
749.529	40.47
749.709	40.95
749.889	40.72
750.068	39.98
750.248	38.73
750.428	38.36
750.608	38.82
750.788	39.3
750.967	38.41
751.147	38.42
751.327	40.64
751.507	40.24
751.686	40.45
751.866	39.53
752.046	40.21
752.225	40.85
752.405	42.45
752.585	42.29
752.764	42.13
752.944	42.53
753.123	42.88
753.303	40.14
753.482	40.4
753.662	39.53
753.841	40.71
754.021	39.41
754.2	39.58
754.38	38.76
754.559	38.12
754.739	37.92
754.918	38.4
755.097	37.05
755.277	38.14
755.456	39.08
755.635	38.67
755.815	37.63
755.994	39.19
756.173	38.6
756.352	38.12
756.532	38.94
756.711	38.62
756.89	38.67
757.069	39.79
757.248	39.79
757.427	39.55
757.607	39.83
757.786	40.64
757.965	41.34
758.144	43.2
758.323	43.96
758.502	46.2
758.681	45.97
758.86	45.73
759.039	45.58
759.218	45.87
759.397	46.25
759.576	46.63
759.755	45.37
759.934	44.4
760.113	44.04
760.291	43.65
760.47	41.52
760.649	41.48
760.828	41.41
761.007	42.13
761.186	42.26
761.364	41.34
761.543	42.02
761.722	43.11
761.901	43.82
762.079	43.64
762.258	43.41
762.437	42.56
762.615	42.63
762.794	43.31
762.972	42.48
763.151	43.03
763.33	43.58
763.508	43.31
763.687	43.47
763.865	42.54
764.044	41.88
764.222	41.59
764.401	41.84
764.579	42.51
764.758	42.38
764.936	42.76
765.114	42.2
765.293	42.12
765.471	43.29
765.65	42.71
765.828	43.14
766.006	42.79
766.184	43.31
766.363	43.35
766.541	43.12
766.719	42.89
766.898	43.59
767.076	43
767.254	42.72
767.432	40.63
767.61	41.04
767.788	40.95
767.967	41.73
768.145	41.31
768.323	40.65
768.501	40.21
768.679	40.72
768.857	38.67
769.035	37.97
769.213	37.5
769.391	37.51
769.569	37.05
769.747	36.29
769.925	36.04
770.103	36.12
770.281	36.7
770.459	35.54
770.636	34.51
770.814	36.97
770.992	38.97
771.17	38.6
771.348	37.74
771.525	38.74
771.703	40
771.881	41.02
772.059	40.05
772.236	39.72
772.414	39.61
772.592	41.38
772.769	39.18
772.947	39.32
773.125	39.12
773.302	40.19
773.48	40.27
773.657	40.64
773.835	40.4
774.013	39.88
774.19	38.67
774.368	41.35
774.545	39.17
774.723	38
774.9	38.28
775.077	37.13
775.255	37.9
775.432	36.9
775.61	37.49
775.787	37.09
775.964	39.26
776.142	40.3
776.319	37.75
776.496	37.42
776.674	38.39
776.851	38.21
777.028	38.82
777.205	38.12
777.382	37.67
777.56	35.96
777.737	34.67
777.914	33.13
778.091	33.52
778.268	34.1
778.445	34.25
778.622	34.83
778.8	34.51
778.977	37.24
779.154	35.93
779.331	36.6
779.508	36.9
779.685	36.55
779.862	37.98
780.038	36.97
780.215	36.89
780.392	35.97
780.569	34.51
780.746	33.37
780.923	31.77
781.1	32.97
781.277	31.7
781.453	32.72
781.63	36.58
781.807	35.68
781.984	37.3
782.16	36.71
782.337	39.3
782.514	39.75
782.691	39.92
782.867	38.62
783.044	38.11
783.221	40.31
783.397	38.63
783.574	34.89
783.75	35.85
783.927	35.58
784.103	36.11
784.28	35.58
784.456	36.91
784.633	35.96
784.809	37.26
784.986	39.64
785.162	38.25
785.339	37.47
785.515	38.66
785.692	39.83
785.868	38.58
786.044	38.46
786.221	35.96
786.397	34.16
786.573	35.48
786.749	36.12
786.926	34.87
787.102	35.54
787.278	37.59
787.454	38.18
787.631	34.6
787.807	33.96
787.983	33.42
788.159	35.52
788.335	33.86
788.511	34.1
788.687	34.04
788.863	34.07
789.039	33.69
789.216	32.18
789.392	31.79
789.568	33.31
789.744	33.56
789.919	35.2
790.095	35.9
790.271	38.64
790.447	37.16
790.623	37.84
790.799	39.13
790.975	38.48
791.151	40.22
791.327	43.39
791.502	42.61
791.678	45.18
791.854	43.34
792.03	40.27
792.205	40.1
792.381	41.22
792.557	41.9
792.733	40.14
792.908	40.9
793.084	40.56
793.259	37.8
793.435	38.55
793.611	36.09
793.786	36.25
793.962	37.46
794.137	37.77
794.313	36.18
794.488	35.49
794.664	33.9
794.839	34.35
795.015	35.48
795.19	35.03
795.366	34.74
795.541	36.18
795.716	36.28
795.892	35.36
796.067	35.16
796.242	38.26
796.418	36.67
796.593	38.25
796.768	36.63
796.944	36.14
797.119	37.81
797.294	38.34
797.469	40.72
797.644	42.28
797.82	41.82
797.995	40.23
798.17	36.83
798.345	37.27
798.52	37.37
798.695	37.07
798.87	36.99
799.045	34.42
799.22	35.78
799.395	35.23
799.57	34.48
799.745	36.23
799.92	36.95
800.095	38
800.27	37.68
800.445	37.24
800.62	38.26
800.795	36.46
800.97	37.3
801.145	35.79
801.319	32.61
801.494	30.85
801.669	29.94
801.844	32.24
802.018	33.36
802.193	34.53
802.368	37.09
802.543	37.75
802.717	41.07
802.892	42.23
803.067	42.55
803.241	46.53
803.416	49.86
803.59	51.36
803.765	52.03
803.94	50.02
804.114	47.82
804.289	43.81
804.463	40.92
804.638	38.66
804.812	36.01
804.986	38.74
805.161	39.69
805.335	36.58
805.51	33.34
805.684	32.68
805.858	36.16
806.033	35.61
806.207	35.34
806.381	36.9
806.556	40.18
806.73	42.82
806.904	39.18
807.078	33.42
807.253	33.21
807.427	34.66
807.601	33.07
807.775	31.17
807.949	32.62
808.123	34.12
808.298	35.38
808.472	33.13
808.646	28.15
808.82	30.97
808.994	30.75
809.168	31.6
809.342	33.37
809.516	36.03
809.69	34.9
809.864	34.59
810.038	34.58
810.212	33.65
810.385	34.3
810.559	38.09
810.733	33.55
810.907	38.14
811.081	40.15
811.255	36.48
811.428	35.24
811.602	36.59
811.776	36.67
811.95	37.93
812.123	41.99
812.297	40.2
812.471	38.21
812.644	39.33
812.818	35.27
812.992	28.39
813.165	31.37
813.339	34.23
813.512	33.87
813.686	38.67
813.86	39.64
814.033	32.25
814.207	32.06
814.38	31.05
814.554	34.49
814.727	36.35
814.9	37.35
815.074	38.29
815.247	34.87
815.421	36.9
815.594	28.48
815.767	27.34
815.941	27.73
816.114	26.85
816.287	29.33
816.46	24.48
816.634	21.98
816.807	22.31
816.98	25.44
817.153	26.59
817.327	24.46
817.5	28.15
817.673	28.87
817.846	29.76
818.019	33.28
818.192	35.34
818.365	41.79
818.538	44.88
818.711	44.68
818.884	39.76
819.057	38.26
819.23	38.21
819.403	38.52
819.576	37.16
819.749	34.75
819.922	34.18
820.095	33
820.268	30.68
820.441	30.78
820.614	35.06
820.786	36.18
820.959	37.75
821.132	37.43
821.305	40.02
821.477	39.99
821.65	42.19
821.823	42.93
821.996	43.59
822.168	44.04
822.341	44.15
822.514	43.58
822.686	44.04
822.859	44.56
823.031	44.94
823.204	44.45
823.376	45.23
823.549	45.47
823.722	45.13
823.894	44.85
824.067	44.04
824.239	43.79
824.411	43.91
824.584	43.26
824.756	42.24
824.929	42.36
825.101	42.33
825.273	41.53
825.446	40.69
825.618	41.3
825.79	41.6
825.963	41.76
826.135	41.47
826.307	41
826.479	40.54
826.652	40.89
826.824	40.27
826.996	39.04
827.168	38.89
827.34	38.77
827.512	38.94
827.684	38.3
827.856	39.25
828.029	39.07
828.201	39.87
828.373	40.12
828.545	39.6
828.717	40.06
828.889	40.64
829.061	41.54
829.232	40.69
829.404	38.32
829.576	37.67
829.748	36.91
829.92	38.03
830.092	37.59
830.264	37.86
830.436	37.71
830.607	35.03
830.779	34.48
830.951	34.09
831.123	34.92
831.294	33.06
831.466	32.71
831.638	30.13
831.809	29.06
831.981	29.55
832.153	31.19
832.324	31.83
832.496	33.18
832.667	33.79
832.839	30.84
833.011	32.27
833.182	34.71
833.354	36.58
833.525	40.04
833.697	38.87
833.868	38.82
834.039	38.76
834.211	41.51
834.382	42.9
834.554	42.87
834.725	45.31
834.896	43.71
835.068	43.89
835.239	42.92
835.41	42.24
835.581	42.74
835.753	40.61
835.924	39.36
836.095	38.09
836.266	39.49
836.438	39.51
836.609	36.36
836.78	37.76
836.951	37.94
837.122	38.41
837.293	38.95
837.464	37.65
837.635	37.76
837.806	35.66
837.977	33.09
838.148	25.81
838.319	21.87
838.49	22.88
838.661	18.66
838.832	19.49
839.003	19.5
839.174	10.4
839.345	5.87
839.516	0.05
839.687	-5.53
839.857	1.73
840.028	7.7
840.199	10.07
840.37	11.57
840.54	20.14
840.711	14.4
840.882	14.23
841.053	15.19
841.223	21.59
841.394	28.44
841.564	33.38
841.735	28.91
841.906	29.81
842.076	27.98
842.247	28.69
842.417	17.82
842.588	19.89
842.758	14.82
842.929	15.48
843.099	5.27
843.27	3.16
843.44	2.5
843.611	-2.18
843.781	-12.47
843.951	-1.82
844.122	0.28
844.292	6.02
844.462	-5.81
844.633	4.94
844.803	18.21
844.973	31.29
845.144	30.27
845.314	23.99
845.484	35.23
845.654	50.48
845.824	38.55
845.995	29.37
846.165	20.9
846.335	39.98
846.505	24.47
846.675	14.26
846.845	1.02
847.015	-5.01
847.185	22.71
847.355	5.08
847.525	0.47
847.695	12.13
847.865	-0.28
848.035	8.48
848.205	-0.25
848.375	4.56
848.545	-9.16
848.715	-5.86
848.884	-9.75
849.054	-59.41
849.224	-49.29
849.394	-57.69
849.564	-73.04
849.733	-38.31
849.903	-54.96
850.073	-45.86
850.243	-33.15
850.412	-27.03
850.582	-72.47
850.752	-94.49
850.921	-50.53
851.091	-48.02
851.26	-52.11
851.43	-55.01
851.599	-97.15
851.769	-74.43
851.939	-105.69
852.108	-195.23
852.278	-210.91
852.447	-144.29
852.616	-73.43
852.786	-98.62
852.955	-93.59
853.125	-93.32
853.294	-56.09
853.463	-35.22
853.633	-72.05
853.802	-61.92
853.971	-51.77
854.141	-56.37
854.31	-58.7
854.479	-140.81
854.648	-169.98
854.818	-174.27
854.987	-143.56
855.156	-190.67
855.325	-129.35
855.494	-118.36
855.663	-119.07
855.832	-144.52
856.001	-134.74
856.171	-127.86
856.34	-80.23
856.509	-98.05
856.678	-123.37
856.847	-98.57
857.016	-80.37
857.185	-90.59
857.353	-40.7
857.522	-35.47
857.691	-12.35
857.86	-9.8
858.029	-1.89
858.198	-7.2
858.367	9.08
858.535	9.07
858.704	16.38
858.873	25.12
859.042	25.41
859.21	12.57
859.379	7.29
859.548	17.82
859.717	14.04
859.885	25.74
860.054	33.74
860.222	28.46
860.391	29.56
860.56	22.07
860.728	18.99
860.897	20.79
861.065	25.44
861.234	29.33
861.402	22.04
861.571	15.61
861.739	6.3
861.908	5.61
862.076	-5.26
862.244	2.05
862.413	1.19
862.581	-21.15
862.749	-81.48
862.918	-117.56
863.086	-180.82
863.254	-219.11
863.423	-454.52
863.591	-297.66
863.759	-522.19
863.927	-618.99
864.096	-3386.87
864.264	941.38
864.432	1542.8
864.6	-2529.77
864.768	-975.91
864.936	-338.72
865.104	-211.82
865.272	-117.61
865.44	-180.36
865.608	-105.13
865.776	-136.97
865.944	-86.47
866.112	-33.73
866.28	-37.58
866.448	-40.64
866.616	-24.7
866.784	-39.75
866.952	-49.51
867.12	-37.1
867.288	-21.72
867.455	-32.78
867.623	-29.27
867.791	-15.11
867.959	-18.62
868.127	-24.83
868.294	-9.42
868.462	-21.04
868.63	-24.34
868.797	-16
868.965	-94.46
869.133	-102.49
869.3	-85.41
869.468	-53.99
869.636	-15.66
869.803	-42.84
869.971	-19.52
870.138	-20.39
870.306	-11.49
870.473	-8.57
870.641	-17.67
870.808	10.59
870.975	3.38
871.143	17.55
871.31	21.37
871.478	-47.87
871.645	5.11
871.812	-12.88
871.98	-53.12
872.147	-94.51
872.314	-39.22
872.482	-29.27
872.649	-100.09
872.816	-12.99
872.983	-152.58
873.15	-33.04
873.318	-46.93
873.485	-86.48
873.652	-24.86
873.819	33.06
873.986	44.5
874.153	25.9
874.32	17.92
874.487	17.06
874.654	5.58
874.821	2.57
874.988	-10.24
875.155	2.6
875.322	16.84
875.489	14.28
875.656	7.67
875.823	-17.47
875.99	-14.86
876.157	-1.39
876.324	8.64
876.49	12.67
876.657	1.77
876.824	13.88
876.991	4.84
877.157	-6.31
877.324	-1.64
877.491	1.9
877.658	20.4
877.824	12.88
877.991	10.37
878.157	10.73
878.324	19.73
878.491	31.48
878.657	19.3
878.824	34.82
878.99	31.89
879.157	29.46
879.323	27.37
879.49	22.31
879.656	34.34
879.823	22.94
879.989	11.73
880.156	-11.3
880.322	2.4
880.488	22.3
880.655	15.76
880.821	18.41
880.987	38.28
881.154	43.04
881.32	32.14
881.486	28.44
881.652	29.06
881.819	32.88
881.985	35.39
882.151	28.83
882.317	28.15
882.483	26.07
882.649	26.57
882.816	21.16
882.982	25.77
883.148	28.98
883.314	29.65
883.48	31.24
883.646	31.93
883.812	32.37
883.978	32.41
884.144	32.26
884.31	33.76
884.476	33.41
884.642	35.67
884.807	36.32
884.973	35.96
885.139	37.24
885.305	36.35
885.471	35.34
885.637	35.25
885.802	36.51
885.968	35.62
886.134	35.29
886.3	35.84
886.465	34.86
886.631	30.18
886.797	30.99
886.962	29.19
887.128	27
887.293	19.35
887.459	18.99
887.625	13.98
887.79	7.78
887.956	13.76
888.121	10.22
888.287	5.57
888.452	-0.09
888.618	-26.82
888.783	-50.73
