Data from CB_116_Reflection_1.txt Node
Date: Sat Nov 14 19:06:46 EST 2015
User: robert
Spectrometer: USB4E03001
Autoset integration time: false
Trigger mode: 4
Integration Time (sec): 1.000000E-1
Scans to average: 15
Electric dark correction enabled: true
Nonlinearity correction enabled: false
Boxcar width: 5
Stray light correction enabled: false
XAxis mode: Wavelengths
Stop averaging: false
Number of Pixels in Spectrum: 3648
>>>>>Begin Spectral Data<<<<<
177.566	69.44
177.785	40.18
178.005	51.39
178.225	74.07
178.445	98.86
178.665	117.97
178.885	-154.95
179.105	165.62
179.324	127.23
179.544	4178.95
179.764	97.92
179.984	87.13
180.204	73.81
180.423	90.11
180.643	126.42
180.863	150.52
181.083	250.62
181.302	152.04
181.522	617.92
181.742	894.47
181.961	239.55
182.181	487.3
182.401	246.07
182.621	206.21
182.84	371.4
183.06	286.66
183.279	-1362.95
183.499	-746.17
183.719	-240.12
183.938	-621.66
184.158	-382.59
184.377	-487.37
184.597	-319.29
184.816	-194.87
185.036	-180.42
185.256	-200.19
185.475	-160.81
185.695	-189.21
185.914	-216.55
186.134	-376.48
186.353	-237.99
186.572	-211.56
186.792	-68.96
187.011	-68.83
187.231	-138.49
187.45	-134.69
187.67	-295.17
187.889	-323.77
188.108	-335.74
188.328	-261.75
188.547	-90.29
188.766	-465.19
188.986	1100
189.205	283.08
189.424	194.25
189.644	600.64
189.863	646.31
190.082	447.64
190.302	316.29
190.521	436.1
190.74	315.22
190.959	316.06
191.178	284.68
191.398	242.73
191.617	291.3
191.836	298.94
192.055	202.72
192.274	148.23
192.494	609.31
192.713	-2057.14
192.932	843.36
193.151	-465.94
193.37	-281.55
193.589	-293.31
193.808	-202.38
194.027	-218.38
194.246	-174.17
194.465	-108.26
194.685	-178.95
194.904	-420.33
195.123	-249.58
195.342	-154.02
195.561	-158.81
195.78	-264.79
195.999	-216.11
196.218	-152.56
196.436	-108.71
196.655	-86.04
196.874	-83.39
197.093	5.66
197.312	-4251.67
197.531	62.53
197.75	108.59
197.969	108.63
198.188	107.52
198.407	108.56
198.625	182.38
198.844	69.36
199.063	102.91
199.282	127.38
199.501	184.48
199.719	238.16
199.938	-132.04
200.157	4.4
200.376	-24.15
200.594	-62.76
200.813	-60.52
201.032	31.81
201.251	43.78
201.469	40.75
201.688	31.41
201.907	33.77
202.125	24.83
202.344	31.24
202.563	-5.8
202.781	-15.04
203	-13.11
203.218	15.34
203.437	-50.83
203.656	-76.23
203.874	-213.1
204.093	-114.01
204.311	137.44
204.53	102.35
204.748	85.63
204.967	86.51
205.185	82.78
205.404	60.5
205.622	87.46
205.841	28.32
206.059	96.65
206.278	166.62
206.496	138.02
206.715	167.97
206.933	293.7
207.151	403.95
207.37	333.47
207.588	386.56
207.806	283.67
208.025	675.45
208.243	545.02
208.461	-338.05
208.68	604.79
208.898	-450.38
209.116	-3143
209.335	505.02
209.553	1035.31
209.771	704.15
209.989	906.93
210.208	358.14
210.426	259.09
210.644	337.24
210.862	202.03
211.081	547.64
211.299	416.92
211.517	1913.53
211.735	-592.93
211.953	-2436.94
212.171	606.45
212.39	514.36
212.608	-264.39
212.826	-434.52
213.044	-1296.36
213.262	11056.82
213.48	-277.09
213.698	-552.18
213.916	332.8
214.134	106.39
214.352	215.36
214.57	260.65
214.788	1353.21
215.006	3722.41
215.224	-5060.87
215.442	322.08
215.66	793.53
215.878	-819.59
216.096	-162.41
216.314	-55.51
216.532	-46.65
216.75	-50.27
216.968	-49.99
217.185	-100.88
217.403	-137.8
217.621	-34.47
217.839	-68.38
218.057	-72.13
218.275	-633.92
218.492	1085.1
218.71	1382.53
218.928	-7190.73
219.146	-761.2
219.363	-365.68
219.581	-269.12
219.799	-241.56
220.017	-398.05
220.234	-309.6
220.452	-244.22
220.67	-105.83
220.887	-338.8
221.105	-161.06
221.323	-364.28
221.54	-168.84
221.758	-410.39
221.976	537.24
222.193	436.86
222.411	289.69
222.629	-3428.51
222.846	-1621.56
223.064	2331.58
223.281	-312.06
223.499	923.89
223.716	-530.15
223.934	400.32
224.151	2562.86
224.369	-727.21
224.586	-329.74
224.804	-161.03
225.021	-133.44
225.239	-139.02
225.456	-184.64
225.674	-96.12
225.891	-74
226.108	-87.58
226.326	-46.59
226.543	-39.02
226.76	-20.15
226.978	-13.75
227.195	-4.54
227.413	-13.3
227.63	-8.44
227.847	3.19
228.064	8.57
228.282	13.13
228.499	13.95
228.716	10.07
228.934	9.09
229.151	7.26
229.368	4.61
229.585	8.49
229.802	12.08
230.02	12.46
230.237	10.34
230.454	4.75
230.671	6.51
230.888	7.07
231.105	11.99
231.323	16.81
231.54	15.96
231.757	19.69
231.974	12.12
232.191	4.39
232.408	0.71
232.625	-6.29
232.842	1.95
233.059	-3.1
233.276	-3.35
233.493	1.1
233.71	-7.46
233.927	-12.87
234.144	-19.88
234.361	-13.37
234.578	-11.01
234.795	-10.44
235.012	-1.37
235.229	-1.39
235.446	-6.49
235.663	-1.13
235.879	-1.98
236.096	-3.21
236.313	2.76
236.53	4.69
236.747	1.64
236.964	4.86
237.181	4.88
237.397	3.59
237.614	-5.25
237.831	-2.87
238.048	-10.15
238.264	-11.23
238.481	-4.14
238.698	-1.31
238.915	2.64
239.131	5.67
239.348	1.08
239.565	0.12
239.781	-1.7
239.998	6
240.215	7.61
240.431	9.81
240.648	10.57
240.865	9.61
241.081	10.44
241.298	10.45
241.514	7.4
241.731	9.11
241.947	9.61
242.164	10.02
242.38	9.61
242.597	8.85
242.814	9.99
243.03	8.58
243.246	6.83
243.463	6.21
243.679	5.21
243.896	7.21
244.112	6.72
244.329	7.44
244.545	8.01
244.762	4.94
244.978	2.45
245.194	1.31
245.411	1.6
245.627	3.33
245.843	6.34
246.06	6.12
246.276	5.99
246.492	6.86
246.709	7.09
246.925	7.06
247.141	9.36
247.357	11.03
247.574	10.87
247.79	10.76
248.006	10.34
248.222	9.7
248.439	10.38
248.655	10.77
248.871	10.05
249.087	9.55
249.303	9.47
249.519	7.86
249.736	4.99
249.952	3.68
250.168	3.56
250.384	3.44
250.6	1.86
250.816	0.76
251.032	1.16
251.248	2.28
251.464	2.5
251.68	3.54
251.896	4.31
252.112	5.89
252.328	7.31
252.544	7.21
252.76	7.36
252.976	7.32
253.192	8.42
253.408	6.92
253.624	3.34
253.84	2.84
254.056	2.42
254.272	2.2
254.487	0.1
254.703	2.48
254.919	2.94
255.135	2.65
255.351	1.12
255.567	0.96
255.782	2.17
255.998	5.89
256.214	5.03
256.43	3.51
256.646	0.62
256.861	3.03
257.077	0.3
257.293	-3.19
257.508	-2.59
257.724	-2.8
257.94	-2.02
258.155	-1.98
258.371	-1.53
258.587	-0.8
258.802	0.01
259.018	0.41
259.234	1.12
259.449	1.27
259.665	3.01
259.88	3.69
260.096	5.54
260.312	4.95
260.527	4.82
260.743	5.56
260.958	5.97
261.174	6.25
261.389	7.19
261.605	7.12
261.82	6.04
262.036	7.27
262.251	7.75
262.466	5.58
262.682	4.89
262.897	5.87
263.113	5.45
263.328	7.18
263.543	6.96
263.759	7.39
263.974	8.18
264.189	9.98
264.405	6.7
264.62	4.96
264.835	6.03
265.051	7.46
265.266	5.29
265.481	5.47
265.696	4.67
265.912	2.09
266.127	2.29
266.342	0.34
266.557	-0.2
266.773	1.06
266.988	0.93
267.203	0.68
267.418	2.5
267.633	2.7
267.848	2.89
268.064	1.69
268.279	3.05
268.494	2.68
268.709	2.97
268.924	4.35
269.139	4.26
269.354	4.97
269.569	5.01
269.784	4.43
269.999	5.53
270.214	4.35
270.429	4.93
270.644	4.04
270.859	3.41
271.074	3.64
271.289	4.8
271.504	4.7
271.719	4.5
271.934	4.27
272.149	2.44
272.363	2.41
272.578	3.75
272.793	2.85
273.008	4.64
273.223	6.63
273.438	7.23
273.653	6.66
273.867	5.79
274.082	5.17
274.297	4.82
274.512	6.05
274.726	4.61
274.941	3.24
275.156	3.78
275.371	2.93
275.585	-1.26
275.8	-1.56
276.015	-3.13
276.229	-0.53
276.444	-0.2
276.659	1.14
276.873	1.98
277.088	3.42
277.302	3.69
277.517	4
277.732	3.38
277.946	4.7
278.161	5.76
278.375	6.21
278.59	5.67
278.804	5.34
279.019	3.93
279.233	2.68
279.448	2.43
279.662	1.49
279.877	1.38
280.091	2.31
280.306	2.36
280.52	1.12
280.735	2.05
280.949	2.66
281.163	3.64
281.378	5.16
281.592	5.68
281.806	5.68
282.021	5.59
282.235	5.28
282.449	4.23
282.664	5.88
282.878	3.09
283.092	2.96
283.307	1.91
283.521	3.17
283.735	2.64
283.949	2.03
284.164	1.77
284.378	2.36
284.592	1.73
284.806	1.93
285.02	1.53
285.234	5.25
285.449	5.38
285.663	4.54
285.877	3.66
286.091	3.7
286.305	5.02
286.519	5.33
286.733	4.99
286.947	6.24
287.161	6.55
287.375	5.88
287.589	5.12
287.803	5.85
288.017	6.15
288.231	5.29
288.445	4.92
288.659	3.19
288.873	2.96
289.087	2.91
289.301	1.71
289.515	1.83
289.729	2.8
289.943	2.59
290.157	2.71
290.371	3.79
290.584	5.3
290.798	5.83
291.012	6.47
291.226	6.38
291.44	8.74
291.654	9.7
291.867	11.11
292.081	10.87
292.295	11.47
292.509	11.07
292.722	10.18
292.936	8.63
293.15	8.62
293.364	7.49
293.577	8.61
293.791	6.19
294.005	6.37
294.218	4.59
294.432	5.06
294.645	5.04
294.859	5.48
295.073	5.9
295.286	7.07
295.5	6.04
295.713	7.62
295.927	6.72
296.14	6.23
296.354	5.81
296.568	6.68
296.781	6.59
296.994	5.84
297.208	4.63
297.421	5.47
297.635	5.18
297.848	5.54
298.062	5.08
298.275	5.12
298.489	6.14
298.702	5.74
298.915	4.67
299.129	5.1
299.342	5.57
299.555	5.91
299.769	5.32
299.982	5.91
300.195	6
300.409	5.96
300.622	6.3
300.835	5.43
301.048	6.19
301.262	6.35
301.475	5.2
301.688	5.5
301.901	5.58
302.115	6.01
302.328	4.73
302.541	3.58
302.754	3.45
302.967	3.08
303.18	3.34
303.393	3.15
303.607	3.39
303.82	4.11
304.033	2.65
304.246	2.46
304.459	2.23
304.672	2.15
304.885	3.88
305.098	3.85
305.311	4.11
305.524	3.81
305.737	3.99
305.95	3.06
306.163	2.08
306.376	2.97
306.589	3.25
306.802	2.9
307.015	2.46
307.228	1.61
307.44	1.86
307.653	2.41
307.866	2.76
308.079	2.46
308.292	3.93
308.505	5.57
308.718	5.54
308.93	6.03
309.143	5.69
309.356	7.14
309.569	8.06
309.781	7.55
309.994	7.11
310.207	7.54
310.42	7.44
310.632	7.27
310.845	5.72
311.058	5.87
311.27	7.03
311.483	7.06
311.696	6.32
311.908	5.48
312.121	5.26
312.333	5.69
312.546	5.53
312.759	5.46
312.971	6.23
313.184	6.84
313.396	6.62
313.609	4.51
313.821	4.88
314.034	5.23
314.246	5.5
314.459	6.2
314.671	5.2
314.884	5
315.096	3.6
315.309	2.66
315.521	1.85
315.733	1.43
315.946	1.22
316.158	1.38
316.371	1.89
316.583	3.23
316.795	3.62
317.008	3.88
317.22	3.39
317.432	5.22
317.644	5.66
317.857	5.84
318.069	6.14
318.281	8.29
318.494	9.21
318.706	9.98
318.918	8.66
319.13	8.2
319.342	9.04
319.555	10.96
319.767	11.26
319.979	9.32
320.191	10.01
320.403	10.32
320.615	8.5
320.827	7.7
321.039	6.32
321.252	5.89
321.464	6.67
321.676	5.99
321.888	5.19
322.1	5.11
322.312	6.76
322.524	8.19
322.736	9.31
322.948	10.23
323.16	9.21
323.372	10.26
323.584	11.18
323.796	11.54
324.007	11.68
324.219	10.74
324.431	11
324.643	10.18
324.855	9.7
325.067	8.72
325.279	8.56
325.491	9.19
325.702	8.92
325.914	9.57
326.126	9.52
326.338	9.35
326.55	10.53
326.761	10.87
326.973	11.95
327.185	12.19
327.396	14.4
327.608	15.2
327.82	16.73
328.032	16.02
328.243	15.6
328.455	15.47
328.666	15.87
328.878	16.28
329.09	16.06
329.301	16.06
329.513	16.54
329.725	15.15
329.936	15.17
330.148	15.39
330.359	17.08
330.571	18.42
330.782	18.09
330.994	19.36
331.205	18.25
331.417	18.78
331.628	19.91
331.84	18.55
332.051	18.43
332.262	18.69
332.474	17.17
332.685	16.46
332.897	15.35
333.108	15.78
333.319	15.87
333.531	16.49
333.742	16.54
333.953	15.55
334.165	18.23
334.376	18.48
334.587	17.56
334.799	17.8
335.01	18.14
335.221	18.59
335.432	18.87
335.644	17.86
335.855	18.5
336.066	18.65
336.277	19.68
336.488	18
336.7	18.23
336.911	18.27
337.122	17.91
337.333	17.45
337.544	17.93
337.755	17.88
337.966	18.09
338.177	17.49
338.388	17.51
338.599	17.48
338.811	17.21
339.022	17.3
339.233	16.36
339.444	16.56
339.655	16.49
339.866	16.05
340.076	16.17
340.287	16.95
340.498	17.19
340.709	16.08
340.92	16.27
341.131	17.2
341.342	17.05
341.553	18.77
341.764	19.47
341.975	19.22
342.185	19.35
342.396	19.67
342.607	19.54
342.818	19.63
343.029	20.68
343.239	19.97
343.45	19.93
343.661	20.08
343.872	19.67
344.082	19.34
344.293	19.33
344.504	18.41
344.714	17.69
344.925	17.53
345.136	17.63
345.346	17.67
345.557	17.44
345.768	17.52
345.978	17.48
346.189	17.26
346.399	17.27
346.61	17.27
346.821	17.6
347.031	18.05
347.242	17.91
347.452	17.77
347.663	17.37
347.873	17.38
348.084	16.59
348.294	16.31
348.504	16.95
348.715	16.66
348.925	17.35
349.136	17.48
349.346	17.4
349.557	18.05
349.767	18.54
349.977	18.85
350.188	19.07
350.398	19.66
350.608	19.72
350.819	19.48
351.029	19.39
351.239	19.63
351.449	19.93
351.66	20.26
351.87	20.25
352.08	19.18
352.29	19
352.501	18.8
352.711	18.53
352.921	19.4
353.131	19.33
353.341	19
353.552	18.25
353.762	18.02
353.972	17.81
354.182	17.07
354.392	18
354.602	17.38
354.812	17.19
355.022	16.66
355.232	15.71
355.442	15.43
355.652	16.21
355.862	17.08
356.072	17.49
356.282	17.51
356.492	17.48
356.702	17.28
356.912	17.92
357.122	17.66
357.332	18.3
357.542	19.04
357.752	19.14
357.962	18.84
358.171	19.01
358.381	18.75
358.591	18.2
358.801	18.21
359.011	18.15
359.221	18.81
359.43	19.43
359.64	20.01
359.85	19.38
360.06	19.35
360.269	20.11
360.479	19.79
360.689	19.97
360.899	20.52
361.108	20.21
361.318	20.14
361.528	19.12
361.737	18.9
361.947	18.06
362.156	18.35
362.366	18.57
362.576	17.82
362.785	17.45
362.995	17.09
363.204	16.41
363.414	16.94
363.623	17.04
363.833	17.51
364.042	17.23
364.252	17.39
364.461	16.6
364.671	16.28
364.88	16.55
365.09	16.66
365.299	16.99
365.509	17.3
365.718	17.29
365.927	16.84
366.137	16.53
366.346	17.04
366.555	16.98
366.765	17.37
366.974	17.33
367.183	17.56
367.393	17.33
367.602	16.52
367.811	16.45
368.021	15.55
368.23	15.91
368.439	15.79
368.648	15.48
368.857	15.19
369.067	15.63
369.276	15.3
369.485	15.03
369.694	14.91
369.903	15.65
370.112	16.24
370.321	16.67
370.531	16.58
370.74	16.97
370.949	17.21
371.158	17.63
371.367	17.39
371.576	17.65
371.785	17.53
371.994	17.63
372.203	17.07
372.412	15.91
372.621	16.37
372.83	16.14
373.039	16.3
373.248	15.79
373.457	15.52
373.666	15.1
373.874	14.63
374.083	14.87
374.292	15.08
374.501	15.26
374.71	15.8
374.919	16.01
375.128	16.48
375.336	15.52
375.545	15.99
375.754	15.56
375.963	15.28
376.171	15.59
376.38	15.75
376.589	16.04
376.798	16.27
377.006	16.55
377.215	15.48
377.424	14.9
377.632	15.6
377.841	15.66
378.05	16.01
378.258	16.67
378.467	16.84
378.675	16.46
378.884	16.1
379.093	16.31
379.301	16.52
379.51	16.9
379.718	17.5
379.927	17.74
380.135	17.57
380.344	17.72
380.552	17.87
380.761	17.14
380.969	17.01
381.177	17.07
381.386	16.34
381.594	16.15
381.803	16.21
382.011	15.71
382.219	15.13
382.428	15.16
382.636	15.01
382.845	14.14
383.053	14.99
383.261	14.77
383.469	14.92
383.678	15.51
383.886	15.23
384.094	15.19
384.302	15.55
384.511	15.75
384.719	15.66
384.927	15.6
385.135	16.05
385.343	15.67
385.552	15.82
385.76	15.67
385.968	15.04
386.176	14.84
386.384	15.07
386.592	14.75
386.8	14.76
387.008	14.42
387.216	14.22
387.424	14.25
387.633	14.14
387.841	13.77
388.049	13.68
388.257	13.78
388.465	14.25
388.672	13.83
388.88	13.81
389.088	13.96
389.296	13.85
389.504	13.72
389.712	13.78
389.92	13.66
390.128	14.13
390.336	14.16
390.544	14.64
390.751	14.24
390.959	14.61
391.167	14.72
391.375	14.52
391.583	15.01
391.79	15.06
391.998	15.15
392.206	15.65
392.414	15.58
392.621	15.72
392.829	15.32
393.037	15.55
393.244	15.49
393.452	15.61
393.66	15.62
393.867	15.68
394.075	15.89
394.283	15.42
394.49	15.32
394.698	15.29
394.905	15.31
395.113	15.6
395.32	15.36
395.528	15.18
395.735	14.81
395.943	14.5
396.15	14.2
396.358	14.16
396.565	14.24
396.773	14.08
396.98	14.33
397.188	14.12
397.395	14.26
397.602	14.3
397.81	14.49
398.017	14.86
398.225	15.23
398.432	15.21
398.639	15.26
398.847	15.03
399.054	14.7
399.261	14.29
399.468	14.31
399.676	13.96
399.883	13.98
400.09	13.8
400.297	13.71
400.505	13.63
400.712	13.68
400.919	13.7
401.126	14.55
401.333	14.91
401.54	15.27
401.748	14.98
401.955	15.27
402.162	15.43
402.369	15.37
402.576	15.3
402.783	15.55
402.99	15.79
403.197	15.76
403.404	15.3
403.611	15.27
403.818	15.09
404.025	15.39
404.232	15.19
404.439	15.16
404.646	15.46
404.853	15.41
405.06	15.28
405.267	15
405.474	15.09
405.681	15.07
405.887	15.22
406.094	15.48
406.301	15.6
406.508	15.95
406.715	16.19
406.922	15.77
407.128	15.69
407.335	16.03
407.542	16.27
407.749	16.38
407.955	16.56
408.162	16.47
408.369	16.52
408.575	16.53
408.782	16.38
408.989	16.37
409.195	16.93
409.402	17.51
409.609	17.04
409.815	17.28
410.022	17.27
410.228	17.11
410.435	17.24
410.642	17.26
410.848	17.26
411.055	17.31
411.261	17.43
411.468	17.37
411.674	17.29
411.881	17.69
412.087	17.83
412.294	17.78
412.5	17.83
412.706	18.15
412.913	18.29
413.119	18.71
413.326	18.74
413.532	18.64
413.738	18.57
413.945	18.39
414.151	17.9
414.357	17.57
414.564	17.73
414.77	17.89
414.976	17.68
415.182	17.52
415.389	17.06
415.595	17.21
415.801	17.21
416.007	17.43
416.214	17.55
416.42	17.98
416.626	18.23
416.832	18.34
417.038	18.25
417.244	18.34
417.45	18.42
417.657	18.49
417.863	18.48
418.069	18.67
418.275	18.6
418.481	18.74
418.687	18.69
418.893	18.68
419.099	18.64
419.305	18.67
419.511	18.63
419.717	18.53
419.923	18.67
420.129	18.72
420.335	18.72
420.541	18.79
420.746	18.91
420.952	19.09
421.158	18.98
421.364	19.05
421.57	19.11
421.776	19.18
421.982	19.36
422.187	19.44
422.393	19.43
422.599	19.38
422.805	19.34
423.01	19.25
423.216	19.17
423.422	19.27
423.628	19.24
423.833	19.33
424.039	19.35
424.245	19.35
424.45	19.34
424.656	19.29
424.862	19.39
425.067	19.48
425.273	19.43
425.478	19.37
425.684	19.3
425.889	19.31
426.095	19.17
426.301	19.18
426.506	18.99
426.712	18.92
426.917	18.98
427.123	18.82
427.328	18.72
427.533	18.9
427.739	18.78
427.944	18.9
428.15	18.93
428.355	19.1
428.561	19.12
428.766	19.43
428.971	19.5
429.177	19.54
429.382	19.6
429.587	19.52
429.793	19.5
429.998	19.84
430.203	19.92
430.408	19.85
430.614	19.97
430.819	19.86
431.024	19.7
431.229	19.53
431.434	19.63
431.64	19.65
431.845	19.7
432.05	19.7
432.255	19.66
432.46	19.74
432.665	19.77
432.87	19.62
433.076	19.64
433.281	19.54
433.486	19.64
433.691	19.65
433.896	19.68
434.101	19.89
434.306	19.89
434.511	19.84
434.716	19.76
434.921	19.84
435.126	19.98
435.331	19.99
435.535	20.32
435.74	20.4
435.945	20.45
436.15	20.51
436.355	20.46
436.56	20.32
436.765	20.46
436.97	20.69
437.174	20.74
437.379	20.63
437.584	20.74
437.789	20.69
437.993	20.8
438.198	20.68
438.403	20.84
438.608	20.92
438.812	21.04
439.017	20.86
439.222	20.74
439.426	20.62
439.631	20.62
439.836	20.58
440.04	20.46
440.245	20.46
440.45	20.48
440.654	20.36
440.859	20.15
441.063	20.09
441.268	20.03
441.472	19.99
441.677	20.02
441.881	20.12
442.086	20.11
442.29	20.21
442.495	20.07
442.699	20.11
442.904	20.04
443.108	20.11
443.312	20.23
443.517	20.3
443.721	20.27
443.925	20.27
444.13	20.38
444.334	20.38
444.538	20.31
444.743	20.38
444.947	20.5
445.151	20.43
445.356	20.54
445.56	20.34
445.764	20.4
445.968	20.35
446.173	20.35
446.377	20.2
446.581	20.28
446.785	20.27
446.989	20.11
447.193	19.9
447.398	19.87
447.602	19.84
447.806	19.97
448.01	19.74
448.214	19.88
448.418	19.85
448.622	19.8
448.826	19.74
449.03	19.69
449.234	19.66
449.438	19.68
449.642	19.81
449.846	19.84
450.05	19.62
450.254	19.69
450.458	19.56
450.662	19.6
450.866	19.55
451.069	19.44
451.273	19.25
451.477	19.3
451.681	19.42
451.885	19.29
452.089	19.2
452.292	19.5
452.496	19.42
452.7	19.41
452.904	19.44
453.107	19.52
453.311	19.59
453.515	19.72
453.719	19.83
453.922	19.74
454.126	19.93
454.33	19.82
454.533	19.69
454.737	19.92
454.94	19.73
455.144	19.39
455.348	19.52
455.551	19.54
455.755	19.61
455.958	19.51
456.162	19.38
456.365	19.41
456.569	19.27
456.772	19.17
456.976	19.08
457.179	19.33
457.383	19.61
457.586	19.35
457.79	19.27
457.993	19.3
458.196	19.33
458.4	19.4
458.603	19.27
458.807	19.35
459.01	19.38
459.213	19.35
459.417	19.33
459.62	19.21
459.823	19.33
460.026	19.47
460.23	19.48
460.433	19.51
460.636	19.61
460.839	19.63
461.042	19.67
461.246	19.68
461.449	19.66
461.652	19.74
461.855	19.97
462.058	20.03
462.261	19.98
462.464	19.94
462.668	20.12
462.871	20.14
463.074	20.19
463.277	20.21
463.48	20.37
463.683	20.77
463.886	20.62
464.089	20.56
464.292	20.53
464.495	20.72
464.698	20.94
464.901	20.75
465.104	20.67
465.306	20.66
465.509	20.81
465.712	20.72
465.915	20.58
466.118	20.71
466.321	20.84
466.524	20.73
466.726	20.6
466.929	20.55
467.132	20.81
467.335	20.94
467.538	21.12
467.74	20.98
467.943	20.95
468.146	21.12
468.348	21.02
468.551	20.91
468.754	21.25
468.956	21.13
469.159	21.08
469.362	20.77
469.564	20.67
469.767	20.47
469.969	20.69
470.172	20.91
470.375	20.78
470.577	21.03
470.78	20.97
470.982	21.02
471.185	20.94
471.387	21.23
471.59	21.5
471.792	21.41
471.995	21.54
472.197	21.49
472.399	21.5
472.602	21.62
472.804	21.41
473.007	21.66
473.209	21.47
473.411	21.64
473.614	21.43
473.816	21.15
474.018	21.24
474.22	21.27
474.423	21.14
474.625	21.12
474.827	21.04
475.03	21.18
475.232	21.02
475.434	21.21
475.636	21.25
475.838	21.3
476.04	21.49
476.243	21.65
476.445	21.72
476.647	21.86
476.849	21.69
477.051	21.72
477.253	21.6
477.455	21.65
477.657	21.52
477.859	21.47
478.061	21.5
478.263	21.38
478.465	21.32
478.667	21.27
478.869	21.15
479.071	21.34
479.273	21.37
479.475	21.43
479.677	21.47
479.879	21.47
480.081	21.51
480.283	21.5
480.485	21.62
480.686	21.56
480.888	21.54
481.09	21.56
481.292	21.64
481.494	21.58
481.695	21.58
481.897	21.54
482.099	21.62
482.301	21.58
482.502	21.54
482.704	21.59
482.906	21.65
483.107	21.69
483.309	21.72
483.511	21.71
483.712	21.74
483.914	21.7
484.115	21.71
484.317	21.67
484.519	21.69
484.72	21.74
484.922	21.71
485.123	21.72
485.325	21.7
485.526	21.73
485.728	21.67
485.929	21.72
486.131	21.86
486.332	21.87
486.534	21.9
486.735	21.99
486.936	21.98
487.138	22.05
487.339	22.06
487.541	22.05
487.742	22.02
487.943	22.09
488.144	22.02
488.346	22.01
488.547	22
488.748	22.05
488.95	22
489.151	21.96
489.352	21.95
489.553	22.06
489.755	22.12
489.956	22.26
490.157	22.33
490.358	22.39
490.559	22.52
490.76	22.58
490.961	22.67
491.163	22.75
491.364	22.83
491.565	22.92
491.766	22.97
491.967	22.97
492.168	22.95
492.369	22.98
492.57	23.02
492.771	22.97
492.972	23.01
493.173	23.04
493.374	23.04
493.575	23.15
493.776	23.1
493.976	22.98
494.177	23.19
494.378	23.28
494.579	23.34
494.78	23.47
494.981	23.59
495.182	23.78
495.382	23.8
495.583	23.99
495.784	24.13
495.985	24.27
496.185	24.33
496.386	24.42
496.587	24.62
496.788	24.49
496.988	24.57
497.189	24.53
497.39	24.54
497.59	24.61
497.791	24.65
497.992	24.79
498.192	24.93
498.393	25.01
498.593	24.91
498.794	24.87
498.994	25.07
499.195	25.15
499.395	25.3
499.596	25.44
499.796	25.62
499.997	25.63
500.197	25.55
500.398	25.56
500.598	25.9
500.799	26.13
500.999	26.32
501.199	26.46
501.4	26.6
501.6	26.75
501.801	26.72
502.001	26.8
502.201	27.08
502.402	27.31
502.602	27.45
502.802	27.35
503.002	27.33
503.203	27.43
503.403	27.49
503.603	27.62
503.803	27.63
504.003	27.9
504.204	27.86
504.404	27.88
504.604	27.88
504.804	27.93
505.004	27.94
505.204	28.19
505.404	28.17
505.604	28.44
505.804	28.5
506.005	28.82
506.205	29.08
506.405	29.25
506.605	29.44
506.805	29.61
507.005	29.88
507.204	30.11
507.404	30.1
507.604	30.36
507.804	30.28
508.004	30.35
508.204	30.22
508.404	30.09
508.604	30.25
508.804	30.23
509.003	30.38
509.203	30.36
509.403	30.46
509.603	30.65
509.803	30.65
510.002	30.65
510.202	30.88
510.402	31.09
510.602	31.28
510.801	31.35
511.001	31.53
511.201	31.62
511.4	31.74
511.6	31.85
511.8	32
511.999	32.13
512.199	32.41
512.398	32.52
512.598	32.6
512.797	32.66
512.997	32.88
513.197	32.98
513.396	32.98
513.596	33.21
513.795	33.35
513.994	33.26
514.194	33.46
514.393	33.52
514.593	33.44
514.792	33.42
514.992	33.62
515.191	33.65
515.39	33.83
515.59	34.1
515.789	34.03
515.988	34.03
516.188	34.23
516.387	34.22
516.586	34.4
516.786	34.54
516.985	34.85
517.184	34.87
517.383	35.04
517.582	35.12
517.782	35.13
517.981	35.27
518.18	35.47
518.379	35.51
518.578	35.67
518.777	35.72
518.976	35.77
519.176	35.73
519.375	35.79
519.574	35.77
519.773	35.88
519.972	35.88
520.171	35.98
520.37	35.96
520.569	36.16
520.768	36.25
520.967	36.34
521.166	36.46
521.365	36.47
521.564	36.52
521.762	36.56
521.961	36.52
522.16	36.6
522.359	36.63
522.558	36.76
522.757	36.81
522.956	36.68
523.154	36.76
523.353	36.79
523.552	36.98
523.751	37.02
523.949	36.99
524.148	37.13
524.347	37.1
524.546	37.08
524.744	37.14
524.943	37.24
525.142	37.5
525.34	37.43
525.539	37.45
525.737	37.42
525.936	37.51
526.135	37.64
526.333	37.65
526.532	37.76
526.73	37.93
526.929	37.98
527.127	38
527.326	37.96
527.524	38.1
527.723	38.19
527.921	38.25
528.12	38.33
528.318	38.38
528.516	38.4
528.715	38.5
528.913	38.54
529.112	38.57
529.31	38.55
529.508	38.57
529.707	38.57
529.905	38.53
530.103	38.52
530.301	38.57
530.5	38.5
530.698	38.59
530.896	38.56
531.094	38.45
531.293	38.51
531.491	38.52
531.689	38.6
531.887	38.6
532.085	38.8
532.283	38.95
532.481	38.83
532.68	38.93
532.878	38.93
533.076	39.05
533.274	39.09
533.472	39.05
533.67	39.11
533.868	39.16
534.066	39.13
534.264	39.04
534.462	38.97
534.66	39.05
534.858	39.11
535.056	39.01
535.253	38.98
535.451	39.02
535.649	39.05
535.847	39.05
536.045	38.92
536.243	39.03
536.441	39.21
536.638	39.27
536.836	39.23
537.034	39.23
537.232	39.3
537.43	39.15
537.627	39.19
537.825	39.29
538.023	39.32
538.22	39.44
538.418	39.43
538.616	39.27
538.813	39.37
539.011	39.6
539.209	39.64
539.406	39.73
539.604	39.93
539.801	39.9
539.999	39.81
540.196	39.93
540.394	39.89
540.591	39.87
540.789	39.85
540.986	39.85
541.184	39.77
541.381	39.71
541.579	39.73
541.776	39.78
541.974	39.85
542.171	39.77
542.368	39.75
542.566	39.69
542.763	39.8
542.96	39.78
543.158	39.7
543.355	39.7
543.552	39.76
543.75	39.7
543.947	39.66
544.144	39.62
544.341	39.67
544.539	39.53
544.736	39.6
544.933	39.54
545.13	39.73
545.327	39.73
545.524	39.7
545.722	39.58
545.919	39.61
546.116	39.59
546.313	39.6
546.51	39.66
546.707	39.76
546.904	39.8
547.101	39.8
547.298	39.71
547.495	39.88
547.692	39.84
547.889	39.95
548.086	39.93
548.283	39.83
548.48	39.78
548.677	39.81
548.874	39.9
549.07	40.13
549.267	40.17
549.464	40.18
549.661	40.05
549.858	40.29
550.055	40.22
550.251	40.23
550.448	40.42
550.645	40.41
550.842	40.31
551.038	40.15
551.235	40.07
551.432	40.1
551.628	40.23
551.825	40.3
552.022	40.28
552.218	40.41
552.415	40.45
552.612	40.62
552.808	40.56
553.005	40.62
553.201	40.78
553.398	40.77
553.594	40.62
553.791	40.64
553.987	40.6
554.184	40.67
554.38	40.78
554.577	40.98
554.773	40.67
554.97	40.67
555.166	40.68
555.362	40.5
555.559	40.64
555.755	40.85
555.952	40.76
556.148	40.74
556.344	40.82
556.541	40.86
556.737	40.74
556.933	40.84
557.129	40.95
557.326	41.07
557.522	41.24
557.718	41.12
557.914	41.32
558.11	41.29
558.307	41.24
558.503	41.09
558.699	40.88
558.895	41.11
559.091	41.3
559.287	41.25
559.483	41.17
559.679	41.44
559.876	41.39
560.072	41.11
560.268	41.28
560.464	41.53
560.66	41.48
560.856	41.65
561.052	41.45
561.247	41.29
561.443	41.34
561.639	41.35
561.835	41.17
562.031	41.13
562.227	41.06
562.423	40.95
562.619	40.91
562.815	40.81
563.01	40.83
563.206	40.93
563.402	41.2
563.598	41.22
563.793	41.12
563.989	41.18
564.185	41.12
564.381	41.39
564.576	41.51
564.772	41.44
564.968	41.59
565.163	41.69
565.359	41.75
565.555	41.61
565.75	41.67
565.946	41.84
566.141	41.82
566.337	41.97
566.532	41.97
566.728	42.02
566.923	42.19
567.119	42.4
567.314	42.31
567.51	42.14
567.705	42.18
567.901	42.29
568.096	42.33
568.292	42.28
568.487	42.22
568.682	42.13
568.878	41.99
569.073	41.85
569.268	41.67
569.464	41.63
569.659	41.78
569.854	41.92
570.05	42.07
570.245	42.06
570.44	42.3
570.635	42.33
570.831	42.34
571.026	42.47
571.221	42.51
571.416	42.74
571.611	42.8
571.806	42.89
572.002	42.98
572.197	42.92
572.392	43.17
572.587	43.11
572.782	43.07
572.977	43.15
573.172	43.32
573.367	43.41
573.562	43.38
573.757	43.54
573.952	43.55
574.147	43.37
574.342	43.26
574.537	42.95
574.732	42.85
574.927	42.9
575.121	42.81
575.316	42.35
575.511	42.15
575.706	41.92
575.901	41.78
576.096	41.7
576.29	41.72
576.485	41.58
576.68	41.75
576.875	41.95
577.069	41.88
577.264	42
577.459	42.27
577.654	42.48
577.848	42.51
578.043	42.75
578.238	42.77
578.432	42.8
578.627	43.04
578.821	43.13
579.016	43.04
579.21	43.26
579.405	43.12
579.6	43.34
579.794	43.29
579.989	43.29
580.183	43.37
580.378	43.28
580.572	43.26
580.766	43.18
580.961	43.27
581.155	43.14
581.35	43.01
581.544	43.11
581.738	42.88
581.933	42.89
582.127	43.07
582.321	42.75
582.516	42.9
582.71	42.86
582.904	43.03
583.099	42.71
583.293	42.75
583.487	42.78
583.681	42.92
583.875	43.08
584.07	43.16
584.264	43.32
584.458	43.4
584.652	43.36
584.846	43.44
585.04	43.5
585.234	43.65
585.428	43.66
585.623	43.79
585.817	43.85
586.011	43.89
586.205	43.87
586.399	43.58
586.593	43.56
586.787	43.52
586.981	43.75
587.174	43.67
587.368	43.78
587.562	43.93
587.756	43.91
587.95	43.8
588.144	43.91
588.338	44.07
588.532	44.39
588.725	44.46
588.919	44.51
589.113	44.2
589.307	44.17
589.501	44.16
589.694	44.17
589.888	43.8
590.082	43.67
590.275	43.49
590.469	43.36
590.663	43.2
590.856	43.23
591.05	43.2
591.244	43.38
591.437	43.41
591.631	43.4
591.824	43.22
592.018	43.57
592.212	43.71
592.405	43.75
592.599	43.91
592.792	44.2
592.986	44
593.179	44.21
593.372	43.96
593.566	44.02
593.759	43.85
593.953	43.98
594.146	44.09
594.339	43.96
594.533	44.23
594.726	44.34
594.92	44.41
595.113	44.61
595.306	44.64
595.499	44.85
595.693	44.78
595.886	45.03
596.079	44.74
596.272	44.96
596.466	45.1
596.659	45.01
596.852	44.8
597.045	44.59
597.238	44.45
597.431	44.35
597.624	44.34
597.818	44.35
598.011	44.16
598.204	44.6
598.397	44.47
598.59	44.59
598.783	44.6
598.976	44.75
599.169	44.96
599.362	45.26
599.555	45.27
599.748	45.5
599.941	45.77
600.134	45.94
600.326	45.97
600.519	45.85
600.712	45.92
600.905	45.86
601.098	46.18
601.291	45.93
601.483	45.95
601.676	46.07
601.869	45.86
602.062	45.93
602.255	46.06
602.447	45.95
602.64	46.07
602.833	45.94
603.025	45.95
603.218	45.6
603.411	45.75
603.603	45.67
603.796	45.76
603.989	45.73
604.181	45.62
604.374	45.44
604.566	45.32
604.759	45.3
604.951	45.3
605.144	45.37
605.336	45.35
605.529	45.14
605.721	45.03
605.914	45.01
606.106	45.1
606.299	45.19
606.491	45.39
606.683	45.6
606.876	45.8
607.068	45.66
607.26	45.75
607.453	45.86
607.645	45.98
607.837	45.97
608.03	45.75
608.222	45.78
608.414	45.66
608.606	45.57
608.799	45.57
608.991	45.53
609.183	45.39
609.375	45.13
609.567	45.1
609.759	45.24
609.952	45.22
610.144	45.3
610.336	45.18
610.528	44.98
610.72	44.96
610.912	44.68
611.104	44.48
611.296	44.77
611.488	44.67
611.68	44.48
611.872	44.31
612.064	44.37
612.256	44.32
612.448	44.31
612.64	44.4
612.832	44.33
613.023	44.37
613.215	44.46
613.407	44.54
613.599	44.74
613.791	45.29
613.983	45.31
614.174	45.29
614.366	45.29
614.558	45.5
614.75	45.59
614.941	45.61
615.133	45.74
615.325	45.76
615.516	45.77
615.708	45.68
615.9	45.52
616.091	45.79
616.283	46.01
616.475	46.28
616.666	45.96
616.858	46.17
617.049	46.45
617.241	46.48
617.432	46.37
617.624	46.13
617.815	46.09
618.007	46.09
618.198	45.95
618.39	45.73
618.581	45.52
618.773	45.96
618.964	45.72
619.155	45.79
619.347	45.76
619.538	45.82
619.729	46.24
619.921	46.47
620.112	46.59
620.303	46.59
620.494	46.9
620.686	46.89
620.877	46.71
621.068	46.98
621.259	46.92
621.451	47.08
621.642	47
621.833	46.87
622.024	46.76
622.215	46.65
622.406	46.75
622.597	46.73
622.788	46.8
622.98	46.62
623.171	46.48
623.362	46.28
623.553	46.42
623.744	46.58
623.935	46.48
624.126	46.68
624.317	46.64
624.508	46.54
624.698	46.61
624.889	46.88
625.08	47.24
625.271	47.07
625.462	47.31
625.653	47.04
625.844	47.26
626.034	47.3
626.225	47.56
626.416	47.55
626.607	47.65
626.798	47.56
626.988	47.35
627.179	47.17
627.37	47.66
627.56	47.64
627.751	47.9
627.942	47.66
628.132	47.62
628.323	47.51
628.514	47.66
628.704	47.55
628.895	47.54
629.085	47.7
629.276	47.94
629.466	47.56
629.657	47.56
629.847	47.29
630.038	47.34
630.228	47.61
630.419	47.2
630.609	47.11
630.8	47.18
630.99	47.1
631.181	47.04
631.371	47.03
631.561	47.13
631.752	47.31
631.942	47.54
632.132	47.31
632.323	47.01
632.513	47.51
632.703	47.54
632.893	47.67
633.084	47.97
633.274	47.66
633.464	47.4
633.654	47.32
633.844	47.05
634.034	46.77
634.225	47.02
634.415	47.14
634.605	47.03
634.795	46.73
634.985	46.79
635.175	46.74
635.365	47.01
635.555	47.03
635.745	47.08
635.935	46.96
636.125	47.07
636.315	47.28
636.505	47.4
636.695	47.17
636.885	47.69
637.075	47.26
637.265	47.24
637.455	47.11
637.644	47.27
637.834	47.31
638.024	47.49
638.214	47.84
638.404	47.59
638.593	47.53
638.783	47.5
638.973	47.35
639.163	47.47
639.352	47.23
639.542	47.6
639.732	47.82
639.921	47.55
640.111	47.62
640.301	47.36
640.49	47.21
640.68	47.09
640.87	47.32
641.059	46.93
641.249	46.98
641.438	46.94
641.628	46.77
641.817	46.32
642.007	46.28
642.196	46.21
642.386	46.26
642.575	46.67
642.764	46.56
642.954	46.52
643.143	47.19
643.333	47.47
643.522	47.72
643.711	47.75
643.901	47.8
644.09	48.03
644.279	48.15
644.469	47.83
644.658	47.75
644.847	47.83
645.036	48.01
645.226	47.35
645.415	46.91
645.604	46.77
645.793	46.66
645.982	46.66
646.171	47.02
646.361	46.83
646.55	47.32
646.739	47.2
646.928	47.32
647.117	46.76
647.306	47.15
647.495	47.41
647.684	47.05
647.873	47.19
648.062	46.96
648.251	46.85
648.44	46.76
648.629	46.81
648.818	46.9
649.007	46.91
649.196	47.59
649.384	47.48
649.573	47.36
649.762	47.86
649.951	47.77
650.14	48.14
650.328	47.9
650.517	47.87
650.706	47.62
650.895	47.56
651.083	47.64
651.272	47.26
651.461	47
651.65	47.16
651.838	47.2
652.027	47.06
652.216	46.92
652.404	47.1
652.593	47.3
652.781	47.06
652.97	47.18
653.158	47.17
653.347	47.16
653.535	47.35
653.724	47.35
653.912	47.27
654.101	47.59
654.289	47.64
654.478	47.45
654.666	47.13
654.855	47
655.043	46.36
655.231	46.12
655.42	46.3
655.608	46.24
655.796	45.97
655.985	45.87
656.173	46.02
656.361	45.73
656.55	45.6
656.738	45.88
656.926	45.94
657.114	46.48
657.302	46.61
657.491	46.61
657.679	46.92
657.867	46.87
658.055	47
658.243	46.61
658.431	46.97
658.619	47.37
658.807	47.36
658.996	47.46
659.184	47.01
659.372	47.02
659.56	47.15
659.748	46.96
659.936	47.31
660.124	47.2
660.311	47.49
660.499	47.33
660.687	47.19
660.875	47.28
661.063	47.38
661.251	47.48
661.439	47.41
661.627	46.99
661.814	46.84
662.002	46.49
662.19	45.97
662.378	45.86
662.565	45.64
662.753	45.53
662.941	45.01
663.129	44.95
663.316	45.3
663.504	45.42
663.692	45.55
663.879	45.86
664.067	46.03
664.254	46.23
664.442	45.99
664.63	46.26
664.817	46.07
665.005	46.36
665.192	46.39
665.38	45.98
665.567	45.61
665.755	45.66
665.942	45.38
666.13	45.24
666.317	45.54
666.504	45.42
666.692	45.75
666.879	46.13
667.067	46.4
667.254	46.92
667.441	47.11
667.629	47.39
667.816	47.53
668.003	47.67
668.19	47.9
668.378	47.76
668.565	48.01
668.752	47.89
668.939	47.75
669.127	47.38
669.314	46.5
669.501	46.73
669.688	46.57
669.875	46.26
670.062	46.35
670.249	46.2
670.436	45.88
670.623	45.94
670.81	45.59
670.997	45.74
671.184	45.98
671.371	46.62
671.558	46.12
671.745	46.23
671.932	46.16
672.119	45.86
672.306	46.28
672.493	46.83
672.68	46.21
672.867	46.45
673.054	46.08
673.24	45.76
673.427	45.95
673.614	46
673.801	46.2
673.988	46.46
674.174	46.01
674.361	45.54
674.548	45.32
674.734	45.88
674.921	45.95
675.108	45.73
675.294	46.11
675.481	45.96
675.668	45.73
675.854	45.02
676.041	44.91
676.227	45.45
676.414	45.48
676.601	45.4
676.787	45.33
676.974	45.35
677.16	45.49
677.347	45.4
677.533	44.77
677.719	45.56
677.906	45.54
678.092	45.72
678.279	45.64
678.465	45.8
678.651	46.14
678.838	45.64
679.024	45.71
679.21	46.21
679.397	46.06
679.583	46.68
679.769	46.38
679.955	46.78
680.142	46.78
680.328	46.76
680.514	46.9
680.7	46.77
680.886	47.22
681.073	46.81
681.259	46.3
681.445	46.15
681.631	46.01
681.817	45.92
682.003	45.78
682.189	45.71
682.375	45.65
682.561	45.25
682.747	45.13
682.933	45.13
683.119	45.42
683.305	45.17
683.491	45.67
683.677	45.53
683.863	45.69
684.049	45.76
684.235	46.04
684.42	45.97
684.606	46.05
684.792	46.19
684.978	45.96
685.164	45.98
685.349	45.89
685.535	45.37
685.721	45.55
685.907	45.68
686.092	45.31
686.278	44.2
686.464	44.59
686.649	44.5
686.835	44.07
687.021	43.95
687.206	43.55
687.392	44.23
687.577	44.44
687.763	44.63
687.948	44.63
688.134	44.79
688.319	45.69
688.505	45.38
688.69	45.98
688.876	46.17
689.061	46.57
689.247	46.83
689.432	46.59
689.618	46.63
689.803	45.95
689.988	45.86
690.174	45.95
690.359	45.58
690.544	45.28
690.73	44.5
690.915	44.49
691.1	44.38
691.285	44.03
691.471	44.02
691.656	44.08
691.841	44.5
692.026	44.36
692.211	44.44
692.396	44.43
692.582	44.71
692.767	45.27
692.952	45.51
693.137	45.25
693.322	45.66
693.507	45.25
693.692	45.12
693.877	44.67
694.062	44.89
694.247	44.75
694.432	44.84
694.617	45.15
694.802	45.37
694.987	45.19
695.172	45.2
695.357	44.87
695.541	45.63
695.726	45.22
695.911	45.18
696.096	44.96
696.281	44.48
696.466	44.66
696.65	44.72
696.835	44.01
697.02	44.28
697.204	44.79
697.389	44.59
697.574	44.46
697.759	44.98
697.943	45.36
698.128	45.42
698.312	45.44
698.497	45.41
698.682	45.16
698.866	45.26
699.051	45.25
699.235	45.1
699.42	45.13
699.604	45.27
699.789	45.18
699.973	44.94
700.158	44.74
700.342	44.75
700.527	44.76
700.711	45.12
700.895	44.85
701.08	44.47
701.264	43.85
701.448	44.1
701.633	43.96
701.817	43.75
702.001	43.53
702.186	43.38
702.37	44.23
702.554	44.16
702.738	43.97
702.923	44.06
703.107	44.62
703.291	44.69
703.475	45.14
703.659	44.65
703.843	44.72
704.027	45.03
704.212	44.69
704.396	44
704.58	43.56
704.764	43.3
704.948	44.24
705.132	43.72
705.316	44.29
705.5	43.71
705.684	43.67
705.868	43.69
706.052	43.51
706.235	43.54
706.419	43.31
706.603	43.29
706.787	43.1
706.971	42.32
707.155	42.62
707.339	42.09
707.522	42.28
707.706	42.35
707.89	42.28
708.074	42
708.257	42.6
708.441	42.91
708.625	42.8
708.808	43.46
708.992	43.33
709.176	43.15
709.359	42.87
709.543	42.71
709.727	43.31
709.91	43.74
710.094	44.2
710.277	43.83
710.461	43.85
710.644	44.23
710.828	43.59
711.011	43.47
711.195	44.38
711.378	45.13
711.562	45.24
711.745	45.14
711.928	44.33
712.112	44.51
712.295	44.62
712.478	45
712.662	45.17
712.845	45.51
713.028	45.77
713.212	45.54
713.395	45.15
713.578	44.99
713.761	44.76
713.945	45.01
714.128	44.94
714.311	44.94
714.494	44.9
714.677	44.82
714.86	44.61
715.043	44.14
715.227	43.44
715.41	43.44
715.593	43.99
715.776	43.8
715.959	43.9
716.142	43.6
716.325	43.15
716.508	43.18
716.691	43.31
716.874	43.05
717.057	43.14
717.239	43.32
717.422	43.47
717.605	43.04
717.788	43.59
717.971	42.83
718.154	42.63
718.337	42.96
718.519	42.4
718.702	42.72
718.885	43.89
719.068	44.58
719.25	44.41
719.433	44.3
719.616	43.85
719.798	42.88
719.981	43.36
720.164	43.68
720.346	43.96
720.529	43.82
720.712	42.96
720.894	42.39
721.077	42.32
721.259	42.49
721.442	42.52
721.624	42.5
721.807	42.64
721.989	42.57
722.172	42.45
722.354	42.03
722.537	41.12
722.719	40.48
722.901	40.53
723.084	40
723.266	38.94
723.448	38.85
723.631	38.48
723.813	38.17
723.995	38.98
724.178	39.35
724.36	39.75
724.542	42.03
724.724	42.89
724.907	42.8
725.089	43.33
725.271	44.41
725.453	44.49
725.635	45.18
725.817	45.84
725.999	44.96
726.181	44.48
726.364	44.21
726.546	42.86
726.728	42.34
726.91	41.63
727.092	41.22
727.274	39.76
727.456	39.77
727.638	39.51
727.819	39.06
728.001	39.7
728.183	40.15
728.365	40.02
728.547	40.19
728.729	40.4
728.911	40.39
729.093	40.03
729.274	40.55
729.456	39.79
729.638	39.8
729.82	40.59
730.001	40.38
730.183	40.04
730.365	40.13
730.546	40.18
730.728	40.83
730.91	40.43
731.091	41.2
731.273	41.6
731.455	42.68
731.636	43.28
731.818	42.77
731.999	42.37
732.181	42.38
732.362	42.1
732.544	43.03
732.725	42.27
732.907	42.48
733.088	41.15
733.27	41.08
733.451	40.14
733.633	40.73
733.814	40.82
733.995	41.15
734.177	41.5
734.358	41.45
734.539	40.08
734.721	39.25
734.902	39.57
735.083	40.67
735.264	40.62
735.446	41.09
735.627	38.93
735.808	39.23
735.989	38.97
736.17	38.91
736.351	39.15
736.533	40.18
736.714	40.9
736.895	40.29
737.076	40.06
737.257	40.62
737.438	39.68
737.619	40.67
737.8	39.79
737.981	40.06
738.162	39.6
738.343	39.02
738.524	38.21
738.705	37.83
738.886	38.28
739.067	38.13
739.247	37.3
739.428	37.72
739.609	37.87
739.79	38.01
739.971	37.9
740.151	37.97
740.332	38.16
740.513	38.54
740.694	39.24
740.874	39.52
741.055	40.43
741.236	40.49
741.417	41.22
741.597	41.29
741.778	41.75
741.958	41.6
742.139	41.22
742.32	41.13
742.5	41.44
742.681	40.96
742.861	40.8
743.042	39.82
743.222	40.95
743.403	40.49
743.583	40.83
743.764	40.06
743.944	39.36
744.124	39.43
744.305	39.51
744.485	38.87
744.666	39.58
744.846	38.86
745.026	39.51
745.207	39.49
745.387	39.32
745.567	39.72
745.747	39.4
745.928	40.44
746.108	40.94
746.288	42.78
746.468	42.31
746.648	40.95
746.829	40.89
747.009	41.3
747.189	40.36
747.369	40.21
747.549	39.06
747.729	39.52
747.909	39.63
748.089	38.44
748.269	37.48
748.449	36.74
748.629	37.21
748.809	38.05
748.989	36.81
749.169	35.67
749.349	35.98
749.529	35.15
749.709	35.41
749.889	34.66
750.068	35.34
750.248	36.1
750.428	36.75
750.608	37.26
750.788	37.24
750.967	36.75
751.147	37.1
751.327	36.49
751.507	36.5
751.686	36.44
751.866	35.45
752.046	34.76
752.225	34.9
752.405	35.78
752.585	35.77
752.764	35.31
752.944	35.95
753.123	36.88
753.303	37.87
753.482	38.56
753.662	38.51
753.841	40
754.021	41.76
754.2	41.44
754.38	40.71
754.559	40.37
754.739	41.16
754.918	41.44
755.097	40.77
755.277	40.5
755.456	40.31
755.635	39.19
755.815	38.47
755.994	37.51
756.173	36.45
756.352	35.88
756.532	35.73
756.711	35.07
756.89	34.52
757.069	34.9
757.248	34.39
757.427	34.74
757.607	36.32
757.786	36.11
757.965	36.52
758.144	36.79
758.323	37.7
758.502	38.45
758.681	38.05
758.86	37.72
759.039	38.46
759.218	38.64
759.397	37.67
759.576	37.63
759.755	38.61
759.934	37.96
760.113	37.37
760.291	37.38
760.47	36.31
760.649	36.19
760.828	37.22
761.007	35.75
761.186	35.91
761.364	36.81
761.543	35.58
761.722	35.75
761.901	35.95
762.079	36.84
762.258	36.88
762.437	37.25
762.615	37.47
762.794	36.14
762.972	36.96
763.151	37.56
763.33	37.6
763.508	38.06
763.687	37.94
763.865	37.36
764.044	36.97
764.222	36.85
764.401	37.29
764.579	37.55
764.758	37.81
764.936	37.94
765.114	36.8
765.293	37.25
765.471	37.51
765.65	36.7
765.828	37.58
766.006	37.8
766.184	37.66
766.363	36.79
766.541	36.93
766.719	37.41
766.898	36.53
767.076	37.42
767.254	35.95
767.432	35.34
767.61	35.9
767.788	35.18
767.967	35.05
768.145	34.07
768.323	34.02
768.501	33.45
768.679	33.45
768.857	34.28
769.035	34.1
769.213	33.88
769.391	33.58
769.569	33.5
769.747	33.68
769.925	34.42
770.103	35.41
770.281	35.43
770.459	34.81
770.636	35.48
770.814	34.55
770.992	33.88
771.17	34.8
771.348	35.96
771.525	35.43
771.703	35.07
771.881	35.54
772.059	35.07
772.236	34.9
772.414	35.39
772.592	34.97
772.769	33.7
772.947	34.25
773.125	34.55
773.302	34.6
773.48	35.84
773.657	37.91
773.835	35.61
774.013	35.24
774.19	35.69
774.368	36.81
774.545	36.82
774.723	39.55
774.9	40.27
775.077	39.36
775.255	39.61
775.432	39.55
775.61	36.87
775.787	37.54
775.964	40.45
776.142	39.37
776.319	37.7
776.496	36.75
776.674	35.64
776.851	35.38
777.028	37.09
777.205	35.07
777.382	34.42
777.56	35.51
777.737	34.31
777.914	30.43
778.091	30.89
778.268	31.66
778.445	31.21
778.622	30.36
778.8	29.23
778.977	28.05
779.154	28.88
779.331	29.22
779.508	30.18
779.685	31
779.862	32.79
780.038	33.86
780.215	35.4
780.392	37.07
780.569	38.48
780.746	40.51
780.923	42.13
781.1	41.73
781.277	41.91
781.453	39.7
781.63	39.73
781.807	40.35
781.984	38.17
782.16	36.83
782.337	36.19
782.514	36.4
782.691	32.36
782.867	30.74
783.044	32.41
783.221	32.17
783.397	33.8
783.574	35.94
783.75	35.55
783.927	37.69
784.103	37.06
784.28	36.23
784.456	34.69
784.633	36.27
784.809	37.05
784.986	36.41
785.162	36.24
785.339	35.22
785.515	33.57
785.692	32.35
785.868	31.94
786.044	31.77
786.221	35
786.397	36.47
786.573	36.06
786.749	34.99
786.926	32.08
787.102	30.59
787.278	29.7
787.454	30.68
787.631	33
787.807	31.33
787.983	30.5
788.159	27.9
788.335	26.65
788.511	27.02
788.687	26.78
788.863	28.54
789.039	30.91
789.216	31.77
789.392	31.86
789.568	30.59
789.744	29.77
789.919	32
790.095	33.13
790.271	34.42
790.447	35.87
790.623	35.57
790.799	35.64
790.975	34.69
791.151	33.88
791.327	31.47
791.502	30.36
791.678	32.54
791.854	30.19
792.03	27.36
792.205	26.31
792.381	25.54
792.557	28.1
792.733	29.6
792.908	29.34
793.084	29.65
793.259	32.05
793.435	33.39
793.611	34.07
793.786	34.7
793.962	37.16
794.137	36.93
794.313	36.12
794.488	35.09
794.664	36.82
794.839	36.12
795.015	36.31
795.19	34.77
795.366	36
795.541	35.76
795.716	37.57
795.892	35.53
796.067	34.49
796.242	35.08
796.418	34.57
796.593	32.36
796.768	30.89
796.944	31.96
797.119	31.75
797.294	28.55
797.469	28.26
797.644	24.41
797.82	24.19
797.995	25.76
798.17	25.53
798.345	24.14
798.52	24.26
798.695	25.73
798.87	26.54
799.045	28.83
799.22	30.92
799.395	34.12
799.57	37.29
799.745	37.74
799.92	38.47
800.095	37.69
800.27	38.72
800.445	38.21
800.62	37.85
800.795	35.23
800.97	34.97
801.145	34.84
801.319	33.64
801.494	31.15
801.669	32.34
801.844	30.42
802.018	31.23
802.193	28.84
802.368	29.73
802.543	30.71
802.717	30.97
802.892	29.69
803.067	28.86
803.241	27.75
803.416	26.83
803.59	24.71
803.765	23.23
803.94	20.86
804.114	22.4
804.289	21.34
804.463	21.71
804.638	23.84
804.812	22.78
804.986	21.96
805.161	19.73
805.335	22.86
805.51	26.32
805.684	30.04
805.858	32.71
806.033	30.95
806.207	32.09
806.381	32.56
806.556	29.97
806.73	30.21
806.904	31.33
807.078	30.08
807.253	27.95
807.427	26.5
807.601	28.22
807.775	29.34
807.949	31.63
808.123	31.05
808.298	30.48
808.472	31.6
808.646	32.71
808.82	32.34
808.994	34.4
809.168	32.61
809.342	33.21
809.516	30.22
809.69	25.96
809.864	25.7
810.038	25.65
810.212	24.05
810.385	23.71
810.559	21.15
810.733	21.03
810.907	17.34
811.081	19.76
811.255	16.95
811.428	14.78
811.602	18.62
811.776	18.65
811.95	18.17
812.123	20.46
812.297	23.32
812.471	26.33
812.644	29.2
812.818	32.39
812.992	32.62
813.165	35.35
813.339	35.38
813.512	32.32
813.686	33.3
813.86	36.95
814.033	38.47
814.207	38.11
814.38	38.14
814.554	35.29
814.727	35.08
814.9	34.03
815.074	32.62
815.247	35.26
815.421	36.87
815.594	38.1
815.767	35.7
815.941	30.44
816.114	27.7
816.287	26.9
816.46	27.89
816.634	27.11
816.807	28.61
816.98	30.56
817.153	28.49
817.327	27.74
817.5	25.22
817.673	22.93
817.846	25.87
818.019	26.98
818.192	26.99
818.365	22.34
818.538	24.24
818.711	20.45
818.884	21.19
819.057	22.68
819.23	23.86
819.403	24.6
819.576	27.13
819.749	26.12
819.922	24
820.095	25.48
820.268	29.25
820.441	32.34
820.614	33.41
820.786	33.27
820.959	32.44
821.132	31.82
821.305	31.25
821.477	31.77
821.65	32.76
821.823	33.18
821.996	32.41
822.168	31.72
822.341	30.56
822.514	31.1
822.686	30.66
822.859	31.29
823.031	31.84
823.204	31.96
823.376	30.85
823.549	30.35
823.722	30.95
823.894	31.22
824.067	31.04
824.239	30.83
824.411	30.38
824.584	30.57
824.756	30.47
824.929	29.84
825.101	30.23
825.273	31.44
825.446	31.45
825.618	31.13
825.79	31.16
825.963	31.5
826.135	31.86
826.307	31.94
826.479	31.68
826.652	32.13
826.824	32.3
826.996	31.68
827.168	31.76
827.34	31.98
827.512	31.46
827.684	30.85
827.856	32.36
828.029	31.62
828.201	31.46
828.373	31.62
828.545	30.91
828.717	32.1
828.889	32.88
829.061	31.56
829.232	31.32
829.404	30.29
829.576	29.4
829.748	27.07
829.92	27.98
830.092	29.11
830.264	27.72
830.436	26.35
830.607	23.4
830.779	22.11
830.951	22.49
831.123	23.4
831.294	24.6
831.466	27.58
831.638	28.45
831.809	27.18
831.981	25.42
832.153	25.12
832.324	24.59
832.496	23.67
832.667	26.32
832.839	27.95
833.011	26.58
833.182	27.35
833.354	26.2
833.525	28.05
833.697	30.32
833.868	31.74
834.039	33.35
834.211	34.35
834.382	36.09
834.554	32.58
834.725	32.31
834.896	32.04
835.068	31.82
835.239	31.98
835.41	29.85
835.581	28.06
835.753	28.38
835.924	27.44
836.095	28.75
836.266	28.76
836.438	30.87
836.609	27.52
836.78	27.51
836.951	27.79
837.122	26.21
837.293	25.22
837.464	25.1
837.635	25.43
837.806	24.14
837.977	24.03
838.148	24.79
838.319	23.07
838.49	24.33
838.661	23.97
838.832	25.41
839.003	23.75
839.174	24.14
839.345	26.51
839.516	20.32
839.687	21.48
839.857	18.43
840.028	13.9
840.199	12
840.37	12.27
840.54	16.25
840.711	15.6
840.882	19.35
841.053	19.8
841.223	16.58
841.394	18.83
841.564	20.19
841.735	17.78
841.906	19.04
842.076	22.72
842.247	21.13
842.417	17.3
842.588	14.12
842.758	9.79
842.929	6.89
843.099	9.4
843.27	6.28
843.44	4.55
843.611	4.34
843.781	-6.96
843.951	-11.91
844.122	2.58
844.292	5.89
844.462	7.4
844.633	12.34
844.803	18.3
844.973	17.74
845.144	11.08
845.314	11.11
845.484	7.75
845.654	13.64
845.824	17.94
845.995	10.77
846.165	4.33
846.335	6.35
846.505	4.1
846.675	0.09
846.845	-2.63
847.015	3.61
847.185	0.82
847.355	5.28
847.525	5.01
847.695	-3.5
847.865	2.96
848.035	2.58
848.205	-1.84
848.375	2.53
848.545	4.33
848.715	-4.5
848.884	2.92
849.054	3.57
849.224	2.34
849.394	-0.17
849.564	1.42
849.733	-1.89
849.903	7.21
850.073	9.25
850.243	6.38
850.412	6.42
850.582	18.44
850.752	16.24
850.921	26.27
851.091	22.07
851.26	22.25
851.43	22.98
851.599	22.19
851.769	11.97
851.939	8.67
852.108	-3.87
852.278	-8.71
852.447	-5.75
852.616	-3.72
852.786	-11.77
852.955	-1.2
853.125	2.29
853.294	8.37
853.463	3.88
853.633	-3.68
853.802	-3.36
853.971	11.66
854.141	12.71
854.31	-1
854.479	-0.94
854.648	-12.23
854.818	-17.39
854.987	-19.27
855.156	-22.16
855.325	-30.01
855.494	-2.92
855.663	6.17
855.832	-7.41
856.001	-3.16
856.171	-0.27
856.34	-11.23
856.509	-1.53
856.678	0.87
856.847	6.04
857.016	4.62
857.185	12.3
857.353	10.78
857.522	6.58
857.691	6.94
857.86	8.64
858.029	12.2
858.198	20.61
858.367	13.28
858.535	-8.85
858.704	-13.77
858.873	-32.59
859.042	-27.36
859.21	-47.32
859.379	-65.32
859.548	-39.83
859.717	-52.82
859.885	-38.66
860.054	-23.72
860.222	-37.67
860.391	-14.18
860.56	-10.31
860.728	-3.11
860.897	-11.89
861.065	2.45
861.234	1.66
861.402	3.91
861.571	9.02
861.739	8.37
861.908	12.25
862.076	18.97
862.244	18.87
862.413	6.56
862.581	7.33
862.749	14.42
862.918	8.63
863.086	22.3
863.254	25.11
863.423	20.74
863.591	20.9
863.759	18.29
863.927	17.02
864.096	18.66
864.264	25.57
864.432	28.45
864.6	21.23
864.768	18.92
864.936	15.39
865.104	5.76
865.272	9.29
865.44	10.43
865.608	-0.77
865.776	1.75
865.944	-4.51
866.112	-5.67
866.28	2.06
866.448	7.74
866.616	19.8
866.784	15.13
866.952	13.14
867.12	14.51
867.288	8.27
867.455	19.38
867.623	12.06
867.791	25.06
867.959	36.06
868.127	13.59
868.294	0.22
868.462	-11.24
868.63	-38.88
868.797	-29.62
868.965	-31.84
869.133	-19.72
869.3	-16.93
869.468	-14.61
869.636	-41.08
869.803	-46.97
869.971	-34.69
870.138	-27.93
870.306	-29.36
870.473	-21.55
870.641	-16.41
870.808	-14.56
870.975	-55.94
871.143	-92.13
871.31	-42.54
871.478	-13.25
871.645	-11.55
871.812	-31.59
871.98	-22.4
872.147	-23.59
872.314	-16.67
872.482	-27.98
872.649	-39.18
872.816	-18.32
872.983	-12.89
873.15	-25.99
873.318	-25.56
873.485	-34.06
873.652	-10.51
873.819	-1.34
873.986	6.87
874.153	4.75
874.32	10.63
874.487	14.67
874.654	24.85
874.821	34.16
874.988	31.04
875.155	29.23
875.322	27.44
875.489	26.78
875.656	23.87
875.823	21.81
875.99	14.82
876.157	12.32
876.324	17.53
876.49	8.17
876.657	0.85
876.824	0.05
876.991	-2.84
877.157	1.21
877.324	-0.2
877.491	-17.85
877.658	-27.63
877.824	-10.44
877.991	-0.86
878.157	-1.76
878.324	0.87
878.491	2.26
878.657	3.85
878.824	-11.28
878.99	-9.09
879.157	-8.98
879.323	-1.73
879.49	0.79
879.656	-7.17
879.823	-6.43
879.989	0.16
880.156	7.85
880.322	7.65
880.488	7.63
880.655	17.54
880.821	16.98
880.987	17.15
881.154	22.08
881.32	22.49
881.486	27.3
881.652	24.52
881.819	20.7
881.985	18.04
882.151	20.21
882.317	20.52
882.483	18.42
882.649	17.77
882.816	18.92
882.982	19.23
883.148	20.53
883.314	19.63
883.48	19.11
883.646	19.6
883.812	20.14
883.978	18.9
884.144	18.66
884.31	20.55
884.476	21.15
884.642	20.84
884.807	20.09
884.973	17.47
885.139	17.16
885.305	18.44
885.471	17.42
885.637	16.68
885.802	17
885.968	17.52
886.134	16.32
886.3	15.87
886.465	15.64
886.631	15.5
886.797	19.92
886.962	20.78
887.128	20.96
887.293	25.27
887.459	24.92
887.625	26.74
887.79	25.27
887.956	28.05
888.121	30.09
888.287	30.48
888.452	33.77
888.618	32.45
888.783	33.23
