Data from CB_110_Reflection_2.txt Node
Date: Sat Nov 14 18:13:04 EST 2015
User: robert
Spectrometer: USB4E03001
Autoset integration time: false
Trigger mode: 4
Integration Time (sec): 1.000000E-1
Scans to average: 15
Electric dark correction enabled: true
Nonlinearity correction enabled: false
Boxcar width: 5
Stray light correction enabled: false
XAxis mode: Wavelengths
Stop averaging: false
Number of Pixels in Spectrum: 3648
>>>>>Begin Spectral Data<<<<<
177.566	211.21
177.785	-1745.81
178.005	594.52
178.225	463.77
178.445	-1112.63
178.665	278.85
178.885	-837.11
179.105	214.49
179.324	239.56
179.544	90.62
179.764	84.03
179.984	74.72
180.204	87.28
180.423	97.86
180.643	90.72
180.863	98.78
181.083	88.55
181.302	69.65
181.522	67.66
181.742	86.31
181.961	120.33
182.181	119.63
182.401	354.34
182.621	244.67
182.84	337.78
183.06	191.77
183.279	140.57
183.499	229.45
183.719	184.43
183.938	87.31
184.158	126.62
184.377	116.15
184.597	127.93
184.816	100.37
185.036	89.09
185.256	89.98
185.475	79.84
185.695	81.28
185.914	71.71
186.134	83.08
186.353	91.25
186.572	65.38
186.792	69.6
187.011	69.51
187.231	67.72
187.45	74.57
187.67	66.24
187.889	85.8
188.108	96.08
188.328	119.56
188.547	108.55
188.766	120.27
188.986	121.69
189.205	112.63
189.424	105.45
189.644	108.94
189.863	121.8
190.082	152.01
190.302	123.86
190.521	96.69
190.74	67.42
190.959	73.55
191.178	83.93
191.398	112.17
191.617	144.01
191.836	179.36
192.055	140.32
192.274	129.83
192.494	120
192.713	202.54
192.932	300.72
193.151	598.86
193.37	391.43
193.589	285.6
193.808	416.23
194.027	735.15
194.246	-1808.65
194.465	2793.14
194.685	236.64
194.904	219.42
195.123	134.63
195.342	102.93
195.561	81.19
195.78	104.53
195.999	140.57
196.218	98.73
196.436	98.02
196.655	93.94
196.874	108.58
197.093	114.62
197.312	116.4
197.531	127.07
197.75	126.41
197.969	124.26
198.188	136.51
198.407	108.44
198.625	134.45
198.844	131.39
199.063	114.75
199.282	113.84
199.501	125.73
199.719	114.81
199.938	83.3
200.157	74.28
200.376	80.49
200.594	77.5
200.813	102.59
201.032	74.28
201.251	78.74
201.469	97.67
201.688	91.76
201.907	89.26
202.125	100.63
202.344	185.8
202.563	211.68
202.781	215.2
203	235.07
203.218	221.5
203.437	211.85
203.656	215.44
203.874	149.63
204.093	179.86
204.311	193.92
204.53	217.9
204.748	134.14
204.967	151.07
205.185	167.73
205.404	147.69
205.622	131.02
205.841	142.12
206.059	130.23
206.278	129.14
206.496	115.42
206.715	117.85
206.933	89.47
207.151	111.02
207.37	121.98
207.588	93.46
207.806	93.21
208.025	93.19
208.243	89.23
208.461	100.87
208.68	106.51
208.898	116.45
209.116	93.29
209.335	93.43
209.553	105.63
209.771	112.27
209.989	110.5
210.208	112.46
210.426	107.76
210.644	98.43
210.862	80.93
211.081	81.6
211.299	81.64
211.517	92.34
211.735	86.37
211.953	76.63
212.171	63.37
212.39	67.15
212.608	71.04
212.826	65.78
213.044	67.83
213.262	76.65
213.48	77.87
213.698	76.14
213.916	74.91
214.134	72.12
214.352	65.81
214.57	67.85
214.788	81.39
215.006	72.65
215.224	90.23
215.442	139.66
215.66	129.87
215.878	127.3
216.096	154.22
216.314	153.12
216.532	171.06
216.75	189.28
216.968	190.25
217.185	187.62
217.403	225.34
217.621	296.92
217.839	177.15
218.057	226.8
218.275	178.88
218.492	179.79
218.71	179.22
218.928	188.11
219.146	206.28
219.363	162.1
219.581	155.89
219.799	168.7
220.017	135.95
220.234	141.83
220.452	144.23
220.67	190.25
220.887	276.64
221.105	349.58
221.323	6144.79
221.54	665.38
221.758	3930
221.976	1591.94
222.193	305.96
222.411	363.66
222.629	668.18
222.846	780.45
223.064	-716.18
223.281	1003.09
223.499	704.9
223.716	1004.02
223.934	-609.5
224.151	-196.51
224.369	-145.82
224.586	-85.46
224.804	-62.18
225.021	-63.84
225.239	-72.05
225.456	-88.57
225.674	-58.21
225.891	-70.04
226.108	-105.27
226.326	-91.63
226.543	-51.93
226.76	-30.55
226.978	-21.65
227.195	-30.78
227.413	-28.87
227.63	-21.86
227.847	-16.26
228.064	-5.6
228.282	-3.42
228.499	0.75
228.716	-1.45
228.934	-5.17
229.151	-3.99
229.368	-2.03
229.585	-4.72
229.802	-2.22
230.02	-1.93
230.237	-2
230.454	-1.98
230.671	-0.26
230.888	-3.76
231.105	-4.19
231.323	-6.99
231.54	-16.49
231.757	-23.63
231.974	-24.36
232.191	-28.2
232.408	-30.75
232.625	-30.97
232.842	-29.58
233.059	-29.06
233.276	-29.41
233.493	-30.47
233.71	-18.63
233.927	-7.03
234.144	-6.68
234.361	-6.19
234.578	-10.64
234.795	-3.58
235.012	-7.35
235.229	-11.95
235.446	-20.54
235.663	-13.15
235.879	-17.83
236.096	-27.12
236.313	-29
236.53	-25.08
236.747	-22.95
236.964	-24.36
237.181	-28.04
237.397	-30.43
237.614	-31.31
237.831	-25.58
238.048	-28.07
238.264	-27.69
238.481	-26.14
238.698	-14.39
238.915	-8.14
239.131	-5.54
239.348	-4.08
239.565	-3.18
239.781	2.67
239.998	2.98
240.215	4.87
240.431	4.69
240.648	10.15
240.865	14.19
241.081	11.3
241.298	10.57
241.514	9.44
241.731	10.83
241.947	10.46
242.164	10.09
242.38	11.16
242.597	10.98
242.814	11.22
243.03	9.52
243.246	8.99
243.463	9.54
243.679	7.91
243.896	9.05
244.112	6.8
244.329	6.44
244.545	6.43
244.762	6.07
244.978	5.25
245.194	3.05
245.411	1.75
245.627	1.91
245.843	2.02
246.06	3.45
246.276	3.87
246.492	7.11
246.709	6.71
246.925	6.9
247.141	7.39
247.357	8.37
247.574	9.04
247.79	10.05
248.006	10.9
248.222	10.73
248.439	10.46
248.655	9.94
248.871	8.89
249.087	9.46
249.303	9.52
249.519	9.23
249.736	6.88
249.952	7.58
250.168	6.45
250.384	2.23
250.6	1.77
250.816	2.03
251.032	2.56
251.248	1.15
251.464	-0.82
251.68	-1.63
251.896	-2.15
252.112	-2.43
252.328	-4.28
252.544	-5.55
252.76	-4.92
252.976	-5.91
253.192	-7.33
253.408	-7.65
253.624	-6.48
253.84	-6.03
254.056	-5.57
254.272	-8.92
254.487	-9.54
254.703	-6.41
254.919	-8.07
255.135	-7.58
255.351	-8.8
255.567	-4.24
255.782	-5.78
255.998	-3.37
256.214	-3.34
256.43	1.32
256.646	4.73
256.861	7.09
257.077	5.07
257.293	9.27
257.508	10.7
257.724	10.82
257.94	10.72
258.155	9.85
258.371	7.33
258.587	5.89
258.802	4.29
259.018	5.09
259.234	5.78
259.449	5.52
259.665	5.65
259.88	5.68
260.096	6.15
260.312	5.61
260.527	6.76
260.743	7.3
260.958	8.12
261.174	8.45
261.389	8.64
261.605	8.7
261.82	8.57
262.036	7.64
262.251	8.15
262.466	7.6
262.682	8.37
262.897	6.45
263.113	5.36
263.328	6.72
263.543	6.84
263.759	2.89
263.974	1.33
264.189	0.64
264.405	0.92
264.62	-0.7
264.835	-0.41
265.051	-0.12
265.266	-1.51
265.481	-0.02
265.696	-1.74
265.912	-2.92
266.127	-0.2
266.342	2.31
266.557	2.73
266.773	2.95
266.988	3.59
267.203	4.57
267.418	4.52
267.633	8.34
267.848	8.57
268.064	8.67
268.279	9.75
268.494	9.42
268.709	8.46
268.924	9.94
269.139	9.37
269.354	9.51
269.569	9.19
269.784	8.46
269.999	5.22
270.214	4.54
270.429	4.28
270.644	2.8
270.859	3.58
271.074	3.05
271.289	1.64
271.504	3.02
271.719	3.31
271.934	1.96
272.149	3.3
272.363	4.64
272.578	6
272.793	5.79
273.008	6.05
273.223	6.46
273.438	5.35
273.653	6.44
273.867	5.35
274.082	4.89
274.297	5.4
274.512	3.15
274.726	2.1
274.941	1.17
275.156	1.48
275.371	2.39
275.585	1.72
275.8	3.47
276.015	2.22
276.229	2.52
276.444	0.87
276.659	0.81
276.873	3.33
277.088	3.95
277.302	4.06
277.517	5.52
277.732	3.6
277.946	4.39
278.161	4.11
278.375	5.24
278.59	7.13
278.804	8.06
279.019	8.79
279.233	7.47
279.448	7.26
279.662	6.85
279.877	6.14
280.091	7.91
280.306	7.2
280.52	8.11
280.735	8.81
280.949	7.79
281.163	8.15
281.378	7.92
281.592	8.68
281.806	9.43
282.021	8.29
282.235	7.74
282.449	7.44
282.664	7.34
282.878	7.09
283.092	5.92
283.307	5.42
283.521	5.79
283.735	5.38
283.949	4.72
284.164	5.23
284.378	6.92
284.592	6.55
284.806	6.57
285.02	7.18
285.234	7.04
285.449	7.89
285.663	8.47
285.877	7.88
286.091	7.77
286.305	7.24
286.519	6.06
286.733	5.02
286.947	5.36
287.161	5.82
287.375	4.52
287.589	4.61
287.803	3.78
288.017	3.68
288.231	4.21
288.445	3.83
288.659	3.42
288.873	4.56
289.087	4.81
289.301	3.81
289.515	3.49
289.729	3.64
289.943	2.44
290.157	2.13
290.371	2.19
290.584	2.25
290.798	1.97
291.012	3.5
291.226	3.46
291.44	3
291.654	3.86
291.867	3.74
292.081	4.7
292.295	5.56
292.509	5.5
292.722	5.89
292.936	6.37
293.15	8.02
293.364	7.9
293.577	7.78
293.791	7.75
294.005	7.26
294.218	6.99
294.432	6.45
294.645	6.62
294.859	8.1
295.073	7.98
295.286	7.11
295.5	6.96
295.713	6.31
295.927	6.78
296.14	8.07
296.354	8.71
296.568	9.22
296.781	9.91
296.994	10.26
297.208	8.94
297.421	9.51
297.635	9.57
297.848	9.59
298.062	10.84
298.275	11.25
298.489	10.89
298.702	11.83
298.915	11.75
299.129	11.97
299.342	12.01
299.555	11.84
299.769	11.42
299.982	11.91
300.195	12.33
300.409	11.37
300.622	10.21
300.835	9.19
301.048	8.27
301.262	8.1
301.475	6.97
301.688	5.72
301.901	6.93
302.115	5.57
302.328	5.49
302.541	5.79
302.754	5.27
302.967	5.36
303.18	5.63
303.393	5.32
303.607	5.17
303.82	6.06
304.033	7.37
304.246	8.07
304.459	9.42
304.672	9.35
304.885	8.5
305.098	9.01
305.311	8.94
305.524	10.13
305.737	9.2
305.95	9.67
306.163	8.14
306.376	7.25
306.589	7.31
306.802	5.36
307.015	5.7
307.228	6.58
307.44	6.29
307.653	7.85
307.866	7.12
308.079	7.55
308.292	8.3
308.505	10.08
308.718	10.79
308.93	10.94
309.143	11.11
309.356	10.21
309.569	10.07
309.781	11.04
309.994	10.33
310.207	10.19
310.42	10.27
310.632	9.69
310.845	9.13
311.058	10.36
311.27	10.67
311.483	11.7
311.696	12.76
311.908	13.9
312.121	12.73
312.333	12.29
312.546	12.82
312.759	13.37
312.971	13.22
313.184	13.21
313.396	11.38
313.609	9.46
313.821	9.12
314.034	8.36
314.246	6.82
314.459	8.84
314.671	8.35
314.884	8.34
315.096	7.19
315.309	7.18
315.521	7.83
315.733	7.27
315.946	7.64
316.158	7.9
316.371	8.26
316.583	6.97
316.795	5.43
317.008	6.92
317.22	7.71
317.432	8.85
317.644	7.28
317.857	7.03
318.069	9.09
318.281	8.93
318.494	8.31
318.706	7.54
318.918	8.51
319.13	9.22
319.342	8.53
319.555	7.08
319.767	6.13
319.979	7.54
320.191	7.82
320.403	5.97
320.615	7.23
320.827	7.16
321.039	7.21
321.252	7.93
321.464	7.95
321.676	8.17
321.888	8.84
322.1	10.03
322.312	10.82
322.524	10.16
322.736	11.56
322.948	12.02
323.16	12.9
323.372	12.5
323.584	12.38
323.796	11.46
324.007	11.57
324.219	12.08
324.431	12.08
324.643	10.92
324.855	11.94
325.067	12.34
325.279	11.41
325.491	11.62
325.702	12.33
325.914	12.62
326.126	12.9
326.338	13.18
326.55	14.15
326.761	14.84
326.973	16.17
327.185	17
327.396	17.77
327.608	18.06
327.82	16.9
328.032	18.13
328.243	18.7
328.455	20.54
328.666	21.09
328.878	20.75
329.09	21.57
329.301	22.72
329.513	21.87
329.725	20.63
329.936	20.6
330.148	21.47
330.359	20.29
330.571	19.01
330.782	18.21
330.994	17.94
331.205	17.46
331.417	16.27
331.628	15.23
331.84	14.51
332.051	14.73
332.262	16.08
332.474	16.99
332.685	18.01
332.897	19.79
333.108	19.38
333.319	18.86
333.531	18.9
333.742	18.91
333.953	20.44
334.165	21.42
334.376	21.66
334.587	21.8
334.799	21.8
335.01	21.95
335.221	21.24
335.432	22.3
335.644	23.88
335.855	24.73
336.066	25.62
336.277	24.52
336.488	24.17
336.7	24.2
336.911	24.01
337.122	23.76
337.333	23.93
337.544	23.76
337.755	22.6
337.966	21.71
338.177	21.39
338.388	21.29
338.599	20.78
338.811	20.63
339.022	21.48
339.233	20.49
339.444	19.73
339.655	19.71
339.866	19.29
340.076	19.45
340.287	19.05
340.498	19.05
340.709	18.76
340.92	19.79
341.131	19.47
341.342	19.34
341.553	19.61
341.764	21.46
341.975	20.61
342.185	20.92
342.396	20.69
342.607	21.52
342.818	21.65
343.029	20.92
343.239	20.68
343.45	21.36
343.661	20.48
343.872	20.5
344.082	19.76
344.293	20.52
344.504	21.04
344.714	22.4
344.925	22.27
345.136	22.09
345.346	22.59
345.557	23.03
345.768	23.15
345.978	23.39
346.189	24
346.399	23.96
346.61	23.69
346.821	23.25
347.031	22.9
347.242	22.27
347.452	22.57
347.663	22.04
347.873	21.92
348.084	21.67
348.294	22.27
348.504	22.25
348.715	21.11
348.925	20.85
349.136	21.22
349.346	20.92
349.557	21.59
349.767	21.61
349.977	22.34
350.188	20.77
350.398	21.2
350.608	20.92
350.819	20.89
351.029	21.58
351.239	21.31
351.449	20.82
351.66	20.48
351.87	20.48
352.08	19.57
352.29	19.01
352.501	20.41
352.711	20.36
352.921	20.03
353.131	18.94
353.341	19.51
353.552	20.09
353.762	19.94
353.972	19.82
354.182	18.85
354.392	19.08
354.602	19.27
354.812	19
355.022	18.94
355.232	19.53
355.442	20.65
355.652	20.45
355.862	20.11
356.072	20.56
356.282	20.69
356.492	21.75
356.702	21.71
356.912	21.69
357.122	21.64
357.332	21.79
357.542	21.69
357.752	20.99
357.962	21.13
358.171	21.47
358.381	21.93
358.591	22.1
358.801	21.48
359.011	22.08
359.221	22.19
359.43	22.5
359.64	22.21
359.85	21.98
360.06	22.06
360.269	22.39
360.479	22.13
360.689	21.68
360.899	21.43
361.108	21.64
361.318	21.26
361.528	21.02
361.737	21.16
361.947	20.59
362.156	20.57
362.366	20.69
362.576	20.11
362.785	20.57
362.995	21.16
363.204	21.03
363.414	20.89
363.623	21.05
363.833	21.46
364.042	20.67
364.252	21.4
364.461	21.22
364.671	21.32
364.88	21.56
365.09	20.99
365.299	19.91
365.509	20.07
365.718	19.64
365.927	18.85
366.137	18.82
366.346	19.45
366.555	19.49
366.765	19.14
366.974	18.73
367.183	17.86
367.393	18.05
367.602	18.5
367.811	18.95
368.021	19.25
368.23	19.6
368.439	19.21
368.648	19.32
368.857	19.13
369.067	18.95
369.276	18.63
369.485	18.46
369.694	18.15
369.903	18.01
370.112	18.09
370.321	17.88
370.531	17.89
370.74	17.77
370.949	17.4
371.158	17.43
371.367	17.4
371.576	18.15
371.785	18.65
371.994	18.37
372.203	18.53
372.412	17.92
372.621	18.1
372.83	17.39
373.039	17.32
373.248	17.33
373.457	16.59
373.666	16.9
373.874	16.29
374.083	16.41
374.292	16.47
374.501	16.15
374.71	15.31
374.919	15.53
375.128	16.89
375.336	17.07
375.545	17.03
375.754	17.45
375.963	17.78
376.171	17.86
376.38	17.67
376.589	17.92
376.798	17.79
377.006	18.11
377.215	17.77
377.424	17.01
377.632	17
377.841	16.66
378.05	16.5
378.258	16.03
378.467	15.95
378.675	16.54
378.884	15.86
379.093	15.94
379.301	16.03
379.51	15.92
379.718	15.44
379.927	15.31
380.135	15.91
380.344	16.19
380.552	15.89
380.761	15.6
380.969	15.05
381.177	15.77
381.386	15.95
381.594	16.54
381.803	16.91
382.011	16.97
382.219	16.73
382.428	16.07
382.636	15.86
382.845	16.18
383.053	16.47
383.261	16.73
383.469	16.24
383.678	15.78
383.886	15.51
384.094	15.04
384.302	15.33
384.511	15.27
384.719	15.57
384.927	15.3
385.135	15.08
385.343	14.67
385.552	14.23
385.76	14.11
385.968	14.14
386.176	13.88
386.384	14.15
386.592	14.13
386.8	13.92
387.008	13.66
387.216	13.98
387.424	13.81
387.633	14.14
387.841	14.19
388.049	14.42
388.257	14.21
388.465	13.8
388.672	13.41
388.88	13.25
389.088	13.63
389.296	13.21
389.504	12.63
389.712	12.9
389.92	12.65
390.128	12.51
390.336	12.06
390.544	12.04
390.751	12.16
390.959	11.88
391.167	11.84
391.375	11.45
391.583	11.79
391.79	11.85
391.998	11.63
392.206	11.69
392.414	11.36
392.621	11.15
392.829	11.22
393.037	11.63
393.244	11.73
393.452	11.26
393.66	11.56
393.867	11.45
394.075	11.62
394.283	11.81
394.49	11.58
394.698	11.73
394.905	11.83
395.113	11.55
395.32	11.2
395.528	11.05
395.735	11.49
395.943	11.32
396.15	11.23
396.358	11.21
396.565	11.1
396.773	11.42
396.98	11.3
397.188	11.51
397.395	11.71
397.602	11.35
397.81	11.48
398.017	11.32
398.225	11.08
398.432	10.95
398.639	10.7
398.847	10.41
399.054	10.33
399.261	10.36
399.468	10.22
399.676	10.1
399.883	10.23
400.09	10.4
400.297	10.23
400.505	10.15
400.712	10.16
400.919	10.1
401.126	10.06
401.333	10.13
401.54	10.42
401.748	10.44
401.955	10.23
402.162	10.15
402.369	9.93
402.576	10.1
402.783	10.4
402.99	10.49
403.197	10.66
403.404	10.68
403.611	10.44
403.818	10.2
404.025	10.09
404.232	10.14
404.439	10.35
404.646	10.39
404.853	10.35
405.06	10.16
405.267	10.28
405.474	10.01
405.681	9.99
405.887	9.68
406.094	9.57
406.301	9.56
406.508	9.62
406.715	9.48
406.922	9.36
407.128	9.69
407.335	9.84
407.542	9.72
407.749	9.85
407.955	9.79
408.162	10.44
408.369	10.45
408.575	10.73
408.782	10.84
408.989	10.81
409.195	11.12
409.402	10.99
409.609	10.95
409.815	11.06
410.022	11.05
410.228	11.09
410.435	10.66
410.642	10.76
410.848	10.53
411.055	10.14
411.261	10.29
411.468	9.89
411.674	9.83
411.881	9.59
412.087	9.14
412.294	9.47
412.5	9.78
412.706	10.06
412.913	9.81
413.119	9.88
413.326	10.04
413.532	10.16
413.738	10.22
413.945	10.23
414.151	10.13
414.357	10.45
414.564	10.13
414.77	9.69
414.976	9.7
415.182	9.98
415.389	9.99
415.595	10.16
415.801	9.89
416.007	10.11
416.214	9.85
416.42	10.09
416.626	9.96
416.832	9.98
417.038	10.31
417.244	10.43
417.45	10.49
417.657	10.17
417.863	10.12
418.069	9.99
418.275	9.68
418.481	9.85
418.687	9.74
418.893	9.81
419.099	9.87
419.305	9.79
419.511	9.53
419.717	9.4
419.923	9.55
420.129	9.55
420.335	9.54
420.541	9.72
420.746	9.6
420.952	9.75
421.158	9.74
421.364	9.54
421.57	9.48
421.776	9.5
421.982	9.38
422.187	9.3
422.393	9.4
422.599	9.49
422.805	9.46
423.01	9.64
423.216	9.56
423.422	9.55
423.628	9.72
423.833	9.7
424.039	9.8
424.245	9.99
424.45	10.1
424.656	10.15
424.862	10.12
425.067	10.12
425.273	9.97
425.478	9.94
425.684	10
425.889	9.89
426.095	10.04
426.301	9.91
426.506	9.95
426.712	9.95
426.917	9.9
427.123	9.84
427.328	10.03
427.533	10.09
427.739	10.04
427.944	10.09
428.15	10.12
428.355	9.75
428.561	9.72
428.766	9.62
428.971	9.49
429.177	9.43
429.382	9.45
429.587	9.18
429.793	9.17
429.998	9.31
430.203	9
430.408	9.19
430.614	9.27
430.819	9.39
431.024	9.4
431.229	9.59
431.434	9.37
431.64	9.57
431.845	9.56
432.05	9.45
432.255	9.26
432.46	9.37
432.665	9.11
432.87	9.3
433.076	9.14
433.281	9.16
433.486	9.14
433.691	9.06
433.896	8.99
434.101	9.11
434.306	9.06
434.511	9.22
434.716	9.18
434.921	9.31
435.126	9.18
435.331	9.29
435.535	9.29
435.74	9.13
435.945	9.39
436.15	9.32
436.355	9.22
436.56	9.27
436.765	9.26
436.97	9.39
437.174	9.42
437.379	9.48
437.584	9.38
437.789	9.52
437.993	9.64
438.198	9.52
438.403	9.59
438.608	9.7
438.812	9.77
439.017	9.71
439.222	9.75
439.426	9.7
439.631	9.66
439.836	9.81
440.04	9.79
440.245	9.89
440.45	9.8
440.654	9.77
440.859	9.74
441.063	9.83
441.268	9.73
441.472	9.74
441.677	9.93
441.881	10.06
442.086	10.12
442.29	9.97
442.495	10.13
442.699	10.2
442.904	10.43
443.108	10.29
443.312	10.12
443.517	10.38
443.721	10.25
443.925	10.07
444.13	10.02
444.334	9.81
444.538	9.89
444.743	9.54
444.947	9.63
445.151	9.5
445.356	9.8
445.56	9.92
445.764	9.94
445.968	10
446.173	10.05
446.377	9.87
446.581	9.91
446.785	9.76
446.989	9.78
447.193	9.8
447.398	9.78
447.602	9.7
447.806	9.63
448.01	9.44
448.214	9.57
448.418	9.36
448.622	9.35
448.826	9.28
449.03	9.37
449.234	9.41
449.438	9.32
449.642	9.3
449.846	9.05
450.05	8.98
450.254	9.13
450.458	8.77
450.662	8.88
450.866	9.1
451.069	9.34
451.273	9.27
451.477	9.31
451.681	9.3
451.885	9.41
452.089	9.39
452.292	9.53
452.496	9.33
452.7	9.44
452.904	9.54
453.107	9.5
453.311	9.41
453.515	9.52
453.719	9.47
453.922	9.46
454.126	9.18
454.33	9.15
454.533	9.06
454.737	9.14
454.94	9.04
455.144	8.81
455.348	8.84
455.551	8.79
455.755	8.71
455.958	8.69
456.162	8.58
456.365	8.65
456.569	8.83
456.772	9.02
456.976	9.16
457.179	9.27
457.383	9.35
457.586	9.24
457.79	9.25
457.993	9.36
458.196	9.32
458.4	9.52
458.603	9.47
458.807	9.49
459.01	9.39
459.213	9.31
459.417	9.36
459.62	9.37
459.823	9.34
460.026	9.29
460.23	9.16
460.433	9.27
460.636	9.3
460.839	9.4
461.042	9.36
461.246	9.3
461.449	9.27
461.652	9.27
461.855	9.33
462.058	9.32
462.261	9.27
462.464	9.42
462.668	9.41
462.871	9.26
463.074	9.25
463.277	9.42
463.48	9.32
463.683	9.26
463.886	9.06
464.089	8.83
464.292	8.94
464.495	9.11
464.698	8.99
464.901	8.97
465.104	9
465.306	8.92
465.509	8.69
465.712	8.78
465.915	8.95
466.118	8.93
466.321	9.09
466.524	9.14
466.726	9.14
466.929	9.22
467.132	9.22
467.335	9.16
467.538	9.39
467.74	9.3
467.943	9.38
468.146	9.37
468.348	9.71
468.551	9.8
468.754	9.91
468.956	9.94
469.159	9.89
469.362	9.81
469.564	9.83
469.767	9.7
469.969	9.88
470.172	9.93
470.375	9.93
470.577	9.78
470.78	9.63
470.982	9.72
471.185	9.61
471.387	9.69
471.59	9.77
471.792	9.71
471.995	9.72
472.197	9.66
472.399	9.36
472.602	9.32
472.804	9.23
473.007	9.12
473.209	9.02
473.411	8.88
473.614	8.83
473.816	8.79
474.018	8.94
474.22	8.96
474.423	8.97
474.625	9.23
474.827	9.23
475.03	9.2
475.232	9.23
475.434	9.28
475.636	9.52
475.838	9.53
476.04	9.57
476.243	9.3
476.445	9.24
476.647	9.17
476.849	9.19
477.051	9.12
477.253	9.19
477.455	9.2
477.657	9.13
477.859	9.06
478.061	8.99
478.263	9.04
478.465	9.22
478.667	9.38
478.869	9.53
479.071	9.44
479.273	9.39
479.475	9.38
479.677	9.52
479.879	9.52
480.081	9.47
480.283	9.52
480.485	9.35
480.686	9.42
480.888	9.4
481.09	9.26
481.292	9.3
481.494	9.31
481.695	9.28
481.897	9.3
482.099	9.25
482.301	9.33
482.502	9.33
482.704	9.45
482.906	9.52
483.107	9.5
483.309	9.6
483.511	9.64
483.712	9.65
483.914	9.68
484.115	9.64
484.317	9.68
484.519	9.64
484.72	9.64
484.922	9.59
485.123	9.57
485.325	9.52
485.526	9.46
485.728	9.37
485.929	9.4
486.131	9.34
486.332	9.34
486.534	9.3
486.735	9.28
486.936	9.36
487.138	9.41
487.339	9.36
487.541	9.45
487.742	9.5
487.943	9.51
488.144	9.5
488.346	9.52
488.547	9.55
488.748	9.57
488.95	9.64
489.151	9.52
489.352	9.48
489.553	9.5
489.755	9.37
489.956	9.29
490.157	9.37
490.358	9.4
490.559	9.45
490.76	9.37
490.961	9.41
491.163	9.52
491.364	9.56
491.565	9.58
491.766	9.62
491.967	9.62
492.168	9.73
492.369	9.72
492.57	9.65
492.771	9.61
492.972	9.67
493.173	9.67
493.374	9.56
493.575	9.55
493.776	9.57
493.976	9.55
494.177	9.53
494.378	9.48
494.579	9.52
494.78	9.69
494.981	9.76
495.182	9.77
495.382	9.7
495.583	9.65
495.784	9.73
495.985	9.69
496.185	9.63
496.386	9.82
496.587	9.82
496.788	9.72
496.988	9.6
497.189	9.71
497.39	9.81
497.59	9.84
497.791	9.9
497.992	9.93
498.192	9.96
498.393	10.11
498.593	10.04
498.794	9.83
498.994	9.94
499.195	9.93
499.395	9.79
499.596	9.68
499.796	9.79
499.997	9.8
500.197	9.78
500.398	9.8
500.598	9.68
500.799	9.74
500.999	9.93
501.199	9.84
501.4	9.93
501.6	10
501.801	10.13
502.001	10.17
502.201	10.25
502.402	10.29
502.602	10.39
502.802	10.33
503.002	10.39
503.203	10.58
503.403	10.62
503.603	10.63
503.803	10.74
504.003	10.75
504.204	10.68
504.404	10.82
504.604	10.89
504.804	10.8
505.004	10.96
505.204	10.93
505.404	10.78
505.604	10.76
505.804	10.98
506.005	10.87
506.205	10.96
506.405	10.94
506.605	10.83
506.805	10.85
507.005	10.95
507.204	11.03
507.404	11.03
507.604	11.09
507.804	11.25
508.004	11.09
508.204	11.2
508.404	11.12
508.604	11.27
508.804	11.34
509.003	11.54
509.203	11.62
509.403	11.84
509.603	11.92
509.803	12.01
510.002	11.95
510.202	12.2
510.402	12.24
510.602	12.32
510.801	12.32
511.001	12.43
511.201	12.32
511.4	12.22
511.6	12.06
511.8	12.23
511.999	12.29
512.199	12.37
512.398	12.2
512.598	12.32
512.797	12.43
512.997	12.44
513.197	12.52
513.396	12.57
513.596	12.76
513.795	12.92
513.994	12.73
514.194	12.75
514.393	12.96
514.593	13.17
514.792	13.18
514.992	13.31
515.191	13.38
515.39	13.34
515.59	13.57
515.789	13.63
515.988	13.67
516.188	13.94
516.387	14.26
516.586	14.29
516.786	14.33
516.985	14.5
517.184	14.61
517.383	14.73
517.582	14.82
517.782	14.85
517.981	14.91
518.18	15.04
518.379	15.13
518.578	15.11
518.777	15.11
518.976	15.16
519.176	15.15
519.375	15.27
519.574	15.45
519.773	15.52
519.972	15.53
520.171	15.67
520.37	15.67
520.569	15.79
520.768	15.73
520.967	15.88
521.166	16.07
521.365	16.3
521.564	16.27
521.762	16.19
521.961	16.28
522.16	16.57
522.359	16.71
522.558	16.82
522.757	16.76
522.956	17.03
523.154	17.23
523.353	17.13
523.552	17.19
523.751	17.36
523.949	17.62
524.148	17.73
524.347	17.81
524.546	17.87
524.744	17.98
524.943	18.14
525.142	18.1
525.34	18.17
525.539	18.33
525.737	18.46
525.936	18.53
526.135	18.64
526.333	18.71
526.532	18.8
526.73	18.92
526.929	19.01
527.127	19.14
527.326	19.29
527.524	19.43
527.723	19.59
527.921	19.61
528.12	19.71
528.318	19.77
528.516	19.89
528.715	19.95
528.913	20
529.112	20.05
529.31	20.12
529.508	20.22
529.707	20.28
529.905	20.28
530.103	20.37
530.301	20.34
530.5	20.39
530.698	20.37
530.896	20.45
531.094	20.52
531.293	20.55
531.491	20.61
531.689	20.72
531.887	20.78
532.085	20.91
532.283	20.97
532.481	21.23
532.68	21.33
532.878	21.52
533.076	21.67
533.274	21.81
533.472	21.94
533.67	22.05
533.868	22.02
534.066	22.06
534.264	22.17
534.462	22.26
534.66	22.24
534.858	22.29
535.056	22.37
535.253	22.32
535.451	22.33
535.649	22.45
535.847	22.37
536.045	22.49
536.243	22.5
536.441	22.53
536.638	22.66
536.836	22.79
537.034	22.81
537.232	22.74
537.43	22.8
537.627	22.83
537.825	22.86
538.023	22.97
538.22	23.09
538.418	23.17
538.616	23.23
538.813	23.17
539.011	23.15
539.209	23.39
539.406	23.58
539.604	23.83
539.801	23.96
539.999	24.06
540.196	24.26
540.394	24.4
540.591	24.54
540.789	24.62
540.986	24.79
541.184	24.83
541.381	24.83
541.579	24.86
541.776	24.84
541.974	24.85
542.171	24.88
542.368	24.97
542.566	24.97
542.763	25.05
542.96	25.13
543.158	25.19
543.355	25.34
543.552	25.4
543.75	25.44
543.947	25.46
544.144	25.51
544.341	25.59
544.539	25.62
544.736	25.7
544.933	25.74
545.13	25.65
545.327	25.63
545.524	25.71
545.722	25.62
545.919	25.69
546.116	25.83
546.313	25.87
546.51	25.89
546.707	25.84
546.904	25.89
547.101	26.02
547.298	26.26
547.495	26.21
547.692	26.24
547.889	26.38
548.086	26.6
548.283	26.53
548.48	26.61
548.677	26.61
548.874	26.75
549.07	26.82
549.267	26.82
549.464	26.87
549.661	27.01
549.858	26.97
550.055	27.1
550.251	26.99
550.448	27.02
550.645	27.29
550.842	27.38
551.038	27.37
551.235	27.3
551.432	27.22
551.628	27.27
551.825	27.43
552.022	27.57
552.218	27.69
552.415	27.75
552.612	27.88
552.808	27.83
553.005	28.1
553.201	28.26
553.398	28.44
553.594	28.57
553.791	28.62
553.987	28.56
554.184	28.48
554.38	28.52
554.577	28.59
554.773	28.78
554.97	28.77
555.166	28.82
555.362	28.71
555.559	28.81
555.755	28.76
555.952	28.81
556.148	28.83
556.344	29.12
556.541	29.2
556.737	29.15
556.933	29.04
557.129	29.09
557.326	29.08
557.522	29.35
557.718	29.42
557.914	29.69
558.11	29.89
558.307	30.21
558.503	30.16
558.699	30.28
558.895	30.4
559.091	30.52
559.287	30.77
559.483	30.86
559.679	30.72
559.876	30.87
560.072	30.9
560.268	30.78
560.464	30.87
560.66	31.1
560.856	30.95
561.052	31.12
561.247	31.07
561.443	31.03
561.639	31.01
561.835	31.05
562.031	31.1
562.227	31.07
562.423	31.09
562.619	31.08
562.815	30.93
563.01	31.06
563.206	31.08
563.402	31.25
563.598	31.33
563.793	31.35
563.989	31.46
564.185	31.16
564.381	31.28
564.576	31.35
564.772	31.31
564.968	31.27
565.163	31.31
565.359	31.44
565.555	31.58
565.75	31.69
565.946	31.82
566.141	31.86
566.337	32.02
566.532	32.02
566.728	32.24
566.923	32.15
567.119	32.28
567.314	32.26
567.51	32.2
567.705	32.1
567.901	31.87
568.096	31.8
568.292	31.82
568.487	31.94
568.682	31.98
568.878	31.93
569.073	32.18
569.268	32.3
569.464	32.13
569.659	32.27
569.854	32.5
570.05	32.72
570.245	32.71
570.44	32.81
570.635	32.75
570.831	32.76
571.026	32.57
571.221	32.66
571.416	32.62
571.611	32.93
571.806	32.91
572.002	32.96
572.197	33.04
572.392	33.04
572.587	33.05
572.782	33.06
572.977	33.15
573.172	33.33
573.367	33.11
573.562	33.03
573.757	33.01
573.952	32.89
574.147	32.78
574.342	32.79
574.537	32.83
574.732	32.8
574.927	32.77
575.121	32.66
575.316	32.61
575.511	32.93
575.706	33.03
575.901	33.19
576.096	33.32
576.29	33.35
576.485	33.31
576.68	33.36
576.875	33.49
577.069	33.48
577.264	33.61
577.459	33.65
577.654	33.66
577.848	33.67
578.043	33.66
578.238	33.68
578.432	33.46
578.627	33.64
578.821	33.84
579.016	33.74
579.21	33.94
579.405	33.98
579.6	33.9
579.794	33.62
579.989	33.75
580.183	33.61
580.378	33.56
580.572	33.9
580.766	33.81
580.961	33.68
581.155	33.66
581.35	33.65
581.544	33.57
581.738	33.65
581.933	33.83
582.127	33.91
582.321	33.96
582.516	33.68
582.71	33.48
582.904	33.5
583.099	33.61
583.293	33.8
583.487	33.94
583.681	34.11
583.875	33.92
584.07	33.84
584.264	33.76
584.458	33.83
584.652	34.03
584.846	34.26
585.04	34.15
585.234	34.2
585.428	34.27
585.623	34.54
585.817	34.37
586.011	34.51
586.205	34.64
586.399	34.74
586.593	34.47
586.787	34.82
586.981	34.96
587.174	35.12
587.368	34.88
587.562	34.59
587.756	34.29
587.95	34.52
588.144	34.69
588.338	34.69
588.532	34.49
588.725	34.79
588.919	34.81
589.113	34.87
589.307	34.81
589.501	35.04
589.694	35.26
589.888	35.35
590.082	35.2
590.275	35.12
590.469	34.85
590.663	34.85
590.856	34.91
591.05	34.97
591.244	34.96
591.437	35.01
591.631	34.94
591.824	35.18
592.018	34.97
592.212	34.95
592.405	35.14
592.599	35.38
592.792	35.33
592.986	35.18
593.179	35.45
593.372	35.28
593.566	35.33
593.759	35.35
593.953	35.19
594.146	35.18
594.339	35.35
594.533	35.18
594.726	35.16
594.92	35.26
595.113	35.3
595.306	34.93
595.499	34.99
595.693	34.98
595.886	34.97
596.079	34.92
596.272	34.93
596.466	34.79
596.659	35
596.852	35.13
597.045	35.41
597.238	35.54
597.431	35.73
597.624	35.67
597.818	35.9
598.011	35.89
598.204	35.88
598.397	36.15
598.59	36.36
598.783	36.34
598.976	36.42
599.169	36.48
599.362	36.42
599.555	36.18
599.748	36.52
599.941	36.17
600.134	36.11
600.326	35.99
600.519	35.7
600.712	35.42
600.905	35.51
601.098	35.23
601.291	34.83
601.483	34.74
601.676	34.53
601.869	34.24
602.062	34.34
602.255	34.42
602.447	34.68
602.64	34.84
602.833	35.07
603.025	35.01
603.218	35.15
603.411	35.38
603.603	35.49
603.796	35.78
603.989	35.98
604.181	36.05
604.374	36.26
604.566	36.29
604.759	36.28
604.951	36.4
605.144	36.29
605.336	36.21
605.529	36.26
605.721	36.34
605.914	36.46
606.106	36.4
606.299	36.24
606.491	36.18
606.683	35.99
606.876	35.92
607.068	35.74
607.26	35.89
607.453	35.98
607.645	35.77
607.837	35.47
608.03	35.29
608.222	35.2
608.414	35.42
608.606	35.71
608.799	35.78
608.991	36.03
609.183	36.14
609.375	36.21
609.567	36.29
609.759	36.31
609.952	36.52
610.144	36.56
610.336	36.79
610.528	36.63
610.72	36.32
610.912	36.48
611.104	36.36
611.296	36.25
611.488	36.18
611.68	35.9
611.872	35.85
612.064	35.65
612.256	35.49
612.448	35.12
612.64	35.01
612.832	35.03
613.023	34.94
613.215	34.65
613.407	34.52
613.599	34.38
613.791	34.69
613.983	34.84
614.174	35.21
614.366	35.53
614.558	35.64
614.75	36.08
614.941	36.13
615.133	36.19
615.325	36.51
615.516	36.86
615.708	37
615.9	37.08
616.091	37.27
616.283	36.92
616.475	36.7
616.666	36.6
616.858	36.42
617.049	36.18
617.241	36.16
617.432	36.02
617.624	35.68
617.815	35.34
618.007	35.21
618.198	35.1
618.39	35.09
618.581	35.03
618.773	35.03
618.964	34.92
619.155	35.57
619.347	35.44
619.538	35.48
619.729	35.92
619.921	36.18
620.112	36.05
620.303	35.92
620.494	35.95
620.686	36.12
620.877	36.41
621.068	36.83
621.259	36.46
621.451	36.78
621.642	36.79
621.833	36.58
622.024	36.64
622.215	36.77
622.406	36.92
622.597	37.2
622.788	37.16
622.98	37.04
623.171	36.84
623.362	36.65
623.553	36.33
623.744	36.58
623.935	36.39
624.126	36.65
624.317	36.59
624.508	36.69
624.698	36.66
624.889	36.46
625.08	36.46
625.271	36.64
625.462	36.57
625.653	36.76
625.844	36.65
626.034	36.91
626.225	36.93
626.416	36.93
626.607	37.06
626.798	37.06
626.988	37.35
627.179	37.33
627.37	37.26
627.56	37.5
627.751	37.37
627.942	37.38
628.132	37.18
628.323	37.19
628.514	37.35
628.704	37.16
628.895	36.79
629.085	36.72
629.276	36.87
629.466	37.06
629.657	36.84
629.847	36.89
630.038	36.7
630.228	36.93
630.419	36.87
630.609	36.97
630.8	37.04
630.99	37.21
631.181	37.24
631.371	36.93
631.561	36.91
631.752	37.13
631.942	37.09
632.132	37.33
632.323	37.09
632.513	37.06
632.703	36.89
632.893	36.59
633.084	36.78
633.274	36.52
633.464	36.81
633.654	36.57
633.844	36.42
634.034	36.39
634.225	36.13
634.415	35.97
634.605	35.87
634.795	35.89
634.985	36.08
635.175	36.26
635.365	36.4
635.555	36.44
635.745	36.11
635.935	36.08
636.125	36.17
636.315	36.2
636.505	36.43
636.695	36.51
636.885	36.48
637.075	36.52
637.265	36.46
637.455	36.66
637.644	36.6
637.834	36.85
638.024	37.03
638.214	37.04
638.404	37.31
638.593	37.4
638.783	37.37
638.973	37.62
639.163	37.21
639.352	37.11
639.542	36.88
639.732	36.68
639.921	36.78
640.111	36.67
640.301	36.69
640.49	36.78
640.68	36.9
640.87	36.99
641.059	36.75
641.249	37.26
641.438	37.19
641.628	37.38
641.817	37.7
642.007	37.72
642.196	38.11
642.386	38.38
642.575	38.04
642.764	38.08
642.954	37.96
643.143	37.94
643.333	38.09
643.522	37.85
643.711	38.06
643.901	37.72
644.09	37.58
644.279	37.32
644.469	37.23
644.658	37.46
644.847	37.66
645.036	37.37
645.226	37.05
645.415	37.1
645.604	37.26
645.793	36.9
645.982	36.77
646.171	36.78
646.361	36.56
646.55	36.48
646.739	36.36
646.928	36.1
647.117	36.43
647.306	36.88
647.495	36.61
647.684	36.52
647.873	36.48
648.062	36.66
648.251	36.49
648.44	36.42
648.629	36.7
648.818	36.66
649.007	36.73
649.196	36.79
649.384	36.66
649.573	37.02
649.762	37.41
649.951	37.88
650.14	37.83
650.328	38.01
650.517	37.95
650.706	37.55
650.895	37.33
651.083	37.05
651.272	37.02
651.461	37.07
651.65	36.53
651.838	36.61
652.027	36.36
652.216	36.42
652.404	36.97
652.593	37.64
652.781	37.68
652.97	37.82
653.158	37.91
653.347	37.9
653.535	38.04
653.724	38.28
653.912	37.92
654.101	38.21
654.289	38.26
654.478	37.94
654.666	37.84
654.855	37.7
655.043	38.1
655.231	38.13
655.42	37.95
655.608	37.99
655.796	38.1
655.985	38.37
656.173	37.61
656.361	37.66
656.55	37.66
656.738	37.46
656.926	37.83
657.114	37.64
657.302	37.69
657.491	37.53
657.679	37.5
657.867	37.87
658.055	38.07
658.243	38.24
658.431	38.02
658.619	37.95
658.807	37.99
658.996	37.74
659.184	37.7
659.372	37.79
659.56	38.15
659.748	38.22
659.936	37.79
660.124	37.65
660.311	37.85
660.499	38.12
660.687	38.21
660.875	38.14
661.063	38.11
661.251	38.4
661.439	38.12
661.627	38.16
661.814	38.17
662.002	38.56
662.19	38.25
662.378	38.37
662.565	38.23
662.753	38.15
662.941	38.11
663.129	38.25
663.316	38.54
663.504	38.71
663.692	38.52
663.879	38.49
664.067	38.32
664.254	38.45
664.442	38.54
664.63	38.91
664.817	38.94
665.005	38.96
665.192	38.86
665.38	38.25
665.567	38.63
665.755	38.3
665.942	38.21
666.13	37.99
666.317	37.82
666.504	37.16
666.692	36.69
666.879	37.09
667.067	37.21
667.254	37.23
667.441	37.59
667.629	37.47
667.816	37.98
668.003	38.04
668.19	38.16
668.378	38.65
668.565	39.29
668.752	39.65
668.939	39.18
669.127	39.05
669.314	38.59
669.501	38.21
669.688	37.65
669.875	37.4
670.062	37.35
670.249	37.26
670.436	37
670.623	36.46
670.81	36.48
670.997	36.89
671.184	36.65
671.371	37.18
671.558	36.99
671.745	37.51
671.932	37.82
672.119	37.64
672.306	37.06
672.493	37.34
672.68	37.99
672.867	37.42
673.054	36.76
673.24	37.28
673.427	37.05
673.614	37.26
673.801	37.11
673.988	37.15
674.174	37.25
674.361	37.91
674.548	37.41
674.734	37.51
674.921	37.79
675.108	37.71
675.294	37.58
675.481	37.94
675.668	37.79
675.854	37.64
676.041	37.43
676.227	37.49
676.414	36.96
676.601	36.97
676.787	36.43
676.974	36.23
677.16	36.48
677.347	36.45
677.533	36.6
677.719	36.83
677.906	36.62
678.092	37.05
678.279	37.17
678.465	37.24
678.651	36.89
678.838	37.07
679.024	37.52
679.21	37.7
679.397	37.77
679.583	37.58
679.769	37.63
679.955	37.97
680.142	37.79
680.328	37.64
680.514	38.14
680.7	38.61
680.886	38.67
681.073	38.61
681.259	38.4
681.445	38.15
681.631	38.12
681.817	38.37
682.003	38.14
682.189	37.83
682.375	37.63
682.561	37.64
682.747	37.5
682.933	37.26
683.119	37.41
683.305	37.37
683.491	37.33
683.677	37.45
683.863	37.41
684.049	37.6
684.235	38.16
684.42	38.26
684.606	37.7
684.792	37.67
684.978	37.8
685.164	37.29
685.349	37.28
685.535	37.28
685.721	37.47
685.907	37.11
686.092	37.89
686.278	37.38
686.464	37.92
686.649	37.76
686.835	38.26
687.021	38.49
687.206	38.89
687.392	39.28
687.577	39.66
687.763	39.5
687.948	39.49
688.134	39.22
688.319	39.01
688.505	38.58
688.69	39.58
688.876	39.25
689.061	39.78
689.247	39.35
689.432	39.37
689.618	39.14
689.803	39.39
689.988	39.52
690.174	39.02
690.359	39.04
690.544	39.18
690.73	38.31
690.915	38.06
691.1	37.09
691.285	37.16
691.471	37
691.656	37.46
691.841	37.63
692.026	37.29
692.211	37.18
692.396	37.64
692.582	37.51
692.767	37.93
692.952	38.23
693.137	38.4
693.322	38.48
693.507	38.4
693.692	38.14
693.877	37.33
694.062	37.65
694.247	38.51
694.432	38.3
694.617	38.21
694.802	38.34
694.987	38.14
695.172	38.22
695.357	38.69
695.541	39.19
695.726	39.23
695.911	39.08
696.096	39.44
696.281	38.69
696.466	38.71
696.65	39.14
696.835	38.65
697.02	38.65
697.204	38.59
697.389	38.05
697.574	37.46
697.759	37.54
697.943	38
698.128	38.04
698.312	38.22
698.497	38.38
698.682	37.85
698.866	37.74
699.051	37.77
699.235	37.67
699.42	37.95
699.604	38.22
699.789	38.3
699.973	37.88
700.158	37.69
700.342	37.54
700.527	37.38
700.711	37.76
700.895	37.79
701.08	38.02
701.264	38.26
701.448	38.43
701.633	38.23
701.817	37.45
702.001	38.15
702.186	37.76
702.37	37.85
702.554	37.58
702.738	38
702.923	38.52
703.107	38.34
703.291	37.89
703.475	37.53
703.659	37.1
703.843	37.83
704.027	38.13
704.212	37.72
704.396	37.51
704.58	37.53
704.764	37.15
704.948	37.01
705.132	37.53
705.316	38.29
705.5	38.54
705.684	39.15
705.868	39.15
706.052	38.31
706.235	38.86
706.419	38.69
706.603	39.43
706.787	39.35
706.971	39.49
707.155	39.02
707.339	38.77
707.522	38.99
707.706	38.89
707.89	38.09
708.074	38.38
708.257	39.03
708.441	39.32
708.625	38.16
708.808	38.52
708.992	38.64
709.176	38.88
709.359	38.82
709.543	38.67
709.727	38.38
709.91	38.75
710.094	38.75
710.277	38.67
710.461	38.38
710.644	39.27
710.828	39.8
711.011	39.36
711.195	39.06
711.378	38.95
711.562	38.56
711.745	38.89
711.928	39.56
712.112	39.76
712.295	39.24
712.478	39.68
712.662	39.7
712.845	38.37
713.028	38.45
713.212	38.65
713.395	38.01
713.578	37.98
713.761	37.45
713.945	37.22
714.128	36.56
714.311	37.44
714.494	37.63
714.677	37.2
714.86	38.21
715.043	38.11
715.227	37.73
715.41	38.14
715.593	37.98
715.776	38.4
715.959	38.7
716.142	38.74
716.325	38.05
716.508	37.48
716.691	37.34
716.874	37.12
717.057	36.94
717.239	37.35
717.422	37.47
717.605	38.29
717.788	38.2
717.971	36.89
718.154	36.86
718.337	36.9
718.519	37.31
718.702	37.76
718.885	37.4
719.068	38.2
719.25	37.43
719.433	37.63
719.616	37
719.798	36.87
719.981	37.08
720.164	37.19
720.346	37.29
720.529	36.83
720.712	36.74
720.894	36.58
721.077	36.31
721.259	36.44
721.442	36.14
721.624	36.03
721.807	36.43
721.989	37.22
722.172	37.5
722.354	37.48
722.537	36.81
722.719	37.51
722.901	37.81
723.084	38.2
723.266	38.35
723.448	38.33
723.631	39.55
723.813	39.7
723.995	39.16
724.178	39.18
724.36	39.22
724.542	40.2
724.724	39.33
724.907	39.42
725.089	39.2
725.271	39.84
725.453	39.01
725.635	37.43
725.817	36.15
725.999	36.81
726.181	36.91
726.364	36.09
726.546	36.99
726.728	36.17
726.91	35.58
727.092	34.58
727.274	33.96
727.456	35.29
727.638	36.29
727.819	37.15
728.001	37.32
728.183	37.48
728.365	38.25
728.547	37.36
728.729	37.62
728.911	37.92
729.093	38.76
729.274	38.66
729.456	37.71
729.638	37.21
729.82	37.85
730.001	37.56
730.183	38.31
730.365	37.63
730.546	37.69
730.728	37.96
730.91	38.59
731.091	37.51
731.273	38.08
731.455	37.99
731.636	38.48
731.818	37.76
731.999	37.97
732.181	37.05
732.362	37.77
732.544	37.6
732.725	37.33
732.907	36.72
733.088	37
733.27	37.25
733.451	37.69
733.633	37.06
733.814	37.14
733.995	36.8
734.177	36.41
734.358	36.67
734.539	36.86
734.721	37.24
734.902	36.7
735.083	37.15
735.264	36.72
735.446	37.39
735.627	36.91
735.808	37.22
735.989	35.56
736.17	35.82
736.351	34.78
736.533	34.11
736.714	34.25
736.895	34.38
737.076	34.14
737.257	34.47
737.438	34.08
737.619	34.12
737.8	34.72
737.981	36.28
738.162	36.36
738.343	36.7
738.524	38.37
738.705	38
738.886	38.16
739.067	37.8
739.247	37.57
739.428	36.77
739.609	37.33
739.79	37.04
739.971	36.72
740.151	36.31
740.332	36
740.513	35.14
740.694	35.69
740.874	36.24
741.055	36.6
741.236	36.51
741.417	37.27
741.597	37.4
741.778	36.72
741.958	37.32
742.139	37.64
742.32	37.97
742.5	37.83
742.681	37.36
742.861	36.34
743.042	35.12
743.222	36.46
743.403	35.15
743.583	35.61
743.764	35.68
743.944	34.7
744.124	34
744.305	35.11
744.485	35.28
744.666	34.37
744.846	34.65
745.026	35.94
745.207	34.9
745.387	36.02
745.567	35.31
745.747	35.14
745.928	36.1
746.108	37.27
746.288	36.68
746.468	37.15
746.648	38.77
746.829	38.87
747.009	39.84
747.189	38.73
747.369	38.83
747.549	39.64
747.729	39.4
747.909	40.02
748.089	39.05
748.269	37.96
748.449	37.95
748.629	37.52
748.809	37.68
748.989	37.53
749.169	38.46
749.349	38.19
749.529	38.03
749.709	38.47
749.889	37.98
750.068	39.07
750.248	39.54
750.428	38.49
750.608	38.79
750.788	39.92
750.967	39.4
751.147	38.65
751.327	40.13
751.507	39.93
751.686	40.07
751.866	39.44
752.046	37.88
752.225	38.46
752.405	39.62
752.585	39.78
752.764	38.9
752.944	38.22
753.123	39.27
753.303	37.34
753.482	36.58
753.662	36.98
753.841	37.46
754.021	38.61
754.2	38.05
754.38	37.46
754.559	37.72
754.739	36.86
754.918	37.51
755.097	36.21
755.277	36.88
755.456	37.19
755.635	36.22
755.815	35.26
755.994	35.03
756.173	34.44
756.352	34.61
756.532	34.04
756.711	35.3
756.89	35.16
757.069	35.54
757.248	35.46
757.427	35.87
757.607	35.42
757.786	37.14
757.965	37.5
758.144	38.59
758.323	37.43
758.502	38.74
758.681	38.06
758.86	39.95
759.039	39.7
759.218	39.34
759.397	38.87
759.576	39.98
759.755	38.4
759.934	37.45
760.113	37.33
760.291	38.38
760.47	36.77
760.649	36.25
760.828	33.86
761.007	34.06
761.186	34.54
761.364	36.23
761.543	37.41
761.722	38.08
761.901	38.73
762.079	38.38
762.258	37.24
762.437	37.35
762.615	37.86
762.794	37.94
762.972	38.03
763.151	37.85
763.33	37.26
763.508	36.15
763.687	36.47
763.865	36.53
764.044	36.35
764.222	36.56
764.401	36.71
764.579	37.54
764.758	37.58
764.936	38.01
765.114	38.57
765.293	38.35
765.471	39.15
765.65	38.19
765.828	38.43
766.006	38.92
766.184	39.7
766.363	39.66
766.541	39.61
766.719	40.4
766.898	40.53
767.076	39.5
767.254	38.8
767.432	37.52
767.61	38.77
767.788	37.7
767.967	38.01
768.145	37.36
768.323	37.03
768.501	36.93
768.679	35.75
768.857	35.43
769.035	35.71
769.213	36.95
769.391	37.62
769.569	36.25
769.747	36.85
769.925	35.77
770.103	35.98
770.281	35.19
770.459	32.27
770.636	32.81
770.814	33.88
770.992	34.32
771.17	32.11
771.348	31.84
771.525	32.66
771.703	31.88
771.881	32.53
772.059	32.22
772.236	34.05
772.414	34.41
772.592	34.79
772.769	32.55
772.947	33.65
773.125	35.48
773.302	35.42
773.48	34.69
773.657	35.92
773.835	36.58
774.013	36.1
774.19	36.42
774.368	36.14
774.545	35.43
774.723	34.58
774.9	33.9
775.077	32.8
775.255	32.96
775.432	31.66
775.61	31.99
775.787	28.81
775.964	30.57
776.142	30.55
776.319	33.78
776.496	32.91
776.674	34.07
776.851	33.3
777.028	32.23
777.205	33.06
777.382	34.76
777.56	33.25
777.737	33.9
777.914	33.61
778.091	31.58
778.268	29.21
778.445	30.38
778.622	31.1
778.8	32.23
778.977	35.45
779.154	27.79
779.331	28.53
779.508	30.18
779.685	31.17
779.862	29.73
780.038	31.11
780.215	30.36
780.392	31.36
780.569	29.43
780.746	29.13
780.923	26.95
781.1	34.65
781.277	35.91
781.453	36.64
781.63	37.29
781.807	39
781.984	39.79
782.16	40.1
782.337	39.04
782.514	39.91
782.691	39.27
782.867	37.42
783.044	36.25
783.221	34.15
783.397	32.2
783.574	29.61
783.75	27.74
783.927	27.76
784.103	30.09
784.28	29.33
784.456	29.34
784.633	29.42
784.809	32.4
784.986	35.14
785.162	34.87
785.339	35.68
785.515	36.31
785.692	39.03
785.868	37.22
786.044	37.79
786.221	38.01
786.397	38.43
786.573	37.36
786.749	36.38
786.926	34.21
787.102	34.24
787.278	35.33
787.454	37.3
787.631	34.07
787.807	32.18
787.983	31.38
788.159	32.71
788.335	31.34
788.511	30.71
788.687	31.06
788.863	32.16
789.039	33.57
789.216	30.84
789.392	30.73
789.568	30.57
789.744	32.26
789.919	31.41
790.095	30.66
790.271	32.44
790.447	32.79
790.623	34.26
790.799	34.87
790.975	32.41
791.151	35.26
791.327	36.1
791.502	35.51
791.678	36.38
791.854	36.39
792.03	35.1
792.205	36.27
792.381	34.88
792.557	35.69
792.733	34.76
792.908	36.51
793.084	35.5
793.259	34.15
793.435	36.06
793.611	35.65
793.786	32.4
793.962	33.62
794.137	34.37
794.313	36.9
794.488	34.32
794.664	33.64
794.839	31.48
795.015	31.48
795.19	31.73
795.366	31.16
795.541	31.9
795.716	35.49
795.892	34.89
796.067	32.88
796.242	34.04
796.418	32.17
796.593	32.26
796.768	32.61
796.944	31.14
797.119	31.94
797.294	30.37
797.469	29.94
797.644	28.87
797.82	29.8
797.995	29.13
798.17	25.99
798.345	28.55
798.52	27.3
798.695	28.22
798.87	28.69
799.045	26.91
799.22	32.16
799.395	33.39
799.57	36.83
799.745	35.26
799.92	37.1
800.095	36.69
800.27	36.43
800.445	37.8
800.62	38.2
800.795	37.48
800.97	38.24
801.145	37.29
801.319	36.83
801.494	34.35
801.669	36.38
801.844	36.24
802.018	40.61
802.193	43.21
802.368	41.52
802.543	39.46
802.717	41.59
802.892	42.97
803.067	42.89
803.241	44.82
803.416	46.69
803.59	47.18
803.765	47.45
803.94	45.02
804.114	39.85
804.289	41.13
804.463	40.44
804.638	38.25
804.812	34.65
804.986	35.67
805.161	35.01
805.335	34.11
805.51	33.44
805.684	31.5
805.858	33.2
806.033	35.74
806.207	33.73
806.381	36.76
806.556	38
806.73	41.72
806.904	41.18
807.078	36.7
807.253	38.17
807.427	38.67
807.601	39.23
807.775	38.37
807.949	38.81
808.123	38.88
808.298	39.29
808.472	41.72
808.646	38.32
808.82	38.6
808.994	39.27
809.168	36.41
809.342	32.92
809.516	34.09
809.69	36.65
809.864	32.12
810.038	33.86
810.212	30.97
810.385	27.67
810.559	29.63
810.733	22.67
810.907	22.31
811.081	22.86
811.255	23.96
811.428	20.82
811.602	19.15
811.776	23.56
811.95	24.18
812.123	26.66
812.297	28.45
812.471	30.54
812.644	30.93
812.818	31.57
812.992	25.9
813.165	25.87
813.339	29.8
813.512	27.56
813.686	27.52
813.86	26.37
814.033	25.87
814.207	22.68
814.38	20.93
814.554	29.09
814.727	30.47
814.9	30.89
815.074	31.35
815.247	28.05
815.421	30.32
815.594	25.73
815.767	25.8
815.941	22.43
816.114	23.76
816.287	24.67
816.46	18.72
816.634	18.74
816.807	19.93
816.98	19.35
817.153	20.77
817.327	17.71
817.5	20.24
817.673	20.46
817.846	23.32
818.019	27.51
818.192	25.2
818.365	29.87
818.538	30.63
818.711	31.53
818.884	31.53
819.057	28.3
819.23	29.66
819.403	33.19
819.576	30.58
819.749	30.02
819.922	30.2
820.095	33.58
820.268	29.25
820.441	29.05
820.614	33.16
820.786	35.24
820.959	37.82
821.132	37.7
821.305	37.31
821.477	38.92
821.65	38.78
821.823	37.46
821.996	37.56
822.168	38.94
822.341	39.09
822.514	39
822.686	38.84
822.859	38.61
823.031	38.38
823.204	37.97
823.376	37.71
823.549	38.31
823.722	38.46
823.894	37.88
824.067	38.17
824.239	37.79
824.411	37.77
824.584	37.36
824.756	37.19
824.929	37.65
825.101	38.04
825.273	38.27
825.446	37.5
825.618	37.68
825.79	37.62
825.963	35.76
826.135	35.73
826.307	34.8
826.479	34.74
826.652	35.56
826.824	35.31
826.996	34.9
827.168	34.15
827.34	34.15
827.512	33.58
827.684	33.08
827.856	34.08
828.029	35.57
828.201	35.99
828.373	35.93
828.545	34.6
828.717	34.06
828.889	33.81
829.061	34.31
829.232	33.31
829.404	33.2
829.576	33.44
829.748	33.43
829.92	30.98
830.092	30.54
830.264	28.98
830.436	29.51
830.607	27.88
830.779	26.48
830.951	27.35
831.123	28.55
831.294	29.2
831.466	27.29
831.638	26.69
831.809	27.4
831.981	27.38
832.153	28.49
832.324	26.82
832.496	28.16
832.667	28.67
832.839	28.39
833.011	31.46
833.182	30.42
833.354	32.59
833.525	34.97
833.697	34.7
833.868	34.86
834.039	36.76
834.211	38.1
834.382	38.86
834.554	42.77
834.725	42.04
834.896	39.9
835.068	41.82
835.239	41.94
835.41	40.82
835.581	42.15
835.753	41.13
835.924	38.73
836.095	39.66
836.266	40.42
836.438	37.43
836.609	35.59
836.78	35.8
836.951	34.95
837.122	35.37
837.293	35.19
837.464	32.85
837.635	30.67
837.806	30.85
837.977	26.02
838.148	22.02
838.319	17.77
838.49	20.84
838.661	22.31
838.832	17.73
839.003	17.07
839.174	11.13
839.345	8.11
839.516	7.92
839.687	5.6
839.857	12.1
840.028	18.81
840.199	20.33
840.37	19.23
840.54	26.2
840.711	30.35
840.882	27.81
841.053	30.64
841.223	28.95
841.394	39.14
841.564	40.17
841.735	36.44
841.906	32.72
842.076	37.11
842.247	33.99
842.417	19.91
842.588	18.4
842.758	14.98
842.929	9.46
843.099	10.14
843.27	-5.99
843.44	-4.73
843.611	-2.25
843.781	-8.55
843.951	-8.97
844.122	-3.4
844.292	-3.11
844.462	-0.95
844.633	13.02
844.803	25.95
844.973	26.21
845.144	25.9
845.314	31.16
845.484	28.77
845.654	41.36
845.824	28.94
845.995	20.09
846.165	29.05
846.335	19.46
846.505	-11.16
846.675	-29.77
846.845	-40.47
847.015	-37.84
847.185	-41.11
847.355	-46.7
847.525	-38.37
847.695	-31.96
847.865	-41.13
848.035	-49.85
848.205	-48.47
848.375	-21.67
848.545	-24.23
848.715	-16.2
848.884	-28.74
849.054	-43.62
849.224	-52.59
849.394	-69.21
849.564	-67.61
849.733	-33.13
849.903	-40.48
850.073	-35.34
850.243	-34.94
850.412	-27.77
850.582	-38.21
850.752	-24.03
850.921	-10.6
851.091	0.49
851.26	-5.51
851.43	-5.2
851.599	-41.23
851.769	-39.13
851.939	-44.05
852.108	-94.59
852.278	-95.2
852.447	-92.15
852.616	-69.55
852.786	-84.87
852.955	-79.17
853.125	-85.2
853.294	-81.49
853.463	-58.01
853.633	-82.55
853.802	-111.64
853.971	-82.83
854.141	-81.99
854.31	-93.95
854.479	-163.54
854.648	-149.48
854.818	-117.74
854.987	-106.54
855.156	-99.39
855.325	-83.51
855.494	-103.16
855.663	-77.74
855.832	-133.92
856.001	-120.81
856.171	-74.26
856.34	-53.2
856.509	-56.46
856.678	-90.5
856.847	-55.19
857.016	-51.36
857.185	-29.74
857.353	8.38
857.522	18.26
857.691	41.56
857.86	41.77
858.029	34.36
858.198	29.38
858.367	18.61
858.535	9.65
858.704	2.5
858.873	22.51
859.042	20.77
859.21	3.06
859.379	-15.48
859.548	-43.46
859.717	-53.62
859.885	-48.86
860.054	-38.82
860.222	-31.49
860.391	-9.31
860.56	5.33
860.728	0.23
860.897	9.66
861.065	15.99
861.234	17.18
861.402	18.67
861.571	25.76
861.739	25.37
861.908	22.94
862.076	21.4
862.244	27
862.413	12.06
862.581	5.48
862.749	-73.1
862.918	-114
863.086	-131.23
863.254	-142.93
863.423	-317.26
863.591	-192.42
863.759	-242.47
863.927	-268.02
864.096	-1708.59
864.264	542.83
864.432	994.52
864.6	-1247.84
864.768	-314.57
864.936	-39.24
865.104	48.25
865.272	59.73
865.44	67.3
865.608	54.21
865.776	10.46
865.944	25.16
866.112	29.45
866.28	28.62
866.448	25.75
866.616	22.2
866.784	4.99
866.952	-15.73
867.12	-11.27
867.288	-7.66
867.455	-3.18
867.623	14.98
867.791	6.76
867.959	27.19
868.127	19.9
868.294	28.87
868.462	16.65
868.63	6.71
868.797	-25.15
868.965	-142.65
869.133	-54.91
869.3	-95.71
869.468	-66.22
869.636	-6.65
869.803	-45.55
869.971	-18.36
870.138	-30.09
870.306	-32.99
870.473	-39.18
870.641	-18.68
870.808	5.37
870.975	-31.69
871.143	-15.93
871.31	-49.72
871.478	-170.47
871.645	-51.14
871.812	-75.93
871.98	-109.73
872.147	-163.31
872.314	-90.9
872.482	-151.49
872.649	-284.81
872.816	-141.47
872.983	-374.99
873.15	-122
873.318	-103.86
873.485	-190.11
873.652	-177.92
873.819	-63.37
873.986	-18.89
874.153	-28
874.32	-10.74
874.487	18.9
874.654	4.82
874.821	23.95
874.988	21.51
875.155	32.55
875.322	23.61
875.489	27.67
875.656	29.1
875.823	10.98
875.99	14.85
876.157	14.01
876.324	9.77
876.49	24.57
876.657	19.46
876.824	19.7
876.991	2.3
877.157	2.82
877.324	6.04
877.491	-2.85
877.658	-5.34
877.824	-19.27
877.991	-10.38
878.157	-14.94
878.324	-36.14
878.491	-29.6
878.657	-25.57
878.824	-18.38
878.99	-9.68
879.157	-42.19
879.323	-39.57
879.49	9.61
879.656	19.51
879.823	9.04
879.989	26.3
880.156	20.54
880.322	40.17
880.488	48.41
880.655	57.81
880.821	41.86
880.987	49.29
881.154	58.12
881.32	35.5
881.486	42.1
881.652	44.52
881.819	36.94
881.985	39.77
882.151	32.54
882.317	26.52
882.483	26.15
882.649	30.68
882.816	28.87
882.982	31.34
883.148	31.43
883.314	30.25
883.48	30.65
883.646	31.15
883.812	31.87
883.978	33.47
884.144	33.34
884.31	34.2
884.476	33.31
884.642	35.37
884.807	35.56
884.973	36.43
885.139	37.7
885.305	38.66
885.471	40.68
885.637	41.15
885.802	41.12
885.968	41.15
886.134	40.9
886.3	44.54
886.465	42.08
886.631	43.02
886.797	45.31
886.962	41.55
887.128	38.24
887.293	30.03
887.459	24.29
887.625	19.7
887.79	22.51
887.956	26.2
888.121	14.61
888.287	16.55
888.452	3.44
888.618	-21.4
888.783	-22.69
