Data from CB_100_Reflection_2.txt Node
Date: Sat Nov 14 17:45:14 EST 2015
User: robert
Spectrometer: USB4E03001
Autoset integration time: false
Trigger mode: 4
Integration Time (sec): 1.000000E-1
Scans to average: 15
Electric dark correction enabled: true
Nonlinearity correction enabled: false
Boxcar width: 5
Stray light correction enabled: false
XAxis mode: Wavelengths
Stop averaging: false
Number of Pixels in Spectrum: 3648
>>>>>Begin Spectral Data<<<<<
177.566	177.15
177.785	-1158.62
178.005	435.89
178.225	670.61
178.445	-1703.16
178.665	153.23
178.885	-1362.89
179.105	197.71
179.324	276.2
179.544	107.74
179.764	92.2
179.984	79.98
180.204	81.46
180.423	67.19
180.643	129.97
180.863	163.96
181.083	99.57
181.302	115.89
181.522	174.59
181.742	157.77
181.961	240.2
182.181	341.18
182.401	854.76
182.621	577.27
182.84	887.26
183.06	374.82
183.279	274.93
183.499	500
183.719	427.55
183.938	217.2
184.158	182.09
184.377	167.78
184.597	173.05
184.816	122.27
185.036	125.12
185.256	129.16
185.475	123.43
185.695	107.18
185.914	99.75
186.134	110.53
186.353	113.2
186.572	119.39
186.792	112.51
187.011	109.7
187.231	126.29
187.45	120.81
187.67	115.58
187.889	106.14
188.108	120.15
188.328	128.07
188.547	110.51
188.766	95.26
188.986	82.62
189.205	80.4
189.424	83.48
189.644	83.89
189.863	98.05
190.082	80.35
190.302	76.52
190.521	51.92
190.74	51.33
190.959	49.14
191.178	60.03
191.398	71.4
191.617	91.73
191.836	90.55
192.055	70.58
192.274	19.4
192.494	68.79
192.713	137.03
192.932	164.77
193.151	263.4
193.37	209.26
193.589	207.7
193.808	351.98
194.027	505.91
194.246	-1156.54
194.465	1638.56
194.685	203.23
194.904	223.56
195.123	117.44
195.342	140.62
195.561	97.26
195.78	82.39
195.999	94.35
196.218	69.84
196.436	84.37
196.655	103.55
196.874	122.59
197.093	118.5
197.312	106.99
197.531	114.74
197.75	126.5
197.969	148.86
198.188	164.1
198.407	149.36
198.625	188.48
198.844	190.88
199.063	149.52
199.282	162.75
199.501	244.83
199.719	222.73
199.938	197.31
200.157	149.95
200.376	129.81
200.594	125.24
200.813	135.41
201.032	95.22
201.251	92.76
201.469	104.33
201.688	83.06
201.907	77.31
202.125	74.12
202.344	112.45
202.563	134.84
202.781	131.47
203	170.23
203.218	193.53
203.437	192.86
203.656	209.15
203.874	183.13
204.093	245.88
204.311	214.17
204.53	231.73
204.748	170.25
204.967	189.94
205.185	224.04
205.404	193.21
205.622	175.7
205.841	198.15
206.059	189.7
206.278	181.72
206.496	154.66
206.715	165
206.933	136.35
207.151	143.86
207.37	153.14
207.588	131.75
207.806	125.85
208.025	122
208.243	116.8
208.461	142.68
208.68	136.53
208.898	139.37
209.116	127.51
209.335	134.63
209.553	151.8
209.771	137.24
209.989	120.47
210.208	117.23
210.426	105.19
210.644	95.76
210.862	65.83
211.081	63.74
211.299	69.46
211.517	65.21
211.735	71.92
211.953	68.81
212.171	69.66
212.39	89.22
212.608	91.32
212.826	104.98
213.044	121.09
213.262	137.92
213.48	138.56
213.698	123.58
213.916	142.46
214.134	109.73
214.352	112.11
214.57	112.64
214.788	114.24
215.006	117.53
215.224	121.87
215.442	131.28
215.66	118.31
215.878	127.48
216.096	122.15
216.314	98.37
216.532	120.01
216.75	138.91
216.968	164.22
217.185	161.08
217.403	190.01
217.621	229.96
217.839	144.89
218.057	171.7
218.275	159.78
218.492	216.2
218.71	254.71
218.928	260.92
219.146	295.4
219.363	186.88
219.581	196.84
219.799	181.12
220.017	155.45
220.234	193.58
220.452	193.33
220.67	215.37
220.887	303.61
221.105	404.31
221.323	4559.51
221.54	625.41
221.758	3991.43
221.976	1739.85
222.193	384.16
222.411	462.2
222.629	725.84
222.846	1129.32
223.064	-884.54
223.281	1072.64
223.499	683.1
223.716	1543.92
223.934	-1031.79
224.151	-278.38
224.369	-159.21
224.586	-80.88
224.804	-55.28
225.021	-59.96
225.239	-42.75
225.456	-74.1
225.674	-71.85
225.891	-93.83
226.108	-119.07
226.326	-129.59
226.543	-105.46
226.76	-82.37
226.978	-57.42
227.195	-68.93
227.413	-62.99
227.63	-46.41
227.847	-34.17
228.064	-20.93
228.282	-14.63
228.499	-9.34
228.716	-9.83
228.934	-10.65
229.151	-10.43
229.368	-12.38
229.585	-12.05
229.802	-10.23
230.02	-9.97
230.237	-12.91
230.454	-11.39
230.671	-9.08
230.888	-11.08
231.105	-12.05
231.323	-16.15
231.54	-23.01
231.757	-25.08
231.974	-30.2
232.191	-31.65
232.408	-30.51
232.625	-21.99
232.842	-27.67
233.059	-33.43
233.276	-36.63
233.493	-30.29
233.71	-14.75
233.927	-9.17
234.144	-15.73
234.361	-20.64
234.578	-13.35
234.795	-8.2
235.012	-11.94
235.229	-19.52
235.446	-19.21
235.663	-11.4
235.879	-12.82
236.096	-22.5
236.313	-24.82
236.53	-19.83
236.747	-12.37
236.964	-19.88
237.181	-30.88
237.397	-33.96
237.614	-24.91
237.831	-25.87
238.048	-32.24
238.264	-46.36
238.481	-45.54
238.698	-32.49
238.915	-23.35
239.131	-21.7
239.348	-25.1
239.565	-21.19
239.781	-14.85
239.998	-12.23
240.215	-14.08
240.431	-15.08
240.648	-1.91
240.865	1.91
241.081	0.55
241.298	-2.71
241.514	-3.11
241.731	-0.74
241.947	0.27
242.164	1.3
242.38	3.13
242.597	4.45
242.814	5.32
243.03	2.27
243.246	0.9
243.463	-0.11
243.679	0.3
243.896	0.71
244.112	-0.36
244.329	-2.35
244.545	-2.82
244.762	-5.76
244.978	-3.14
245.194	-3.82
245.411	-3.4
245.627	-1.57
245.843	-0.36
246.06	0.48
246.276	1.05
246.492	2.44
246.709	3.36
246.925	3.3
247.141	4.27
247.357	3.59
247.574	4.38
247.79	4.96
248.006	5.38
248.222	5.58
248.439	5.62
248.655	4.77
248.871	5.25
249.087	5.66
249.303	5.81
249.519	4.42
249.736	3.14
249.952	2.53
250.168	3.79
250.384	0.65
250.6	0.3
250.816	-1.95
251.032	1.25
251.248	-0.44
251.464	-4.74
251.68	-6.15
251.896	-5.93
252.112	-6.73
252.328	-7.84
252.544	-11.01
252.76	-10.57
252.976	-12.7
253.192	-10.75
253.408	-12.4
253.624	-12.72
253.84	-8.91
254.056	-11.76
254.272	-13.43
254.487	-14.28
254.703	-14.2
254.919	-13.29
255.135	-13.77
255.351	-14.73
255.567	-15.29
255.782	-14.59
255.998	-11.82
256.214	-12.81
256.43	-7.25
256.646	-4.69
256.861	0.29
257.077	-0.41
257.293	2.16
257.508	5.27
257.724	6.78
257.94	7.38
258.155	5.26
258.371	3.25
258.587	1.24
258.802	1.16
259.018	2.29
259.234	2.54
259.449	3.01
259.665	3.12
259.88	3.07
260.096	3.34
260.312	3.34
260.527	4.1
260.743	4.16
260.958	4.63
261.174	4.82
261.389	4.99
261.605	4.92
261.82	5.04
262.036	4.22
262.251	2.34
262.466	2.94
262.682	1.94
262.897	0.45
263.113	-0.08
263.328	0.61
263.543	0.18
263.759	-3.56
263.974	-5.33
264.189	-7.16
264.405	-6.97
264.62	-4.64
264.835	-4.98
265.051	-3.83
265.266	-3.27
265.481	-1.13
265.696	-0.81
265.912	-0.12
266.127	1.21
266.342	2.47
266.557	5.22
266.773	3.2
266.988	2.31
267.203	1.74
267.418	3.15
267.633	5.55
267.848	3.76
268.064	4.14
268.279	3.58
268.494	3.91
268.709	3.79
268.924	3.26
269.139	3.77
269.354	5.22
269.569	5.36
269.784	3.74
269.999	1.42
270.214	1.83
270.429	0.08
270.644	0.24
270.859	-0.52
271.074	-1.26
271.289	-2.9
271.504	-0.84
271.719	-0.97
271.934	-1.72
272.149	-0.43
272.363	0.87
272.578	2.22
272.793	3.11
273.008	2.46
273.223	3.78
273.438	3.37
273.653	5.34
273.867	3.57
274.082	3.2
274.297	3.06
274.512	0.1
274.726	-1.61
274.941	-2.31
275.156	-2.09
275.371	-1.87
275.585	-2.28
275.8	-1.15
276.015	-1.41
276.229	0.04
276.444	0.29
276.659	0.79
276.873	2.59
277.088	3.66
277.302	3.16
277.517	2.03
277.732	2.43
277.946	1.88
278.161	1.2
278.375	0.1
278.59	0.32
278.804	-1.48
279.019	-2.04
279.233	-1.36
279.448	-3.06
279.662	-3.23
279.877	-2.42
280.091	-1.61
280.306	-2.89
280.52	-2.12
280.735	-2.15
280.949	-2.95
281.163	-1.03
281.378	0.09
281.592	1.11
281.806	3.28
282.021	3.84
282.235	3.96
282.449	3.5
282.664	4.94
282.878	5.02
283.092	5.72
283.307	5.83
283.521	5.22
283.735	4.7
283.949	3.92
284.164	3.62
284.378	4.17
284.592	4.83
284.806	6.25
285.02	5.8
285.234	6.3
285.449	5.81
285.663	6.43
285.877	6.94
286.091	6.95
286.305	6.82
286.519	6.25
286.733	5.5
286.947	5.07
287.161	4.31
287.375	4.42
287.589	4.25
287.803	4.3
288.017	4.16
288.231	3.39
288.445	3.57
288.659	2.02
288.873	2.6
289.087	3.54
289.301	3.03
289.515	2.28
289.729	1.5
289.943	0.36
290.157	-0.44
290.371	-0.86
290.584	0.19
290.798	-0.68
291.012	1.14
291.226	0.77
291.44	0.05
291.654	0.79
291.867	1.46
292.081	3.09
292.295	3.5
292.509	4.64
292.722	5.35
292.936	4.51
293.15	7.19
293.364	7.95
293.577	7.07
293.791	7.95
294.005	7.85
294.218	7.27
294.432	6.41
294.645	7.25
294.859	7.69
295.073	7.38
295.286	8.44
295.5	7.14
295.713	5.66
295.927	7.2
296.14	6.58
296.354	6.8
296.568	6.59
296.781	7.2
296.994	7.28
297.208	6.36
297.421	6.73
297.635	5.74
297.848	6.32
298.062	6.27
298.275	6.08
298.489	5.75
298.702	5.32
298.915	5.48
299.129	5.09
299.342	5.48
299.555	5.85
299.769	6.21
299.982	6.91
300.195	5.99
300.409	6.94
300.622	5.69
300.835	5.99
301.048	6.25
301.262	5.85
301.475	5.39
301.688	3.62
301.901	4.79
302.115	3.96
302.328	3.99
302.541	4.2
302.754	4.62
302.967	5.06
303.18	5.37
303.393	5.3
303.607	4.77
303.82	5.03
304.033	5.83
304.246	5.15
304.459	5.59
304.672	5.71
304.885	5.79
305.098	5.51
305.311	6.33
305.524	6.42
305.737	5.18
305.95	6.34
306.163	6.06
306.376	4.9
306.589	6.02
306.802	4.5
307.015	3.08
307.228	3.8
307.44	4.28
307.653	4.4
307.866	5.28
308.079	5.79
308.292	6.97
308.505	8.02
308.718	9.22
308.93	9.06
309.143	10.35
309.356	11.37
309.569	10.57
309.781	11.31
309.994	10.53
310.207	9.12
310.42	9.52
310.632	9
310.845	8
311.058	8.77
311.27	8.62
311.483	8.48
311.696	9.22
311.908	9.32
312.121	8.21
312.333	7.86
312.546	7.77
312.759	7.68
312.971	7.79
313.184	8.79
313.396	6.77
313.609	5.38
313.821	5.64
314.034	3.81
314.246	4.46
314.459	4.41
314.671	4.48
314.884	4.88
315.096	5.99
315.309	4.74
315.521	4.37
315.733	5.2
315.946	6.16
316.158	6.64
316.371	9.05
316.583	7.78
316.795	8.24
317.008	9.74
317.22	10.09
317.432	9.2
317.644	8.5
317.857	9.91
318.069	10.85
318.281	10.59
318.494	8.75
318.706	5.99
318.918	6.56
319.13	6.43
319.342	5.7
319.555	6.5
319.767	6.33
319.979	6.55
320.191	5.59
320.403	4.43
320.615	4.09
320.827	3.47
321.039	3.67
321.252	5.05
321.464	5.49
321.676	4.67
321.888	4.46
322.1	4.47
322.312	6.2
322.524	5.69
322.736	7.17
322.948	7.13
323.16	8.88
323.372	9.62
323.584	7.48
323.796	6.58
324.007	7.05
324.219	7.71
324.431	8.81
324.643	7.7
324.855	9.07
325.067	9.35
325.279	10.01
325.491	10.42
325.702	11.12
325.914	11.35
326.126	12.47
326.338	14.17
326.55	14.13
326.761	14.78
326.973	16.2
327.185	16.53
327.396	15.89
327.608	16.05
327.82	15.31
328.032	15.75
328.243	16.79
328.455	17.59
328.666	17.15
328.878	18.41
329.09	18.01
329.301	18.2
329.513	17.15
329.725	17.33
329.936	18.11
330.148	18.07
330.359	17.67
330.571	19.88
330.782	19.66
330.994	20.45
331.205	19.62
331.417	19.74
331.628	19.97
331.84	19.73
332.051	20.31
332.262	21.75
332.474	23.7
332.685	23.74
332.897	23.22
333.108	23.87
333.319	23.18
333.531	22.67
333.742	23.28
333.953	23.83
334.165	23.85
334.376	23.73
334.587	23.19
334.799	23.43
335.01	24.26
335.221	23.39
335.432	22.92
335.644	23.27
335.855	24.03
336.066	24.11
336.277	24.39
336.488	24.69
336.7	24.47
336.911	24.46
337.122	24.45
337.333	24.38
337.544	24.27
337.755	23.19
337.966	23.41
338.177	24
338.388	24.43
338.599	24.38
338.811	25.03
339.022	26.86
339.233	26.34
339.444	26.23
339.655	26.21
339.866	26.9
340.076	27.55
340.287	27.33
340.498	26.85
340.709	26.31
340.92	26.03
341.131	25.96
341.342	25.45
341.553	25.99
341.764	26.43
341.975	26.84
342.185	26.88
342.396	26.86
342.607	27.35
342.818	28.18
343.029	28.09
343.239	28.37
343.45	28.39
343.661	28.19
343.872	28.79
344.082	28.01
344.293	28.5
344.504	28.31
344.714	28.85
344.925	28.4
345.136	28.04
345.346	27.96
345.557	27.67
345.768	27.15
345.978	27.1
346.189	26.21
346.399	27.07
346.61	26.16
346.821	26.61
347.031	27.23
347.242	27.56
347.452	26.87
347.663	26.16
347.873	26.17
348.084	27.28
348.294	27.75
348.504	27.73
348.715	26.93
348.925	27.15
349.136	27.18
349.346	26.31
349.557	26.31
349.767	26.01
349.977	27.24
350.188	26.97
350.398	26.47
350.608	25.68
350.819	26.48
351.029	26.43
351.239	26.13
351.449	26.14
351.66	25.81
351.87	26.28
352.08	26.15
352.29	26.45
352.501	26.69
352.711	26.77
352.921	26.58
353.131	26.13
353.341	25.64
353.552	26.27
353.762	25.57
353.972	26.35
354.182	25.87
354.392	26.28
354.602	25.42
354.812	25.74
355.022	25.41
355.232	25.57
355.442	25.67
355.652	26.24
355.862	25.72
356.072	26.02
356.282	25.52
356.492	26.03
356.702	26.19
356.912	26.19
357.122	26.28
357.332	26.59
357.542	26.63
357.752	26.14
357.962	25.59
358.171	25.62
358.381	25.83
358.591	25.69
358.801	25.43
359.011	25.55
359.221	25.59
359.43	25.55
359.64	24.72
359.85	24.49
360.06	24.61
360.269	25.21
360.479	25.31
360.689	24.77
360.899	25.38
361.108	25.49
361.318	25.19
361.528	25.42
361.737	25.08
361.947	25.25
362.156	25.43
362.366	25.61
362.576	25.2
362.785	25.19
362.995	25.73
363.204	24.97
363.414	24.24
363.623	24.62
363.833	24.37
364.042	24.59
364.252	25.22
364.461	25.43
364.671	25.13
364.88	25.15
365.09	24.96
365.299	23.8
365.509	24.06
365.718	24.13
365.927	23.56
366.137	23.66
366.346	23.03
366.555	22.84
366.765	22.66
366.974	22.13
367.183	21.37
367.393	21.67
367.602	22.66
367.811	23.01
368.021	22.9
368.23	22.52
368.439	22.59
368.648	22.94
368.857	22.4
369.067	21.7
369.276	22.04
369.485	22.39
369.694	22.03
369.903	21.76
370.112	21.37
370.321	21.7
370.531	22
370.74	21.59
370.949	21.51
371.158	21.9
371.367	22.07
371.576	22.3
371.785	22.69
371.994	22.51
372.203	21.92
372.412	21.72
372.621	21.76
372.83	21.81
373.039	21.74
373.248	21.69
373.457	21.36
373.666	21.25
373.874	20.29
374.083	20.02
374.292	19.7
374.501	19.82
374.71	19.03
374.919	19.03
375.128	18.99
375.336	19.65
375.545	19.86
375.754	19.88
375.963	20.32
376.171	21.28
376.38	21.7
376.589	22.02
376.798	21.94
377.006	22.41
377.215	22.02
377.424	21.73
377.632	20.97
377.841	20.72
378.05	20.3
378.258	19.94
378.467	19.19
378.675	19.08
378.884	18.71
379.093	18.85
379.301	19.06
379.51	19.32
379.718	19.57
379.927	19.6
380.135	19.92
380.344	20.3
380.552	19.98
380.761	20.56
380.969	20.35
381.177	20.48
381.386	20.39
381.594	20.9
381.803	20.52
382.011	20.14
382.219	20.27
382.428	19.65
382.636	19.44
382.845	19.58
383.053	19.44
383.261	19.44
383.469	19.5
383.678	19.61
383.886	19.21
384.094	19.03
384.302	18.77
384.511	18.59
384.719	18.51
384.927	18.44
385.135	18.37
385.343	18.04
385.552	17.86
385.76	17.38
385.968	17.04
386.176	16.38
386.384	16.3
386.592	16.5
386.8	16.27
387.008	16.59
387.216	16.87
387.424	16.52
387.633	16.61
387.841	16.38
388.049	16.65
388.257	16.46
388.465	16.4
388.672	16.37
388.88	16.2
389.088	16.34
389.296	16.02
389.504	15.28
389.712	15.72
389.92	15.74
390.128	15.85
390.336	15.77
390.544	16.25
390.751	16.29
390.959	16.01
391.167	16.1
391.375	15.98
391.583	15.78
391.79	15.94
391.998	15.7
392.206	15.74
392.414	15.22
392.621	14.76
392.829	14.31
393.037	14.42
393.244	14.63
393.452	14.28
393.66	14.22
393.867	14.2
394.075	14.46
394.283	14.56
394.49	14.1
394.698	14.2
394.905	14.38
395.113	14.48
395.32	14.52
395.528	14.56
395.735	15.25
395.943	15.25
396.15	15.23
396.358	14.93
396.565	14.73
396.773	14.81
396.98	14.68
397.188	14.93
397.395	15.05
397.602	14.98
397.81	14.89
398.017	14.15
398.225	14.27
398.432	14.18
398.639	14.1
398.847	14.51
399.054	14.41
399.261	14.67
399.468	14.36
399.676	14.24
399.883	14.02
400.09	13.77
400.297	14.13
400.505	13.97
400.712	13.86
400.919	13.77
401.126	13.48
401.333	13.62
401.54	13.79
401.748	13.78
401.955	13.44
402.162	13.47
402.369	13.44
402.576	13.4
402.783	13.57
402.99	13.74
403.197	13.87
403.404	13.73
403.611	13.37
403.818	13.21
404.025	13.52
404.232	13.68
404.439	13.94
404.646	14.16
404.853	14.17
405.06	13.76
405.267	13.82
405.474	13.91
405.681	13.82
405.887	13.93
406.094	13.78
406.301	13.59
406.508	13.5
406.715	13.11
406.922	12.89
407.128	12.65
407.335	12.95
407.542	12.75
407.749	12.66
407.955	12.63
408.162	12.94
408.369	12.97
408.575	13.13
408.782	13.17
408.989	13.27
409.195	13.45
409.402	13.65
409.609	13.49
409.815	13.65
410.022	13.4
410.228	13.39
410.435	13.36
410.642	13.62
410.848	13.11
411.055	12.94
411.261	12.87
411.468	12.7
411.674	12.42
411.881	12.49
412.087	12.24
412.294	12.41
412.5	12.5
412.706	12.2
412.913	11.73
413.119	12
413.326	11.82
413.532	11.93
413.738	12.07
413.945	12.38
414.151	12.19
414.357	12.53
414.564	12.53
414.77	12.41
414.976	12.56
415.182	12.81
415.389	12.84
415.595	13.31
415.801	13.1
416.007	13.07
416.214	12.72
416.42	12.78
416.626	12.5
416.832	12.47
417.038	12.65
417.244	12.66
417.45	12.71
417.657	12.59
417.863	12.44
418.069	12.51
418.275	12.51
418.481	12.74
418.687	12.93
418.893	13.17
419.099	13.07
419.305	12.88
419.511	12.89
419.717	12.88
419.923	12.94
420.129	12.87
420.335	12.95
420.541	13
420.746	12.88
420.952	12.86
421.158	12.83
421.364	12.82
421.57	12.86
421.776	12.95
421.982	12.78
422.187	12.71
422.393	12.82
422.599	12.69
422.805	12.66
423.01	12.79
423.216	12.68
423.422	12.54
423.628	12.66
423.833	12.78
424.039	12.76
424.245	12.88
424.45	12.93
424.656	12.91
424.862	12.92
425.067	12.82
425.273	12.65
425.478	12.55
425.684	12.55
425.889	12.41
426.095	12.41
426.301	12.26
426.506	12.32
426.712	12.22
426.917	12.31
427.123	12.22
427.328	12.3
427.533	12.46
427.739	12.62
427.944	12.59
428.15	12.56
428.355	12.36
428.561	12.33
428.766	12.22
428.971	12.17
429.177	12.07
429.382	12.29
429.587	12.29
429.793	12.08
429.998	12.19
430.203	12.2
430.408	12.5
430.614	12.27
430.819	12.22
431.024	12.22
431.229	12.31
431.434	12
431.64	11.9
431.845	11.99
432.05	12.06
432.255	11.91
432.46	11.9
432.665	11.63
432.87	11.93
433.076	12.02
433.281	12.01
433.486	12.05
433.691	12.2
433.896	12.13
434.101	11.95
434.306	11.82
434.511	11.63
434.716	11.7
434.921	11.78
435.126	11.61
435.331	11.7
435.535	11.63
435.74	11.43
435.945	11.41
436.15	11.54
436.355	11.57
436.56	11.86
436.765	12.01
436.97	11.95
437.174	12.05
437.379	12.09
437.584	12.1
437.789	12.13
437.993	12.35
438.198	12.36
438.403	12.39
438.608	12.37
438.812	12.35
439.017	12.46
439.222	12.61
439.426	12.43
439.631	12.44
439.836	12.36
440.04	12.47
440.245	12.49
440.45	12.52
440.654	12.49
440.859	12.56
441.063	12.49
441.268	12.4
441.472	12.11
441.677	12.34
441.881	12.36
442.086	12.36
442.29	12.11
442.495	11.96
442.699	11.95
442.904	11.99
443.108	11.94
443.312	11.87
443.517	11.89
443.721	12.01
443.925	11.86
444.13	11.97
444.334	11.89
444.538	12.14
444.743	12.21
444.947	12.21
445.151	12.28
445.356	12.36
445.56	12.43
445.764	12.52
445.968	12.57
446.173	12.52
446.377	12.27
446.581	12.35
446.785	12.28
446.989	12.22
447.193	12.21
447.398	12.2
447.602	12.23
447.806	12.34
448.01	12.26
448.214	12.34
448.418	12.27
448.622	12.41
448.826	12.27
449.03	12.38
449.234	12.44
449.438	12.49
449.642	12.36
449.846	12.12
450.05	11.75
450.254	11.8
450.458	11.64
450.662	11.74
450.866	11.78
451.069	11.92
451.273	11.75
451.477	11.82
451.681	11.7
451.885	11.96
452.089	12.02
452.292	12.31
452.496	12.29
452.7	12.18
452.904	12.19
453.107	12.16
453.311	12.04
453.515	12.2
453.719	12.11
453.922	12.03
454.126	11.61
454.33	11.67
454.533	11.5
454.737	11.46
454.94	11.5
455.144	11.57
455.348	11.6
455.551	11.54
455.755	11.47
455.958	11.67
456.162	11.73
456.365	12
456.569	11.86
456.772	11.84
456.976	11.87
457.179	12.07
457.383	11.92
457.586	12
457.79	12.23
457.993	12.3
458.196	12.16
458.4	12.23
458.603	12.1
458.807	12.28
459.01	12.33
459.213	12.37
459.417	12.29
459.62	12.33
459.823	12.24
460.026	12.15
460.23	12.02
460.433	11.95
460.636	12.04
460.839	12.03
461.042	11.94
461.246	11.86
461.449	11.83
461.652	11.84
461.855	11.9
462.058	11.87
462.261	11.92
462.464	11.97
462.668	12.07
462.871	12.04
463.074	12.02
463.277	12.04
463.48	11.82
463.683	11.72
463.886	11.74
464.089	11.64
464.292	11.71
464.495	11.62
464.698	11.7
464.901	11.82
465.104	11.74
465.306	11.7
465.509	11.57
465.712	11.74
465.915	11.8
466.118	11.66
466.321	11.59
466.524	11.56
466.726	11.58
466.929	11.42
467.132	11.28
467.335	11.23
467.538	11.35
467.74	11.3
467.943	11.38
468.146	11.4
468.348	11.4
468.551	11.62
468.754	11.75
468.956	11.76
469.159	11.75
469.362	11.73
469.564	11.72
469.767	11.7
469.969	11.89
470.172	11.96
470.375	11.61
470.577	11.72
470.78	11.6
470.982	11.52
471.185	11.46
471.387	11.5
471.59	11.4
471.792	11.43
471.995	11.4
472.197	11.52
472.399	11.37
472.602	11.72
472.804	11.64
473.007	11.46
473.209	11.49
473.411	11.33
473.614	11.45
473.816	11.7
474.018	11.67
474.22	11.64
474.423	11.42
474.625	11.44
474.827	11.35
475.03	11.26
475.232	11.44
475.434	11.53
475.636	11.76
475.838	11.63
476.04	11.59
476.243	11.4
476.445	11.57
476.647	11.67
476.849	11.7
477.051	11.67
477.253	11.76
477.455	11.67
477.657	11.52
477.859	11.41
478.061	11.49
478.263	11.4
478.465	11.5
478.667	11.39
478.869	11.36
479.071	11.29
479.273	11.44
479.475	11.61
479.677	11.72
479.879	11.7
480.081	11.83
480.283	11.76
480.485	11.68
480.686	11.92
480.888	11.86
481.09	11.91
481.292	11.97
481.494	11.82
481.695	11.73
481.897	11.74
482.099	11.74
482.301	11.73
482.502	11.85
482.704	11.97
482.906	11.93
483.107	11.97
483.309	12.01
483.511	12.02
483.712	12.04
483.914	12.06
484.115	12.04
484.317	12.1
484.519	12.09
484.72	12.07
484.922	11.99
485.123	11.99
485.325	11.99
485.526	11.96
485.728	11.9
485.929	11.94
486.131	11.88
486.332	11.92
486.534	11.87
486.735	11.91
486.936	11.92
487.138	12
487.339	11.93
487.541	12.04
487.742	12.02
487.943	12.1
488.144	12.09
488.346	12.12
488.547	12.1
488.748	12.07
488.95	12.14
489.151	12.09
489.352	12.08
489.553	12.12
489.755	12.02
489.956	12.08
490.157	12.03
490.358	11.99
490.559	12
490.76	11.96
490.961	12.04
491.163	11.96
491.364	11.97
491.565	11.91
491.766	12.04
491.967	11.96
492.168	11.93
492.369	11.95
492.57	11.98
492.771	12.02
492.972	12.09
493.173	12.07
493.374	12.1
493.575	12.07
493.776	12.05
493.976	11.88
494.177	11.86
494.378	11.9
494.579	11.99
494.78	11.97
494.981	11.86
495.182	11.84
495.382	11.83
495.583	11.62
495.784	11.64
495.985	11.73
496.185	11.81
496.386	11.83
496.587	11.75
496.788	11.65
496.988	11.71
497.189	11.8
497.39	11.89
497.59	11.93
497.791	12
497.992	12.08
498.192	12.06
498.393	12.02
498.593	12.03
498.794	11.98
498.994	12.09
499.195	11.99
499.395	11.97
499.596	11.9
499.796	11.94
499.997	12.08
500.197	12.02
500.398	11.98
500.598	11.93
500.799	12.06
500.999	12.14
501.199	11.98
501.4	11.98
501.6	11.88
501.801	11.71
502.001	11.74
502.201	11.69
502.402	11.68
502.602	11.73
502.802	11.68
503.002	11.79
503.203	11.77
503.403	11.75
503.603	11.78
503.803	11.77
504.003	11.91
504.204	11.78
504.404	11.88
504.604	12.02
504.804	12.01
505.004	11.96
505.204	11.85
505.404	12.01
505.604	12.1
505.804	12.21
506.005	12.26
506.205	12.39
506.405	12.37
506.605	12.28
506.805	12.25
507.005	12.31
507.204	12.54
507.404	12.51
507.604	12.32
507.804	12.25
508.004	12.2
508.204	12.17
508.404	12.08
508.604	12.33
508.804	12.53
509.003	12.64
509.203	12.74
509.403	12.75
509.603	12.76
509.803	12.95
510.002	13.04
510.202	13.11
510.402	13.13
510.602	13.11
510.801	12.97
511.001	12.8
511.201	12.7
511.4	12.64
511.6	12.73
511.8	12.85
511.999	12.84
512.199	12.83
512.398	12.72
512.598	12.82
512.797	12.85
512.997	13.01
513.197	13.09
513.396	13.22
513.596	13.25
513.795	13.22
513.994	13.14
514.194	13.15
514.393	13.36
514.593	13.51
514.792	13.57
514.992	13.7
515.191	13.69
515.39	13.93
515.59	13.84
515.789	14.05
515.988	14.18
516.188	14.33
516.387	14.59
516.586	14.59
516.786	14.68
516.985	14.82
517.184	14.79
517.383	14.76
517.582	14.77
517.782	14.93
517.981	14.98
518.18	15.07
518.379	15.13
518.578	15.07
518.777	15.04
518.976	15.09
519.176	15.08
519.375	15.16
519.574	15.35
519.773	15.24
519.972	15.37
520.171	15.43
520.37	15.42
520.569	15.6
520.768	15.74
520.967	15.89
521.166	16.06
521.365	16.21
521.564	16.29
521.762	16.29
521.961	16.37
522.16	16.38
522.359	16.53
522.558	16.61
522.757	16.55
522.956	16.63
523.154	16.8
523.353	16.79
523.552	16.99
523.751	17.11
523.949	17.32
524.148	17.44
524.347	17.51
524.546	17.58
524.744	17.66
524.943	17.77
525.142	17.69
525.34	17.62
525.539	17.69
525.737	17.79
525.936	17.92
526.135	17.97
526.333	18.12
526.532	18.21
526.73	18.27
526.929	18.3
527.127	18.53
527.326	18.7
527.524	18.83
527.723	19.01
527.921	19.02
528.12	19.1
528.318	19.1
528.516	19.2
528.715	19.24
528.913	19.34
529.112	19.42
529.31	19.44
529.508	19.51
529.707	19.65
529.905	19.67
530.103	19.72
530.301	19.78
530.5	19.92
530.698	19.94
530.896	20.1
531.094	20.1
531.293	20.22
531.491	20.3
531.689	20.37
531.887	20.4
532.085	20.53
532.283	20.56
532.481	20.7
532.68	20.71
532.878	20.82
533.076	20.81
533.274	20.92
533.472	20.99
533.67	20.96
533.868	21.04
534.066	21.13
534.264	21.12
534.462	21.25
534.66	21.23
534.858	21.37
535.056	21.44
535.253	21.48
535.451	21.54
535.649	21.82
535.847	21.96
536.045	22.03
536.243	21.99
536.441	22.11
536.638	22.19
536.836	22.27
537.034	22.3
537.232	22.39
537.43	22.52
537.627	22.52
537.825	22.41
538.023	22.5
538.22	22.55
538.418	22.67
538.616	22.68
538.813	22.68
539.011	22.79
539.209	22.83
539.406	22.98
539.604	23.17
539.801	23.28
539.999	23.37
540.196	23.49
540.394	23.64
540.591	23.7
540.789	23.74
540.986	23.85
541.184	23.88
541.381	23.96
541.579	23.91
541.776	23.94
541.974	23.99
542.171	23.99
542.368	24.01
542.566	23.97
542.763	24.06
542.96	24.13
543.158	24.13
543.355	24.22
543.552	24.22
543.75	24.26
543.947	24.26
544.144	24.3
544.341	24.29
544.539	24.32
544.736	24.49
544.933	24.47
545.13	24.46
545.327	24.47
545.524	24.38
545.722	24.5
545.919	24.62
546.116	24.63
546.313	24.65
546.51	24.71
546.707	24.69
546.904	24.64
547.101	24.74
547.298	24.81
547.495	24.87
547.692	24.99
547.889	24.99
548.086	24.85
548.283	24.94
548.48	24.94
548.677	24.99
548.874	25.12
549.07	25.17
549.267	25.15
549.464	25.27
549.661	25.23
549.858	25.24
550.055	25.23
550.251	25.26
550.448	25.29
550.645	25.45
550.842	25.37
551.038	25.35
551.235	25.46
551.432	25.48
551.628	25.36
551.825	25.63
552.022	25.61
552.218	25.7
552.415	25.78
552.612	25.85
552.808	25.75
553.005	25.82
553.201	25.83
553.398	25.73
553.594	25.62
553.791	25.71
553.987	25.59
554.184	25.59
554.38	25.56
554.577	25.72
554.773	25.82
554.97	25.86
555.166	25.93
555.362	25.89
555.559	25.91
555.755	26.16
555.952	26.26
556.148	26.29
556.344	26.34
556.541	26.49
556.737	26.23
556.933	26.15
557.129	26.19
557.326	26.32
557.522	26.51
557.718	26.62
557.914	26.53
558.11	26.66
558.307	26.69
558.503	26.81
558.699	26.8
558.895	27.01
559.091	27.06
559.287	27.25
559.483	27.27
559.679	27.07
559.876	27.02
560.072	27.16
560.268	26.98
560.464	27.21
560.66	27.27
560.856	27.3
561.052	27.52
561.247	27.44
561.443	27.46
561.639	27.5
561.835	27.54
562.031	27.69
562.227	27.59
562.423	27.58
562.619	27.59
562.815	27.48
563.01	27.47
563.206	27.37
563.402	27.43
563.598	27.34
563.793	27.35
563.989	27.42
564.185	27.26
564.381	27.25
564.576	27.4
564.772	27.3
564.968	27.21
565.163	27.11
565.359	27.15
565.555	27.2
565.75	27.29
565.946	27.44
566.141	27.36
566.337	27.48
566.532	27.47
566.728	27.51
566.923	27.48
567.119	27.69
567.314	27.73
567.51	27.77
567.705	27.76
567.901	27.42
568.096	27.27
568.292	27.38
568.487	27.46
568.682	27.5
568.878	27.58
569.073	27.49
569.268	27.49
569.464	27.52
569.659	27.51
569.854	27.63
570.05	28.09
570.245	28.22
570.44	28.32
570.635	28.33
570.831	28.39
571.026	28.2
571.221	28.32
571.416	28.37
571.611	28.32
571.806	28.15
572.002	28.17
572.197	28.03
572.392	27.92
572.587	27.78
572.782	27.73
572.977	27.59
573.172	27.55
573.367	27.41
573.562	27.34
573.757	27.32
573.952	27.28
574.147	27.17
574.342	27.23
574.537	27.22
574.732	27.42
574.927	27.43
575.121	27.57
575.316	27.84
575.511	28.01
575.706	28.08
575.901	28.34
576.096	28.57
576.29	28.67
576.485	28.62
576.68	28.78
576.875	28.78
577.069	28.8
577.264	28.78
577.459	28.68
577.654	28.85
577.848	28.77
578.043	28.76
578.238	28.87
578.432	28.64
578.627	28.84
578.821	28.87
579.016	28.73
579.21	28.65
579.405	28.74
579.6	28.68
579.794	28.59
579.989	28.62
580.183	28.16
580.378	27.94
580.572	28.05
580.766	27.85
580.961	27.66
581.155	27.66
581.35	27.83
581.544	27.82
581.738	27.92
581.933	28
582.127	28.07
582.321	28.61
582.516	28.38
582.71	28.45
582.904	28.42
583.099	28.58
583.293	28.99
583.487	28.9
583.681	28.81
583.875	28.71
584.07	28.53
584.264	28.56
584.458	28.6
584.652	28.74
584.846	28.71
585.04	28.82
585.234	28.84
585.428	28.67
585.623	28.62
585.817	28.64
586.011	28.76
586.205	29.04
586.399	28.92
586.593	28.74
586.787	29.11
586.981	29.29
587.174	29.43
587.368	29.26
587.562	29.01
587.756	28.95
587.95	29.05
588.144	29.22
588.338	29.05
588.532	29.08
588.725	29.31
588.919	29.28
589.113	29.27
589.307	29.26
589.501	29.4
589.694	29.48
589.888	29.89
590.082	29.79
590.275	29.82
590.469	29.75
590.663	29.86
590.856	29.91
591.05	30.03
591.244	30.21
591.437	30.23
591.631	30.15
591.824	30.45
592.018	30.42
592.212	30.49
592.405	30.38
592.599	30.42
592.792	30.46
592.986	30.26
593.179	30.35
593.372	30.24
593.566	30.42
593.759	30.49
593.953	30.68
594.146	30.33
594.339	30.39
594.533	30.45
594.726	30.48
594.92	30.23
595.113	30.08
595.306	29.87
595.499	29.96
595.693	29.91
595.886	30.06
596.079	29.73
596.272	30.16
596.466	30.1
596.659	30.04
596.852	30.15
597.045	30.34
597.238	30.6
597.431	30.76
597.624	30.67
597.818	30.77
598.011	30.65
598.204	30.8
598.397	30.75
598.59	30.9
598.783	30.97
598.976	31.07
599.169	31.19
599.362	31.11
599.555	31.06
599.748	31.14
599.941	31.01
600.134	31.17
600.326	31.3
600.519	31.06
600.712	30.93
600.905	30.74
601.098	30.51
601.291	30.62
601.483	30.61
601.676	30.41
601.869	30.46
602.062	30.55
602.255	30.52
602.447	30.56
602.64	30.7
602.833	30.99
603.025	31.17
603.218	31.18
603.411	31
603.603	31.08
603.796	31.2
603.989	31.3
604.181	31.41
604.374	31.56
604.566	31.58
604.759	31.46
604.951	31.51
605.144	31.52
605.336	31.56
605.529	31.58
605.721	31.59
605.914	31.74
606.106	31.52
606.299	31.2
606.491	31.13
606.683	30.93
606.876	31.07
607.068	31.01
607.26	31.09
607.453	31.18
607.645	31.15
607.837	31.09
608.03	30.93
608.222	31.12
608.414	31.41
608.606	31.32
608.799	31.16
608.991	31.23
609.183	31.3
609.375	31.37
609.567	31.69
609.759	32.05
609.952	32.24
610.144	32.49
610.336	32.59
610.528	32.62
610.72	32.86
610.912	33.23
611.104	33.36
611.296	33.34
611.488	33.31
611.68	33
611.872	32.57
612.064	32.37
612.256	32.04
612.448	31.71
612.64	31.6
612.832	31.24
613.023	30.93
613.215	30.74
613.407	30.56
613.599	30.33
613.791	30.48
613.983	30.47
614.174	30.48
614.366	30.65
614.558	31.04
614.75	30.92
614.941	31.35
615.133	31.45
615.325	31.73
615.516	31.85
615.708	32.19
615.9	32.17
616.091	32.12
616.283	32.39
616.475	32.48
616.666	32.08
616.858	32.14
617.049	31.88
617.241	31.76
617.432	31.09
617.624	30.88
617.815	30.59
618.007	30.51
618.198	30.81
618.39	30.49
618.581	30.32
618.773	30.41
618.964	30.45
619.155	30.76
619.347	30.98
619.538	31.21
619.729	31.54
619.921	31.86
620.112	31.73
620.303	31.5
620.494	31.46
620.686	31.68
620.877	31.85
621.068	31.72
621.259	31.57
621.451	31.45
621.642	31.49
621.833	31.57
622.024	31.25
622.215	31.44
622.406	31.87
622.597	32.03
622.788	31.78
622.98	31.48
623.171	32.19
623.362	31.92
623.553	32.04
623.744	32.13
623.935	32.12
624.126	32.26
624.317	31.93
624.508	31.93
624.698	32.07
624.889	32.01
625.08	32.28
625.271	31.69
625.462	31.63
625.653	31.88
625.844	31.84
626.034	31.82
626.225	31.92
626.416	32.07
626.607	32.17
626.798	32.01
626.988	32.31
627.179	32.21
627.37	32.45
627.56	32.98
627.751	32.93
627.942	33.02
628.132	32.86
628.323	32.84
628.514	33.03
628.704	32.75
628.895	32.55
629.085	32.4
629.276	32.59
629.466	32.6
629.657	32.24
629.847	32.09
630.038	32.02
630.228	32.16
630.419	32.4
630.609	32.27
630.8	32.41
630.99	32.73
631.181	32.81
631.371	32.86
631.561	32.84
631.752	32.89
631.942	32.82
632.132	32.81
632.323	32.9
632.513	32.73
632.703	32.82
632.893	32.67
633.084	32.5
633.274	32.12
633.464	32.03
633.654	32.04
633.844	31.87
634.034	32.1
634.225	32.01
634.415	31.85
634.605	31.72
634.795	31.67
634.985	32.06
635.175	32.5
635.365	32.75
635.555	32.9
635.745	32.68
635.935	32.63
636.125	32.69
636.315	32.76
636.505	32.78
636.695	32.73
636.885	32.6
637.075	32.13
637.265	31.88
637.455	31.95
637.644	31.8
637.834	31.84
638.024	31.89
638.214	31.83
638.404	31.9
638.593	31.8
638.783	31.64
638.973	31.99
639.163	31.74
639.352	31.53
639.542	31.55
639.732	31.57
639.921	31.57
640.111	31.45
640.301	30.89
640.49	30.82
640.68	30.92
640.87	31.21
641.059	30.84
641.249	31.23
641.438	31.42
641.628	31.09
641.817	31.29
642.007	31.2
642.196	31.51
642.386	31.87
642.575	31.35
642.764	31.54
642.954	31.37
643.143	31.5
643.333	31.53
643.522	31.03
643.711	31.38
643.901	30.84
644.09	31.22
644.279	30.96
644.469	30.98
644.658	31.16
644.847	30.86
645.036	31.03
645.226	31.36
645.415	31.62
645.604	32.03
645.793	31.93
645.982	32.17
646.171	31.49
646.361	31.63
646.55	31.52
646.739	31.54
646.928	31.85
647.117	31.93
647.306	31.63
647.495	31.37
647.684	31.42
647.873	31.44
648.062	31.52
648.251	31.84
648.44	32.09
648.629	32.35
648.818	32.75
649.007	32.76
649.196	32.64
649.384	32.27
649.573	32.31
649.762	32.34
649.951	32.58
650.14	32.32
650.328	32.4
650.517	32.06
650.706	31.95
650.895	31.99
651.083	31.82
651.272	31.61
651.461	32.1
651.65	31.79
651.838	31.94
652.027	31.71
652.216	31.9
652.404	32.35
652.593	32.51
652.781	32.37
652.97	32.53
653.158	32.5
653.347	32.69
653.535	32.56
653.724	32.94
653.912	33.14
654.101	33.38
654.289	33.25
654.478	33.18
654.666	33.26
654.855	33.38
655.043	33.06
655.231	33.31
655.42	33.48
655.608	33.2
655.796	33.03
655.985	32.98
656.173	32.43
656.361	32.38
656.55	32.02
656.738	32.01
656.926	32.21
657.114	32.07
657.302	31.69
657.491	31.73
657.679	31.65
657.867	32.01
658.055	31.8
658.243	31.94
658.431	31.97
658.619	32.31
658.807	32.21
658.996	31.98
659.184	32.15
659.372	32.25
659.56	31.91
659.748	32.24
659.936	32.13
660.124	31.89
660.311	32.2
660.499	32.63
660.687	32.21
660.875	32.22
661.063	32.05
661.251	32.13
661.439	31.73
661.627	32.27
661.814	32.36
662.002	32.32
662.19	32.45
662.378	32.48
662.565	32.07
662.753	31.99
662.941	32.22
663.129	32.35
663.316	32.25
663.504	32.64
663.692	32.46
663.879	32.41
664.067	32.03
664.254	31.78
664.442	31.6
664.63	31.24
664.817	31.25
665.005	30.93
665.192	30.85
665.38	30.63
665.567	30.66
665.755	30.89
665.942	30.79
666.13	31.36
666.317	31.73
666.504	31.14
666.692	31.38
666.879	31.65
667.067	31.8
667.254	32.2
667.441	32.87
667.629	33.14
667.816	32.75
668.003	32.51
668.19	32.15
668.378	32.01
668.565	32.35
668.752	32.2
668.939	31.75
669.127	31.58
669.314	31
669.501	30.99
669.688	30.94
669.875	30.75
670.062	30.92
670.249	30.97
670.436	31.17
670.623	31.34
670.81	31.71
670.997	32.4
671.184	32.22
671.371	32.46
671.558	32.2
671.745	32.17
671.932	32.36
672.119	32.16
672.306	32.21
672.493	32.07
672.68	31.85
672.867	31.95
673.054	31.43
673.24	32.06
673.427	31.74
673.614	31.51
673.801	31.55
673.988	31.52
674.174	32.03
674.361	32.1
674.548	32.16
674.734	32.37
674.921	32
675.108	31.74
675.294	31.57
675.481	31.4
675.668	31.5
675.854	31.07
676.041	30.43
676.227	30.43
676.414	30.11
676.601	29.88
676.787	29.93
676.974	29.83
677.16	30.33
677.347	30.49
677.533	31.39
677.719	31.28
677.906	31.25
678.092	31.68
678.279	32.05
678.465	32.22
678.651	32.03
678.838	32.07
679.024	32.56
679.21	32.69
679.397	32.87
679.583	32.35
679.769	32.34
679.955	32.6
680.142	32.89
680.328	32.62
680.514	32.91
680.7	33.03
680.886	32.99
681.073	32.65
681.259	32.34
681.445	31.71
681.631	31.62
681.817	31.51
682.003	31.17
682.189	30.8
682.375	30.56
682.561	30.62
682.747	30.47
682.933	30.23
683.119	30.68
683.305	30.81
683.491	31.04
683.677	31.29
683.863	31.69
684.049	32.18
684.235	32.33
684.42	31.96
684.606	31.9
684.792	32.31
684.978	32.33
685.164	32.04
685.349	31.95
685.535	32.18
685.721	32.63
685.907	31.96
686.092	32.31
686.278	32.45
686.464	32.6
686.649	31.68
686.835	31.96
687.021	31.91
687.206	32
687.392	32.28
687.577	32.04
687.763	31.95
687.948	32.62
688.134	32.52
688.319	32.26
688.505	32.41
688.69	32.5
688.876	32.26
689.061	32.68
689.247	32.31
689.432	31.93
689.618	32.17
689.803	32.11
689.988	31.99
690.174	31.48
690.359	31.46
690.544	30.88
690.73	31.47
690.915	31.42
691.1	31
691.285	30.79
691.471	31.05
691.656	30.9
691.841	31.17
692.026	30.94
692.211	30.93
692.396	31.09
692.582	31.7
692.767	31.32
692.952	31.6
693.137	31.73
693.322	31.98
693.507	31.91
693.692	32.01
693.877	31.64
694.062	31.77
694.247	31.83
694.432	32.32
694.617	32.03
694.802	31.98
694.987	31.88
695.172	32.4
695.357	32.76
695.541	32.67
695.726	32.69
695.911	32.87
696.096	33.13
696.281	32.87
696.466	32.87
696.65	33.29
696.835	33.5
697.02	33.51
697.204	32.67
697.389	32.47
697.574	32.19
697.759	32.29
697.943	32.04
698.128	32.02
698.312	32.23
698.497	31.89
698.682	32.17
698.866	31.81
699.051	31.67
699.235	31.94
699.42	32.22
699.604	32.15
699.789	31.92
699.973	32.1
700.158	32.05
700.342	31.76
700.527	31.91
700.711	31.37
700.895	31.4
701.08	31
701.264	30.98
701.448	30.72
701.633	31.33
701.817	30.89
702.001	30.42
702.186	30.46
702.37	30.57
702.554	30.26
702.738	30.87
702.923	31.45
703.107	31.43
703.291	30.4
703.475	30.34
703.659	29.73
703.843	30.61
704.027	31
704.212	30.42
704.396	30.54
704.58	30.51
704.764	29.79
704.948	29.32
705.132	29.92
705.316	31.63
705.5	31.89
705.684	32.09
705.868	31.74
706.052	31.4
706.235	31.58
706.419	31.45
706.603	31.75
706.787	31.72
706.971	31.55
707.155	31.52
707.339	31.05
707.522	30.7
707.706	30.57
707.89	30.22
708.074	30.98
708.257	31.73
708.441	31.48
708.625	31.26
708.808	31.28
708.992	31.88
709.176	31.6
709.359	31.08
709.543	30.91
709.727	31.06
709.91	31.09
710.094	30.08
710.277	30
710.461	30.18
710.644	30.04
710.828	30.33
711.011	30.19
711.195	30.21
711.378	30.41
711.562	30.34
711.745	30.22
711.928	30.69
712.112	31.21
712.295	30.61
712.478	31.21
712.662	31.49
712.845	31.24
713.028	31.31
713.212	31.47
713.395	31.82
713.578	31.67
713.761	31.72
713.945	31.58
714.128	31.31
714.311	31.59
714.494	31.19
714.677	30.97
714.86	31.36
715.043	31.42
715.227	32.01
715.41	31.74
715.593	32.24
715.776	31.91
715.959	32
716.142	31.63
716.325	31.56
716.508	31.09
716.691	30.86
716.874	30.67
717.057	30.77
717.239	29.64
717.422	30.01
717.605	29.77
717.788	30.41
717.971	30.3
718.154	30.65
718.337	30.76
718.519	30.71
718.702	31.14
718.885	30.64
719.068	30.15
719.25	30.81
719.433	30.43
719.616	30.21
719.798	30.23
719.981	30.09
720.164	30.12
720.346	29.78
720.529	30.43
720.712	30.55
720.894	31.03
721.077	31.24
721.259	30.66
721.442	30.06
721.624	30.14
721.807	29.73
721.989	29.82
722.172	30.39
722.354	30.58
722.537	30.84
722.719	30.03
722.901	30.03
723.084	30.39
723.266	30.19
723.448	30.5
723.631	31.01
723.813	31.2
723.995	30.77
724.178	30.47
724.36	30.79
724.542	29.59
724.724	29.7
724.907	29.33
725.089	29.2
725.271	29.25
725.453	29.28
725.635	28.87
725.817	28.85
725.999	28.22
726.181	28.49
726.364	28
726.546	29.04
726.728	28.32
726.91	28.54
727.092	28.26
727.274	29.2
727.456	29.45
727.638	29.41
727.819	28.76
728.001	29.35
728.183	29.02
728.365	28.84
728.547	29.72
728.729	30.85
728.911	30.47
729.093	30.39
729.274	29.9
729.456	30.26
729.638	30.89
729.82	31.53
730.001	32.45
730.183	33.07
730.365	32.66
730.546	31.69
730.728	32.08
730.91	32.5
731.091	31.47
731.273	31.19
731.455	30.44
731.636	29.88
731.818	30.88
731.999	30.35
732.181	30.17
732.362	30.13
732.544	29.69
732.725	28.32
732.907	28.36
733.088	28.91
733.27	29.83
733.451	29.68
733.633	29.52
733.814	27.31
733.995	26.87
734.177	25.59
734.358	26.67
734.539	27.19
734.721	27.58
734.902	27.66
735.083	27.82
735.264	26.88
735.446	27.52
735.627	28.21
735.808	29.72
735.989	28.88
736.17	29.74
736.351	28.5
736.533	28.85
736.714	29.28
736.895	28.65
737.076	29.18
737.257	29.05
737.438	29.17
737.619	28.43
737.8	28.46
737.981	29.23
738.162	28.36
738.343	29.2
738.524	28.94
738.705	28.7
738.886	28.7
739.067	28.3
739.247	28.89
739.428	27.56
739.609	28.29
739.79	28.75
739.971	29.98
740.151	30.13
740.332	30.04
740.513	30.43
740.694	30.68
740.874	30.81
741.055	30.12
741.236	29.99
741.417	31.32
741.597	30.76
741.778	30.32
741.958	29.23
742.139	29.45
742.32	29.74
742.5	28.5
742.681	29.05
742.861	29.23
743.042	29.86
743.222	30.65
743.403	28.95
743.583	29.25
743.764	28.47
743.944	28.33
744.124	29.17
744.305	28.71
744.485	29.08
744.666	28.33
744.846	27.01
745.026	25.85
745.207	24.92
745.387	27.02
745.567	27.55
745.747	27.17
745.928	27.72
746.108	25.66
746.288	25.33
746.468	25.97
746.648	26.58
746.829	28.23
747.009	30.11
747.189	29.78
747.369	28.38
747.549	27.72
747.729	29.06
747.909	29
748.089	30.52
748.269	30.83
748.449	30.57
748.629	31.1
748.809	30.36
748.989	30.79
749.169	31.29
749.349	31.58
749.529	32.51
749.709	32.07
749.889	32.28
750.068	31.41
750.248	31.72
750.428	30.09
750.608	29.11
750.788	29.52
750.967	28.65
751.147	28.01
751.327	28.95
751.507	27.89
751.686	27.56
751.866	26.72
752.046	26.94
752.225	25.73
752.405	26.9
752.585	28
752.764	28.38
752.944	28.06
753.123	29.78
753.303	27.6
753.482	27.75
753.662	28.43
753.841	28.02
754.021	28.18
754.2	29.42
754.38	29.5
754.559	29.91
754.739	29.94
754.918	30.54
755.097	28.97
755.277	31.71
755.456	32.14
755.635	31.29
755.815	32.82
755.994	33.66
756.173	33.1
756.352	32.73
756.532	31.76
756.711	31.51
756.89	32.1
757.069	32.52
757.248	31.18
757.427	31.03
757.607	30.73
757.786	30.77
757.965	30.56
758.144	30.03
758.323	30.39
758.502	32.33
758.681	32.43
758.86	31.78
759.039	31.12
759.218	31.53
759.397	31.22
759.576	32.41
759.755	31.54
759.934	31.91
760.113	31.36
760.291	32.5
760.47	29.95
760.649	29.56
760.828	29.62
761.007	30.53
761.186	30.63
761.364	30.16
761.543	30.59
761.722	30.79
761.901	29.83
762.079	31.69
762.258	31.5
762.437	33.08
762.615	33.45
762.794	34.04
762.972	33.88
763.151	33.06
763.33	33.03
763.508	32.61
763.687	33.12
763.865	33.45
764.044	32.48
764.222	32.07
764.401	30.76
764.579	31.44
764.758	30.93
764.936	30.83
765.114	31.51
765.293	31.64
765.471	31.34
765.65	30.38
765.828	30.05
766.006	29.84
766.184	29.25
766.363	29.94
766.541	29.34
766.719	29.85
766.898	30.12
767.076	28.76
767.254	28.7
767.432	28.83
767.61	29.69
767.788	29.52
767.967	30.45
768.145	30.09
768.323	28.96
768.501	29.21
768.679	28.13
768.857	27.71
769.035	29.87
769.213	31.39
769.391	29.83
769.569	30.11
769.747	29.62
769.925	29.79
770.103	30.66
770.281	30.76
770.459	29.06
770.636	30.78
770.814	31.44
770.992	30.78
771.17	29.93
771.348	31.2
771.525	31.2
771.703	30.07
771.881	30.45
772.059	30.94
772.236	29.69
772.414	27.05
772.592	25.74
772.769	23.16
772.947	23.53
773.125	23.04
773.302	23.44
773.48	23.42
773.657	26.52
773.835	27.72
774.013	26.6
774.19	26.17
774.368	29.44
774.545	28.54
774.723	29.82
774.9	28.91
775.077	28.64
775.255	29.31
775.432	28.17
775.61	28.53
775.787	25.92
775.964	25.74
776.142	29.35
776.319	30.93
776.496	29.81
776.674	30.33
776.851	30.41
777.028	29.57
777.205	28.46
777.382	25.7
777.56	23.95
777.737	25.36
777.914	25.65
778.091	25.46
778.268	22.4
778.445	22.34
778.622	21.56
778.8	21.56
778.977	22.5
779.154	24.07
779.331	28.58
779.508	29.68
779.685	28.78
779.862	27.45
780.038	26.8
780.215	28.42
780.392	28.62
780.569	27.71
780.746	28.46
780.923	28.26
781.1	26.13
781.277	24.27
781.453	26.41
781.63	26.81
781.807	27.98
781.984	29.1
782.16	28.91
782.337	30.96
782.514	32.13
782.691	29.73
782.867	27.86
783.044	26.75
783.221	25.01
783.397	23.23
783.574	19.95
783.75	20.62
783.927	19.15
784.103	20.1
784.28	20.71
784.456	20.62
784.633	20.63
784.809	21.32
784.986	22.57
785.162	23.85
785.339	24.14
785.515	25
785.692	23.74
785.868	23.6
786.044	21.34
786.221	18.38
786.397	18.29
786.573	18.14
786.749	20.28
786.926	20.37
787.102	20.15
787.278	19.22
787.454	20.78
787.631	19.37
787.807	19.8
787.983	20.86
788.159	22.69
788.335	21.31
788.511	24.14
788.687	23.68
788.863	24.2
789.039	26.09
789.216	23.88
789.392	25.24
789.568	27.48
789.744	27.57
789.919	26.21
790.095	24.73
790.271	26.28
790.447	24.79
790.623	25.32
790.799	24.57
790.975	21.47
791.151	24.08
791.327	22.73
791.502	22.66
791.678	24.32
791.854	25.12
792.03	24.79
792.205	25.91
792.381	27.25
792.557	28.31
792.733	30.18
792.908	33.63
793.084	33.62
793.259	35.68
793.435	36.03
793.611	35.75
793.786	35.25
793.962	35.79
794.137	36.59
794.313	38.24
794.488	36.69
794.664	36.85
794.839	35.76
795.015	34.99
795.19	32.42
795.366	30.08
795.541	28.57
795.716	29.91
795.892	28.78
796.067	24.92
796.242	24.91
796.418	23.95
796.593	22.68
796.768	22.73
796.944	22.66
797.119	24.17
797.294	26.1
797.469	25.33
797.644	24.22
797.82	24.08
797.995	24.92
798.17	23.14
798.345	22.48
798.52	20.89
798.695	19
798.87	18.64
799.045	18.74
799.22	19.55
799.395	22.99
799.57	24.64
799.745	23.31
799.92	25.26
800.095	24.81
800.27	22.8
800.445	23.07
800.62	22.38
800.795	22.67
800.97	21.26
801.145	19.97
801.319	16.67
801.494	15.57
801.669	17.48
801.844	17.82
802.018	18.07
802.193	21.99
802.368	23.87
802.543	26.46
802.717	27.52
802.892	28.45
803.067	28.22
803.241	29.55
803.416	29.53
803.59	30.16
803.765	30.51
803.94	28.56
804.114	27.34
804.289	23.97
804.463	24.7
804.638	23.33
804.812	23.12
804.986	24.59
805.161	23.36
805.335	24.41
805.51	25.83
805.684	25.78
805.858	26.5
806.033	26.59
806.207	27.68
806.381	23.09
806.556	24.79
806.73	24.22
806.904	24.54
807.078	23.69
807.253	23.32
807.427	20.97
807.601	20.08
807.775	21.34
807.949	23.29
808.123	22.62
808.298	27.62
808.472	25.96
808.646	23.31
808.82	22.48
808.994	21.53
809.168	22.15
809.342	24.41
809.516	24.43
809.69	21.6
809.864	16.98
810.038	20.21
810.212	13.53
810.385	13.34
810.559	18.92
810.733	12.63
810.907	14.55
811.081	15.59
811.255	14.01
811.428	10.8
811.602	13.34
811.776	16.68
811.95	14.07
812.123	21.22
812.297	19.66
812.471	13.9
812.644	18.98
812.818	17.98
812.992	11.68
813.165	9.76
813.339	13.7
813.512	11.3
813.686	17.36
813.86	17.7
814.033	13.08
814.207	14.96
814.38	17.73
814.554	18.66
814.727	23.08
814.9	25.4
815.074	29.33
815.247	25.93
815.421	28.91
815.594	22.81
815.767	20.62
815.941	22.71
816.114	20.94
816.287	24.09
816.46	22.22
816.634	20.73
816.807	20.63
816.98	21.75
817.153	25.03
817.327	22.22
817.5	20.14
817.673	21.48
817.846	18.38
818.019	18.54
818.192	16.45
818.365	20.02
818.538	19.76
818.711	21.42
818.884	15.73
819.057	10.07
819.23	9.06
819.403	10.34
819.576	10.44
819.749	15.07
819.922	16.58
820.095	16.82
820.268	15.3
820.441	15.77
820.614	18.59
820.786	23.29
820.959	26.18
821.132	26.52
821.305	27.58
821.477	28.98
821.65	29.45
821.823	30.55
821.996	30.47
822.168	30.82
822.341	31.14
822.514	30.94
822.686	30.72
822.859	31.68
823.031	32.85
823.204	32.71
823.376	32.72
823.549	32.89
823.722	32.89
823.894	33.54
824.067	33.69
824.239	33.29
824.411	33.19
824.584	33.45
824.756	32.91
824.929	32.03
825.101	32.05
825.273	31.78
825.446	31.03
825.618	30.99
825.79	30.66
825.963	29.86
826.135	29.53
826.307	29.51
826.479	28.23
826.652	27.39
826.824	27.58
826.996	27.54
827.168	27.18
827.34	26.56
827.512	27.03
827.684	26.63
827.856	28.1
828.029	28.74
828.201	29.55
828.373	30.37
828.545	30.51
828.717	29.67
828.889	28.9
829.061	29.05
829.232	29.81
829.404	29.07
829.576	28.87
829.748	28.47
829.92	29.22
830.092	26.92
830.264	25.57
830.436	25.66
830.607	26.22
830.779	24.3
830.951	23.54
831.123	21.9
831.294	19.07
831.466	17.49
831.638	13.7
831.809	8.97
831.981	11.14
832.153	11.37
832.324	9.91
832.496	8.16
832.667	10.05
832.839	13.04
833.011	16.18
833.182	17.64
833.354	18.36
833.525	20.29
833.697	23.59
833.868	21.21
834.039	23.98
834.211	26.07
834.382	28.24
834.554	29.25
834.725	30.1
834.896	28.67
835.068	28.82
835.239	28.76
835.41	29.54
835.581	28.66
835.753	29.4
835.924	26.43
836.095	27.23
836.266	27.58
836.438	26.21
836.609	23.13
836.78	23.55
836.951	21.89
837.122	19.42
837.293	19.03
837.464	18.05
837.635	16.7
837.806	16.3
837.977	10.68
838.148	7.43
838.319	4.32
838.49	6.51
838.661	5.09
838.832	3.05
839.003	3.22
839.174	-7.96
839.345	-13.4
839.516	-18.14
839.687	-23.05
839.857	-13.47
840.028	-6.42
840.199	-1.97
840.37	-1.29
840.54	-1.72
840.711	4.53
840.882	8.19
841.053	13.63
841.223	20.35
841.394	24.97
841.564	27.65
841.735	27.29
841.906	24.08
842.076	25.57
842.247	28.82
842.417	27.17
842.588	20.81
842.758	21.13
842.929	20.13
843.099	11.12
843.27	10.58
843.44	12.61
843.611	12.57
843.781	1.97
843.951	1.77
844.122	-5.51
844.292	-10.24
844.462	-8.76
844.633	-3.39
844.803	-3.5
844.973	4.88
845.144	1.85
845.314	0.74
845.484	2.37
845.654	23.24
845.824	30.05
845.995	32.7
846.165	36.1
846.335	48.33
846.505	46.71
846.675	50.88
846.845	44.43
847.015	53.62
847.185	33.64
847.355	3.03
847.525	3.72
847.695	-0.47
847.865	-9.28
848.035	-3.34
848.205	-21.86
848.375	-22.82
848.545	-25.64
848.715	-29.15
848.884	-44.78
849.054	-68.93
849.224	-46.61
849.394	-83.71
849.564	-80.79
849.733	-65.27
849.903	-80.62
850.073	-66.57
850.243	-57.66
850.412	-58.34
850.582	-69.18
850.752	-87.87
850.921	-60.02
851.091	-54.62
851.26	-32.62
851.43	-38.96
851.599	-64.37
851.769	-51.61
851.939	-56.94
852.108	-106.8
852.278	-104.46
852.447	-89.87
852.616	-39.57
852.786	-49.13
852.955	-45.65
853.125	-82.64
853.294	-63.46
853.463	-70.48
853.633	-83.55
853.802	-75.07
853.971	-62.45
854.141	-72.64
854.31	-103.13
854.479	-184.17
854.648	-212.96
854.818	-254.56
854.987	-235.91
855.156	-238.91
855.325	-147
855.494	-158.83
855.663	-189.25
855.832	-230.36
856.001	-188.85
856.171	-143.76
856.34	-112.17
856.509	-115.04
856.678	-81.47
856.847	-63.49
857.016	-93.19
857.185	-99.87
857.353	-34.2
857.522	-47.79
857.691	-19.3
857.86	-31.48
858.029	-11.85
858.198	-24.49
858.367	-26.29
858.535	-43.51
858.704	-55.77
858.873	-44.42
859.042	-48
859.21	-81.06
859.379	-53.99
859.548	-81.39
859.717	-81.37
859.885	-80.35
860.054	-58.19
860.222	-69.01
860.391	-46.67
860.56	-33.94
860.728	-29.94
860.897	-31.23
861.065	-32.5
861.234	-45.1
861.402	-39.48
861.571	-38.94
861.739	-50.1
861.908	-55.12
862.076	-39.15
862.244	-49.35
862.413	-66.48
862.581	-86.15
862.749	-147.7
862.918	-211.15
863.086	-238.17
863.254	-312.13
863.423	-522.19
863.591	-331.34
863.759	-485.98
863.927	-596.47
864.096	-2654.8
864.264	609.4
864.432	1067.53
864.6	-1790.35
864.768	-594.13
864.936	-132.04
865.104	-75.45
865.272	-53.37
865.44	-159.79
865.608	-88.54
865.776	-139.55
865.944	-84.8
866.112	-41.69
866.28	-17.34
866.448	-17.75
866.616	-5.84
866.784	-16.8
866.952	-32.39
867.12	-10.72
867.288	17.53
867.455	-9.96
867.623	-0.71
867.791	-6.86
867.959	-7.55
868.127	-22.74
868.294	-10.32
868.462	-28.24
868.63	-49.74
868.797	-66.5
868.965	-190.01
869.133	-165.43
869.3	-139.8
869.468	-97.37
869.636	-63.53
869.803	-116.91
869.971	-106.61
870.138	-87.72
870.306	-78.63
870.473	-69.73
870.641	-53.53
870.808	-46.23
870.975	-63.45
871.143	-34.74
871.31	-78.71
871.478	-160.99
871.645	-42.02
871.812	-38.47
871.98	-83.53
872.147	-118.72
872.314	-65.2
872.482	-83.58
872.649	-133.49
872.816	-60.42
872.983	-313.26
873.15	-115.99
873.318	-108.63
873.485	-165.07
873.652	-188.79
873.819	-78.46
873.986	-57.62
874.153	-66.4
874.32	-62.19
874.487	-36.05
874.654	-35.69
874.821	-22.7
874.988	-10.62
875.155	-0.5
875.322	-7.57
875.489	-3.78
875.656	-8.48
875.823	-11.1
875.99	-25.96
876.157	-27.11
876.324	-38.29
876.49	-37.9
876.657	-34.83
876.824	-35.83
876.991	-56.87
877.157	-27.77
877.324	-22.36
877.491	-20.53
877.658	-36.94
877.824	-41.36
877.991	-36.35
878.157	-21.05
878.324	-30.54
878.491	-29.44
878.657	-34.17
878.824	-42.5
878.99	-73.76
879.157	-105.05
879.323	-95.58
879.49	-49
879.656	-40.83
879.823	-28.32
879.989	-27.84
880.156	-23.88
880.322	-21.56
880.488	-17.48
880.655	1.99
880.821	-0.9
880.987	5.8
881.154	26.28
881.32	7.28
881.486	14.68
881.652	14.68
881.819	17.86
881.985	17.09
882.151	16.74
882.317	16.83
882.483	15.28
882.649	15.62
882.816	16.04
882.982	15.74
883.148	18.77
883.314	19.76
883.48	19.33
883.646	18.78
883.812	20.82
883.978	21.97
884.144	22.05
884.31	22.45
884.476	23.19
884.642	22.53
884.807	24.91
884.973	26.31
885.139	27.17
885.305	28.5
885.471	28.9
885.637	28.87
885.802	27.78
885.968	28.45
886.134	30.91
886.3	30.06
886.465	30.46
886.631	27.76
886.797	26.28
886.962	24.21
887.128	21.52
887.293	18.8
887.459	13.26
887.625	17.97
887.79	16.54
887.956	10.72
888.121	13.63
888.287	12.93
888.452	4.66
888.618	-3.87
888.783	-13.35
