Data from CB_104_Reflection_3.txt Node
Date: Sat Nov 14 17:56:49 EST 2015
User: robert
Spectrometer: USB4E03001
Autoset integration time: false
Trigger mode: 4
Integration Time (sec): 1.000000E-1
Scans to average: 15
Electric dark correction enabled: true
Nonlinearity correction enabled: false
Boxcar width: 5
Stray light correction enabled: false
XAxis mode: Wavelengths
Stop averaging: false
Number of Pixels in Spectrum: 3648
>>>>>Begin Spectral Data<<<<<
177.566	68.98
177.785	155.67
178.005	7.26
178.225	-173.47
178.445	2424.21
178.665	-189.07
178.885	-452.58
179.105	18.14
179.324	-29.63
179.544	24.93
179.764	48.8
179.984	43.97
180.204	27.32
180.423	54.12
180.643	56.86
180.863	95.47
181.083	69.37
181.302	102.26
181.522	114.01
181.742	88.25
181.961	100.86
182.181	117.06
182.401	298.56
182.621	168.95
182.84	32.81
183.06	-44.27
183.279	-70.51
183.499	-141.06
183.719	-256.37
183.938	-128.67
184.158	-44.08
184.377	-5.85
184.597	-42.73
184.816	-1.56
185.036	20.3
185.256	36.87
185.475	59.73
185.695	56.22
185.914	53.95
186.134	58.39
186.353	56.23
186.572	41.22
186.792	38.84
187.011	47.62
187.231	24.87
187.45	26.8
187.67	29.03
187.889	36.89
188.108	45.42
188.328	54.25
188.547	61.41
188.766	69.89
188.986	60.94
189.205	65.61
189.424	62.96
189.644	73.74
189.863	83.08
190.082	88.44
190.302	53.65
190.521	28.26
190.74	4.12
190.959	-33.09
191.178	-29.18
191.398	-52.02
191.617	-74.81
191.836	-100.37
192.055	-63.52
192.274	-96.05
192.494	-84.76
192.713	-205.63
192.932	-205.13
193.151	-310.68
193.37	-130.26
193.589	-172.32
193.808	-212.94
194.027	-590.15
194.246	2170.04
194.465	-3106.54
194.685	-239.92
194.904	-209.86
195.123	-102.88
195.342	-145.43
195.561	-47.85
195.78	-52.26
195.999	-24.6
196.218	-11.65
196.436	0.58
196.655	17.11
196.874	7.15
197.093	23.02
197.312	12.19
197.531	15.56
197.75	31.53
197.969	29.74
198.188	24.48
198.407	18.91
198.625	17.65
198.844	35.11
199.063	40.61
199.282	45.67
199.501	29.25
199.719	44.44
199.938	45.34
200.157	28.24
200.376	33.26
200.594	46.5
200.813	52.45
201.032	42.08
201.251	24.75
201.469	19.01
201.688	35.87
201.907	30.95
202.125	2.13
202.344	22.01
202.563	44.99
202.781	17.47
203	36.49
203.218	81.21
203.437	59.42
203.656	67
203.874	54.01
204.093	47.14
204.311	47.9
204.53	65.33
204.748	43.46
204.967	43.42
205.185	90.19
205.404	71.58
205.622	47.85
205.841	58.93
206.059	46.3
206.278	47.96
206.496	38.76
206.715	54.47
206.933	44.98
207.151	44.01
207.37	44.39
207.588	21.67
207.806	31.95
208.025	40.42
208.243	52.2
208.461	80.83
208.68	85.46
208.898	79.88
209.116	63.86
209.335	71.88
209.553	70.15
209.771	67.9
209.989	61.45
210.208	40.85
210.426	26.76
210.644	13.43
210.862	-9.28
211.081	-9.56
211.299	2.88
211.517	13.37
211.735	4.48
211.953	25.8
212.171	24.14
212.39	22.93
212.608	36.37
212.826	40.5
213.044	39.03
213.262	46.6
213.48	47.23
213.698	32.82
213.916	23.16
214.134	20.44
214.352	14.52
214.57	23.76
214.788	30.62
215.006	17.7
215.224	18.33
215.442	17.85
215.66	28.34
215.878	-9.51
216.096	-17.7
216.314	30.25
216.532	50.6
216.75	55.46
216.968	44.69
217.185	38.81
217.403	55.54
217.621	36.9
217.839	60.17
218.057	63.79
218.275	94.81
218.492	127.21
218.71	124.96
218.928	116.55
219.146	110.24
219.363	87.97
219.581	92.44
219.799	79.13
220.017	96.04
220.234	85.98
220.452	96.47
220.67	114.29
220.887	196.92
221.105	206.63
221.323	2247.24
221.54	238.48
221.758	783.57
221.976	321.64
222.193	141.14
222.411	162.95
222.629	165.75
222.846	293.26
223.064	-164.16
223.281	188.64
223.499	210.03
223.716	513.17
223.934	-299.33
224.151	-134.37
224.369	-94.74
224.586	-35.82
224.804	-3.15
225.021	-17.25
225.239	-16.88
225.456	-36.45
225.674	-33.1
225.891	-30.82
226.108	-39.05
226.326	-56.67
226.543	-33.24
226.76	-9.18
226.978	-11.35
227.195	-33.16
227.413	-29.99
227.63	-12.97
227.847	-5.42
228.064	2.86
228.282	5.67
228.499	4.6
228.716	4.73
228.934	5.19
229.151	5.58
229.368	7.62
229.585	7.97
229.802	8.59
230.02	7.91
230.237	9.83
230.454	10.74
230.671	10.99
230.888	13.63
231.105	12.6
231.323	10.73
231.54	3.36
231.757	-0.65
231.974	-2.12
232.191	-1.43
232.408	-1.83
232.625	-2.89
232.842	-4.64
233.059	0.01
233.276	-2.13
233.493	3.78
233.71	10.15
233.927	18
234.144	16.27
234.361	13.96
234.578	14.04
234.795	19.7
235.012	11.09
235.229	4.96
235.446	0.93
235.663	4.69
235.879	2.17
236.096	-0.21
236.313	-0.27
236.53	3.56
236.747	8.93
236.964	6.61
237.181	2
237.397	5.03
237.614	9.63
237.831	9.68
238.048	2.21
238.264	-0.94
238.481	-1.72
238.698	0.51
238.915	4.85
239.131	6.57
239.348	5.39
239.565	0.92
239.781	6.67
239.998	8.82
240.215	9.93
240.431	11.02
240.648	15.18
240.865	15.54
241.081	16.15
241.298	14.99
241.514	12.77
241.731	14.87
241.947	15.66
242.164	14.35
242.38	15.74
242.597	15.14
242.814	17.43
243.03	16.3
243.246	15.91
243.463	16.09
243.679	14.54
243.896	16.39
244.112	14.34
244.329	13.87
244.545	15.83
244.762	14.1
244.978	16.31
245.194	12.54
245.411	11.16
245.627	12.09
245.843	9.42
246.06	10.01
246.276	9.28
246.492	11.5
246.709	11.05
246.925	9.87
247.141	8.93
247.357	8.2
247.574	9.32
247.79	9.48
248.006	9.62
248.222	10.31
248.439	10.01
248.655	8.86
248.871	8.45
249.087	9.07
249.303	8.71
249.519	10.17
249.736	9.08
249.952	7.63
250.168	8.7
250.384	6.15
250.6	5.47
250.816	7.13
251.032	8.34
251.248	5.31
251.464	2.94
251.68	4.02
251.896	3.57
252.112	3.4
252.328	3.93
252.544	2.55
252.76	2.62
252.976	1.46
253.192	0.08
253.408	2.83
253.624	4.2
253.84	7.13
254.056	8.08
254.272	8.02
254.487	9.86
254.703	10.61
254.919	11.47
255.135	11.69
255.351	10.76
255.567	12.84
255.782	9.95
255.998	11.6
256.214	7.48
256.43	9.36
256.646	5.7
256.861	6.4
257.077	3.93
257.293	4.15
257.508	7.34
257.724	8.48
257.94	9.26
258.155	8.91
258.371	8.35
258.587	7.98
258.802	8.12
259.018	9.6
259.234	9.52
259.449	9.22
259.665	9.44
259.88	9.09
260.096	9.45
260.312	9.51
260.527	9.78
260.743	9.57
260.958	9.64
261.174	9.32
261.389	9.45
261.605	9.32
261.82	9.42
262.036	9.12
262.251	8.8
262.466	8.43
262.682	8.28
262.897	7.99
263.113	9.4
263.328	11.78
263.543	10.26
263.759	7.89
263.974	7.24
264.189	6.67
264.405	5.64
264.62	5.1
264.835	6.49
265.051	6.94
265.266	6.8
265.481	5.81
265.696	4
265.912	6.28
266.127	8.22
266.342	9.64
266.557	11.75
266.773	11.47
266.988	11.55
267.203	10.99
267.418	10.28
267.633	10.38
267.848	9.62
268.064	9.35
268.279	8.28
268.494	7.71
268.709	7.65
268.924	8.65
269.139	8.4
269.354	8.28
269.569	8.88
269.784	7.64
269.999	6.73
270.214	7.88
270.429	6.51
270.644	6.52
270.859	6.99
271.074	6.01
271.289	3.36
271.504	5.48
271.719	6.29
271.934	4.85
272.149	6.87
272.363	6.73
272.578	7.5
272.793	8.14
273.008	6.7
273.223	6.98
273.438	6
273.653	7.6
273.867	6.64
274.082	5.62
274.297	5.94
274.512	3.55
274.726	3.29
274.941	1.81
275.156	2.33
275.371	3.99
275.585	3.56
275.8	5.66
276.015	5.06
276.229	4.49
276.444	5.26
276.659	5.47
276.873	6.76
277.088	7.74
277.302	7.42
277.517	8.31
277.732	7.93
277.946	8.03
278.161	6.21
278.375	5.96
278.59	6.75
278.804	6.51
279.019	5.88
279.233	5.79
279.448	5.95
279.662	5.8
279.877	5.82
280.091	7.99
280.306	8.68
280.52	9.79
280.735	10.21
280.949	10.37
281.163	10.15
281.378	10.37
281.592	10.36
281.806	10.16
282.021	10.57
282.235	10.5
282.449	9.66
282.664	10.17
282.878	11.6
283.092	11.43
283.307	10.72
283.521	10.98
283.735	10.91
283.949	10.88
284.164	11.71
284.378	12.77
284.592	12.38
284.806	12.23
285.02	11.27
285.234	9.83
285.449	9.83
285.663	10.92
285.877	11.65
286.091	11.46
286.305	11.51
286.519	10.52
286.733	9.83
286.947	9.8
287.161	9.53
287.375	9.92
287.589	11.02
287.803	11.24
288.017	11.24
288.231	10.57
288.445	11.38
288.659	10.74
288.873	10.91
289.087	11.32
289.301	10.78
289.515	11.06
289.729	9.66
289.943	7.7
290.157	6.9
290.371	6.3
290.584	6.06
290.798	5.29
291.012	6.46
291.226	5.75
291.44	5.24
291.654	5.12
291.867	5.69
292.081	7.45
292.295	8.79
292.509	9.26
292.722	9.61
292.936	9.95
293.15	11.52
293.364	11.13
293.577	12.21
293.791	12.27
294.005	13.43
294.218	12.5
294.432	11.22
294.645	10.91
294.859	12.4
295.073	12.16
295.286	11.74
295.5	12.09
295.713	11.88
295.927	12.32
296.14	12.1
296.354	11.66
296.568	11.97
296.781	12.43
296.994	12.57
297.208	10.82
297.421	11.14
297.635	10.55
297.848	10.08
298.062	10.2
298.275	10.73
298.489	10.67
298.702	11.83
298.915	12.1
299.129	12.06
299.342	12.42
299.555	13.26
299.769	13.56
299.982	14.4
300.195	14.05
300.409	14.32
300.622	13.41
300.835	13.34
301.048	10.92
301.262	9.46
301.475	8.55
301.688	7.22
301.901	7.53
302.115	6.01
302.328	6.2
302.541	6.26
302.754	5.36
302.967	5.28
303.18	5.36
303.393	6.03
303.607	6.19
303.82	7.16
304.033	7.62
304.246	7.31
304.459	8.35
304.672	9.78
304.885	9.87
305.098	10.94
305.311	10.52
305.524	10.62
305.737	10.55
305.95	11.62
306.163	10.75
306.376	11.13
306.589	11.8
306.802	10.83
307.015	8.3
307.228	8.46
307.44	8.73
307.653	9.68
307.866	9.92
308.079	10.11
308.292	10.38
308.505	11.51
308.718	11.95
308.93	11.61
309.143	11.37
309.356	11.41
309.569	11.72
309.781	11.95
309.994	11.82
310.207	11.25
310.42	11.04
310.632	9.88
310.845	9.37
311.058	9.63
311.27	10.47
311.483	11.2
311.696	12.48
311.908	11.91
312.121	11.51
312.333	11.56
312.546	12.4
312.759	12.62
312.971	13.65
313.184	13.83
313.396	13.09
313.609	12.06
313.821	12.05
314.034	9.93
314.246	10.92
314.459	11.24
314.671	11.45
314.884	12.39
315.096	13.05
315.309	12.08
315.521	13.45
315.733	14.18
315.946	14.32
316.158	13.86
316.371	16.15
316.583	15.2
316.795	15.66
317.008	15.26
317.22	14.58
317.432	13.58
317.644	12.2
317.857	12.59
318.069	13.29
318.281	13.51
318.494	13.36
318.706	12.23
318.918	12.94
319.13	12.48
319.342	12.96
319.555	12.75
319.767	13.61
319.979	14.16
320.191	14.46
320.403	13.52
320.615	13.04
320.827	12.09
321.039	12.67
321.252	12.84
321.464	13.51
321.676	11.59
321.888	12.08
322.1	11.59
322.312	13.76
322.524	12.43
322.736	13.45
322.948	13.38
323.16	15.28
323.372	15.02
323.584	15.02
323.796	13.81
324.007	14.94
324.219	15.3
324.431	16.66
324.643	15.56
324.855	16.13
325.067	17.19
325.279	17.5
325.491	18.98
325.702	19.42
325.914	18.56
326.126	19.92
326.338	21.16
326.55	21.54
326.761	22.27
326.973	23.59
327.185	23.78
327.396	22.87
327.608	23.16
327.82	22.34
328.032	23.77
328.243	25.24
328.455	25.24
328.666	25.18
328.878	25.77
329.09	26.23
329.301	27.54
329.513	26.73
329.725	27.19
329.936	27.89
330.148	28.28
330.359	27.17
330.571	27.61
330.782	28.29
330.994	29.67
331.205	29.99
331.417	29.06
331.628	27.82
331.84	28.33
332.051	28.08
332.262	28.67
332.474	28.18
332.685	29.44
332.897	29.34
333.108	29.3
333.319	27.96
333.531	27.64
333.742	28.63
333.953	30.16
334.165	29.81
334.376	30.85
334.587	31.55
334.799	33.15
335.01	32.36
335.221	32.81
335.432	34.32
335.644	35.6
335.855	35.64
336.066	35.7
336.277	35.21
336.488	36.44
336.7	35.41
336.911	35.52
337.122	34.85
337.333	36.18
337.544	35.59
337.755	33.16
337.966	33.19
338.177	33.33
338.388	33.28
338.599	33.96
338.811	34.2
339.022	35.36
339.233	34.92
339.444	35.11
339.655	34.05
339.866	34.27
340.076	35.62
340.287	35.54
340.498	35.1
340.709	34.99
340.92	35.19
341.131	35.33
341.342	34.86
341.553	34.11
341.764	34.42
341.975	34.76
342.185	36.11
342.396	36.36
342.607	36.66
342.818	36.29
343.029	36.06
343.239	35.09
343.45	34.23
343.661	34.17
343.872	34.24
344.082	33.65
344.293	33.96
344.504	33.16
344.714	33.04
344.925	32.2
345.136	32.26
345.346	32.5
345.557	32.29
345.768	32.92
345.978	32.88
346.189	33.22
346.399	33.27
346.61	33.15
346.821	33.2
347.031	32.67
347.242	32.95
347.452	33.14
347.663	32.79
347.873	33.02
348.084	33.47
348.294	33.95
348.504	34.25
348.715	33.98
348.925	33.76
349.136	33.51
349.346	33.19
349.557	33.52
349.767	33.27
349.977	33.46
350.188	33.49
350.398	33.04
350.608	32.68
350.819	33.23
351.029	33.85
351.239	32.87
351.449	32.91
351.66	33.67
351.87	33.51
352.08	34.32
352.29	34.28
352.501	34.8
352.711	34.86
352.921	35.14
353.131	34.23
353.341	33.94
353.552	34.53
353.762	34.85
353.972	34.8
354.182	33.38
354.392	32.57
354.602	32.26
354.812	31.93
355.022	30.83
355.232	30.47
355.442	30.71
355.652	30.46
355.862	30.7
356.072	30.4
356.282	30.23
356.492	31.12
356.702	31.28
356.912	31.41
357.122	31.16
357.332	32.2
357.542	31.71
357.752	31.44
357.962	31.92
358.171	31.97
358.381	32.09
358.591	32.18
358.801	31.66
359.011	31.65
359.221	32.27
359.43	32.32
359.64	31.69
359.85	31.98
360.06	32.15
360.269	31.82
360.479	31.69
360.689	31.23
360.899	30.96
361.108	31.28
361.318	31.18
361.528	30.54
361.737	30.58
361.947	30.71
362.156	30.66
362.366	30.55
362.576	30.11
362.785	29.96
362.995	30.36
363.204	30.26
363.414	29.95
363.623	29.89
363.833	29.57
364.042	29.27
364.252	29.71
364.461	29.78
364.671	30.27
364.88	29.96
365.09	30.07
365.299	29.41
365.509	29.08
365.718	28.94
365.927	28.59
366.137	28.57
366.346	28.4
366.555	27.7
366.765	27.34
366.974	26.67
367.183	26.61
367.393	26.39
367.602	26.87
367.811	27.31
368.021	26.93
368.23	26.96
368.439	26.83
368.648	27.3
368.857	26.76
369.067	26.72
369.276	26.45
369.485	26.66
369.694	26.19
369.903	25.54
370.112	25.52
370.321	26.98
370.531	26.79
370.74	26.82
370.949	26.29
371.158	26.8
371.367	26.67
371.576	26.69
371.785	26.93
371.994	26.71
372.203	26.97
372.412	26.9
372.621	25.88
372.83	26.17
373.039	26.2
373.248	26.37
373.457	26.12
373.666	26.15
373.874	25.76
374.083	25.37
374.292	25.07
374.501	24.56
374.71	23.45
374.919	23.6
375.128	23.6
375.336	24.04
375.545	23.59
375.754	23.06
375.963	23.01
376.171	22.63
376.38	22.87
376.589	23.38
376.798	23.27
377.006	23.59
377.215	22.84
377.424	22.5
377.632	21.55
377.841	21.79
378.05	22.05
378.258	21.86
378.467	21.75
378.675	21.58
378.884	20.87
379.093	20.87
379.301	20.67
379.51	21.2
379.718	21.37
379.927	21.86
380.135	22.12
380.344	21.84
380.552	21.69
380.761	22.31
380.969	22.06
381.177	22.62
381.386	22.35
381.594	22.74
381.803	22
382.011	21.57
382.219	21.08
382.428	20.38
382.636	20.59
382.845	20.56
383.053	20.23
383.261	20.04
383.469	19.42
383.678	19.79
383.886	19.55
384.094	19.36
384.302	18.71
384.511	18.66
384.719	18.37
384.927	18.2
385.135	17.98
385.343	17.58
385.552	17.33
385.76	17.15
385.968	16.7
386.176	16.21
386.384	16.48
386.592	16.65
386.8	16.29
387.008	16.51
387.216	16.44
387.424	15.99
387.633	16.13
387.841	16.25
388.049	16.41
388.257	16.19
388.465	16
388.672	15.65
388.88	15.87
389.088	15.93
389.296	15.61
389.504	15.25
389.712	15.64
389.92	15.2
390.128	15.08
390.336	14.64
390.544	14.91
390.751	14.58
390.959	14.62
391.167	14.48
391.375	14.51
391.583	14.4
391.79	14.44
391.998	14.36
392.206	14.56
392.414	14.39
392.621	14.28
392.829	13.86
393.037	14.29
393.244	14.24
393.452	13.88
393.66	13.91
393.867	13.6
394.075	13.6
394.283	13.42
394.49	13.06
394.698	13.13
394.905	13.32
395.113	13.37
395.32	13.33
395.528	12.84
395.735	13.29
395.943	13.14
396.15	13.13
396.358	12.83
396.565	12.89
396.773	12.88
396.98	12.6
397.188	12.48
397.395	12.34
397.602	12.37
397.81	12.93
398.017	12.51
398.225	12.64
398.432	12.57
398.639	12.76
398.847	12.6
399.054	12.37
399.261	12.34
399.468	12.38
399.676	12.4
399.883	11.91
400.09	11.48
400.297	11.51
400.505	10.9
400.712	11.15
400.919	10.78
401.126	10.65
401.333	10.94
401.54	11.26
401.748	11.24
401.955	11.05
402.162	11.14
402.369	11.21
402.576	11.05
402.783	11.36
402.99	11.18
403.197	11.2
403.404	10.85
403.611	10.63
403.818	10.43
404.025	10.25
404.232	10.08
404.439	10.31
404.646	10.29
404.853	10.13
405.06	9.97
405.267	10.08
405.474	10.15
405.681	10.33
405.887	10.35
406.094	10.04
406.301	10.03
406.508	10.29
406.715	9.89
406.922	10.07
407.128	10.3
407.335	10.19
407.542	9.96
407.749	10.03
407.955	10
408.162	10.14
408.369	10.26
408.575	10.32
408.782	10.19
408.989	10.42
409.195	10.4
409.402	10.26
409.609	10.6
409.815	10.7
410.022	10.61
410.228	10.61
410.435	10.6
410.642	10.85
410.848	10.73
411.055	10.56
411.261	10.37
411.468	10.05
411.674	10.04
411.881	9.75
412.087	9.74
412.294	9.69
412.5	9.79
412.706	9.77
412.913	9.21
413.119	9.13
413.326	9.33
413.532	9.53
413.738	9.67
413.945	9.67
414.151	9.75
414.357	9.86
414.564	9.87
414.77	9.42
414.976	9.46
415.182	9.64
415.389	9.61
415.595	9.45
415.801	9.39
416.007	9.42
416.214	9.19
416.42	9.26
416.626	8.96
416.832	8.89
417.038	9.15
417.244	9.16
417.45	9.31
417.657	9.31
417.863	9.32
418.069	9.16
418.275	8.93
418.481	9.09
418.687	9.09
418.893	9.21
419.099	9.18
419.305	9.12
419.511	9.03
419.717	8.96
419.923	8.97
420.129	8.91
420.335	8.95
420.541	9.17
420.746	9.07
420.952	9.02
421.158	8.99
421.364	8.87
421.57	8.87
421.776	8.84
421.982	8.64
422.187	8.56
422.393	8.54
422.599	8.59
422.805	8.44
423.01	8.64
423.216	8.53
423.422	8.48
423.628	8.5
423.833	8.41
424.039	8.53
424.245	8.72
424.45	8.74
424.656	8.7
424.862	8.64
425.067	8.56
425.273	8.34
425.478	8.39
425.684	8.32
425.889	8.27
426.095	8.42
426.301	8.16
426.506	7.96
426.712	7.97
426.917	8.24
427.123	8.01
427.328	8.12
427.533	8.22
427.739	8.18
427.944	8.17
428.15	8.14
428.355	7.9
428.561	7.89
428.766	8.1
428.971	8.02
429.177	7.85
429.382	8.23
429.587	8.06
429.793	8.04
429.998	8.17
430.203	8.23
430.408	8.36
430.614	8.35
430.819	8.23
431.024	8.27
431.229	8.34
431.434	8.11
431.64	8.02
431.845	8.2
432.05	8.04
432.255	8.08
432.46	8.01
432.665	7.98
432.87	8.08
433.076	8.25
433.281	8.05
433.486	8.06
433.691	8.07
433.896	7.89
434.101	7.9
434.306	7.87
434.511	7.59
434.716	7.56
434.921	7.62
435.126	7.57
435.331	7.54
435.535	7.68
435.74	7.68
435.945	7.77
436.15	7.64
436.355	7.59
436.56	7.73
436.765	7.86
436.97	7.98
437.174	8.06
437.379	8
437.584	8.07
437.789	8.09
437.993	8.16
438.198	8.1
438.403	8.41
438.608	8.36
438.812	8.44
439.017	8.38
439.222	8.47
439.426	8.3
439.631	8.35
439.836	8.13
440.04	8.15
440.245	8.1
440.45	8.11
440.654	8
440.859	7.96
441.063	7.87
441.268	7.85
441.472	7.71
441.677	7.83
441.881	7.74
442.086	7.92
442.29	7.79
442.495	7.67
442.699	7.63
442.904	7.67
443.108	7.62
443.312	7.43
443.517	7.37
443.721	7.28
443.925	7.12
444.13	7.27
444.334	7.27
444.538	7.3
444.743	7.42
444.947	7.54
445.151	7.59
445.356	7.76
445.56	8.05
445.764	8.3
445.968	8.43
446.173	8.47
446.377	8.3
446.581	8.23
446.785	8.14
446.989	8.06
447.193	8.04
447.398	8.06
447.602	8.04
447.806	7.86
448.01	7.66
448.214	7.58
448.418	7.4
448.622	7.48
448.826	7.47
449.03	7.67
449.234	7.73
449.438	7.63
449.642	7.35
449.846	7.09
450.05	7.06
450.254	7.09
450.458	7.19
450.662	7.32
450.866	7.42
451.069	7.55
451.273	7.25
451.477	7.23
451.681	7.17
451.885	7.46
452.089	7.36
452.292	7.47
452.496	7.32
452.7	7.25
452.904	7.25
453.107	7.08
453.311	7.09
453.515	7.21
453.719	7.23
453.922	7.2
454.126	7.01
454.33	7.05
454.533	6.9
454.737	7.04
454.94	6.95
455.144	7.1
455.348	7.27
455.551	6.97
455.755	7
455.958	7.1
456.162	7.12
456.365	7.15
456.569	7.27
456.772	7.5
456.976	7.44
457.179	7.5
457.383	7.44
457.586	7.42
457.79	7.65
457.993	7.62
458.196	7.38
458.4	7.52
458.603	7.46
458.807	7.46
459.01	7.32
459.213	7.41
459.417	7.37
459.62	7.21
459.823	7.11
460.026	7.04
460.23	7.03
460.433	7.14
460.636	7.25
460.839	7.28
461.042	7.29
461.246	7.2
461.449	7.14
461.652	7.06
461.855	7.2
462.058	7.15
462.261	7.26
462.464	7.28
462.668	7.28
462.871	7.09
463.074	7.17
463.277	7.27
463.48	7.15
463.683	7.2
463.886	7.28
464.089	7.06
464.292	7.28
464.495	7.19
464.698	7.18
464.901	7
465.104	7.02
465.306	6.96
465.509	6.8
465.712	6.99
465.915	6.85
466.118	6.81
466.321	6.91
466.524	6.8
466.726	6.72
466.929	6.51
467.132	6.67
467.335	6.61
467.538	6.78
467.74	6.66
467.943	6.74
468.146	6.82
468.348	6.95
468.551	7.04
468.754	7.28
468.956	7.32
469.159	7.48
469.362	7.58
469.564	7.59
469.767	7.47
469.969	7.75
470.172	7.85
470.375	7.79
470.577	7.67
470.78	7.68
470.982	7.58
471.185	7.63
471.387	7.68
471.59	7.6
471.792	7.52
471.995	7.6
472.197	7.4
472.399	7.17
472.602	7.11
472.804	7.05
473.007	6.84
473.209	6.75
473.411	6.69
473.614	6.64
473.816	6.49
474.018	6.53
474.22	6.46
474.423	6.56
474.625	6.58
474.827	6.82
475.03	6.98
475.232	7.32
475.434	7.48
475.636	7.59
475.838	7.75
476.04	7.68
476.243	7.69
476.445	7.78
476.647	7.82
476.849	7.86
477.051	7.65
477.253	7.54
477.455	7.28
477.657	7.23
477.859	7.02
478.061	6.91
478.263	6.97
478.465	6.94
478.667	6.89
478.869	6.71
479.071	6.64
479.273	6.78
479.475	6.84
479.677	7.02
479.879	6.86
480.081	7.09
480.283	7.14
480.485	7.18
480.686	7.22
480.888	7.16
481.09	7.26
481.292	7.27
481.494	7.27
481.695	7.22
481.897	7.23
482.099	7.35
482.301	7.18
482.502	7.16
482.704	7.22
482.906	7.25
483.107	7.27
483.309	7.26
483.511	7.31
483.712	7.29
483.914	7.32
484.115	7.33
484.317	7.36
484.519	7.41
484.72	7.41
484.922	7.37
485.123	7.37
485.325	7.34
485.526	7.37
485.728	7.36
485.929	7.37
486.131	7.33
486.332	7.35
486.534	7.24
486.735	7.21
486.936	7.21
487.138	7.25
487.339	7.24
487.541	7.32
487.742	7.35
487.943	7.37
488.144	7.41
488.346	7.45
488.547	7.35
488.748	7.36
488.95	7.38
489.151	7.36
489.352	7.32
489.553	7.42
489.755	7.38
489.956	7.36
490.157	7.37
490.358	7.28
490.559	7.3
490.76	7.35
490.961	7.33
491.163	7.28
491.364	7.28
491.565	7.27
491.766	7.25
491.967	7.28
492.168	7.26
492.369	7.16
492.57	7.23
492.771	7.19
492.972	7.2
493.173	7.26
493.374	7.36
493.575	7.44
493.776	7.47
493.976	7.34
494.177	7.2
494.378	7.29
494.579	7.53
494.78	7.58
494.981	7.68
495.182	7.78
495.382	7.92
495.583	7.76
495.784	7.68
495.985	7.81
496.185	7.88
496.386	7.99
496.587	7.91
496.788	7.92
496.988	7.93
497.189	7.99
497.39	8.03
497.59	7.93
497.791	8.02
497.992	8.12
498.192	8.04
498.393	8.09
498.593	8.08
498.794	8.08
498.994	8.02
499.195	7.81
499.395	7.75
499.596	7.75
499.796	7.78
499.997	8.01
500.197	7.97
500.398	8.08
500.598	8.12
500.799	8.34
500.999	8.29
501.199	8.2
501.4	8.48
501.6	8.48
501.801	8.41
502.001	8.6
502.201	8.58
502.402	8.54
502.602	8.44
502.802	8.32
503.002	8.24
503.203	8.53
503.403	8.65
503.603	8.46
503.803	8.55
504.003	8.64
504.204	8.53
504.404	8.74
504.604	8.92
504.804	8.98
505.004	9.14
505.204	9.19
505.404	9.2
505.604	9.26
505.804	9.49
506.005	9.5
506.205	9.62
506.405	9.65
506.605	9.5
506.805	9.46
507.005	9.47
507.204	9.56
507.404	9.57
507.604	9.43
507.804	9.49
508.004	9.6
508.204	9.71
508.404	9.68
508.604	9.8
508.804	9.85
509.003	10.11
509.203	10.19
509.403	10.33
509.603	10.3
509.803	10.62
510.002	10.77
510.202	10.81
510.402	10.91
510.602	11.07
510.801	11.2
511.001	11.3
511.201	11.24
511.4	11.4
511.6	11.56
511.8	11.83
511.999	11.81
512.199	11.78
512.398	11.8
512.598	11.8
512.797	12.01
512.997	12.15
513.197	12.36
513.396	12.54
513.596	12.74
513.795	12.89
513.994	12.77
514.194	12.98
514.393	13.3
514.593	13.57
514.792	13.67
514.992	13.65
515.191	13.74
515.39	13.8
515.59	13.96
515.789	14.08
515.988	14
516.188	14.45
516.387	14.65
516.586	14.68
516.786	14.72
516.985	14.87
517.184	15.08
517.383	15.03
517.582	15.14
517.782	15.21
517.981	15.34
518.18	15.62
518.379	15.64
518.578	15.68
518.777	15.73
518.976	15.86
519.176	16.07
519.375	16.17
519.574	16.56
519.773	16.61
519.972	16.71
520.171	16.78
520.37	16.81
520.569	17.06
520.768	17.2
520.967	17.46
521.166	17.71
521.365	17.84
521.564	17.95
521.762	18
521.961	18.37
522.16	18.65
522.359	18.94
522.558	19.19
522.757	19.23
522.956	19.51
523.154	19.78
523.353	19.86
523.552	20.15
523.751	20.35
523.949	20.58
524.148	20.78
524.347	20.91
524.546	21.04
524.744	21.17
524.943	21.35
525.142	21.38
525.34	21.51
525.539	21.73
525.737	21.83
525.936	22.06
526.135	22.3
526.333	22.4
526.532	22.62
526.73	22.85
526.929	22.99
527.127	23.2
527.326	23.47
527.524	23.55
527.723	23.82
527.921	23.94
528.12	24.06
528.318	24.09
528.516	24.16
528.715	24.27
528.913	24.41
529.112	24.51
529.31	24.63
529.508	24.7
529.707	24.87
529.905	24.87
530.103	25.04
530.301	25.09
530.5	25.26
530.698	25.42
530.896	25.54
531.094	25.59
531.293	25.77
531.491	25.96
531.689	26.19
531.887	26.32
532.085	26.54
532.283	26.68
532.481	26.87
532.68	27
532.878	27.13
533.076	27.29
533.274	27.41
533.472	27.6
533.67	27.67
533.868	27.71
534.066	27.85
534.264	27.94
534.462	28.13
534.66	28.25
534.858	28.4
535.056	28.62
535.253	28.69
535.451	28.95
535.649	29.14
535.847	29.28
536.045	29.48
536.243	29.57
536.441	29.79
536.638	29.74
536.836	29.92
537.034	29.99
537.232	30.06
537.43	30.22
537.627	30.23
537.825	30.26
538.023	30.35
538.22	30.46
538.418	30.52
538.616	30.55
538.813	30.71
539.011	30.86
539.209	31.01
539.406	31.17
539.604	31.38
539.801	31.49
539.999	31.67
540.196	31.78
540.394	31.81
540.591	31.93
540.789	32.02
540.986	32.15
541.184	32.25
541.381	32.19
541.579	32.13
541.776	32.17
541.974	32.23
542.171	32.18
542.368	32.28
542.566	32.47
542.763	32.64
542.96	32.76
543.158	32.86
543.355	32.98
543.552	33.22
543.75	33.45
543.947	33.49
544.144	33.69
544.341	33.85
544.539	34.04
544.736	34.13
544.933	34.17
545.13	34.11
545.327	34.11
545.524	34.03
545.722	34.06
545.919	34.05
546.116	34.18
546.313	34.14
546.51	34.2
546.707	34.06
546.904	34.02
547.101	34.02
547.298	34.21
547.495	34.27
547.692	34.46
547.889	34.74
548.086	34.79
548.283	34.83
548.48	34.95
548.677	34.91
548.874	35.02
549.07	35.01
549.267	35.06
549.464	35.1
549.661	35.14
549.858	35.18
550.055	35.03
550.251	35.22
550.448	35.43
550.645	35.31
550.842	35.55
551.038	35.59
551.235	35.8
551.432	35.84
551.628	35.9
551.825	36.02
552.022	36.04
552.218	36.27
552.415	36.4
552.612	36.36
552.808	36.53
553.005	36.52
553.201	36.52
553.398	36.6
553.594	36.49
553.791	36.66
553.987	36.76
554.184	36.76
554.38	36.73
554.577	36.75
554.773	37.02
554.97	37.08
555.166	37.23
555.362	37.52
555.559	37.58
555.755	37.8
555.952	37.64
556.148	37.54
556.344	37.59
556.541	37.46
556.737	37.47
556.933	37.47
557.129	37.24
557.326	37.29
557.522	37.28
557.718	37.32
557.914	37.54
558.11	37.73
558.307	37.94
558.503	37.92
558.699	38.07
558.895	37.95
559.091	38.05
559.287	38.48
559.483	38.43
559.679	38.42
559.876	38.42
560.072	38.27
560.268	38.32
560.464	38.44
560.66	38.54
560.856	38.55
561.052	38.89
561.247	38.65
561.443	38.46
561.639	38.61
561.835	38.75
562.031	38.89
562.227	38.94
562.423	38.78
562.619	38.84
562.815	38.89
563.01	38.85
563.206	38.74
563.402	38.84
563.598	39.1
563.793	39.14
563.989	39.01
564.185	38.86
564.381	38.85
564.576	39.12
564.772	39.01
564.968	38.81
565.163	38.93
565.359	38.98
565.555	39.03
565.75	38.99
565.946	39.02
566.141	39.18
566.337	39.33
566.532	39.32
566.728	39.36
566.923	39.33
567.119	39.52
567.314	39.58
567.51	39.67
567.705	39.69
567.901	39.54
568.096	39.38
568.292	39.44
568.487	39.46
568.682	39.52
568.878	39.63
569.073	39.74
569.268	39.88
569.464	39.7
569.659	39.71
569.854	39.82
570.05	40.19
570.245	40.38
570.44	40.28
570.635	40.25
570.831	40.32
571.026	39.97
571.221	39.81
571.416	39.72
571.611	39.99
571.806	39.9
572.002	40.11
572.197	40.25
572.392	40.29
572.587	40.21
572.782	40.15
572.977	40.26
573.172	40.44
573.367	40.51
573.562	40.55
573.757	40.47
573.952	40.45
574.147	40.16
574.342	40.07
574.537	39.98
574.732	40.28
574.927	40.36
575.121	40.28
575.316	40.53
575.511	40.49
575.706	40.53
575.901	40.6
576.096	40.71
576.29	40.89
576.485	40.87
576.68	41
576.875	40.9
577.069	40.84
577.264	40.86
577.459	40.64
577.654	40.95
577.848	40.92
578.043	40.94
578.238	41.15
578.432	41.05
578.627	41.04
578.821	41.04
579.016	40.73
579.21	40.86
579.405	40.88
579.6	40.92
579.794	40.67
579.989	40.85
580.183	40.54
580.378	40.17
580.572	40.19
580.766	40.09
580.961	40.07
581.155	40.31
581.35	40.46
581.544	40.47
581.738	40.59
581.933	40.79
582.127	40.67
582.321	40.79
582.516	40.71
582.71	40.89
582.904	41.05
583.099	41.05
583.293	41.58
583.487	41.63
583.681	41.62
583.875	41.47
584.07	41.29
584.264	41.42
584.458	41.67
584.652	41.87
584.846	41.62
585.04	41.72
585.234	41.69
585.428	41.33
585.623	41.39
585.817	41.38
586.011	41.6
586.205	41.94
586.399	41.95
586.593	41.63
586.787	41.84
586.981	42.14
587.174	42.05
587.368	41.95
587.562	41.88
587.756	41.66
587.95	41.86
588.144	41.75
588.338	41.73
588.532	41.56
588.725	42.12
588.919	42.33
589.113	42.25
589.307	42.01
589.501	42.16
589.694	42.36
589.888	42.68
590.082	42.55
590.275	42.67
590.469	42.53
590.663	42.6
590.856	42.48
591.05	42.22
591.244	42.19
591.437	42.59
591.631	42.67
591.824	42.64
592.018	42.56
592.212	42.58
592.405	42.66
592.599	42.76
592.792	42.8
592.986	42.68
593.179	43.04
593.372	43.17
593.566	43.19
593.759	43.03
593.953	43.13
594.146	42.9
594.339	42.95
594.533	42.84
594.726	42.82
594.92	42.83
595.113	42.7
595.306	42.32
595.499	42.42
595.693	42.38
595.886	42.48
596.079	42.27
596.272	42.38
596.466	42.42
596.659	42.34
596.852	42.47
597.045	42.48
597.238	42.68
597.431	42.91
597.624	42.77
597.818	42.73
598.011	42.7
598.204	42.86
598.397	42.89
598.59	42.89
598.783	43.09
598.976	42.91
599.169	43.17
599.362	43.07
599.555	42.79
599.748	42.94
599.941	42.79
600.134	42.85
600.326	42.82
600.519	42.66
600.712	42.53
600.905	42.49
601.098	42.47
601.291	42.27
601.483	42.3
601.676	42.43
601.869	42.24
602.062	42.43
602.255	42.37
602.447	42.26
602.64	42.56
602.833	42.76
603.025	42.68
603.218	42.52
603.411	42.53
603.603	42.65
603.796	42.62
603.989	42.66
604.181	42.59
604.374	42.8
604.566	42.93
604.759	42.73
604.951	42.7
605.144	42.75
605.336	42.89
605.529	42.92
605.721	42.85
605.914	42.69
606.106	42.63
606.299	42.59
606.491	42.42
606.683	42.44
606.876	42.4
607.068	42.45
607.26	42.55
607.453	42.68
607.645	42.71
607.837	42.6
608.03	42.83
608.222	43.08
608.414	43.32
608.606	43.45
608.799	43.27
608.991	43.62
609.183	43.61
609.375	43.72
609.567	43.94
609.759	43.92
609.952	44.16
610.144	44.14
610.336	44.27
610.528	44.27
610.72	44.39
610.912	44.54
611.104	44.49
611.296	44.41
611.488	44.27
611.68	43.84
611.872	43.73
612.064	43.67
612.256	43.46
612.448	43.25
612.64	42.75
612.832	42.64
613.023	42.77
613.215	42.42
613.407	42.4
613.599	42.33
613.791	42.39
613.983	42.58
614.174	42.57
614.366	42.92
614.558	42.82
614.75	43.26
614.941	43.31
615.133	43.27
615.325	43.41
615.516	43.58
615.708	43.74
615.9	44.05
616.091	43.95
616.283	44.09
616.475	43.99
616.666	44.22
616.858	44.03
617.049	43.84
617.241	43.68
617.432	43.75
617.624	43.68
617.815	43.45
618.007	43.42
618.198	43.42
618.39	43.3
618.581	43.44
618.773	43.13
618.964	43.27
619.155	43.62
619.347	43.62
619.538	43.61
619.729	43.87
619.921	44.13
620.112	43.89
620.303	43.8
620.494	43.47
620.686	43.4
620.877	43.83
621.068	43.91
621.259	43.54
621.451	43.74
621.642	43.76
621.833	43.55
622.024	43.35
622.215	43.82
622.406	43.98
622.597	44.26
622.788	44.39
622.98	44.04
623.171	44.37
623.362	44.51
623.553	44.53
623.744	44.63
623.935	44.46
624.126	44.5
624.317	43.79
624.508	44.08
624.698	44.25
624.889	43.91
625.08	43.83
625.271	43.46
625.462	43.44
625.653	43.39
625.844	43.27
626.034	43.63
626.225	43.78
626.416	44.22
626.607	43.83
626.798	43.51
626.988	43.89
627.179	44.09
627.37	44.39
627.56	44.57
627.751	44.41
627.942	44.77
628.132	44.5
628.323	44.45
628.514	44.33
628.704	44.59
628.895	44.55
629.085	44.36
629.276	44.62
629.466	44.51
629.657	44.15
629.847	44.43
630.038	44.04
630.228	44.23
630.419	44.12
630.609	44.2
630.8	43.84
630.99	44.05
631.181	44.18
631.371	43.78
631.561	43.74
631.752	43.85
631.942	43.83
632.132	43.95
632.323	44
632.513	44.29
632.703	44.23
632.893	44.47
633.084	44.52
633.274	44.33
633.464	44.52
633.654	44.62
633.844	44.66
634.034	44.57
634.225	44.35
634.415	44.33
634.605	43.78
634.795	43.9
634.985	43.95
635.175	44.19
635.365	44.39
635.555	44.23
635.745	44.03
635.935	43.89
636.125	43.97
636.315	44.22
636.505	44.07
636.695	44.55
636.885	44.53
637.075	44.74
637.265	44.53
637.455	44.56
637.644	44.62
637.834	44.44
638.024	44.64
638.214	44.62
638.404	44.54
638.593	44.41
638.783	44.32
638.973	44.68
639.163	44.33
639.352	44.17
639.542	44.18
639.732	44.48
639.921	44.66
640.111	44.73
640.301	44.53
640.49	44.65
640.68	45.1
640.87	45.23
641.059	45.05
641.249	45.31
641.438	45.39
641.628	45.2
641.817	44.91
642.007	44.78
642.196	44.77
642.386	44.85
642.575	43.89
642.764	43.67
642.954	43.66
643.143	43.8
643.333	43.74
643.522	43.54
643.711	43.73
643.901	43.57
644.09	43.84
644.279	43.57
644.469	43.97
644.658	44.68
644.847	44.5
645.036	44.24
645.226	43.9
645.415	43.84
645.604	44.38
645.793	44.21
645.982	44.26
646.171	44.32
646.361	44.53
646.55	44.45
646.739	44.97
646.928	45.31
647.117	45.31
647.306	45.31
647.495	45.09
647.684	44.54
647.873	44.88
648.062	44.91
648.251	44.93
648.44	44.8
648.629	44.82
648.818	44.78
649.007	44.86
649.196	45.27
649.384	45.04
649.573	45.4
649.762	45.83
649.951	45.72
650.14	45.38
650.328	45.21
650.517	45.34
650.706	44.99
650.895	44.53
651.083	44.25
651.272	44.06
651.461	44.21
651.65	43.66
651.838	43.89
652.027	43.72
652.216	44.26
652.404	44.26
652.593	44.52
652.781	44.43
652.97	44.48
653.158	44.84
653.347	44.95
653.535	44.91
653.724	45.42
653.912	45.03
654.101	45.32
654.289	44.94
654.478	45.09
654.666	45.04
654.855	45.82
655.043	46.17
655.231	45.85
655.42	45.67
655.608	45.67
655.796	45.78
655.985	45.94
656.173	45.85
656.361	45.64
656.55	45.56
656.738	45.31
656.926	44.81
657.114	44.66
657.302	44.32
657.491	44.61
657.679	44.68
657.867	44.86
658.055	45.05
658.243	44.83
658.431	44.94
658.619	45.19
658.807	45.13
658.996	45.18
659.184	44.99
659.372	45.06
659.56	44.7
659.748	45.04
659.936	44.8
660.124	44.62
660.311	44.86
660.499	45.07
660.687	44.88
660.875	44.98
661.063	44.77
661.251	44.97
661.439	45.21
661.627	45.62
661.814	45.62
662.002	45.8
662.19	45.62
662.378	45.64
662.565	45.71
662.753	45.72
662.941	45.96
663.129	45.78
663.316	45.92
663.504	46.17
663.692	45.5
663.879	45.48
664.067	45.22
664.254	45.48
664.442	45.12
664.63	45.05
664.817	44.66
665.005	44.54
665.192	44.85
665.38	44.33
665.567	44.65
665.755	45.17
665.942	44.44
666.13	44.24
666.317	44.17
666.504	43.78
666.692	43.43
666.879	44.01
667.067	44.1
667.254	44.24
667.441	44.46
667.629	43.75
667.816	43.84
668.003	44.41
668.19	44.86
668.378	44.9
668.565	45.33
668.752	45.3
668.939	45.41
669.127	45.12
669.314	44.9
669.501	45.02
669.688	45.54
669.875	45.13
670.062	44.77
670.249	44.66
670.436	44.61
670.623	44.9
670.81	45.37
670.997	44.99
671.184	45.13
671.371	45.27
671.558	45.02
671.745	44.47
671.932	44.96
672.119	44.81
672.306	44.49
672.493	44.92
672.68	44.87
672.867	44.81
673.054	44.82
673.24	44.93
673.427	44.95
673.614	45.5
673.801	45.68
673.988	45.22
674.174	45.87
674.361	46.2
674.548	45.49
674.734	45.6
674.921	45.61
675.108	45.51
675.294	45.55
675.481	45.54
675.668	45.11
675.854	45.51
676.041	45.59
676.227	45.28
676.414	44.84
676.601	45.2
676.787	45.3
676.974	44.77
677.16	45.07
677.347	45.18
677.533	45.12
677.719	45.09
677.906	44.63
678.092	45
678.279	45.51
678.465	45.55
678.651	45.44
678.838	45.08
679.024	45.74
679.21	45.79
679.397	45.93
679.583	45.39
679.769	45.63
679.955	45.45
680.142	45.34
680.328	45.3
680.514	45.62
680.7	45.85
680.886	45.92
681.073	45.78
681.259	45.44
681.445	44.77
681.631	45.28
681.817	45.3
682.003	45.38
682.189	45.38
682.375	44.93
682.561	44.96
682.747	44.73
682.933	44.64
683.119	44.51
683.305	44.63
683.491	45.04
683.677	45.09
683.863	45.24
684.049	45.36
684.235	45.16
684.42	45.53
684.606	45.44
684.792	45.35
684.978	45.31
685.164	45.7
685.349	45.87
685.535	45.88
685.721	45.98
685.907	45.8
686.092	46.54
686.278	46.98
686.464	46.89
686.649	46.48
686.835	46.86
687.021	46.89
687.206	46.57
687.392	46.56
687.577	46.16
687.763	46.6
687.948	45.99
688.134	45.55
688.319	45.41
688.505	45.19
688.69	45.31
688.876	44.57
689.061	45.47
689.247	45.25
689.432	44.74
689.618	44.93
689.803	44.47
689.988	45.35
690.174	45.34
690.359	45.27
690.544	45.25
690.73	45.65
690.915	46.01
691.1	45.14
691.285	45.01
691.471	45.69
691.656	45.9
691.841	45.79
692.026	45.24
692.211	44.76
692.396	44.33
692.582	44.54
692.767	44.05
692.952	44.24
693.137	44.01
693.322	44.45
693.507	44.04
693.692	43.93
693.877	43.93
694.062	43.98
694.247	44.99
694.432	45.88
694.617	45.53
694.802	46.18
694.987	46.37
695.172	46.95
695.357	47.34
695.541	47.83
695.726	47.83
695.911	48.34
696.096	48.37
696.281	47.65
696.466	47.31
696.65	47.71
696.835	47.57
697.02	47.52
697.204	47.44
697.389	46.92
697.574	46.35
697.759	46.26
697.943	46.04
698.128	46.09
698.312	46.09
698.497	45.85
698.682	45.49
698.866	45.19
699.051	44.98
699.235	44.73
699.42	45.12
699.604	45.35
699.789	45.58
699.973	45.28
700.158	45.35
700.342	45.61
700.527	45.64
700.711	45.45
700.895	45.44
701.08	44.83
701.264	44.85
701.448	44.94
701.633	45.15
701.817	44.46
702.001	44.3
702.186	44.41
702.37	44.34
702.554	44.17
702.738	44.89
702.923	45.53
703.107	46.76
703.291	46.57
703.475	45.5
703.659	44.96
703.843	45.68
704.027	46.51
704.212	46.25
704.396	45.55
704.58	45.53
704.764	45.54
704.948	45.07
705.132	44.61
705.316	45.7
705.5	46.24
705.684	46.98
705.868	47.5
706.052	47.4
706.235	47.4
706.419	48.13
706.603	48.93
706.787	48.02
706.971	48.21
707.155	49.04
707.339	48.79
707.522	48.62
707.706	47.86
707.89	47.49
708.074	47.67
708.257	47.87
708.441	48.02
708.625	47.48
708.808	48.84
708.992	48.46
709.176	47.76
709.359	47.28
709.543	47.44
709.727	47.72
709.91	47.97
710.094	47
710.277	46.91
710.461	45.81
710.644	45.69
710.828	44.78
711.011	45.16
711.195	44.84
711.378	44.69
711.562	44.08
711.745	43.69
711.928	43.36
712.112	43.94
712.295	43.23
712.478	44.11
712.662	44.07
712.845	44.14
713.028	43.85
713.212	43.94
713.395	43.8
713.578	43.74
713.761	44.19
713.945	44.54
714.128	44.3
714.311	45.13
714.494	45.12
714.677	45.09
714.86	45.84
715.043	45.41
715.227	45.31
715.41	45.49
715.593	46.28
715.776	45.85
715.959	46.33
716.142	46.21
716.325	46.05
716.508	45.82
716.691	45.71
716.874	45.13
717.057	45.45
717.239	45.4
717.422	45.39
717.605	45.29
717.788	45.94
717.971	45.42
718.154	45.75
718.337	45.74
718.519	45.76
718.702	45.72
718.885	45.86
719.068	46.41
719.25	47.04
719.433	47.33
719.616	47
719.798	47.27
719.981	46.56
720.164	46.16
720.346	46.12
720.529	45.11
720.712	45.61
720.894	45.29
721.077	44.16
721.259	43.35
721.442	42.94
721.624	42.92
721.807	42.13
721.989	42.67
722.172	43.38
722.354	43.46
722.537	44.71
722.719	45.33
722.901	45.7
723.084	47.57
723.266	47.3
723.448	47.34
723.631	48.15
723.813	49.03
723.995	47.27
724.178	47.5
724.36	48.27
724.542	47.78
724.724	47.04
724.907	46.9
725.089	45.59
725.271	46.41
725.453	46.49
725.635	45.31
725.817	44.29
725.999	45.21
726.181	45.22
726.364	44.43
726.546	44.85
726.728	44.75
726.91	43.8
727.092	44.38
727.274	44.71
727.456	44.66
727.638	45.65
727.819	46.32
728.001	47.08
728.183	46.37
728.365	47.24
728.547	47.38
728.729	46.98
728.911	47.25
729.093	47.12
729.274	46.44
729.456	46.5
729.638	45.98
729.82	45.48
730.001	44.9
730.183	45.82
730.365	43.98
730.546	43.92
730.728	44.82
730.91	45.3
731.091	44.35
731.273	45.16
731.455	45.32
731.636	45.71
731.818	45.8
731.999	46.11
732.181	45.29
732.362	46.48
732.544	45.81
732.725	44.88
732.907	45.18
733.088	45.65
733.27	45.03
733.451	45.07
733.633	44.58
733.814	44.58
733.995	44.58
734.177	43.97
734.358	44.84
734.539	45.5
734.721	45.89
734.902	45.21
735.083	45.56
735.264	45.97
735.446	46.67
735.627	47.81
735.808	48.22
735.989	46.56
736.17	47.43
736.351	46.47
736.533	46.06
736.714	45.75
736.895	46.6
737.076	47.01
737.257	46.34
737.438	45.3
737.619	44.19
737.8	44.41
737.981	45.94
738.162	45.86
738.343	45.51
738.524	46.29
738.705	46.53
738.886	45.3
739.067	44.15
739.247	44.22
739.428	43.57
739.609	43.53
739.79	43.33
739.971	43.86
740.151	43.74
740.332	43.61
740.513	44.18
740.694	44.41
740.874	45.13
741.055	45.54
741.236	46.15
741.417	47.36
741.597	48.3
741.778	48.46
741.958	47.41
742.139	47.7
742.32	47.68
742.5	47.35
742.681	46.29
742.861	46.15
743.042	45.42
743.222	45.52
743.403	45
743.583	44.01
743.764	43.82
743.944	44.23
744.124	44.01
744.305	44.55
744.485	44.45
744.666	45.08
744.846	45.15
745.026	45.73
745.207	45.82
745.387	45.55
745.567	45.76
745.747	45.89
745.928	46.58
746.108	46.01
746.288	45.66
746.468	44.75
746.648	45.58
746.829	45.43
747.009	45.22
747.189	43.87
747.369	43.75
747.549	44.85
747.729	44.07
747.909	45.01
748.089	45.49
748.269	46.27
748.449	46.89
748.629	46.45
748.809	47.29
748.989	48.29
749.169	49.55
749.349	50.58
749.529	50.15
749.709	50.33
749.889	49.43
750.068	49.41
750.248	48.55
750.428	47.05
750.608	46.82
750.788	46.03
750.967	44.56
751.147	43.56
751.327	44.15
751.507	43.62
751.686	44.85
751.866	45.41
752.046	45.34
752.225	45.91
752.405	47.37
752.585	47.66
752.764	48.8
752.944	50.29
753.123	51
753.303	49.74
753.482	48.49
753.662	47.33
753.841	46.39
754.021	45.79
754.2	45.47
754.38	45.75
754.559	46.15
754.739	45.38
754.918	45.2
755.097	44.66
755.277	44.98
755.456	45.85
755.635	45.62
755.815	44.95
755.994	45.75
756.173	45.72
756.352	44.99
756.532	45.16
756.711	46.36
756.89	45.84
757.069	46.36
757.248	46.23
757.427	47.16
757.607	46.21
757.786	47.8
757.965	48.62
758.144	48.37
758.323	48.73
758.502	48.82
758.681	47.71
758.86	48.07
759.039	48.1
759.218	47.55
759.397	47.4
759.576	47.43
759.755	46.26
759.934	46.66
760.113	46.83
760.291	46.52
760.47	45.81
760.649	45.58
760.828	44.96
761.007	44.58
761.186	46.11
761.364	45.92
761.543	47.38
761.722	46.79
761.901	45.93
762.079	46.63
762.258	46.61
762.437	46.95
762.615	47.29
762.794	48.25
762.972	48.2
763.151	47.16
763.33	47.5
763.508	47.34
763.687	47.74
763.865	46.88
764.044	46.44
764.222	46.13
764.401	45.59
764.579	46.15
764.758	45.46
764.936	45.52
765.114	45.77
765.293	44.91
765.471	44.86
765.65	44.57
765.828	45.24
766.006	45.18
766.184	45.72
766.363	46.05
766.541	45.31
766.719	46.13
766.898	46.39
767.076	46.22
767.254	47.03
767.432	47.43
767.61	47.64
767.788	48.04
767.967	47.98
768.145	48.17
768.323	47.37
768.501	47.22
768.679	47.06
768.857	47.12
769.035	46.4
769.213	45.93
769.391	44.28
769.569	44.85
769.747	43.58
769.925	43.87
770.103	43.07
770.281	43.29
770.459	41.49
770.636	41.56
770.814	42.25
770.992	42.57
771.17	42.27
771.348	43.33
771.525	43.86
771.703	43.67
771.881	43.97
772.059	44.01
772.236	45.2
772.414	46.61
772.592	47.06
772.769	46.7
772.947	48.06
773.125	49.37
773.302	48.09
773.48	47.52
773.657	47.96
773.835	48.06
774.013	47.97
774.19	46.03
774.368	46.21
774.545	44.06
774.723	41.56
774.9	39.84
775.077	38.97
775.255	41.37
775.432	40.04
775.61	42.25
775.787	41.5
775.964	43.5
776.142	44.02
776.319	43.73
776.496	43.38
776.674	45.14
776.851	46.57
777.028	47.4
777.205	45.76
777.382	47.07
777.56	45.53
777.737	45.87
777.914	43.99
778.091	44.68
778.268	44.93
778.445	46.84
778.622	46.53
778.8	46.43
778.977	46.59
779.154	46.34
779.331	46.36
779.508	47.45
779.685	45.82
779.862	46.04
780.038	45.81
780.215	47.25
780.392	45.1
780.569	43.75
780.746	44.14
780.923	43.68
781.1	44.82
781.277	45.44
781.453	46.13
781.63	48.6
781.807	50.12
781.984	50.79
782.16	49.54
782.337	52.56
782.514	53.3
782.691	52.59
782.867	50.76
783.044	49.76
783.221	49.21
783.397	46.93
783.574	44.24
783.75	42.38
783.927	43.6
784.103	44.04
784.28	43.5
784.456	43.79
784.633	43.73
784.809	45.91
784.986	47.65
785.162	45.67
785.339	47.49
785.515	48.08
785.692	51.79
785.868	50.23
786.044	49.71
786.221	47.14
786.397	47.33
786.573	46.7
786.749	45.84
786.926	45.11
787.102	46.48
787.278	47.2
787.454	46.86
787.631	42.01
787.807	41.66
787.983	41.81
788.159	41.91
788.335	40.43
788.511	41.98
788.687	39.7
788.863	39.79
789.039	40.98
789.216	38.8
789.392	39.29
789.568	40.75
789.744	42.07
789.919	41.6
790.095	44.32
790.271	46.69
790.447	45.34
790.623	50.09
790.799	53.02
790.975	50.73
791.151	51.75
791.327	53.96
791.502	54.25
791.678	51.43
791.854	50.23
792.03	50.33
792.205	51.55
792.381	52.33
792.557	51.72
792.733	49.69
792.908	51.91
793.084	52.43
793.259	50.86
793.435	53.42
793.611	58.46
793.786	60.82
793.962	56.74
794.137	56.82
794.313	57.72
794.488	56.38
794.664	55.3
794.839	53.25
795.015	52.63
795.19	53.51
795.366	50.54
795.541	48.84
795.716	47.77
795.892	47.3
796.067	46.27
796.242	47.01
796.418	45.65
796.593	45.36
796.768	44.43
796.944	43.82
797.119	43.66
797.294	42.45
797.469	44.54
797.644	45.29
797.82	46.88
797.995	45.71
798.17	43.26
798.345	44.02
798.52	44.72
798.695	44.08
798.87	43.08
799.045	42.07
799.22	44.83
799.395	43.99
799.57	47.11
799.745	47.6
799.92	49.07
800.095	50.8
800.27	50.6
800.445	47.61
800.62	49.72
800.795	50.87
800.97	52.01
801.145	53.99
801.319	53.53
801.494	48.36
801.669	49.57
801.844	50.41
802.018	51.83
802.193	54.76
802.368	58.21
802.543	57.21
802.717	58.59
802.892	60.29
803.067	56.01
803.241	57.48
803.416	60.42
803.59	59.23
803.765	58.2
803.94	53.91
804.114	48.73
804.289	47.11
804.463	47.66
804.638	44.33
804.812	40.36
804.986	44.76
805.161	42.21
805.335	42.1
805.51	41.45
805.684	40.97
805.858	42.86
806.033	45.48
806.207	43.89
806.381	44.28
806.556	47.95
806.73	48.75
806.904	46.07
807.078	43.48
807.253	43.54
807.427	42.75
807.601	41.97
807.775	41.7
807.949	43.04
808.123	46.47
808.298	47.47
808.472	44.29
808.646	41.89
808.82	39.34
808.994	38.77
809.168	37.57
809.342	39.27
809.516	42.51
809.69	37.53
809.864	34.87
810.038	34.75
810.212	33.87
810.385	34.94
810.559	39.8
810.733	41.86
810.907	43.99
811.081	44.25
811.255	44.31
811.428	41.45
811.602	48.02
811.776	51.93
811.95	53.53
812.123	56.05
812.297	56.32
812.471	55.01
812.644	55.29
812.818	54.17
812.992	53.19
813.165	51.67
813.339	56.44
813.512	54.42
813.686	55.66
813.86	51.96
814.033	45.71
814.207	46.02
814.38	48.89
814.554	53.04
814.727	57.62
814.9	61.62
815.074	65.91
815.247	62.53
815.421	63.1
815.594	60.1
815.767	59.19
815.941	63.77
816.114	62.27
816.287	62.88
816.46	56.67
816.634	55.94
816.807	54.22
816.98	50.59
817.153	49.23
817.327	49.73
817.5	50.1
817.673	53.28
817.846	51.72
818.019	56.17
818.192	50.4
818.365	56.22
818.538	57.14
818.711	52.78
818.884	51.23
819.057	48.94
819.23	48.9
819.403	45.9
819.576	43.58
819.749	43.71
819.922	39.38
820.095	40.72
820.268	35.76
820.441	34.48
820.614	39.05
820.786	40.04
820.959	43.05
821.132	41.94
821.305	42.87
821.477	43.96
821.65	43.21
821.823	43.16
821.996	44.4
822.168	45.1
822.341	45.15
822.514	44.52
822.686	44.79
822.859	44.79
823.031	45.17
823.204	44.44
823.376	43.84
823.549	44.49
823.722	44.79
823.894	44.44
824.067	44.91
824.239	44.59
824.411	45.01
824.584	44.61
824.756	44.61
824.929	44.66
825.101	45.26
825.273	45.9
825.446	45.73
825.618	45.42
825.79	45.52
825.963	44.13
826.135	43.89
826.307	43.79
826.479	43.31
826.652	42.63
826.824	42.14
826.996	41.54
827.168	41.01
827.34	40.91
827.512	42.19
827.684	41.61
827.856	42.3
828.029	42.6
828.201	41.32
828.373	41.81
828.545	42.05
828.717	41.21
828.889	42.25
829.061	42.57
829.232	42.56
829.404	40.86
829.576	41.07
829.748	41.15
829.92	41.96
830.092	43.28
830.264	42.54
830.436	42.62
830.607	43.68
830.779	42.44
830.951	43.55
831.123	43.42
831.294	43.38
831.466	42.15
831.638	40.89
831.809	38.58
831.981	39.1
832.153	40.38
832.324	38.82
832.496	37.44
832.667	37.35
832.839	36.34
833.011	37.72
833.182	38.61
833.354	38.12
833.525	40.43
833.697	44.51
833.868	44.23
834.039	44.88
834.211	47.06
834.382	49.02
834.554	49.75
834.725	50.27
834.896	49.51
835.068	50.16
835.239	51.02
835.41	50.89
835.581	49.38
835.753	48.58
835.924	47.59
836.095	47.54
836.266	47.89
836.438	48.47
836.609	46.5
836.78	48.1
836.951	47.34
837.122	46.75
837.293	48.51
837.464	50.74
837.635	50.85
837.806	51.6
837.977	48.18
838.148	46.26
838.319	42.59
838.49	47.67
838.661	44.78
838.832	39.31
839.003	39.24
839.174	32.08
839.345	21.48
839.516	11.85
839.687	7.41
839.857	18.37
840.028	24.03
840.199	29.75
840.37	28.51
840.54	34.56
840.711	41.77
840.882	40.62
841.053	39.83
841.223	43.73
841.394	55.66
841.564	55.6
841.735	51.73
841.906	48.62
842.076	40.83
842.247	43.42
842.417	36.47
842.588	38.3
842.758	42.07
842.929	45.08
843.099	41.78
843.27	36.76
843.44	38.21
843.611	38.64
843.781	30.08
843.951	36.52
844.122	30.91
844.292	33.47
844.462	27.39
844.633	29.67
844.803	38.41
844.973	44.86
845.144	42.48
845.314	42.14
845.484	53.69
845.654	72.19
845.824	82.13
845.995	84.35
846.165	88.13
846.335	108.03
846.505	109.13
846.675	89.78
846.845	96.59
847.015	92.17
847.185	94.07
847.355	65.16
847.525	63.07
847.695	46.46
847.865	27.26
848.035	27.51
848.205	0.93
848.375	11.85
848.545	23.77
848.715	9.47
848.884	8.78
849.054	-25.26
849.224	2.07
849.394	5.73
849.564	40.03
849.733	80.32
849.903	62.56
850.073	61.67
850.243	65.89
850.412	54.53
850.582	68.81
850.752	44.95
850.921	82.06
851.091	60.82
851.26	49.43
851.43	51.72
851.599	38.21
851.769	44.75
851.939	48.78
852.108	27.43
852.278	42.12
852.447	10.21
852.616	53.55
852.786	35.97
852.955	55.62
853.125	67.77
853.294	71.52
853.463	57.54
853.633	68.12
853.802	75.35
853.971	65.31
854.141	51.81
854.31	69.56
854.479	75.98
854.648	61.15
854.818	28.29
854.987	-7.31
855.156	-28.21
855.325	8.2
855.494	12.53
855.663	-10.5
855.832	-8.64
856.001	0.52
856.171	10.64
856.34	0.55
856.509	15.22
856.678	38.85
856.847	69.84
857.016	61.15
857.185	48.09
857.353	29.99
857.522	47.06
857.691	47.52
857.86	47.57
858.029	50.39
858.198	59.23
858.367	57.17
858.535	51.4
858.704	41.09
858.873	49.55
859.042	51.87
859.21	57.45
859.379	48.14
859.548	47.78
859.717	39.4
859.885	41.32
860.054	29
860.222	15.93
860.391	12.54
860.56	21.08
860.728	17.8
860.897	24.63
861.065	30.89
861.234	34.37
861.402	31.7
861.571	33.88
861.739	30.55
861.908	42.08
862.076	40.78
862.244	43.39
862.413	32.14
862.581	32.78
862.749	-21.58
862.918	-53.16
863.086	-117.04
863.254	-140.43
863.423	-241.46
863.591	-98.89
863.759	-318.04
863.927	-288.21
864.096	-642.68
864.264	118.28
864.432	45.81
864.6	780.08
864.768	304.68
864.936	240.94
865.104	230.64
865.272	164.91
865.44	180.5
865.608	186.3
865.776	201.11
865.944	157.64
866.112	131.95
866.28	99.6
866.448	83.59
866.616	88.12
866.784	81.96
866.952	48.25
867.12	32.07
867.288	35.42
867.455	30.36
867.623	29.6
867.791	33.93
867.959	16.98
868.127	27.18
868.294	33
868.462	12.02
868.63	-5.71
868.797	-2.3
868.965	-14.47
869.133	-26.26
869.3	-50.01
869.468	-16.14
869.636	-17.77
869.803	-11.87
869.971	-4.29
870.138	-5.39
870.306	9.64
870.473	22.17
870.641	31.27
870.808	38.82
870.975	33.24
871.143	43.42
871.31	79.28
871.478	140.47
871.645	79.81
871.812	70.71
871.98	81.54
872.147	106
872.314	104.17
872.482	99.17
872.649	118.47
872.816	131.34
872.983	224.5
873.15	86.83
873.318	56.49
873.485	65.95
873.652	131.29
873.819	99.23
873.986	86.52
874.153	94.13
874.32	95.26
874.487	92.97
874.654	84.81
874.821	67.08
874.988	79.03
875.155	82.02
875.322	69.68
875.489	60.21
875.656	64.05
875.823	60.12
875.99	59.86
876.157	61.09
876.324	62.68
876.49	54.5
876.657	65.5
876.824	56.07
876.991	51.01
877.157	50.6
877.324	45.58
877.491	49.15
877.658	30.44
877.824	30.14
877.991	21.7
878.157	13.66
878.324	21.31
878.491	30.91
878.657	30.2
878.824	25.17
878.99	39.48
879.157	49.33
879.323	33.44
879.49	51.19
879.656	42.01
879.823	44.96
879.989	47.19
880.156	36.52
880.322	37.38
880.488	38.44
880.655	57.51
880.821	56.39
880.987	61.23
881.154	54.23
881.32	49.35
881.486	40.29
881.652	43.39
881.819	46.25
881.985	47.46
882.151	42.27
882.317	41.13
882.483	36.99
882.649	38.24
882.816	36.96
882.982	40.96
883.148	39.65
883.314	41.7
883.48	41.7
883.646	40.33
883.812	41.44
883.978	41.69
884.144	42.18
884.31	42.82
884.476	41.87
884.642	42.06
884.807	41.07
884.973	43.76
885.139	44.66
885.305	45.06
885.471	45.89
885.637	45.37
885.802	44.6
885.968	44.73
886.134	46.51
886.3	46.89
886.465	47.16
886.631	49.82
886.797	48.6
886.962	46.87
887.128	43.55
887.293	41.48
887.459	39.49
887.625	45.11
887.79	51.8
887.956	53.38
888.121	57.68
888.287	58.71
888.452	49.96
888.618	59.03
888.783	68.61
