Data from CB_101_Reflection_3.txt Node
Date: Sat Nov 14 17:47:48 EST 2015
User: robert
Spectrometer: USB4E03001
Autoset integration time: false
Trigger mode: 4
Integration Time (sec): 1.000000E-1
Scans to average: 15
Electric dark correction enabled: true
Nonlinearity correction enabled: false
Boxcar width: 5
Stray light correction enabled: false
XAxis mode: Wavelengths
Stop averaging: false
Number of Pixels in Spectrum: 3648
>>>>>Begin Spectral Data<<<<<
177.566	36.2
177.785	643.84
178.005	-193.42
178.225	-40.23
178.445	1406.32
178.665	-123.5
178.885	122.68
179.105	33.79
179.324	34.97
179.544	51.58
179.764	48.5
179.984	57.2
180.204	15.22
180.423	8.36
180.643	25.78
180.863	33.25
181.083	9.59
181.302	24.75
181.522	42.86
181.742	22.4
181.961	10.34
182.181	-20.76
182.401	-209.4
182.621	-25.36
182.84	-4.32
183.06	5.52
183.279	-3
183.499	27.66
183.719	-45.19
183.938	-70.92
184.158	-8.84
184.377	10.33
184.597	9.07
184.816	20.32
185.036	15.9
185.256	4.36
185.475	1.96
185.695	-15.74
185.914	-6
186.134	14.63
186.353	25.2
186.572	10.84
186.792	22.31
187.011	34.37
187.231	31.8
187.45	41.31
187.67	49.1
187.889	57.22
188.108	77.06
188.328	90.89
188.547	96.47
188.766	98.56
188.986	87.12
189.205	71.08
189.424	45.12
189.644	58.27
189.863	59.6
190.082	57.07
190.302	55.27
190.521	43.79
190.74	23.82
190.959	13.35
191.178	31.8
191.398	20.68
191.617	46.69
191.836	89.04
192.055	34.52
192.274	-5.03
192.494	11.02
192.713	-77.98
192.932	-56.58
193.151	-88.82
193.37	-57.55
193.589	-91.07
193.808	-77.3
194.027	-391.14
194.246	1377.22
194.465	-1542.81
194.685	-8.27
194.904	-8.85
195.123	5.84
195.342	20.87
195.561	31.35
195.78	45.86
195.999	66.39
196.218	61.48
196.436	75.27
196.655	72.21
196.874	77.81
197.093	69.98
197.312	59.28
197.531	75.34
197.75	82.55
197.969	90.64
198.188	86.8
198.407	65.81
198.625	85.21
198.844	86.6
199.063	82.93
199.282	94.09
199.501	113.73
199.719	113.77
199.938	88.64
200.157	59.92
200.376	47.44
200.594	60.41
200.813	79.73
201.032	49.51
201.251	37.83
201.469	39.38
201.688	47.48
201.907	42.17
202.125	48.99
202.344	64.29
202.563	76.27
202.781	65.83
203	78.63
203.218	86.58
203.437	98.69
203.656	109.09
203.874	75.07
204.093	68.6
204.311	83.87
204.53	89.83
204.748	75.11
204.967	89.11
205.185	116.06
205.404	88.76
205.622	57.42
205.841	53.8
206.059	21.26
206.278	57.69
206.496	41.26
206.715	49.17
206.933	30.96
207.151	38.93
207.37	24.7
207.588	29.16
207.806	46.98
208.025	58
208.243	61.03
208.461	88.83
208.68	69.56
208.898	76.4
209.116	70.8
209.335	87.91
209.553	95.67
209.771	110.04
209.989	95.86
210.208	80.63
210.426	70.56
210.644	66.19
210.862	57.94
211.081	56.97
211.299	64.35
211.517	61.49
211.735	51.03
211.953	44.82
212.171	44.28
212.39	48.23
212.608	56.56
212.826	59.06
213.044	68.59
213.262	73.09
213.48	79.33
213.698	65.8
213.916	73.98
214.134	54.53
214.352	61.21
214.57	52.38
214.788	67.38
215.006	88.28
215.224	100.03
215.442	99.45
215.66	92.28
215.878	80.11
216.096	91.31
216.314	62.74
216.532	117.18
216.75	109.22
216.968	113.89
217.185	97.87
217.403	65.08
217.621	87.67
217.839	88.1
218.057	57.82
218.275	54.92
218.492	50.02
218.71	107.19
218.928	98.94
219.146	109.34
219.363	88.38
219.581	86.29
219.799	94.84
220.017	77.64
220.234	80.64
220.452	122.35
220.67	169.46
220.887	285.72
221.105	352.47
221.323	5406.13
221.54	584.67
221.758	3741.43
221.976	1635.37
222.193	372.86
222.411	499.63
222.629	839.29
222.846	835.98
223.064	-763.51
223.281	780.45
223.499	520.62
223.716	629.55
223.934	-261.14
224.151	-16.15
224.369	8.28
224.586	43.65
224.804	62.48
225.021	62.89
225.239	47.4
225.456	64.5
225.674	47.31
225.891	24.67
226.108	-21.05
226.326	-39.94
226.543	-27
226.76	-9.4
226.978	4.79
227.195	-7.46
227.413	-6.14
227.63	-0.48
227.847	1.89
228.064	8.19
228.282	9.92
228.499	16.02
228.716	12.54
228.934	7.34
229.151	6.04
229.368	3.69
229.585	0.85
229.802	1.52
230.02	2.29
230.237	1.96
230.454	2.33
230.671	1.31
230.888	-2.9
231.105	-6.72
231.323	-4.14
231.54	-15.29
231.757	-22.67
231.974	-18.9
232.191	-21.65
232.408	-27.61
232.625	-25.54
232.842	-25.58
233.059	-19.96
233.276	-17.7
233.493	-7.62
233.71	-1.72
233.927	10.56
234.144	12.84
234.361	7.79
234.578	8.8
234.795	12.29
235.012	9.07
235.229	5.19
235.446	3.75
235.663	1.14
235.879	-4.87
236.096	-11.13
236.313	-10.31
236.53	-8
236.747	-8.61
236.964	-10.42
237.181	-9.13
237.397	-9.99
237.614	-11.47
237.831	-11.79
238.048	-8.69
238.264	-11.29
238.481	-13.18
238.698	-14.76
238.915	-9.42
239.131	-5.84
239.348	-7.64
239.565	-10.61
239.781	-5.03
239.998	-3.68
240.215	-1.37
240.431	-2.74
240.648	6.49
240.865	8.89
241.081	11.05
241.298	10.97
241.514	10.66
241.731	11.63
241.947	11.96
242.164	10.25
242.38	11.11
242.597	10.62
242.814	14.31
243.03	11.01
243.246	10.88
243.463	11.03
243.679	9.8
243.896	10.41
244.112	9.01
244.329	9.22
244.545	12.71
244.762	13.64
244.978	16.31
245.194	10.43
245.411	12.15
245.627	13.18
245.843	11.69
246.06	10.33
246.276	10.83
246.492	11.31
246.709	10.4
246.925	9.09
247.141	8.72
247.357	8.45
247.574	9.06
247.79	9.42
248.006	8.93
248.222	8.98
248.439	9.38
248.655	8.41
248.871	8.06
249.087	8.19
249.303	8.05
249.519	6.86
249.736	4.48
249.952	4.66
250.168	5.24
250.384	3.52
250.6	3.48
250.816	2.55
251.032	3.4
251.248	3.34
251.464	2.77
251.68	2.17
251.896	2.39
252.112	1.46
252.328	2.24
252.544	-2.14
252.76	-0.68
252.976	-1.89
253.192	-1.93
253.408	-2.27
253.624	-0.52
253.84	0.71
254.056	0.47
254.272	2.54
254.487	5.22
254.703	5.03
254.919	7.58
255.135	6.05
255.351	3.42
255.567	5.61
255.782	5.52
255.998	4.17
256.214	-0.1
256.43	4.15
256.646	1.48
256.861	3.38
257.077	-0.84
257.293	2.62
257.508	4.42
257.724	5.61
257.94	6.32
258.155	5.55
258.371	4.78
258.587	5.21
258.802	3.85
259.018	5.32
259.234	5.8
259.449	6.33
259.665	5.92
259.88	5.74
260.096	6.57
260.312	6.16
260.527	6.83
260.743	6.6
260.958	7.72
261.174	8.53
261.389	8.56
261.605	8.21
261.82	7.92
262.036	7.77
262.251	6.88
262.466	6.66
262.682	6.69
262.897	6.23
263.113	7.36
263.328	7.07
263.543	5.99
263.759	4.05
263.974	3.57
264.189	4.05
264.405	3.47
264.62	7.59
264.835	8.13
265.051	9.73
265.266	9.36
265.481	10.62
265.696	9.44
265.912	10.03
266.127	11.31
266.342	11.11
266.557	11.38
266.773	10.26
266.988	8.1
267.203	7.47
267.418	6.2
267.633	6.08
267.848	5.4
268.064	5.6
268.279	4.56
268.494	3.94
268.709	3.53
268.924	5.3
269.139	5.38
269.354	5.95
269.569	6.04
269.784	5.78
269.999	5.31
270.214	5.24
270.429	2.65
270.644	2.44
270.859	3.85
271.074	3.96
271.289	2.74
271.504	4.79
271.719	5.7
271.934	4.85
272.149	5.83
272.363	5.77
272.578	6.32
272.793	7.74
273.008	7.65
273.223	7.24
273.438	7.09
273.653	7.83
273.867	6.23
274.082	5.16
274.297	5.71
274.512	3.84
274.726	3.73
274.941	3.28
275.156	4.77
275.371	5.19
275.585	4.47
275.8	4.4
276.015	3.96
276.229	5.39
276.444	5.63
276.659	5.35
276.873	6.95
277.088	7.44
277.302	6.85
277.517	6.12
277.732	5.57
277.946	6.37
278.161	6.12
278.375	5.74
278.59	6.57
278.804	5.72
279.019	6.65
279.233	6.24
279.448	5.48
279.662	5.73
279.877	5.07
280.091	5.74
280.306	4.9
280.52	6.19
280.735	5.14
280.949	4.96
281.163	5.26
281.378	4.64
281.592	5.18
281.806	6.12
282.021	5.63
282.235	5.9
282.449	5.85
282.664	6.45
282.878	5.75
283.092	5.87
283.307	5.32
283.521	5.17
283.735	5.65
283.949	5.48
284.164	5.24
284.378	6.45
284.592	7.26
284.806	7.6
285.02	7.6
285.234	8.18
285.449	8.98
285.663	8.85
285.877	8.76
286.091	8.84
286.305	8.35
286.519	7.79
286.733	6.84
286.947	6.7
287.161	7.12
287.375	6.87
287.589	7.12
287.803	6.9
288.017	6.8
288.231	7.43
288.445	6.96
288.659	7.26
288.873	8.68
289.087	8.73
289.301	7.15
289.515	7.09
289.729	6.31
289.943	5.45
290.157	4.81
290.371	6.36
290.584	6.79
290.798	6.51
291.012	6.94
291.226	7.07
291.44	6.53
291.654	7.1
291.867	6.74
292.081	8.1
292.295	8.45
292.509	8.49
292.722	7.58
292.936	7.43
293.15	8.36
293.364	8.67
293.577	6.48
293.791	9.13
294.005	10.05
294.218	9.8
294.432	9.3
294.645	9.97
294.859	11.81
295.073	11.59
295.286	11.69
295.5	10.95
295.713	10.24
295.927	11.45
296.14	10.16
296.354	9.48
296.568	9.25
296.781	9.67
296.994	9.35
297.208	8.17
297.421	8.87
297.635	8.54
297.848	8.9
298.062	8.82
298.275	9.72
298.489	9.68
298.702	9.87
298.915	10.26
299.129	10.4
299.342	10.73
299.555	10.51
299.769	9.1
299.982	9.27
300.195	8.71
300.409	9.51
300.622	8.19
300.835	8.99
301.048	8.79
301.262	8.45
301.475	7.52
301.688	6.19
301.901	7.22
302.115	6.61
302.328	6.67
302.541	6.69
302.754	6.65
302.967	6.87
303.18	5.79
303.393	6.68
303.607	6.16
303.82	7.77
304.033	9.21
304.246	9.76
304.459	10.53
304.672	10.7
304.885	10.86
305.098	10.16
305.311	8.94
305.524	9.11
305.737	7.8
305.95	8.33
306.163	6.57
306.376	5.02
306.589	4.24
306.802	2.79
307.015	2.47
307.228	3
307.44	4.75
307.653	6.66
307.866	8
308.079	8.64
308.292	9.74
308.505	9.92
308.718	10.67
308.93	12.26
309.143	13.31
309.356	13.24
309.569	13.28
309.781	12.91
309.994	12.53
310.207	11.74
310.42	11.67
310.632	11.48
310.845	12.06
311.058	13.19
311.27	12.69
311.483	13.06
311.696	13.53
311.908	14.16
312.121	13.32
312.333	13.72
312.546	13.81
312.759	13.85
312.971	12.78
313.184	12.54
313.396	11.7
313.609	10.79
313.821	11.16
314.034	9.67
314.246	8.57
314.459	9.44
314.671	7.66
314.884	7.32
315.096	7.99
315.309	8.3
315.521	8.3
315.733	7.79
315.946	7.93
316.158	7.48
316.371	8.8
316.583	8.35
316.795	9.03
317.008	10.92
317.22	11.27
317.432	10.3
317.644	10.15
317.857	11.25
318.069	11.67
318.281	11.24
318.494	10.35
318.706	9.11
318.918	10.32
319.13	9.14
319.342	9.41
319.555	9.5
319.767	10.76
319.979	10.69
320.191	9.65
320.403	9.12
320.615	9.67
320.827	9.62
321.039	10.79
321.252	11.16
321.464	12.28
321.676	12.09
321.888	12.07
322.1	11.03
322.312	11.35
322.524	11.58
322.736	11.57
322.948	11.14
323.16	12.47
323.372	12.43
323.584	11.92
323.796	9.88
324.007	9.56
324.219	9.74
324.431	9.44
324.643	9.45
324.855	10
325.067	11.04
325.279	11.67
325.491	12.56
325.702	12.67
325.914	11.67
326.126	13.24
326.338	14.05
326.55	15.95
326.761	16.82
326.973	17.25
327.185	17.3
327.396	18.1
327.608	18.45
327.82	18.62
328.032	19.69
328.243	21.78
328.455	22.74
328.666	22.88
328.878	22.09
329.09	21.99
329.301	23.02
329.513	23.17
329.725	22.37
329.936	22.53
330.148	20.73
330.359	18.93
330.571	18.86
330.782	19.01
330.994	19.93
331.205	20.36
331.417	21.25
331.628	21.52
331.84	21.19
332.051	20.41
332.262	21.74
332.474	22.42
332.685	23.23
332.897	23.12
333.108	23
333.319	22.05
333.531	21.71
333.742	21.64
333.953	22.17
334.165	21.82
334.376	22.41
334.587	21.99
334.799	23.29
335.01	24.05
335.221	24.91
335.432	25.31
335.644	25.45
335.855	26.05
336.066	26.6
336.277	25.94
336.488	26.29
336.7	26.27
336.911	25.72
337.122	25.25
337.333	25.64
337.544	24.89
337.755	23.47
337.966	23.88
338.177	23.48
338.388	22.97
338.599	23.21
338.811	23.81
339.022	23.92
339.233	24.64
339.444	24.84
339.655	24.79
339.866	24.31
340.076	25.16
340.287	24.3
340.498	24.22
340.709	24.45
340.92	24.78
341.131	24.13
341.342	24.82
341.553	24.51
341.764	24.37
341.975	24.8
342.185	25.05
342.396	25.23
342.607	25.53
342.818	26.06
343.029	25.93
343.239	24.93
343.45	25.19
343.661	24.7
343.872	23.96
344.082	23.46
344.293	22.66
344.504	23
344.714	23.37
344.925	23.47
345.136	23.48
345.346	23.45
345.557	24.02
345.768	24.33
345.978	23.77
346.189	23.91
346.399	24.43
346.61	24.34
346.821	24.28
347.031	24.1
347.242	24.54
347.452	23.67
347.663	23.25
347.873	22.92
348.084	22.77
348.294	23.19
348.504	23.31
348.715	23.03
348.925	23.1
349.136	22.82
349.346	22.29
349.557	22.39
349.767	22.68
349.977	23.33
350.188	22.23
350.398	22.09
350.608	22.65
350.819	23.03
351.029	22.66
351.239	22.89
351.449	22.67
351.66	22.84
351.87	22.52
352.08	22.09
352.29	21.95
352.501	23.65
352.711	23.55
352.921	23.27
353.131	22.42
353.341	23.08
353.552	22.42
353.762	23.07
353.972	23.47
354.182	22.42
354.392	23.19
354.602	23.05
354.812	22.77
355.022	22.64
355.232	22.86
355.442	23.41
355.652	22.81
355.862	22.61
356.072	21.83
356.282	21.73
356.492	22.6
356.702	21.86
356.912	22.24
357.122	22.33
357.332	22.51
357.542	21.57
357.752	21.73
357.962	21.76
358.171	22.06
358.381	22.82
358.591	22.12
358.801	21.65
359.011	21.74
359.221	21.95
359.43	21.87
359.64	21.23
359.85	21.7
360.06	21.06
360.269	21.19
360.479	21.19
360.689	20.88
360.899	21.17
361.108	21.38
361.318	21.41
361.528	21.09
361.737	21.25
361.947	21.64
362.156	21.66
362.366	21.84
362.576	21.45
362.785	21.83
362.995	22.1
363.204	21.82
363.414	21.89
363.623	21.78
363.833	21.45
364.042	21.32
364.252	21.92
364.461	21.88
364.671	22.21
364.88	22.65
365.09	21.97
365.299	21.72
365.509	21.9
365.718	21.73
365.927	21.56
366.137	22.03
366.346	21.83
366.555	21.4
366.765	21.22
366.974	20.7
367.183	20.49
367.393	20.66
367.602	20.11
367.811	20.58
368.021	20.01
368.23	19.83
368.439	19.35
368.648	19.45
368.857	19.17
369.067	18.7
369.276	18.22
369.485	17.66
369.694	17.48
369.903	17.95
370.112	17.84
370.321	18.7
370.531	18.78
370.74	18.99
370.949	18.85
371.158	18.99
371.367	19.82
371.576	20.07
371.785	20.54
371.994	20.75
372.203	20.78
372.412	20.13
372.621	19.71
372.83	19.77
373.039	19.28
373.248	19.42
373.457	19.32
373.666	18.65
373.874	18.6
374.083	18.37
374.292	18.08
374.501	17.39
374.71	17.02
374.919	16.84
375.128	17.1
375.336	17.7
375.545	17.34
375.754	17.33
375.963	17.96
376.171	17.83
376.38	18.01
376.589	17.99
376.798	18.27
377.006	18.57
377.215	18.52
377.424	18.05
377.632	17.7
377.841	17.94
378.05	17.48
378.258	17.26
378.467	17.1
378.675	16.82
378.884	16.01
379.093	15.85
379.301	15.53
379.51	15.41
379.718	15.64
379.927	15.87
380.135	15.94
380.344	16.36
380.552	16.19
380.761	15.91
380.969	16.03
381.177	16.81
381.386	16.24
381.594	16.47
381.803	16.31
382.011	15.78
382.219	14.98
382.428	14.71
382.636	14.32
382.845	13.96
383.053	14.47
383.261	14.42
383.469	14.13
383.678	14.89
383.886	14.76
384.094	15.05
384.302	15.13
384.511	15.55
384.719	15.48
384.927	15.35
385.135	15.22
385.343	14.95
385.552	14.66
385.76	14.49
385.968	14.07
386.176	13.94
386.384	13.75
386.592	13.94
386.8	13.53
387.008	13.1
387.216	13.53
387.424	13.47
387.633	13.55
387.841	13.34
388.049	13.69
388.257	13.56
388.465	13.33
388.672	13.21
388.88	12.96
389.088	13.37
389.296	13.44
389.504	12.73
389.712	13.03
389.92	13.05
390.128	13.35
390.336	13.01
390.544	13.17
390.751	13.36
390.959	13.09
391.167	13.3
391.375	12.83
391.583	12.62
391.79	12.77
391.998	12.58
392.206	12.29
392.414	11.98
392.621	11.66
392.829	11.34
393.037	11.47
393.244	11.63
393.452	11.11
393.66	11.26
393.867	11.26
394.075	11.47
394.283	11.41
394.49	11.49
394.698	11.55
394.905	11.75
395.113	11.84
395.32	11.65
395.528	11.3
395.735	11.8
395.943	11.63
396.15	11.37
396.358	10.84
396.565	10.75
396.773	10.81
396.98	10.34
397.188	10.4
397.395	10.52
397.602	10.64
397.81	10.99
398.017	10.59
398.225	10.94
398.432	10.96
398.639	11.25
398.847	11.22
399.054	11.06
399.261	11.4
399.468	11.25
399.676	11.21
399.883	10.89
400.09	10.65
400.297	10.84
400.505	10.31
400.712	10.45
400.919	10.14
401.126	9.97
401.333	10.3
401.54	10.41
401.748	10.87
401.955	10.46
402.162	10.65
402.369	10.51
402.576	10.32
402.783	10.48
402.99	10.57
403.197	10.65
403.404	10.59
403.611	10.18
403.818	10.21
404.025	9.57
404.232	9.64
404.439	9.62
404.646	9.83
404.853	9.67
405.06	9.71
405.267	9.68
405.474	9.5
405.681	9.65
405.887	9.49
406.094	8.99
406.301	9.14
406.508	9.19
406.715	8.82
406.922	8.57
407.128	8.76
407.335	8.76
407.542	8.8
407.749	9.15
407.955	8.78
408.162	9.02
408.369	9.41
408.575	9.53
408.782	9.56
408.989	9.78
409.195	9.9
409.402	9.76
409.609	9.84
409.815	9.88
410.022	9.46
410.228	9.65
410.435	9.6
410.642	9.7
410.848	9.37
411.055	9.34
411.261	9.17
411.468	8.88
411.674	8.94
411.881	8.72
412.087	8.59
412.294	9.14
412.5	9.16
412.706	9.05
412.913	8.86
413.119	8.91
413.326	8.95
413.532	9.09
413.738	9.27
413.945	9.18
414.151	9.13
414.357	9.11
414.564	8.57
414.77	8.31
414.976	8.51
415.182	8.75
415.389	8.73
415.595	8.72
415.801	8.62
416.007	8.66
416.214	8.59
416.42	8.54
416.626	8.46
416.832	8.66
417.038	9.21
417.244	9.43
417.45	9.17
417.657	9.06
417.863	8.94
418.069	8.93
418.275	8.79
418.481	8.82
418.687	8.85
418.893	8.81
419.099	8.81
419.305	8.51
419.511	8.06
419.717	8.09
419.923	8.09
420.129	8.11
420.335	8.13
420.541	8.25
420.746	8.16
420.952	8.16
421.158	8.22
421.364	8.09
421.57	8.05
421.776	8.2
421.982	8.11
422.187	8.21
422.393	8.23
422.599	8.21
422.805	8.22
423.01	8.39
423.216	8.35
423.422	8.24
423.628	8.34
423.833	8.36
424.039	8.39
424.245	8.42
424.45	8.46
424.656	8.4
424.862	8.41
425.067	8.34
425.273	8.13
425.478	8.19
425.684	8.39
425.889	8.32
426.095	8.42
426.301	8.38
426.506	8.51
426.712	8.34
426.917	8.45
427.123	8.38
427.328	8.42
427.533	8.62
427.739	8.77
427.944	8.67
428.15	8.75
428.355	8.58
428.561	8.51
428.766	8.48
428.971	8.49
429.177	8.43
429.382	8.67
429.587	8.77
429.793	8.48
429.998	8.32
430.203	8.07
430.408	8.21
430.614	8.1
430.819	8.2
431.024	7.97
431.229	8.13
431.434	8.08
431.64	7.98
431.845	7.93
432.05	8
432.255	7.91
432.46	7.91
432.665	7.68
432.87	7.76
433.076	7.59
433.281	7.57
433.486	7.56
433.691	7.47
433.896	7.34
434.101	7.28
434.306	7.16
434.511	7.17
434.716	7.39
434.921	7.5
435.126	7.41
435.331	7.56
435.535	7.74
435.74	7.66
435.945	7.93
436.15	8.02
436.355	7.93
436.56	8.15
436.765	8.3
436.97	8.26
437.174	8.24
437.379	8.36
437.584	8.32
437.789	8.22
437.993	8.29
438.198	8.07
438.403	8.19
438.608	8.22
438.812	8.23
439.017	8.02
439.222	7.87
439.426	7.73
439.631	7.67
439.836	7.71
440.04	7.73
440.245	7.72
440.45	7.61
440.654	7.55
440.859	7.63
441.063	7.58
441.268	7.6
441.472	7.53
441.677	7.63
441.881	7.65
442.086	7.69
442.29	7.6
442.495	7.73
442.699	7.81
442.904	7.75
443.108	7.62
443.312	7.52
443.517	7.63
443.721	7.68
443.925	7.63
444.13	7.7
444.334	7.57
444.538	7.7
444.743	7.61
444.947	7.81
445.151	7.72
445.356	7.83
445.56	7.96
445.764	7.98
445.968	8.02
446.173	8.05
446.377	7.96
446.581	7.91
446.785	7.8
446.989	7.71
447.193	7.57
447.398	7.68
447.602	7.63
447.806	7.63
448.01	7.57
448.214	7.62
448.418	7.43
448.622	7.45
448.826	7.4
449.03	7.54
449.234	7.65
449.438	7.59
449.642	7.44
449.846	7.33
450.05	7.17
450.254	6.94
450.458	6.7
450.662	6.88
450.866	6.82
451.069	7.06
451.273	6.92
451.477	6.91
451.681	6.93
451.885	7.07
452.089	7
452.292	7.1
452.496	7.23
452.7	7.3
452.904	7.31
453.107	7.29
453.311	7.28
453.515	7.18
453.719	7.01
453.922	6.95
454.126	6.84
454.33	7.05
454.533	7.05
454.737	7.17
454.94	7.21
455.144	7.1
455.348	7.12
455.551	7.04
455.755	7.04
455.958	7.05
456.162	7.09
456.365	7.24
456.569	7
456.772	7.1
456.976	7.04
457.179	6.92
457.383	7.09
457.586	7.25
457.79	7.29
457.993	7.52
458.196	7.5
458.4	7.55
458.603	7.37
458.807	7.51
459.01	7.49
459.213	7.52
459.417	7.59
459.62	7.53
459.823	7.43
460.026	7.34
460.23	7.19
460.433	7.26
460.636	7.3
460.839	7.24
461.042	7.19
461.246	7.13
461.449	7.11
461.652	7.03
461.855	6.97
462.058	6.86
462.261	6.83
462.464	6.76
462.668	6.73
462.871	6.75
463.074	6.97
463.277	7.06
463.48	6.84
463.683	6.59
463.886	6.78
464.089	6.76
464.292	6.88
464.495	7.2
464.698	7.22
464.901	7.25
465.104	7.15
465.306	7.05
465.509	6.98
465.712	7.15
465.915	7.23
466.118	7.04
466.321	7
466.524	6.95
466.726	6.67
466.929	6.6
467.132	6.52
467.335	6.58
467.538	6.78
467.74	6.69
467.943	6.69
468.146	6.85
468.348	7.17
468.551	7.34
468.754	7.41
468.956	7.53
469.159	7.67
469.362	7.86
469.564	7.8
469.767	7.68
469.969	7.84
470.172	7.99
470.375	7.9
470.577	7.71
470.78	7.67
470.982	7.84
471.185	7.85
471.387	7.9
471.59	7.68
471.792	7.42
471.995	7.44
472.197	7.35
472.399	7.1
472.602	7.05
472.804	7.01
473.007	6.89
473.209	6.86
473.411	6.58
473.614	6.57
473.816	6.63
474.018	6.85
474.22	6.81
474.423	6.88
474.625	7.1
474.827	7.17
475.03	7.25
475.232	7.19
475.434	7.09
475.636	7.42
475.838	7.38
476.04	7.42
476.243	7.29
476.445	7.32
476.647	7.32
476.849	7.15
477.051	7.02
477.253	6.93
477.455	6.89
477.657	6.83
477.859	6.6
478.061	6.6
478.263	6.58
478.465	6.77
478.667	6.88
478.869	6.77
479.071	6.8
479.273	6.92
479.475	7.01
479.677	7.15
479.879	7.18
480.081	7.3
480.283	7.3
480.485	7.29
480.686	7.25
480.888	7.18
481.09	7.24
481.292	7.33
481.494	7.39
481.695	7.34
481.897	7.4
482.099	7.41
482.301	7.41
482.502	7.44
482.704	7.5
482.906	7.44
483.107	7.44
483.309	7.39
483.511	7.35
483.712	7.32
483.914	7.31
484.115	7.29
484.317	7.28
484.519	7.27
484.72	7.24
484.922	7.19
485.123	7.25
485.325	7.2
485.526	7.24
485.728	7.32
485.929	7.33
486.131	7.33
486.332	7.26
486.534	7.25
486.735	7.25
486.936	7.23
487.138	7.28
487.339	7.18
487.541	7.24
487.742	7.24
487.943	7.19
488.144	7.18
488.346	7.2
488.547	7.24
488.748	7.25
488.95	7.31
489.151	7.27
489.352	7.26
489.553	7.34
489.755	7.37
489.956	7.32
490.157	7.3
490.358	7.29
490.559	7.34
490.76	7.36
490.961	7.37
491.163	7.37
491.364	7.4
491.565	7.34
491.766	7.41
491.967	7.4
492.168	7.49
492.369	7.54
492.57	7.55
492.771	7.47
492.972	7.4
493.173	7.39
493.374	7.38
493.575	7.44
493.776	7.48
493.976	7.28
494.177	7.18
494.378	7.15
494.579	7.08
494.78	7.17
494.981	7.32
495.182	7.44
495.382	7.48
495.583	7.27
495.784	7.27
495.985	7.21
496.185	7.2
496.386	7.16
496.587	7.13
496.788	7.17
496.988	7.06
497.189	7.13
497.39	7.29
497.59	7.27
497.791	7.46
497.992	7.43
498.192	7.38
498.393	7.6
498.593	7.61
498.794	7.47
498.994	7.47
499.195	7.4
499.395	7.35
499.596	7.2
499.796	7.12
499.997	7.2
500.197	7.22
500.398	7.39
500.598	7.28
500.799	7.54
500.999	7.63
501.199	7.44
501.4	7.66
501.6	7.71
501.801	7.72
502.001	7.83
502.201	7.94
502.402	7.98
502.602	7.9
502.802	7.86
503.002	7.82
503.203	7.91
503.403	7.99
503.603	7.94
503.803	7.87
504.003	8.04
504.204	8
504.404	7.98
504.604	8.16
504.804	8.23
505.004	8.34
505.204	8.21
505.404	8.27
505.604	8.32
505.804	8.38
506.005	8.38
506.205	8.45
506.405	8.47
506.605	8.41
506.805	8.23
507.005	8.22
507.204	8.26
507.404	8.31
507.604	8.28
507.804	8.26
508.004	8.27
508.204	8.19
508.404	8.07
508.604	8.19
508.804	8.36
509.003	8.52
509.203	8.58
509.403	8.67
509.603	8.77
509.803	9.03
510.002	9.23
510.202	9.31
510.402	9.42
510.602	9.46
510.801	9.54
511.001	9.31
511.201	9.26
511.4	9.23
511.6	9.22
511.8	9.29
511.999	9.1
512.199	8.95
512.398	8.91
512.598	9.02
512.797	9.12
512.997	8.98
513.197	9.19
513.396	9.23
513.596	9.43
513.795	9.52
513.994	9.37
514.194	9.52
514.393	9.71
514.593	9.84
514.792	9.94
514.992	9.93
515.191	10.13
515.39	10.12
515.59	10.27
515.789	10.22
515.988	10.25
516.188	10.6
516.387	10.73
516.586	10.68
516.786	10.64
516.985	10.61
517.184	10.69
517.383	10.68
517.582	10.84
517.782	10.95
517.981	11.1
518.18	11.13
518.379	11.13
518.578	11.08
518.777	11.14
518.976	11.26
519.176	11.28
519.375	11.39
519.574	11.57
519.773	11.54
519.972	11.48
520.171	11.45
520.37	11.53
520.569	11.66
520.768	11.77
520.967	11.97
521.166	12.07
521.365	12.22
521.564	12.26
521.762	12.21
521.961	12.3
522.16	12.56
522.359	12.76
522.558	12.7
522.757	12.65
522.956	12.81
523.154	13.02
523.353	13.12
523.552	13.18
523.751	13.24
523.949	13.4
524.148	13.58
524.347	13.55
524.546	13.63
524.744	13.73
524.943	13.74
525.142	13.64
525.34	13.6
525.539	13.48
525.737	13.54
525.936	13.54
526.135	13.64
526.333	13.62
526.532	13.6
526.73	13.63
526.929	13.69
527.127	13.78
527.326	13.84
527.524	13.87
527.723	14.15
527.921	14.26
528.12	14.4
528.318	14.39
528.516	14.44
528.715	14.54
528.913	14.6
529.112	14.7
529.31	14.75
529.508	14.84
529.707	14.93
529.905	14.92
530.103	14.91
530.301	14.97
530.5	15.07
530.698	15.07
530.896	15.14
531.094	15.15
531.293	15.2
531.491	15.24
531.689	15.34
531.887	15.33
532.085	15.35
532.283	15.44
532.481	15.43
532.68	15.47
532.878	15.7
533.076	15.78
533.274	15.84
533.472	15.87
533.67	15.84
533.868	15.88
534.066	15.91
534.264	16.03
534.462	16.07
534.66	16.08
534.858	16.14
535.056	16.1
535.253	16.08
535.451	16.19
535.649	16.29
535.847	16.48
536.045	16.49
536.243	16.63
536.441	16.63
536.638	16.69
536.836	16.83
537.034	16.84
537.232	16.91
537.43	16.99
537.627	16.96
537.825	16.98
538.023	16.89
538.22	16.91
538.418	16.82
538.616	16.9
538.813	16.91
539.011	16.95
539.209	16.98
539.406	17.14
539.604	17.19
539.801	17.33
539.999	17.46
540.196	17.75
540.394	17.84
540.591	17.96
540.789	18
540.986	18.23
541.184	18.31
541.381	18.36
541.579	18.24
541.776	18.29
541.974	18.32
542.171	18.34
542.368	18.35
542.566	18.36
542.763	18.4
542.96	18.44
543.158	18.43
543.355	18.52
543.552	18.63
543.75	18.76
543.947	18.75
544.144	18.91
544.341	18.91
544.539	18.9
544.736	19.06
544.933	19.12
545.13	19.12
545.327	18.99
545.524	18.91
545.722	18.76
545.919	18.87
546.116	18.99
546.313	18.83
546.51	18.78
546.707	18.83
546.904	18.76
547.101	18.81
547.298	18.91
547.495	19.02
547.692	19.17
547.889	19.41
548.086	19.4
548.283	19.49
548.48	19.71
548.677	19.87
548.874	20.02
549.07	20.18
549.267	20.16
549.464	20.33
549.661	20.23
549.858	20.07
550.055	19.98
550.251	20.1
550.448	19.99
550.645	19.94
550.842	19.99
551.038	19.95
551.235	20.02
551.432	20.09
551.628	19.9
551.825	20.11
552.022	20.21
552.218	20.33
552.415	20.4
552.612	20.65
552.808	20.81
553.005	20.95
553.201	21.14
553.398	21.11
553.594	21.23
553.791	21.37
553.987	21.43
554.184	21.41
554.38	21.46
554.577	21.41
554.773	21.48
554.97	21.39
555.166	21.33
555.362	21.23
555.559	21.24
555.755	21.24
555.952	21.28
556.148	21.18
556.344	21.31
556.541	21.36
556.737	21.6
556.933	21.59
557.129	21.42
557.326	21.62
557.522	21.73
557.718	21.89
557.914	21.91
558.11	22.13
558.307	22.41
558.503	22.47
558.699	22.64
558.895	22.45
559.091	22.36
559.287	22.71
559.483	22.62
559.679	22.59
559.876	22.45
560.072	22.52
560.268	22.28
560.464	22.57
560.66	22.8
560.856	22.93
561.052	23.12
561.247	23.26
561.443	23.13
561.639	23.18
561.835	23.18
562.031	23.47
562.227	23.57
562.423	23.69
562.619	23.48
562.815	23.34
563.01	23.12
563.206	23.06
563.402	23.01
563.598	23.07
563.793	23.05
563.989	23.1
564.185	22.98
564.381	22.92
564.576	22.96
564.772	23.06
564.968	23.12
565.163	23.07
565.359	23.1
565.555	23.28
565.75	23.33
565.946	23.53
566.141	23.6
566.337	23.72
566.532	23.69
566.728	23.8
566.923	23.74
567.119	23.88
567.314	23.99
567.51	24.06
567.705	23.97
567.901	23.86
568.096	23.89
568.292	24.04
568.487	24.03
568.682	24.09
568.878	24.23
569.073	24.27
569.268	24.13
569.464	24.17
569.659	24.15
569.854	24.31
570.05	24.56
570.245	24.47
570.44	24.36
570.635	24.31
570.831	24.41
571.026	24.11
571.221	24.19
571.416	24.12
571.611	24.19
571.806	24.3
572.002	24.27
572.197	24.26
572.392	24.36
572.587	24.3
572.782	24.37
572.977	24.52
573.172	24.58
573.367	24.47
573.562	24.65
573.757	24.6
573.952	24.46
574.147	24.5
574.342	24.68
574.537	24.54
574.732	24.63
574.927	24.7
575.121	24.59
575.316	24.62
575.511	24.82
575.706	24.74
575.901	24.83
576.096	24.94
576.29	24.96
576.485	24.91
576.68	25.03
576.875	25.25
577.069	25.11
577.264	25.27
577.459	25.39
577.654	25.45
577.848	25.59
578.043	25.71
578.238	25.9
578.432	25.71
578.627	25.61
578.821	25.73
579.016	25.5
579.21	25.68
579.405	25.75
579.6	25.71
579.794	25.53
579.989	25.54
580.183	25.09
580.378	24.95
580.572	25.21
580.766	25.41
580.961	25.42
581.155	25.27
581.35	25.33
581.544	24.93
581.738	25.07
581.933	25.42
582.127	25.26
582.321	25.74
582.516	25.58
582.71	25.49
582.904	25.29
583.099	25.32
583.293	25.85
583.487	26.04
583.681	26.23
583.875	26.08
584.07	25.88
584.264	26.22
584.458	26.02
584.652	26.11
584.846	26.15
585.04	26.1
585.234	26.13
585.428	25.96
585.623	25.78
585.817	25.75
586.011	25.96
586.205	25.81
586.399	25.7
586.593	25.47
586.787	25.7
586.981	25.76
587.174	25.72
587.368	25.35
587.562	25.34
587.756	25.26
587.95	25.42
588.144	25.44
588.338	25.57
588.532	25.35
588.725	25.8
588.919	26.04
589.113	25.93
589.307	26.26
589.501	26.39
589.694	26.52
589.888	26.73
590.082	26.52
590.275	26.41
590.469	26.48
590.663	26.67
590.856	26.7
591.05	26.51
591.244	26.71
591.437	26.72
591.631	26.95
591.824	27.01
592.018	26.84
592.212	26.97
592.405	27.07
592.599	27.05
592.792	26.91
592.986	26.5
593.179	26.51
593.372	26.43
593.566	26.53
593.759	26.51
593.953	26.35
594.146	26.41
594.339	26.65
594.533	26.63
594.726	26.63
594.92	26.81
595.113	27.21
595.306	27.05
595.499	27
595.693	26.85
595.886	26.79
596.079	26.73
596.272	26.94
596.466	26.64
596.659	26.9
596.852	26.91
597.045	26.97
597.238	26.91
597.431	27.17
597.624	27.28
597.818	27.36
598.011	27.24
598.204	27.3
598.397	27.31
598.59	27.5
598.783	27.38
598.976	27.44
599.169	27.28
599.362	27.34
599.555	27.11
599.748	27.27
599.941	27.25
600.134	27.43
600.326	27.29
600.519	26.94
600.712	26.88
600.905	26.69
601.098	26.52
601.291	26.91
601.483	26.82
601.676	26.81
601.869	26.64
602.062	26.7
602.255	26.83
602.447	26.89
602.64	27.12
602.833	27.21
603.025	27.18
603.218	27.32
603.411	27.29
603.603	27.34
603.796	27.53
603.989	27.47
604.181	27.46
604.374	27.43
604.566	27.44
604.759	27.37
604.951	27.37
605.144	27.54
605.336	27.6
605.529	27.53
605.721	27.55
605.914	27.49
606.106	27.55
606.299	27.49
606.491	27.42
606.683	27.37
606.876	27.45
607.068	27.46
607.26	27.41
607.453	27.38
607.645	27.44
607.837	27.35
608.03	27.51
608.222	27.42
608.414	27.53
608.606	27.56
608.799	27.72
608.991	27.9
609.183	27.89
609.375	27.92
609.567	27.94
609.759	27.88
609.952	28.17
610.144	28.19
610.336	28.58
610.528	28.58
610.72	28.63
610.912	28.55
611.104	28.56
611.296	28.67
611.488	28.63
611.68	28.43
611.872	28.13
612.064	28
612.256	27.71
612.448	27.34
612.64	27.24
612.832	27.19
613.023	27.45
613.215	27.05
613.407	26.95
613.599	26.9
613.791	27.15
613.983	27.39
614.174	27.59
614.366	27.62
614.558	27.94
614.75	28.14
614.941	28.32
615.133	28.24
615.325	28.6
615.516	28.64
615.708	28.73
615.9	28.95
616.091	29.24
616.283	29.12
616.475	29.36
616.666	28.95
616.858	28.84
617.049	28.6
617.241	28.57
617.432	28.29
617.624	28.35
617.815	28.29
618.007	27.91
618.198	27.63
618.39	27.34
618.581	27.02
618.773	27.38
618.964	27.25
619.155	27.77
619.347	27.65
619.538	27.7
619.729	27.74
619.921	27.62
620.112	27.69
620.303	27.59
620.494	27.96
620.686	28.11
620.877	27.9
621.068	28.08
621.259	27.99
621.451	28.15
621.642	28.37
621.833	28.3
622.024	28.33
622.215	28.49
622.406	28.57
622.597	28.66
622.788	28.63
622.98	28.62
623.171	28.9
623.362	28.56
623.553	28.62
623.744	28.52
623.935	28.36
624.126	28.83
624.317	28.68
624.508	29.16
624.698	29.04
624.889	29.02
625.08	28.95
625.271	28.88
625.462	28.96
625.653	28.99
625.844	28.85
626.034	29.1
626.225	29.01
626.416	29.13
626.607	29
626.798	28.72
626.988	28.76
627.179	28.74
627.37	28.83
627.56	28.91
627.751	28.82
627.942	28.99
628.132	29
628.323	28.85
628.514	28.81
628.704	28.83
628.895	28.88
629.085	29.16
629.276	29.46
629.466	29.28
629.657	29.26
629.847	29.44
630.038	29.42
630.228	29.54
630.419	29.93
630.609	30
630.8	29.79
630.99	29.84
631.181	29.68
631.371	29.51
631.561	29.62
631.752	29.62
631.942	29.41
632.132	29.43
632.323	29.24
632.513	28.89
632.703	28.79
632.893	29
633.084	29.15
633.274	29.18
633.464	29.08
633.654	29.11
633.844	28.95
634.034	29.33
634.225	29.26
634.415	29.14
634.605	29.04
634.795	28.98
634.985	28.72
635.175	28.95
635.365	28.79
635.555	29.04
635.745	28.81
635.935	29
636.125	28.69
636.315	28.9
636.505	29.01
636.695	28.95
636.885	29.17
637.075	29.36
637.265	29.34
637.455	29.59
637.644	29.77
637.834	30.04
638.024	29.95
638.214	30.15
638.404	30.09
638.593	29.98
638.783	30.43
638.973	30.43
639.163	30.47
639.352	29.97
639.542	29.99
639.732	29.49
639.921	29.21
640.111	29.28
640.301	29.17
640.49	29.1
640.68	29.62
640.87	29.35
641.059	29.14
641.249	29.3
641.438	29.48
641.628	29.33
641.817	29.53
642.007	29.47
642.196	29.5
642.386	29.62
642.575	29.16
642.764	28.68
642.954	28.83
643.143	29.21
643.333	29.37
643.522	29.37
643.711	29.76
643.901	29.96
644.09	30.16
644.279	30.16
644.469	30.07
644.658	30.7
644.847	30.65
645.036	30.45
645.226	30.09
645.415	29.98
645.604	30.08
645.793	29.76
645.982	29.58
646.171	29.7
646.361	29.61
646.55	29.35
646.739	29.05
646.928	29.19
647.117	29.63
647.306	29.76
647.495	29.2
647.684	29.28
647.873	29.28
648.062	29.15
648.251	29.18
648.44	29.56
648.629	30.1
648.818	30.33
649.007	30.58
649.196	30.55
649.384	30.61
649.573	31.12
649.762	30.88
649.951	30.99
650.14	30.76
650.328	30.32
650.517	30.41
650.706	30.13
650.895	29.91
651.083	29.97
651.272	29.46
651.461	29.49
651.65	29.29
651.838	29.47
652.027	29.21
652.216	29.78
652.404	30.45
652.593	29.86
652.781	29.74
652.97	29.74
653.158	29.43
653.347	29.74
653.535	29.98
653.724	29.96
653.912	29.84
654.101	30.25
654.289	29.76
654.478	29.54
654.666	29.96
654.855	30.33
655.043	30.58
655.231	30.5
655.42	30.59
655.608	30.58
655.796	30.86
655.985	31.2
656.173	31.2
656.361	31.48
656.55	31.1
656.738	30.89
656.926	31
657.114	30.68
657.302	30.89
657.491	30.37
657.679	30.3
657.867	30.53
658.055	30.74
658.243	30.32
658.431	30.02
658.619	30.46
658.807	30.44
658.996	30.13
659.184	30.13
659.372	30.04
659.56	30.18
659.748	30.07
659.936	29.65
660.124	29.19
660.311	29.3
660.499	29.73
660.687	29.4
660.875	29.56
661.063	29.55
661.251	29.64
661.439	29.41
661.627	29.6
661.814	29.86
662.002	30.23
662.19	30.22
662.378	30.26
662.565	29.86
662.753	30.04
662.941	29.85
663.129	29.51
663.316	29.62
663.504	29.96
663.692	29.86
663.879	29.65
664.067	29.61
664.254	29.87
664.442	30.18
664.63	30.62
664.817	30.32
665.005	30.17
665.192	30.62
665.38	30.94
665.567	31.04
665.755	31.25
665.942	31.26
666.13	30.8
666.317	30.59
666.504	30.25
666.692	29.8
666.879	30.14
667.067	30.67
667.254	30.63
667.441	30.47
667.629	30.69
667.816	30.68
668.003	30.81
668.19	31.1
668.378	31.34
668.565	31.74
668.752	31.98
668.939	31.97
669.127	32.22
669.314	31.85
669.501	32.18
669.688	32.33
669.875	32
670.062	31.45
670.249	31.83
670.436	31.66
670.623	31.19
670.81	31.26
670.997	31.4
671.184	31.01
671.371	31.51
671.558	30.95
671.745	30.71
671.932	30.87
672.119	31.2
672.306	30.78
672.493	31.02
672.68	31.43
672.867	31.37
673.054	31.37
673.24	31.36
673.427	31.12
673.614	31.59
673.801	31.3
673.988	31.1
674.174	31.37
674.361	31.55
674.548	31.29
674.734	31.62
674.921	31.63
675.108	31.44
675.294	31.61
675.481	31.03
675.668	30.79
675.854	30.92
676.041	31.33
676.227	31.15
676.414	31.07
676.601	31.14
676.787	30.64
676.974	30.26
677.16	29.98
677.347	29.89
677.533	30.73
677.719	30.61
677.906	30.45
678.092	30.57
678.279	31.18
678.465	30.9
678.651	31.27
678.838	31.55
679.024	32.21
679.21	32.49
679.397	32.49
679.583	31.98
679.769	32.01
679.955	32.27
680.142	32.25
680.328	32.06
680.514	32.28
680.7	32.05
680.886	31.97
681.073	31.94
681.259	31.89
681.445	31.47
681.631	31.79
681.817	31.85
682.003	31.7
682.189	31.28
682.375	31.03
682.561	31.4
682.747	31.29
682.933	30.93
683.119	30.95
683.305	31.18
683.491	31.69
683.677	31.87
683.863	32.24
684.049	32.74
684.235	32.78
684.42	33.02
684.606	32.83
684.792	32.8
684.978	32.89
685.164	32.65
685.349	32.63
685.535	32.61
685.721	33.05
685.907	32.26
686.092	32.27
686.278	32.5
686.464	32.49
686.649	31.91
686.835	32.55
687.021	32.54
687.206	32.89
687.392	32.43
687.577	32.43
687.763	32.09
687.948	32.32
688.134	31.9
688.319	31.83
688.505	31.18
688.69	31.42
688.876	31.09
689.061	32.13
689.247	31.83
689.432	31.94
689.618	31.8
689.803	31.76
689.988	31.93
690.174	31.43
690.359	31.24
690.544	31.41
690.73	31.63
690.915	31.87
691.1	30.53
691.285	30.69
691.471	30.74
691.656	30.9
691.841	31.03
692.026	30.41
692.211	30.74
692.396	31.53
692.582	31.81
692.767	31.91
692.952	31.6
693.137	32.08
693.322	31.74
693.507	31.69
693.692	31.35
693.877	31.12
694.062	32.13
694.247	32.73
694.432	32.61
694.617	31.91
694.802	31.44
694.987	31.6
695.172	31.79
695.357	32.12
695.541	32.32
695.726	32.59
695.911	32.54
696.096	31.82
696.281	31.85
696.466	32.26
696.65	32.81
696.835	33.12
697.02	33.12
697.204	32.89
697.389	32.39
697.574	32.5
697.759	32.82
697.943	32.92
698.128	33.19
698.312	33.03
698.497	32.93
698.682	32.91
698.866	32.8
699.051	32.52
699.235	32.37
699.42	33.03
699.604	33.03
699.789	32.91
699.973	32.83
700.158	32.69
700.342	32.71
700.527	32.58
700.711	32.8
700.895	33.13
701.08	33.04
701.264	32.9
701.448	32.58
701.633	32.51
701.817	31.87
702.001	31.82
702.186	31.94
702.37	31.7
702.554	31.07
702.738	30.95
702.923	31.25
703.107	31.7
703.291	32
703.475	31.23
703.659	30.92
703.843	31.3
704.027	31.37
704.212	31.45
704.396	31.94
704.58	31.57
704.764	31.24
704.948	30.18
705.132	30.02
705.316	30.48
705.5	31.36
705.684	32
705.868	32.47
706.052	32.67
706.235	32.78
706.419	33.08
706.603	34.04
706.787	34.38
706.971	34.96
707.155	34.78
707.339	34.67
707.522	34.66
707.706	34.47
707.89	34.11
708.074	33.7
708.257	33.65
708.441	32.52
708.625	32.27
708.808	32.32
708.992	31.89
709.176	32.28
709.359	32.39
709.543	32.51
709.727	32.37
709.91	32.46
710.094	32.35
710.277	32.37
710.461	32.89
710.644	32.69
710.828	33.05
711.011	33.38
711.195	33.15
711.378	32.86
711.562	32.46
711.745	32.78
711.928	32.56
712.112	32.73
712.295	32.35
712.478	32.89
712.662	32.99
712.845	32.32
713.028	32.15
713.212	32.69
713.395	32.7
713.578	32.2
713.761	32.05
713.945	32.37
714.128	32.44
714.311	32.9
714.494	32.75
714.677	32.3
714.86	33.33
715.043	33.24
715.227	32.33
715.41	32.27
715.593	32.68
715.776	32.66
715.959	32.99
716.142	33.36
716.325	33.17
716.508	32.33
716.691	33.17
716.874	32.3
717.057	32.18
717.239	32.87
717.422	32.75
717.605	33.01
717.788	32.51
717.971	31.87
718.154	30.88
718.337	31.34
718.519	32.79
718.702	32.73
718.885	32.86
719.068	33.27
719.25	32.67
719.433	32.9
719.616	32.78
719.798	33.07
719.981	32.94
720.164	34.12
720.346	33.44
720.529	31.43
720.712	31.31
720.894	31.33
721.077	31.05
721.259	30.57
721.442	30.08
721.624	30.15
721.807	30.36
721.989	30.98
722.172	30.5
722.354	31.28
722.537	32.56
722.719	32.07
722.901	31.71
723.084	32.55
723.266	33.87
723.448	33.62
723.631	34.41
723.813	34.66
723.995	34.42
724.178	34.47
724.36	34.76
724.542	34.66
724.724	34.56
724.907	34.07
725.089	33.65
725.271	33.18
725.453	34.5
725.635	33.8
725.817	33.68
725.999	33.28
726.181	33.68
726.364	32.93
726.546	32.78
726.728	33.33
726.91	34.14
727.092	33.51
727.274	33.46
727.456	33.68
727.638	34.3
727.819	34.03
728.001	35.11
728.183	34.92
728.365	35.89
728.547	35.93
728.729	35.51
728.911	35.4
729.093	35.98
729.274	36.8
729.456	35.44
729.638	35.44
729.82	35.91
730.001	34.93
730.183	35.07
730.365	34.2
730.546	33.69
730.728	34.09
730.91	34.4
731.091	33.64
731.273	32.46
731.455	32.73
731.636	31.84
731.818	31.89
731.999	32.4
732.181	32.69
732.362	32.77
732.544	32.82
732.725	32.32
732.907	31.84
733.088	32.04
733.27	32.74
733.451	33.42
733.633	34.13
733.814	33.83
733.995	33.02
734.177	31.88
734.358	32.37
734.539	32.32
734.721	32.86
734.902	32.99
735.083	33.12
735.264	33.23
735.446	32.64
735.627	32.5
735.808	32.2
735.989	32.21
736.17	32.82
736.351	31.89
736.533	32.97
736.714	32.61
736.895	32.83
737.076	33.14
737.257	32.51
737.438	33.58
737.619	32.94
737.8	34.47
737.981	34.99
738.162	35.17
738.343	36.43
738.524	35.46
738.705	35.88
738.886	34.9
739.067	35.19
739.247	35.86
739.428	35.23
739.609	35.44
739.79	34.17
739.971	34.89
740.151	34.47
740.332	32.45
740.513	32.83
740.694	32.38
740.874	32.67
741.055	32.21
741.236	31.89
741.417	32.01
741.597	31.67
741.778	31.93
741.958	30.34
742.139	30.34
742.32	30.9
742.5	30.14
742.681	30.02
742.861	30.09
743.042	29.25
743.222	29.76
743.403	29.1
743.583	29.6
743.764	28.69
743.944	29.69
744.124	30.39
744.305	30.94
744.485	32.18
744.666	32.55
744.846	33.39
745.026	32.96
745.207	32.34
745.387	32.03
745.567	30.41
745.747	31.38
745.928	31.43
746.108	30.52
746.288	30.39
746.468	30.42
746.648	30.36
746.829	31.17
747.009	32.74
747.189	33.49
747.369	35.08
747.549	35.73
747.729	35.48
747.909	34.99
748.089	34.86
748.269	34.3
748.449	33.77
748.629	33.34
748.809	32.38
748.989	33.03
749.169	33.35
749.349	32.83
749.529	34.33
749.709	34.1
749.889	34.32
750.068	34.8
750.248	35.17
750.428	34.44
750.608	34.77
750.788	35.58
750.967	34.95
751.147	33.53
751.327	33.82
751.507	31.69
751.686	31.89
751.866	31.74
752.046	31.31
752.225	31.13
752.405	32.26
752.585	33.62
752.764	33.42
752.944	33.79
753.123	34.38
753.303	32.71
753.482	33.46
753.662	33.6
753.841	33.7
754.021	34.43
754.2	34.57
754.38	34.59
754.559	33.89
754.739	33.55
754.918	33.24
755.097	32.6
755.277	34.53
755.456	34.71
755.635	33.95
755.815	34.03
755.994	33.98
756.173	34.64
756.352	34.56
756.532	33.89
756.711	33.17
756.89	32.5
757.069	33.6
757.248	33.01
757.427	34.18
757.607	33.95
757.786	35.32
757.965	35.77
758.144	35.2
758.323	34.43
758.502	36.52
758.681	36.43
758.86	37.69
759.039	37.37
759.218	37.04
759.397	36.97
759.576	37.13
759.755	35.49
759.934	35.16
760.113	35.72
760.291	36.95
760.47	35.11
760.649	35.44
760.828	35.29
761.007	34.72
761.186	36.16
761.364	36.33
761.543	38.03
761.722	38.15
761.901	37.65
762.079	37.42
762.258	37.01
762.437	38.29
762.615	38.29
762.794	37.64
762.972	37.94
763.151	37.24
763.33	36.47
763.508	35.5
763.687	35.69
763.865	35.72
764.044	35.51
764.222	34.66
764.401	33.3
764.579	34.63
764.758	34.76
764.936	35.48
765.114	34.98
765.293	35.6
765.471	36.61
765.65	36.87
765.828	37.18
766.006	37.86
766.184	39.17
766.363	39.67
766.541	38.43
766.719	38.55
766.898	38.28
767.076	38.36
767.254	37.48
767.432	36.65
767.61	36.46
767.788	34.97
767.967	34.22
768.145	33.62
768.323	33.16
768.501	33.83
768.679	34.54
768.857	33.24
769.035	34.06
769.213	33.67
769.391	32.92
769.569	32.34
769.747	33.62
769.925	33.47
770.103	33.04
770.281	32.27
770.459	30.11
770.636	30.01
770.814	31.65
770.992	31.68
771.17	31.4
771.348	31.66
771.525	32.13
771.703	31.86
771.881	33.31
772.059	33.9
772.236	36.16
772.414	35.65
772.592	35.27
772.769	33.71
772.947	33.31
773.125	35.47
773.302	36.62
773.48	35.14
773.657	34.92
773.835	33.61
774.013	32.9
774.19	30.83
774.368	31.88
774.545	31.66
774.723	30.99
774.9	31.24
775.077	30.64
775.255	29.47
775.432	30.58
775.61	31.27
775.787	28.87
775.964	29.74
776.142	31.76
776.319	33.07
776.496	32.32
776.674	34.08
776.851	35.37
777.028	33.84
777.205	34.65
777.382	34.14
777.56	33.61
777.737	34.95
777.914	34.23
778.091	33.98
778.268	32.59
778.445	32.82
778.622	31.88
778.8	30.26
778.977	33.82
779.154	32.08
779.331	33.68
779.508	36.16
779.685	34.2
779.862	35.34
780.038	34.07
780.215	33.93
780.392	33.27
780.569	31.8
780.746	30.68
780.923	29.21
781.1	29.3
781.277	28.62
781.453	28.7
781.63	32.6
781.807	32.31
781.984	33.95
782.16	35.08
782.337	36.64
782.514	37.76
782.691	38.38
782.867	36.43
783.044	37.19
783.221	37.03
783.397	34.15
783.574	30.38
783.75	29.34
783.927	29.35
784.103	28.68
784.28	29.55
784.456	28.77
784.633	29.1
784.809	29.47
784.986	30.25
785.162	29.29
785.339	30.19
785.515	32.99
785.692	34.1
785.868	32.79
786.044	34.64
786.221	33.12
786.397	35.43
786.573	36.54
786.749	37.05
786.926	37.29
787.102	37.57
787.278	39.74
787.454	38.62
787.631	36.38
787.807	35.23
787.983	32.81
788.159	32.88
788.335	31.02
788.511	32.24
788.687	31.47
788.863	33.28
789.039	35.2
789.216	31.22
789.392	31.46
789.568	33.37
789.744	34.97
789.919	34.44
790.095	34.88
790.271	36.63
790.447	33.8
790.623	36.76
790.799	37.27
790.975	35.78
791.151	38.21
791.327	40.53
791.502	39.56
791.678	39.85
791.854	40.14
792.03	40.26
792.205	40.85
792.381	42.08
792.557	42.07
792.733	38.42
792.908	39.07
793.084	39.31
793.259	35
793.435	35.45
793.611	35.99
793.786	35.57
793.962	34.33
794.137	34.08
794.313	31.93
794.488	30.27
794.664	34.34
794.839	33.18
795.015	34.9
795.19	36.98
795.366	36.73
795.541	35.72
795.716	37.33
795.892	39.25
796.067	39.56
796.242	41.26
796.418	41.44
796.593	40.52
796.768	39.08
796.944	38.32
797.119	38.57
797.294	37.65
797.469	37.03
797.644	39.32
797.82	35.37
797.995	32.84
798.17	30.95
798.345	30.24
798.52	29.83
798.695	33.86
798.87	32.24
799.045	32.48
799.22	31.99
799.395	33.85
799.57	34.47
799.745	35.15
799.92	35.67
800.095	36.81
800.27	36.65
800.445	36.97
800.62	35
800.795	36.24
800.97	36.81
801.145	40.04
801.319	38.13
801.494	35.94
801.669	37.63
801.844	38.66
802.018	41.93
802.193	44.25
802.368	42.19
802.543	41.5
802.717	43.41
802.892	43.86
803.067	42.05
803.241	43.56
803.416	44.49
803.59	44.97
803.765	49.05
803.94	45.37
804.114	42.93
804.289	42.4
804.463	41.44
804.638	38.24
804.812	36.44
804.986	37.5
805.161	37.82
805.335	36.33
805.51	36.26
805.684	33.06
805.858	33.92
806.033	33.18
806.207	33.09
806.381	34.63
806.556	35.86
806.73	34.65
806.904	33.54
807.078	31.6
807.253	32.14
807.427	33.04
807.601	30.91
807.775	29.88
807.949	31.71
808.123	31.66
808.298	31.74
808.472	30.25
808.646	29.08
808.82	28.31
808.994	28.98
809.168	28.66
809.342	25.54
809.516	28.33
809.69	26.82
809.864	26.7
810.038	29.99
810.212	27.2
810.385	30.84
810.559	33.52
810.733	35.76
810.907	34.93
811.081	34.74
811.255	35.95
811.428	35.02
811.602	36.17
811.776	37.09
811.95	34.16
812.123	37.34
812.297	35.27
812.471	37.25
812.644	35.63
812.818	35.95
812.992	31.64
813.165	31.41
813.339	30.75
813.512	27.81
813.686	30.62
813.86	29.95
814.033	24.22
814.207	23.01
814.38	22.2
814.554	27.12
814.727	30.79
814.9	32.06
815.074	34.32
815.247	30.03
815.421	34.35
815.594	31.46
815.767	33.99
815.941	39.83
816.114	38.62
816.287	37.24
816.46	29.15
816.634	25.26
816.807	20.87
816.98	22.05
817.153	28.78
817.327	26.34
817.5	25.89
817.673	27.91
817.846	26.01
818.019	28.65
818.192	27.48
818.365	37.58
818.538	39.33
818.711	45.08
818.884	39.7
819.057	37.91
819.23	40.2
819.403	38.74
819.576	34.68
819.749	35.71
819.922	35.44
820.095	36.7
820.268	32.98
820.441	30.27
820.614	32.94
820.786	36.49
820.959	36.41
821.132	34.75
821.305	35.79
821.477	37.73
821.65	38.32
821.823	38.88
821.996	38.55
822.168	38.45
822.341	39.39
822.514	38.9
822.686	38.29
822.859	38.38
823.031	38.72
823.204	38.16
823.376	37.58
823.549	37.15
823.722	36.59
823.894	36.69
824.067	36.9
824.239	36.48
824.411	36.45
824.584	35.91
824.756	35.87
824.929	35.99
825.101	36.25
825.273	35.95
825.446	36.14
825.618	36.65
825.79	36.68
825.963	35.94
826.135	35.76
826.307	35.25
826.479	35.25
826.652	34.78
826.824	34.69
826.996	34.33
827.168	34.5
827.34	33.42
827.512	33.52
827.684	32.94
827.856	32.85
828.029	33.2
828.201	33.2
828.373	33.37
828.545	32.61
828.717	32.33
828.889	32.66
829.061	33.48
829.232	34.83
829.404	33.6
829.576	33.54
829.748	34.19
829.92	34.63
830.092	36.3
830.264	34.56
830.436	36.36
830.607	36.57
830.779	37.22
830.951	36.41
831.123	34.95
831.294	36.39
831.466	33.96
831.638	33.44
831.809	32.02
831.981	32.09
832.153	37.22
832.324	33.95
832.496	31.51
832.667	26.93
832.839	25.05
833.011	28.04
833.182	26.49
833.354	28.85
833.525	28.69
833.697	30.26
833.868	28.5
834.039	28.28
834.211	34.12
834.382	37.55
834.554	42.22
834.725	44.35
834.896	41.04
835.068	40.94
835.239	42.34
835.41	42.79
835.581	42.11
835.753	41.84
835.924	40.52
836.095	37.72
836.266	34.86
836.438	32.34
836.609	28.02
836.78	29.29
836.951	29.15
837.122	27.52
837.293	25.62
837.464	26.51
837.635	26.16
837.806	28.83
837.977	28.02
838.148	27.74
838.319	26.78
838.49	30.95
838.661	32.53
838.832	33.65
839.003	31.62
839.174	30.85
839.345	27.77
839.516	19.92
839.687	10.28
839.857	19.59
840.028	24.86
840.199	25.41
840.37	30.28
840.54	32.04
840.711	34.37
840.882	35.04
841.053	36.06
841.223	36.52
841.394	42.66
841.564	44.53
841.735	38.7
841.906	34.89
842.076	36.28
842.247	33.85
842.417	25.28
842.588	23.06
842.758	25.16
842.929	25.54
843.099	18.62
843.27	22.63
843.44	24.37
843.611	21.99
843.781	15.28
843.951	16.88
844.122	25.97
844.292	28.41
844.462	22.75
844.633	28.58
844.803	34.72
844.973	42.56
845.144	41.6
845.314	47.58
845.484	51.49
845.654	67.12
845.824	64.64
845.995	45.32
846.165	47.5
846.335	59.4
846.505	56.21
846.675	31.88
846.845	33.91
847.015	15.81
847.185	10.87
847.355	11.1
847.525	8.31
847.695	13.67
847.865	10.98
848.035	13.96
848.205	-1.08
848.375	5.76
848.545	7.38
848.715	15.18
848.884	26.56
849.054	14.25
849.224	13.95
849.394	31.28
849.564	18.15
849.733	35.49
849.903	23.85
850.073	44.26
850.243	26.64
850.412	30
850.582	0.86
850.752	-26.46
850.921	1.08
851.091	-10.9
851.26	-3.69
851.43	-6.58
851.599	-34.37
851.769	-17.16
851.939	-54.9
852.108	-88.91
852.278	-66.45
852.447	-65.1
852.616	-23.78
852.786	-48.36
852.955	-42.83
853.125	-83.58
853.294	-83.05
853.463	-63.04
853.633	-78.21
853.802	-76.03
853.971	-46.85
854.141	-62.15
854.31	-84.85
854.479	-110.67
854.648	-93.12
854.818	-71.38
854.987	-35.93
855.156	-28.43
855.325	-9.97
855.494	-50.44
855.663	-47.22
855.832	-70.91
856.001	-42.51
856.171	-4.51
856.34	-8.51
856.509	-33.94
856.678	-58.18
856.847	-52.13
857.016	-69.86
857.185	-75.37
857.353	-28.12
857.522	-31.64
857.691	6.56
857.86	-2.75
858.029	10.4
858.198	9.02
858.367	13.13
858.535	13.94
858.704	0.01
858.873	13.3
859.042	16.33
859.21	9.55
859.379	29.7
859.548	10.18
859.717	10.9
859.885	6.51
860.054	12.01
860.222	0.9
860.391	7.28
860.56	26.7
860.728	37.75
860.897	36.5
861.065	49.09
861.234	38.75
861.402	46.77
861.571	48.16
861.739	52.9
861.908	64.35
862.076	66.21
862.244	74.75
862.413	63.59
862.581	58.55
862.749	39.01
862.918	9.37
863.086	-41.42
863.254	-57.52
863.423	-111.51
863.591	2.12
863.759	-132.28
863.927	-125.45
864.096	-925.25
864.264	140.98
864.432	180.11
864.6	264.68
864.768	189.59
864.936	279.05
865.104	180.83
865.272	138.1
865.44	105.87
865.608	114.65
865.776	113.34
865.944	118.76
866.112	82.11
866.28	73.77
866.448	75.09
866.616	68.12
866.784	45.59
866.952	37.15
867.12	27.9
867.288	43.12
867.455	48.23
867.623	54.26
867.791	57.32
867.959	49.89
868.127	61.32
868.294	36.48
868.462	34.55
868.63	36.91
868.797	40.79
868.965	20.88
869.133	33.33
869.3	-37.52
869.468	10.52
869.636	25.01
869.803	13.78
869.971	-5.27
870.138	23.9
870.306	27.05
870.473	17.34
870.641	18.37
870.808	28.75
870.975	17.76
871.143	36.33
871.31	3.68
871.478	-114.94
871.645	-47.23
871.812	-56.6
871.98	-68.61
872.147	-95.56
872.314	-68.34
872.482	-103.45
872.649	-210.73
872.816	-103.3
872.983	-260.4
873.15	-71.82
873.318	-34.33
873.485	15.41
873.652	73.59
873.819	23.06
873.986	11.3
874.153	5.03
874.32	15.13
874.487	26.45
874.654	28.37
874.821	9.25
874.988	17.2
875.155	46.52
875.322	39.62
875.489	30.71
875.656	31.45
875.823	37.55
875.99	48.76
876.157	59.32
876.324	100.8
876.49	99.13
876.657	100.74
876.824	87.12
876.991	82.41
877.157	84.62
877.324	82.69
877.491	83.26
877.658	74.94
877.824	69.86
877.991	65.38
878.157	16.9
878.324	1.98
878.491	27.59
878.657	27.97
878.824	24.74
878.99	27.59
879.157	17.07
879.323	-6.96
879.49	-3.56
879.656	2.12
879.823	12.07
879.989	21.32
880.156	19.88
880.322	23.38
880.488	30.27
880.655	46.06
880.821	26.24
880.987	23.38
881.154	34.89
881.32	30.17
881.486	23.24
881.652	23.63
881.819	28.99
881.985	29.2
882.151	23.56
882.317	21.83
882.483	19.94
882.649	23.06
882.816	21.81
882.982	23.28
883.148	26.88
883.314	29.14
883.48	30.15
883.646	29.31
883.812	31.38
883.978	33.09
884.144	34.81
884.31	36.28
884.476	37.7
884.642	40.31
884.807	42.29
884.973	43.79
885.139	44.98
885.305	45.56
885.471	47.78
885.637	46.11
885.802	46.17
885.968	45.97
886.134	46.34
886.3	47.32
886.465	48.12
886.631	45.48
886.797	42.89
886.962	44.11
887.128	40.27
887.293	35.83
887.459	32.76
887.625	34.74
887.79	37.87
887.956	34.51
888.121	30.75
888.287	22.54
888.452	24.82
888.618	21.75
888.783	-1.98
