Data from CB_101_Reflection_1.txt Node
Date: Sat Nov 14 17:47:33 EST 2015
User: robert
Spectrometer: USB4E03001
Autoset integration time: false
Trigger mode: 4
Integration Time (sec): 1.000000E-1
Scans to average: 15
Electric dark correction enabled: true
Nonlinearity correction enabled: false
Boxcar width: 5
Stray light correction enabled: false
XAxis mode: Wavelengths
Stop averaging: false
Number of Pixels in Spectrum: 3648
>>>>>Begin Spectral Data<<<<<
177.566	20.32
177.785	833.5
178.005	-280.41
178.225	-21.83
178.445	302.11
178.665	80.38
178.885	-916.49
179.105	108.03
179.324	131.46
179.544	37.9
179.764	40.6
179.984	30.56
180.204	14.35
180.423	28.62
180.643	45.72
180.863	68.36
181.083	60.16
181.302	44.87
181.522	64.72
181.742	51.22
181.961	64.16
182.181	74.99
182.401	86.65
182.621	93.84
182.84	-0.43
183.06	25.46
183.279	1.91
183.499	25.1
183.719	40.73
183.938	-11.84
184.158	84.29
184.377	69.09
184.597	86.53
184.816	87.27
185.036	84.8
185.256	123.37
185.475	121.18
185.695	119.7
185.914	95.39
186.134	104.25
186.353	121.48
186.572	98.25
186.792	99.15
187.011	85.3
187.231	86.98
187.45	77.97
187.67	54.28
187.889	53.89
188.108	55.46
188.328	64.64
188.547	32.54
188.766	30.98
188.986	42.87
189.205	48.5
189.424	56.54
189.644	54.68
189.863	68.92
190.082	69.33
190.302	50.51
190.521	42.64
190.74	44.59
190.959	54.32
191.178	35.3
191.398	32.36
191.617	48.05
191.836	59.18
192.055	51.47
192.274	20.27
192.494	59.08
192.713	112.66
192.932	108.52
193.151	154.55
193.37	141.53
193.589	152.8
193.808	214.39
194.027	191.44
194.246	-140.93
194.465	103.59
194.685	66.47
194.904	28.89
195.123	49.75
195.342	90.61
195.561	64.04
195.78	29.6
195.999	27.9
196.218	26.34
196.436	39.4
196.655	56.37
196.874	78.74
197.093	81.06
197.312	83.42
197.531	86.11
197.75	73.02
197.969	81.55
198.188	96.35
198.407	93.73
198.625	114.71
198.844	122.9
199.063	113.9
199.282	107.24
199.501	118.32
199.719	91.61
199.938	78.68
200.157	78.05
200.376	89.21
200.594	99.02
200.813	118.31
201.032	94.1
201.251	81.11
201.469	67.33
201.688	64.69
201.907	60.84
202.125	79.92
202.344	104.05
202.563	109.41
202.781	82.66
203	88.04
203.218	126.2
203.437	103.31
203.656	108.62
203.874	86.31
204.093	101.6
204.311	127.69
204.53	114.25
204.748	95.2
204.967	103.8
205.185	128.04
205.404	109.79
205.622	58.65
205.841	66.58
206.059	75.32
206.278	94.22
206.496	82.28
206.715	70.73
206.933	73.59
207.151	76.6
207.37	68.85
207.588	59.25
207.806	61.05
208.025	78.18
208.243	63.7
208.461	69.79
208.68	54.56
208.898	55.21
209.116	62.55
209.335	58.02
209.553	62.35
209.771	69.76
209.989	44.31
210.208	18.35
210.426	13.38
210.644	27.28
210.862	26.01
211.081	32.61
211.299	44.76
211.517	37.94
211.735	29.75
211.953	22.05
212.171	21.86
212.39	26.76
212.608	44.61
212.826	43
213.044	51.31
213.262	60.62
213.48	57.62
213.698	50.84
213.916	67.57
214.134	61.45
214.352	76.03
214.57	72.44
214.788	84.85
215.006	95.93
215.224	102.64
215.442	127.47
215.66	104.61
215.878	73.78
216.096	96.76
216.314	71.9
216.532	101.93
216.75	95.9
216.968	106.89
217.185	123.52
217.403	114.35
217.621	116.78
217.839	91
218.057	101.15
218.275	135.77
218.492	155.68
218.71	170.66
218.928	171.37
219.146	237.38
219.363	164.04
219.581	173.34
219.799	202.45
220.017	173.64
220.234	150.35
220.452	137.79
220.67	160.75
220.887	255.99
221.105	359.93
221.323	4588.96
221.54	349.28
221.758	2346.43
221.976	703.13
222.193	168.39
222.411	245.4
222.629	488.42
222.846	541.06
223.064	-425.87
223.281	298.76
223.499	81.58
223.716	-3.42
223.934	126.41
224.151	45.54
224.369	30.7
224.586	46.6
224.804	59.81
225.021	52.35
225.239	24.91
225.456	6.68
225.674	-4.45
225.891	-18.66
226.108	-66
226.326	-69.58
226.543	-40.52
226.76	-25.94
226.978	-17.73
227.195	-36.6
227.413	-22.06
227.63	-7.95
227.847	-2.28
228.064	8.59
228.282	7.96
228.499	10.12
228.716	7.14
228.934	8.37
229.151	5.83
229.368	4.87
229.585	5.66
229.802	5.66
230.02	5.87
230.237	5.94
230.454	7.97
230.671	5.33
230.888	4.8
231.105	4.07
231.323	2.29
231.54	-2.36
231.757	-6.07
231.974	-10.07
232.191	-7.46
232.408	-9.38
232.625	-0.54
232.842	-7.95
233.059	2.03
233.276	3.31
233.493	3.89
233.71	10.17
233.927	16.45
234.144	14.42
234.361	16.46
234.578	14.95
234.795	14.07
235.012	5.59
235.229	1.92
235.446	-2.83
235.663	-2.52
235.879	-4.73
236.096	-8.87
236.313	-12.68
236.53	-11.13
236.747	-10.98
236.964	-15.17
237.181	-20.17
237.397	-20.68
237.614	-18.78
237.831	-16.47
238.048	-15.53
238.264	-15.94
238.481	-22.85
238.698	-15.87
238.915	-7.28
239.131	-9.04
239.348	-7.56
239.565	-3.52
239.781	2.06
239.998	2.95
240.215	2.12
240.431	4.65
240.648	11
240.865	13.65
241.081	14.64
241.298	12.72
241.514	15.71
241.731	16.66
241.947	14.96
242.164	14.5
242.38	16.01
242.597	16.85
242.814	16.11
243.03	13.94
243.246	14.47
243.463	14.34
243.679	12.91
243.896	12.22
244.112	9.75
244.329	9.97
244.545	8.62
244.762	7.65
244.978	8.39
245.194	7.39
245.411	5.03
245.627	3.44
245.843	3.28
246.06	4.85
246.276	5.09
246.492	6.91
246.709	8.83
246.925	9.95
247.141	9.99
247.357	10.88
247.574	10.34
247.79	11.78
248.006	12.43
248.222	12.61
248.439	12.5
248.655	11.39
248.871	10.59
249.087	9.42
249.303	8.54
249.519	7.74
249.736	5.83
249.952	7.3
250.168	8.99
250.384	7.82
250.6	9.35
250.816	9.63
251.032	12.64
251.248	12.35
251.464	12.45
251.68	12.21
251.896	11.81
252.112	9.85
252.328	8.06
252.544	5.36
252.76	5.23
252.976	1.46
253.192	0.78
253.408	-0.66
253.624	2.91
253.84	2.98
254.056	2.19
254.272	1.81
254.487	1.03
254.703	3.65
254.919	-0.36
255.135	-1.75
255.351	-1.49
255.567	1.96
255.782	3.36
255.998	2.58
256.214	0.76
256.43	3.93
256.646	4.35
256.861	7.65
257.077	4.94
257.293	10.45
257.508	13.92
257.724	14.9
257.94	15.24
258.155	14.39
258.371	12.27
258.587	11.46
258.802	10.94
259.018	10.62
259.234	10.25
259.449	9.82
259.665	9.16
259.88	7.95
260.096	7.94
260.312	6.83
260.527	7.18
260.743	6.81
260.958	7.46
261.174	7.09
261.389	7.43
261.605	6.97
261.82	7.52
262.036	6.61
262.251	6.4
262.466	5.84
262.682	5.56
262.897	3.76
263.113	5.13
263.328	4.84
263.543	4.46
263.759	1.54
263.974	1.02
264.189	-1.25
264.405	-0.69
264.62	-1.31
264.835	0.02
265.051	2.76
265.266	4.12
265.481	5.67
265.696	4.8
265.912	5.43
266.127	5.96
266.342	7.91
266.557	9.35
266.773	8.45
266.988	8.18
267.203	8.44
267.418	7.12
267.633	8.32
267.848	7.1
268.064	7.89
268.279	7.38
268.494	7.92
268.709	7.62
268.924	8.65
269.139	8.06
269.354	9.18
269.569	8.28
269.784	8.73
269.999	6.57
270.214	5.92
270.429	4.42
270.644	4.13
270.859	4.43
271.074	3.52
271.289	2.63
271.504	5.57
271.719	6.69
271.934	5.1
272.149	5.5
272.363	5.92
272.578	6.55
272.793	7.24
273.008	6.45
273.223	6.83
273.438	6.63
273.653	7.34
273.867	6.51
274.082	6.04
274.297	7.5
274.512	6.24
274.726	5.7
274.941	5.45
275.156	6.11
275.371	7.25
275.585	7.09
275.8	8.23
276.015	7.5
276.229	7.52
276.444	7.24
276.659	7.03
276.873	9.05
277.088	10.32
277.302	10.66
277.517	10.34
277.732	9.66
277.946	9.88
278.161	9.46
278.375	9.61
278.59	9.63
278.804	8.14
279.019	6.54
279.233	5.42
279.448	4.96
279.662	3.82
279.877	2.85
280.091	4.19
280.306	3.32
280.52	3.72
280.735	2.27
280.949	1.78
281.163	2.83
281.378	4.79
281.592	5.25
281.806	5.6
282.021	6
282.235	6.78
282.449	6.65
282.664	6.61
282.878	6.11
283.092	6.9
283.307	6.88
283.521	7.17
283.735	6.7
283.949	6.11
284.164	6.42
284.378	7
284.592	7.3
284.806	7.02
285.02	8.08
285.234	7.78
285.449	8.05
285.663	8.09
285.877	7.83
286.091	7.36
286.305	7.44
286.519	7.84
286.733	7.43
286.947	6.93
287.161	7.86
287.375	7.11
287.589	7.76
287.803	7.95
288.017	7.88
288.231	7.45
288.445	8.13
288.659	7.94
288.873	6.26
289.087	6.34
289.301	5.74
289.515	5.05
289.729	4.75
289.943	4.49
290.157	3.68
290.371	4.1
290.584	5.6
290.798	5.59
291.012	6.22
291.226	6.81
291.44	6.1
291.654	6.24
291.867	6.73
292.081	7.69
292.295	7.88
292.509	9.13
292.722	8.21
292.936	7.29
293.15	7.93
293.364	8.8
293.577	9.35
293.791	10.86
294.005	12.08
294.218	11.77
294.432	11.19
294.645	11.23
294.859	11.4
295.073	12.2
295.286	12.05
295.5	12.36
295.713	11.26
295.927	11.21
296.14	10.46
296.354	10.03
296.568	9.58
296.781	10.1
296.994	9.92
297.208	9.07
297.421	9.29
297.635	9.32
297.848	8.49
298.062	8.77
298.275	8.99
298.489	9.06
298.702	9.07
298.915	9.1
299.129	8.93
299.342	9.35
299.555	9.36
299.769	9.39
299.982	9.38
300.195	9.32
300.409	8.84
300.622	7.57
300.835	7.32
301.048	7.25
301.262	7.62
301.475	6.92
301.688	6.23
301.901	5.87
302.115	4.89
302.328	4.15
302.541	5.92
302.754	5.39
302.967	6.33
303.18	5.92
303.393	6.78
303.607	5.46
303.82	6.94
304.033	7.81
304.246	9.27
304.459	9.36
304.672	9.76
304.885	8.7
305.098	9.68
305.311	10.43
305.524	11.03
305.737	9.86
305.95	11.39
306.163	9.49
306.376	8.35
306.589	7.83
306.802	7.37
307.015	7.18
307.228	6.88
307.44	6.62
307.653	5.77
307.866	6.83
308.079	7.73
308.292	7.97
308.505	9.01
308.718	9.17
308.93	9.45
309.143	10.87
309.356	10.78
309.569	10.78
309.781	11.43
309.994	11.79
310.207	10.81
310.42	10.09
310.632	9.85
310.845	9.29
311.058	9.96
311.27	10.32
311.483	10.07
311.696	11.25
311.908	11.97
312.121	11.25
312.333	11.34
312.546	11.71
312.759	12.37
312.971	11.72
313.184	12.34
313.396	11.62
313.609	10.71
313.821	10.55
314.034	8.41
314.246	8.01
314.459	8.91
314.671	8.18
314.884	7.97
315.096	7.74
315.309	7.77
315.521	7.99
315.733	8.09
315.946	8.15
316.158	8.45
316.371	10.38
316.583	9.27
316.795	9.18
317.008	10.21
317.22	10.99
317.432	11.08
317.644	10.85
317.857	12.06
318.069	11.91
318.281	11.58
318.494	10.31
318.706	10.25
318.918	10.84
319.13	10.89
319.342	11.15
319.555	11.35
319.767	11.71
319.979	11.42
320.191	11.25
320.403	12.16
320.615	14.28
320.827	14.24
321.039	14.14
321.252	15.77
321.464	17.15
321.676	17.86
321.888	16.63
322.1	16.89
322.312	19.1
322.524	18.18
322.736	18.51
322.948	16.11
323.16	16.92
323.372	17.26
323.584	15.91
323.796	14.53
324.007	14.17
324.219	15.35
324.431	15.82
324.643	14.96
324.855	15.21
325.067	15.18
325.279	15.07
325.491	16.83
325.702	17.38
325.914	18.08
326.126	18.66
326.338	19.17
326.55	19.2
326.761	19.56
326.973	20.67
327.185	21.92
327.396	22.44
327.608	23.82
327.82	22.41
328.032	22.81
328.243	23.11
328.455	23.71
328.666	22.71
328.878	24.46
329.09	24.89
329.301	25.25
329.513	25.08
329.725	24.52
329.936	24.86
330.148	25.17
330.359	24.37
330.571	24.26
330.782	23.72
330.994	24.15
331.205	22.92
331.417	22.64
331.628	23.28
331.84	22.2
332.051	22.16
332.262	23.63
332.474	24.22
332.685	25.82
332.897	26.62
333.108	26.61
333.319	28.11
333.531	28.58
333.742	28.94
333.953	28.59
334.165	29.39
334.376	30.55
334.587	29.75
334.799	30.11
335.01	29.22
335.221	29.26
335.432	29.73
335.644	28.94
335.855	28.49
336.066	28.46
336.277	28.49
336.488	28.33
336.7	27.77
336.911	28.19
337.122	27.89
337.333	28.23
337.544	27.62
337.755	26.55
337.966	26.79
338.177	27.97
338.388	28.09
338.599	27.78
338.811	28.02
339.022	28.65
339.233	27.74
339.444	26.97
339.655	26.33
339.866	26.48
340.076	27.9
340.287	27.56
340.498	26.99
340.709	26.33
340.92	27.38
341.131	26.56
341.342	25.84
341.553	26.15
341.764	28.19
341.975	28.81
342.185	29.97
342.396	28.99
342.607	29.07
342.818	29.15
343.029	29.04
343.239	28.74
343.45	29.43
343.661	29.87
343.872	30.18
344.082	29.28
344.293	29.62
344.504	28.72
344.714	29.82
344.925	29.82
345.136	29.44
345.346	29.16
345.557	28.61
345.768	29.1
345.978	28.9
346.189	28.81
346.399	28.74
346.61	27.89
346.821	28.06
347.031	27.6
347.242	27.4
347.452	27.3
347.663	27.64
347.873	28.16
348.084	28.19
348.294	28.72
348.504	28.82
348.715	27.88
348.925	28.32
349.136	28.45
349.346	27.8
349.557	27.57
349.767	27.84
349.977	28.28
350.188	26.65
350.398	26.4
350.608	25.58
350.819	25
351.029	26.02
351.239	24.95
351.449	24.64
351.66	25.51
351.87	26.21
352.08	25.59
352.29	24.76
352.501	25.61
352.711	26.25
352.921	26.49
353.131	26.48
353.341	25.49
353.552	26.17
353.762	25.84
353.972	25.63
354.182	25.17
354.392	24.89
354.602	25.09
354.812	25.57
355.022	24.72
355.232	24.83
355.442	25.47
355.652	25.93
355.862	25.73
356.072	25.72
356.282	26.15
356.492	26.5
356.702	26.52
356.912	26.85
357.122	27.08
357.332	27.28
357.542	27.23
357.752	26.77
357.962	27.24
358.171	27.34
358.381	28.05
358.591	27.41
358.801	27.53
359.011	27.49
359.221	27.81
359.43	27.18
359.64	26.75
359.85	26.64
360.06	26.62
360.269	26.21
360.479	26.12
360.689	25.53
360.899	26.09
361.108	25.77
361.318	25.88
361.528	25.61
361.737	26.09
361.947	26.14
362.156	26.02
362.366	25.89
362.576	25.68
362.785	25.82
362.995	25.93
363.204	25.33
363.414	25.38
363.623	25.31
363.833	25.04
364.042	24.5
364.252	24.52
364.461	24.94
364.671	25.53
364.88	25.24
365.09	24.89
365.299	24.65
365.509	24.62
365.718	23.83
365.927	23.71
366.137	23.78
366.346	23.84
366.555	23.62
366.765	22.8
366.974	22.02
367.183	21.72
367.393	21.7
367.602	22.23
367.811	22.38
368.021	22.65
368.23	22.91
368.439	22.91
368.648	23.04
368.857	23.13
369.067	22.58
369.276	21.91
369.485	22.31
369.694	22.22
369.903	22.02
370.112	22.13
370.321	22.77
370.531	22.3
370.74	22.14
370.949	21.89
371.158	21.96
371.367	22.47
371.576	23.45
371.785	23.51
371.994	23.42
372.203	23.19
372.412	22.99
372.621	22.77
372.83	23.03
373.039	23.03
373.248	23.33
373.457	23.06
373.666	22.59
373.874	21.87
374.083	21.62
374.292	21.45
374.501	21.16
374.71	20.6
374.919	20.58
375.128	20.64
375.336	20.81
375.545	20.23
375.754	20.28
375.963	20.71
376.171	21.15
376.38	21.65
376.589	21.49
376.798	21.39
377.006	21.44
377.215	20.85
377.424	20.7
377.632	20.2
377.841	20.44
378.05	20.23
378.258	20.1
378.467	19.39
378.675	18.88
378.884	18.77
379.093	19.09
379.301	18.94
379.51	19.19
379.718	19.01
379.927	18.89
380.135	18.85
380.344	18.59
380.552	17.96
380.761	18.16
380.969	18.39
381.177	18.79
381.386	18.52
381.594	19.22
381.803	19.07
382.011	18.54
382.219	18.69
382.428	18.44
382.636	18.57
382.845	19.21
383.053	19.75
383.261	19.61
383.469	18.9
383.678	18.88
383.886	18.62
384.094	18.33
384.302	18.56
384.511	18.59
384.719	18.69
384.927	18.98
385.135	18.81
385.343	18.46
385.552	18.6
385.76	18.63
385.968	18.13
386.176	17.46
386.384	17.81
386.592	17.76
386.8	17.56
387.008	17.01
387.216	16.79
387.424	16.49
387.633	16.32
387.841	16.07
388.049	16.62
388.257	16.72
388.465	16.75
388.672	16.41
388.88	16.41
389.088	16.18
389.296	16.27
389.504	15.61
389.712	15.99
389.92	15.72
390.128	15.31
390.336	14.53
390.544	14.4
390.751	14.15
390.959	13.79
391.167	13.82
391.375	14.02
391.583	13.81
391.79	13.99
391.998	13.67
392.206	13.64
392.414	13.3
392.621	13.46
392.829	13.68
393.037	14.07
393.244	14.28
393.452	13.6
393.66	13.56
393.867	13.44
394.075	13.64
394.283	13.71
394.49	13.51
394.698	13.68
394.905	13.85
395.113	13.37
395.32	13.15
395.528	12.94
395.735	13.53
395.943	13.23
396.15	13.6
396.358	13.4
396.565	13.3
396.773	13.43
396.98	13.38
397.188	13.57
397.395	13.85
397.602	13.87
397.81	14
398.017	13.88
398.225	13.77
398.432	13.3
398.639	13.54
398.847	13.39
399.054	13.19
399.261	13.35
399.468	13.07
399.676	13.36
399.883	13.35
400.09	13.19
400.297	12.93
400.505	12.87
400.712	13.06
400.919	12.46
401.126	12.47
401.333	12.71
401.54	12.82
401.748	12.56
401.955	11.86
402.162	11.8
402.369	11.63
402.576	11.86
402.783	11.82
402.99	11.98
403.197	12.26
403.404	12.35
403.611	12.29
403.818	12.38
404.025	12.1
404.232	12.17
404.439	12.23
404.646	12.42
404.853	12.32
405.06	12.61
405.267	12.6
405.474	12.4
405.681	12.51
405.887	12.33
406.094	11.94
406.301	12.25
406.508	12.38
406.715	12.17
406.922	11.97
407.128	12
407.335	11.82
407.542	11.53
407.749	11.8
407.955	11.37
408.162	11.72
408.369	11.79
408.575	12.02
408.782	12.08
408.989	12.05
409.195	12.3
409.402	12.34
409.609	12.39
409.815	12.55
410.022	12.44
410.228	12.65
410.435	12.64
410.642	12.85
410.848	12.4
411.055	12.25
411.261	12.22
411.468	12.3
411.674	12.22
411.881	12.06
412.087	11.88
412.294	11.95
412.5	12.05
412.706	11.67
412.913	11.55
413.119	11.69
413.326	11.74
413.532	11.99
413.738	11.74
413.945	11.6
414.151	11.73
414.357	11.89
414.564	11.71
414.77	11.17
414.976	11.4
415.182	11.23
415.389	11.36
415.595	11.46
415.801	11.3
416.007	11.52
416.214	11.35
416.42	11.35
416.626	11.21
416.832	11.21
417.038	11.52
417.244	11.47
417.45	11.53
417.657	11.38
417.863	11.38
418.069	11.47
418.275	11.13
418.481	11.48
418.687	11.52
418.893	11.65
419.099	11.7
419.305	11.64
419.511	11.63
419.717	11.54
419.923	11.61
420.129	11.53
420.335	11.45
420.541	11.67
420.746	11.58
420.952	11.56
421.158	11.68
421.364	11.51
421.57	11.52
421.776	11.51
421.982	11.55
422.187	11.49
422.393	11.55
422.599	11.71
422.805	11.78
423.01	11.82
423.216	11.76
423.422	11.56
423.628	11.65
423.833	11.72
424.039	11.79
424.245	11.82
424.45	11.92
424.656	11.91
424.862	11.8
425.067	11.62
425.273	11.63
425.478	11.61
425.684	11.74
425.889	11.6
426.095	11.73
426.301	11.56
426.506	11.56
426.712	11.43
426.917	11.5
427.123	11.42
427.328	11.58
427.533	11.4
427.739	11.53
427.944	11.4
428.15	11.33
428.355	11.02
428.561	11.29
428.766	11.45
428.971	11.51
429.177	11.32
429.382	11.39
429.587	11.26
429.793	11.24
429.998	11.17
430.203	11.01
430.408	11.38
430.614	11.18
430.819	10.94
431.024	10.8
431.229	10.73
431.434	10.64
431.64	10.54
431.845	10.51
432.05	10.61
432.255	10.6
432.46	10.74
432.665	10.61
432.87	10.8
433.076	10.88
433.281	10.78
433.486	10.89
433.691	10.91
433.896	10.94
434.101	11.04
434.306	11.06
434.511	11.03
434.716	10.98
434.921	11.11
435.126	11.19
435.331	11.27
435.535	11.33
435.74	11.2
435.945	11.23
436.15	11.25
436.355	11.23
436.56	11.12
436.765	11.28
436.97	11.36
437.174	11.43
437.379	11.25
437.584	11.22
437.789	11.28
437.993	11.39
438.198	11.41
438.403	11.44
438.608	11.46
438.812	11.61
439.017	11.45
439.222	11.54
439.426	11.34
439.631	11.45
439.836	11.41
440.04	11.45
440.245	11.47
440.45	11.54
440.654	11.42
440.859	11.38
441.063	11.34
441.268	11.39
441.472	11.29
441.677	11.47
441.881	11.38
442.086	11.38
442.29	11.28
442.495	11.29
442.699	11.19
442.904	11.39
443.108	11.37
443.312	11.21
443.517	11.21
443.721	11.17
443.925	11.04
444.13	11.25
444.334	11.33
444.538	11.48
444.743	11.39
444.947	11.42
445.151	11.41
445.356	11.46
445.56	11.57
445.764	11.72
445.968	11.7
446.173	11.69
446.377	11.41
446.581	11.3
446.785	11.12
446.989	11.07
447.193	11.08
447.398	11.08
447.602	11.19
447.806	11.16
448.01	10.98
448.214	11.02
448.418	10.78
448.622	10.84
448.826	10.82
449.03	10.99
449.234	11.2
449.438	11.08
449.642	10.93
449.846	10.58
450.05	10.45
450.254	10.34
450.458	10.28
450.662	10.81
450.866	10.88
451.069	11.13
451.273	10.92
451.477	10.82
451.681	10.94
451.885	11.08
452.089	11.11
452.292	11.33
452.496	11.34
452.7	11.47
452.904	11.25
453.107	11.29
453.311	11.1
453.515	11.18
453.719	11.18
453.922	11.08
454.126	10.93
454.33	11
454.533	10.67
454.737	10.79
454.94	10.63
455.144	10.55
455.348	10.59
455.551	10.61
455.755	10.63
455.958	10.77
456.162	10.84
456.365	10.74
456.569	10.78
456.772	11
456.976	11.07
457.179	11.01
457.383	10.89
457.586	10.87
457.79	10.86
457.993	10.82
458.196	10.66
458.4	10.68
458.603	10.74
458.807	10.7
459.01	10.74
459.213	10.75
459.417	10.79
459.62	10.88
459.823	10.81
460.026	10.77
460.23	10.71
460.433	10.68
460.636	10.73
460.839	10.7
461.042	10.7
461.246	10.5
461.449	10.37
461.652	10.28
461.855	10.28
462.058	10.34
462.261	10.34
462.464	10.44
462.668	10.54
462.871	10.38
463.074	10.47
463.277	10.57
463.48	10.6
463.683	10.5
463.886	10.6
464.089	10.4
464.292	10.56
464.495	10.71
464.698	10.64
464.901	10.63
465.104	10.78
465.306	10.9
465.509	10.59
465.712	10.78
465.915	10.99
466.118	11.13
466.321	11.23
466.524	11.04
466.726	10.94
466.929	10.83
467.132	10.82
467.335	10.69
467.538	10.62
467.74	10.76
467.943	10.71
468.146	10.72
468.348	10.66
468.551	10.65
468.754	10.63
468.956	10.63
469.159	10.66
469.362	10.7
469.564	10.84
469.767	10.88
469.969	11.14
470.172	11.21
470.375	11.17
470.577	11.13
470.78	11.2
470.982	11.35
471.185	11.36
471.387	11.35
471.59	11.31
471.792	11.05
471.995	11
472.197	10.78
472.399	10.62
472.602	10.75
472.804	10.7
473.007	10.65
473.209	10.51
473.411	10.41
473.614	10.51
473.816	10.46
474.018	10.55
474.22	10.52
474.423	10.53
474.625	10.62
474.827	10.55
475.03	10.63
475.232	10.75
475.434	10.89
475.636	10.74
475.838	10.77
476.04	10.85
476.243	10.83
476.445	10.83
476.647	10.9
476.849	10.86
477.051	10.62
477.253	10.59
477.455	10.41
477.657	10.2
477.859	10.35
478.061	10.35
478.263	10.2
478.465	10.09
478.667	10.19
478.869	10.03
479.071	9.99
479.273	10.03
479.475	10.12
479.677	10.25
479.879	10.24
480.081	10.23
480.283	10.15
480.485	10.24
480.686	10.42
480.888	10.39
481.09	10.51
481.292	10.64
481.494	10.65
481.695	10.69
481.897	10.81
482.099	10.93
482.301	11.05
482.502	11.14
482.704	11.09
482.906	11.09
483.107	11.08
483.309	11.02
483.511	10.98
483.712	11.03
483.914	11.01
484.115	10.96
484.317	10.98
484.519	10.89
484.72	10.87
484.922	10.87
485.123	10.89
485.325	10.85
485.526	10.87
485.728	10.88
485.929	10.9
486.131	10.8
486.332	10.8
486.534	10.73
486.735	10.78
486.936	10.76
487.138	10.82
487.339	10.75
487.541	10.86
487.742	10.86
487.943	10.87
488.144	10.87
488.346	10.9
488.547	10.86
488.748	10.84
488.95	10.85
489.151	10.8
489.352	10.72
489.553	10.73
489.755	10.7
489.956	10.7
490.157	10.69
490.358	10.6
490.559	10.63
490.76	10.69
490.961	10.75
491.163	10.78
491.364	10.83
491.565	10.77
491.766	10.83
491.967	10.72
492.168	10.8
492.369	10.78
492.57	10.82
492.771	10.88
492.972	10.9
493.173	10.85
493.374	10.94
493.575	11
493.776	11.11
493.976	11.16
494.177	11.17
494.378	11.08
494.579	11.22
494.78	11.25
494.981	11.16
495.182	11.22
495.382	11.38
495.583	11.12
495.784	10.97
495.985	11.01
496.185	10.89
496.386	10.92
496.587	11.01
496.788	10.96
496.988	10.96
497.189	10.96
497.39	11.06
497.59	10.93
497.791	10.99
497.992	11.2
498.192	11.13
498.393	11.17
498.593	11.24
498.794	11.01
498.994	11.03
499.195	10.92
499.395	10.92
499.596	10.88
499.796	10.93
499.997	11.08
500.197	10.94
500.398	11.07
500.598	11.04
500.799	11.05
500.999	11.24
501.199	11.19
501.4	11.33
501.6	11.43
501.801	11.26
502.001	11.42
502.201	11.29
502.402	11.42
502.602	11.33
502.802	11.36
503.002	11.38
503.203	11.51
503.403	11.64
503.603	11.51
503.803	11.54
504.003	11.7
504.204	11.6
504.404	11.77
504.604	11.74
504.804	11.79
505.004	11.94
505.204	11.89
505.404	11.8
505.604	11.62
505.804	11.77
506.005	11.73
506.205	11.76
506.405	11.77
506.605	11.77
506.805	11.83
507.005	12
507.204	12.03
507.404	12.03
507.604	12.07
507.804	12.27
508.004	12.37
508.204	12.46
508.404	12.46
508.604	12.61
508.804	12.67
509.003	12.76
509.203	12.64
509.403	12.71
509.603	12.85
509.803	13.05
510.002	13.01
510.202	13.13
510.402	13.12
510.602	13.2
510.801	13.29
511.001	13.29
511.201	13.27
511.4	13.37
511.6	13.35
511.8	13.58
511.999	13.57
512.199	13.65
512.398	13.54
512.598	13.73
512.797	13.73
512.997	13.72
513.197	13.79
513.396	13.77
513.596	13.87
513.795	14.07
513.994	13.82
514.194	14
514.393	14.13
514.593	14.41
514.792	14.44
514.992	14.45
515.191	14.42
515.39	14.44
515.59	14.65
515.789	14.76
515.988	14.78
516.188	15.03
516.387	15.05
516.586	15
516.786	14.9
516.985	14.84
517.184	15.13
517.383	15.18
517.582	15.27
517.782	15.3
517.981	15.25
518.18	15.37
518.379	15.49
518.578	15.43
518.777	15.59
518.976	15.73
519.176	15.82
519.375	15.75
519.574	15.89
519.773	15.86
519.972	15.88
520.171	16
520.37	16
520.569	16.07
520.768	16.16
520.967	16.16
521.166	16.17
521.365	16.3
521.564	16.38
521.762	16.5
521.961	16.65
522.16	16.85
522.359	17.11
522.558	17.17
522.757	17.14
522.956	17.28
523.154	17.46
523.353	17.64
523.552	17.73
523.751	17.92
523.949	17.99
524.148	18.18
524.347	18.13
524.546	18.1
524.744	18.2
524.943	18.17
525.142	18.2
525.34	18.31
525.539	18.39
525.737	18.58
525.936	18.61
526.135	18.74
526.333	18.87
526.532	19.07
526.73	19.19
526.929	19.24
527.127	19.51
527.326	19.6
527.524	19.6
527.723	19.73
527.921	19.67
528.12	19.8
528.318	19.82
528.516	19.86
528.715	19.89
528.913	19.97
529.112	20.05
529.31	20.02
529.508	20.12
529.707	20.22
529.905	20.23
530.103	20.3
530.301	20.32
530.5	20.45
530.698	20.49
530.896	20.6
531.094	20.69
531.293	20.69
531.491	20.82
531.689	20.8
531.887	20.9
532.085	21.04
532.283	21.15
532.481	21.21
532.68	21.19
532.878	21.26
533.076	21.33
533.274	21.31
533.472	21.37
533.67	21.45
533.868	21.55
534.066	21.57
534.264	21.52
534.462	21.53
534.66	21.61
534.858	21.72
535.056	21.81
535.253	21.77
535.451	21.86
535.649	22.06
535.847	22.16
536.045	22.34
536.243	22.42
536.441	22.57
536.638	22.69
536.836	22.73
537.034	22.68
537.232	22.73
537.43	22.77
537.627	22.8
537.825	22.73
538.023	22.72
538.22	22.56
538.418	22.58
538.616	22.57
538.813	22.56
539.011	22.67
539.209	22.77
539.406	22.74
539.604	23.04
539.801	23.26
539.999	23.54
540.196	23.76
540.394	23.92
540.591	24.04
540.789	24.05
540.986	24.17
541.184	24.19
541.381	24.16
541.579	24.19
541.776	24.18
541.974	24.16
542.171	24.08
542.368	24.03
542.566	24
542.763	23.99
542.96	24.09
543.158	24.14
543.355	24.35
543.552	24.54
543.75	24.64
543.947	24.58
544.144	24.67
544.341	24.7
544.539	24.75
544.736	24.92
544.933	25.02
545.13	25.01
545.327	25.07
545.524	24.93
545.722	24.9
545.919	24.94
546.116	25.12
546.313	25.08
546.51	25.2
546.707	25.2
546.904	25.2
547.101	25.15
547.298	25.27
547.495	25.19
547.692	25.21
547.889	25.46
548.086	25.52
548.283	25.54
548.48	25.53
548.677	25.53
548.874	25.68
549.07	25.56
549.267	25.9
549.464	25.91
549.661	25.94
549.858	25.98
550.055	25.88
550.251	25.95
550.448	25.87
550.645	26.04
550.842	26.22
551.038	26.18
551.235	26.56
551.432	26.28
551.628	26.23
551.825	26.33
552.022	26.43
552.218	26.44
552.415	26.39
552.612	26.54
552.808	26.58
553.005	26.58
553.201	26.75
553.398	26.59
553.594	26.76
553.791	26.84
553.987	26.69
554.184	26.78
554.38	26.84
554.577	26.97
554.773	27.06
554.97	27.13
555.166	27.22
555.362	27.07
555.559	27.22
555.755	27.17
555.952	27.14
556.148	27.37
556.344	27.32
556.541	27.38
556.737	27.4
556.933	27.48
557.129	27.46
557.326	27.48
557.522	27.59
557.718	27.75
557.914	27.91
558.11	28.05
558.307	28.25
558.503	28.23
558.699	28.33
558.895	28.36
559.091	28.24
559.287	28.41
559.483	28.54
559.679	28.59
559.876	28.55
560.072	28.54
560.268	28.39
560.464	28.46
560.66	28.58
560.856	28.53
561.052	28.72
561.247	28.9
561.443	28.77
561.639	28.78
561.835	28.94
562.031	28.94
562.227	28.91
562.423	29.12
562.619	29.27
562.815	29.35
563.01	29.4
563.206	29.42
563.402	29.23
563.598	29.32
563.793	29.27
563.989	29.25
564.185	29.11
564.381	29.23
564.576	29.25
564.772	29.22
564.968	29.04
565.163	29.12
565.359	29.18
565.555	29.45
565.75	29.52
565.946	29.54
566.141	29.59
566.337	29.74
566.532	29.7
566.728	29.81
566.923	29.78
567.119	29.93
567.314	29.85
567.51	29.75
567.705	29.56
567.901	29.56
568.096	29.64
568.292	29.66
568.487	29.76
568.682	29.76
568.878	29.77
569.073	29.85
569.268	29.91
569.464	29.96
569.659	30.14
569.854	30.35
570.05	30.5
570.245	30.54
570.44	30.56
570.635	30.33
570.831	30.43
571.026	30.34
571.221	30.24
571.416	30.19
571.611	30.22
571.806	30.23
572.002	30.27
572.197	30.28
572.392	30.3
572.587	30.21
572.782	30.44
572.977	30.57
573.172	30.59
573.367	30.5
573.562	30.63
573.757	30.57
573.952	30.43
574.147	30.36
574.342	30.33
574.537	30.34
574.732	30.31
574.927	30.37
575.121	30.2
575.316	30.31
575.511	30.53
575.706	30.48
575.901	30.54
576.096	30.82
576.29	30.96
576.485	30.98
576.68	31.16
576.875	31.5
577.069	31.49
577.264	31.79
577.459	31.62
577.654	31.71
577.848	31.7
578.043	31.82
578.238	31.65
578.432	31.48
578.627	31.61
578.821	31.31
579.016	31.06
579.21	30.84
579.405	30.67
579.6	30.92
579.794	30.75
579.989	30.97
580.183	30.75
580.378	30.57
580.572	30.69
580.766	30.75
580.961	30.86
581.155	30.67
581.35	30.9
581.544	30.89
581.738	31.17
581.933	31.19
582.127	30.97
582.321	31.24
582.516	31.28
582.71	31.25
582.904	30.88
583.099	31.07
583.293	31.5
583.487	31.55
583.681	31.44
583.875	31.08
584.07	30.96
584.264	31.16
584.458	31.19
584.652	31.41
584.846	31.42
585.04	31.31
585.234	31.02
585.428	30.97
585.623	31.19
585.817	31.53
586.011	31.53
586.205	31.67
586.399	31.59
586.593	31.38
586.787	31.37
586.981	31.45
587.174	31.7
587.368	31.61
587.562	31.27
587.756	31.14
587.95	31.12
588.144	31.33
588.338	31.47
588.532	31.49
588.725	31.9
588.919	31.97
589.113	31.91
589.307	32.05
589.501	32.24
589.694	32.71
589.888	32.65
590.082	32.55
590.275	32.31
590.469	32.14
590.663	32.17
590.856	32.08
591.05	32.24
591.244	32.3
591.437	32.38
591.631	32.36
591.824	32.45
592.018	32.3
592.212	32.18
592.405	32.47
592.599	32.68
592.792	32.66
592.986	32.42
593.179	32.35
593.372	32.17
593.566	32.15
593.759	32.26
593.953	32.21
594.146	32.33
594.339	32.52
594.533	32.42
594.726	32.38
594.92	32.42
595.113	32.39
595.306	32.23
595.499	32.3
595.693	32.45
595.886	32.68
596.079	32.45
596.272	32.48
596.466	32.27
596.659	32.3
596.852	32.37
597.045	32.55
597.238	32.62
597.431	32.83
597.624	33.06
597.818	33.19
598.011	33
598.204	32.9
598.397	33.02
598.59	33.29
598.783	33.44
598.976	33.56
599.169	33.3
599.362	33.38
599.555	33.26
599.748	33.28
599.941	32.88
600.134	33.09
600.326	33.44
600.519	33.14
600.712	33.06
600.905	32.81
601.098	32.55
601.291	32.64
601.483	32.59
601.676	32.4
601.869	32.35
602.062	32.46
602.255	32.33
602.447	32.4
602.64	32.67
602.833	32.57
603.025	32.95
603.218	32.99
603.411	32.97
603.603	33.07
603.796	33.31
603.989	33.34
604.181	33.47
604.374	33.52
604.566	33.35
604.759	33.14
604.951	33.36
605.144	33.17
605.336	33.26
605.529	33.46
605.721	33.5
605.914	33.41
606.106	33.27
606.299	33.25
606.491	33.42
606.683	33.43
606.876	33.54
607.068	33.49
607.26	33.59
607.453	33.56
607.645	33.38
607.837	33.43
608.03	33.47
608.222	33.74
608.414	33.94
608.606	33.82
608.799	33.88
608.991	34.31
609.183	34.42
609.375	34.33
609.567	34.46
609.759	34.56
609.952	34.56
610.144	34.76
610.336	34.81
610.528	34.67
610.72	34.6
610.912	34.61
611.104	34.54
611.296	34.54
611.488	34.58
611.68	34.61
611.872	34.46
612.064	34.4
612.256	34.28
612.448	33.92
612.64	33.87
612.832	33.83
613.023	34.1
613.215	33.7
613.407	33.4
613.599	33.38
613.791	33.3
613.983	33.45
614.174	33.78
614.366	33.97
614.558	34.37
614.75	34.4
614.941	34.43
615.133	34.35
615.325	34.74
615.516	35.11
615.708	35.4
615.9	35.53
616.091	35.67
616.283	35.44
616.475	35.27
616.666	35.09
616.858	35.08
617.049	35.02
617.241	34.87
617.432	34.64
617.624	34.57
617.815	34.29
618.007	33.91
618.198	33.83
618.39	33.59
618.581	33.6
618.773	33.53
618.964	33.46
619.155	33.83
619.347	33.89
619.538	34.03
619.729	34.23
619.921	34.45
620.112	34.37
620.303	34.22
620.494	34.42
620.686	34.56
620.877	35.06
621.068	35.16
621.259	34.94
621.451	34.97
621.642	34.89
621.833	34.55
622.024	34.12
622.215	34.53
622.406	34.48
622.597	34.59
622.788	34.15
622.98	33.71
623.171	33.89
623.362	34.19
623.553	34.12
623.744	34.14
623.935	34.14
624.126	34.52
624.317	33.98
624.508	34.55
624.698	34.68
624.889	34.73
625.08	34.87
625.271	34.99
625.462	34.75
625.653	35.04
625.844	35.06
626.034	35.3
626.225	35.33
626.416	35.83
626.607	35.64
626.798	35.38
626.988	35.64
627.179	35.57
627.37	35.64
627.56	36.05
627.751	35.92
627.942	36.2
628.132	36.04
628.323	35.93
628.514	35.71
628.704	35.7
628.895	35.6
629.085	35.59
629.276	35.77
629.466	35.72
629.657	35.22
629.847	35
630.038	34.64
630.228	34.78
630.419	34.86
630.609	34.97
630.8	34.8
630.99	35.08
631.181	35.06
631.371	34.82
631.561	34.53
631.752	34.73
631.942	35.1
632.132	35.28
632.323	35.24
632.513	35.11
632.703	35.19
632.893	35.23
633.084	35.05
633.274	35.01
633.464	35.28
633.654	35.4
633.844	35.47
634.034	35.39
634.225	35.19
634.415	35.03
634.605	35.11
634.795	35.1
634.985	35.29
635.175	35.64
635.365	35.77
635.555	35.82
635.745	35.55
635.935	35.58
636.125	35.63
636.315	35.83
636.505	35.91
636.695	36.21
636.885	36.32
637.075	36.35
637.265	36.12
637.455	36.14
637.644	36.18
637.834	36.31
638.024	35.98
638.214	36.24
638.404	36.43
638.593	36.83
638.783	36.53
638.973	36.8
639.163	36.57
639.352	36.76
639.542	36.82
639.732	36.79
639.921	36.98
640.111	36.9
640.301	36.57
640.49	36.15
640.68	35.86
640.87	35.98
641.059	35.68
641.249	35.73
641.438	35.57
641.628	35.34
641.817	35.32
642.007	35.09
642.196	35.51
642.386	35.89
642.575	35.79
642.764	35.76
642.954	35.97
643.143	35.71
643.333	36.2
643.522	35.96
643.711	36.08
643.901	35.8
644.09	36.24
644.279	36.24
644.469	35.82
644.658	36.06
644.847	35.88
645.036	35.66
645.226	35.87
645.415	35.5
645.604	35.86
645.793	35.84
645.982	36.06
646.171	35.78
646.361	35.77
646.55	35.72
646.739	35.78
646.928	35.92
647.117	36.04
647.306	36
647.495	35.74
647.684	35.9
647.873	35.91
648.062	35.77
648.251	35.96
648.44	35.88
648.629	36.32
648.818	36.34
649.007	36.53
649.196	36.43
649.384	36.43
649.573	36.72
649.762	36.87
649.951	36.9
650.14	37.13
650.328	36.95
650.517	37.03
650.706	36.86
650.895	36.7
651.083	36.76
651.272	36.68
651.461	36.68
651.65	36.5
651.838	36.19
652.027	36.17
652.216	36.28
652.404	36.43
652.593	36.28
652.781	36.22
652.97	36.33
653.158	36.17
653.347	36.54
653.535	36.82
653.724	36.9
653.912	36.96
654.101	37.18
654.289	36.86
654.478	36.74
654.666	36.86
654.855	37.31
655.043	37.52
655.231	37.55
655.42	37.55
655.608	37.25
655.796	37.36
655.985	37.41
656.173	37.2
656.361	37.28
656.55	37.41
656.738	37.5
656.926	36.92
657.114	36.51
657.302	36.11
657.491	35.59
657.679	35.42
657.867	35.59
658.055	35.52
658.243	35.57
658.431	35.52
658.619	35.6
658.807	35.51
658.996	35.78
659.184	35.79
659.372	36.14
659.56	36.35
659.748	36.62
659.936	36.54
660.124	36.6
660.311	36.68
660.499	37.21
660.687	37.08
660.875	36.98
661.063	36.88
661.251	37.21
661.439	37.04
661.627	37.29
661.814	37.58
662.002	37.71
662.19	37.57
662.378	37.74
662.565	37.18
662.753	37.42
662.941	37.48
663.129	37.57
663.316	37.48
663.504	37.75
663.692	37.71
663.879	37.61
664.067	37.51
664.254	37.76
664.442	37.72
664.63	37.53
664.817	37.22
665.005	37.64
665.192	37.37
665.38	37.33
665.567	37.77
665.755	37.97
665.942	37.75
666.13	37.48
666.317	37.27
666.504	37.01
666.692	37.39
666.879	37.87
667.067	37.58
667.254	37.97
667.441	38.36
667.629	38.15
667.816	38.12
668.003	37.83
668.19	38.29
668.378	38.74
668.565	39.5
668.752	39.56
668.939	39.4
669.127	39.41
669.314	39.26
669.501	39.34
669.688	39.51
669.875	39.33
670.062	39.82
670.249	39.68
670.436	39.04
670.623	38.65
670.81	38.63
670.997	38.68
671.184	38.7
671.371	38.76
671.558	38.35
671.745	37.87
671.932	37.76
672.119	37.42
672.306	37.47
672.493	37.93
672.68	37.5
672.867	37.17
673.054	36.9
673.24	36.91
673.427	36.81
673.614	37.38
673.801	37.68
673.988	37.63
674.174	37.77
674.361	37.61
674.548	37.56
674.734	37.96
674.921	37.77
675.108	37.82
675.294	37.97
675.481	37.78
675.668	37.22
675.854	37.09
676.041	37.1
676.227	37.02
676.414	37.12
676.601	37.15
676.787	37.31
676.974	37.4
677.16	37.46
677.347	37.29
677.533	37.32
677.719	37.21
677.906	37.13
678.092	37.74
678.279	38.25
678.465	38.11
678.651	37.89
678.838	37.55
679.024	37.67
679.21	37.76
679.397	38
679.583	37.65
679.769	37.73
679.955	37.93
680.142	37.69
680.328	37.59
680.514	37.82
680.7	37.73
680.886	38.25
681.073	38.45
681.259	38.31
681.445	37.82
681.631	38
681.817	38.1
682.003	37.8
682.189	37.54
682.375	37.21
682.561	36.9
682.747	37.07
682.933	36.56
683.119	36.06
683.305	36.26
683.491	36.29
683.677	37.07
683.863	37.16
684.049	37.05
684.235	37
684.42	37.2
684.606	37.63
684.792	37.91
684.978	38.15
685.164	39.11
685.349	38.85
685.535	39.43
685.721	39.38
685.907	39.34
686.092	40.33
686.278	40.54
686.464	40.35
686.649	39.72
686.835	40.18
687.021	39.67
687.206	39.54
687.392	39.91
687.577	39.97
687.763	39.44
687.948	39.44
688.134	39
688.319	39.12
688.505	38.86
688.69	38.92
688.876	38.63
689.061	39.38
689.247	38.84
689.432	38.19
689.618	37.96
689.803	37.94
689.988	37.88
690.174	37.62
690.359	37.08
690.544	37.31
690.73	37.74
690.915	37.5
691.1	37
691.285	37.4
691.471	37.91
691.656	38.17
691.841	38.51
692.026	38.42
692.211	38.23
692.396	38.37
692.582	38.38
692.767	38.61
692.952	38.32
693.137	38.19
693.322	37.83
693.507	37.88
693.692	37.76
693.877	37.38
694.062	37.56
694.247	38.43
694.432	39.11
694.617	39.03
694.802	38.33
694.987	38.48
695.172	38.9
695.357	39.5
695.541	39.54
695.726	39.44
695.911	39.97
696.096	39.97
696.281	39.22
696.466	38.84
696.65	39.79
696.835	39.79
697.02	40.04
697.204	39.65
697.389	38.92
697.574	38.76
697.759	38.98
697.943	38.81
698.128	38.89
698.312	38.91
698.497	39.18
698.682	38.62
698.866	38.54
699.051	38.83
699.235	38.73
699.42	38.79
699.604	38.92
699.789	38.73
699.973	38.92
700.158	38.77
700.342	38.75
700.527	38.61
700.711	38.63
700.895	39.24
701.08	38.84
701.264	39.13
701.448	39.64
701.633	39.7
701.817	39.24
702.001	38.96
702.186	39.12
702.37	38.86
702.554	38.44
702.738	38.81
702.923	38.93
703.107	38.84
703.291	38.61
703.475	38.02
703.659	37.62
703.843	38.03
704.027	38.42
704.212	38.23
704.396	38.71
704.58	38.93
704.764	38.07
704.948	37.61
705.132	37.39
705.316	37.34
705.5	37.88
705.684	38.59
705.868	39.15
706.052	38.49
706.235	38.55
706.419	38.55
706.603	39.07
706.787	39.36
706.971	39.88
707.155	40.03
707.339	41.03
707.522	41.29
707.706	40.56
707.89	40.03
708.074	40.32
708.257	40.62
708.441	40.42
708.625	40.21
708.808	40.52
708.992	40.54
709.176	40.83
709.359	39.57
709.543	39.2
709.727	39.62
709.91	39.38
710.094	39.56
710.277	39.99
710.461	39.98
710.644	39.96
710.828	40.59
711.011	39.8
711.195	39.46
711.378	40.24
711.562	40.02
711.745	40.41
711.928	40.92
712.112	40.39
712.295	39.93
712.478	40.13
712.662	39.94
712.845	39.04
713.028	39.48
713.212	39.61
713.395	38.83
713.578	38.88
713.761	38.48
713.945	38.71
714.128	38.94
714.311	39.45
714.494	40.14
714.677	40
714.86	40.77
715.043	40.54
715.227	40.82
715.41	40.99
715.593	41.34
715.776	41.11
715.959	40.97
716.142	41.06
716.325	39.97
716.508	39.1
716.691	39.15
716.874	38.37
717.057	38.85
717.239	38.83
717.422	38.87
717.605	38.35
717.788	38.76
717.971	38.55
718.154	38.87
718.337	39.6
718.519	40.16
718.702	40.06
718.885	40.95
719.068	41.1
719.25	41.25
719.433	40.89
719.616	40.98
719.798	40.55
719.981	40.69
720.164	40.65
720.346	41.51
720.529	41.14
720.712	41.17
720.894	41.5
721.077	40.74
721.259	40.24
721.442	40.67
721.624	40.93
721.807	41.24
721.989	41.34
722.172	41.17
722.354	40.49
722.537	40.53
722.719	40.82
722.901	41.11
723.084	41.27
723.266	41.91
723.448	41.52
723.631	41.29
723.813	41.67
723.995	40.94
724.178	41.29
724.36	41.41
724.542	41.33
724.724	41.78
724.907	40.88
725.089	41.5
725.271	41.22
725.453	42.24
725.635	41.75
725.817	40.02
725.999	40.47
726.181	40.88
726.364	41.2
726.546	41.92
726.728	42.26
726.91	42.02
727.092	40.48
727.274	40.5
727.456	40.4
727.638	41.23
727.819	42.5
728.001	43.3
728.183	42.29
728.365	42.36
728.547	41.99
728.729	40.71
728.911	40.99
729.093	42.12
729.274	41.92
729.456	41.39
729.638	41.05
729.82	40.69
730.001	40.45
730.183	41.55
730.365	40.32
730.546	40.64
730.728	41.53
730.91	41.27
731.091	40.13
731.273	39.55
731.455	39.83
731.636	40.12
731.818	40.9
731.999	41.2
732.181	41.15
732.362	41.39
732.544	40.69
732.725	39.53
732.907	39.53
733.088	39.24
733.27	40.13
733.451	40.55
733.633	40.53
733.814	39.6
733.995	38.99
734.177	38.43
734.358	38.53
734.539	38.03
734.721	38.58
734.902	38.51
735.083	39.58
735.264	39.33
735.446	39.59
735.627	39.31
735.808	40.55
735.989	39.52
736.17	39.82
736.351	39.09
736.533	40.65
736.714	40.58
736.895	40.24
737.076	40.66
737.257	40.45
737.438	40.43
737.619	40.64
737.8	39.94
737.981	40.9
738.162	39.99
738.343	40.49
738.524	40.29
738.705	40.39
738.886	40.26
739.067	39.66
739.247	39.89
739.428	39.52
739.609	40.15
739.79	40.58
739.971	40.93
740.151	40.59
740.332	40.73
740.513	40.63
740.694	40.53
740.874	40.66
741.055	40.53
741.236	40.43
741.417	40.49
741.597	40.38
741.778	39.48
741.958	39.15
742.139	39.91
742.32	40.03
742.5	39.19
742.681	40.99
742.861	41.51
743.042	42
743.222	42.71
743.403	42.4
743.583	42.19
743.764	41.46
743.944	41.46
744.124	41.71
744.305	42.43
744.485	42.99
744.666	41.8
744.846	41.87
745.026	42.07
745.207	41.06
745.387	42.07
745.567	42.42
745.747	42.18
745.928	42.39
746.108	42.47
746.288	42.5
746.468	42.64
746.648	43.16
746.829	43.04
747.009	43.7
747.189	43.91
747.369	42.95
747.549	42.18
747.729	42.78
747.909	43.24
748.089	43.7
748.269	43.37
748.449	43.7
748.629	43.4
748.809	44.01
748.989	44.02
749.169	44.4
749.349	45.08
749.529	45.94
749.709	46.51
749.889	46.07
750.068	45.17
750.248	43.97
750.428	43.78
750.608	44.03
750.788	44.64
750.967	43.61
751.147	42.27
751.327	41.25
751.507	39.72
751.686	40.13
751.866	40.58
752.046	39.87
752.225	40.23
752.405	40.81
752.585	41.65
752.764	40.6
752.944	41.97
753.123	42.7
753.303	42.09
753.482	42.07
753.662	42.04
753.841	41.05
754.021	41.89
754.2	42.38
754.38	40.79
754.559	39.88
754.739	39.37
754.918	37.64
755.097	37.43
755.277	38.21
755.456	39.07
755.635	38.51
755.815	38.93
755.994	38.42
756.173	38.39
756.352	39.15
756.532	38.75
756.711	39
756.89	40.4
757.069	41.56
757.248	41.36
757.427	41.83
757.607	41.02
757.786	42.03
757.965	42.98
758.144	43.19
758.323	42.32
758.502	43.66
758.681	43.52
758.86	43.11
759.039	42.56
759.218	42.59
759.397	42.72
759.576	42.43
759.755	41.02
759.934	41.26
760.113	41.24
760.291	42.2
760.47	40.45
760.649	40.52
760.828	40.94
761.007	40.48
761.186	40.52
761.364	39.9
761.543	41.5
761.722	43.48
761.901	43.08
762.079	43.28
762.258	43.29
762.437	44.04
762.615	43.89
762.794	43.84
762.972	43.63
763.151	44.28
763.33	44.47
763.508	44.51
763.687	43.85
763.865	43.06
764.044	43.24
764.222	42.57
764.401	42.23
764.579	42.97
764.758	42.21
764.936	42.76
765.114	42.56
765.293	42.81
765.471	43.88
765.65	42.93
765.828	44.35
766.006	44.37
766.184	45.32
766.363	45.87
766.541	45.94
766.719	47.16
766.898	47.33
767.076	46.43
767.254	45.2
767.432	42.71
767.61	43.64
767.788	42.44
767.967	42.59
768.145	42
768.323	41.87
768.501	41.14
768.679	40.54
768.857	39.82
769.035	41.46
769.213	42.04
769.391	42.97
769.569	42.82
769.747	42.44
769.925	41.68
770.103	42.53
770.281	41.42
770.459	41.2
770.636	41.91
770.814	43.99
770.992	44.17
771.17	42.37
771.348	42.92
771.525	43.37
771.703	44.19
771.881	44.9
772.059	43.24
772.236	45
772.414	43.84
772.592	42.93
772.769	40.73
772.947	40.61
773.125	43.51
773.302	42.31
773.48	40.53
773.657	40.52
773.835	40.92
774.013	43.2
774.19	40.86
774.368	42.02
774.545	40.92
774.723	40.43
774.9	39.1
775.077	39.25
775.255	39.54
775.432	40.28
775.61	41.75
775.787	39.73
775.964	36.36
776.142	37.41
776.319	38.27
776.496	37.31
776.674	38.2
776.851	38.93
777.028	36.51
777.205	37.36
777.382	37.1
777.56	36.58
777.737	37.86
777.914	38.69
778.091	38.04
778.268	35.98
778.445	38.43
778.622	37.5
778.8	38.95
778.977	41.33
779.154	40.96
779.331	41.37
779.508	40.59
779.685	40.24
779.862	42.22
780.038	43.85
780.215	44.9
780.392	42.73
780.569	41.71
780.746	41.23
780.923	39.89
781.1	38.53
781.277	39.47
781.453	40.27
781.63	39.93
781.807	39.7
781.984	39.29
782.16	39.7
782.337	41.13
782.514	42.12
782.691	41.79
782.867	41.05
783.044	40.16
783.221	38.85
783.397	38.01
783.574	35.73
783.75	35.09
783.927	36.48
784.103	36.37
784.28	37.38
784.456	41.41
784.633	39.08
784.809	40.3
784.986	44.14
785.162	44.26
785.339	45.06
785.515	45.99
785.692	46
785.868	43.34
786.044	44.27
786.221	43.92
786.397	40.45
786.573	43.47
786.749	43.56
786.926	42.76
787.102	43.31
787.278	41.76
787.454	42.94
787.631	41.87
787.807	41.39
787.983	39.28
788.159	38.92
788.335	37.46
788.511	38.03
788.687	37.35
788.863	36.85
789.039	38.63
789.216	38.11
789.392	39.16
789.568	39.02
789.744	41.97
789.919	42.74
790.095	44.67
790.271	47.87
790.447	46.3
790.623	48.43
790.799	48.85
790.975	45.75
791.151	46.86
791.327	47.13
791.502	48.28
791.678	48.02
791.854	48.35
792.03	44.7
792.205	45.09
792.381	43.79
792.557	44.81
792.733	42.22
792.908	43.74
793.084	43.07
793.259	41.12
793.435	42.22
793.611	42.73
793.786	44.26
793.962	44.45
794.137	46.09
794.313	46.93
794.488	44.46
794.664	47.9
794.839	48.05
795.015	48.37
795.19	50.26
795.366	47.18
795.541	42.27
795.716	39.86
795.892	40.24
796.067	38.14
796.242	40.51
796.418	41.05
796.593	39.4
796.768	38.87
796.944	40.59
797.119	41.64
797.294	42.83
797.469	47.8
797.644	48.18
797.82	48.41
797.995	47.11
798.17	45.07
798.345	45.29
798.52	47.13
798.695	46.73
798.87	46.84
799.045	45.01
799.22	45.9
799.395	42.77
799.57	43.79
799.745	43.88
799.92	44.5
800.095	44.84
800.27	44.34
800.445	41.96
800.62	43.9
800.795	41.5
800.97	43.45
801.145	43.8
801.319	42.62
801.494	42.52
801.669	42.06
801.844	39.69
802.018	39.2
802.193	43.32
802.368	43.9
802.543	41.37
802.717	43.98
802.892	42.41
803.067	41.3
803.241	44.33
803.416	44.18
803.59	45.7
803.765	48.3
803.94	46.11
804.114	39.91
804.289	36.46
804.463	35.4
804.638	30.61
804.812	30.79
804.986	32.55
805.161	28.78
805.335	28.43
805.51	30.54
805.684	28.77
805.858	30.38
806.033	31.56
806.207	33.27
806.381	35.7
806.556	40.08
806.73	38.6
806.904	40.83
807.078	40.88
807.253	42.81
807.427	40.64
807.601	41.78
807.775	40.34
807.949	42.11
808.123	42.35
808.298	45.31
808.472	43.17
808.646	43.96
808.82	41.65
808.994	41.97
809.168	39.24
809.342	39.43
809.516	42.26
809.69	46.63
809.864	41.92
810.038	46.39
810.212	40.55
810.385	42.53
810.559	42.07
810.733	40.58
810.907	41.21
811.081	41.3
811.255	38.5
811.428	37.04
811.602	32.9
811.776	35.95
811.95	34.23
812.123	36.7
812.297	34.58
812.471	35.55
812.644	34.19
812.818	36.13
812.992	36.15
813.165	38.94
813.339	36.94
813.512	39.51
813.686	45.13
813.86	43.3
814.033	39.71
814.207	39.26
814.38	40.03
814.554	40.43
814.727	37.63
814.9	37.89
815.074	41.69
815.247	41.69
815.421	42.21
815.594	37.97
815.767	36.2
815.941	42.5
816.114	44.62
816.287	44.42
816.46	43.58
816.634	40.45
816.807	38.68
816.98	31.08
817.153	32.43
817.327	31.32
817.5	29.46
817.673	28.47
817.846	25.94
818.019	27.18
818.192	27.4
818.365	33.49
818.538	42.56
818.711	44.04
818.884	45.2
819.057	42.18
819.23	42.6
819.403	40.29
819.576	42.13
819.749	40.63
819.922	39.32
820.095	40.28
820.268	36.05
820.441	33.82
820.614	36.61
820.786	37.81
820.959	40.4
821.132	41.11
821.305	42.47
821.477	42.99
821.65	44.38
821.823	43.5
821.996	43.34
822.168	43.44
822.341	43.44
822.514	42.95
822.686	43.4
822.859	43.05
823.031	43.14
823.204	43.05
823.376	43.5
823.549	43.68
823.722	44
823.894	43.69
824.067	44.55
824.239	44.54
824.411	45.42
824.584	45.02
824.756	45.36
824.929	45.88
825.101	45.83
825.273	45.56
825.446	45.19
825.618	45.6
825.79	45.29
825.963	43.94
826.135	44.41
826.307	43.45
826.479	43.9
826.652	42.96
826.824	41.68
826.996	42.11
827.168	40.86
827.34	40.61
827.512	40.72
827.684	40.74
827.856	41.88
828.029	41.23
828.201	41.47
828.373	40.85
828.545	41.37
828.717	41.02
828.889	39.4
829.061	41.14
829.232	40
829.404	38.71
829.576	39.42
829.748	38.47
829.92	39.12
830.092	37.77
830.264	35.23
830.436	35.24
830.607	34.63
830.779	35.69
830.951	32.97
831.123	34.19
831.294	34.99
831.466	34.8
831.638	31.24
831.809	29.36
831.981	30.16
832.153	32.96
832.324	31.33
832.496	34.38
832.667	32.28
832.839	34.44
833.011	34.61
833.182	33.9
833.354	30.61
833.525	35.8
833.697	36.57
833.868	37.28
834.039	39.38
834.211	42.49
834.382	43.3
834.554	45.25
834.725	45.12
834.896	45.05
835.068	46.33
835.239	47.95
835.41	47.33
835.581	48.46
835.753	49.16
835.924	48.66
836.095	48.41
836.266	48.2
836.438	48.52
836.609	48.93
836.78	50.3
836.951	48.41
837.122	49.98
837.293	51.55
837.464	50.45
837.635	47.41
837.806	47.2
837.977	43.9
838.148	42.85
838.319	40.73
838.49	42.53
838.661	38.77
838.832	41.95
839.003	35.65
839.174	27.82
839.345	26.05
839.516	24.39
839.687	21.04
839.857	22.44
840.028	21.43
840.199	23.08
840.37	17.83
840.54	20.68
840.711	19.74
840.882	25.88
841.053	27.44
841.223	27.4
841.394	33.34
841.564	35.45
841.735	37.56
841.906	37.38
842.076	41.66
842.247	43.86
842.417	41.16
842.588	40.23
842.758	40.57
842.929	39.5
843.099	32.9
843.27	26.79
843.44	26.01
843.611	23.79
843.781	12.75
843.951	13.38
844.122	16.04
844.292	13.65
844.462	8.93
844.633	4.91
844.803	16.05
844.973	22.6
845.144	27.7
845.314	25.82
845.484	36.27
845.654	57.18
845.824	52.55
845.995	44.19
846.165	53.21
846.335	65.3
846.505	71.25
846.675	55.41
846.845	53.63
847.015	49.53
847.185	41.13
847.355	18.24
847.525	12.69
847.695	11.73
847.865	-1.32
848.035	-4.55
848.205	-33.05
848.375	-18.18
848.545	-7.14
848.715	-8.82
848.884	-11.31
849.054	-18.76
849.224	2.38
849.394	29.97
849.564	29.84
849.733	65.15
849.903	29.5
850.073	45.27
850.243	42.73
850.412	37.21
850.582	42.25
850.752	33.49
850.921	53.43
851.091	34.2
851.26	27.67
851.43	33.98
851.599	15.6
851.769	29.12
851.939	33.01
852.108	-1.25
852.278	16.45
852.447	16.88
852.616	23.45
852.786	-30.8
852.955	-24.03
853.125	-54.98
853.294	-55.44
853.463	-67.21
853.633	-87.14
853.802	-110.88
853.971	-90.4
854.141	-96.49
854.31	-113.27
854.479	-168.72
854.648	-126.7
854.818	-87.61
854.987	-63
855.156	-64.06
855.325	-22.71
855.494	-34.2
855.663	-23.52
855.832	16.05
856.001	71.36
856.171	79.02
856.34	87.39
856.509	68.05
856.678	59.78
856.847	113.07
857.016	93
857.185	97.54
857.353	82.75
857.522	73.45
857.691	60.57
857.86	57.72
858.029	53.05
858.198	45.26
858.367	54.44
858.535	37.75
858.704	8.51
858.873	26.46
859.042	21.61
859.21	12.17
859.379	25.57
859.548	9.91
859.717	9.24
859.885	-5.88
860.054	3.09
860.222	-26.16
860.391	2.13
860.56	16.72
860.728	13.48
860.897	17.4
861.065	20.6
861.234	13.54
861.402	15.05
861.571	16.44
861.739	20.51
861.908	18.99
862.076	34.44
862.244	29.1
862.413	20.83
862.581	-0.25
862.749	-80.24
862.918	-138.26
863.086	-126.36
863.254	-166.98
863.423	-268.54
863.591	-152.95
863.759	-250.14
863.927	-358.03
864.096	-1380.05
864.264	363.96
864.432	422.69
864.6	-38.4
864.768	75.02
864.936	52.17
865.104	76.28
865.272	33.3
865.44	-13.23
865.608	-3.84
865.776	-95.33
865.944	-90.92
866.112	-39.04
866.28	-23.39
866.448	-19.69
866.616	-12.01
866.784	1.25
866.952	-12.22
867.12	-1.55
867.288	22.9
867.455	19.84
867.623	39.09
867.791	38.9
867.959	35.27
868.127	41.21
868.294	38.79
868.462	22.18
868.63	6.33
868.797	8.05
868.965	-51.7
869.133	-14.64
869.3	-30.91
869.468	17
869.636	60.53
869.803	58.96
869.971	33.46
870.138	28.14
870.306	49.28
870.473	50.45
870.641	45.14
870.808	56.05
870.975	40.57
871.143	63.15
871.31	81.88
871.478	8.11
871.645	25.93
871.812	4.64
871.98	4.63
872.147	-12.96
872.314	8.57
872.482	-27.64
872.649	-72.88
872.816	-9.48
872.983	-119.17
873.15	-36
873.318	-20.4
873.485	-43.84
873.652	49.12
873.819	51.61
873.986	31.85
874.153	26.08
874.32	33.91
874.487	31.34
874.654	23.15
874.821	21.19
874.988	24.03
875.155	29.14
875.322	32.49
875.489	14.23
875.656	-3.19
875.823	-0.34
875.99	-1.27
876.157	-3.22
876.324	5.52
876.49	15.92
876.657	8.75
876.824	13.64
876.991	10.47
877.157	17.69
877.324	23.53
877.491	33.49
877.658	27.15
877.824	26.15
877.991	32.75
878.157	14.43
878.324	1.91
878.491	8.68
878.657	-4.49
878.824	3
878.99	2.09
879.157	-26.97
879.323	-19.06
879.49	2.47
879.656	-21.23
879.823	-7.64
879.989	0.06
880.156	1.13
880.322	-2.31
880.488	5.41
880.655	7.65
880.821	-0.78
880.987	12.34
881.154	15.76
881.32	17.57
881.486	31.68
881.652	42.64
881.819	50.78
881.985	54.77
882.151	55.13
882.317	50.47
882.483	43.93
882.649	43.44
882.816	43.43
882.982	44.14
883.148	43.6
883.314	43.61
883.48	43.04
883.646	40.37
883.812	39.96
883.978	39.51
884.144	40.03
884.31	43.69
884.476	44.78
884.642	45.81
884.807	47.74
884.973	48.66
885.139	50.78
885.305	49.18
885.471	51.54
885.637	50.19
885.802	50.59
885.968	51.38
886.134	51.58
886.3	50.07
886.465	50.01
886.631	45.31
886.797	44.93
886.962	43.86
887.128	42.13
887.293	39.61
887.459	38.09
887.625	41
887.79	39.5
887.956	35.6
888.121	35.8
888.287	31.97
888.452	35.03
888.618	34.4
888.783	16.41
