Data from CB_106_Reflection_3.txt Node
Date: Sat Nov 14 18:02:22 EST 2015
User: robert
Spectrometer: USB4E03001
Autoset integration time: false
Trigger mode: 4
Integration Time (sec): 1.000000E-1
Scans to average: 15
Electric dark correction enabled: true
Nonlinearity correction enabled: false
Boxcar width: 5
Stray light correction enabled: false
XAxis mode: Wavelengths
Stop averaging: false
Number of Pixels in Spectrum: 3648
>>>>>Begin Spectral Data<<<<<
177.566	132.23
177.785	-215.76
178.005	74.93
178.225	319.83
178.445	-367.37
178.665	70.62
178.885	-345.36
179.105	34.41
179.324	-34.54
179.544	53.76
179.764	54.23
179.984	39.33
180.204	15.01
180.423	2.81
180.643	16.83
180.863	-15.49
181.083	-4
181.302	-10.19
181.522	23.03
181.742	33.66
181.961	-15.51
182.181	-16.53
182.401	-20.41
182.621	-9.01
182.84	14.57
183.06	50.93
183.279	53.76
183.499	85.44
183.719	20.61
183.938	-36.59
184.158	25.08
184.377	40.83
184.597	42.85
184.816	42.44
185.036	65.98
185.256	93.15
185.475	96.18
185.695	97.34
185.914	96.72
186.134	112.45
186.353	121.73
186.572	111.53
186.792	114.95
187.011	112.72
187.231	108.87
187.45	103.34
187.67	78.58
187.889	85.82
188.108	86.45
188.328	79.35
188.547	65.49
188.766	66.94
188.986	67.44
189.205	71.45
189.424	70.18
189.644	82.04
189.863	70.17
190.082	90.37
190.302	47.71
190.521	43.78
190.74	43.06
190.959	30.71
191.178	12.31
191.398	35.89
191.617	18.85
191.836	14.72
192.055	8.64
192.274	15.16
192.494	41.37
192.713	114.8
192.932	102.82
193.151	198.52
193.37	132.63
193.589	158.8
193.808	229.28
194.027	394.7
194.246	-1112.87
194.465	2157.19
194.685	199.91
194.904	156.25
195.123	98.94
195.342	125.15
195.561	103.49
195.78	113.12
195.999	125.48
196.218	78.34
196.436	88.07
196.655	80.14
196.874	82.67
197.093	84.34
197.312	77.35
197.531	74.95
197.75	64.59
197.969	63.55
198.188	58.29
198.407	41.55
198.625	59.77
198.844	52.68
199.063	61.82
199.282	72.33
199.501	52.09
199.719	51.44
199.938	69.17
200.157	75.89
200.376	73.14
200.594	89.65
200.813	105.54
201.032	89.16
201.251	85.61
201.469	94.49
201.688	86.24
201.907	93.18
202.125	126.44
202.344	145.45
202.563	139.57
202.781	120.74
203	109.33
203.218	128.59
203.437	131.64
203.656	170.74
203.874	120.3
204.093	164.8
204.311	139.28
204.53	138.32
204.748	99.34
204.967	120.7
205.185	151.76
205.404	130.81
205.622	122.57
205.841	133.55
206.059	122.22
206.278	99.67
206.496	77
206.715	85.66
206.933	71.29
207.151	79.37
207.37	63.45
207.588	60.8
207.806	70.43
208.025	57.73
208.243	41.78
208.461	50.44
208.68	66
208.898	63.98
209.116	62.2
209.335	56.56
209.553	65.79
209.771	79.99
209.989	69.06
210.208	51.04
210.426	47.66
210.644	50.22
210.862	31.66
211.081	28.43
211.299	41.63
211.517	59.93
211.735	73.22
211.953	64.14
212.171	69.28
212.39	59.25
212.608	70.92
212.826	75.38
213.044	79.66
213.262	82.75
213.48	91.84
213.698	83.42
213.916	89.35
214.134	80.17
214.352	86.05
214.57	83.37
214.788	94
215.006	93.34
215.224	100.55
215.442	146.76
215.66	119.94
215.878	115.64
216.096	107.36
216.314	92.05
216.532	97.03
216.75	98.58
216.968	82.02
217.185	108.79
217.403	157.38
217.621	204.05
217.839	132.55
218.057	202.31
218.275	174.39
218.492	222.83
218.71	233.38
218.928	248.51
219.146	335.79
219.363	252.32
219.581	267.76
219.799	230.13
220.017	185.87
220.234	186.73
220.452	205.83
220.67	228.82
220.887	344.58
221.105	430.97
221.323	5541.1
221.54	399.01
221.758	2148.57
221.976	800.9
222.193	192.89
222.411	302.7
222.629	494.4
222.846	570.98
223.064	-595.3
223.281	658.81
223.499	440.73
223.716	714.37
223.934	-572.67
224.151	-223.15
224.369	-138.14
224.586	-67.5
224.804	-25.07
225.021	-18.63
225.239	-16.88
225.456	-1.87
225.674	-1.21
225.891	-13.84
226.108	-41.93
226.326	-45.39
226.543	10.49
226.76	30.42
226.978	24.4
227.195	22.43
227.413	0.82
227.63	3.6
227.847	3.6
228.064	6.99
228.282	7.61
228.499	8.73
228.716	5.77
228.934	0.71
229.151	-2.98
229.368	-4.61
229.585	-5.38
229.802	-3.71
230.02	-5.28
230.237	-6.26
230.454	-4.38
230.671	-3.04
230.888	-5.61
231.105	-2.51
231.323	-3.67
231.54	-7.64
231.757	-9.88
231.974	-15.13
232.191	-16.04
232.408	-13.28
232.625	-13.69
232.842	-20.74
233.059	-18.14
233.276	-17.28
233.493	-28.95
233.71	-15.66
233.927	-2.81
234.144	-3.49
234.361	-2.7
234.578	-1.97
234.795	-1.47
235.012	-6.46
235.229	-7.49
235.446	-10.05
235.663	-6.24
235.879	-1.04
236.096	-7.85
236.313	-16.39
236.53	-11
236.747	-7.25
236.964	-7.34
237.181	-13.28
237.397	-10.62
237.614	-8.37
237.831	-10.22
238.048	-9.34
238.264	-15.46
238.481	-14.78
238.698	-6.13
238.915	-2.64
239.131	-1.81
239.348	1.46
239.565	5.89
239.781	10.02
239.998	6.6
240.215	3.65
240.431	0.76
240.648	8.45
240.865	9.17
241.081	8.78
241.298	9.24
241.514	7.2
241.731	7.89
241.947	8.55
242.164	7.41
242.38	10.85
242.597	12.1
242.814	14.01
243.03	11.59
243.246	11.28
243.463	10.07
243.679	7.91
243.896	9.63
244.112	7.44
244.329	6.33
244.545	8.46
244.762	5.53
244.978	6
245.194	3.14
245.411	2.42
245.627	2.99
245.843	3
246.06	3.81
246.276	3.89
246.492	5.78
246.709	5.22
246.925	5.51
247.141	6.32
247.357	6.96
247.574	7.14
247.79	8.22
248.006	9.15
248.222	9.63
248.439	9.89
248.655	9.75
248.871	9.76
249.087	10.9
249.303	9.41
249.519	9.11
249.736	8.47
249.952	9.37
250.168	9.69
250.384	7.87
250.6	8.15
250.816	5.79
251.032	5.28
251.248	5.5
251.464	3.8
251.68	3
251.896	1.16
252.112	0.11
252.328	-1.34
252.544	-4.11
252.76	-6.46
252.976	-8.28
253.192	-6.01
253.408	-5.08
253.624	-5.17
253.84	-3.82
254.056	-2.6
254.272	-2.06
254.487	-3.59
254.703	-1.06
254.919	-5.9
255.135	-3.71
255.351	-2.11
255.567	-0.56
255.782	-2.24
255.998	0.38
256.214	0.26
256.43	4.54
256.646	4.28
256.861	5.29
257.077	-1.19
257.293	6.22
257.508	8.64
257.724	8.78
257.94	8.97
258.155	8.36
258.371	6.01
258.587	4.87
258.802	3.39
259.018	5.6
259.234	6.15
259.449	7.35
259.665	6.59
259.88	5.85
260.096	5.77
260.312	5.92
260.527	6.12
260.743	6.23
260.958	6.37
261.174	6.75
261.389	6.34
261.605	6.47
261.82	6.79
262.036	6.21
262.251	6.65
262.466	6.64
262.682	5.13
262.897	5.9
263.113	6
263.328	7.92
263.543	5.31
263.759	2.92
263.974	1.08
264.189	-0.66
264.405	-0.69
264.62	0.59
264.835	1.58
265.051	2.31
265.266	1.31
265.481	1.07
265.696	-0.45
265.912	2.72
266.127	3.68
266.342	5.42
266.557	6.38
266.773	6.28
266.988	5.99
267.203	4.94
267.418	4.54
267.633	6.02
267.848	5.91
268.064	6.39
268.279	5.85
268.494	6.01
268.709	6.77
268.924	8.19
269.139	7.07
269.354	7.17
269.569	7.79
269.784	9.43
269.999	8.64
270.214	8.86
270.429	7.87
270.644	8.13
270.859	7.79
271.074	6.15
271.289	4.68
271.504	6.13
271.719	6.17
271.934	4.37
272.149	5.08
272.363	5.81
272.578	6.3
272.793	6.34
273.008	5.16
273.223	5.49
273.438	5.24
273.653	7.06
273.867	5.98
274.082	5.57
274.297	6.89
274.512	4.1
274.726	2.26
274.941	1.94
275.156	2.51
275.371	4.86
275.585	6.3
275.8	7.81
276.015	6.33
276.229	8.04
276.444	7.07
276.659	6.81
276.873	8.12
277.088	8.28
277.302	7.61
277.517	8.1
277.732	6.75
277.946	6.04
278.161	4.11
278.375	3.72
278.59	5.59
278.804	6.21
279.019	7.61
279.233	8.37
279.448	8.33
279.662	7.73
279.877	7.82
280.091	8.83
280.306	8.17
280.52	8.97
280.735	10.11
280.949	8.41
281.163	7.67
281.378	7.48
281.592	7.72
281.806	8.23
282.021	8.95
282.235	9.19
282.449	8.28
282.664	8.7
282.878	8.91
283.092	7.55
283.307	7.16
283.521	8.29
283.735	8.14
283.949	8.3
284.164	9.25
284.378	10.48
284.592	9.96
284.806	10.3
285.02	10.23
285.234	10
285.449	10.46
285.663	11.77
285.877	10.8
286.091	10.14
286.305	9.25
286.519	9.04
286.733	8.2
286.947	7.97
287.161	8.32
287.375	7.87
287.589	8.04
287.803	8.23
288.017	7.4
288.231	8.46
288.445	8.88
288.659	9.01
288.873	7.86
289.087	7.54
289.301	7.6
289.515	7.22
289.729	6.83
289.943	6.02
290.157	5.14
290.371	5.63
290.584	4.31
290.798	4.08
291.012	4.85
291.226	5.97
291.44	6.3
291.654	5.56
291.867	5.96
292.081	7.62
292.295	8.29
292.509	8.56
292.722	7.48
292.936	8.51
293.15	10.01
293.364	10.24
293.577	9.59
293.791	9.39
294.005	10.7
294.218	10.56
294.432	9.25
294.645	9.3
294.859	10.51
295.073	10.45
295.286	9.7
295.5	9.3
295.713	8.13
295.927	8.19
296.14	9.09
296.354	8.73
296.568	8.16
296.781	8.66
296.994	8.87
297.208	8.1
297.421	8.78
297.635	9.24
297.848	9.71
298.062	9.68
298.275	9.87
298.489	9.71
298.702	10.09
298.915	10.9
299.129	10.95
299.342	11.07
299.555	11.26
299.769	11.3
299.982	11.81
300.195	10.6
300.409	12.1
300.622	11.47
300.835	10.99
301.048	11.13
301.262	10.49
301.475	10.08
301.688	10.09
301.901	10.46
302.115	9.63
302.328	9.51
302.541	10.68
302.754	10.08
302.967	10.72
303.18	11.25
303.393	11.61
303.607	12.43
303.82	12.22
304.033	12.86
304.246	12.77
304.459	13.77
304.672	14.05
304.885	13.64
305.098	13.64
305.311	13.18
305.524	12.21
305.737	11.27
305.95	11.01
306.163	11.22
306.376	10.15
306.589	10.73
306.802	7.91
307.015	7.7
307.228	8.22
307.44	8.69
307.653	9.72
307.866	9.91
308.079	9.55
308.292	10.68
308.505	11.47
308.718	12.22
308.93	12.49
309.143	13.8
309.356	12.5
309.569	12.74
309.781	12.86
309.994	13.02
310.207	13.47
310.42	13.93
310.632	13.37
310.845	13.1
311.058	13.77
311.27	13.45
311.483	14.19
311.696	16.35
311.908	15.81
312.121	14.75
312.333	14.11
312.546	14.45
312.759	14.76
312.971	15.33
313.184	15.29
313.396	14.66
313.609	15.01
313.821	14.83
314.034	13.12
314.246	13.26
314.459	14.33
314.671	14.76
314.884	14.33
315.096	13.89
315.309	11.98
315.521	12.22
315.733	12.04
315.946	11.14
316.158	12.04
316.371	13.19
316.583	12.71
316.795	13.16
317.008	13.28
317.22	14.88
317.432	14.75
317.644	14.72
317.857	16.38
318.069	16.3
318.281	17.32
318.494	15.55
318.706	14.25
318.918	14.64
319.13	14.14
319.342	14.82
319.555	13.95
319.767	14.7
319.979	14.39
320.191	14.12
320.403	14.42
320.615	13.66
320.827	13.68
321.039	14.07
321.252	15.74
321.464	16.99
321.676	16.71
321.888	15.99
322.1	15.48
322.312	17.63
322.524	16.58
322.736	16.82
322.948	16.94
323.16	18.18
323.372	18.92
323.584	17.21
323.796	15.73
324.007	16.07
324.219	17.08
324.431	17.89
324.643	16.82
324.855	16.63
325.067	17.25
325.279	16.91
325.491	17.74
325.702	16.68
325.914	16.95
326.126	17.11
326.338	16.97
326.55	17.25
326.761	17.25
326.973	17.8
327.185	18.99
327.396	18.82
327.608	19.45
327.82	18.77
328.032	19.79
328.243	20.5
328.455	22.39
328.666	23.17
328.878	23.5
329.09	23.44
329.301	23.79
329.513	23.24
329.725	22.54
329.936	22.8
330.148	22.74
330.359	22.39
330.571	22.82
330.782	22.56
330.994	22.13
331.205	22.15
331.417	21.85
331.628	22.33
331.84	21.63
332.051	21.76
332.262	22.2
332.474	22.98
332.685	24.36
332.897	24.69
333.108	24.15
333.319	25.14
333.531	23.88
333.742	24.8
333.953	25.14
334.165	25.87
334.376	27.13
334.587	28.43
334.799	28.58
335.01	28.21
335.221	28.21
335.432	29.6
335.644	29.65
335.855	30.81
336.066	30.54
336.277	30.34
336.488	30.64
336.7	29.94
336.911	28.97
337.122	28.7
337.333	28.68
337.544	28.57
337.755	26.88
337.966	25.91
338.177	26.8
338.388	26.9
338.599	27.02
338.811	27.03
339.022	27.75
339.233	27.57
339.444	26.86
339.655	26.49
339.866	26
340.076	26.33
340.287	27.43
340.498	26.2
340.709	25.79
340.92	26.36
341.131	26.07
341.342	25.91
341.553	25.81
341.764	26.87
341.975	26.93
342.185	27.22
342.396	27.28
342.607	26.89
342.818	26.43
343.029	26.8
343.239	26.37
343.45	26.74
343.661	26.54
343.872	27.26
344.082	26.92
344.293	27.17
344.504	27.09
344.714	27.45
344.925	27.32
345.136	28.69
345.346	28.77
345.557	28.99
345.768	29.6
345.978	28.61
346.189	28.35
346.399	28.45
346.61	28.61
346.821	28.99
347.031	29.18
347.242	29.09
347.452	27.96
347.663	27.96
347.873	28.11
348.084	26.8
348.294	27.47
348.504	27.53
348.715	27.59
348.925	27.64
349.136	26.65
349.346	26.5
349.557	26.72
349.767	26.47
349.977	26.59
350.188	25.37
350.398	26.33
350.608	26.63
350.819	26.46
351.029	26.75
351.239	25.55
351.449	25.83
351.66	25.71
351.87	25.6
352.08	26.25
352.29	26.53
352.501	27.62
352.711	27.17
352.921	27.23
353.131	28.09
353.341	27.46
353.552	28.13
353.762	28.31
353.972	28.3
354.182	28.04
354.392	27.22
354.602	26.66
354.812	26.67
355.022	26.5
355.232	26.61
355.442	25.71
355.652	25.97
355.862	25.87
356.072	25.51
356.282	25.17
356.492	25.81
356.702	26.31
356.912	26.19
357.122	25.86
357.332	25.83
357.542	25.48
357.752	25.48
357.962	25.43
358.171	25.62
358.381	26.31
358.591	26.34
358.801	25.77
359.011	25.56
359.221	26.03
359.43	26.1
359.64	26.16
359.85	26.29
360.06	26.18
360.269	25.91
360.479	26.17
360.689	25.66
360.899	25.69
361.108	25.78
361.318	26.2
361.528	26.05
361.737	25.91
361.947	25.71
362.156	25.6
362.366	25.37
362.576	25.27
362.785	25.26
362.995	25.8
363.204	25.56
363.414	25.51
363.623	25.2
363.833	24.7
364.042	24.4
364.252	24.88
364.461	24.97
364.671	25.66
364.88	25.35
365.09	25.02
365.299	24.5
365.509	25.03
365.718	24.75
365.927	24.25
366.137	24.35
366.346	24.56
366.555	24.05
366.765	23.8
366.974	23.65
367.183	23.19
367.393	23.12
367.602	22.94
367.811	22.67
368.021	22.66
368.23	22.89
368.439	22.84
368.648	22.76
368.857	22.4
369.067	22.42
369.276	21.63
369.485	22.19
369.694	22.25
369.903	22.53
370.112	22.88
370.321	23.17
370.531	22.73
370.74	22.83
370.949	22.68
371.158	23.12
371.367	22.71
371.576	22.7
371.785	22.89
371.994	22.59
372.203	22.45
372.412	21.82
372.621	21.33
372.83	21.72
373.039	21.26
373.248	21.72
373.457	21.49
373.666	21.67
373.874	21.74
374.083	21.41
374.292	21.36
374.501	21.19
374.71	20.88
374.919	21.54
375.128	21.6
375.336	22.4
375.545	21.78
375.754	21.81
375.963	21.98
376.171	21.65
376.38	21.67
376.589	21.77
376.798	21.57
377.006	21.98
377.215	21.18
377.424	20.93
377.632	20.16
377.841	19.92
378.05	19.25
378.258	19.1
378.467	19.39
378.675	19.5
378.884	18.56
379.093	18.5
379.301	18.21
379.51	18.12
379.718	17.81
379.927	18.05
380.135	18.34
380.344	18.46
380.552	17.98
380.761	18.02
380.969	18.31
381.177	19.05
381.386	19.06
381.594	19.33
381.803	19.44
382.011	19.2
382.219	19.53
382.428	19.46
382.636	19.7
382.845	19.84
383.053	19.42
383.261	19.07
383.469	18.92
383.678	18.69
383.886	18.51
384.094	18.59
384.302	18.61
384.511	18.04
384.719	17.78
384.927	17.8
385.135	17.55
385.343	17.62
385.552	17.54
385.76	16.81
385.968	16.17
386.176	15.81
386.384	15.63
386.592	15.65
386.8	15.16
387.008	15.34
387.216	15.33
387.424	15.24
387.633	15.1
387.841	14.82
388.049	15.44
388.257	15.8
388.465	15.52
388.672	15.36
388.88	15.55
389.088	16.23
389.296	15.81
389.504	15.19
389.712	15.36
389.92	15.4
390.128	15.35
390.336	15.24
390.544	15.27
390.751	15.29
390.959	15.08
391.167	14.86
391.375	14.54
391.583	14.61
391.79	14.9
391.998	14.99
392.206	14.81
392.414	14.54
392.621	14.01
392.829	14.1
393.037	14.2
393.244	14.49
393.452	14.13
393.66	14.12
393.867	13.86
394.075	13.79
394.283	13.58
394.49	13.43
394.698	13.22
394.905	13.58
395.113	13.32
395.32	13.27
395.528	13.21
395.735	13.43
395.943	13.41
396.15	13.56
396.358	13.32
396.565	13.29
396.773	13.39
396.98	13.6
397.188	13.62
397.395	13.77
397.602	13.65
397.81	13.34
398.017	13.12
398.225	13.23
398.432	13.29
398.639	13.34
398.847	13.6
399.054	13.74
399.261	13.72
399.468	13.45
399.676	13.34
399.883	13.37
400.09	13.26
400.297	13.52
400.505	12.92
400.712	12.77
400.919	12.44
401.126	11.86
401.333	11.71
401.54	11.8
401.748	11.87
401.955	11.93
402.162	11.95
402.369	12.15
402.576	12.04
402.783	12.36
402.99	12.29
403.197	12.55
403.404	12.61
403.611	12.17
403.818	12.1
404.025	11.97
404.232	11.85
404.439	11.91
404.646	11.76
404.853	11.62
405.06	11.62
405.267	11.52
405.474	11.47
405.681	11.53
405.887	11.58
406.094	11.45
406.301	11.55
406.508	11.6
406.715	11.41
406.922	11.39
407.128	11.66
407.335	11.68
407.542	11.85
407.749	11.87
407.955	11.6
408.162	12.3
408.369	12.53
408.575	12.48
408.782	12.26
408.989	12.21
409.195	12.52
409.402	11.99
409.609	11.87
409.815	11.59
410.022	11.64
410.228	12.02
410.435	11.67
410.642	11.78
410.848	11.57
411.055	11.52
411.261	11.46
411.468	11
411.674	11.45
411.881	11.39
412.087	11.31
412.294	11.58
412.5	11.38
412.706	11.11
412.913	10.74
413.119	11.08
413.326	11.33
413.532	11.8
413.738	12.25
413.945	12.03
414.151	12
414.357	12.23
414.564	12.02
414.77	11.88
414.976	12.09
415.182	12.13
415.389	12.07
415.595	11.91
415.801	11.63
416.007	11.42
416.214	11.28
416.42	11.28
416.626	11.25
416.832	11.22
417.038	11.33
417.244	11.33
417.45	11.52
417.657	11.33
417.863	11.31
418.069	11.32
418.275	11.11
418.481	11.2
418.687	11.11
418.893	11.23
419.099	11.19
419.305	11.01
419.511	11.02
419.717	10.86
419.923	10.91
420.129	10.92
420.335	10.84
420.541	11.13
420.746	11.15
420.952	11.25
421.158	11.16
421.364	10.98
421.57	11.12
421.776	11.08
421.982	10.99
422.187	10.93
422.393	10.95
422.599	11.01
422.805	10.94
423.01	11.11
423.216	11.11
423.422	11.11
423.628	11.37
423.833	11.4
424.039	11.42
424.245	11.54
424.45	11.6
424.656	11.6
424.862	11.57
425.067	11.56
425.273	11.33
425.478	11.31
425.684	11.35
425.889	11.11
426.095	11.23
426.301	11.09
426.506	11.17
426.712	11.1
426.917	11.22
427.123	11.33
427.328	11.39
427.533	11.46
427.739	11.47
427.944	11.43
428.15	11.56
428.355	11.23
428.561	11.38
428.766	11.28
428.971	11.35
429.177	11.41
429.382	11.27
429.587	11.06
429.793	10.96
429.998	11
430.203	10.94
430.408	11.11
430.614	11.18
430.819	11.25
431.024	11.25
431.229	11.41
431.434	10.94
431.64	10.91
431.845	11.02
432.05	11.02
432.255	11.05
432.46	11.04
432.665	10.79
432.87	10.75
433.076	10.75
433.281	10.58
433.486	10.55
433.691	10.63
433.896	10.76
434.101	10.65
434.306	10.57
434.511	10.42
434.716	10.46
434.921	10.79
435.126	10.6
435.331	10.61
435.535	10.91
435.74	10.81
435.945	11.03
436.15	10.87
436.355	10.9
436.56	10.91
436.765	11.03
436.97	11.02
437.174	10.85
437.379	10.98
437.584	11.03
437.789	10.9
437.993	10.99
438.198	10.92
438.403	10.95
438.608	10.89
438.812	11.06
439.017	10.97
439.222	11.19
439.426	11.14
439.631	11.29
439.836	11.22
440.04	11.24
440.245	11.21
440.45	11.21
440.654	11.22
440.859	11.22
441.063	11.18
441.268	11.15
441.472	10.84
441.677	10.83
441.881	10.76
442.086	10.76
442.29	10.55
442.495	10.68
442.699	10.59
442.904	10.56
443.108	10.6
443.312	10.55
443.517	10.58
443.721	10.44
443.925	10.35
444.13	10.28
444.334	10.43
444.538	10.75
444.743	10.61
444.947	10.62
445.151	10.52
445.356	10.6
445.56	10.77
445.764	10.92
445.968	11.09
446.173	11.19
446.377	11.12
446.581	10.99
446.785	10.82
446.989	10.8
447.193	10.94
447.398	11.02
447.602	11.09
447.806	10.97
448.01	10.86
448.214	10.93
448.418	10.68
448.622	10.62
448.826	10.51
449.03	10.55
449.234	10.48
449.438	10.32
449.642	10.22
449.846	9.98
450.05	10.01
450.254	10.04
450.458	9.83
450.662	10.2
450.866	10.45
451.069	10.71
451.273	10.65
451.477	10.76
451.681	10.66
451.885	10.89
452.089	10.88
452.292	10.76
452.496	10.64
452.7	10.75
452.904	10.68
453.107	10.56
453.311	10.49
453.515	10.47
453.719	10.47
453.922	10.47
454.126	10.33
454.33	10.31
454.533	10.21
454.737	10.19
454.94	10.31
455.144	10.37
455.348	10.41
455.551	10.39
455.755	10.44
455.958	10.38
456.162	10.5
456.365	10.64
456.569	10.76
456.772	10.94
456.976	10.94
457.179	10.76
457.383	10.67
457.586	10.76
457.79	10.8
457.993	10.77
458.196	10.69
458.4	10.85
458.603	10.71
458.807	10.73
459.01	10.73
459.213	10.88
459.417	10.98
459.62	10.78
459.823	10.65
460.026	10.5
460.23	10.59
460.433	10.69
460.636	10.6
460.839	10.57
461.042	10.57
461.246	10.62
461.449	10.46
461.652	10.28
461.855	10.53
462.058	10.57
462.261	10.78
462.464	10.74
462.668	10.67
462.871	10.58
463.074	10.63
463.277	10.56
463.48	10.45
463.683	10.34
463.886	10.43
464.089	10.11
464.292	10.19
464.495	10.1
464.698	10.05
464.901	10.17
465.104	10.26
465.306	10.35
465.509	10.27
465.712	10.24
465.915	10.44
466.118	10.41
466.321	10.65
466.524	10.69
466.726	10.58
466.929	10.34
467.132	10.39
467.335	10.19
467.538	10.26
467.74	10.19
467.943	10.16
468.146	10.15
468.348	10.26
468.551	10.25
468.754	10.18
468.956	10.41
469.159	10.64
469.362	10.72
469.564	10.87
469.767	10.84
469.969	11.06
470.172	11.33
470.375	11.31
470.577	11.26
470.78	11.07
470.982	11.17
471.185	10.96
471.387	11.03
471.59	10.78
471.792	10.58
471.995	10.38
472.197	10.33
472.399	9.98
472.602	9.95
472.804	9.92
473.007	10.11
473.209	10.2
473.411	10.16
473.614	10.04
473.816	10.01
474.018	10.15
474.22	10.17
474.423	10.19
474.625	10.33
474.827	10.42
475.03	10.45
475.232	10.32
475.434	10.24
475.636	10.26
475.838	10.43
476.04	10.54
476.243	10.54
476.445	10.53
476.647	10.5
476.849	10.48
477.051	10.5
477.253	10.49
477.455	10.44
477.657	10.31
477.859	10.34
478.061	10.3
478.263	10.38
478.465	10.16
478.667	10.26
478.869	10.21
479.071	10.24
479.273	10.29
479.475	10.41
479.677	10.53
479.879	10.59
480.081	10.67
480.283	10.65
480.485	10.39
480.686	10.67
480.888	10.62
481.09	10.58
481.292	10.47
481.494	10.45
481.695	10.49
481.897	10.61
482.099	10.59
482.301	10.51
482.502	10.55
482.704	10.62
482.906	10.66
483.107	10.63
483.309	10.66
483.511	10.72
483.712	10.65
483.914	10.56
484.115	10.53
484.317	10.55
484.519	10.56
484.72	10.53
484.922	10.53
485.123	10.48
485.325	10.46
485.526	10.47
485.728	10.42
485.929	10.43
486.131	10.41
486.332	10.33
486.534	10.32
486.735	10.35
486.936	10.32
487.138	10.35
487.339	10.33
487.541	10.38
487.742	10.32
487.943	10.35
488.144	10.4
488.346	10.44
488.547	10.48
488.748	10.45
488.95	10.48
489.151	10.41
489.352	10.36
489.553	10.43
489.755	10.48
489.956	10.45
490.157	10.45
490.358	10.36
490.559	10.38
490.76	10.35
490.961	10.39
491.163	10.37
491.364	10.46
491.565	10.45
491.766	10.47
491.967	10.37
492.168	10.51
492.369	10.47
492.57	10.49
492.771	10.46
492.972	10.46
493.173	10.44
493.374	10.43
493.575	10.39
493.776	10.32
493.976	10.35
494.177	10.28
494.378	10.25
494.579	10.45
494.78	10.62
494.981	10.66
495.182	10.84
495.382	10.92
495.583	10.92
495.784	10.94
495.985	11.14
496.185	10.85
496.386	10.84
496.587	10.74
496.788	10.72
496.988	10.68
497.189	10.82
497.39	10.78
497.59	10.76
497.791	10.81
497.992	10.82
498.192	10.74
498.393	10.88
498.593	11.08
498.794	11.1
498.994	11.09
499.195	10.83
499.395	10.73
499.596	10.71
499.796	10.78
499.997	10.74
500.197	10.93
500.398	10.98
500.598	11.04
500.799	11.04
500.999	10.99
501.199	10.92
501.4	11.15
501.6	11.27
501.801	11.18
502.001	11.17
502.201	11.32
502.402	11.14
502.602	11.14
502.802	11.13
503.002	11.13
503.203	11.36
503.403	11.35
503.603	11.35
503.803	11.28
504.003	11.29
504.204	11.18
504.404	11.24
504.604	11.41
504.804	11.38
505.004	11.31
505.204	11.42
505.404	11.35
505.604	11.38
505.804	11.32
506.005	11.39
506.205	11.56
506.405	11.63
506.605	11.43
506.805	11.36
507.005	11.49
507.204	11.74
507.404	11.68
507.604	11.57
507.804	11.54
508.004	11.74
508.204	11.85
508.404	11.81
508.604	11.96
508.804	12.18
509.003	12.46
509.203	12.36
509.403	12.4
509.603	12.45
509.803	12.71
510.002	12.82
510.202	12.92
510.402	12.8
510.602	12.79
510.801	12.77
511.001	12.68
511.201	12.52
511.4	12.63
511.6	12.59
511.8	12.7
511.999	12.63
512.199	12.74
512.398	12.7
512.598	12.86
512.797	13.01
512.997	13.18
513.197	13.28
513.396	13.22
513.596	13.42
513.795	13.59
513.994	13.44
514.194	13.57
514.393	13.8
514.593	13.94
514.792	13.92
514.992	13.99
515.191	13.91
515.39	13.99
515.59	14.28
515.789	14.4
515.988	14.35
516.188	14.75
516.387	14.82
516.586	14.74
516.786	14.79
516.985	14.83
517.184	14.89
517.383	15.01
517.582	15.08
517.782	15.12
517.981	15.16
518.18	15.25
518.379	15.22
518.578	15.19
518.777	15.25
518.976	15.31
519.176	15.47
519.375	15.7
519.574	15.77
519.773	15.79
519.972	15.91
520.171	15.89
520.37	15.94
520.569	15.96
520.768	16.12
520.967	16.26
521.166	16.3
521.365	16.53
521.564	16.37
521.762	16.42
521.961	16.58
522.16	16.54
522.359	16.65
522.558	16.8
522.757	16.82
522.956	16.98
523.154	17.13
523.353	17.22
523.552	17.28
523.751	17.45
523.949	17.73
524.148	17.83
524.347	17.92
524.546	18.06
524.744	18.25
524.943	18.38
525.142	18.38
525.34	18.4
525.539	18.31
525.737	18.42
525.936	18.5
526.135	18.56
526.333	18.69
526.532	18.89
526.73	18.9
526.929	18.79
527.127	18.94
527.326	19.11
527.524	19.17
527.723	19.45
527.921	19.49
528.12	19.58
528.318	19.6
528.516	19.64
528.715	19.75
528.913	19.87
529.112	19.9
529.31	20.02
529.508	20.08
529.707	20.17
529.905	20.2
530.103	20.22
530.301	20.31
530.5	20.45
530.698	20.53
530.896	20.51
531.094	20.56
531.293	20.75
531.491	20.65
531.689	20.7
531.887	20.79
532.085	20.83
532.283	20.94
532.481	21.02
532.68	21.02
532.878	21.21
533.076	21.3
533.274	21.43
533.472	21.45
533.67	21.59
533.868	21.65
534.066	21.67
534.264	21.7
534.462	21.77
534.66	21.81
534.858	21.82
535.056	21.82
535.253	21.88
535.451	21.95
535.649	22.17
535.847	22.27
536.045	22.44
536.243	22.62
536.441	22.92
536.638	23.06
536.836	23.17
537.034	23.36
537.232	23.3
537.43	23.37
537.627	23.38
537.825	23.45
538.023	23.5
538.22	23.43
538.418	23.43
538.616	23.43
538.813	23.39
539.011	23.38
539.209	23.47
539.406	23.56
539.604	23.72
539.801	23.84
539.999	23.97
540.196	24.1
540.394	24.28
540.591	24.42
540.789	24.37
540.986	24.49
541.184	24.6
541.381	24.61
541.579	24.64
541.776	24.67
541.974	24.72
542.171	24.72
542.368	24.78
542.566	24.86
542.763	24.88
542.96	24.98
543.158	25.04
543.355	25.11
543.552	25.2
543.75	25.37
543.947	25.43
544.144	25.59
544.341	25.72
544.539	25.77
544.736	25.82
544.933	25.98
545.13	26
545.327	26.01
545.524	26.13
545.722	26.27
545.919	26.32
546.116	26.38
546.313	26.29
546.51	26.37
546.707	26.4
546.904	26.33
547.101	26.33
547.298	26.42
547.495	26.51
547.692	26.52
547.889	26.51
548.086	26.63
548.283	26.7
548.48	26.91
548.677	26.81
548.874	26.88
549.07	27.11
549.267	27.3
549.464	27.48
549.661	27.49
549.858	27.65
550.055	27.75
550.251	27.75
550.448	27.71
550.645	27.68
550.842	27.79
551.038	27.97
551.235	28.02
551.432	27.93
551.628	27.93
551.825	28.09
552.022	28.04
552.218	27.87
552.415	27.96
552.612	28.17
552.808	28.17
553.005	28.38
553.201	28.37
553.398	28.32
553.594	28.41
553.791	28.51
553.987	28.48
554.184	28.52
554.38	28.94
554.577	28.93
554.773	29.03
554.97	29.04
555.166	28.96
555.362	29.02
555.559	29.07
555.755	29.21
555.952	29.19
556.148	29.21
556.344	29.33
556.541	29.27
556.737	29.35
556.933	29.34
557.129	29.42
557.326	29.51
557.522	29.67
557.718	29.82
557.914	29.99
558.11	30.23
558.307	30.5
558.503	30.67
558.699	30.78
558.895	30.82
559.091	30.76
559.287	31.04
559.483	31.16
559.679	31.15
559.876	31.23
560.072	31.27
560.268	31.11
560.464	31.19
560.66	31.34
560.856	31.23
561.052	31.51
561.247	31.52
561.443	31.43
561.639	31.62
561.835	31.56
562.031	31.62
562.227	31.75
562.423	31.85
562.619	31.86
562.815	31.88
563.01	32.1
563.206	32.14
563.402	32.22
563.598	32.5
563.793	32.37
563.989	32.61
564.185	32.62
564.381	32.47
564.576	32.69
564.772	32.61
564.968	32.4
565.163	32.37
565.359	32.43
565.555	32.5
565.75	32.49
565.946	32.59
566.141	32.58
566.337	32.77
566.532	32.8
566.728	32.72
566.923	32.92
567.119	33.05
567.314	33.02
567.51	32.98
567.705	33.19
567.901	33.08
568.096	33.24
568.292	33.33
568.487	33.3
568.682	33.45
568.878	33.59
569.073	33.64
569.268	33.71
569.464	33.89
569.659	33.91
569.854	33.9
570.05	34.09
570.245	34.19
570.44	34.21
570.635	34.19
570.831	34.07
571.026	33.94
571.221	33.86
571.416	33.85
571.611	33.92
571.806	33.98
572.002	34.09
572.197	34.16
572.392	34.03
572.587	33.96
572.782	34.11
572.977	34.3
573.172	34.47
573.367	34.46
573.562	34.65
573.757	34.74
573.952	34.62
574.147	34.58
574.342	34.51
574.537	34.57
574.732	34.57
574.927	34.41
575.121	34.26
575.316	34.37
575.511	34.45
575.706	34.39
575.901	34.35
576.096	34.5
576.29	34.57
576.485	34.65
576.68	34.68
576.875	35.15
577.069	35.09
577.264	35.17
577.459	35.1
577.654	35.26
577.848	35.22
578.043	35.32
578.238	35.55
578.432	35.63
578.627	35.86
578.821	35.99
579.016	35.66
579.21	35.73
579.405	35.96
579.6	36.08
579.794	35.95
579.989	36.19
580.183	35.92
580.378	35.66
580.572	35.49
580.766	35.52
580.961	35.5
581.155	35.43
581.35	35.73
581.544	35.97
581.738	35.94
581.933	36.21
582.127	36.04
582.321	36.33
582.516	36.32
582.71	36.42
582.904	36.19
583.099	36.11
583.293	36.62
583.487	36.59
583.681	36.11
583.875	35.9
584.07	35.51
584.264	35.57
584.458	35.71
584.652	35.89
584.846	36.15
585.04	35.98
585.234	35.87
585.428	35.58
585.623	35.65
585.817	36.06
586.011	36.13
586.205	36.49
586.399	36.48
586.593	36.24
586.787	36.45
586.981	36.4
587.174	36.78
587.368	36.67
587.562	36.59
587.756	36.62
587.95	36.54
588.144	36.65
588.338	36.56
588.532	36.6
588.725	36.84
588.919	36.94
589.113	36.84
589.307	36.85
589.501	37.36
589.694	37.79
589.888	37.82
590.082	37.58
590.275	37.52
590.469	37.58
590.663	37.49
590.856	37.38
591.05	37.21
591.244	37.22
591.437	37.39
591.631	37.21
591.824	36.97
592.018	36.85
592.212	36.83
592.405	37.18
592.599	37.13
592.792	37.13
592.986	37.3
593.179	37.53
593.372	37.51
593.566	37.53
593.759	37.43
593.953	37.76
594.146	37.76
594.339	38.07
594.533	37.99
594.726	38.22
594.92	38.43
595.113	38.47
595.306	38.35
595.499	38.45
595.693	38.31
595.886	38.64
596.079	38.5
596.272	38.62
596.466	38.52
596.659	38.55
596.852	38.45
597.045	38.58
597.238	38.41
597.431	38.58
597.624	38.67
597.818	38.78
598.011	38.75
598.204	38.72
598.397	38.95
598.59	39.04
598.783	38.94
598.976	39.02
599.169	39.04
599.362	39.11
599.555	38.87
599.748	38.96
599.941	38.71
600.134	38.71
600.326	38.64
600.519	38.21
600.712	38.56
600.905	38.63
601.098	38.5
601.291	38.27
601.483	38.53
601.676	38.56
601.869	38.55
602.062	38.69
602.255	38.5
602.447	38.42
602.64	38.81
602.833	38.83
603.025	38.71
603.218	38.66
603.411	38.95
603.603	38.87
603.796	38.81
603.989	38.71
604.181	38.86
604.374	39
604.566	39.2
604.759	38.91
604.951	38.79
605.144	38.86
605.336	39.12
605.529	39.03
605.721	39.06
605.914	39.28
606.106	39.28
606.299	39.19
606.491	39.18
606.683	39.14
606.876	39.49
607.068	39.63
607.26	39.68
607.453	39.58
607.645	39.56
607.837	39.47
608.03	39.61
608.222	39.68
608.414	39.97
608.606	40.25
608.799	40.22
608.991	39.98
609.183	39.79
609.375	40.01
609.567	40.26
609.759	40.22
609.952	40.59
610.144	40.51
610.336	40.66
610.528	40.58
610.72	40.54
610.912	40.74
611.104	41.08
611.296	41.36
611.488	41.35
611.68	41.15
611.872	41.11
612.064	41.02
612.256	41
612.448	40.96
612.64	40.8
612.832	40.39
613.023	40.2
613.215	40.03
613.407	39.92
613.599	39.74
613.791	39.96
613.983	39.98
614.174	40.08
614.366	40.11
614.558	40
614.75	39.89
614.941	40.08
615.133	40.1
615.325	39.98
615.516	40.01
615.708	40.32
615.9	40.3
616.091	40.45
616.283	40.13
616.475	40.19
616.666	40.27
616.858	40.39
617.049	40.73
617.241	40.68
617.432	40.61
617.624	40.34
617.815	40.23
618.007	40.25
618.198	40.28
618.39	40.4
618.581	40.2
618.773	40.24
618.964	40.27
619.155	40.33
619.347	40.48
619.538	40.4
619.729	40.78
619.921	40.82
620.112	40.89
620.303	40.69
620.494	40.46
620.686	40.43
620.877	40.49
621.068	40.57
621.259	40.12
621.451	39.86
621.642	40.04
621.833	39.67
622.024	39.6
622.215	39.5
622.406	39.95
622.597	40.04
622.788	40.34
622.98	40.37
623.171	40.77
623.362	40.95
623.553	41.22
623.744	41.33
623.935	41.71
624.126	41.61
624.317	41.35
624.508	41.27
624.698	41.68
624.889	41.16
625.08	40.91
625.271	40.57
625.462	40.32
625.653	40.33
625.844	40.19
626.034	40.2
626.225	40.46
626.416	40.72
626.607	40.66
626.798	40.24
626.988	40.76
627.179	40.99
627.37	41.38
627.56	41.67
627.751	41.63
627.942	41.91
628.132	41.84
628.323	41.49
628.514	41.34
628.704	41.3
628.895	41.18
629.085	40.82
629.276	40.86
629.466	40.83
629.657	40.89
629.847	40.9
630.038	40.81
630.228	40.82
630.419	41.04
630.609	41.04
630.8	41.11
630.99	41.43
631.181	41.66
631.371	41.66
631.561	41.3
631.752	41.01
631.942	40.94
632.132	40.87
632.323	40.72
632.513	40.76
632.703	40.96
632.893	40.9
633.084	41.14
633.274	41.07
633.464	41.24
633.654	41.38
633.844	41.27
634.034	41.51
634.225	41.61
634.415	41.63
634.605	41.79
634.795	41.59
634.985	41.72
635.175	41.64
635.365	41.56
635.555	41.36
635.745	41.06
635.935	41.3
636.125	41.21
636.315	41.13
636.505	41.2
636.695	41.25
636.885	41.38
637.075	41.64
637.265	41.56
637.455	41.89
637.644	41.91
637.834	41.82
638.024	41.8
638.214	41.87
638.404	42.19
638.593	42.41
638.783	41.98
638.973	42.01
639.163	41.5
639.352	41.38
639.542	41.24
639.732	41.21
639.921	41.37
640.111	41.46
640.301	40.8
640.49	40.3
640.68	40.11
640.87	40.28
641.059	40.38
641.249	40.53
641.438	40.52
641.628	40.74
641.817	41.03
642.007	40.89
642.196	41.14
642.386	41.69
642.575	41.69
642.764	41.5
642.954	41.65
643.143	41.41
643.333	41.51
643.522	41.61
643.711	41.42
643.901	41.12
644.09	41.52
644.279	41.33
644.469	41.54
644.658	41.37
644.847	41.62
645.036	41.25
645.226	41.34
645.415	41.45
645.604	41.15
645.793	41.15
645.982	41.44
646.171	41.13
646.361	41.04
646.55	40.6
646.739	41.12
646.928	41.02
647.117	41.13
647.306	41.46
647.495	41.41
647.684	41.89
647.873	41.98
648.062	41.89
648.251	42.23
648.44	41.91
648.629	42.53
648.818	42.53
649.007	42.8
649.196	43.04
649.384	42.55
649.573	42.71
649.762	42.86
649.951	42.82
650.14	42.55
650.328	42.41
650.517	42.13
650.706	41.59
650.895	41.2
651.083	41.2
651.272	41.15
651.461	41.78
651.65	41.26
651.838	41.12
652.027	41.05
652.216	41.19
652.404	41.48
652.593	42.27
652.781	42.35
652.97	42.44
653.158	42.45
653.347	42.3
653.535	41.9
653.724	42.38
653.912	42.31
654.101	42.76
654.289	42.54
654.478	42.25
654.666	42.15
654.855	42.21
655.043	42.38
655.231	42
655.42	42.04
655.608	41.95
655.796	41.57
655.985	41.53
656.173	41.05
656.361	41.21
656.55	41.68
656.738	41.49
656.926	41.82
657.114	41.48
657.302	41.6
657.491	41.8
657.679	41.77
657.867	42.26
658.055	42.13
658.243	41.68
658.431	41.62
658.619	41.46
658.807	41.46
658.996	41.13
659.184	41.59
659.372	41.57
659.56	41.38
659.748	41.48
659.936	41.22
660.124	41.58
660.311	42.06
660.499	42.35
660.687	42.15
660.875	42.28
661.063	42.62
661.251	42.61
661.439	42.41
661.627	42.68
661.814	42.83
662.002	42.92
662.19	42.35
662.378	42.39
662.565	42.03
662.753	41.97
662.941	41.82
663.129	41.34
663.316	41.45
663.504	41.87
663.692	41.89
663.879	41.58
664.067	41.37
664.254	41.54
664.442	41.1
664.63	41.29
664.817	41.45
665.005	41.65
665.192	41.87
665.38	41.25
665.567	41.44
665.755	41.47
665.942	41.71
666.13	41.62
666.317	41.91
666.504	42.03
666.692	42.14
666.879	42.42
667.067	42.32
667.254	42.41
667.441	42.63
667.629	42.69
667.816	42.91
668.003	42.3
668.19	42.5
668.378	42.58
668.565	42.98
668.752	42.91
668.939	42.67
669.127	42.51
669.314	42.16
669.501	42.04
669.688	41.99
669.875	41.68
670.062	42.16
670.249	42.03
670.436	41.85
670.623	41.64
670.81	41.42
670.997	41.6
671.184	41.7
671.371	41.7
671.558	41.98
671.745	42.11
671.932	42.21
672.119	41.94
672.306	42.33
672.493	42.43
672.68	42.2
672.867	42.28
673.054	42.22
673.24	42.74
673.427	43.06
673.614	43.1
673.801	42.81
673.988	42.41
674.174	42.73
674.361	42.21
674.548	41.95
674.734	42.06
674.921	42.07
675.108	41.67
675.294	41.34
675.481	40.82
675.668	40.65
675.854	40.83
676.041	40.9
676.227	40.7
676.414	41.06
676.601	40.88
676.787	41.14
676.974	40.84
677.16	40.64
677.347	40.94
677.533	41.32
677.719	41.41
677.906	40.58
678.092	40.98
678.279	41.46
678.465	41.14
678.651	41.42
678.838	41.75
679.024	42.28
679.21	42.9
679.397	42.74
679.583	42.7
679.769	42.91
679.955	43.23
680.142	43.01
680.328	42.81
680.514	43.2
680.7	43.05
680.886	42.84
681.073	42.74
681.259	42.18
681.445	41.86
681.631	41.96
681.817	41.66
682.003	41.73
682.189	41.54
682.375	41.61
682.561	41.45
682.747	41.31
682.933	40.8
683.119	40.72
683.305	41.04
683.491	41.47
683.677	41.27
683.863	41.63
684.049	41.18
684.235	41.35
684.42	41.35
684.606	41.33
684.792	41.36
684.978	41.42
685.164	41.79
685.349	41.73
685.535	41.36
685.721	41.67
685.907	41.28
686.092	42.27
686.278	42.2
686.464	42.24
686.649	42.07
686.835	42.2
687.021	42.39
687.206	41.99
687.392	42.06
687.577	42.59
687.763	42.94
687.948	42.83
688.134	42.4
688.319	42.58
688.505	42.41
688.69	42.95
688.876	43.2
689.061	43.64
689.247	43.73
689.432	43.9
689.618	43.56
689.803	43.46
689.988	43.73
690.174	43.8
690.359	43.79
690.544	43.61
690.73	43.33
690.915	43.58
691.1	43.28
691.285	43.66
691.471	43.43
691.656	43.71
691.841	43.62
692.026	43.03
692.211	42.65
692.396	42.37
692.582	42.39
692.767	42.12
692.952	41.91
693.137	41.79
693.322	41.27
693.507	41.4
693.692	40.81
693.877	40.43
694.062	40.77
694.247	41.62
694.432	42.3
694.617	42.16
694.802	42.07
694.987	42.29
695.172	42.58
695.357	43.02
695.541	43.14
695.726	43.01
695.911	43.4
696.096	43.8
696.281	43.31
696.466	43.48
696.65	43.64
696.835	43.57
697.02	43.28
697.204	42.84
697.389	42.75
697.574	42.03
697.759	42.33
697.943	42.26
698.128	42.62
698.312	42.54
698.497	42.03
698.682	42.09
698.866	42.06
699.051	41.89
699.235	42.01
699.42	42.24
699.604	42.42
699.789	42.4
699.973	42.08
700.158	41.5
700.342	41.44
700.527	41.54
700.711	41.54
700.895	41.66
701.08	41.62
701.264	41.52
701.448	41.21
701.633	41.16
701.817	40.58
702.001	40.76
702.186	40.74
702.37	40.6
702.554	40.59
702.738	41.07
702.923	41.31
703.107	41.55
703.291	41.03
703.475	40.45
703.659	41.2
703.843	41.79
704.027	42.26
704.212	42.49
704.396	42.86
704.58	42.64
704.764	42.52
704.948	42.4
705.132	42.55
705.316	43.67
705.5	44.35
705.684	44.72
705.868	45.14
706.052	44.69
706.235	44.54
706.419	44.19
706.603	44.67
706.787	44.07
706.971	43.96
707.155	44.55
707.339	44.39
707.522	44.76
707.706	43.84
707.89	43.74
708.074	44.09
708.257	44.5
708.441	44.69
708.625	44.36
708.808	44.63
708.992	44.63
709.176	44.06
709.359	43.4
709.543	42.77
709.727	42.52
709.91	42.18
710.094	41.89
710.277	42.04
710.461	41.7
710.644	41.9
710.828	42.39
711.011	42.49
711.195	42.67
711.378	43.28
711.562	43.15
711.745	43.61
711.928	43.87
712.112	44
712.295	43.29
712.478	43.62
712.662	43.62
712.845	42.54
713.028	42.35
713.212	42.6
713.395	42
713.578	41.44
713.761	41.83
713.945	42.16
714.128	42.13
714.311	42.62
714.494	42.66
714.677	41.77
714.86	42.73
715.043	42.68
715.227	41.96
715.41	42.46
715.593	42.62
715.776	42.62
715.959	42.42
716.142	42.57
716.325	42.35
716.508	42.47
716.691	42.98
716.874	42.3
717.057	42.55
717.239	42.89
717.422	42.67
717.605	42.95
717.788	42.52
717.971	41.88
718.154	41.39
718.337	41.38
718.519	41.09
718.702	40.99
718.885	41.49
719.068	41.42
719.25	40.78
719.433	40.65
719.616	40.14
719.798	40.7
719.981	40.45
720.164	40.69
720.346	41.74
720.529	41.22
720.712	41.12
720.894	41.24
721.077	41.35
721.259	40.77
721.442	40.07
721.624	41.4
721.807	40.68
721.989	41.67
722.172	41.39
722.354	40.71
722.537	41.2
722.719	41.07
722.901	40.96
723.084	41.11
723.266	42.15
723.448	42.01
723.631	41.13
723.813	41.33
723.995	40.05
724.178	41.06
724.36	41.33
724.542	41.87
724.724	43.16
724.907	43.02
725.089	43.28
725.271	43.56
725.453	44.32
725.635	43.56
725.817	43.11
725.999	44.3
726.181	43.16
726.364	42.36
726.546	42.5
726.728	41.65
726.91	41.52
727.092	40.74
727.274	40.34
727.456	40.33
727.638	41.49
727.819	42.07
728.001	42.79
728.183	43.59
728.365	44.03
728.547	43.85
728.729	43.57
728.911	43.44
729.093	43.63
729.274	43.78
729.456	43.89
729.638	43.13
729.82	42.42
730.001	42.11
730.183	40.94
730.365	41.23
730.546	41.29
730.728	41.82
730.91	42.56
731.091	41.82
731.273	41.9
731.455	41.42
731.636	41.79
731.818	42.51
731.999	42.23
732.181	43.47
732.362	42.96
732.544	42.38
732.725	41.63
732.907	40.9
733.088	41.27
733.27	40.91
733.451	41.76
733.633	41.78
733.814	40.76
733.995	40.13
734.177	39.31
734.358	40.38
734.539	41.02
734.721	41.14
734.902	41.42
735.083	41.96
735.264	42.32
735.446	42.4
735.627	42.68
735.808	43.78
735.989	43.28
736.17	43.54
736.351	42.7
736.533	43.1
736.714	44.44
736.895	44.42
737.076	44.43
737.257	43.87
737.438	44.26
737.619	44.23
737.8	44.79
737.981	45.91
738.162	46.13
738.343	46.78
738.524	45.74
738.705	44.77
738.886	44.6
739.067	44.56
739.247	44.46
739.428	42.85
739.609	42.35
739.79	42.64
739.971	42.3
740.151	41.83
740.332	40.97
740.513	41.79
740.694	42.57
740.874	41.58
741.055	40.24
741.236	40.92
741.417	42.01
741.597	42.58
741.778	41
741.958	39.78
742.139	40.46
742.32	40.41
742.5	39.62
742.681	38.77
742.861	40.44
743.042	40.55
743.222	40.54
743.403	39.18
743.583	39.06
743.764	38.24
743.944	39.85
744.124	39.37
744.305	39.59
744.485	39.32
744.666	39.15
744.846	39.12
745.026	40
745.207	39.4
745.387	40.15
745.567	39.97
745.747	40.66
745.928	39.76
746.108	39.5
746.288	40.04
746.468	40.83
746.648	41.3
746.829	40.14
747.009	40.36
747.189	40.83
747.369	40.96
747.549	39.99
747.729	39.48
747.909	39.57
748.089	39.83
748.269	39.12
748.449	39.14
748.629	38.59
748.809	39.49
748.989	39.95
749.169	39.58
749.349	39.62
749.529	41.38
749.709	42.38
749.889	42.75
750.068	41.39
750.248	40.3
750.428	40.39
750.608	40.63
750.788	41.15
750.967	41.22
751.147	42.17
751.327	43.57
751.507	42.64
751.686	42.7
751.866	42.68
752.046	42.8
752.225	43.7
752.405	44
752.585	44.57
752.764	44.16
752.944	44.18
753.123	44.51
753.303	42.78
753.482	42.94
753.662	43.35
753.841	43.21
754.021	43.99
754.2	43.87
754.38	43.81
754.559	43.42
754.739	42.31
754.918	41.61
755.097	40.35
755.277	40.65
755.456	40.63
755.635	39.71
755.815	39.49
755.994	40.51
756.173	40.42
756.352	40.14
756.532	40.04
756.711	40.31
756.89	40.94
757.069	42.31
757.248	41.67
757.427	41.94
757.607	40.82
757.786	41.28
757.965	40.85
758.144	41.45
758.323	41.2
758.502	43.19
758.681	44.14
758.86	44.37
759.039	43.9
759.218	44.37
759.397	44.59
759.576	45.47
759.755	45.49
759.934	45.51
760.113	44.57
760.291	44.51
760.47	42.48
760.649	42.51
760.828	41.27
761.007	40.12
761.186	41.37
761.364	40.62
761.543	41.58
761.722	41.89
761.901	41.81
762.079	42.16
762.258	42.35
762.437	42.61
762.615	42.33
762.794	43.3
762.972	43.04
763.151	43.07
763.33	42.61
763.508	41.72
763.687	41.32
763.865	41.34
764.044	41.26
764.222	41.08
764.401	40.32
764.579	40.72
764.758	40.14
764.936	40.89
765.114	40.64
765.293	41.52
765.471	42.05
765.65	41.91
765.828	41.63
766.006	41.87
766.184	42.89
766.363	43.78
766.541	43.53
766.719	43.66
766.898	44.28
767.076	42.84
767.254	42.09
767.432	42.18
767.61	42.66
767.788	42.04
767.967	42.36
768.145	41.91
768.323	41.27
768.501	41.44
768.679	41.92
768.857	40.66
769.035	42.17
769.213	43.17
769.391	41.95
769.569	42.16
769.747	41.61
769.925	40.7
770.103	38.92
770.281	38.78
770.459	36.95
770.636	37.84
770.814	38.53
770.992	38.69
771.17	37.32
771.348	38.58
771.525	39.04
771.703	39.45
771.881	40.52
772.059	42.27
772.236	43.01
772.414	42.63
772.592	41.55
772.769	40.52
772.947	40.32
773.125	42.11
773.302	42.7
773.48	42.54
773.657	43.19
773.835	42.27
774.013	40
774.19	37.85
774.368	38.29
774.545	37.69
774.723	37.45
774.9	36.41
775.077	33.86
775.255	32.74
775.432	30.39
775.61	30.84
775.787	30.06
775.964	31.92
776.142	33.57
776.319	33.91
776.496	33.74
776.674	33.39
776.851	34.54
777.028	34.75
777.205	34.93
777.382	35.71
777.56	34.14
777.737	34.31
777.914	33.25
778.091	34
778.268	33.43
778.445	32.92
778.622	34.47
778.8	33.47
778.977	34.72
779.154	34.42
779.331	36.39
779.508	39
779.685	38.09
779.862	39.84
780.038	39.74
780.215	40.28
780.392	40.14
780.569	38.17
780.746	40.4
780.923	41.9
781.1	42.66
781.277	42.19
781.453	43.31
781.63	45.58
781.807	43.86
781.984	44.45
782.16	44.87
782.337	46.12
782.514	49.08
782.691	46.12
782.867	43.9
783.044	43.33
783.221	43.46
783.397	40.41
783.574	38.26
783.75	40.87
783.927	41.27
784.103	42.49
784.28	42.69
784.456	41.79
784.633	42.46
784.809	44.85
784.986	46.58
785.162	42.47
785.339	43.03
785.515	43.89
785.692	43.64
785.868	43.17
786.044	42.84
786.221	42.79
786.397	41.02
786.573	42.65
786.749	41.68
786.926	41.35
787.102	42.61
787.278	44.62
787.454	44.85
787.631	41.89
787.807	41.54
787.983	40.35
788.159	39.04
788.335	37.87
788.511	35.33
788.687	33.62
788.863	30.26
789.039	32.45
789.216	31
789.392	32.35
789.568	32.58
789.744	31.84
789.919	31.43
790.095	33.41
790.271	35.43
790.447	38.66
790.623	40.59
790.799	44.21
790.975	41.29
791.151	40.64
791.327	38.73
791.502	38.74
791.678	39.92
791.854	39.67
792.03	37.14
792.205	37.97
792.381	36.04
792.557	36.15
792.733	35.57
792.908	38.16
793.084	38.44
793.259	39.79
793.435	40.23
793.611	40.34
793.786	40.78
793.962	41.42
794.137	40.84
794.313	42.6
794.488	43.07
794.664	43.39
794.839	43.67
795.015	45
795.19	45.09
795.366	44.56
795.541	43.53
795.716	43.24
795.892	43.94
796.067	44.37
796.242	45.74
796.418	43.01
796.593	43.23
796.768	41.23
796.944	41.43
797.119	41.73
797.294	41.03
797.469	41.5
797.644	42.62
797.82	41.61
797.995	39.73
798.17	37.88
798.345	40.48
798.52	38.54
798.695	40.92
798.87	39.92
799.045	39.28
799.22	41.49
799.395	42.15
799.57	43.28
799.745	42.01
799.92	43.09
800.095	40.24
800.27	37.94
800.445	38.48
800.62	36.65
800.795	36.78
800.97	38.4
801.145	39.14
801.319	36.62
801.494	35.92
801.669	36.59
801.844	36.05
802.018	39.34
802.193	42.12
802.368	43.34
802.543	44.5
802.717	45.75
802.892	45.66
803.067	43.45
803.241	44.83
803.416	44.16
803.59	46.02
803.765	48.95
803.94	46.51
804.114	42.72
804.289	40.06
804.463	38.37
804.638	34.57
804.812	32.49
804.986	34.81
805.161	35.05
805.335	37.37
805.51	36.7
805.684	34.67
805.858	36.94
806.033	39.82
806.207	41.01
806.381	43.69
806.556	45.08
806.73	44.9
806.904	45.47
807.078	45.13
807.253	40.88
807.427	40.46
807.601	37.98
807.775	37.36
807.949	35.58
808.123	36.45
808.298	35.03
808.472	33.37
808.646	31.27
808.82	29.95
808.994	27.56
809.168	30.12
809.342	30.33
809.516	34.9
809.69	34.32
809.864	33.21
810.038	34.99
810.212	35.16
810.385	39.28
810.559	41.14
810.733	37.81
810.907	37.46
811.081	38.37
811.255	35.28
811.428	33.47
811.602	32.5
811.776	34.64
811.95	38.07
812.123	38.27
812.297	36.79
812.471	39.3
812.644	43.69
812.818	43.78
812.992	40.71
813.165	43.23
813.339	45.05
813.512	42.91
813.686	43.13
813.86	36.33
814.033	36.57
814.207	37.01
814.38	35.09
814.554	35.96
814.727	40.12
814.9	41.02
815.074	44.09
815.247	38.19
815.421	41.73
815.594	43.72
815.767	42.07
815.941	41.42
816.114	37.23
816.287	33.06
816.46	27.7
816.634	28.57
816.807	27.3
816.98	25.08
817.153	30.3
817.327	30.17
817.5	26.59
817.673	27.1
817.846	24.06
818.019	30.92
818.192	32.32
818.365	37.76
818.538	41.44
818.711	41.66
818.884	40.47
819.057	36.84
819.23	35.94
819.403	37.65
819.576	38.32
819.749	38.79
819.922	36.92
820.095	38.91
820.268	34.55
820.441	28.42
820.614	32.28
820.786	32.02
820.959	34.74
821.132	36.03
821.305	36.33
821.477	36.75
821.65	37.6
821.823	38.11
821.996	37.6
822.168	38.64
822.341	39.86
822.514	38.78
822.686	39.89
822.859	40.54
823.031	40.74
823.204	40.13
823.376	40.53
823.549	40.98
823.722	41.04
823.894	41.07
824.067	41.06
824.239	40.65
824.411	41.19
824.584	40.63
824.756	40.34
824.929	40.65
825.101	40.94
825.273	40.33
825.446	39.44
825.618	39.01
825.79	40.06
825.963	39.89
826.135	39.79
826.307	38.89
826.479	38.04
826.652	36.96
826.824	35.39
826.996	35.02
827.168	34.89
827.34	34.88
827.512	34.43
827.684	33.83
827.856	34.06
828.029	34.63
828.201	35.64
828.373	36.68
828.545	36.52
828.717	37.82
828.889	38.85
829.061	40.27
829.232	40.54
829.404	40.32
829.576	40.91
829.748	41.24
829.92	42.55
830.092	42.78
830.264	42.98
830.436	44.17
830.607	43.49
830.779	43.29
830.951	39.88
831.123	39.3
831.294	39.51
831.466	36.27
831.638	34.66
831.809	34.43
831.981	34.63
832.153	31.86
832.324	30.34
832.496	29.42
832.667	28.2
832.839	30.42
833.011	33.19
833.182	33.83
833.354	34.19
833.525	34.52
833.697	35.41
833.868	32.93
834.039	35.29
834.211	39.15
834.382	39.49
834.554	41.26
834.725	40.58
834.896	37.29
835.068	38.68
835.239	40.48
835.41	40.4
835.581	40.28
835.753	41.33
835.924	40.31
836.095	38.56
836.266	39.83
836.438	38.92
836.609	40.45
836.78	42.33
836.951	40.38
837.122	38.26
837.293	39.64
837.464	36.65
837.635	34.39
837.806	34.03
837.977	30.03
838.148	25.83
838.319	22.59
838.49	22.99
838.661	23.4
838.832	21.37
839.003	21.41
839.174	13.68
839.345	8.98
839.516	8.91
839.687	1.34
839.857	17.4
840.028	23.6
840.199	27.9
840.37	21.93
840.54	28.64
840.711	37.21
840.882	38.91
841.053	40.06
841.223	44.5
841.394	46.4
841.564	50.19
841.735	43.43
841.906	44.61
842.076	44.05
842.247	49.64
842.417	41.92
842.588	34.54
842.758	31.73
842.929	29.17
843.099	20.04
843.27	18.03
843.44	15.36
843.611	11.63
843.781	3.16
843.951	4.37
844.122	5.8
844.292	5.32
844.462	9.84
844.633	14.75
844.803	28.88
844.973	38.07
845.144	39.97
845.314	42.4
845.484	45.72
845.654	57.1
845.824	57.9
845.995	61.09
846.165	66.56
846.335	68.25
846.505	69.61
846.675	42.41
846.845	32.51
847.015	27.24
847.185	33.49
847.355	23.07
847.525	17.34
847.695	9.29
847.865	-12.92
848.035	-17.22
848.205	-36
848.375	-29.71
848.545	-24.34
848.715	-16.64
848.884	-16.09
849.054	-45.52
849.224	-33.58
849.394	-13.67
849.564	-1.35
849.733	22.44
849.903	10.16
850.073	18.11
850.243	21.3
850.412	25.2
850.582	15.71
850.752	-4.64
850.921	19.3
851.091	25.36
851.26	13.17
851.43	14.45
851.599	-18.72
851.769	-13.46
851.939	-15.79
852.108	-35.64
852.278	-14.75
852.447	-16.02
852.616	2.4
852.786	-6.9
852.955	-25.44
853.125	-36.28
853.294	-3.88
853.463	9.84
853.633	15
853.802	6.05
853.971	-6.46
854.141	-46.88
854.31	-56.65
854.479	-96.07
854.648	-60.81
854.818	-30.99
854.987	-44.29
855.156	-76.65
855.325	-40.26
855.494	-76.07
855.663	-93.08
855.832	-113.3
856.001	-43.88
856.171	-27.02
856.34	2.09
856.509	-10.98
856.678	-7.59
856.847	42.29
857.016	34.99
857.185	-6.92
857.353	12.62
857.522	28.74
857.691	28.92
857.86	22.65
858.029	30.14
858.198	38.54
858.367	35.31
858.535	15.79
858.704	-10.34
858.873	-6.3
859.042	13
859.21	12.77
859.379	5.74
859.548	-22.74
859.717	-26.58
859.885	-24.02
860.054	-39.27
860.222	-62.8
860.391	-45.21
860.56	-9.28
860.728	7.26
860.897	9.4
861.065	7.17
861.234	11.57
861.402	26.22
861.571	23.13
861.739	24.33
861.908	34.16
862.076	40.02
862.244	46.13
862.413	27.39
862.581	2.42
862.749	-30.26
862.918	-16.75
863.086	-33.05
863.254	-29.52
863.423	13.79
863.591	75.26
863.759	6.67
863.927	219.32
864.096	335.61
864.264	-22.05
864.432	-124.73
864.6	550.51
864.768	183.87
864.936	130.95
865.104	128.51
865.272	76
865.44	29.3
865.608	59.99
865.776	-22.14
865.944	1.72
866.112	15.13
866.28	23
866.448	8.39
866.616	7.71
866.784	21.04
866.952	-2.02
867.12	9.98
867.288	25.93
867.455	25.51
867.623	37.85
867.791	45.59
867.959	44.41
868.127	46.08
868.294	64.29
868.462	58.14
868.63	50.45
868.797	49.1
868.965	17.93
869.133	33.05
869.3	-18.88
869.468	-24.49
869.636	0.63
869.803	-8.02
869.971	-3.49
870.138	-6.99
870.306	4.64
870.473	1.63
870.641	9.72
870.808	17.54
870.975	-10.13
871.143	12.28
871.31	35.52
871.478	-24.84
871.645	1.27
871.812	-22.01
871.98	-19.6
872.147	-67.04
872.314	-25.03
872.482	-38.3
872.649	-65.97
872.816	20.44
872.983	-123.57
873.15	-34.47
873.318	-36.77
873.485	-38.93
873.652	-38.04
873.819	-15.55
873.986	5.67
874.153	-5.81
874.32	-3.85
874.487	0.75
874.654	-9.86
874.821	14.11
874.988	16.71
875.155	38.62
875.322	31.43
875.489	45.22
875.656	27.07
875.823	29.87
875.99	10.45
876.157	20.35
876.324	40.28
876.49	44.99
876.657	50.63
876.824	41.58
876.991	19.59
877.157	23.52
877.324	1.2
877.491	19.3
877.658	11.42
877.824	30.14
877.991	7.66
878.157	-14.24
878.324	-29.33
878.491	-15.14
878.657	-27.29
878.824	-15.38
878.99	-22.43
879.157	-23.52
879.323	-8.73
879.49	13.15
879.656	-7.65
879.823	19.48
879.989	10.86
880.156	16.74
880.322	14.51
880.488	19.31
880.655	24.79
880.821	23.07
880.987	23.54
881.154	16.93
881.32	2.37
881.486	6.79
881.652	17.44
881.819	29.79
881.985	31.62
882.151	27.58
882.317	25.12
882.483	24.48
882.649	26.6
882.816	27.3
882.982	30.29
883.148	33.57
883.314	35.22
883.48	32.49
883.646	32.21
883.812	30.88
883.978	30.48
884.144	29.99
884.31	30
884.476	30.26
884.642	30.71
884.807	30.25
884.973	31.74
885.139	33.14
885.305	33.09
885.471	33.31
885.637	33.51
885.802	35.57
885.968	37.75
886.134	37.77
886.3	37.45
886.465	38.64
886.631	39.53
886.797	36.2
886.962	34.57
887.128	34.94
887.293	30.19
887.459	30.12
887.625	27.28
887.79	28.62
887.956	37.06
888.121	39.63
888.287	37.77
888.452	30.78
888.618	28.36
888.783	15.96
