Data from CB_105_Reflection_2.txt Node
Date: Sat Nov 14 17:59:47 EST 2015
User: robert
Spectrometer: USB4E03001
Autoset integration time: false
Trigger mode: 4
Integration Time (sec): 1.000000E-1
Scans to average: 15
Electric dark correction enabled: true
Nonlinearity correction enabled: false
Boxcar width: 5
Stray light correction enabled: false
XAxis mode: Wavelengths
Stop averaging: false
Number of Pixels in Spectrum: 3648
>>>>>Begin Spectral Data<<<<<
177.566	141.38
177.785	-541.87
178.005	99.45
178.225	341.37
178.445	-1755.79
178.665	182.61
178.885	-1078.35
179.105	125.03
179.324	124.5
179.544	52.61
179.764	35.99
179.984	33.76
180.204	16.12
180.423	29.49
180.643	55.99
180.863	124.59
181.083	96.33
181.302	105.83
181.522	119.16
181.742	113.29
181.961	165.9
182.181	242.06
182.401	683.42
182.621	453.53
182.84	607.88
183.06	265.34
183.279	114.35
183.499	169.66
183.719	28.34
183.938	34.46
184.158	95.04
184.377	83.64
184.597	94.57
184.816	78.89
185.036	80.89
185.256	86.86
185.475	97.2
185.695	100.99
185.914	84.81
186.134	97.49
186.353	99.41
186.572	81.28
186.792	87.04
187.011	85.7
187.231	87.82
187.45	80.51
187.67	74.21
187.889	79.75
188.108	88.76
188.328	97.5
188.547	94.69
188.766	102.26
188.986	91.21
189.205	69.82
189.424	71.93
189.644	72.59
189.863	75.38
190.082	75.01
190.302	62.64
190.521	44.3
190.74	30.27
190.959	10.37
191.178	5.87
191.398	2.12
191.617	85.03
191.836	49.93
192.055	54.2
192.274	44.01
192.494	65.99
192.713	111.9
192.932	184.95
193.151	300.54
193.37	176.63
193.589	145.32
193.808	192.82
194.027	15.23
194.246	-305.7
194.465	-74.51
194.685	4.71
194.904	-9.32
195.123	-15.5
195.342	-65.07
195.561	7.8
195.78	14.45
195.999	40.26
196.218	28.96
196.436	46.88
196.655	49.31
196.874	59.71
197.093	80.63
197.312	78.12
197.531	89.81
197.75	99.28
197.969	91.83
198.188	100.92
198.407	93.4
198.625	112.46
198.844	106.15
199.063	97.47
199.282	106.02
199.501	109.16
199.719	104.66
199.938	90.78
200.157	71.82
200.376	82.14
200.594	91.4
200.813	98.12
201.032	99.54
201.251	104.04
201.469	106.63
201.688	95.13
201.907	105.12
202.125	113.07
202.344	173.75
202.563	184.34
202.781	147.34
203	163.02
203.218	168.76
203.437	117.45
203.656	126.3
203.874	92.13
204.093	123.27
204.311	103.43
204.53	121.72
204.748	84.51
204.967	99.33
205.185	147.45
205.404	134.69
205.622	112.98
205.841	142.51
206.059	147.75
206.278	144.5
206.496	126.5
206.715	151.12
206.933	112.66
207.151	116.21
207.37	122.64
207.588	97.81
207.806	92.11
208.025	99.64
208.243	80.83
208.461	101.65
208.68	104.98
208.898	100.82
209.116	87.57
209.335	93.98
209.553	95.21
209.771	96.4
209.989	92.93
210.208	88.41
210.426	69.43
210.644	66.76
210.862	46.22
211.081	52.47
211.299	52.53
211.517	51.43
211.735	55.38
211.953	65.14
212.171	70.88
212.39	63.91
212.608	64.87
212.826	66.01
213.044	77.97
213.262	88.07
213.48	91.75
213.698	86.72
213.916	90.91
214.134	71.85
214.352	64.51
214.57	53.99
214.788	68.26
215.006	65.97
215.224	87.68
215.442	96.23
215.66	76.14
215.878	50.79
216.096	73.76
216.314	114.17
216.532	149.57
216.75	160
216.968	188.48
217.185	198.55
217.403	264.6
217.621	329.75
217.839	231.78
218.057	316.44
218.275	250.48
218.492	282.02
218.71	256.55
218.928	225.62
219.146	282.39
219.363	190.92
219.581	170.89
219.799	160.86
220.017	149.16
220.234	145.51
220.452	129.42
220.67	167.58
220.887	204.3
221.105	215.07
221.323	3249.69
221.54	262.62
221.758	1826.79
221.976	893.43
222.193	187.78
222.411	206.32
222.629	428.58
222.846	718.41
223.064	-738.73
223.281	753.94
223.499	473.46
223.716	809.35
223.934	-678.39
224.151	-170.36
224.369	-92.97
224.586	-28.43
224.804	-18.79
225.021	-25.85
225.239	-20.87
225.456	0.81
225.674	-17.25
225.891	-45.53
226.108	-83.69
226.326	-56.96
226.543	-25.86
226.76	-19.63
226.978	-7.24
227.195	-4.04
227.413	0.33
227.63	-0.41
227.847	0.24
228.064	5.67
228.282	8.15
228.499	12.08
228.716	7.61
228.934	5.54
229.151	3.87
229.368	2.31
229.585	-0.18
229.802	2.41
230.02	2.82
230.237	2.74
230.454	2.79
230.671	2.09
230.888	-0.64
231.105	-1.85
231.323	-3.83
231.54	-10.28
231.757	-16.22
231.974	-19.07
232.191	-26.96
232.408	-28.19
232.625	-36.16
232.842	-35.6
233.059	-32.58
233.276	-29.09
233.493	-38.32
233.71	-28.77
233.927	-10.04
234.144	-13.3
234.361	-14.65
234.578	-19.81
234.795	-14
235.012	-10.26
235.229	-11.05
235.446	-20.61
235.663	-17.83
235.879	-13.57
236.096	-14.46
236.313	-23.12
236.53	-21.24
236.747	-13.33
236.964	-12.77
237.181	-22.09
237.397	-21.9
237.614	-29.01
237.831	-14.94
238.048	-19.57
238.264	-23.76
238.481	-34.65
238.698	-28.36
238.915	-15.4
239.131	-14.49
239.348	-11.38
239.565	-6.59
239.781	-2.7
239.998	3.31
240.215	-1.1
240.431	-2.2
240.648	3.99
240.865	6.39
241.081	6.77
241.298	4.23
241.514	4.59
241.731	5.15
241.947	5.49
242.164	4.58
242.38	6.85
242.597	9.03
242.814	11.76
243.03	10.49
243.246	11.52
243.463	10.33
243.679	8.68
243.896	6.92
244.112	7.2
244.329	6.4
244.545	7.03
244.762	5.58
244.978	5.67
245.194	2.09
245.411	-0.47
245.627	0.02
245.843	1.52
246.06	3.06
246.276	4.58
246.492	6.44
246.709	5.69
246.925	6.09
247.141	5.53
247.357	5.71
247.574	6.68
247.79	7.75
248.006	8.46
248.222	8.18
248.439	8.11
248.655	7.26
248.871	6.48
249.087	8.32
249.303	7.21
249.519	7.07
249.736	5.21
249.952	5.07
250.168	6.78
250.384	3.62
250.6	3.78
250.816	3.81
251.032	5.16
251.248	2.64
251.464	-1.67
251.68	-1.1
251.896	-1.31
252.112	-2.09
252.328	-4.3
252.544	-7.33
252.76	-8.04
252.976	-8.9
253.192	-9.53
253.408	-11.41
253.624	-9.79
253.84	-7.39
254.056	-8.11
254.272	-8.59
254.487	-7.03
254.703	-4.87
254.919	-5.9
255.135	-3.46
255.351	-2.94
255.567	0.68
255.782	2.98
255.998	7.12
256.214	5.91
256.43	9.14
256.646	7.81
256.861	8.76
257.077	5.91
257.293	9.76
257.508	11.17
257.724	9.8
257.94	10.18
258.155	8.6
258.371	5.52
258.587	4.43
258.802	3.72
259.018	4.22
259.234	4.86
259.449	5.39
259.665	4.77
259.88	4.11
260.096	4.72
260.312	4.32
260.527	5.31
260.743	5.28
260.958	6.16
261.174	6.01
261.389	6.5
261.605	5.49
261.82	5.82
262.036	5.94
262.251	5.88
262.466	5.43
262.682	5.44
262.897	3.82
263.113	3.74
263.328	4.85
263.543	2.98
263.759	0.01
263.974	-0.33
264.189	-2.71
264.405	-4.45
264.62	-3.87
264.835	-3.73
265.051	-2.1
265.266	-1.02
265.481	0.76
265.696	-1.11
265.912	1.1
266.127	3.13
266.342	5.45
266.557	7.21
266.773	7.7
266.988	6.69
267.203	7
267.418	5.16
267.633	5.94
267.848	5.24
268.064	5.13
268.279	4.56
268.494	4.45
268.709	3.57
268.924	4.77
269.139	3.55
269.354	5.54
269.569	5.83
269.784	5.77
269.999	4.59
270.214	3.93
270.429	2
270.644	3.16
270.859	3.86
271.074	3.73
271.289	1.98
271.504	3.37
271.719	3.03
271.934	2
272.149	3.28
272.363	3.79
272.578	5.18
272.793	5.85
273.008	3.96
273.223	3.75
273.438	3.04
273.653	3.89
273.867	3.35
274.082	2.19
274.297	2.24
274.512	1.36
274.726	-0.17
274.941	-1.76
275.156	0.68
275.371	3.52
275.585	3.02
275.8	4.69
276.015	4.57
276.229	6.07
276.444	6.53
276.659	8.63
276.873	9.44
277.088	9.64
277.302	9.35
277.517	8.61
277.732	7.39
277.946	6.97
278.161	4.66
278.375	4.18
278.59	4.43
278.804	3.98
279.019	1.6
279.233	-0.15
279.448	0.2
279.662	0.62
279.877	0
280.091	0.86
280.306	1.65
280.52	2.32
280.735	3.36
280.949	2
281.163	2.49
281.378	2.12
281.592	1.74
281.806	3.04
282.021	2.64
282.235	2.87
282.449	1.57
282.664	2.91
282.878	2.91
283.092	2.67
283.307	2.79
283.521	3.71
283.735	3.92
283.949	4.67
284.164	5.18
284.378	6.17
284.592	6.13
284.806	6.86
285.02	6.35
285.234	7.64
285.449	7.85
285.663	8.82
285.877	8.38
286.091	7.84
286.305	7.98
286.519	7.52
286.733	7.26
286.947	7.33
287.161	7.74
287.375	8.02
287.589	7.75
287.803	7.76
288.017	7.57
288.231	7.65
288.445	8.43
288.659	8.43
288.873	7.43
289.087	7.34
289.301	6.64
289.515	5.53
289.729	4.59
289.943	3.74
290.157	2.06
290.371	1.95
290.584	2.82
290.798	3.05
291.012	3.25
291.226	3.6
291.44	3.9
291.654	3.86
291.867	4.82
292.081	5.99
292.295	5.88
292.509	6.36
292.722	6.39
292.936	5.7
293.15	6.43
293.364	6.06
293.577	5.73
293.791	6.95
294.005	7.23
294.218	7.39
294.432	5.51
294.645	6.87
294.859	8.82
295.073	8.57
295.286	7.54
295.5	7.67
295.713	7.86
295.927	8.84
296.14	7.99
296.354	8.61
296.568	8.63
296.781	9.41
296.994	9.28
297.208	8.09
297.421	8.6
297.635	8.25
297.848	8.23
298.062	7.94
298.275	8.1
298.489	8.26
298.702	8.35
298.915	7.76
299.129	7.56
299.342	7.82
299.555	7.65
299.769	7.45
299.982	8.77
300.195	7.72
300.409	8.31
300.622	7.65
300.835	7.54
301.048	6.32
301.262	6.74
301.475	5.88
301.688	4.43
301.901	4.39
302.115	3.8
302.328	3.11
302.541	4.32
302.754	4.74
302.967	4.62
303.18	4.34
303.393	6.48
303.607	6.7
303.82	7.51
304.033	8.55
304.246	9.25
304.459	9.2
304.672	11.04
304.885	10.01
305.098	9.47
305.311	10.06
305.524	9.89
305.737	8.2
305.95	8.09
306.163	8.7
306.376	8.2
306.589	8.82
306.802	7.19
307.015	5.1
307.228	6.22
307.44	6.49
307.653	7.05
307.866	7.16
308.079	8.11
308.292	8.56
308.505	8.25
308.718	8.74
308.93	8.26
309.143	10.37
309.356	10.02
309.569	10.77
309.781	11.41
309.994	10.81
310.207	11.17
310.42	10.04
310.632	10.03
310.845	9.19
311.058	9.36
311.27	10.07
311.483	10.07
311.696	10.49
311.908	9.91
312.121	9.56
312.333	9.38
312.546	9.19
312.759	10.15
312.971	10.32
313.184	10.5
313.396	10.22
313.609	9.62
313.821	9.26
314.034	9.97
314.246	10.27
314.459	11.13
314.671	11.15
314.884	10.75
315.096	10.42
315.309	9.76
315.521	10.96
315.733	10.34
315.946	10.48
316.158	10.83
316.371	11.15
316.583	10.32
316.795	8.99
317.008	9.31
317.22	10.19
317.432	10.17
317.644	8.7
317.857	9.4
318.069	10.93
318.281	9.73
318.494	9.71
318.706	9.96
318.918	10.18
319.13	10.57
319.342	10.9
319.555	10.22
319.767	10.08
319.979	10.4
320.191	10.26
320.403	8.25
320.615	9.51
320.827	7.34
321.039	5.69
321.252	5.83
321.464	6.86
321.676	6.35
321.888	6.95
322.1	7
322.312	8.45
322.524	7.74
322.736	10.06
322.948	10.18
323.16	12.11
323.372	12.58
323.584	11.35
323.796	9.97
324.007	9.99
324.219	10.36
324.431	11.25
324.643	10.73
324.855	11.08
325.067	10.53
325.279	9.78
325.491	10.58
325.702	10.54
325.914	10.93
326.126	11.36
326.338	12.76
326.55	13.11
326.761	13.2
326.973	14.33
327.185	15.41
327.396	15.45
327.608	15.62
327.82	14.49
328.032	15.48
328.243	16.17
328.455	17.72
328.666	16.88
328.878	17.42
329.09	18.03
329.301	19.09
329.513	18.58
329.725	18.2
329.936	19.25
330.148	19.78
330.359	19.1
330.571	19.69
330.782	19.17
330.994	19.42
331.205	19.15
331.417	18.5
331.628	16.88
331.84	15.96
332.051	16.31
332.262	16.31
332.474	16.53
332.685	16.93
332.897	17.6
333.108	17.59
333.319	17.32
333.531	17.41
333.742	17.16
333.953	18.19
334.165	18.73
334.376	19.35
334.587	19.71
334.799	19.33
335.01	18.91
335.221	19.38
335.432	19.83
335.644	20.4
335.855	20.59
336.066	22
336.277	21.43
336.488	21.78
336.7	21.24
336.911	21.04
337.122	21.71
337.333	22.28
337.544	22.01
337.755	21.09
337.966	21.34
338.177	21.49
338.388	21.15
338.599	21.32
338.811	21.15
339.022	22.05
339.233	22.02
339.444	20.99
339.655	20.67
339.866	20.34
340.076	21.14
340.287	21.04
340.498	21.13
340.709	20.37
340.92	20.57
341.131	19.74
341.342	19.13
341.553	18.91
341.764	21.06
341.975	20.82
342.185	20.93
342.396	20.34
342.607	19.6
342.818	19.44
343.029	19.14
343.239	19.34
343.45	20.14
343.661	20.54
343.872	21.07
344.082	20.24
344.293	21.02
344.504	20.86
344.714	21.83
344.925	22.18
345.136	21.83
345.346	21.49
345.557	21.21
345.768	21.3
345.978	20.81
346.189	21.31
346.399	21.04
346.61	20.71
346.821	21.12
347.031	20.27
347.242	20.12
347.452	19.87
347.663	20.31
347.873	20.2
348.084	20.74
348.294	20.78
348.504	20.03
348.715	20.3
348.925	20.08
349.136	20.17
349.346	20.79
349.557	21.14
349.767	21.21
349.977	21.58
350.188	21.01
350.398	20.48
350.608	20.79
350.819	20.56
351.029	20.56
351.239	20.29
351.449	19.8
351.66	20.14
351.87	20.53
352.08	21.01
352.29	21.09
352.501	22.04
352.711	21.97
352.921	22.01
353.131	21.86
353.341	21.62
353.552	22.24
353.762	21.81
353.972	20.56
354.182	20.03
354.392	19.47
354.602	18.9
354.812	18.83
355.022	18.7
355.232	19.14
355.442	19.78
355.652	19.19
355.862	19.14
356.072	19.33
356.282	19.74
356.492	19.77
356.702	20.14
356.912	21.09
357.122	21.14
357.332	21.37
357.542	20.83
357.752	20.13
357.962	20.85
358.171	21.08
358.381	21.44
358.591	21.18
358.801	21.44
359.011	21.3
359.221	20.82
359.43	20.14
359.64	19.84
359.85	19.92
360.06	20.42
360.269	20.39
360.479	20.13
360.689	19.35
360.899	19.55
361.108	19.62
361.318	19.76
361.528	19.89
361.737	20.34
361.947	20.07
362.156	19.77
362.366	19.52
362.576	19.05
362.785	18.96
362.995	19.95
363.204	19.58
363.414	18.91
363.623	18.83
363.833	18.4
364.042	18.3
364.252	19
364.461	19.29
364.671	19.36
364.88	19.5
365.09	19.53
365.299	18.93
365.509	19.37
365.718	19.48
365.927	19.03
366.137	19.11
366.346	19.25
366.555	18.57
366.765	18.19
366.974	18.27
367.183	18.1
367.393	18.45
367.602	18
367.811	18.17
368.021	18.13
368.23	17.93
368.439	17.99
368.648	18.12
368.857	17.72
369.067	17.31
369.276	16.96
369.485	16.78
369.694	16.11
369.903	16.64
370.112	16.53
370.321	16.85
370.531	17.57
370.74	17.18
370.949	17.36
371.158	18.13
371.367	18.8
371.576	18.77
371.785	18.6
371.994	18.89
372.203	18.78
372.412	18.47
372.621	18.36
372.83	17.94
373.039	18.52
373.248	17.79
373.457	17.23
373.666	17.3
373.874	16.68
374.083	16.87
374.292	16.11
374.501	15.99
374.71	15.14
374.919	15.22
375.128	15.3
375.336	15.14
375.545	15.07
375.754	15.49
375.963	15.09
376.171	15.7
376.38	15.81
376.589	16.38
376.798	15.81
377.006	16.63
377.215	16.38
377.424	16.54
377.632	15.89
377.841	15.77
378.05	15.44
378.258	15.08
378.467	14.69
378.675	15.3
378.884	14.32
379.093	14.95
379.301	14.83
379.51	14.88
379.718	14.92
379.927	15.4
380.135	15.53
380.344	15.49
380.552	15.18
380.761	15.81
380.969	15.23
381.177	16.15
381.386	15.45
381.594	15.4
381.803	15.31
382.011	14.61
382.219	14.35
382.428	14.41
382.636	14.52
382.845	15.01
383.053	14.74
383.261	14.98
383.469	14.65
383.678	14.88
383.886	14.81
384.094	14.74
384.302	14.46
384.511	14.58
384.719	14.72
384.927	14.81
385.135	14.52
385.343	14.11
385.552	13.82
385.76	13.31
385.968	13.05
386.176	12.6
386.384	12.6
386.592	12.99
386.8	12.61
387.008	12.19
387.216	11.98
387.424	11.78
387.633	11.69
387.841	11.31
388.049	11.64
388.257	11.83
388.465	12.05
388.672	11.79
388.88	11.4
389.088	11.45
389.296	11.23
389.504	11.36
389.712	11.98
389.92	12.21
390.128	12.45
390.336	12.34
390.544	12.35
390.751	12.02
390.959	11.59
391.167	11.95
391.375	11.76
391.583	11.77
391.79	11.33
391.998	11.22
392.206	10.98
392.414	10.65
392.621	10.37
392.829	9.92
393.037	10.6
393.244	10.75
393.452	10.35
393.66	10.58
393.867	10.5
394.075	10.77
394.283	10.38
394.49	10.21
394.698	10
394.905	10.46
395.113	10.84
395.32	10.4
395.528	10.49
395.735	10.74
395.943	10.72
396.15	10.81
396.358	10.59
396.565	10.7
396.773	10.89
396.98	11.09
397.188	10.95
397.395	10.91
397.602	10.8
397.81	10.88
398.017	10.72
398.225	10.67
398.432	10.1
398.639	9.83
398.847	9.76
399.054	9.88
399.261	9.84
399.468	9.8
399.676	9.73
399.883	9.63
400.09	9.36
400.297	9.08
400.505	8.83
400.712	9.22
400.919	9.2
401.126	8.89
401.333	9.11
401.54	9.55
401.748	9.58
401.955	9.48
402.162	9.62
402.369	9.74
402.576	9.84
402.783	9.97
402.99	10.04
403.197	10.13
403.404	10.39
403.611	9.81
403.818	9.51
404.025	9.42
404.232	9.28
404.439	9.27
404.646	9.33
404.853	9.6
405.06	9.47
405.267	9.6
405.474	9.46
405.681	9.38
405.887	9.47
406.094	9.2
406.301	9.1
406.508	9.06
406.715	8.75
406.922	8.66
407.128	8.81
407.335	9.05
407.542	8.93
407.749	9.12
407.955	8.95
408.162	9.13
408.369	9.25
408.575	9.24
408.782	9.34
408.989	9.59
409.195	9.81
409.402	9.43
409.609	9.37
409.815	9.48
410.022	9.42
410.228	9.68
410.435	9.53
410.642	9.84
410.848	9.83
411.055	9.75
411.261	9.32
411.468	9.07
411.674	9.19
411.881	9.1
412.087	9.04
412.294	9.21
412.5	9.13
412.706	9.13
412.913	8.82
413.119	8.96
413.326	9.06
413.532	9.61
413.738	9.81
413.945	9.7
414.151	9.74
414.357	9.67
414.564	9.65
414.77	9.42
414.976	9.6
415.182	9.38
415.389	9.36
415.595	9.61
415.801	9.54
416.007	9.65
416.214	9.47
416.42	9.58
416.626	9.58
416.832	9.64
417.038	9.8
417.244	9.72
417.45	10.03
417.657	9.96
417.863	9.83
418.069	9.76
418.275	9.47
418.481	9.7
418.687	9.64
418.893	9.57
419.099	9.51
419.305	9.48
419.511	9.44
419.717	9.32
419.923	9.14
420.129	9.09
420.335	8.95
420.541	9.2
420.746	9.1
420.952	9.1
421.158	9.16
421.364	9.02
421.57	8.98
421.776	8.96
421.982	8.93
422.187	8.98
422.393	8.96
422.599	9.04
422.805	8.88
423.01	8.92
423.216	8.82
423.422	8.76
423.628	8.83
423.833	9.03
424.039	9.16
424.245	9.08
424.45	9.19
424.656	9.21
424.862	9.17
425.067	9.17
425.273	9.21
425.478	9.29
425.684	9.29
425.889	9.24
426.095	9.1
426.301	8.77
426.506	8.81
426.712	8.72
426.917	8.83
427.123	9.07
427.328	9.14
427.533	9.05
427.739	9.03
427.944	8.99
428.15	8.92
428.355	8.7
428.561	9.1
428.766	9.23
428.971	9.15
429.177	9.05
429.382	9.07
429.587	8.8
429.793	8.73
429.998	8.68
430.203	8.45
430.408	8.68
430.614	8.77
430.819	8.69
431.024	8.67
431.229	8.74
431.434	8.6
431.64	8.28
431.845	8.64
432.05	8.47
432.255	8.33
432.46	8.61
432.665	8.43
432.87	8.41
433.076	8.18
433.281	8.08
433.486	7.95
433.691	7.91
433.896	7.97
434.101	7.99
434.306	8.03
434.511	8.01
434.716	7.96
434.921	8.05
435.126	8.13
435.331	8.46
435.535	8.48
435.74	8.54
435.945	8.71
436.15	8.59
436.355	8.34
436.56	8.48
436.765	8.55
436.97	8.54
437.174	8.63
437.379	8.68
437.584	8.53
437.789	8.56
437.993	8.68
438.198	8.52
438.403	8.89
438.608	8.93
438.812	8.96
439.017	9.07
439.222	9.14
439.426	8.99
439.631	8.86
439.836	8.84
440.04	8.91
440.245	8.9
440.45	9.08
440.654	8.84
440.859	8.89
441.063	8.83
441.268	8.73
441.472	8.62
441.677	8.85
441.881	9
442.086	8.98
442.29	9
442.495	9
442.699	8.98
442.904	9.08
443.108	8.95
443.312	8.94
443.517	8.92
443.721	8.78
443.925	8.58
444.13	8.56
444.334	8.56
444.538	8.52
444.743	8.54
444.947	8.46
445.151	8.36
445.356	8.56
445.56	8.52
445.764	8.7
445.968	8.76
446.173	8.79
446.377	8.66
446.581	8.56
446.785	8.47
446.989	8.34
447.193	8.29
447.398	8.45
447.602	8.34
447.806	8.28
448.01	8.14
448.214	8.24
448.418	7.99
448.622	7.96
448.826	7.94
449.03	8.15
449.234	8.28
449.438	8.31
449.642	8.09
449.846	8
450.05	8.13
450.254	8.11
450.458	8.06
450.662	8.32
450.866	8.35
451.069	8.75
451.273	8.53
451.477	8.51
451.681	8.33
451.885	8.43
452.089	8.3
452.292	8.26
452.496	8.3
452.7	8.21
452.904	8.25
453.107	8.23
453.311	7.97
453.515	8.05
453.719	7.95
453.922	8
454.126	8
454.33	8.2
454.533	8.26
454.737	8.25
454.94	8.25
455.144	8.11
455.348	8.17
455.551	8.22
455.755	8.15
455.958	8.18
456.162	8.19
456.365	8.21
456.569	8.22
456.772	8.38
456.976	8.39
457.179	8.41
457.383	8.46
457.586	8.56
457.79	8.43
457.993	8.53
458.196	8.46
458.4	8.56
458.603	8.45
458.807	8.48
459.01	8.32
459.213	8.34
459.417	8.45
459.62	8.41
459.823	8.25
460.026	8.23
460.23	8.14
460.433	8.23
460.636	8.3
460.839	8.28
461.042	8.27
461.246	8.23
461.449	8.18
461.652	8.07
461.855	8.22
462.058	8.31
462.261	8.49
462.464	8.52
462.668	8.46
462.871	8.23
463.074	8.32
463.277	8.4
463.48	8.33
463.683	8.19
463.886	8.07
464.089	7.85
464.292	7.82
464.495	7.76
464.698	7.91
464.901	7.81
465.104	8.06
465.306	8.06
465.509	7.71
465.712	7.87
465.915	7.96
466.118	8.11
466.321	8.19
466.524	8.21
466.726	8.12
466.929	7.98
467.132	8.17
467.335	8.06
467.538	8.01
467.74	8.15
467.943	7.99
468.146	8.08
468.348	8.08
468.551	8.07
468.754	8.25
468.956	8.26
469.159	8.25
469.362	8.36
469.564	8.23
469.767	8.29
469.969	8.42
470.172	8.67
470.375	8.41
470.577	8.48
470.78	8.27
470.982	8.25
471.185	8.27
471.387	8.26
471.59	8.02
471.792	8.04
471.995	8.08
472.197	7.82
472.399	7.6
472.602	7.75
472.804	7.55
473.007	7.69
473.209	7.54
473.411	7.29
473.614	7.3
473.816	7.33
474.018	7.54
474.22	7.41
474.423	7.65
474.625	7.81
474.827	7.88
475.03	8.02
475.232	8.16
475.434	8.3
475.636	8.5
475.838	8.72
476.04	8.8
476.243	8.68
476.445	8.69
476.647	8.63
476.849	8.5
477.051	8.47
477.253	8.28
477.455	8.06
477.657	8.03
477.859	8.01
478.061	7.85
478.263	7.82
478.465	7.82
478.667	7.88
478.869	7.86
479.071	7.89
479.273	7.98
479.475	8.17
479.677	8.26
479.879	8.14
480.081	8.22
480.283	8.14
480.485	8.03
480.686	8.11
480.888	8.1
481.09	8.13
481.292	8.14
481.494	8.14
481.695	8.16
481.897	8.23
482.099	8.22
482.301	8.25
482.502	8.24
482.704	8.33
482.906	8.3
483.107	8.28
483.309	8.29
483.511	8.34
483.712	8.34
483.914	8.31
484.115	8.3
484.317	8.36
484.519	8.31
484.72	8.31
484.922	8.34
485.123	8.36
485.325	8.35
485.526	8.35
485.728	8.34
485.929	8.29
486.131	8.28
486.332	8.27
486.534	8.27
486.735	8.26
486.936	8.35
487.138	8.34
487.339	8.25
487.541	8.34
487.742	8.38
487.943	8.39
488.144	8.41
488.346	8.4
488.547	8.43
488.748	8.39
488.95	8.46
489.151	8.35
489.352	8.26
489.553	8.34
489.755	8.33
489.956	8.24
490.157	8.21
490.358	8.21
490.559	8.24
490.76	8.21
490.961	8.22
491.163	8.19
491.364	8.2
491.565	8.22
491.766	8.19
491.967	8.09
492.168	8.16
492.369	8.18
492.57	8.22
492.771	8.14
492.972	8.12
493.173	8.08
493.374	8.14
493.575	8.19
493.776	8.26
493.976	8.26
494.177	8.32
494.378	8.31
494.579	8.27
494.78	8.28
494.981	8.46
495.182	8.59
495.382	8.65
495.583	8.51
495.784	8.39
495.985	8.39
496.185	8.32
496.386	8.35
496.587	8.34
496.788	8.3
496.988	8.21
497.189	8.15
497.39	8.23
497.59	8.23
497.791	8.21
497.992	8.41
498.192	8.38
498.393	8.44
498.593	8.36
498.794	8.11
498.994	8.18
499.195	8.04
499.395	8.05
499.596	7.95
499.796	8.03
499.997	8.17
500.197	8.09
500.398	8.14
500.598	8.08
500.799	8.27
500.999	8.53
501.199	8.37
501.4	8.51
501.6	8.45
501.801	8.39
502.001	8.4
502.201	8.4
502.402	8.27
502.602	8.24
502.802	8.37
503.002	8.3
503.203	8.45
503.403	8.56
503.603	8.66
503.803	8.9
504.003	9.14
504.204	9.13
504.404	9.22
504.604	9.54
504.804	9.52
505.004	9.45
505.204	9.56
505.404	9.48
505.604	9.6
505.804	9.71
506.005	9.61
506.205	9.6
506.405	9.64
506.605	9.65
506.805	9.6
507.005	9.68
507.204	9.81
507.404	9.71
507.604	9.76
507.804	9.68
508.004	9.62
508.204	9.66
508.404	9.53
508.604	9.53
508.804	9.58
509.003	9.73
509.203	9.71
509.403	9.83
509.603	9.87
509.803	9.94
510.002	10.01
510.202	10.05
510.402	10.04
510.602	10.05
510.801	10.08
511.001	9.9
511.201	9.73
511.4	9.79
511.6	9.83
511.8	9.91
511.999	9.85
512.199	9.93
512.398	9.95
512.598	10.06
512.797	10.18
512.997	10.24
513.197	10.38
513.396	10.46
513.596	10.52
513.795	10.68
513.994	10.6
514.194	10.64
514.393	10.71
514.593	10.92
514.792	10.96
514.992	11.16
515.191	11.26
515.39	11.33
515.59	11.42
515.789	11.55
515.988	11.59
516.188	11.93
516.387	12.13
516.586	12.27
516.786	12.18
516.985	12.22
517.184	12.14
517.383	12.05
517.582	12.1
517.782	12.22
517.981	12.28
518.18	12.31
518.379	12.35
518.578	12.36
518.777	12.34
518.976	12.49
519.176	12.49
519.375	12.69
519.574	12.96
519.773	13.09
519.972	13.05
520.171	13.12
520.37	13.08
520.569	13.03
520.768	13.16
520.967	13.24
521.166	13.33
521.365	13.57
521.564	13.52
521.762	13.53
521.961	13.64
522.16	13.96
522.359	14.13
522.558	14.31
522.757	14.53
522.956	14.61
523.154	14.92
523.353	14.94
523.552	15.04
523.751	15.23
523.949	15.34
524.148	15.43
524.347	15.42
524.546	15.44
524.744	15.53
524.943	15.47
525.142	15.42
525.34	15.37
525.539	15.47
525.737	15.57
525.936	15.67
526.135	15.8
526.333	15.88
526.532	16.01
526.73	16.15
526.929	16.2
527.127	16.5
527.326	16.71
527.524	16.86
527.723	17.04
527.921	17.08
528.12	17.19
528.318	17.24
528.516	17.34
528.715	17.46
528.913	17.54
529.112	17.64
529.31	17.68
529.508	17.78
529.707	17.87
529.905	17.95
530.103	18.02
530.301	18.11
530.5	18.27
530.698	18.39
530.896	18.5
531.094	18.65
531.293	18.82
531.491	18.95
531.689	19.1
531.887	19.15
532.085	19.23
532.283	19.44
532.481	19.51
532.68	19.57
532.878	19.7
533.076	19.72
533.274	19.78
533.472	19.83
533.67	19.87
533.868	19.94
534.066	20.07
534.264	20.18
534.462	20.23
534.66	20.36
534.858	20.5
535.056	20.54
535.253	20.72
535.451	20.81
535.649	21.05
535.847	21.21
536.045	21.32
536.243	21.43
536.441	21.62
536.638	21.85
536.836	21.98
537.034	21.97
537.232	22
537.43	22.03
537.627	22.18
537.825	22.07
538.023	22.12
538.22	22.23
538.418	22.23
538.616	22.22
538.813	22.17
539.011	22.19
539.209	22.37
539.406	22.62
539.604	22.7
539.801	22.82
539.999	23.17
540.196	23.28
540.394	23.43
540.591	23.61
540.789	23.61
540.986	23.74
541.184	23.81
541.381	23.83
541.579	23.8
541.776	23.96
541.974	23.94
542.171	23.97
542.368	24.13
542.566	24.13
542.763	24.22
542.96	24.33
543.158	24.44
543.355	24.56
543.552	24.67
543.75	24.86
543.947	24.89
544.144	25.06
544.341	25.12
544.539	25.18
544.736	25.33
544.933	25.42
545.13	25.53
545.327	25.54
545.524	25.57
545.722	25.55
545.919	25.64
546.116	25.7
546.313	25.68
546.51	25.68
546.707	25.66
546.904	25.71
547.101	25.7
547.298	25.9
547.495	25.98
547.692	26.13
547.889	26.36
548.086	26.26
548.283	26.23
548.48	26.34
548.677	26.41
548.874	26.47
549.07	26.49
549.267	26.69
549.464	26.74
549.661	26.77
549.858	26.77
550.055	26.77
550.251	27.12
550.448	27.29
550.645	27.53
550.842	27.64
551.038	27.88
551.235	28.18
551.432	28.18
551.628	28.15
551.825	28.23
552.022	28.27
552.218	28.37
552.415	28.24
552.612	28.24
552.808	28.13
553.005	28.09
553.201	28.08
553.398	27.83
553.594	27.76
553.791	27.79
553.987	27.8
554.184	27.76
554.38	27.81
554.577	27.96
554.773	28.11
554.97	28.44
555.166	28.59
555.362	28.58
555.559	28.83
555.755	28.94
555.952	28.91
556.148	28.95
556.344	29.2
556.541	29.27
556.737	29.43
556.933	29.59
557.129	29.46
557.326	29.59
557.522	29.72
557.718	29.8
557.914	30.06
558.11	30.19
558.307	30.41
558.503	30.31
558.699	30.4
558.895	30.33
559.091	30.02
559.287	30.12
559.483	30.2
559.679	30.22
559.876	30.17
560.072	29.99
560.268	30.03
560.464	30.3
560.66	30.53
560.856	30.58
561.052	30.72
561.247	31.06
561.443	31.14
561.639	31.13
561.835	31.08
562.031	31.15
562.227	31.29
562.423	31.37
562.619	30.98
562.815	31.17
563.01	31.32
563.206	31.36
563.402	31.4
563.598	31.25
563.793	31.18
563.989	31.14
564.185	31.11
564.381	31.25
564.576	31.49
564.772	31.72
564.968	31.58
565.163	31.52
565.359	31.54
565.555	31.71
565.75	31.98
565.946	32.15
566.141	32.33
566.337	32.5
566.532	32.5
566.728	32.45
566.923	32.48
567.119	32.46
567.314	32.4
567.51	32.48
567.705	32.31
567.901	32.24
568.096	32.38
568.292	32.57
568.487	32.64
568.682	32.7
568.878	32.89
569.073	32.72
569.268	32.9
569.464	32.89
569.659	32.92
569.854	33.3
570.05	33.46
570.245	33.5
570.44	33.4
570.635	33.38
570.831	33.28
571.026	32.97
571.221	33.23
571.416	33.25
571.611	33.59
571.806	33.49
572.002	33.41
572.197	33.6
572.392	33.52
572.587	33.58
572.782	33.52
572.977	33.75
573.172	34.01
573.367	33.88
573.562	33.78
573.757	33.52
573.952	33.72
574.147	33.64
574.342	33.47
574.537	33.54
574.732	33.6
574.927	33.67
575.121	33.57
575.316	33.52
575.511	33.82
575.706	33.93
575.901	34.05
576.096	33.98
576.29	34.09
576.485	34.05
576.68	34.21
576.875	34.23
577.069	34.35
577.264	34.67
577.459	34.88
577.654	34.91
577.848	35.05
578.043	35.31
578.238	35.48
578.432	35.34
578.627	35.32
578.821	35.22
579.016	35.13
579.21	35.33
579.405	35.11
579.6	35.02
579.794	34.76
579.989	34.6
580.183	34.1
580.378	33.97
580.572	34.21
580.766	34.43
580.961	34.55
581.155	34.51
581.35	34.39
581.544	34.34
581.738	34.34
581.933	34.57
582.127	34.54
582.321	35.07
582.516	34.98
582.71	34.78
582.904	34.67
583.099	34.48
583.293	34.76
583.487	34.64
583.681	34.65
583.875	34.61
584.07	34.5
584.264	34.89
584.458	34.67
584.652	34.87
584.846	35.02
585.04	34.93
585.234	34.95
585.428	34.91
585.623	35.12
585.817	35.3
586.011	35.49
586.205	35.57
586.399	35.43
586.593	35.46
586.787	35.7
586.981	35.94
587.174	35.98
587.368	35.92
587.562	35.82
587.756	35.87
587.95	35.83
588.144	35.77
588.338	35.72
588.532	35.54
588.725	35.77
588.919	35.81
589.113	35.77
589.307	35.83
589.501	35.96
589.694	36.2
589.888	36.26
590.082	36.24
590.275	36.14
590.469	36.16
590.663	36.35
590.856	36.42
591.05	36.24
591.244	36.28
591.437	36.37
591.631	36.37
591.824	36.36
592.018	36.09
592.212	35.94
592.405	36.16
592.599	36.14
592.792	35.93
592.986	35.95
593.179	36.08
593.372	36.02
593.566	36.15
593.759	36.23
593.953	36.37
594.146	36.42
594.339	36.79
594.533	36.72
594.726	36.92
594.92	37.25
595.113	37.19
595.306	37.13
595.499	37.11
595.693	37.11
595.886	37.28
596.079	37.08
596.272	37.35
596.466	37.2
596.659	37.28
596.852	37.19
597.045	37.23
597.238	37.2
597.431	37.31
597.624	37.31
597.818	37.39
598.011	37.2
598.204	37.3
598.397	37.28
598.59	37.4
598.783	37.42
598.976	37.64
599.169	37.48
599.362	37.66
599.555	37.67
599.748	37.86
599.941	37.61
600.134	37.88
600.326	37.83
600.519	37.67
600.712	37.49
600.905	37.38
601.098	37.02
601.291	37.14
601.483	37.07
601.676	36.81
601.869	36.8
602.062	37
602.255	36.77
602.447	36.92
602.64	36.94
602.833	37.19
603.025	37.34
603.218	37.28
603.411	37.44
603.603	37.41
603.796	37.41
603.989	37.54
604.181	37.57
604.374	37.83
604.566	37.84
604.759	37.8
604.951	37.88
605.144	37.89
605.336	38.14
605.529	38.22
605.721	38.28
605.914	38.44
606.106	38.39
606.299	38.44
606.491	38.42
606.683	38.43
606.876	38.62
607.068	38.54
607.26	38.37
607.453	38.43
607.645	38.09
607.837	38.12
608.03	38.24
608.222	38.35
608.414	38.34
608.606	38.23
608.799	38.05
608.991	38.1
609.183	38.17
609.375	38.46
609.567	38.45
609.759	38.45
609.952	38.39
610.144	38.46
610.336	38.43
610.528	38.42
610.72	38.68
610.912	38.93
611.104	39.06
611.296	38.96
611.488	38.58
611.68	38.55
611.872	38.53
612.064	38.36
612.256	38.13
612.448	38
612.64	37.99
612.832	37.77
613.023	37.78
613.215	37.52
613.407	37.6
613.599	37.83
613.791	38.01
613.983	38.12
614.174	38.63
614.366	38.83
614.558	38.68
614.75	38.7
614.941	38.89
615.133	38.66
615.325	38.93
615.516	39.08
615.708	39.39
615.9	39.5
616.091	39.47
616.283	39.06
616.475	39.14
616.666	39.26
616.858	39.51
617.049	39.48
617.241	39.51
617.432	39.18
617.624	39.01
617.815	38.57
618.007	38.21
618.198	38.47
618.39	38.81
618.581	38.79
618.773	38.82
618.964	38.68
619.155	38.76
619.347	38.81
619.538	38.9
619.729	39.32
619.921	39.86
620.112	39.96
620.303	39.84
620.494	39.64
620.686	39.66
620.877	39.83
621.068	39.88
621.259	39.84
621.451	40.12
621.642	40.03
621.833	39.46
622.024	39.03
622.215	38.93
622.406	38.95
622.597	39.24
622.788	39.26
622.98	39.12
623.171	39.33
623.362	39.15
623.553	39.1
623.744	39.24
623.935	39.54
624.126	39.72
624.317	39.9
624.508	40
624.698	39.84
624.889	39.47
625.08	39.63
625.271	39.61
625.462	39.52
625.653	39.61
625.844	39.59
626.034	39.49
626.225	39.63
626.416	39.5
626.607	39.29
626.798	39.15
626.988	39.52
627.179	39.48
627.37	39.75
627.56	40.06
627.751	39.82
627.942	39.93
628.132	39.98
628.323	39.87
628.514	39.94
628.704	40.11
628.895	40.27
629.085	40.26
629.276	40.26
629.466	39.88
629.657	39.62
629.847	39.59
630.038	39.54
630.228	39.32
630.419	39.28
630.609	39.28
630.8	39.32
630.99	39.42
631.181	39.06
631.371	38.95
631.561	39.04
631.752	39.07
631.942	39.05
632.132	38.96
632.323	38.84
632.513	39.04
632.703	39.14
632.893	39.06
633.084	38.89
633.274	39.12
633.464	39.15
633.654	39.11
633.844	39.06
634.034	39.38
634.225	39.41
634.415	39.68
634.605	39.25
634.795	39.22
634.985	39.3
635.175	39.54
635.365	39.61
635.555	39.92
635.745	39.7
635.935	39.76
636.125	39.79
636.315	40.05
636.505	40.07
636.695	40.32
636.885	40.51
637.075	40.72
637.265	40.72
637.455	40.71
637.644	40.56
637.834	40.56
638.024	40.37
638.214	40.45
638.404	40.28
638.593	40.31
638.783	40.44
638.973	40.42
639.163	40.19
639.352	40.08
639.542	40.16
639.732	40.17
639.921	39.9
640.111	39.94
640.301	39.56
640.49	39.5
640.68	39.63
640.87	40.09
641.059	39.86
641.249	40.36
641.438	39.98
641.628	39.76
641.817	40.23
642.007	40.59
642.196	40.99
642.386	41.22
642.575	40.97
642.764	40.98
642.954	40.52
643.143	40.82
643.333	40.63
643.522	40.73
643.711	41.24
643.901	40.62
644.09	40.82
644.279	40.76
644.469	40.87
644.658	41.24
644.847	41.06
645.036	40.67
645.226	40.63
645.415	40.35
645.604	40.69
645.793	40.23
645.982	40.43
646.171	40.4
646.361	40.08
646.55	40.42
646.739	40
646.928	39.9
647.117	40.35
647.306	40.26
647.495	40.46
647.684	40.77
647.873	40.88
648.062	40.75
648.251	40.49
648.44	40.67
648.629	40.36
648.818	40.72
649.007	41.01
649.196	40.84
649.384	40.74
649.573	40.77
649.762	40.75
649.951	40.94
650.14	40.46
650.328	40.63
650.517	40.56
650.706	40.03
650.895	39.93
651.083	39.84
651.272	40.02
651.461	39.89
651.65	39.62
651.838	39.48
652.027	38.98
652.216	39.55
652.404	39.75
652.593	39.96
652.781	40.42
652.97	40.43
653.158	40.7
653.347	40.59
653.535	40.61
653.724	40.94
653.912	40.65
654.101	41.29
654.289	41.18
654.478	41.34
654.666	41.51
654.855	41.78
655.043	41.68
655.231	41.63
655.42	41.71
655.608	42.23
655.796	42.06
655.985	42.17
656.173	41.91
656.361	42.14
656.55	41.62
656.738	41.61
656.926	41.51
657.114	41.7
657.302	41.57
657.491	41.26
657.679	40.91
657.867	41.09
658.055	41.01
658.243	40.66
658.431	40.23
658.619	40.33
658.807	40.13
658.996	39.89
659.184	39.89
659.372	39.9
659.56	39.99
659.748	40.01
659.936	39.63
660.124	39.91
660.311	40.24
660.499	40.64
660.687	40.55
660.875	40.5
661.063	40.63
661.251	40.71
661.439	40.48
661.627	40.66
661.814	41.03
662.002	41.35
662.19	41.4
662.378	41.52
662.565	41.41
662.753	41.38
662.941	42.02
663.129	41.66
663.316	41.81
663.504	42.12
663.692	42.06
663.879	41.8
664.067	41.79
664.254	41.7
664.442	41.46
664.63	41.09
664.817	41.53
665.005	40.8
665.192	40.83
665.38	40.66
665.567	40.67
665.755	40.95
665.942	40.89
666.13	40.98
666.317	40.58
666.504	40.03
666.692	40.26
666.879	40.34
667.067	40.42
667.254	40.97
667.441	41.45
667.629	41.24
667.816	41.23
668.003	41.03
668.19	41.13
668.378	41.15
668.565	41.64
668.752	41.71
668.939	41.63
669.127	41.8
669.314	41.59
669.501	40.8
669.688	41.05
669.875	41.12
670.062	41.71
670.249	41.82
670.436	41.89
670.623	42.19
670.81	41.99
670.997	41.75
671.184	41.7
671.371	41.46
671.558	41.7
671.745	41.78
671.932	41.55
672.119	40.89
672.306	40.9
672.493	40.8
672.68	40.85
672.867	41.05
673.054	41.04
673.24	40.89
673.427	41.19
673.614	41.76
673.801	41.65
673.988	41.81
674.174	42.14
674.361	41.91
674.548	42.03
674.734	42.06
674.921	42.16
675.108	42.41
675.294	42.34
675.481	41.8
675.668	41.38
675.854	41.48
676.041	40.77
676.227	40.7
676.414	40.27
676.601	40.46
676.787	40.55
676.974	40.15
677.16	40.15
677.347	40.67
677.533	41.43
677.719	41.78
677.906	41.37
678.092	42.06
678.279	42.32
678.465	42.39
678.651	42.63
678.838	42.63
679.024	42.93
679.21	42.95
679.397	42.67
679.583	41.89
679.769	41.9
679.955	42.06
680.142	41.96
680.328	42.11
680.514	42.09
680.7	41.61
680.886	41.53
681.073	41.43
681.259	41.2
681.445	41.18
681.631	41.58
681.817	41.26
682.003	41.16
682.189	40.97
682.375	40.59
682.561	40.94
682.747	41.3
682.933	41.23
683.119	41.8
683.305	42.12
683.491	42.2
683.677	42.92
683.863	43.12
684.049	43.5
684.235	43.77
684.42	43.99
684.606	44.13
684.792	43.85
684.978	43.66
685.164	43.5
685.349	43.39
685.535	43.28
685.721	42.92
685.907	42.86
686.092	42.8
686.278	42.95
686.464	43.23
686.649	42.62
686.835	42.98
687.021	43.33
687.206	43.35
687.392	43.46
687.577	43.81
687.763	43.74
687.948	43.9
688.134	44.02
688.319	43.68
688.505	43.21
688.69	43.21
688.876	42.89
689.061	43.38
689.247	42.94
689.432	42.44
689.618	42.33
689.803	42.22
689.988	42.39
690.174	42.44
690.359	42
690.544	41.65
690.73	41.8
690.915	42.18
691.1	41.74
691.285	42.01
691.471	42.57
691.656	43.2
691.841	42.92
692.026	41.76
692.211	41.09
692.396	41.94
692.582	42.65
692.767	42.49
692.952	42.25
693.137	42.42
693.322	42.04
693.507	41.76
693.692	40.46
693.877	41.37
694.062	42.08
694.247	43.08
694.432	42.73
694.617	42.01
694.802	42.25
694.987	42.38
695.172	41.54
695.357	42.1
695.541	42.17
695.726	42.88
695.911	42.37
696.096	42.59
696.281	42.3
696.466	42.34
696.65	43.28
696.835	43.34
697.02	43.55
697.204	43.83
697.389	43.4
697.574	43.25
697.759	43.53
697.943	43.69
698.128	43.78
698.312	43.71
698.497	44.01
698.682	43.79
698.866	43.66
699.051	43.51
699.235	43.4
699.42	43.52
699.604	43.56
699.789	43.16
699.973	42.98
700.158	42.83
700.342	42.83
700.527	42.61
700.711	42.5
700.895	42.59
701.08	42.54
701.264	42.65
701.448	42.81
701.633	43.21
701.817	42.92
702.001	42.6
702.186	43.03
702.37	43.21
702.554	43.3
702.738	43.85
702.923	44.42
703.107	44.55
703.291	44.87
703.475	44.3
703.659	44.26
703.843	45.06
704.027	46.11
704.212	45.62
704.396	45.16
704.58	45.15
704.764	44.66
704.948	43.92
705.132	43.59
705.316	44.41
705.5	45.13
705.684	44.69
705.868	45.19
706.052	44.33
706.235	44.23
706.419	44.3
706.603	44.25
706.787	43.58
706.971	43.48
707.155	44.08
707.339	43.15
707.522	42.79
707.706	42.45
707.89	41.57
708.074	41.76
708.257	42.33
708.441	42.47
708.625	42.32
708.808	42.92
708.992	43.14
709.176	42.96
709.359	42.76
709.543	42.95
709.727	43.39
709.91	43.06
710.094	43.03
710.277	42.86
710.461	42.02
710.644	42.05
710.828	41.59
711.011	41.79
711.195	41.97
711.378	42.08
711.562	41.91
711.745	42.34
711.928	42.51
712.112	42.69
712.295	42.03
712.478	43.01
712.662	43.26
712.845	43.38
713.028	43.08
713.212	42.87
713.395	42.71
713.578	42.45
713.761	41.77
713.945	42.63
714.128	42.08
714.311	42.68
714.494	42.76
714.677	42.52
714.86	43.08
715.043	43.29
715.227	42.78
715.41	42.71
715.593	42.92
715.776	42.82
715.959	42.54
716.142	42.26
716.325	42.09
716.508	41.77
716.691	41.07
716.874	41.08
717.057	41.47
717.239	41.87
717.422	41.3
717.605	41.6
717.788	41.95
717.971	41.55
718.154	42.21
718.337	42.59
718.519	42.82
718.702	44.82
718.885	44.35
719.068	43.52
719.25	43.35
719.433	44.47
719.616	44.8
719.798	44.88
719.981	44.76
720.164	44.85
720.346	43.98
720.529	42.98
720.712	41.3
720.894	41.48
721.077	41.89
721.259	41.37
721.442	40.52
721.624	39.72
721.807	39.54
721.989	39.71
722.172	39.36
722.354	39.78
722.537	40.75
722.719	41.47
722.901	41.19
723.084	41.82
723.266	42.34
723.448	42.56
723.631	43.08
723.813	43.62
723.995	43.19
724.178	43
724.36	43.29
724.542	42.67
724.724	42.3
724.907	42.88
725.089	42.24
725.271	42.38
725.453	42.89
725.635	41.99
725.817	41.07
725.999	41.14
726.181	41.98
726.364	42.18
726.546	42.72
726.728	42.5
726.91	42.25
727.092	42.27
727.274	42.19
727.456	42.04
727.638	42.33
727.819	42.55
728.001	43.53
728.183	43.07
728.365	43.45
728.547	43.17
728.729	42.8
728.911	41.92
729.093	42.06
729.274	42.07
729.456	42
729.638	41.98
729.82	43.01
730.001	42.67
730.183	43.79
730.365	42.8
730.546	43.68
730.728	44.14
730.91	44.92
731.091	43.77
731.273	43.61
731.455	42.75
731.636	43.18
731.818	42.88
731.999	43.12
732.181	41.94
732.362	42.5
732.544	41.19
732.725	40.83
732.907	40.6
733.088	41.27
733.27	41.49
733.451	42.11
733.633	41.5
733.814	40.38
733.995	39.25
734.177	39.05
734.358	38.57
734.539	39.02
734.721	39.56
734.902	40.02
735.083	40.78
735.264	40.09
735.446	41.01
735.627	42.57
735.808	44.06
735.989	43.35
736.17	44.19
736.351	43.96
736.533	44.75
736.714	44.34
736.895	43.25
737.076	43.71
737.257	43.61
737.438	43.07
737.619	40.33
737.8	39.66
737.981	41.5
738.162	41.7
738.343	41.94
738.524	41.19
738.705	41.53
738.886	41.79
739.067	40.05
739.247	41.18
739.428	40.6
739.609	42.91
739.79	43.1
739.971	43.08
740.151	41.68
740.332	42.52
740.513	42.93
740.694	42.93
740.874	43.31
741.055	43.41
741.236	44.07
741.417	44.11
741.597	43.14
741.778	42.84
741.958	41.1
742.139	41.01
742.32	40.19
742.5	40.38
742.681	40.5
742.861	40.94
743.042	42.05
743.222	42.04
743.403	41.38
743.583	42.1
743.764	41.24
743.944	42.87
744.124	44.31
744.305	43.97
744.485	42.75
744.666	42.38
744.846	41.68
745.026	41.14
745.207	39.93
745.387	40.37
745.567	39.46
745.747	40.16
745.928	40.84
746.108	40.06
746.288	42.16
746.468	43.55
746.648	44.34
746.829	44.61
747.009	45.18
747.189	45.56
747.369	45.43
747.549	46.68
747.729	47.31
747.909	46.19
748.089	45.61
748.269	42.87
748.449	42.1
748.629	41.49
748.809	42.51
748.989	42.17
749.169	42.4
749.349	43.08
749.529	41.81
749.709	41.84
749.889	42.64
750.068	43.11
750.248	44.24
750.428	43.84
750.608	44.73
750.788	43.5
750.967	42.83
751.147	42.15
751.327	43.02
751.507	43.82
751.686	43.77
751.866	42.82
752.046	43.15
752.225	43.33
752.405	44.13
752.585	43.36
752.764	43.89
752.944	44.79
753.123	45.15
753.303	44.04
753.482	43.08
753.662	42.88
753.841	43.39
754.021	43.31
754.2	42.57
754.38	42.22
754.559	42.44
754.739	43.07
754.918	42.74
755.097	41.95
755.277	42.9
755.456	44.65
755.635	44.65
755.815	43.96
755.994	44.16
756.173	44.21
756.352	45.15
756.532	45.54
756.711	44.28
756.89	43.95
757.069	43.6
757.248	42.64
757.427	41.76
757.607	40.64
757.786	40.99
757.965	41.11
758.144	42.59
758.323	41.31
758.502	42.43
758.681	42.73
758.86	44.65
759.039	45.68
759.218	45.87
759.397	46.05
759.576	47.13
759.755	46.29
759.934	45.69
760.113	45.28
760.291	45.97
760.47	45.04
760.649	44.61
760.828	43.19
761.007	43.84
761.186	44.14
761.364	44.18
761.543	44.64
761.722	45.65
761.901	45.48
762.079	45.1
762.258	44.32
762.437	43.34
762.615	43.34
762.794	43.51
762.972	43.2
763.151	43.15
763.33	43.18
763.508	42.91
763.687	43.1
763.865	42.99
764.044	42.45
764.222	42.14
764.401	42.18
764.579	42.58
764.758	41.94
764.936	41.7
765.114	41.97
765.293	41.55
765.471	42.1
765.65	42.21
765.828	43.13
766.006	43.96
766.184	44.33
766.363	44.78
766.541	45.01
766.719	45.16
766.898	45.87
767.076	44.75
767.254	44.77
767.432	44
767.61	43.31
767.788	41.49
767.967	41.11
768.145	41.52
768.323	41.53
768.501	40.32
768.679	41.1
768.857	40.21
769.035	42.15
769.213	42.84
769.391	42.79
769.569	43.32
769.747	44.96
769.925	43.61
770.103	43.34
770.281	42.88
770.459	44.82
770.636	46.21
770.814	47.14
770.992	46.04
771.17	44.1
771.348	43.45
771.525	44.31
771.703	43.37
771.881	44.47
772.059	44.47
772.236	43.33
772.414	42.71
772.592	41.3
772.769	40.47
772.947	41.52
773.125	42.61
773.302	44.38
773.48	43.62
773.657	43.49
773.835	44.14
774.013	43.05
774.19	44.01
774.368	45.1
774.545	44.4
774.723	42.49
774.9	41.61
775.077	42.13
775.255	40.69
775.432	38.36
775.61	40.66
775.787	38.82
775.964	40.77
776.142	41.12
776.319	39.3
776.496	37.14
776.674	40.04
776.851	40.71
777.028	40.2
777.205	39.53
777.382	41.07
777.56	38.18
777.737	39.59
777.914	36.66
778.091	37.67
778.268	36.96
778.445	39.55
778.622	37.7
778.8	37.38
778.977	37.49
779.154	37.8
779.331	38.28
779.508	39.09
779.685	36.36
779.862	39.03
780.038	38.66
780.215	40.14
780.392	40.98
780.569	39.74
780.746	40.58
780.923	40.86
781.1	41.12
781.277	40.15
781.453	42.18
781.63	44.39
781.807	43.55
781.984	42.87
782.16	42.09
782.337	39.68
782.514	40.38
782.691	38.98
782.867	37.63
783.044	35.93
783.221	35.69
783.397	33.93
783.574	31.26
783.75	29.98
783.927	32.87
784.103	33.26
784.28	36.54
784.456	37.85
784.633	36.9
784.809	37.7
784.986	38.97
785.162	38.36
785.339	38.87
785.515	41.71
785.692	43.91
785.868	42.22
786.044	43.23
786.221	38.24
786.397	37.18
786.573	39.34
786.749	40.3
786.926	40.89
787.102	42.16
787.278	45.29
787.454	44.69
787.631	43.41
787.807	40.91
787.983	40.36
788.159	41.79
788.335	40.19
788.511	39.51
788.687	39.93
788.863	41.93
789.039	43.61
789.216	40.17
789.392	40.59
789.568	41.34
789.744	44
789.919	44.37
790.095	46.6
790.271	49.32
790.447	49.32
790.623	49.88
790.799	50.06
790.975	46.57
791.151	47.73
791.327	48.93
791.502	49.26
791.678	49.03
791.854	48.78
792.03	48.13
792.205	49.54
792.381	48.97
792.557	49.18
792.733	48.31
792.908	51.85
793.084	52.84
793.259	53.3
793.435	53.63
793.611	53.16
793.786	50.73
793.962	49.22
794.137	47.94
794.313	48.25
794.488	46.74
794.664	46.65
794.839	43.88
795.015	40.92
795.19	39.85
795.366	38.84
795.541	38.45
795.716	40.36
795.892	43.02
796.067	41.48
796.242	42.88
796.418	41.23
796.593	40.4
796.768	40.93
796.944	42.56
797.119	42.82
797.294	42.76
797.469	44.29
797.644	44.22
797.82	42.04
797.995	44
798.17	41.92
798.345	44.54
798.52	44.51
798.695	45.99
798.87	46.08
799.045	45.33
799.22	47.76
799.395	48.39
799.57	49.37
799.745	47.69
799.92	44.22
800.095	45.21
800.27	44.39
800.445	45.65
800.62	43.12
800.795	42.38
800.97	41.57
801.145	40.72
801.319	38.54
801.494	36.4
801.669	37.9
801.844	39.56
802.018	42.04
802.193	43.02
802.368	41.82
802.543	44.27
802.717	46.66
802.892	48.66
803.067	48.26
803.241	50.96
803.416	54.35
803.59	54.06
803.765	55.86
803.94	52.79
804.114	49.19
804.289	48.29
804.463	45.52
804.638	43.84
804.812	40.12
804.986	43.36
805.161	39.4
805.335	35.28
805.51	36.99
805.684	35.32
805.858	37.18
806.033	39
806.207	39.12
806.381	42.95
806.556	42.89
806.73	45.25
806.904	41.8
807.078	41.92
807.253	42.64
807.427	42.23
807.601	41.47
807.775	41.07
807.949	42.39
808.123	43.73
808.298	41.37
808.472	39.74
808.646	38.27
808.82	39.13
808.994	37.72
809.168	37.69
809.342	38.11
809.516	42.39
809.69	40.45
809.864	36.6
810.038	38.64
810.212	36.71
810.385	38.22
810.559	36.76
810.733	34.03
810.907	30.98
811.081	32.14
811.255	29.61
811.428	28.17
811.602	29.91
811.776	32.37
811.95	29.96
812.123	36.97
812.297	37.56
812.471	40.32
812.644	42.75
812.818	44.19
812.992	37.71
813.165	38.15
813.339	38.11
813.512	36.5
813.686	38.98
813.86	37.53
814.033	32.23
814.207	30.66
814.38	31.53
814.554	31.86
814.727	38.93
814.9	44.07
815.074	47.74
815.247	45.03
815.421	46.45
815.594	45
815.767	44.23
815.941	44.53
816.114	42.64
816.287	43.72
816.46	35.95
816.634	31.02
816.807	32.17
816.98	29.15
817.153	29.54
817.327	26.52
817.5	25.73
817.673	27.2
817.846	25.51
818.019	32.26
818.192	30.27
818.365	37.95
818.538	44.93
818.711	42.2
818.884	41.95
819.057	38.05
819.23	37.86
819.403	36.74
819.576	35.7
819.749	38.36
819.922	36.08
820.095	38.26
820.268	37.77
820.441	36.36
820.614	40.35
820.786	41.83
820.959	44.8
821.132	44.68
821.305	45.56
821.477	46.77
821.65	46.42
821.823	46.68
821.996	46.12
822.168	45.95
822.341	45.83
822.514	45.45
822.686	44.78
822.859	45.19
823.031	45.82
823.204	45.36
823.376	45.08
823.549	45.43
823.722	45.1
823.894	45.34
824.067	45.56
824.239	44.1
824.411	44.51
824.584	44.86
824.756	44.3
824.929	44.62
825.101	44.71
825.273	44.55
825.446	44.02
825.618	44.07
825.79	43.39
825.963	42.54
826.135	43.79
826.307	42.77
826.479	42.13
826.652	42.38
826.824	41.73
826.996	42.51
827.168	42.32
827.34	41.41
827.512	40.68
827.684	41.4
827.856	42.24
828.029	42.07
828.201	41.83
828.373	42.67
828.545	41.66
828.717	39.93
828.889	38.85
829.061	39.17
829.232	39.41
829.404	39.81
829.576	39.36
829.748	38.82
829.92	38.67
830.092	39.48
830.264	37.38
830.436	38.4
830.607	39.93
830.779	39.76
830.951	37.99
831.123	37.88
831.294	36.75
831.466	34.23
831.638	30.82
831.809	30.42
831.981	30.66
832.153	32.08
832.324	32.43
832.496	31.73
832.667	30.86
832.839	32.83
833.011	32.86
833.182	34.66
833.354	36.67
833.525	41.55
833.697	43.97
833.868	43.01
834.039	44.21
834.211	44.93
834.382	44.57
834.554	47.72
834.725	47.86
834.896	46.58
835.068	47.77
835.239	47.92
835.41	49.75
835.581	49.37
835.753	49.67
835.924	47.91
836.095	46.71
836.266	48.44
836.438	47.62
836.609	47.19
836.78	47.6
836.951	45.5
837.122	44.11
837.293	40.01
837.464	38.81
837.635	36.49
837.806	36.25
837.977	35.41
838.148	33.95
838.319	32.3
838.49	35.15
838.661	34.62
838.832	35.42
839.003	35.88
839.174	31.91
839.345	27.82
839.516	26.8
839.687	25.66
839.857	27.85
840.028	29.41
840.199	27.98
840.37	24.81
840.54	35.91
840.711	34.35
840.882	33.47
841.053	34.52
841.223	35.23
841.394	40.42
841.564	42.05
841.735	38.29
841.906	37.82
842.076	38.46
842.247	36.2
842.417	29.49
842.588	25.77
842.758	26.01
842.929	22.65
843.099	18.67
843.27	18.96
843.44	22.16
843.611	25.7
843.781	16.77
843.951	18.95
844.122	23.07
844.292	21.84
844.462	29.96
844.633	26.72
844.803	43.53
844.973	54.53
845.144	43.24
845.314	45.74
845.484	49.53
845.654	60.4
845.824	60.04
845.995	49.25
846.165	48.47
846.335	48.22
846.505	42.05
846.675	14.75
846.845	-0.7
847.015	17.01
847.185	19.84
847.355	13.72
847.525	17.62
847.695	24.82
847.865	22.14
848.035	20.48
848.205	16.92
848.375	38.68
848.545	40.79
848.715	42.23
848.884	19.61
849.054	-4.54
849.224	-3.89
849.394	10.55
849.564	-21.8
849.733	7.85
849.903	-12.02
850.073	4.33
850.243	-5.19
850.412	4.67
850.582	-15.21
850.752	-17.85
850.921	7.61
851.091	-0.13
851.26	-14.6
851.43	-14.19
851.599	-48.7
851.769	-34.98
851.939	-57.55
852.108	-85.63
852.278	-86.55
852.447	-44.33
852.616	-9.23
852.786	-42
852.955	-21.79
853.125	-40.81
853.294	-25.05
853.463	-31.96
853.633	-44.77
853.802	-33.7
853.971	-24.36
854.141	-38.08
854.31	-60.74
854.479	-98
854.648	-103.72
854.818	-105.6
854.987	-63.84
855.156	-59.23
855.325	-9.74
855.494	-18.4
855.663	-54.8
855.832	-87.59
856.001	-88.67
856.171	-71.99
856.34	-52.69
856.509	-55.55
856.678	-53.35
856.847	-30.39
857.016	-54.34
857.185	-73.15
857.353	-19.35
857.522	-18.03
857.691	5.79
857.86	-9.5
858.029	-0.56
858.198	-10.12
858.367	6.95
858.535	-10.36
858.704	-32.03
858.873	-18.08
859.042	-6.2
859.21	-33.79
859.379	-10.94
859.548	-25.04
859.717	-7.43
859.885	-7.47
860.054	-4.18
860.222	-19.41
860.391	-6.38
860.56	-2.78
860.728	-2.47
860.897	-0.82
861.065	6.34
861.234	3.26
861.402	6.74
861.571	3.08
861.739	13.28
861.908	14.04
862.076	3.66
862.244	5.82
862.413	13.23
862.581	8.51
862.749	-15.4
862.918	-39.08
863.086	-73.89
863.254	-69.1
863.423	-32.33
863.591	-5.53
863.759	-12.15
863.927	174.55
864.096	891.41
864.264	-110.56
864.432	-202.04
864.6	644.76
864.768	257.62
864.936	137.73
865.104	72.58
865.272	45.71
865.44	-16.72
865.608	8.4
865.776	-15.09
865.944	-45.88
866.112	-15.71
866.28	-6.64
866.448	-0.63
866.616	24.23
866.784	33.84
866.952	29.36
867.12	29.21
867.288	44.15
867.455	36.76
867.623	59.86
867.791	61.15
867.959	78.66
868.127	79.02
868.294	84.93
868.462	58.48
868.63	60.19
868.797	68.99
868.965	82.17
869.133	70.37
869.3	108.62
869.468	17.7
869.636	14.44
869.803	-7.78
869.971	9.55
870.138	4.5
870.306	-3.26
870.473	-7.28
870.641	10.31
870.808	11.75
870.975	7.74
871.143	15.03
871.31	14.41
871.478	-3.83
871.645	16.89
871.812	13.12
871.98	20.6
872.147	58.91
872.314	58.28
872.482	63.98
872.649	42.14
872.816	49.61
872.983	17.59
873.15	26.75
873.318	3.78
873.485	20.84
873.652	72.7
873.819	16.42
873.986	13.78
874.153	29.26
874.32	31.82
874.487	56.19
874.654	52.02
874.821	65.15
874.988	71.17
875.155	71.15
875.322	66.54
875.489	45.25
875.656	59.68
875.823	44.97
875.99	39.31
876.157	23.12
876.324	40.5
876.49	51.89
876.657	24.49
876.824	19.33
876.991	36.62
877.157	35.66
877.324	46.5
877.491	37.74
877.658	46.62
877.824	50.67
877.991	55.54
878.157	40.65
878.324	33.95
878.491	55.1
878.657	63.27
878.824	46.37
878.99	39.64
879.157	46.04
879.323	32.45
879.49	52.82
879.656	42.3
879.823	33.93
879.989	21.83
880.156	7.6
880.322	10.7
880.488	18.66
880.655	23.56
880.821	22.92
880.987	32.85
881.154	37.42
881.32	21.89
881.486	25.64
881.652	33.53
881.819	40.56
881.985	41.11
882.151	38.83
882.317	37.1
882.483	36.83
882.649	37.03
882.816	32.53
882.982	37.1
883.148	40.31
883.314	40.12
883.48	38.21
883.646	37.33
883.812	39.02
883.978	38.11
884.144	38.66
884.31	39.35
884.476	40.57
884.642	41.42
884.807	41.39
884.973	39.95
885.139	40.89
885.305	43.06
885.471	43.36
885.637	42.22
885.802	43.11
885.968	45.38
886.134	45.38
886.3	45.17
886.465	46.44
886.631	44.55
886.797	47.54
886.962	49.04
887.128	47.18
887.293	48.73
887.459	51.92
887.625	56.65
887.79	51.62
887.956	57.05
888.121	58.07
888.287	60.26
888.452	66.44
888.618	69.7
888.783	65.44
