Data from CB_112_Reflection_4.txt Node
Date: Sat Nov 14 18:20:46 EST 2015
User: robert
Spectrometer: USB4E03001
Autoset integration time: false
Trigger mode: 4
Integration Time (sec): 1.000000E-1
Scans to average: 15
Electric dark correction enabled: true
Nonlinearity correction enabled: false
Boxcar width: 5
Stray light correction enabled: false
XAxis mode: Wavelengths
Stop averaging: false
Number of Pixels in Spectrum: 3648
>>>>>Begin Spectral Data<<<<<
177.566	92.68
177.785	-267.98
178.005	127.4
178.225	234.09
178.445	-286.32
178.665	55.93
178.885	-367.01
179.105	63.3
179.324	58.5
179.544	26.88
179.764	29.75
179.984	42.32
180.204	21.77
180.423	30.33
180.643	43.73
180.863	61.12
181.083	37.43
181.302	57.81
181.522	80.97
181.742	74.52
181.961	105.46
182.181	141.92
182.401	274.93
182.621	220.28
182.84	347.54
183.06	146.31
183.279	79.21
183.499	187.05
183.719	47.77
183.938	11.54
184.158	58.72
184.377	78.54
184.597	104.73
184.816	94.51
185.036	100.72
185.256	106.86
185.475	123.51
185.695	117.41
185.914	97.04
186.134	105.95
186.353	120.53
186.572	119.7
186.792	110.2
187.011	101.89
187.231	97.4
187.45	98.24
187.67	83.98
187.889	86.47
188.108	91.91
188.328	100.08
188.547	108.95
188.766	98.4
188.986	84.61
189.205	87.63
189.424	81.3
189.644	90.72
189.863	88.47
190.082	111.45
190.302	108.64
190.521	98.88
190.74	79.28
190.959	69.85
191.178	70.24
191.398	68.7
191.617	62.17
191.836	89.38
192.055	75.63
192.274	80.7
192.494	60.98
192.713	0.95
192.932	18.47
193.151	164.84
193.37	124.9
193.589	86.25
193.808	203.82
194.027	231.82
194.246	-582.49
194.465	723.86
194.685	73.78
194.904	20.77
195.123	31.05
195.342	16.33
195.561	21.2
195.78	11.84
195.999	46.93
196.218	31.78
196.436	47.56
196.655	36.65
196.874	47.84
197.093	53.91
197.312	62.49
197.531	85.87
197.75	90.89
197.969	91.17
198.188	100.73
198.407	79.88
198.625	88.11
198.844	97.46
199.063	112.5
199.282	120.14
199.501	152.43
199.719	142.12
199.938	119.67
200.157	97.18
200.376	94.45
200.594	95.09
200.813	121.43
201.032	98.72
201.251	95.42
201.469	105.41
201.688	94.93
201.907	85.64
202.125	102.52
202.344	109.61
202.563	133.99
202.781	151.51
203	219.68
203.218	236
203.437	207.52
203.656	224.65
203.874	160.46
204.093	203.33
204.311	180.72
204.53	222.92
204.748	167.48
204.967	177.66
205.185	191.23
205.404	160.8
205.622	119.63
205.841	135.43
206.059	112.83
206.278	107.3
206.496	89.34
206.715	99.33
206.933	68.42
207.151	80.56
207.37	93.45
207.588	92.6
207.806	89.45
208.025	84.09
208.243	82.01
208.461	103.88
208.68	95.48
208.898	91.25
209.116	79.65
209.335	82.87
209.553	68.51
209.771	55.68
209.989	39.06
210.208	27.75
210.426	23.23
210.644	29.27
210.862	24.56
211.081	18.43
211.299	19.75
211.517	17.53
211.735	10.98
211.953	33.85
212.171	47.57
212.39	58.09
212.608	58.91
212.826	63.4
213.044	68.19
213.262	73.28
213.48	81.02
213.698	76.69
213.916	89.47
214.134	80.48
214.352	89.27
214.57	75.06
214.788	81.2
215.006	103.83
215.224	111.12
215.442	142.65
215.66	115.15
215.878	124.92
216.096	174.01
216.314	163.29
216.532	193.13
216.75	178.49
216.968	224.83
217.185	229.49
217.403	256.81
217.621	363.1
217.839	254.49
218.057	339.51
218.275	242.94
218.492	223.45
218.71	227.83
218.928	258.6
219.146	342.45
219.363	219.14
219.581	253.09
219.799	270.7
220.017	219.86
220.234	208.92
220.452	242.51
220.67	318.21
220.887	447.6
221.105	604.58
221.323	7970.55
221.54	772.82
221.758	4198.93
221.976	1502.54
222.193	265.87
222.411	372.41
222.629	655.98
222.846	712.42
223.064	-489.74
223.281	821.17
223.499	594.99
223.716	823.62
223.934	-673.93
224.151	-234.43
224.369	-122.77
224.586	-52.61
224.804	-10.83
225.021	-8.8
225.239	-20.52
225.456	-24.38
225.674	-10.64
225.891	-20.87
226.108	-61.24
226.326	-18
226.543	0.22
226.76	-7.21
226.978	-5.67
227.195	-22.53
227.413	-24.84
227.63	-18.65
227.847	-15.65
228.064	-0.04
228.282	2.9
228.499	8.05
228.716	3.57
228.934	2.59
229.151	4.12
229.368	4.45
229.585	5.54
229.802	6.71
230.02	7.15
230.237	7.91
230.454	7.78
230.671	9.18
230.888	6.9
231.105	6.17
231.323	0.32
231.54	-6.25
231.757	-11.69
231.974	-21.3
232.191	-20.31
232.408	-15.32
232.625	-13.46
232.842	-17.62
233.059	-17.5
233.276	-19.37
233.493	-19.96
233.71	-6.1
233.927	6.2
234.144	3.82
234.361	4.65
234.578	0.1
234.795	0.69
235.012	-5.55
235.229	-10.99
235.446	-14.88
235.663	-14.38
235.879	-16.19
236.096	-20.93
236.313	-32.96
236.53	-23.48
236.747	-20.31
236.964	-20.05
237.181	-29.67
237.397	-31.06
237.614	-25.38
237.831	-23.25
238.048	-19.04
238.264	-26.49
238.481	-26.88
238.698	-9.94
238.915	-8.1
239.131	-2.26
239.348	-3.73
239.565	-0.73
239.781	2.78
239.998	-1.74
240.215	-2.9
240.431	-4.91
240.648	7.27
240.865	8.99
241.081	7.01
241.298	6.61
241.514	5.96
241.731	8.02
241.947	8.49
242.164	9.76
242.38	13.13
242.597	14.3
242.814	16.97
243.03	14.02
243.246	13.16
243.463	10.59
243.679	8.71
243.896	9.53
244.112	8.86
244.329	8.03
244.545	8.84
244.762	7.49
244.978	8.17
245.194	5.49
245.411	4.63
245.627	5.15
245.843	5.01
246.06	5.9
246.276	6.22
246.492	7.08
246.709	7.26
246.925	6.43
247.141	5.91
247.357	6.52
247.574	7.15
247.79	8.05
248.006	9.03
248.222	9.84
248.439	10.4
248.655	9.26
248.871	8.57
249.087	10.19
249.303	9.99
249.519	9.92
249.736	7.8
249.952	6.07
250.168	6.57
250.384	4.75
250.6	3.08
250.816	-0.09
251.032	1.4
251.248	0.59
251.464	-4.35
251.68	-3.09
251.896	-2.64
252.112	-3.1
252.328	-4.49
252.544	-6.61
252.76	-8.33
252.976	-10.05
253.192	-7.93
253.408	-9.04
253.624	-8.55
253.84	-7.38
254.056	-8.84
254.272	-9.64
254.487	-7.74
254.703	-4.89
254.919	-6.71
255.135	-5.44
255.351	-4.83
255.567	-3.97
255.782	-3.1
255.998	-2.63
256.214	-1.96
256.43	1.15
256.646	0.47
256.861	1.46
257.077	-0.68
257.293	2.24
257.508	4.54
257.724	6.08
257.94	7.22
258.155	6.82
258.371	5.45
258.587	3.29
258.802	2.36
259.018	3.76
259.234	4.35
259.449	5.57
259.665	5.57
259.88	5.5
260.096	5.44
260.312	5.11
260.527	5.5
260.743	5.28
260.958	6.01
261.174	5.99
261.389	5.87
261.605	5.59
261.82	4.93
262.036	4.07
262.251	4.06
262.466	5.27
262.682	4.25
262.897	3.02
263.113	4.59
263.328	6.33
263.543	3.75
263.759	2.17
263.974	0.07
264.189	-2.58
264.405	-5.06
264.62	-6.58
264.835	-6.95
265.051	-4.15
265.266	-1.35
265.481	-1.97
265.696	-3.93
265.912	-0.56
266.127	1.32
266.342	2.61
266.557	4.2
266.773	7.48
266.988	7.29
267.203	7.39
267.418	6.98
267.633	6.9
267.848	6.76
268.064	7.42
268.279	7.56
268.494	5.76
268.709	5.98
268.924	8.33
269.139	6.27
269.354	6.51
269.569	5.35
269.784	4.52
269.999	3.54
270.214	3.66
270.429	2.79
270.644	2.81
270.859	4.09
271.074	3.28
271.289	1.09
271.504	3.41
271.719	4.17
271.934	3.92
272.149	4.73
272.363	4.86
272.578	5.97
272.793	6.78
273.008	6.26
273.223	6.94
273.438	7.16
273.653	7.97
273.867	6.9
274.082	5.84
274.297	6.41
274.512	4.49
274.726	3.27
274.941	2.13
275.156	2.44
275.371	4.27
275.585	3.34
275.8	4.34
276.015	4.18
276.229	4.25
276.444	4.24
276.659	3.5
276.873	4.96
277.088	5.9
277.302	5.03
277.517	4.29
277.732	1.98
277.946	1.96
278.161	0.29
278.375	0.19
278.59	2.02
278.804	1.76
279.019	1.9
279.233	1.81
279.448	1.53
279.662	2.99
279.877	3.49
280.091	4.75
280.306	4.69
280.52	5.24
280.735	5.42
280.949	3.79
281.163	3.71
281.378	3.85
281.592	4.2
281.806	5.2
282.021	5.08
282.235	5.21
282.449	4.23
282.664	5.13
282.878	5.08
283.092	4.9
283.307	4.94
283.521	5.97
283.735	6.13
283.949	5.48
284.164	5.1
284.378	5.94
284.592	6.02
284.806	6.9
285.02	5.95
285.234	6.52
285.449	6.94
285.663	8.07
285.877	7.98
286.091	7.57
286.305	7.39
286.519	7.96
286.733	7.38
286.947	7.48
287.161	8.04
287.375	8.42
287.589	8.55
287.803	8.7
288.017	7.88
288.231	8.63
288.445	9.09
288.659	9.64
288.873	8.52
289.087	8.26
289.301	7.76
289.515	6.71
289.729	6.19
289.943	4.9
290.157	4.05
290.371	4.73
290.584	3.5
290.798	2.42
291.012	2.56
291.226	2.44
291.44	1.87
291.654	2.01
291.867	2.17
292.081	2.68
292.295	4
292.509	3.23
292.722	2.39
292.936	2.35
293.15	4.34
293.364	4.37
293.577	4.87
293.791	5.99
294.005	5.79
294.218	6.25
294.432	6.17
294.645	5.37
294.859	7.59
295.073	7.19
295.286	6.85
295.5	7.11
295.713	6.55
295.927	6.52
296.14	6.42
296.354	6.82
296.568	6.44
296.781	6.7
296.994	7.57
297.208	5.75
297.421	6.49
297.635	6.55
297.848	6.08
298.062	6.33
298.275	7.12
298.489	6.39
298.702	5.98
298.915	6.06
299.129	5.93
299.342	6.16
299.555	6.34
299.769	6.25
299.982	7.02
300.195	6.57
300.409	6.56
300.622	5.67
300.835	5.54
301.048	5.74
301.262	5.44
301.475	4.58
301.688	3.26
301.901	3.74
302.115	2.75
302.328	3.35
302.541	3.35
302.754	2.76
302.967	3.76
303.18	4.54
303.393	5.46
303.607	6.2
303.82	7.13
304.033	8.09
304.246	9.84
304.459	10.32
304.672	10.07
304.885	10.73
305.098	11.25
305.311	10.35
305.524	10.08
305.737	8.68
305.95	9.28
306.163	8.37
306.376	7.13
306.589	6
306.802	4.4
307.015	3.28
307.228	2.94
307.44	3.45
307.653	3.5
307.866	3.57
308.079	4.54
308.292	4.27
308.505	5.51
308.718	5.93
308.93	6.85
309.143	7.64
309.356	8.37
309.569	9.31
309.781	10.12
309.994	10.05
310.207	10.29
310.42	9.67
310.632	9.29
310.845	9.2
311.058	10.53
311.27	10.12
311.483	10.76
311.696	11.06
311.908	10.85
312.121	9.95
312.333	9.11
312.546	9.36
312.759	9.49
312.971	9.57
313.184	9.41
313.396	7.21
313.609	6.7
313.821	6.45
314.034	4.94
314.246	4.41
314.459	5.26
314.671	5.81
314.884	5.91
315.096	6.04
315.309	5.25
315.521	5.45
315.733	7.11
315.946	7.1
316.158	7.24
316.371	9.61
316.583	8.41
316.795	8.3
317.008	9.22
317.22	9.34
317.432	9.01
317.644	8.2
317.857	8.61
318.069	8.59
318.281	8.66
318.494	8.05
318.706	5.39
318.918	5.84
319.13	5.12
319.342	5.93
319.555	5.52
319.767	6.31
319.979	6.39
320.191	6.82
320.403	6.62
320.615	6.51
320.827	5.27
321.039	6.88
321.252	9.3
321.464	10.55
321.676	9.01
321.888	9.11
322.1	8.53
322.312	10.02
322.524	8.42
322.736	8.66
322.948	8.53
323.16	10.63
323.372	10.42
323.584	8.43
323.796	5.5
324.007	6.14
324.219	6.57
324.431	6.78
324.643	6.28
324.855	7.38
325.067	8.14
325.279	7.55
325.491	8.56
325.702	8.7
325.914	8.91
326.126	11.12
326.338	11.86
326.55	13.01
326.761	13.96
326.973	15.04
327.185	15.34
327.396	15.25
327.608	15.52
327.82	14.61
328.032	15.46
328.243	17.11
328.455	17.88
328.666	18.45
328.878	18.66
329.09	18.66
329.301	18.91
329.513	19.11
329.725	18.4
329.936	19.52
330.148	19.24
330.359	17.96
330.571	16.79
330.782	17.62
330.994	17.83
331.205	16.59
331.417	16.38
331.628	17.43
331.84	16.27
332.051	16.58
332.262	17.85
332.474	18.67
332.685	19.79
332.897	20.82
333.108	20.31
333.319	19.43
333.531	20.39
333.742	21.85
333.953	20.67
334.165	21.5
334.376	21.35
334.587	21.11
334.799	21.32
335.01	21.33
335.221	21.31
335.432	22.3
335.644	24.07
335.855	24.12
336.066	23.18
336.277	23.35
336.488	23.67
336.7	23.93
336.911	24.15
337.122	24.64
337.333	24.64
337.544	23.74
337.755	21.43
337.966	20.57
338.177	20.75
338.388	21.1
338.599	21.78
338.811	21.72
339.022	22.61
339.233	22.32
339.444	21.08
339.655	21.8
339.866	22.35
340.076	23.9
340.287	22.87
340.498	22.94
340.709	22.72
340.92	22.66
341.131	21.93
341.342	21.23
341.553	20.72
341.764	21.45
341.975	20.64
342.185	21.59
342.396	21.77
342.607	22.24
342.818	21.87
343.029	22.12
343.239	21.56
343.45	22.8
343.661	23.15
343.872	23.17
344.082	22.97
344.293	22.81
344.504	22.28
344.714	23.09
344.925	22.63
345.136	22.57
345.346	21.92
345.557	21.83
345.768	21.95
345.978	21.66
346.189	22.51
346.399	22.59
346.61	23.31
346.821	23.57
347.031	23
347.242	23.07
347.452	23.14
347.663	23.23
347.873	23.51
348.084	22.67
348.294	22.95
348.504	22.26
348.715	22.1
348.925	21.23
349.136	20.63
349.346	20.38
349.557	20.23
349.767	20.28
349.977	20.37
350.188	19
350.398	18.76
350.608	18.72
350.819	18.96
351.029	18.67
351.239	18.42
351.449	18.55
351.66	17.78
351.87	18.73
352.08	17.87
352.29	18.12
352.501	20.53
352.711	21.07
352.921	20.81
353.131	20.62
353.341	20.61
353.552	20.56
353.762	20.85
353.972	21.21
354.182	20.3
354.392	20.74
354.602	21.04
354.812	20.69
355.022	20.77
355.232	21.12
355.442	21.13
355.652	21.63
355.862	21.6
356.072	21.05
356.282	21.26
356.492	22.34
356.702	22.58
356.912	21.91
357.122	22.09
357.332	21.78
357.542	21.45
357.752	21.6
357.962	21.75
358.171	21.63
358.381	22.9
358.591	22.44
358.801	21.37
359.011	21.76
359.221	21.99
359.43	21.27
359.64	20.99
359.85	20.45
360.06	19.9
360.269	19.78
360.479	20.59
360.689	19.67
360.899	19.63
361.108	20.56
361.318	19.76
361.528	19.7
361.737	19.99
361.947	20.15
362.156	21.05
362.366	21.46
362.576	21.11
362.785	21.05
362.995	21.63
363.204	21.37
363.414	20.96
363.623	21.26
363.833	21.21
364.042	20.92
364.252	20.93
364.461	20.37
364.671	20.59
364.88	20.39
365.09	20.39
365.299	19.41
365.509	20.12
365.718	19.74
365.927	19.5
366.137	19.78
366.346	19.69
366.555	19.7
366.765	19.81
366.974	19.31
367.183	18.92
367.393	18.83
367.602	19.23
367.811	19.05
368.021	19.04
368.23	18.94
368.439	18.77
368.648	19.29
368.857	18.96
369.067	18.48
369.276	18.02
369.485	18.06
369.694	17.86
369.903	17.64
370.112	17.82
370.321	18.22
370.531	18.52
370.74	18.72
370.949	18.77
371.158	19.21
371.367	19.2
371.576	19.3
371.785	19.88
371.994	19.83
372.203	19.91
372.412	19.38
372.621	19.02
372.83	18.79
373.039	18.2
373.248	17.56
373.457	17.02
373.666	17.44
373.874	17.3
374.083	16.43
374.292	15.87
374.501	15.45
374.71	15.25
374.919	15.68
375.128	16.44
375.336	16.86
375.545	16.49
375.754	16.84
375.963	16.55
376.171	16.88
376.38	17.35
376.589	17.79
376.798	17.76
377.006	17.94
377.215	17.25
377.424	16.34
377.632	15.85
377.841	16.5
378.05	16.42
378.258	16.34
378.467	16.08
378.675	16.07
378.884	15.63
379.093	15.9
379.301	15.77
379.51	16.16
379.718	16.21
379.927	16.54
380.135	16.36
380.344	16.03
380.552	15.85
380.761	15.83
380.969	16.12
381.177	16.54
381.386	16.39
381.594	16.48
381.803	16.11
382.011	16.05
382.219	16.06
382.428	15.6
382.636	15.56
382.845	15.41
383.053	15.5
383.261	15.15
383.469	14.42
383.678	14.82
383.886	15.19
384.094	15.05
384.302	14.85
384.511	14.7
384.719	14.91
384.927	14.74
385.135	14.77
385.343	14.39
385.552	14.57
385.76	14.67
385.968	14.01
386.176	13.57
386.384	13.91
386.592	13.99
386.8	13.52
387.008	13.67
387.216	13.9
387.424	13.59
387.633	13.83
387.841	13.9
388.049	14.25
388.257	13.97
388.465	13.5
388.672	13
388.88	12.99
389.088	13.2
389.296	12.75
389.504	12.27
389.712	12.74
389.92	12.76
390.128	12.83
390.336	12.52
390.544	12.55
390.751	12.51
390.959	12.57
391.167	12.74
391.375	12.6
391.583	12.65
391.79	12.74
391.998	12.42
392.206	11.95
392.414	11.49
392.621	11.12
392.829	10.95
393.037	11.04
393.244	10.88
393.452	10.42
393.66	10.72
393.867	10.52
394.075	10.79
394.283	10.58
394.49	10.61
394.698	10.53
394.905	10.67
395.113	10.9
395.32	10.69
395.528	10.58
395.735	10.68
395.943	10.31
396.15	10.35
396.358	10.14
396.565	10.18
396.773	10.46
396.98	10.37
397.188	10.6
397.395	10.27
397.602	10.62
397.81	10.69
398.017	10.58
398.225	10.48
398.432	10.46
398.639	10.39
398.847	10.32
399.054	10.13
399.261	9.97
399.468	9.89
399.676	10.18
399.883	9.93
400.09	10.13
400.297	10.15
400.505	10.01
400.712	9.79
400.919	9.24
401.126	9.29
401.333	9.4
401.54	9.75
401.748	9.47
401.955	9.21
402.162	9.26
402.369	9.3
402.576	9.05
402.783	9.23
402.99	9.17
403.197	9.58
403.404	9.56
403.611	9.33
403.818	9.11
404.025	9.17
404.232	9.3
404.439	9.5
404.646	9.32
404.853	9.51
405.06	9.27
405.267	9.22
405.474	9.18
405.681	9.39
405.887	9.22
406.094	9.05
406.301	9.06
406.508	8.97
406.715	8.57
406.922	8.32
407.128	8.41
407.335	8.59
407.542	8.6
407.749	8.7
407.955	8.34
408.162	8.71
408.369	8.79
408.575	8.65
408.782	8.69
408.989	8.64
409.195	8.84
409.402	8.69
409.609	8.95
409.815	8.97
410.022	8.88
410.228	9.2
410.435	9.34
410.642	9.52
410.848	9.37
411.055	9.23
411.261	9.39
411.468	9.35
411.674	9.44
411.881	9.12
412.087	9.07
412.294	9.25
412.5	9.24
412.706	8.89
412.913	8.64
413.119	8.9
413.326	9
413.532	9.42
413.738	9.39
413.945	9.3
414.151	9.4
414.357	9.71
414.564	9.36
414.77	8.84
414.976	9.07
415.182	9.12
415.389	8.95
415.595	9.2
415.801	8.72
416.007	8.73
416.214	8.74
416.42	8.78
416.626	8.64
416.832	8.62
417.038	8.86
417.244	8.7
417.45	8.7
417.657	8.84
417.863	8.62
418.069	8.71
418.275	8.54
418.481	8.59
418.687	8.61
418.893	8.55
419.099	8.64
419.305	8.62
419.511	8.49
419.717	8.52
419.923	8.41
420.129	8.47
420.335	8.52
420.541	8.76
420.746	8.63
420.952	8.59
421.158	8.61
421.364	8.47
421.57	8.48
421.776	8.48
421.982	8.36
422.187	8.38
422.393	8.32
422.599	8.28
422.805	8.12
423.01	8.27
423.216	8.2
423.422	8.18
423.628	8.2
423.833	8.2
424.039	8.39
424.245	8.41
424.45	8.43
424.656	8.39
424.862	8.31
425.067	8.18
425.273	8.06
425.478	8.04
425.684	8.15
425.889	8.16
426.095	8.36
426.301	8.14
426.506	8.27
426.712	8.2
426.917	8.21
427.123	8.15
427.328	8.45
427.533	8.49
427.739	8.55
427.944	8.46
428.15	8.5
428.355	7.91
428.561	7.92
428.766	7.84
428.971	7.87
429.177	8.08
429.382	8.3
429.587	7.93
429.793	7.89
429.998	7.87
430.203	7.68
430.408	7.83
430.614	8.06
430.819	8
431.024	8.22
431.229	8.34
431.434	7.95
431.64	7.8
431.845	7.87
432.05	7.76
432.255	7.72
432.46	7.7
432.665	7.6
432.87	7.7
433.076	7.72
433.281	7.6
433.486	7.52
433.691	7.67
433.896	7.7
434.101	7.69
434.306	7.75
434.511	7.53
434.716	7.47
434.921	7.39
435.126	7.18
435.331	7.25
435.535	7.19
435.74	7.15
435.945	7.08
436.15	6.94
436.355	6.96
436.56	6.93
436.765	7.1
436.97	7.27
437.174	7.4
437.379	7.58
437.584	7.52
437.789	7.47
437.993	7.52
438.198	7.55
438.403	7.76
438.608	7.89
438.812	8.01
439.017	8.05
439.222	8.14
439.426	8.06
439.631	7.99
439.836	8.02
440.04	7.98
440.245	7.85
440.45	7.96
440.654	7.87
440.859	7.84
441.063	7.84
441.268	7.92
441.472	7.76
441.677	7.88
441.881	7.87
442.086	7.99
442.29	8.08
442.495	8.24
442.699	8.08
442.904	8.16
443.108	8.05
443.312	7.86
443.517	7.84
443.721	7.86
443.925	7.65
444.13	7.81
444.334	7.68
444.538	7.72
444.743	7.66
444.947	7.67
445.151	7.54
445.356	7.6
445.56	7.63
445.764	7.71
445.968	7.67
446.173	7.83
446.377	7.61
446.581	7.48
446.785	7.34
446.989	7.3
447.193	7.37
447.398	7.44
447.602	7.5
447.806	7.49
448.01	7.4
448.214	7.51
448.418	7.24
448.622	7.16
448.826	7.32
449.03	7.46
449.234	7.57
449.438	7.58
449.642	7.56
449.846	7.27
450.05	7.27
450.254	7.25
450.458	6.97
450.662	7.23
450.866	7.47
451.069	7.41
451.273	7.21
451.477	7.07
451.681	6.82
451.885	6.98
452.089	7.16
452.292	7.08
452.496	7.1
452.7	7.2
452.904	7.28
453.107	7.19
453.311	7.15
453.515	7.31
453.719	7.38
453.922	7.4
454.126	7.09
454.33	7.11
454.533	7.05
454.737	6.92
454.94	7.02
455.144	6.92
455.348	7.03
455.551	6.97
455.755	6.96
455.958	7.02
456.162	7.05
456.365	7.21
456.569	7.1
456.772	7.34
456.976	7.55
457.179	7.46
457.383	7.36
457.586	7.36
457.79	7.37
457.993	7.33
458.196	7.16
458.4	7.31
458.603	7.3
458.807	7.44
459.01	7.32
459.213	7.31
459.417	7.44
459.62	7.4
459.823	7.36
460.026	7.4
460.23	7.37
460.433	7.36
460.636	7.38
460.839	7.36
461.042	7.2
461.246	7.23
461.449	7.04
461.652	6.88
461.855	6.91
462.058	6.92
462.261	7.01
462.464	7.06
462.668	7.11
462.871	6.89
463.074	6.88
463.277	7.1
463.48	7.09
463.683	7.06
463.886	7.16
464.089	7.02
464.292	6.92
464.495	6.84
464.698	6.93
464.901	6.85
465.104	7.06
465.306	7.16
465.509	6.91
465.712	6.81
465.915	6.99
466.118	6.97
466.321	7.04
466.524	7.21
466.726	7.07
466.929	6.69
467.132	6.77
467.335	6.67
467.538	6.64
467.74	6.63
467.943	6.76
468.146	6.78
468.348	6.9
468.551	6.98
468.754	6.99
468.956	7.12
469.159	7.36
469.362	7.43
469.564	7.52
469.767	7.46
469.969	7.7
470.172	7.8
470.375	7.56
470.577	7.33
470.78	7.16
470.982	7
471.185	7.08
471.387	7.08
471.59	7.01
471.792	6.86
471.995	7.05
472.197	6.9
472.399	6.57
472.602	6.76
472.804	6.72
473.007	6.73
473.209	6.75
473.411	6.46
473.614	6.36
473.816	6.33
474.018	6.39
474.22	6.2
474.423	6.28
474.625	6.63
474.827	6.39
475.03	6.47
475.232	6.62
475.434	6.77
475.636	6.87
475.838	7.06
476.04	7.33
476.243	7.21
476.445	7.21
476.647	7.17
476.849	6.96
477.051	7.09
477.253	6.99
477.455	6.87
477.657	6.74
477.859	6.71
478.061	6.67
478.263	6.44
478.465	6.52
478.667	6.59
478.869	6.74
479.071	6.77
479.273	6.91
479.475	6.99
479.677	7.11
479.879	7.14
480.081	7.31
480.283	7.4
480.485	7.44
480.686	7.42
480.888	7.45
481.09	7.33
481.292	7.4
481.494	7.34
481.695	7.35
481.897	7.36
482.099	7.33
482.301	7.26
482.502	7.24
482.704	7.26
482.906	7.27
483.107	7.22
483.309	7.24
483.511	7.27
483.712	7.25
483.914	7.25
484.115	7.21
484.317	7.22
484.519	7.21
484.72	7.12
484.922	7.09
485.123	7.13
485.325	7.1
485.526	7.06
485.728	7.01
485.929	7.02
486.131	6.97
486.332	7.01
486.534	6.96
486.735	6.98
486.936	7.09
487.138	7.15
487.339	7.07
487.541	7.19
487.742	7.21
487.943	7.23
488.144	7.26
488.346	7.31
488.547	7.28
488.748	7.31
488.95	7.39
489.151	7.31
489.352	7.24
489.553	7.3
489.755	7.26
489.956	7.29
490.157	7.3
490.358	7.29
490.559	7.33
490.76	7.31
490.961	7.31
491.163	7.28
491.364	7.33
491.565	7.34
491.766	7.28
491.967	7.25
492.168	7.29
492.369	7.23
492.57	7.19
492.771	7.15
492.972	7.21
493.173	7.22
493.374	7.15
493.575	7.12
493.776	7.18
493.976	7.31
494.177	7.18
494.378	7.19
494.579	7.28
494.78	7.35
494.981	7.55
495.182	7.54
495.382	7.58
495.583	7.56
495.784	7.5
495.985	7.5
496.185	7.32
496.386	7.45
496.587	7.36
496.788	7.33
496.988	7.3
497.189	7.25
497.39	7.37
497.59	7.39
497.791	7.45
497.992	7.61
498.192	7.47
498.393	7.63
498.593	7.7
498.794	7.66
498.994	7.8
499.195	7.75
499.395	7.77
499.596	7.68
499.796	7.74
499.997	7.87
500.197	7.8
500.398	8.02
500.598	7.93
500.799	7.99
500.999	8.04
501.199	7.89
501.4	7.99
501.6	7.98
501.801	7.94
502.001	7.98
502.201	7.96
502.402	8.03
502.602	7.92
502.802	7.93
503.002	7.96
503.203	8.1
503.403	8.13
503.603	8.19
503.803	8.17
504.003	8.27
504.204	8.2
504.404	8.12
504.604	8.35
504.804	8.3
505.004	8.38
505.204	8.36
505.404	8.31
505.604	8.35
505.804	8.32
506.005	8.2
506.205	8.32
506.405	8.32
506.605	8.43
506.805	8.33
507.005	8.42
507.204	8.51
507.404	8.47
507.604	8.49
507.804	8.51
508.004	8.62
508.204	8.75
508.404	8.72
508.604	8.91
508.804	8.97
509.003	9.08
509.203	9.14
509.403	9.22
509.603	9.34
509.803	9.59
510.002	9.67
510.202	9.71
510.402	9.68
510.602	9.73
510.801	9.73
511.001	9.64
511.201	9.53
511.4	9.54
511.6	9.66
511.8	9.74
511.999	9.58
512.199	9.56
512.398	9.61
512.598	9.78
512.797	9.81
512.997	9.83
513.197	9.98
513.396	10.04
513.596	10.14
513.795	10.22
513.994	10.11
514.194	10.21
514.393	10.47
514.593	10.52
514.792	10.59
514.992	10.84
515.191	10.91
515.39	11.09
515.59	11.37
515.789	11.62
515.988	11.67
516.188	11.89
516.387	12.01
516.586	12.06
516.786	12.1
516.985	12.02
517.184	11.95
517.383	12.04
517.582	12.01
517.782	12.05
517.981	12.04
518.18	12.05
518.379	12.06
518.578	12.1
518.777	12.09
518.976	12.2
519.176	12.39
519.375	12.52
519.574	12.7
519.773	12.71
519.972	12.74
520.171	12.74
520.37	12.76
520.569	12.95
520.768	13.03
520.967	13.13
521.166	13.2
521.365	13.27
521.564	13.28
521.762	13.15
521.961	13.37
522.16	13.58
522.359	13.83
522.558	13.96
522.757	13.88
522.956	14.04
523.154	14.25
523.353	14.29
523.552	14.49
523.751	14.69
523.949	14.86
524.148	15.01
524.347	15.07
524.546	15.03
524.744	15.25
524.943	15.39
525.142	15.49
525.34	15.5
525.539	15.6
525.737	15.64
525.936	15.74
526.135	15.88
526.333	15.95
526.532	15.83
526.73	15.94
526.929	15.86
527.127	16.02
527.326	16.07
527.524	16.07
527.723	16.22
527.921	16.29
528.12	16.3
528.318	16.36
528.516	16.42
528.715	16.58
528.913	16.69
529.112	16.76
529.31	16.86
529.508	16.92
529.707	17.06
529.905	17.13
530.103	17.19
530.301	17.27
530.5	17.42
530.698	17.45
530.896	17.5
531.094	17.56
531.293	17.63
531.491	17.52
531.689	17.66
531.887	17.67
532.085	17.7
532.283	17.77
532.481	17.89
532.68	17.9
532.878	18.07
533.076	18.22
533.274	18.35
533.472	18.44
533.67	18.65
533.868	18.69
534.066	18.85
534.264	18.92
534.462	19.03
534.66	19.09
534.858	19.11
535.056	19.22
535.253	19.22
535.451	19.25
535.649	19.42
535.847	19.44
536.045	19.47
536.243	19.52
536.441	19.68
536.638	19.77
536.836	19.82
537.034	19.96
537.232	19.96
537.43	20.06
537.627	19.99
537.825	20.07
538.023	20.08
538.22	20.2
538.418	20.17
538.616	20.12
538.813	20.06
539.011	20.08
539.209	20.08
539.406	20.25
539.604	20.36
539.801	20.6
539.999	20.75
540.196	20.97
540.394	21.01
540.591	21.15
540.789	21.2
540.986	21.39
541.184	21.48
541.381	21.5
541.579	21.49
541.776	21.54
541.974	21.59
542.171	21.55
542.368	21.52
542.566	21.54
542.763	21.67
542.96	21.82
543.158	21.83
543.355	21.94
543.552	22.03
543.75	22.14
543.947	22.24
544.144	22.37
544.341	22.52
544.539	22.66
544.736	22.97
544.933	22.97
545.13	22.92
545.327	23.01
545.524	23.05
545.722	23.13
545.919	23.11
546.116	23.11
546.313	23.06
546.51	23.1
546.707	23.15
546.904	23.08
547.101	23.11
547.298	23.22
547.495	23.26
547.692	23.33
547.889	23.47
548.086	23.59
548.283	23.69
548.48	23.83
548.677	23.8
548.874	23.88
549.07	23.87
549.267	23.86
549.464	24.04
549.661	24.06
549.858	24.08
550.055	24.08
550.251	24.32
550.448	24.33
550.645	24.4
550.842	24.41
551.038	24.55
551.235	24.89
551.432	25.08
551.628	25.21
551.825	25.27
552.022	25.38
552.218	25.51
552.415	25.4
552.612	25.53
552.808	25.66
553.005	25.79
553.201	25.84
553.398	25.68
553.594	25.79
553.791	25.67
553.987	25.61
554.184	25.65
554.38	25.84
554.577	26.04
554.773	26.14
554.97	26.13
555.166	26.33
555.362	26.45
555.559	26.62
555.755	26.84
555.952	26.94
556.148	27.22
556.344	27.41
556.541	27.44
556.737	27.53
556.933	27.58
557.129	27.39
557.326	27.56
557.522	27.65
557.718	27.74
557.914	27.69
558.11	27.81
558.307	27.98
558.503	27.95
558.699	27.82
558.895	27.74
559.091	27.69
559.287	28.11
559.483	28.02
559.679	28.07
559.876	28.04
560.072	28
560.268	27.99
560.464	28.25
560.66	28.24
560.856	28.37
561.052	28.63
561.247	28.85
561.443	28.76
561.639	28.77
561.835	28.84
562.031	29.02
562.227	29.09
562.423	29.18
562.619	29
562.815	29.1
563.01	29.26
563.206	29.23
563.402	29.06
563.598	29.07
563.793	29.14
563.989	29.32
564.185	29.26
564.381	29.33
564.576	29.58
564.772	29.56
564.968	29.66
565.163	29.7
565.359	29.76
565.555	29.83
565.75	29.89
565.946	29.96
566.141	29.79
566.337	29.83
566.532	29.87
566.728	29.96
566.923	29.95
567.119	30.01
567.314	29.92
567.51	29.96
567.705	30.05
567.901	30.01
568.096	30.01
568.292	30.07
568.487	30.35
568.682	30.22
568.878	30.24
569.073	30.57
569.268	30.47
569.464	30.51
569.659	30.45
569.854	30.63
570.05	31.1
570.245	31.33
570.44	31.42
570.635	31.21
570.831	31.32
571.026	31.08
571.221	30.88
571.416	30.96
571.611	31.15
571.806	31.27
572.002	31.25
572.197	31.13
572.392	31.16
572.587	31.15
572.782	31.36
572.977	31.51
573.172	31.58
573.367	31.48
573.562	31.51
573.757	31.44
573.952	31.25
574.147	31.1
574.342	31.13
574.537	31.16
574.732	31.52
574.927	31.44
575.121	31.33
575.316	31.5
575.511	31.9
575.706	32.02
575.901	32.14
576.096	32.31
576.29	32.54
576.485	32.44
576.68	32.35
576.875	32.27
577.069	32.37
577.264	32.67
577.459	32.61
577.654	32.59
577.848	32.59
578.043	32.64
578.238	32.87
578.432	32.67
578.627	32.88
578.821	32.98
579.016	32.74
579.21	32.67
579.405	32.47
579.6	32.46
579.794	32.31
579.989	32.45
580.183	32.31
580.378	32.1
580.572	32.2
580.766	32.21
580.961	32.24
581.155	32.28
581.35	32.4
581.544	32.41
581.738	32.5
581.933	32.64
582.127	32.62
582.321	32.79
582.516	32.58
582.71	32.81
582.904	32.73
583.099	32.77
583.293	33.09
583.487	33.2
583.681	33.15
583.875	33.2
584.07	33.12
584.264	33.38
584.458	33.43
584.652	33.77
584.846	33.7
585.04	33.66
585.234	33.66
585.428	33.6
585.623	33.82
585.817	34.06
586.011	34.13
586.205	34.15
586.399	33.79
586.593	33.66
586.787	33.9
586.981	34.07
587.174	34.09
587.368	33.98
587.562	33.8
587.756	33.48
587.95	33.56
588.144	33.61
588.338	33.93
588.532	34.06
588.725	34.23
588.919	34.08
589.113	34.06
589.307	34.18
589.501	34.36
589.694	34.47
589.888	34.74
590.082	34.46
590.275	34.42
590.469	34.28
590.663	34.3
590.856	34.34
591.05	34.36
591.244	34.32
591.437	34.35
591.631	34.25
591.824	34.2
592.018	33.99
592.212	34.29
592.405	34.23
592.599	34.12
592.792	33.95
592.986	33.86
593.179	34.39
593.372	34.43
593.566	34.67
593.759	34.82
593.953	34.96
594.146	34.83
594.339	35.09
594.533	35.06
594.726	35.19
594.92	35.32
595.113	35.55
595.306	35.1
595.499	35.29
595.693	35.12
595.886	35.31
596.079	35.11
596.272	35.5
596.466	35.4
596.659	35.73
596.852	35.74
597.045	35.95
597.238	35.89
597.431	36.12
597.624	36.01
597.818	36.11
598.011	35.94
598.204	36.06
598.397	35.93
598.59	36.05
598.783	35.73
598.976	35.84
599.169	35.85
599.362	35.87
599.555	35.69
599.748	35.85
599.941	35.65
600.134	35.78
600.326	35.66
600.519	35.39
600.712	35.28
600.905	35.32
601.098	35.05
601.291	34.6
601.483	34.46
601.676	34.27
601.869	34.39
602.062	34.55
602.255	34.44
602.447	34.81
602.64	35
602.833	35.11
603.025	35.14
603.218	35.03
603.411	35.48
603.603	35.71
603.796	35.78
603.989	35.75
604.181	35.94
604.374	36.12
604.566	36.09
604.759	36.06
604.951	36.03
605.144	35.94
605.336	36.11
605.529	36.04
605.721	35.91
605.914	36.07
606.106	35.95
606.299	35.64
606.491	35.78
606.683	35.73
606.876	35.93
607.068	35.89
607.26	36.03
607.453	36.24
607.645	36.35
607.837	36.33
608.03	36.38
608.222	36.55
608.414	36.63
608.606	36.48
608.799	36.27
608.991	36.13
609.183	36.15
609.375	36.21
609.567	36.28
609.759	36.2
609.952	36.54
610.144	36.58
610.336	36.72
610.528	36.76
610.72	36.74
610.912	36.98
611.104	37.23
611.296	37.11
611.488	37.19
611.68	37.09
611.872	36.9
612.064	36.75
612.256	36.6
612.448	36.02
612.64	36.24
612.832	36.44
613.023	36.31
613.215	35.9
613.407	35.92
613.599	35.79
613.791	35.8
613.983	35.82
614.174	35.87
614.366	36.02
614.558	36.53
614.75	36.49
614.941	36.04
615.133	36.11
615.325	36.3
615.516	36.47
615.708	36.83
615.9	36.88
616.091	37.2
616.283	37.05
616.475	37.1
616.666	36.91
616.858	36.62
617.049	36.91
617.241	36.84
617.432	37.23
617.624	36.97
617.815	36.62
618.007	36.51
618.198	36.49
618.39	36.5
618.581	36.3
618.773	36.54
618.964	36.79
619.155	37.2
619.347	37.24
619.538	36.91
619.729	37.33
619.921	37.7
620.112	37.81
620.303	37.29
620.494	37.2
620.686	37.32
620.877	37.39
621.068	37.49
621.259	37.15
621.451	37.42
621.642	37.41
621.833	37.23
622.024	37.02
622.215	37.07
622.406	37.46
622.597	37.61
622.788	37.58
622.98	37.19
623.171	37.29
623.362	37.11
623.553	36.84
623.744	36.91
623.935	36.96
624.126	37.17
624.317	37.04
624.508	37.23
624.698	37.4
624.889	37.27
625.08	37.56
625.271	37.75
625.462	37.58
625.653	37.65
625.844	37.62
626.034	37.7
626.225	37.59
626.416	37.71
626.607	37.74
626.798	37.45
626.988	37.77
627.179	37.72
627.37	37.65
627.56	38.03
627.751	38.26
627.942	38.35
628.132	38.08
628.323	37.98
628.514	38.04
628.704	37.94
628.895	37.75
629.085	37.53
629.276	37.7
629.466	37.46
629.657	37.08
629.847	36.87
630.038	36.81
630.228	37.08
630.419	37.35
630.609	37.32
630.8	37.23
630.99	37.69
631.181	37.71
631.371	37.7
631.561	37.83
631.752	38.19
631.942	38.3
632.132	38.19
632.323	38.14
632.513	38.03
632.703	38.3
632.893	38.39
633.084	38.51
633.274	38.52
633.464	38.36
633.654	38.45
633.844	38.31
634.034	38.41
634.225	38.52
634.415	38.47
634.605	38.41
634.795	37.93
634.985	38.01
635.175	37.89
635.365	37.94
635.555	37.98
635.745	37.9
635.935	37.86
636.125	37.8
636.315	37.75
636.505	38.03
636.695	38.19
636.885	38.35
637.075	38.36
637.265	38.21
637.455	38.14
637.644	38.3
637.834	38.03
638.024	38.07
638.214	37.99
638.404	38.14
638.593	38.1
638.783	38.18
638.973	38.39
639.163	38.26
639.352	38.38
639.542	38.71
639.732	38.56
639.921	38.91
640.111	38.96
640.301	38.92
640.49	38.72
640.68	38.85
640.87	38.86
641.059	38.91
641.249	39.02
641.438	39.19
641.628	38.8
641.817	38.78
642.007	38.42
642.196	38.74
642.386	38.8
642.575	38.44
642.764	38.07
642.954	37.84
643.143	37.68
643.333	38.17
643.522	37.53
643.711	38.14
643.901	38.14
644.09	38.38
644.279	38.1
644.469	38.27
644.658	38.81
644.847	38.79
645.036	38.65
645.226	38.64
645.415	38.2
645.604	38.53
645.793	38.08
645.982	38.01
646.171	37.78
646.361	37.75
646.55	37.52
646.739	37.77
646.928	37.99
647.117	38.26
647.306	38.62
647.495	38.53
647.684	38.77
647.873	38.83
648.062	39
648.251	39.18
648.44	39.48
648.629	39.9
648.818	39.8
649.007	39.58
649.196	39.57
649.384	39.35
649.573	39.68
649.762	39.71
649.951	39.92
650.14	39.61
650.328	39.87
650.517	39.61
650.706	39.2
650.895	38.97
651.083	39.22
651.272	39.12
651.461	38.93
651.65	38.33
651.838	38.41
652.027	38.43
652.216	38.68
652.404	39.04
652.593	39.08
652.781	39.07
652.97	39.24
653.158	39.12
653.347	39.17
653.535	39.17
653.724	39.47
653.912	39.38
654.101	38.97
654.289	38.75
654.478	38.63
654.666	38.58
654.855	38.67
655.043	38.66
655.231	38.64
655.42	38.58
655.608	38.72
655.796	38.8
655.985	38.79
656.173	38.84
656.361	38.75
656.55	38.3
656.738	38.37
656.926	38.49
657.114	38.06
657.302	38.26
657.491	38.18
657.679	38.32
657.867	38.73
658.055	38.72
658.243	38.69
658.431	39.01
658.619	39.68
658.807	39.48
658.996	39.32
659.184	39.32
659.372	39.04
659.56	39.13
659.748	39.31
659.936	39.13
660.124	39.44
660.311	39.55
660.499	39.91
660.687	39.21
660.875	39.49
661.063	39.54
661.251	40.14
661.439	40.28
661.627	40.53
661.814	40.48
662.002	40.51
662.19	40.48
662.378	40.7
662.565	40.12
662.753	40.37
662.941	40.35
663.129	40.46
663.316	40.19
663.504	40.2
663.692	40
663.879	39.86
664.067	39.47
664.254	39.29
664.442	39.36
664.63	39.75
664.817	39.47
665.005	39.46
665.192	39.26
665.38	39.07
665.567	39.06
665.755	39.25
665.942	39.12
666.13	39.28
666.317	38.86
666.504	38.18
666.692	38.12
666.879	38.57
667.067	38.8
667.254	39.22
667.441	39.37
667.629	39.67
667.816	39.98
668.003	39.94
668.19	39.9
668.378	40.41
668.565	40.45
668.752	40.4
668.939	40.24
669.127	39.76
669.314	39.05
669.501	39.03
669.688	39.41
669.875	39.11
670.062	39.07
670.249	39.21
670.436	38.86
670.623	39.29
670.81	39.04
670.997	39.11
671.184	39.29
671.371	39.85
671.558	40.21
671.745	39.91
671.932	39.65
672.119	39.48
672.306	39.26
672.493	39.76
672.68	39.91
672.867	39.88
673.054	39.79
673.24	39.77
673.427	39.62
673.614	39.54
673.801	39.12
673.988	39.18
674.174	39.46
674.361	39.82
674.548	39.35
674.734	39.73
674.921	39.95
675.108	39.84
675.294	39.79
675.481	39.59
675.668	39.47
675.854	39.73
676.041	39.98
676.227	39.92
676.414	39.7
676.601	39.68
676.787	39.43
676.974	38.97
677.16	38.97
677.347	39.3
677.533	39.51
677.719	39.4
677.906	39.39
678.092	39.29
678.279	39.67
678.465	39.65
678.651	39.69
678.838	39.84
679.024	40.41
679.21	40.57
679.397	40.51
679.583	40.23
679.769	40.53
679.955	40.64
680.142	40.53
680.328	40.44
680.514	40.37
680.7	40.48
680.886	40.4
681.073	40.41
681.259	40.14
681.445	39.78
681.631	39.89
681.817	39.42
682.003	39.27
682.189	39.29
682.375	39.26
682.561	39.47
682.747	39.42
682.933	39.1
683.119	39.09
683.305	39.25
683.491	39.9
683.677	40.12
683.863	40.65
684.049	40.11
684.235	39.95
684.42	39.67
684.606	39.53
684.792	39.26
684.978	38.99
685.164	38.93
685.349	39.36
685.535	39.14
685.721	39.73
685.907	39.13
686.092	40.08
686.278	40.42
686.464	40.63
686.649	40.39
686.835	40.88
687.021	41.03
687.206	41.51
687.392	41.2
687.577	41.21
687.763	41.33
687.948	41.45
688.134	41.1
688.319	41.39
688.505	40.85
688.69	41.06
688.876	40.65
689.061	41.1
689.247	40.28
689.432	40.23
689.618	39.98
689.803	39.45
689.988	39.83
690.174	39.75
690.359	38.99
690.544	39.23
690.73	39.07
690.915	39.32
691.1	39.01
691.285	39.49
691.471	40.1
691.656	40.76
691.841	40.88
692.026	40.18
692.211	40.15
692.396	40.73
692.582	41.19
692.767	41.74
692.952	42.05
693.137	42
693.322	41.87
693.507	41.46
693.692	41
693.877	41.07
694.062	41.57
694.247	42.26
694.432	42.41
694.617	41.72
694.802	41.38
694.987	41.43
695.172	41.7
695.357	41.69
695.541	41.81
695.726	41.78
695.911	41.72
696.096	42.09
696.281	41.74
696.466	41.29
696.65	41.97
696.835	42.19
697.02	42.05
697.204	41.34
697.389	41.28
697.574	41.11
697.759	41.22
697.943	40.87
698.128	40.91
698.312	40.84
698.497	40.96
698.682	40.91
698.866	41.02
699.051	40.59
699.235	40.69
699.42	40.72
699.604	40.45
699.789	40.26
699.973	40.66
700.158	40.56
700.342	40.25
700.527	40.29
700.711	40.27
700.895	39.99
701.08	39.9
701.264	40.16
701.448	40.34
701.633	40.57
701.817	40.19
702.001	39.82
702.186	39.35
702.37	39.63
702.554	39.42
702.738	39.76
702.923	39.71
703.107	40.02
703.291	39.89
703.475	38.98
703.659	39.29
703.843	39.76
704.027	40.17
704.212	40.15
704.396	39.99
704.58	40.24
704.764	39.67
704.948	39.92
705.132	40.08
705.316	40.75
705.5	41.98
705.684	41.76
705.868	42.32
706.052	41.8
706.235	41.99
706.419	42.25
706.603	42.61
706.787	42.34
706.971	42.99
707.155	43.55
707.339	43.81
707.522	43.19
707.706	43.45
707.89	42.83
708.074	43.68
708.257	44.34
708.441	44.28
708.625	43.34
708.808	43.79
708.992	42.59
709.176	42.15
709.359	41.3
709.543	41.01
709.727	41.15
709.91	41.26
710.094	40.29
710.277	40.07
710.461	40.27
710.644	40.39
710.828	40.27
711.011	40.37
711.195	40.3
711.378	40.54
711.562	40.76
711.745	40.3
711.928	40.67
712.112	40.92
712.295	40.57
712.478	41.06
712.662	41.54
712.845	41.51
713.028	41.57
713.212	41.1
713.395	41.03
713.578	40.81
713.761	41.04
713.945	40.7
714.128	40.82
714.311	40.87
714.494	40.99
714.677	40.51
714.86	40.65
715.043	40.61
715.227	41.14
715.41	41.72
715.593	41.96
715.776	41.51
715.959	41.98
716.142	42.09
716.325	42.51
716.508	42
716.691	41.95
716.874	41.4
717.057	41.28
717.239	41.06
717.422	40.54
717.605	40.37
717.788	40.86
717.971	39.67
718.154	39.44
718.337	38.77
718.519	38.26
718.702	38.77
718.885	39.33
719.068	40.22
719.25	40.33
719.433	40.2
719.616	40.2
719.798	40.35
719.981	41.08
720.164	40.5
720.346	40.97
720.529	41.4
720.712	41.67
720.894	41.83
721.077	41.52
721.259	40.81
721.442	40.72
721.624	40.62
721.807	40.65
721.989	40.62
722.172	41.41
722.354	41.58
722.537	41.63
722.719	42.05
722.901	42.65
723.084	42.61
723.266	43.6
723.448	43.32
723.631	44.18
723.813	43.59
723.995	42.54
724.178	42.59
724.36	42.48
724.542	42.23
724.724	42.06
724.907	41.44
725.089	41.79
725.271	41.85
725.453	42.57
725.635	40.97
725.817	40.22
725.999	41.04
726.181	41.7
726.364	41.27
726.546	41.47
726.728	40.65
726.91	40.02
727.092	39.73
727.274	39.59
727.456	39.3
727.638	40.36
727.819	41.46
728.001	41.34
728.183	40.75
728.365	41.69
728.547	41.86
728.729	41.73
728.911	41.68
729.093	41.83
729.274	42.12
729.456	41.81
729.638	41.82
729.82	41.34
730.001	40.96
730.183	41.25
730.365	39.88
730.546	40.3
730.728	40.28
730.91	40.07
731.091	39.17
731.273	38.88
731.455	39.69
731.636	39.69
731.818	40.02
731.999	41.31
732.181	41.13
732.362	41.63
732.544	40.85
732.725	41.04
732.907	42.27
733.088	42.03
733.27	41.55
733.451	40.81
733.633	40.84
733.814	40.07
733.995	40.24
734.177	39.13
734.358	39.16
734.539	38.6
734.721	38.77
734.902	37.98
735.083	38.32
735.264	38.92
735.446	39.8
735.627	40.23
735.808	41.43
735.989	39.1
736.17	40.31
736.351	40.63
736.533	41.16
736.714	40.57
736.895	41.18
737.076	41.84
737.257	41.76
737.438	41.01
737.619	39.81
737.8	39.85
737.981	41.37
738.162	41.11
738.343	40.49
738.524	41.14
738.705	41.44
738.886	40.46
739.067	39.85
739.247	39.78
739.428	39.46
739.609	40.65
739.79	40.45
739.971	40.81
740.151	39.33
740.332	39.57
740.513	38.81
740.694	38.93
740.874	38.62
741.055	38.99
741.236	39.59
741.417	40.45
741.597	39.57
741.778	39.88
741.958	39.3
742.139	40.76
742.32	41.68
742.5	41.97
742.681	42.09
742.861	42.51
743.042	42.51
743.222	42.4
743.403	41.6
743.583	42.57
743.764	41.38
743.944	40.88
744.124	40.54
744.305	39.27
744.485	40.01
744.666	38.77
744.846	39.16
745.026	39.44
745.207	39.02
745.387	39.09
745.567	37.72
745.747	39.28
745.928	39.94
746.108	40.16
746.288	41.15
746.468	40.53
746.648	41.17
746.829	41.06
747.009	40.91
747.189	41.45
747.369	41.06
747.549	41.99
747.729	40.65
747.909	40.7
748.089	41.25
748.269	39.85
748.449	39.5
748.629	40.74
748.809	40.92
748.989	41.19
749.169	41.21
749.349	41.39
749.529	40.71
749.709	42.11
749.889	41.87
750.068	41.25
750.248	41.06
750.428	41.35
750.608	41.07
750.788	41.38
750.967	40.58
751.147	39.85
751.327	41.23
751.507	41.89
751.686	41.05
751.866	41.87
752.046	42.42
752.225	42.63
752.405	42.41
752.585	42.69
752.764	42.42
752.944	42.64
753.123	42.71
753.303	42.24
753.482	42.23
753.662	42.78
753.841	41.87
754.021	39.9
754.2	40.29
754.38	39.63
754.559	39.81
754.739	39.25
754.918	39.63
755.097	40.21
755.277	39.02
755.456	38.12
755.635	37.15
755.815	37.01
755.994	38.83
756.173	39.18
756.352	40.63
756.532	40.18
756.711	41.04
756.89	41.77
757.069	41.35
757.248	42.2
757.427	42.73
757.607	42.57
757.786	42.7
757.965	42.7
758.144	41.92
758.323	41.01
758.502	41.49
758.681	41.88
758.86	41.2
759.039	40.56
759.218	40.36
759.397	41.74
759.576	41.96
759.755	41.99
759.934	42.73
760.113	43.06
760.291	43.67
760.47	43.1
760.649	42.02
760.828	42.17
761.007	42.89
761.186	42.26
761.364	41.11
761.543	41.42
761.722	41.58
761.901	40.65
762.079	41.03
762.258	41.18
762.437	42.03
762.615	42.18
762.794	42.74
762.972	42.75
763.151	43.03
763.33	42.95
763.508	42.93
763.687	42.57
763.865	42.52
764.044	42.67
764.222	42.06
764.401	40.64
764.579	41.62
764.758	40.96
764.936	41.23
765.114	41.51
765.293	41.57
765.471	41.94
765.65	41.79
765.828	42.08
766.006	42.25
766.184	43.26
766.363	44.55
766.541	43.61
766.719	43.87
766.898	43.68
767.076	42.74
767.254	42.68
767.432	41.1
767.61	42.21
767.788	41.72
767.967	41.96
768.145	41.56
768.323	40.74
768.501	41.83
768.679	41.32
768.857	41.47
769.035	42.43
769.213	41.86
769.391	42.46
769.569	42.71
769.747	41.95
769.925	40.65
770.103	39.52
770.281	38.96
770.459	37.7
770.636	38.95
770.814	39.91
770.992	39.99
771.17	39.67
771.348	38.79
771.525	39.27
771.703	39.75
771.881	42
772.059	43.67
772.236	43.62
772.414	42.63
772.592	42.66
772.769	40.69
772.947	41.73
773.125	42.82
773.302	43.77
773.48	43.06
773.657	43.36
773.835	42.73
774.013	40.1
774.19	39.27
774.368	40.32
774.545	37.08
774.723	34.86
774.9	31.53
775.077	29.27
775.255	30.17
775.432	28.74
775.61	30.71
775.787	27.86
775.964	29.45
776.142	30.74
776.319	30.48
776.496	31.65
776.674	35.15
776.851	38.4
777.028	37.73
777.205	36.93
777.382	36.59
777.56	35.13
777.737	35.5
777.914	33.82
778.091	34.62
778.268	36.06
778.445	35.89
778.622	34.42
778.8	32.84
778.977	35.52
779.154	35.6
779.331	37.57
779.508	38.34
779.685	38.02
779.862	39.57
780.038	38.54
780.215	37.11
780.392	37.91
780.569	36.57
780.746	38.65
780.923	39
781.1	39.33
781.277	38.63
781.453	39.57
781.63	42.23
781.807	41.16
781.984	42.85
782.16	42.84
782.337	43.11
782.514	44.08
782.691	43.55
782.867	44.27
783.044	44.1
783.221	43.26
783.397	38.99
783.574	37.06
783.75	38.84
783.927	38.92
784.103	40.17
784.28	40.46
784.456	42.79
784.633	40.48
784.809	39.24
784.986	38.97
785.162	39.24
785.339	42.36
785.515	40.73
785.692	40.54
785.868	39.17
786.044	38.9
786.221	36.85
786.397	33.78
786.573	35.34
786.749	37.53
786.926	37.2
787.102	35.28
787.278	34.91
787.454	38.47
787.631	37.65
787.807	36.39
787.983	33.84
788.159	36.33
788.335	35.06
788.511	34.84
788.687	32.68
788.863	33.2
789.039	37.46
789.216	37.14
789.392	35.35
789.568	34.68
789.744	35.33
789.919	36.93
790.095	36.97
790.271	41.2
790.447	41.62
790.623	43.52
790.799	45.25
790.975	41.17
791.151	42.8
791.327	46.51
791.502	46.76
791.678	46.62
791.854	44.35
792.03	45.19
792.205	43.05
792.381	39.81
792.557	38.53
792.733	40.2
792.908	41.52
793.084	39.26
793.259	35.03
793.435	36.18
793.611	38.55
793.786	41.65
793.962	40.79
794.137	40.86
794.313	45.26
794.488	44.31
794.664	42.59
794.839	42.99
795.015	41.31
795.19	39.51
795.366	38.67
795.541	37.26
795.716	37.77
795.892	36.64
796.067	34.8
796.242	35.53
796.418	33.01
796.593	31.36
796.768	30.55
796.944	32.17
797.119	34.77
797.294	34.4
797.469	35.35
797.644	34.25
797.82	34.41
797.995	34.72
798.17	34.29
798.345	36.73
798.52	37.21
798.695	37.17
798.87	37.58
799.045	37.84
799.22	39.11
799.395	40.38
799.57	40.43
799.745	39.53
799.92	40.06
800.095	39.86
800.27	41.69
800.445	40.26
800.62	40.29
800.795	41.44
800.97	42.11
801.145	43.97
801.319	43.38
801.494	42.12
801.669	41.84
801.844	43.95
802.018	44.36
802.193	42.86
802.368	45.26
802.543	44.65
802.717	43.63
802.892	43.49
803.067	39.86
803.241	39.34
803.416	41.91
803.59	41.26
803.765	40.38
803.94	35.04
804.114	34.12
804.289	30.07
804.463	30.49
804.638	28.5
804.812	24.54
804.986	27.33
805.161	26.63
805.335	25.95
805.51	28.66
805.684	28.07
805.858	32.47
806.033	32.2
806.207	32.94
806.381	33.18
806.556	34.3
806.73	38.44
806.904	38.82
807.078	36.59
807.253	35.15
807.427	34.35
807.601	32.87
807.775	31.48
807.949	33.13
808.123	34.18
808.298	33.77
808.472	34.55
808.646	32.31
808.82	32.49
808.994	32.51
809.168	30.7
809.342	31.43
809.516	33.11
809.69	34.29
809.864	34.63
810.038	37.55
810.212	37.04
810.385	36.68
810.559	38.38
810.733	36.82
810.907	38.14
811.081	43.06
811.255	39.29
811.428	40.95
811.602	40.55
811.776	41.48
811.95	41.32
812.123	44.99
812.297	42.57
812.471	42.48
812.644	40.78
812.818	40.51
812.992	36.31
813.165	38.31
813.339	37.92
813.512	36.14
813.686	39.29
813.86	34.71
814.033	29.03
814.207	30.71
814.38	28.21
814.554	33.94
814.727	36.07
814.9	37.7
815.074	42.45
815.247	38.65
815.421	43.61
815.594	36.44
815.767	36.27
815.941	41.5
816.114	39
816.287	42.31
816.46	34.95
816.634	29.25
816.807	32.49
816.98	27.35
817.153	32.98
817.327	29.8
817.5	29.97
817.673	31.83
817.846	28.08
818.019	28.45
818.192	25.36
818.365	31.86
818.538	39.91
818.711	36.8
818.884	39.42
819.057	35.58
819.23	32.86
819.403	35.41
819.576	35.55
819.749	36.99
819.922	39.6
820.095	41.86
820.268	39.61
820.441	34.3
820.614	34.21
820.786	32.89
820.959	35.45
821.132	38.05
821.305	38.28
821.477	39.96
821.65	40
821.823	39.83
821.996	39.49
822.168	40.06
822.341	40.62
822.514	40.89
822.686	41.42
822.859	41.13
823.031	40.93
823.204	40.09
823.376	39.43
823.549	39.39
823.722	39.57
823.894	39.81
824.067	39.23
824.239	39.09
824.411	38.92
824.584	39.05
824.756	38.47
824.929	38.46
825.101	39.08
825.273	38.82
825.446	38.57
825.618	38.66
825.79	38.57
825.963	38.53
826.135	38.63
826.307	38.35
826.479	37.61
826.652	37.91
826.824	37.63
826.996	37.32
827.168	37.6
827.34	37.13
827.512	37.03
827.684	36.85
827.856	37.44
828.029	37.98
828.201	38.17
828.373	37.9
828.545	38.1
828.717	37.5
828.889	37.44
829.061	37.51
829.232	38.15
829.404	37.41
829.576	36.59
829.748	35.57
829.92	34.36
830.092	34.36
830.264	34.11
830.436	33.46
830.607	33.93
830.779	32.88
830.951	32.12
831.123	32.15
831.294	31.17
831.466	29.88
831.638	31.69
831.809	31.98
831.981	34.38
832.153	33.27
832.324	33.48
832.496	30.04
832.667	31.05
832.839	32.29
833.011	33.8
833.182	33.53
833.354	33.41
833.525	34.85
833.697	35.74
833.868	34.42
834.039	37.29
834.211	38.79
834.382	42.11
834.554	43.69
834.725	44.89
834.896	43.72
835.068	44.54
835.239	45.31
835.41	45.1
835.581	44.77
835.753	44.69
835.924	43.83
836.095	43.45
836.266	43.19
836.438	43.03
836.609	40.87
836.78	42.36
836.951	44.05
837.122	44.24
837.293	40.82
837.464	42.76
837.635	39.96
837.806	40.15
837.977	37.44
838.148	32.87
838.319	28.66
838.49	32.44
838.661	27.85
838.832	24.86
839.003	24.2
839.174	22.54
839.345	15.1
839.516	10.96
839.687	4.31
839.857	11
840.028	22.13
840.199	26.79
840.37	20.41
840.54	28.72
840.711	27.26
840.882	30.48
841.053	32.76
841.223	34.89
841.394	43.21
841.564	42.13
841.735	38.34
841.906	28.99
842.076	24.27
842.247	27.38
842.417	16.05
842.588	20.41
842.758	18.76
842.929	15.02
843.099	10.38
843.27	3.22
843.44	7.57
843.611	10.34
843.781	4.33
843.951	9.49
844.122	13.4
844.292	21.1
844.462	19.34
844.633	25.98
844.803	33.31
844.973	42.67
845.144	44.33
845.314	53.37
845.484	58.42
845.654	75.28
845.824	65.98
845.995	51.75
846.165	43.37
846.335	47.3
846.505	29.98
846.675	14.13
846.845	5.26
847.015	-7.42
847.185	-6.01
847.355	-12.96
847.525	-8.2
847.695	10.31
847.865	4.81
848.035	11.7
848.205	-11.16
848.375	0.21
848.545	1.61
848.715	-4.84
848.884	0.06
849.054	-22.27
849.224	-33.15
849.394	-61.65
849.564	-49.33
849.733	-21.14
849.903	-38.21
850.073	-17.54
850.243	-18.8
850.412	-11.82
850.582	-23.15
850.752	-27.06
850.921	-6.14
851.091	-9.45
851.26	-1.45
851.43	-17.72
851.599	-42.02
851.769	-20.33
851.939	-19.6
852.108	-80.71
852.278	-93.07
852.447	-101.95
852.616	-76.78
852.786	-93.37
852.955	-50.55
853.125	-58.8
853.294	-25.64
853.463	-27.56
853.633	-76.97
853.802	-113.7
853.971	-72.61
854.141	-73.35
854.31	-56
854.479	-75.41
854.648	-55.15
854.818	-92.98
854.987	-58.51
855.156	-81.82
855.325	-53.19
855.494	-35.2
855.663	-33.71
855.832	-70.2
856.001	-41.71
856.171	-56.65
856.34	-60.02
856.509	-96.19
856.678	-91.31
856.847	-65.82
857.016	-99.64
857.185	-95.35
857.353	-43.72
857.522	-44.7
857.691	5.48
857.86	6.74
858.029	20.83
858.198	9.95
858.367	18.23
858.535	1.41
858.704	1.42
858.873	28.26
859.042	41.92
859.21	34.99
859.379	25.39
859.548	7.79
859.717	6.78
859.885	7.11
860.054	23.88
860.222	10.72
860.391	19.53
860.56	19.28
860.728	7.75
860.897	7.1
861.065	12.47
861.234	15
861.402	10.07
861.571	6.19
861.739	6.05
861.908	0.11
862.076	15.49
862.244	19.49
862.413	14.15
862.581	0.48
862.749	-52.15
862.918	-122.15
863.086	-143.05
863.254	-111.68
863.423	-207.4
863.591	-126.67
863.759	-187.81
863.927	-148.43
864.096	-812.12
864.264	263.61
864.432	214.41
864.6	-291.99
864.768	-13.9
864.936	54.38
865.104	42.89
865.272	42.17
865.44	-18.68
865.608	3.32
865.776	-118.82
865.944	-83.53
866.112	-51.94
866.28	-43.75
866.448	-31.42
866.616	-6.59
866.784	-17.41
866.952	-46.46
867.12	-33.24
867.288	8.96
867.455	17.27
867.623	44.29
867.791	30.4
867.959	31.38
868.127	48.42
868.294	58.71
868.462	36.16
868.63	40.92
868.797	63.05
868.965	29.96
869.133	13.2
869.3	-32.7
869.468	-16.07
869.636	10.26
869.803	-4.65
869.971	-28.61
870.138	-16.17
870.306	-7.87
870.473	9.71
870.641	13.14
870.808	20.44
870.975	-4.77
871.143	7.5
871.31	-35.7
871.478	-135.21
871.645	-33.07
871.812	-41.72
871.98	-62.45
872.147	-67.44
872.314	-31.61
872.482	-70.63
872.649	-122.24
872.816	-60.12
872.983	-276.58
873.15	-58.61
873.318	-41.44
873.485	-120.36
873.652	-94.24
873.819	-35.43
873.986	-32.59
874.153	-60.79
874.32	-52.45
874.487	-31.43
874.654	-39.74
874.821	8.84
874.988	10.99
875.155	29.46
875.322	50.5
875.489	53.03
875.656	41.15
875.823	37.6
875.99	42.26
876.157	44.25
876.324	60.4
876.49	73.37
876.657	51.92
876.824	36.91
876.991	40.65
877.157	33.03
877.324	29.52
877.491	45.68
877.658	45.64
877.824	31.94
877.991	56
878.157	23.03
878.324	30.66
878.491	41.46
878.657	41.57
878.824	21.12
878.99	27.88
879.157	12.47
879.323	-15.5
879.49	9.49
879.656	17.04
879.823	3.12
879.989	6.15
880.156	-19.09
880.322	-18.27
880.488	6.85
880.655	12.57
880.821	-5.36
880.987	6.64
881.154	12.45
881.32	-1.79
881.486	0.56
881.652	2.74
881.819	15.85
881.985	25.24
882.151	24.28
882.317	20.54
882.483	22.73
882.649	25.37
882.816	23.55
882.982	27.23
883.148	29.75
883.314	32.8
883.48	33.64
883.646	33.06
883.812	33.93
883.978	33.96
884.144	33.91
884.31	33.78
884.476	34.74
884.642	35.91
884.807	35.49
884.973	36.97
885.139	37.22
885.305	37.67
885.471	37.37
885.637	36.91
885.802	38.12
885.968	38.01
886.134	37.39
886.3	37.71
886.465	35.92
886.631	35.82
886.797	33.03
886.962	31.93
887.128	27.31
887.293	26.36
887.459	25.5
887.625	17.69
887.79	17.46
887.956	30.34
888.121	27
888.287	32.59
888.452	28.74
888.618	30.08
888.783	17.52
