Data from CB_115_Reflection_3.txt Node
Date: Sat Nov 14 19:04:14 EST 2015
User: robert
Spectrometer: USB4E03001
Autoset integration time: false
Trigger mode: 4
Integration Time (sec): 1.000000E-1
Scans to average: 15
Electric dark correction enabled: true
Nonlinearity correction enabled: false
Boxcar width: 5
Stray light correction enabled: false
XAxis mode: Wavelengths
Stop averaging: false
Number of Pixels in Spectrum: 3648
>>>>>Begin Spectral Data<<<<<
177.566	-3.46
177.785	-24.68
178.005	1.12
178.225	33.98
178.445	-42.15
178.665	-104.62
178.885	-117
179.105	-43.01
179.324	-49.89
179.544	-4298.25
179.764	-68.2
179.984	-49.33
180.204	-44.88
180.423	-31.65
180.643	-23.28
180.863	-48.83
181.083	-52.58
181.302	-10.44
181.522	-107.36
181.742	-151.52
181.961	49.07
182.181	196.78
182.401	45.76
182.621	23.54
182.84	102.97
183.06	72.33
183.279	-174.42
183.499	73.69
183.719	33.31
183.938	44.96
184.158	-30.3
184.377	-18.6
184.597	48.53
184.816	51.17
185.036	29.21
185.256	70.75
185.475	41.99
185.695	25.15
185.914	3.48
186.134	15.94
186.353	57.25
186.572	88.92
186.792	113
187.011	114.35
187.231	114.97
187.45	99.03
187.67	168.42
187.889	158.93
188.108	232.72
188.328	281.82
188.547	202.66
188.766	194.62
188.986	-187.96
189.205	90.11
189.424	112.33
189.644	174.03
189.863	45.24
190.082	63.84
190.302	-21.3
190.521	-110.99
190.74	-48.17
190.959	-9.73
191.178	-51.3
191.398	-20.97
191.617	-80.47
191.836	-76.47
192.055	-24.37
192.274	-9.17
192.494	-231.26
192.713	508.05
192.932	-25.74
193.151	-26.4
193.37	15.7
193.589	-24.03
193.808	0.39
194.027	6.57
194.246	21.47
194.465	10.44
194.685	-2.48
194.904	-90.76
195.123	-26.23
195.342	-7.43
195.561	48.17
195.78	12.62
195.999	2.75
196.218	62.07
196.436	85.3
196.655	75.77
196.874	303.9
197.093	211.14
197.312	2046.67
197.531	-25.18
197.75	1.31
197.969	17.88
198.188	-68.02
198.407	-135.55
198.625	-153.09
198.844	5.47
199.063	32.04
199.282	39.04
199.501	62.32
199.719	-180.76
199.938	107.97
200.157	59.13
200.376	67.15
200.594	35.79
200.813	1.02
201.032	-33.74
201.251	25.96
201.469	81.48
201.688	39.75
201.907	43.1
202.125	54.57
202.344	38.48
202.563	45.83
202.781	22.85
203	6.17
203.218	61
203.437	85.21
203.656	173.22
203.874	12.51
204.093	175.75
204.311	-7.6
204.53	69.45
204.748	61.34
204.967	80.8
205.185	66.84
205.404	120.62
205.622	204.34
205.841	199.31
206.059	143.92
206.278	18.3
206.496	45.45
206.715	47.96
206.933	-21.03
207.151	-5
207.37	-59.23
207.588	-68.32
207.806	-123.52
208.025	-107.18
208.243	-34.39
208.461	-3.13
208.68	124.35
208.898	19.45
209.116	31.6
209.335	136.76
209.553	122.58
209.771	196.13
209.989	190.38
210.208	83.69
210.426	18.7
210.644	22.16
210.862	-3.65
211.081	120.33
211.299	76.38
211.517	185.62
211.735	80.64
211.953	-454.95
212.171	-15.33
212.39	-83.32
212.608	230.51
212.826	249.44
213.044	673.58
213.262	-13368.18
213.48	441.16
213.698	859.3
213.916	-320.32
214.134	-171.72
214.352	-355.02
214.57	-270.75
214.788	-702.38
215.006	-1109.2
215.224	1992.03
215.442	-22.32
215.66	-6.04
215.878	249.85
216.096	41.85
216.314	38.48
216.532	36.29
216.75	19.49
216.968	36.63
217.185	69.03
217.403	64.73
217.621	72.13
217.839	42.14
218.057	9.41
218.275	-255.72
218.492	658.34
218.71	753.16
218.928	-4696.69
219.146	-503.07
219.363	-247.56
219.581	-152.94
219.799	-137.99
220.017	-195.26
220.234	-131.58
220.452	-86.37
220.67	-0.12
220.887	-99.96
221.105	-25.23
221.323	-215.07
221.54	-58.43
221.758	-245.66
221.976	418.43
222.193	251.74
222.411	170.47
222.629	-1829.34
222.846	-656.88
223.064	1665.79
223.281	-94.57
223.499	382.52
223.716	-33.91
223.934	76.82
224.151	382.55
224.369	83.28
224.586	76.19
224.804	58.85
225.021	47.66
225.239	9.34
225.456	35.87
225.674	41.12
225.891	30.88
226.108	23.49
226.326	15
226.543	10.31
226.76	9.93
226.978	8.57
227.195	5.38
227.413	-4.98
227.63	-2.75
227.847	3.67
228.064	5.95
228.282	12.01
228.499	11.69
228.716	12.63
228.934	13.36
229.151	9.79
229.368	9.59
229.585	9.07
229.802	14.08
230.02	15.28
230.237	16.46
230.454	13.96
230.671	14.24
230.888	13
231.105	13.18
231.323	15.86
231.54	18.39
231.757	18.78
231.974	17.16
232.191	13.1
232.408	16.33
232.625	10.66
232.842	17.26
233.059	10.85
233.276	15.16
233.493	18.47
233.71	13.36
233.927	8.52
234.144	8.13
234.361	8.78
234.578	9.68
234.795	2.96
235.012	8.18
235.229	2.94
235.446	2.5
235.663	3.27
235.879	-2.14
236.096	-7.63
236.313	-2.6
236.53	1.39
236.747	2.87
236.964	-0.36
237.181	5.76
237.397	2.61
237.614	1.52
237.831	5.05
238.048	2.73
238.264	3.67
238.481	8.53
238.698	9.3
238.915	9.56
239.131	14.91
239.348	14.21
239.565	17.77
239.781	15.48
239.998	19.92
240.215	15.58
240.431	15.72
240.648	15.45
240.865	15.2
241.081	15.37
241.298	15.55
241.514	11
241.731	11.66
241.947	10.92
242.164	11.16
242.38	10.12
242.597	10.59
242.814	11.48
243.03	11.76
243.246	10.68
243.463	10.12
243.679	9.52
243.896	9.45
244.112	9.5
244.329	8.95
244.545	10.08
244.762	9.52
244.978	10.22
245.194	9.28
245.411	7.74
245.627	8.92
245.843	8.91
246.06	7.88
246.276	9.02
246.492	9.05
246.709	7.58
246.925	7.98
247.141	8.4
247.357	8.37
247.574	8.01
247.79	8.27
248.006	8.63
248.222	9.57
248.439	9.84
248.655	9.86
248.871	9.9
249.087	10.98
249.303	10.46
249.519	10.49
249.736	10.12
249.952	10.28
250.168	10.78
250.384	9.14
250.6	6.78
250.816	5.52
251.032	5.81
251.248	4.82
251.464	2.97
251.68	3.99
251.896	4.27
252.112	5.83
252.328	6.44
252.544	7.5
252.76	9.39
252.976	10.62
253.192	12.27
253.408	11.02
253.624	11.24
253.84	12.22
254.056	12.47
254.272	12.09
254.487	9.21
254.703	12.68
254.919	13.4
255.135	10.67
255.351	9.14
255.567	6.51
255.782	7.01
255.998	6.33
256.214	5.6
256.43	4.41
256.646	4.26
256.861	6.98
257.077	6.73
257.293	3.96
257.508	6.57
257.724	6.05
257.94	6.69
258.155	7.31
258.371	6.84
258.587	7.12
258.802	5.94
259.018	5.33
259.234	5.49
259.449	5.14
259.665	5.69
259.88	5.49
260.096	6.04
260.312	6.34
260.527	6.49
260.743	6.3
260.958	6.76
261.174	7.57
261.389	8.17
261.605	7.25
261.82	5.79
262.036	6.2
262.251	7.19
262.466	7.46
262.682	6.7
262.897	7.08
263.113	8.93
263.328	7.26
263.543	7.16
263.759	7.24
263.974	9.75
264.189	12.62
264.405	11.85
264.62	8.56
264.835	7.31
265.051	9.92
265.266	7.09
265.481	5.92
265.696	8.17
265.912	7.3
266.127	7.38
266.342	5.6
266.557	4.16
266.773	5.32
266.988	6.25
267.203	6.39
267.418	6.18
267.633	6.73
267.848	6.92
268.064	5.55
268.279	5.9
268.494	6.98
268.709	6.84
268.924	7
269.139	6.79
269.354	6.79
269.569	6.83
269.784	5.84
269.999	5.71
270.214	6.28
270.429	7.09
270.644	7.22
270.859	6.23
271.074	7.25
271.289	7.04
271.504	7.15
271.719	7.67
271.934	7.49
272.149	8
272.363	9.33
272.578	9.85
272.793	9.93
273.008	10.14
273.223	11.38
273.438	11.41
273.653	11.66
273.867	9.98
274.082	8.89
274.297	9.32
274.512	8.51
274.726	7.49
274.941	6.27
275.156	5.6
275.371	5.52
275.585	3.5
275.8	2.6
276.015	3.72
276.229	5.54
276.444	7.92
276.659	8.43
276.873	9.74
277.088	9.44
277.302	9.98
277.517	10.75
277.732	10.62
277.946	11.26
278.161	11.5
278.375	10.91
278.59	10.86
278.804	7.97
279.019	7.09
279.233	5.6
279.448	6
279.662	5.84
279.877	5.02
280.091	5.72
280.306	4.29
280.52	4.46
280.735	3.62
280.949	3.79
281.163	4.61
281.378	5.44
281.592	4.73
281.806	4.84
282.021	4.27
282.235	2.82
282.449	1.74
282.664	4.25
282.878	2.54
283.092	4.09
283.307	3.83
283.521	4.13
283.735	3.32
283.949	3.45
284.164	4.15
284.378	2.93
284.592	3.48
284.806	3.58
285.02	3.1
285.234	5.62
285.449	5.78
285.663	5.08
285.877	5.06
286.091	5.32
286.305	6.48
286.519	5.8
286.733	6.63
286.947	8.28
287.161	8.65
287.375	7.33
287.589	6.66
287.803	5.24
288.017	7.03
288.231	6.98
288.445	7.09
288.659	6.51
288.873	5.68
289.087	6.56
289.301	6.07
289.515	5.93
289.729	5.83
289.943	5.69
290.157	6.64
290.371	5.33
290.584	6.08
290.798	6.24
291.012	6.11
291.226	6.04
291.44	6
291.654	4.26
291.867	4.64
292.081	5.81
292.295	7
292.509	6.45
292.722	7.06
292.936	5.38
293.15	3.74
293.364	3.17
293.577	5.08
293.791	3.5
294.005	4.52
294.218	4.72
294.432	3.9
294.645	3.16
294.859	4.06
295.073	4.02
295.286	6.37
295.5	6.69
295.713	7.2
295.927	6.6
296.14	7.83
296.354	8.79
296.568	8.54
296.781	9.28
296.994	9.29
297.208	8.47
297.421	8.8
297.635	8.28
297.848	8.95
298.062	8.41
298.275	8.89
298.489	9.31
298.702	8.85
298.915	8.28
299.129	7.75
299.342	8.13
299.555	7.54
299.769	7.41
299.982	8.12
300.195	7.34
300.409	7.19
300.622	5.98
300.835	4.55
301.048	5.2
301.262	5.75
301.475	6.37
301.688	6.05
301.901	7.98
302.115	8.49
302.328	7.06
302.541	6.76
302.754	7.35
302.967	7.35
303.18	8.75
303.393	7.67
303.607	6.67
303.82	7
304.033	5.16
304.246	5.02
304.459	4.37
304.672	3.45
304.885	5.26
305.098	6.65
305.311	7.76
305.524	8.31
305.737	8.66
305.95	10.26
306.163	9.51
306.376	10.46
306.589	9.45
306.802	10.02
307.015	10.04
307.228	8.93
307.44	8.24
307.653	7.86
307.866	7.08
308.079	7.61
308.292	8.23
308.505	9.53
308.718	9.62
308.93	10.37
309.143	9.84
309.356	10.53
309.569	9.81
309.781	9.7
309.994	9.76
310.207	9.61
310.42	8.96
310.632	8.13
310.845	6.75
311.058	6.99
311.27	7.56
311.483	7.02
311.696	6.78
311.908	5.77
312.121	5.3
312.333	5.63
312.546	5.41
312.759	5.43
312.971	4.96
313.184	4.43
313.396	3.86
313.609	2.6
313.821	3.54
314.034	3.81
314.246	6.12
314.459	7.74
314.671	7.5
314.884	9.08
315.096	8.62
315.309	9.26
315.521	9.67
315.733	10.42
315.946	10.5
316.158	10.69
316.371	11.18
316.583	11.57
316.795	11.05
317.008	9.68
317.22	7.53
317.432	7.25
317.644	7.31
317.857	8.07
318.069	7.97
318.281	7.65
318.494	7
318.706	8.41
318.918	8.63
319.13	8.58
319.342	11.17
319.555	11.6
319.767	11.6
319.979	10.12
320.191	11.66
320.403	11.06
320.615	11.24
320.827	11.73
321.039	9.33
321.252	7.78
321.464	8.42
321.676	8.41
321.888	10.65
322.1	11.48
322.312	12.96
322.524	11.12
322.736	11.89
322.948	13.17
323.16	13.43
323.372	15.22
323.584	16.24
323.796	14.13
324.007	13.54
324.219	11.97
324.431	12.44
324.643	11.86
324.855	12.89
325.067	12.7
325.279	12.53
325.491	10.79
325.702	10.43
325.914	11.75
326.126	13.22
326.338	11.8
326.55	12.77
326.761	12.81
326.973	13.89
327.185	14.45
327.396	15.97
327.608	16.13
327.82	18.91
328.032	18.8
328.243	18.48
328.455	18.46
328.666	20.2
328.878	19.93
329.09	20.46
329.301	19.87
329.513	18.56
329.725	18.38
329.936	18.9
330.148	18.24
330.359	19.95
330.571	19.73
330.782	21.05
330.994	21.85
331.205	23.79
331.417	24.33
331.628	25.37
331.84	25.25
332.051	25
332.262	25.23
332.474	24.32
332.685	23.49
332.897	23.13
333.108	22.17
333.319	21.21
333.531	19.7
333.742	19
333.953	19.06
334.165	21.53
334.376	22.53
334.587	22.31
334.799	23.71
335.01	22.96
335.221	23.59
335.432	23.32
335.644	23.59
335.855	24.18
336.066	24.77
336.277	25.44
336.488	24.47
336.7	24.01
336.911	23.58
337.122	22.86
337.333	23.93
337.544	24.45
337.755	24.71
337.966	25.3
338.177	25.36
338.388	25.98
338.599	26.31
338.811	26.72
339.022	26.75
339.233	27.01
339.444	27.56
339.655	27.3
339.866	27.62
340.076	28.65
340.287	29.1
340.498	28.8
340.709	27.72
340.92	27.01
341.131	26.85
341.342	26.87
341.553	27.17
341.764	27.45
341.975	27.09
342.185	26.9
342.396	26.81
342.607	26.28
342.818	26.68
343.029	27.47
343.239	27.65
343.45	27.99
343.661	27.52
343.872	26.9
344.082	26
344.293	26.02
344.504	24.87
344.714	24.21
344.925	24.2
345.136	24.39
345.346	24.3
345.557	24.06
345.768	22.93
345.978	23.45
346.189	23.91
346.399	25.03
346.61	24.88
346.821	26.23
347.031	26.07
347.242	25.78
347.452	25.55
347.663	24.83
347.873	24.63
348.084	24.81
348.294	24.94
348.504	25.02
348.715	24.08
348.925	23.87
349.136	23.07
349.346	23.97
349.557	24.48
349.767	24.93
349.977	25.48
350.188	26.16
350.398	26.88
350.608	26.97
350.819	27.24
351.029	26.62
351.239	27.17
351.449	26.97
351.66	27.01
351.87	26.62
352.08	25.59
352.29	25.66
352.501	24.96
352.711	24.84
352.921	23.77
353.131	24.35
353.341	24.09
353.552	24.41
353.762	25.16
353.972	24.68
354.182	24.62
354.392	25.29
354.602	24.56
354.812	23.43
355.022	23.67
355.232	23.82
355.442	22.28
355.652	23.29
355.862	22.57
356.072	22.08
356.282	22.15
356.492	21.82
356.702	21.17
356.912	21.91
357.122	23.13
357.332	23
357.542	22.9
357.752	23.99
357.962	23.33
358.171	24.2
358.381	24.14
358.591	23.34
358.801	23.6
359.011	23.94
359.221	24.05
359.43	24.04
359.64	24.35
359.85	24.46
360.06	23.5
360.269	24
360.479	23.46
360.689	23.01
360.899	23.85
361.108	23.94
361.318	23.82
361.528	23.38
361.737	22.34
361.947	21.77
362.156	22.46
362.366	23.04
362.576	22.83
362.785	22.99
362.995	23.46
363.204	22.87
363.414	23.38
363.623	23.48
363.833	23.61
364.042	24.32
364.252	24.32
364.461	22.93
364.671	22.45
364.88	22.77
365.09	22.21
365.299	22.16
365.509	22.73
365.718	21.93
365.927	21.85
366.137	21.46
366.346	21.84
366.555	22.32
366.765	23.14
366.974	22.82
367.183	22.35
367.393	22.42
367.602	22.02
367.811	21.46
368.021	21.04
368.23	21.1
368.439	21.14
368.648	20.64
368.857	20
369.067	20.36
369.276	21.07
369.485	20.85
369.694	20.69
369.903	21.46
370.112	21.76
370.321	21.96
370.531	21.76
370.74	22.1
370.949	22.2
371.158	22.77
371.367	22.31
371.576	21.75
371.785	21.81
371.994	22.02
372.203	20.93
372.412	20.38
372.621	20.89
372.83	20.34
373.039	20.19
373.248	19.49
373.457	18.92
373.666	18.61
373.874	18.65
374.083	18.69
374.292	19.12
374.501	19.5
374.71	20.13
374.919	19.64
375.128	20.4
375.336	19.68
375.545	20.29
375.754	20.14
375.963	20.29
376.171	20.08
376.38	20.56
376.589	20.09
376.798	20.4
377.006	20.11
377.215	19.95
377.424	19.35
377.632	20.12
377.841	20.16
378.05	20.46
378.258	20.89
378.467	20.78
378.675	19.87
378.884	19.84
379.093	19.85
379.301	20.28
379.51	20.24
379.718	20.41
379.927	20.45
380.135	20.86
380.344	20.41
380.552	20.07
380.761	20.32
380.969	21.23
381.177	21.15
381.386	20.81
381.594	20.47
381.803	20.43
382.011	19.99
382.219	19.35
382.428	18.82
382.636	19.59
382.845	18.73
383.053	18.87
383.261	18.41
383.469	18.58
383.678	18.79
383.886	18.56
384.094	18.54
384.302	19.02
384.511	18.92
384.719	18.57
384.927	18.61
385.135	18.99
385.343	18.79
385.552	18.82
385.76	19.01
385.968	18.57
386.176	18.6
386.384	18.81
386.592	18.5
386.8	18.93
387.008	19.11
387.216	18.46
387.424	18.93
387.633	18.83
387.841	18.46
388.049	17.86
388.257	17.69
388.465	17.92
388.672	17.5
388.88	17.58
389.088	17.28
389.296	17.21
389.504	16.88
389.712	16.53
389.92	16.57
390.128	16.93
390.336	17.29
390.544	17.41
390.751	17.38
390.959	17.41
391.167	17.32
391.375	17.36
391.583	17.41
391.79	17.48
391.998	17.44
392.206	17.64
392.414	17.78
392.621	17.67
392.829	18.13
393.037	17.88
393.244	18.3
393.452	18.36
393.66	18.23
393.867	18.28
394.075	18.65
394.283	18.51
394.49	18.26
394.698	17.86
394.905	18
395.113	17.63
395.32	17.48
395.528	17.3
395.735	17.32
395.943	17.38
396.15	17.33
396.358	17.49
396.565	17.42
396.773	17.16
396.98	17.23
397.188	16.92
397.395	17.26
397.602	17.51
397.81	17.42
398.017	17.22
398.225	17.34
398.432	17.44
398.639	17.2
398.847	17.3
399.054	17.6
399.261	17.49
399.468	17.74
399.676	17.72
399.883	17.57
400.09	17.62
400.297	17.92
400.505	18.08
400.712	17.93
400.919	17.71
401.126	18.14
401.333	18.37
401.54	18.73
401.748	18.68
401.955	18.64
402.162	18.96
402.369	19.04
402.576	19.27
402.783	19.23
402.99	19.57
403.197	19.84
403.404	19.7
403.611	19.71
403.818	19.82
404.025	19.8
404.232	19.8
404.439	19.7
404.646	19.85
404.853	19.73
405.06	20.03
405.267	19.92
405.474	19.82
405.681	19.69
405.887	19.7
406.094	19.47
406.301	19.51
406.508	19.73
406.715	20.21
406.922	20.15
407.128	20.19
407.335	20.12
407.542	20.02
407.749	20.2
407.955	20.47
408.162	20.59
408.369	20.81
408.575	21.26
408.782	21.19
408.989	20.85
409.195	21.12
409.402	21.3
409.609	21.08
409.815	21.14
410.022	21.39
410.228	21.28
410.435	21.15
410.642	21.5
410.848	21.31
411.055	21.19
411.261	21.45
411.468	21.34
411.674	21.36
411.881	21.72
412.087	22.16
412.294	21.95
412.5	21.9
412.706	22.23
412.913	22.24
413.119	22.51
413.326	22.73
413.532	22.91
413.738	22.89
413.945	22.89
414.151	22.86
414.357	22.59
414.564	22.86
414.77	23.04
414.976	22.89
415.182	22.65
415.389	22.46
415.595	22.65
415.801	22.27
416.007	22.45
416.214	22.45
416.42	22.47
416.626	22.74
416.832	22.87
417.038	23.09
417.244	23.31
417.45	23.59
417.657	23.71
417.863	23.61
418.069	23.89
418.275	23.93
418.481	24.18
418.687	24.18
418.893	24.32
419.099	24.44
419.305	24.35
419.511	24.41
419.717	24.36
419.923	24.43
420.129	24.6
420.335	24.79
420.541	24.75
420.746	24.73
420.952	24.95
421.158	24.78
421.364	24.65
421.57	24.72
421.776	24.64
421.982	24.78
422.187	25.01
422.393	25.03
422.599	24.99
422.805	24.95
423.01	25.06
423.216	25.1
423.422	25.29
423.628	25.38
423.833	25.47
424.039	25.69
424.245	25.65
424.45	25.58
424.656	25.58
424.862	25.61
425.067	25.93
425.273	25.9
425.478	25.84
425.684	25.8
425.889	25.79
426.095	25.82
426.301	25.78
426.506	25.93
426.712	25.91
426.917	26
427.123	25.9
427.328	25.79
427.533	26.08
427.739	25.98
427.944	26.18
428.15	26.4
428.355	26.44
428.561	26.56
428.766	26.4
428.971	26.36
429.177	26.33
429.382	26.65
429.587	26.72
429.793	26.39
429.998	26.59
430.203	26.52
430.408	26.44
430.614	26.65
430.819	26.46
431.024	26.53
431.229	26.52
431.434	26.56
431.64	26.28
431.845	26.27
432.05	26.57
432.255	26.71
432.46	26.85
432.665	26.79
432.87	26.82
433.076	26.73
433.281	26.64
433.486	26.82
433.691	26.78
433.896	26.96
434.101	27.12
434.306	27.06
434.511	27.05
434.716	27.04
434.921	27.34
435.126	27.3
435.331	27.6
435.535	27.84
435.74	27.77
435.945	28.02
436.15	27.89
436.355	27.69
436.56	27.61
436.765	27.58
436.97	27.67
437.174	27.6
437.379	27.67
437.584	27.65
437.789	27.65
437.993	27.83
438.198	27.74
438.403	28.01
438.608	28.13
438.812	28.07
439.017	28.08
439.222	28.03
439.426	27.91
439.631	27.79
439.836	27.79
440.04	27.85
440.245	27.94
440.45	28
440.654	27.86
440.859	27.7
441.063	27.79
441.268	27.76
441.472	27.7
441.677	27.77
441.881	27.87
442.086	27.92
442.29	27.85
442.495	27.45
442.699	27.34
442.904	27.24
443.108	27.47
443.312	27.64
443.517	27.67
443.721	27.73
443.925	27.75
444.13	27.82
444.334	27.73
444.538	27.62
444.743	27.82
444.947	27.85
445.151	27.93
445.356	27.82
445.56	27.7
445.764	27.83
445.968	27.8
446.173	27.79
446.377	27.61
446.581	27.69
446.785	27.73
446.989	27.67
447.193	27.65
447.398	27.67
447.602	27.83
447.806	27.82
448.01	27.51
448.214	27.67
448.418	27.52
448.622	27.55
448.826	27.5
449.03	27.53
449.234	27.63
449.438	27.61
449.642	27.52
449.846	27.44
450.05	27.28
450.254	27.41
450.458	27.17
450.662	27.41
450.866	27.28
451.069	27.27
451.273	27.19
451.477	27.1
451.681	26.92
451.885	26.94
452.089	26.83
452.292	27
452.496	27.08
452.7	27.11
452.904	27.31
453.107	27.45
453.311	27.51
453.515	27.49
453.719	27.77
453.922	28
454.126	28.22
454.33	28.19
454.533	28.1
454.737	28.17
454.94	28.05
455.144	27.68
455.348	27.79
455.551	27.88
455.755	27.95
455.958	27.72
456.162	27.49
456.365	27.32
456.569	27.31
456.772	27.39
456.976	27.26
457.179	27.45
457.383	27.5
457.586	27.47
457.79	27.32
457.993	27.36
458.196	27.38
458.4	27.64
458.603	27.71
458.807	27.67
459.01	27.59
459.213	27.66
459.417	27.62
459.62	27.6
459.823	27.53
460.026	27.62
460.23	27.5
460.433	27.5
460.636	27.52
460.839	27.38
461.042	27.48
461.246	27.5
461.449	27.58
461.652	27.59
461.855	27.67
462.058	27.76
462.261	27.7
462.464	27.91
462.668	28.02
462.871	28.03
463.074	28.21
463.277	28.27
463.48	28.47
463.683	28.4
463.886	28.39
464.089	28.58
464.292	28.55
464.495	28.69
464.698	28.7
464.901	28.73
465.104	28.77
465.306	28.67
465.509	28.64
465.712	28.57
465.915	28.64
466.118	28.78
466.321	28.75
466.524	28.74
466.726	28.63
466.929	28.72
467.132	28.78
467.335	28.74
467.538	28.93
467.74	28.83
467.943	28.78
468.146	28.9
468.348	28.73
468.551	28.59
468.754	28.81
468.956	28.83
469.159	28.93
469.362	28.76
469.564	28.75
469.767	28.58
469.969	28.87
470.172	29.09
470.375	29.07
470.577	29.19
470.78	29.17
470.982	29.16
471.185	29.05
471.387	29.15
471.59	29.38
471.792	29.29
471.995	29.61
472.197	29.51
472.399	29.28
472.602	29.26
472.804	29.31
473.007	29.43
473.209	29.29
473.411	29.37
473.614	29.4
473.816	29.23
474.018	29.4
474.22	29.45
474.423	29.44
474.625	29.68
474.827	29.83
475.03	29.9
475.232	29.96
475.434	30.15
475.636	30.04
475.838	30.01
476.04	29.9
476.243	29.96
476.445	29.91
476.647	29.96
476.849	29.93
477.051	29.88
477.253	29.7
477.455	29.71
477.657	29.69
477.859	29.84
478.061	29.83
478.263	30.01
478.465	29.97
478.667	29.82
478.869	29.91
479.071	29.95
479.273	30.05
479.475	30.13
479.677	30.22
479.879	30.05
480.081	30.01
480.283	30
480.485	30.04
480.686	30.09
480.888	30.15
481.09	30.03
481.292	29.98
481.494	29.87
481.695	29.97
481.897	29.98
482.099	30.25
482.301	30.35
482.502	30.26
482.704	30.28
482.906	30.22
483.107	30.27
483.309	30.26
483.511	30.3
483.712	30.36
483.914	30.28
484.115	30.29
484.317	30.29
484.519	30.27
484.72	30.3
484.922	30.31
485.123	30.37
485.325	30.34
485.526	30.43
485.728	30.45
485.929	30.44
486.131	30.55
486.332	30.54
486.534	30.53
486.735	30.6
486.936	30.64
487.138	30.66
487.339	30.67
487.541	30.76
487.742	30.69
487.943	30.66
488.144	30.64
488.346	30.63
488.547	30.63
488.748	30.65
488.95	30.62
489.151	30.62
489.352	30.55
489.553	30.64
489.755	30.58
489.956	30.67
490.157	30.76
490.358	30.86
490.559	30.93
490.76	31.06
490.961	31.05
491.163	31.14
491.364	31.28
491.565	31.47
491.766	31.5
491.967	31.62
492.168	31.66
492.369	31.68
492.57	31.79
492.771	31.9
492.972	31.98
493.173	32.13
493.374	32.12
493.575	32.18
493.776	32.09
493.976	32.1
494.177	32.14
494.378	32.24
494.579	32.37
494.78	32.38
494.981	32.52
495.182	32.55
495.382	32.67
495.583	32.92
495.784	33.04
495.985	33.15
496.185	33.13
496.386	33.18
496.587	33.23
496.788	33.28
496.988	33.34
497.189	33.32
497.39	33.45
497.59	33.57
497.791	33.75
497.992	33.82
498.192	34.06
498.393	34.19
498.593	34.26
498.794	34.38
498.994	34.46
499.195	34.48
499.395	34.52
499.596	34.5
499.796	34.69
499.997	34.67
500.197	34.6
500.398	34.73
500.598	34.86
500.799	35.04
500.999	35.17
501.199	35.39
501.4	35.65
501.6	35.93
501.801	36.11
502.001	36.05
502.201	36.24
502.402	36.69
502.602	36.67
502.802	36.85
503.002	36.84
503.203	37.03
503.403	37.16
503.603	37.06
503.803	37.12
504.003	37.31
504.204	37.42
504.404	37.66
504.604	37.53
504.804	37.66
505.004	37.9
505.204	38.27
505.404	38.34
505.604	38.47
505.804	38.83
506.005	39
506.205	39.19
506.405	39.34
506.605	39.26
506.805	39.6
507.005	39.87
507.204	40.09
507.404	40.15
507.604	40.27
507.804	40.3
508.004	40.47
508.204	40.6
508.404	40.56
508.604	40.87
508.804	41.04
509.003	41.02
509.203	41.01
509.403	41.05
509.603	41.24
509.803	41.35
510.002	41.48
510.202	41.51
510.402	41.55
510.602	41.7
510.801	41.61
511.001	41.69
511.201	41.92
511.4	42.03
511.6	42.1
511.8	42.32
511.999	42.49
512.199	42.8
512.398	43.1
512.598	43.29
512.797	43.5
512.997	43.55
513.197	43.68
513.396	43.6
513.596	43.96
513.795	44.13
513.994	44.01
514.194	44.26
514.393	44.39
514.593	44.41
514.792	44.66
514.992	44.78
515.191	45.09
515.39	45.12
515.59	45.36
515.789	45.41
515.988	45.61
516.188	45.72
516.387	45.74
516.586	45.73
516.786	45.87
516.985	45.86
517.184	46.09
517.383	46.22
517.582	46.46
517.782	46.55
517.981	46.61
518.18	46.67
518.379	46.92
518.578	46.93
518.777	47.08
518.976	47.14
519.176	47.28
519.375	47.24
519.574	47.26
519.773	47.33
519.972	47.39
520.171	47.53
520.37	47.55
520.569	47.52
520.768	47.75
520.967	47.92
521.166	48
521.365	48.04
521.564	48.16
521.762	48.29
521.961	48.35
522.16	48.48
522.359	48.52
522.558	48.69
522.757	48.8
522.956	48.79
523.154	48.75
523.353	48.87
523.552	48.98
523.751	49.2
523.949	49.22
524.148	49.44
524.347	49.44
524.546	49.54
524.744	49.67
524.943	49.81
525.142	49.9
525.34	49.96
525.539	50.02
525.737	50.06
525.936	49.91
526.135	50.05
526.333	50.02
526.532	50.14
526.73	50.2
526.929	50.08
527.127	50.14
527.326	50.19
527.524	50.31
527.723	50.38
527.921	50.44
528.12	50.64
528.318	50.72
528.516	50.72
528.715	50.83
528.913	50.94
529.112	51.06
529.31	51.04
529.508	51.02
529.707	51.01
529.905	51
530.103	51
530.301	50.99
530.5	50.99
530.698	51.05
530.896	50.94
531.094	50.85
531.293	50.93
531.491	50.97
531.689	51.07
531.887	51.17
532.085	51.29
532.283	51.44
532.481	51.44
532.68	51.53
532.878	51.67
533.076	51.81
533.274	51.84
533.472	51.85
533.67	51.95
533.868	52.05
534.066	52.08
534.264	52.06
534.462	52.06
534.66	52.08
534.858	52.05
535.056	52.02
535.253	52.08
535.451	52.22
535.649	52.18
535.847	52.16
536.045	52.2
536.243	52.22
536.441	52.31
536.638	52.46
536.836	52.53
537.034	52.64
537.232	52.64
537.43	52.54
537.627	52.52
537.825	52.59
538.023	52.55
538.22	52.5
538.418	52.64
538.616	52.62
538.813	52.52
539.011	52.5
539.209	52.49
539.406	52.53
539.604	52.65
539.801	52.6
539.999	52.7
540.196	52.96
540.394	53.02
540.591	52.93
540.789	52.95
540.986	52.99
541.184	53.15
541.381	53.1
541.579	53.26
541.776	53.35
541.974	53.38
542.171	53.35
542.368	53.29
542.566	53.38
542.763	53.52
542.96	53.59
543.158	53.53
543.355	53.47
543.552	53.6
543.75	53.49
543.947	53.55
544.144	53.56
544.341	53.69
544.539	53.64
544.736	53.51
544.933	53.39
545.13	53.41
545.327	53.37
545.524	53.24
545.722	53.08
545.919	53.24
546.116	53.09
546.313	53.14
546.51	53.02
546.707	53.14
546.904	53.15
547.101	53.1
547.298	53.05
547.495	53.37
547.692	53.58
547.889	53.64
548.086	53.52
548.283	53.64
548.48	53.65
548.677	53.78
548.874	53.68
549.07	53.91
549.267	54.02
549.464	54.21
549.661	53.95
549.858	54.13
550.055	54.25
550.251	54.36
550.448	54.26
550.645	54.24
550.842	54.19
551.038	54.37
551.235	54.39
551.432	54.46
551.628	54.23
551.825	54.46
552.022	54.32
552.218	54.31
552.415	54.27
552.612	54.56
552.808	54.53
553.005	54.63
553.201	54.51
553.398	54.55
553.594	54.39
553.791	54.65
553.987	54.58
554.184	54.72
554.38	54.74
554.577	54.96
554.773	54.77
554.97	54.87
555.166	54.7
555.362	54.87
555.559	55.07
555.755	55.18
555.952	55.11
556.148	55.23
556.344	55.13
556.541	55.24
556.737	55.11
556.933	55.23
557.129	55.27
557.326	55.39
557.522	55.27
557.718	54.88
557.914	55.02
558.11	55.07
558.307	55.04
558.503	55.06
558.699	54.99
558.895	55.1
559.091	55.07
559.287	55.12
559.483	55.09
559.679	55.49
559.876	55.7
560.072	55.59
560.268	55.58
560.464	55.52
560.66	55.37
560.856	55.55
561.052	55.51
561.247	55.35
561.443	55.08
561.639	55.08
561.835	54.97
562.031	54.83
562.227	54.69
562.423	54.61
562.619	54.46
562.815	54.7
563.01	54.71
563.206	54.47
563.402	54.72
563.598	54.84
563.793	54.7
563.989	54.73
564.185	54.59
564.381	54.85
564.576	54.96
564.772	55.15
564.968	54.88
565.163	54.7
565.359	54.87
565.555	54.85
565.75	55.02
565.946	55.13
566.141	55.11
566.337	55.28
566.532	55.32
566.728	55.34
566.923	55.52
567.119	55.61
567.314	55.57
567.51	55.43
567.705	55.38
567.901	55.44
568.096	55.71
568.292	55.55
568.487	55.51
568.682	55.52
568.878	55.56
569.073	55.51
569.268	55.84
569.464	55.82
569.659	56
569.854	55.99
570.05	56.01
570.245	55.78
570.44	56
570.635	56.14
570.831	56.14
571.026	56.07
571.221	56.02
571.416	55.9
571.611	56.14
571.806	56.29
572.002	56.41
572.197	56.33
572.392	56.42
572.587	56.3
572.782	56.02
572.977	56.03
573.172	56.09
573.367	55.88
573.562	55.83
573.757	55.96
573.952	55.93
574.147	55.77
574.342	55.78
574.537	55.65
574.732	55.76
574.927	55.89
575.121	55.77
575.316	55.73
575.511	55.86
575.706	55.93
575.901	55.58
576.096	55.56
576.29	55.77
576.485	55.7
576.68	55.79
576.875	55.86
577.069	55.84
577.264	55.91
577.459	56.08
577.654	56.16
577.848	56.1
578.043	56.46
578.238	56.29
578.432	56.25
578.627	56.44
578.821	56.21
579.016	56.02
579.21	56.08
579.405	56.31
579.6	56.26
579.794	56.37
579.989	56.18
580.183	56.22
580.378	56.33
580.572	56.16
580.766	56.17
580.961	56.44
581.155	56.5
581.35	56.63
581.544	56.28
581.738	55.97
581.933	55.92
582.127	56.1
582.321	55.61
582.516	55.48
582.71	55.43
582.904	55.27
583.099	55.47
583.293	55.47
583.487	55.33
583.681	55.73
583.875	55.83
584.07	55.83
584.264	55.92
584.458	55.97
584.652	56.17
584.846	56.18
585.04	56.21
585.234	55.96
585.428	55.89
585.623	55.95
585.817	55.74
586.011	55.75
586.205	55.79
586.399	55.71
586.593	55.72
586.787	55.55
586.981	55.54
587.174	55.63
587.368	55.72
587.562	55.85
587.756	55.81
587.95	55.81
588.144	55.86
588.338	55.78
588.532	55.76
588.725	55.76
588.919	55.89
589.113	55.95
589.307	56.06
589.501	56.17
589.694	56.12
589.888	56.09
590.082	55.98
590.275	55.92
590.469	55.85
590.663	55.84
590.856	55.68
591.05	55.8
591.244	55.9
591.437	55.95
591.631	55.85
591.824	55.66
592.018	55.88
592.212	55.95
592.405	56.27
592.599	56.2
592.792	56.27
592.986	56.52
593.179	56.51
593.372	56.31
593.566	56.01
593.759	55.88
593.953	55.88
594.146	55.81
594.339	55.83
594.533	55.83
594.726	55.94
594.92	55.78
595.113	55.8
595.306	55.69
595.499	55.72
595.693	55.93
595.886	56.08
596.079	55.95
596.272	56.08
596.466	56.11
596.659	55.87
596.852	55.73
597.045	55.76
597.238	55.67
597.431	55.6
597.624	55.58
597.818	55.33
598.011	55.43
598.204	55.58
598.397	55.39
598.59	55.42
598.783	55.42
598.976	55.57
599.169	55.76
599.362	55.95
599.555	56.03
599.748	55.85
599.941	56.05
600.134	55.92
600.326	56.13
600.519	56.01
600.712	55.74
600.905	55.58
601.098	55.57
601.291	54.97
601.483	54.7
601.676	54.66
601.869	54.86
602.062	54.81
602.255	54.51
602.447	54.49
602.64	54.48
602.833	54.5
603.025	54.35
603.218	54.37
603.411	54.71
603.603	54.73
603.796	54.73
603.989	54.68
604.181	54.66
604.374	54.71
604.566	54.36
604.759	54.47
604.951	54.53
605.144	54.63
605.336	54.45
605.529	54.4
605.721	54.28
605.914	54.2
606.106	54.09
606.299	54.05
606.491	54.06
606.683	54.24
606.876	54.28
607.068	53.92
607.26	54.03
607.453	53.74
607.645	53.65
607.837	53.74
608.03	53.6
608.222	53.63
608.414	53.57
608.606	53.28
608.799	53.21
608.991	53.07
609.183	53.04
609.375	52.89
609.567	53.09
609.759	53.06
609.952	52.95
610.144	52.88
610.336	52.96
610.528	52.67
610.72	52.74
610.912	52.7
611.104	52.58
611.296	52.79
611.488	52.69
611.68	52.65
611.872	52.52
612.064	52.53
612.256	52.4
612.448	52.1
612.64	52.21
612.832	52.12
613.023	52.22
613.215	52.14
613.407	51.76
613.599	51.78
613.791	51.79
613.983	51.74
614.174	51.66
614.366	51.81
614.558	51.93
614.75	52.06
614.941	52.13
615.133	51.73
615.325	52.01
615.516	52.2
615.708	51.88
615.9	51.92
616.091	51.73
616.283	51.78
616.475	51.62
616.666	51.07
616.858	50.79
617.049	50.58
617.241	50.54
617.432	50.33
617.624	50.35
617.815	50.58
618.007	50.24
618.198	50.45
618.39	50.17
618.581	50.32
618.773	50.88
618.964	50.91
619.155	51.04
619.347	51.17
619.538	50.99
619.729	50.88
619.921	50.69
620.112	50.78
620.303	50.58
620.494	50.48
620.686	50.39
620.877	50.36
621.068	50.28
621.259	50.45
621.451	50.34
621.642	50.31
621.833	50.13
622.024	50.15
622.215	50.04
622.406	50.03
622.597	50.15
622.788	49.94
622.98	49.73
623.171	49.66
623.362	49.28
623.553	49.34
623.744	49.38
623.935	49.38
624.126	49.64
624.317	49.81
624.508	49.65
624.698	49.6
624.889	49.6
625.08	49.46
625.271	49.18
625.462	49.18
625.653	49.06
625.844	49.1
626.034	49.05
626.225	49.07
626.416	48.88
626.607	49
626.798	48.8
626.988	49.06
627.179	49.16
627.37	49.85
627.56	49.72
627.751	49.58
627.942	49.35
628.132	49.8
628.323	49.62
628.514	49.56
628.704	49.44
628.895	49.53
629.085	49.18
629.276	49.06
629.466	48.42
629.657	48.44
629.847	48.4
630.038	48.25
630.228	47.8
630.419	47.74
630.609	47.75
630.8	47.72
630.99	47.72
631.181	47.57
631.371	47.4
631.561	47.73
631.752	47.82
631.942	48.21
632.132	48.36
632.323	48.36
632.513	48.36
632.703	48.3
632.893	48.24
633.084	48.26
633.274	48.16
633.464	48.05
633.654	47.88
633.844	47.62
634.034	47.32
634.225	47.44
634.415	46.99
634.605	46.83
634.795	46.59
634.985	46.59
635.175	46.56
635.365	46.66
635.555	46.6
635.745	46.49
635.935	46.37
636.125	46.07
636.315	46.07
636.505	46.3
636.695	45.98
636.885	46.2
637.075	45.74
637.265	45.82
637.455	45.97
637.644	46.3
637.834	45.82
638.024	45.94
638.214	46.32
638.404	45.95
638.593	45.71
638.783	46.19
638.973	45.99
639.163	46.37
639.352	45.94
639.542	45.82
639.732	45.5
639.921	46.16
640.111	46.09
640.301	45.77
640.49	45.65
640.68	45.95
640.87	45.71
641.059	45.68
641.249	45.91
641.438	46.27
641.628	46.24
641.817	46.11
642.007	45.61
642.196	45.93
642.386	46.01
642.575	45.85
642.764	45.52
642.954	45.29
643.143	45.71
643.333	45.14
643.522	44.56
643.711	44.44
643.901	44.51
644.09	44.47
644.279	44.6
644.469	44.52
644.658	45.03
644.847	45.05
645.036	45.41
645.226	45.24
645.415	45.36
645.604	45.75
645.793	45.4
645.982	45.51
646.171	45.71
646.361	45.28
646.55	45.35
646.739	44.89
646.928	45.25
647.117	44.88
647.306	44.66
647.495	44.54
647.684	44.12
647.873	44.16
648.062	44.15
648.251	44.03
648.44	43.88
648.629	44.09
648.818	43.99
649.007	43.81
649.196	43.78
649.384	44.01
649.573	44.48
649.762	44.94
649.951	44.89
650.14	44.77
650.328	44.75
650.517	44.64
650.706	44.19
650.895	44.27
651.083	44.14
651.272	44.02
651.461	43.37
651.65	43.18
651.838	42.74
652.027	42.83
652.216	42.6
652.404	42.48
652.593	42.76
652.781	42.38
652.97	42.74
653.158	42.8
653.347	43.23
653.535	43.59
653.724	43.31
653.912	43.59
654.101	43.81
654.289	44.22
654.478	44.03
654.666	43.46
654.855	43.64
655.043	43.03
655.231	42.95
655.42	42.63
655.608	42.76
655.796	42.83
655.985	42.88
656.173	42.73
656.361	42.19
656.55	42.63
656.738	42.75
656.926	42.99
657.114	43.42
657.302	43.19
657.491	42.93
657.679	42.57
657.867	42.05
658.055	41.82
658.243	41.74
658.431	41.94
658.619	42.07
658.807	42.1
658.996	42.09
659.184	41.86
659.372	42.24
659.56	42.49
659.748	42.66
659.936	43.01
660.124	43.18
660.311	43.17
660.499	43.24
660.687	42.76
660.875	42.93
661.063	42.95
661.251	42.74
661.439	42.51
661.627	42.67
661.814	42.34
662.002	42.23
662.19	41.77
662.378	42.22
662.565	41.78
662.753	41.5
662.941	41.21
663.129	41.03
663.316	41.23
663.504	41.19
663.692	40.72
663.879	41.05
664.067	41.15
664.254	41.31
664.442	40.5
664.63	40.99
664.817	41.13
665.005	41.31
665.192	41.44
665.38	41.89
665.567	41.38
665.755	41.14
665.942	40.87
666.13	40.85
666.317	41.05
666.504	41.22
666.692	41.11
666.879	41.37
667.067	41.16
667.254	41.44
667.441	41.21
667.629	41.23
667.816	41.34
668.003	41.11
668.19	40.98
668.378	40.9
668.565	40.9
668.752	40.69
668.939	40.54
669.127	40.06
669.314	39.64
669.501	39.17
669.688	39.43
669.875	39.97
670.062	40.32
670.249	40.37
670.436	40.47
670.623	40.9
670.81	41.01
670.997	41.37
671.184	42.2
671.371	42.44
671.558	43
671.745	43.09
671.932	42.77
672.119	42.77
672.306	42.71
672.493	42.78
672.68	42.47
672.867	42.76
673.054	42.34
673.24	42.22
673.427	42.19
673.614	41.89
673.801	41.67
673.988	41.67
674.174	41.79
674.361	41.55
674.548	41.08
674.734	41.21
674.921	40.85
675.108	40.74
675.294	40.5
675.481	40.4
675.668	40.14
675.854	40.11
676.041	39.47
676.227	39.63
676.414	40.02
676.601	40.03
676.787	39.92
676.974	40.23
677.16	40.38
677.347	40.44
677.533	40.55
677.719	40.8
677.906	40.49
678.092	41.09
678.279	40.72
678.465	40.91
678.651	41.19
678.838	41.24
679.024	40.65
679.21	40.64
679.397	40.24
679.583	40.03
679.769	40.15
679.955	40.75
680.142	40.77
680.328	40.64
680.514	40.09
680.7	39.85
680.886	39.73
681.073	39.94
681.259	40.04
681.445	40.46
681.631	40.37
681.817	40.06
682.003	39.76
682.189	39.87
682.375	39.87
682.561	40
682.747	40.05
682.933	39.97
683.119	39.97
683.305	39.5
683.491	39.55
683.677	39.57
683.863	39.47
684.049	39.33
684.235	38.94
684.42	39.26
684.606	38.86
684.792	38.67
684.978	38.66
685.164	38.7
685.349	38.68
685.535	38.38
685.721	38.78
685.907	38.89
686.092	39.08
686.278	38.89
686.464	38.55
686.649	39.19
686.835	39.45
687.021	39.27
687.206	39.5
687.392	39.64
687.577	39.83
687.763	39.57
687.948	40.13
688.134	40.01
688.319	40.24
688.505	40.38
688.69	40.19
688.876	40.26
689.061	40.35
689.247	39.98
689.432	40.12
689.618	39.47
689.803	39.07
689.988	38.63
690.174	38.56
690.359	38.09
690.544	37.94
690.73	38.05
690.915	37.92
691.1	37.96
691.285	37.68
691.471	37.2
691.656	37.76
691.841	37.69
692.026	37.69
692.211	37.74
692.396	37.97
692.582	37.8
692.767	37.4
692.952	37.18
693.137	37.04
693.322	37.5
693.507	37.83
693.692	37.63
693.877	37.44
694.062	36.99
694.247	37.15
694.432	37.33
694.617	37.54
694.802	38.17
694.987	38.3
695.172	38.32
695.357	38.31
695.541	38.34
695.726	38.33
695.911	39.16
696.096	39.69
696.281	39.39
696.466	39.51
696.65	39.99
696.835	39.63
697.02	39.34
697.204	39.23
697.389	38.94
697.574	39.26
697.759	39.41
697.943	39.04
698.128	38.59
698.312	38.72
698.497	38.58
698.682	38.45
698.866	38.55
699.051	38.83
699.235	38.84
699.42	38.64
699.604	38.2
699.789	37.77
699.973	38.13
700.158	38.38
700.342	38.44
700.527	38.51
700.711	38.29
700.895	38.15
701.08	38.04
701.264	37.98
701.448	38.64
701.633	39.07
701.817	39.5
702.001	39.39
702.186	39.11
702.37	39.09
702.554	39.17
702.738	39.85
702.923	39.77
703.107	39.97
703.291	40.04
703.475	39.67
703.659	39.03
703.843	39.26
704.027	39.52
704.212	39.5
704.396	39.69
704.58	39
704.764	38.34
704.948	38.6
705.132	38.15
705.316	38.96
705.5	39.23
705.684	40
705.868	40.23
706.052	39.43
706.235	40.07
706.419	39.6
706.603	39.59
706.787	38.86
706.971	37.99
707.155	37.95
707.339	37.16
707.522	37.5
707.706	37.11
707.89	37.47
708.074	36.78
708.257	36.86
708.441	36.76
708.625	37.2
708.808	38.15
708.992	39.17
709.176	39.57
709.359	39.36
709.543	38.48
709.727	38.54
709.91	38.16
710.094	39.03
710.277	38.46
710.461	38.33
710.644	38.47
710.828	37.79
711.011	37.59
711.195	37.62
711.378	38.03
711.562	38.41
711.745	38.97
711.928	38.99
712.112	38.81
712.295	38.95
712.478	39.29
712.662	38.87
712.845	39.29
713.028	39.24
713.212	39.34
713.395	39.5
713.578	39.32
713.761	38.12
713.945	38.05
714.128	38.29
714.311	38.17
714.494	38.34
714.677	38.48
714.86	38.08
715.043	37.93
715.227	37.53
715.41	37.46
715.593	37.53
715.776	38.81
715.959	38.62
716.142	38.09
716.325	37.84
716.508	38.01
716.691	37.67
716.874	37.46
717.057	37.23
717.239	37.26
717.422	36.7
717.605	36.84
717.788	36.53
717.971	35.98
718.154	36.5
718.337	36.65
718.519	35.63
718.702	36.37
718.885	36.59
719.068	37.23
719.25	37.36
719.433	37.76
719.616	37.19
719.798	36.24
719.981	37.21
720.164	37.25
720.346	37.45
720.529	37.46
720.712	37.06
720.894	37.32
721.077	36.92
721.259	36.5
721.442	36.73
721.624	36.95
721.807	37.41
721.989	36.68
722.172	37
722.354	36.49
722.537	36.58
722.719	36.61
722.901	36.63
723.084	36.07
723.266	35.11
723.448	34.92
723.631	34.79
723.813	33.96
723.995	34.07
724.178	33.46
724.36	33.33
724.542	34.01
724.724	34
724.907	34.75
725.089	35.53
725.271	36.14
725.453	36.02
725.635	36.45
725.817	36.73
725.999	36.85
726.181	37.11
726.364	37.82
726.546	36.94
726.728	36.56
726.91	35.71
727.092	35.28
727.274	35.63
727.456	35.62
727.638	35.29
727.819	35.3
728.001	34.5
728.183	35.1
728.365	34.63
728.547	35.4
728.729	35.89
728.911	35.42
729.093	35.27
729.274	34.93
729.456	34.74
729.638	34.72
729.82	35.34
730.001	36.49
730.183	35.29
730.365	35.47
730.546	35.11
730.728	35.16
730.91	35.27
731.091	35.31
731.273	35.71
731.455	36.05
731.636	35.87
731.818	35.09
731.999	34.51
732.181	35.1
732.362	35.25
732.544	36.04
732.725	35.48
732.907	35.4
733.088	35.06
733.27	34.94
733.451	34.12
733.633	34.57
733.814	35.34
733.995	35.65
734.177	35.72
734.358	36.52
734.539	35.71
734.721	35.03
734.902	35.72
735.083	36.26
735.264	36.86
735.446	37.09
735.627	35.83
735.808	35.35
735.989	34.74
736.17	34.49
736.351	33.62
736.533	34.46
736.714	36.2
736.895	34.86
737.076	34.24
737.257	33.28
737.438	33.03
737.619	34.2
737.8	34.68
737.981	34.67
738.162	34.79
738.343	34.41
738.524	33.96
738.705	33.4
738.886	34.43
739.067	34.39
739.247	35.14
739.428	34.54
739.609	35.2
739.79	35.4
739.971	35.58
740.151	34.32
740.332	34.14
740.513	33.12
740.694	32.72
740.874	33.4
741.055	34.65
741.236	34.36
741.417	35.6
741.597	34.1
741.778	34.3
741.958	34.69
742.139	34.94
742.32	35.15
742.5	36.04
742.681	35.98
742.861	35.37
743.042	34.84
743.222	35.11
743.403	34.53
743.583	34.05
743.764	33.24
743.944	31.79
744.124	31.7
744.305	32.71
744.485	32.92
744.666	32.82
744.846	32.79
745.026	32.95
745.207	33.39
745.387	34.15
745.567	36.13
745.747	35.57
745.928	36.62
746.108	37.8
746.288	38.44
746.468	38.83
746.648	39.5
746.829	39.21
747.009	39.68
747.189	38.38
747.369	38
747.549	37.15
747.729	38.41
747.909	38.42
748.089	38.16
748.269	36.57
748.449	35.82
748.629	35.43
748.809	35
748.989	34.43
749.169	34.15
749.349	34.13
749.529	34.15
749.709	33.56
749.889	33.62
750.068	32.98
750.248	34.51
750.428	33.85
750.608	32.96
750.788	33.57
750.967	32.71
751.147	33.21
751.327	32.65
751.507	31.89
751.686	31.73
751.866	30.37
752.046	30.17
752.225	28.92
752.405	30.19
752.585	31.17
752.764	31.34
752.944	31.81
753.123	31.43
753.303	31.48
753.482	32.08
753.662	32.49
753.841	34.52
754.021	35.12
754.2	35.36
754.38	34.6
754.559	35.23
754.739	34.89
754.918	35.79
755.097	35.64
755.277	35.83
755.456	35.28
755.635	34.26
755.815	34.49
755.994	34.2
756.173	33.96
756.352	33.58
756.532	33.18
756.711	32.13
756.89	31.82
757.069	33.7
757.248	34.26
757.427	34.31
757.607	34.38
757.786	33.79
757.965	34.21
758.144	34.81
758.323	35.97
758.502	35.92
758.681	36.65
758.86	35.63
759.039	35.13
759.218	34.59
759.397	33.82
759.576	34.23
759.755	33.84
759.934	34.27
760.113	32.93
760.291	32.54
760.47	32.25
760.649	33.41
760.828	34.07
761.007	33.57
761.186	33.49
761.364	34.4
761.543	34.32
761.722	34.27
761.901	34.03
762.079	35.24
762.258	34.77
762.437	34.53
762.615	33.37
762.794	32.89
762.972	32.7
763.151	33.52
763.33	34.43
763.508	35
763.687	35.14
763.865	34.3
764.044	34.26
764.222	34.22
764.401	34.12
764.579	34.65
764.758	34.67
764.936	35.11
765.114	34.73
765.293	33.65
765.471	33.33
765.65	32.91
765.828	33.61
766.006	33.38
766.184	33.81
766.363	33.52
766.541	33.45
766.719	33.38
766.898	33.55
767.076	33.25
767.254	33.31
767.432	33.07
767.61	32.88
767.788	33.8
767.967	33.18
768.145	33.41
768.323	34.23
768.501	34.58
768.679	36.01
768.857	36.05
769.035	36.78
769.213	37.88
769.391	37.83
769.569	38.69
769.747	37
769.925	38.13
770.103	36.9
770.281	36.66
770.459	35.47
770.636	35.29
770.814	34.72
770.992	33.79
771.17	33.55
771.348	33.38
771.525	32.23
771.703	32.85
771.881	31.58
772.059	32.92
772.236	33.06
772.414	33.39
772.592	32.06
772.769	31.75
772.947	32.66
773.125	31.59
773.302	32.18
773.48	32.67
773.657	33.02
773.835	33.54
774.013	31.73
774.19	31.41
774.368	32.07
774.545	33.3
774.723	33.48
774.9	33.34
775.077	34.54
775.255	34.05
775.432	33.69
775.61	32.33
775.787	33.28
775.964	35.95
776.142	35.85
776.319	35.38
776.496	34.35
776.674	33.28
776.851	33.37
777.028	33.54
777.205	33.66
777.382	34.54
777.56	35.17
777.737	34.11
777.914	32.97
778.091	32.54
778.268	33.79
778.445	34.58
778.622	35.69
778.8	35.78
778.977	35.67
779.154	29.78
779.331	28.42
779.508	28.34
779.685	27.89
779.862	28.37
780.038	29.08
780.215	26.89
780.392	28.15
780.569	29.04
780.746	29.68
780.923	29.69
781.1	35.89
781.277	36.9
781.453	36.52
781.63	37.83
781.807	38.03
781.984	38.9
782.16	38.96
782.337	36.97
782.514	35.55
782.691	32.57
782.867	33.3
783.044	32.84
783.221	33.72
783.397	35.53
783.574	34.05
783.75	32.21
783.927	30.51
784.103	30.76
784.28	30.59
784.456	30.41
784.633	33.42
784.809	32.44
784.986	32.4
785.162	33.01
785.339	32.25
785.515	32.24
785.692	32.71
785.868	33.84
786.044	35.01
786.221	36.41
786.397	36.64
786.573	34.77
786.749	32.59
786.926	32.37
787.102	31.51
787.278	31.57
787.454	32.47
787.631	32.61
787.807	31.13
787.983	30.4
788.159	29.14
788.335	27.97
788.511	28.33
788.687	30.13
788.863	29.79
789.039	30.81
789.216	30.29
789.392	31.12
789.568	30.16
789.744	29.94
789.919	31.29
790.095	32.5
790.271	33.4
790.447	33.59
790.623	31.04
790.799	30.82
790.975	29.98
791.151	29.68
791.327	30.17
791.502	30.82
791.678	32.16
791.854	29.49
792.03	28.18
792.205	29.22
792.381	30.87
792.557	35.2
792.733	35.35
792.908	31.93
793.084	33.16
793.259	31.04
793.435	31.57
793.611	30.28
793.786	33.79
793.962	35.43
794.137	34.65
794.313	31.66
794.488	30.81
794.664	31.81
794.839	35.78
795.015	35.53
795.19	36.32
795.366	35.48
795.541	37.5
795.716	36.2
795.892	35.21
796.067	34.68
796.242	36.24
796.418	35.45
796.593	33.9
796.768	31.93
796.944	32.07
797.119	31.32
797.294	31.83
797.469	29.48
797.644	29.09
797.82	27.89
797.995	30.23
798.17	27.91
798.345	27.29
798.52	28.57
798.695	28.75
798.87	29.37
799.045	30.42
799.22	29.7
799.395	31.08
799.57	29.71
799.745	31
799.92	29.71
800.095	30.4
800.27	33.27
800.445	34.74
800.62	35.81
800.795	34.43
800.97	34.13
801.145	33.75
801.319	34.7
801.494	36.1
801.669	35.57
801.844	34.6
802.018	36.9
802.193	36.27
802.368	37.15
802.543	37.15
802.717	37.06
802.892	36.55
803.067	35.53
803.241	35.19
803.416	33.15
803.59	32.89
803.765	32.19
803.94	33.35
804.114	32.41
804.289	31.01
804.463	30.69
804.638	31.79
804.812	30.82
804.986	33.16
805.161	31.33
805.335	33.91
805.51	33.65
805.684	38.18
805.858	37.42
806.033	34.95
806.207	35.12
806.381	35.3
806.556	33.87
806.73	33.65
806.904	34.06
807.078	35.85
807.253	34.29
807.427	34.42
807.601	31.13
807.775	29.8
807.949	33.69
808.123	32.26
808.298	32.8
808.472	35.47
808.646	36.51
808.82	36.4
808.994	35.37
809.168	35.62
809.342	36.43
809.516	36.93
809.69	35.38
809.864	33.58
810.038	35.48
810.212	33.75
810.385	32.23
810.559	32.22
810.733	32.02
810.907	32.65
811.081	32.15
811.255	31.04
811.428	28.97
811.602	29.41
811.776	27.47
811.95	26.46
812.123	27.09
812.297	26.75
812.471	27.02
812.644	27
812.818	26.02
812.992	24.94
813.165	23.27
813.339	23.11
813.512	22.49
813.686	25.69
813.86	27
814.033	27.75
814.207	32.11
814.38	33.86
814.554	32.01
814.727	31.23
814.9	34.38
815.074	35.19
815.247	34.63
815.421	34.84
815.594	37.01
815.767	35.17
815.941	34.85
816.114	30.65
816.287	29.44
816.46	31.57
816.634	35.41
816.807	35.45
816.98	39.05
817.153	39.18
817.327	39.34
817.5	36.02
817.673	37.21
817.846	39.02
818.019	41.18
818.192	37.46
818.365	36.4
818.538	34.45
818.711	34.11
818.884	31.51
819.057	31.02
819.23	32.81
819.403	34.44
819.576	32.03
819.749	30.52
819.922	26.79
820.095	30.5
820.268	33.19
820.441	32.83
820.614	30.77
820.786	30.07
820.959	30.43
821.132	29.84
821.305	28.54
821.477	28.79
821.65	27.76
821.823	28.82
821.996	27.73
822.168	26.53
822.341	25.95
822.514	25.95
822.686	26.2
822.859	26.37
823.031	26.57
823.204	26.48
823.376	26.3
823.549	27.11
823.722	27.68
823.894	27.95
824.067	28.56
824.239	29.35
824.411	29.92
824.584	30.23
824.756	30.64
824.929	30.37
825.101	31.14
825.273	32.19
825.446	31.94
825.618	30.73
825.79	31.34
825.963	30.51
826.135	30.04
826.307	30.08
826.479	29.45
826.652	30.05
826.824	29.95
826.996	29.47
827.168	28.51
827.34	28.01
827.512	27.74
827.684	28.37
827.856	29.36
828.029	29.41
828.201	29.03
828.373	29.62
828.545	28.47
828.717	29.88
828.889	30.08
829.061	30.59
829.232	30.35
829.404	31.47
829.576	29.75
829.748	29.78
829.92	30.48
830.092	32.32
830.264	33.81
830.436	33.32
830.607	32.43
830.779	31.71
830.951	30.94
831.123	31.62
831.294	33.14
831.466	34.32
831.638	35.03
831.809	34.05
831.981	31.74
832.153	28.63
832.324	26.42
832.496	26.28
832.667	26.09
832.839	26.62
833.011	25.78
833.182	24.79
833.354	24.14
833.525	22.97
833.697	24.69
833.868	25.57
834.039	25.19
834.211	26.17
834.382	24.98
834.554	23.41
834.725	23.05
834.896	24.56
835.068	23.73
835.239	24.15
835.41	23.7
835.581	22.08
835.753	21.46
835.924	21.82
836.095	25.52
836.266	28.51
836.438	32.4
836.609	33.29
836.78	33.84
836.951	36.86
837.122	37.77
837.293	37.28
837.464	37.49
837.635	38.63
837.806	38.67
837.977	36.93
838.148	36.38
838.319	36.66
838.49	36.74
838.661	35.09
838.832	35.72
839.003	32.85
839.174	33.03
839.345	35.13
839.516	31.02
839.687	33.11
839.857	32.38
840.028	25.19
840.199	22.12
840.37	24.32
840.54	25.77
840.711	23.12
840.882	24.44
841.053	25.53
841.223	28.76
841.394	31.22
841.564	32.33
841.735	35.04
841.906	42.33
842.076	40.02
842.247	36.53
842.417	37.03
842.588	33.81
842.758	36.74
842.929	38.59
843.099	33.69
843.27	33.69
843.44	34.42
843.611	25.42
843.781	15.92
843.951	25.97
844.122	31.85
844.292	34.25
844.462	37.9
844.633	38.31
844.803	34.97
844.973	31
845.144	29.45
845.314	22.66
845.484	29.99
845.654	35.23
845.824	29.72
845.995	27.1
846.165	25.86
846.335	23.48
846.505	19.52
846.675	23.46
846.845	22.22
847.015	25.15
847.185	29.78
847.355	26.81
847.525	26.96
847.695	22.97
847.865	27.83
848.035	25.97
848.205	23.51
848.375	27.27
848.545	25.53
848.715	26.96
848.884	32.09
849.054	29.81
849.224	27.4
849.394	21.3
849.564	21.9
849.733	14.97
849.903	20.11
850.073	29.82
850.243	21.62
850.412	23.37
850.582	26.54
850.752	18.15
850.921	26.31
851.091	28.13
851.26	28.97
851.43	29.81
851.599	33.58
851.769	27.35
851.939	22.33
852.108	21.79
852.278	7.29
852.447	12.64
852.616	16.27
852.786	3.09
852.955	1.39
853.125	8.84
853.294	14.47
853.463	15.9
853.633	26.82
853.802	25.86
853.971	32.93
854.141	34.46
854.31	21.95
854.479	16.9
854.648	22.85
854.818	31.8
854.987	21.47
855.156	32.85
855.325	21.94
855.494	16.99
855.663	21.57
855.832	19.98
856.001	35.85
856.171	44.92
856.34	54.21
856.509	57.25
856.678	48.93
856.847	54.43
857.016	41.83
857.185	44.09
857.353	44.75
857.522	42.07
857.691	46.29
857.86	35.22
858.029	33.01
858.198	16.02
858.367	17.04
858.535	18.84
858.704	10.83
858.873	5.08
859.042	26.69
859.21	36.64
859.379	28.14
859.548	18.21
859.717	21.16
859.885	12.36
860.054	27.99
860.222	18.93
860.391	12.57
860.56	22.93
860.728	29.43
860.897	18.43
861.065	16.96
861.234	17.04
861.402	20.71
861.571	27.31
861.739	29
861.908	35.86
862.076	33.89
862.244	32.66
862.413	32.72
862.581	31.93
862.749	33.25
862.918	23.69
863.086	27.04
863.254	24.8
863.423	27.42
863.591	29.7
863.759	23.07
863.927	24.58
864.096	34.25
864.264	29.14
864.432	33.52
864.6	30.39
864.768	33.76
864.936	32.04
865.104	33.44
865.272	35.15
865.44	43.24
865.608	41.05
865.776	38.86
865.944	34.66
866.112	34.65
866.28	32.26
866.448	38.58
866.616	42.12
866.784	39.47
866.952	40.8
867.12	24.39
867.288	2.77
867.455	5.71
867.623	10.86
867.791	14.18
867.959	20.71
868.127	7.55
868.294	11.38
868.462	-0.12
868.63	-5.28
868.797	-2.11
868.965	11.49
869.133	27.63
869.3	28.85
869.468	19.19
869.636	15.07
869.803	12.46
869.971	19.25
870.138	7.99
870.306	11.73
870.473	25.18
870.641	42.39
870.808	30.15
870.975	26.28
871.143	11.39
871.31	20.01
871.478	35.19
871.645	40.03
871.812	21.79
871.98	25.54
872.147	30.16
872.314	16.15
872.482	-2.87
872.649	-5.73
872.816	3.33
872.983	3.92
873.15	-0.67
873.318	-2.27
873.485	-19.03
873.652	10.16
873.819	18.51
873.986	27.23
874.153	30.5
874.32	43.54
874.487	45.97
874.654	52.5
874.821	52.05
874.988	49.64
875.155	49.12
875.322	53.16
875.489	49.34
875.656	40.93
875.823	26.48
875.99	33.46
876.157	21.83
876.324	23.76
876.49	16.97
876.657	25.57
876.824	35.98
876.991	33.99
877.157	19.97
877.324	10.57
877.491	7.23
877.658	-4.66
877.824	1.52
877.991	13.45
878.157	13.82
878.324	11.02
878.491	14.33
878.657	12.41
878.824	1.1
878.99	11.37
879.157	10.75
879.323	17.63
879.49	31.79
879.656	26.71
879.823	14.26
879.989	14.85
880.156	21.23
880.322	11.94
880.488	8.42
880.655	21.93
880.821	21.74
880.987	28.63
881.154	28.15
881.32	27.22
881.486	29.07
881.652	27.09
881.819	26.41
881.985	23.53
882.151	25.58
882.317	24.66
882.483	22.59
882.649	22.5
882.816	20.53
882.982	20.62
883.148	22.33
883.314	22.95
883.48	24.89
883.646	26.67
883.812	26.79
883.978	26.27
884.144	26.15
884.31	25.47
884.476	24.95
884.642	26.32
884.807	26.61
884.973	24.05
885.139	22.36
885.305	21.93
885.471	21.63
885.637	21.72
885.802	20.1
885.968	19.79
886.134	20.58
886.3	20.53
886.465	18.81
886.631	17.67
886.797	22.05
886.962	21.39
887.128	23.44
887.293	21.14
887.459	19.98
887.625	23.76
887.79	24.69
887.956	25.25
888.121	27.33
888.287	29.52
888.452	30.46
888.618	24.93
888.783	30.09
