Data from CB_106_Reflection_1.txt Node
Date: Sat Nov 14 18:02:10 EST 2015
User: robert
Spectrometer: USB4E03001
Autoset integration time: false
Trigger mode: 4
Integration Time (sec): 1.000000E-1
Scans to average: 15
Electric dark correction enabled: true
Nonlinearity correction enabled: false
Boxcar width: 5
Stray light correction enabled: false
XAxis mode: Wavelengths
Stop averaging: false
Number of Pixels in Spectrum: 3648
>>>>>Begin Spectral Data<<<<<
177.566	199.46
177.785	-697.04
178.005	467.53
178.225	564.19
178.445	-2311.58
178.665	240.78
178.885	-876.29
179.105	224.61
179.324	329.3
179.544	116.5
179.764	113.86
179.984	123.36
180.204	114.63
180.423	121.73
180.643	156.55
180.863	241.08
181.083	171.37
181.302	176.52
181.522	227.83
181.742	210.04
181.961	321.72
182.181	387.84
182.401	1062.24
182.621	760.23
182.84	1136.1
183.06	495.27
183.279	357.18
183.499	586.6
183.719	480.83
183.938	262.92
184.158	248.18
184.377	233.3
184.597	265.93
184.816	179.95
185.036	152.28
185.256	165.14
185.475	182.1
185.695	151.95
185.914	140.85
186.134	138.6
186.353	134.74
186.572	125.82
186.792	109.13
187.011	118.25
187.231	112.8
187.45	112.48
187.67	97.31
187.889	99.24
188.108	113.39
188.328	117.15
188.547	147.36
188.766	152.1
188.986	140.53
189.205	136.76
189.424	103.83
189.644	113.77
189.863	121.79
190.082	125.45
190.302	93.3
190.521	65.97
190.74	65.74
190.959	48.02
191.178	63.25
191.398	85.15
191.617	130.08
191.836	161.26
192.055	144.4
192.274	147.23
192.494	191.77
192.713	426.73
192.932	511.18
193.151	803.91
193.37	464.81
193.589	423.89
193.808	553.64
194.027	912.35
194.246	-2921.94
194.465	4156.54
194.685	401.59
194.904	345.26
195.123	195.84
195.342	223.69
195.561	148.9
195.78	136.92
195.999	135.77
196.218	109.73
196.436	109.27
196.655	89.06
196.874	116.63
197.093	107.87
197.312	116.16
197.531	114.87
197.75	115.09
197.969	115.43
198.188	126.16
198.407	119.34
198.625	145.54
198.844	166.61
199.063	155
199.282	152.17
199.501	184.28
199.719	174.24
199.938	154.33
200.157	125.61
200.376	157.33
200.594	148.68
200.813	188.16
201.032	155.57
201.251	154.83
201.469	172.37
201.688	154.22
201.907	154.05
202.125	174.77
202.344	259.37
202.563	296.42
202.781	285.63
203	377.28
203.218	348.85
203.437	290.93
203.656	298.03
203.874	236.81
204.093	298.11
204.311	241.39
204.53	266.71
204.748	187.29
204.967	209.12
205.185	224.44
205.404	185.94
205.622	143.35
205.841	171.78
206.059	162.79
206.278	142.33
206.496	119.21
206.715	140.63
206.933	105.15
207.151	112.24
207.37	103.9
207.588	90.42
207.806	90.37
208.025	104.31
208.243	103.04
208.461	123.85
208.68	143.59
208.898	152.4
209.116	135.32
209.335	141.49
209.553	175.79
209.771	185.58
209.989	176.4
210.208	172.82
210.426	162
210.644	149.96
210.862	128.32
211.081	126.03
211.299	111.85
211.517	130.6
211.735	147.81
211.953	128.58
212.171	126.62
212.39	114.48
212.608	120.25
212.826	131.82
213.044	122.23
213.262	119.6
213.48	132.16
213.698	131.37
213.916	133.92
214.134	109.44
214.352	110.54
214.57	103.92
214.788	140.84
215.006	142.01
215.224	148.47
215.442	214.32
215.66	198.18
215.878	225.55
216.096	275.7
216.314	244.22
216.532	269.46
216.75	261.22
216.968	304.15
217.185	284.49
217.403	332.41
217.621	469.02
217.839	319.1
218.057	405.77
218.275	328.45
218.492	337.25
218.71	367.08
218.928	374.97
219.146	517.16
219.363	312.61
219.581	341.68
219.799	402.19
220.017	306.74
220.234	318.87
220.452	363.11
220.67	382.8
220.887	613.2
221.105	761.22
221.323	11766.87
221.54	1070.23
221.758	7068.21
221.976	2622.09
222.193	451.49
222.411	593.48
222.629	1037.24
222.846	1235.38
223.064	-1143.5
223.281	1130.6
223.499	815.44
223.716	1518.69
223.934	-1107.99
224.151	-341.63
224.369	-281.57
224.586	-169.68
224.804	-124.75
225.021	-129.12
225.239	-124.49
225.456	-174.72
225.674	-188.38
225.891	-229.15
226.108	-312.07
226.326	-332.79
226.543	-243.92
226.76	-165.16
226.978	-129.67
227.195	-132.82
227.413	-111.04
227.63	-76.59
227.847	-52.4
228.064	-32.38
228.282	-22.62
228.499	-13.46
228.716	-8.49
228.934	-7.71
229.151	-5.36
229.368	-4.22
229.585	-3.04
229.802	-0.96
230.02	0.12
230.237	-1.13
230.454	1.46
230.671	3.15
230.888	1.65
231.105	-2.83
231.323	-7.55
231.54	-17.33
231.757	-22.12
231.974	-30.12
232.191	-31.92
232.408	-32.5
232.625	-33.91
232.842	-41.8
233.059	-46.18
233.276	-41.45
233.493	-40.18
233.71	-23.03
233.927	-9.89
234.144	-5.56
234.361	-8.25
234.578	-10.53
234.795	-13.42
235.012	-19.32
235.229	-22.47
235.446	-20.3
235.663	-25.47
235.879	-28.63
236.096	-39.39
236.313	-50.81
236.53	-49.99
236.747	-39.37
236.964	-43.43
237.181	-48.35
237.397	-46.66
237.614	-44.83
237.831	-50.61
238.048	-39.78
238.264	-43.99
238.481	-47.66
238.698	-31.43
238.915	-30.75
239.131	-29.93
239.348	-25.96
239.565	-18.68
239.781	-11.3
239.998	-8.28
240.215	-6.43
240.431	-13.55
240.648	-3.84
240.865	0.8
241.081	-2.29
241.298	-0.23
241.514	0.54
241.731	3.52
241.947	1.68
242.164	2.69
242.38	4.64
242.597	5.54
242.814	8.8
243.03	7.73
243.246	7.05
243.463	8.4
243.679	5.88
243.896	5.48
244.112	2.1
244.329	1.17
244.545	-1.22
244.762	-1.56
244.978	-0.6
245.194	-2.63
245.411	-3.84
245.627	-4.49
245.843	-6.25
246.06	-2.95
246.276	-1.44
246.492	1.74
246.709	2.48
246.925	3.38
247.141	3.48
247.357	4.35
247.574	4.84
247.79	5.52
248.006	6.36
248.222	6.74
248.439	6.28
248.655	4.74
248.871	3.44
249.087	4.97
249.303	4.1
249.519	3.6
249.736	0.2
249.952	0.06
250.168	1.53
250.384	-0.34
250.6	-1.14
250.816	-2.57
251.032	-0.09
251.248	0.34
251.464	-4.39
251.68	-3.36
251.896	-3.19
252.112	-3.66
252.328	-5.82
252.544	-7.9
252.76	-7.63
252.976	-8.01
253.192	-5.14
253.408	-6.22
253.624	-7.46
253.84	-6.83
254.056	-7.1
254.272	-10.84
254.487	-8.52
254.703	-6.73
254.919	-10.71
255.135	-11.61
255.351	-15.9
255.567	-15.43
255.782	-13.2
255.998	-10.37
256.214	-11.68
256.43	-5.55
256.646	-3.58
256.861	-1.47
257.077	-2.54
257.293	-1.43
257.508	1.76
257.724	4.08
257.94	4.78
258.155	3.73
258.371	2.15
258.587	2.58
258.802	0.74
259.018	1.66
259.234	1.68
259.449	2.73
259.665	3.49
259.88	3.52
260.096	3.86
260.312	3.08
260.527	3.7
260.743	4.53
260.958	4.74
261.174	4.6
261.389	4.49
261.605	4.27
261.82	3.24
262.036	1.94
262.251	-0.18
262.466	-1.42
262.682	-1.64
262.897	-4.66
263.113	-6.68
263.328	-7.11
263.543	-8.37
263.759	-11.11
263.974	-12.38
264.189	-13.92
264.405	-14.7
264.62	-13.68
264.835	-13.44
265.051	-13.94
265.266	-12.75
265.481	-11.29
265.696	-10.32
265.912	-7.46
266.127	-5.39
266.342	-3.17
266.557	-1.21
266.773	-0.7
266.988	-0.74
267.203	0.01
267.418	0.69
267.633	3.26
267.848	1.68
268.064	2.13
268.279	0.58
268.494	-0.33
268.709	-0.89
268.924	-0.3
269.139	-0.66
269.354	0.31
269.569	0.61
269.784	-1.12
269.999	-3.76
270.214	-1.42
270.429	-3.75
270.644	-2.97
270.859	-0.56
271.074	-1.03
271.289	-1.99
271.504	1.02
271.719	1.33
271.934	0.68
272.149	2.85
272.363	3.83
272.578	3.9
272.793	4.98
273.008	3.93
273.223	3.54
273.438	2.92
273.653	3.63
273.867	1.13
274.082	1.19
274.297	2.12
274.512	0.28
274.726	-1.21
274.941	-1.62
275.156	0.2
275.371	2.09
275.585	1.29
275.8	2.46
276.015	2.05
276.229	3.98
276.444	1.24
276.659	0.07
276.873	1.73
277.088	3.54
277.302	2.9
277.517	1.4
277.732	0.28
277.946	-0.12
278.161	-0.83
278.375	-0.65
278.59	-1.56
278.804	0.27
279.019	-0.16
279.233	-1.7
279.448	-2.54
279.662	-3.39
279.877	-3.58
280.091	-2.47
280.306	-2.88
280.52	-2.56
280.735	-2.28
280.949	-2.6
281.163	-1.93
281.378	-0.51
281.592	0.62
281.806	0.61
282.021	1.45
282.235	2.47
282.449	1.73
282.664	3.03
282.878	2.72
283.092	2.51
283.307	2.26
283.521	2.2
283.735	1.66
283.949	1.73
284.164	1.75
284.378	2.25
284.592	1.74
284.806	2.46
285.02	2.68
285.234	3.69
285.449	4.23
285.663	5.69
285.877	4.87
286.091	4.86
286.305	4.09
286.519	4.76
286.733	4.41
286.947	4.79
287.161	4.61
287.375	3.73
287.589	4.17
287.803	4.24
288.017	3.75
288.231	4.49
288.445	6.08
288.659	6.14
288.873	5.91
289.087	5.24
289.301	4.72
289.515	5.12
289.729	5.32
289.943	3.94
290.157	2.91
290.371	2.86
290.584	3.64
290.798	1.75
291.012	2.49
291.226	1.9
291.44	1.73
291.654	1.54
291.867	1.62
292.081	1.98
292.295	2.27
292.509	1.77
292.722	1.59
292.936	1.7
293.15	4.08
293.364	4.54
293.577	4.64
293.791	6.58
294.005	6.37
294.218	5.52
294.432	4.58
294.645	4.21
294.859	5.86
295.073	5.69
295.286	4.59
295.5	4.45
295.713	4.33
295.927	4.83
296.14	5.8
296.354	5.97
296.568	6.01
296.781	7.66
296.994	8.64
297.208	7.55
297.421	8.35
297.635	8.29
297.848	7.93
298.062	8.16
298.275	8.86
298.489	7.4
298.702	7.9
298.915	8.48
299.129	7.91
299.342	8.4
299.555	8.93
299.769	9.19
299.982	9.57
300.195	9.15
300.409	9.83
300.622	8.32
300.835	8.79
301.048	8.6
301.262	9.01
301.475	8.12
301.688	6.15
301.901	7.36
302.115	6.99
302.328	7.21
302.541	7.38
302.754	6.79
302.967	7.57
303.18	7.5
303.393	8.39
303.607	8.36
303.82	9.37
304.033	10.74
304.246	9.99
304.459	9.88
304.672	10.51
304.885	11.95
305.098	11.4
305.311	12.04
305.524	12.01
305.737	10.66
305.95	10.71
306.163	9.94
306.376	9.67
306.589	10.55
306.802	9.55
307.015	8.64
307.228	8.33
307.44	9.67
307.653	10.23
307.866	10.83
308.079	11.06
308.292	11.11
308.505	11.96
308.718	11.71
308.93	12.03
309.143	12.55
309.356	13.25
309.569	12.65
309.781	12.71
309.994	12.12
310.207	11.75
310.42	12.18
310.632	12.75
310.845	12.32
311.058	13.34
311.27	13.54
311.483	14.58
311.696	15.04
311.908	15.55
312.121	14.68
312.333	15.1
312.546	15.61
312.759	16.01
312.971	15.32
313.184	15.52
313.396	14.38
313.609	13.55
313.821	13.55
314.034	11.42
314.246	10.41
314.459	11.88
314.671	10.66
314.884	10.21
315.096	10.27
315.309	9.73
315.521	9.7
315.733	9.56
315.946	8.93
316.158	8.7
316.371	10.48
316.583	10.31
316.795	8.64
317.008	11.02
317.22	11.51
317.432	11.47
317.644	10.62
317.857	11.63
318.069	13.62
318.281	14.01
318.494	12.68
318.706	11.65
318.918	12.07
319.13	13.4
319.342	12.18
319.555	12
319.767	12.27
319.979	13.57
320.191	13.82
320.403	12.07
320.615	12.75
320.827	12.3
321.039	13.2
321.252	14.12
321.464	13.94
321.676	13.02
321.888	13.7
322.1	13.24
322.312	14.28
322.524	13.04
322.736	14.26
322.948	14.66
323.16	15.65
323.372	15.57
323.584	14.92
323.796	14.63
324.007	15.34
324.219	16.01
324.431	16.27
324.643	15.4
324.855	16.71
325.067	16.35
325.279	15
325.491	16.22
325.702	15.98
325.914	16.07
326.126	16.63
326.338	18.29
326.55	19.08
326.761	19.44
326.973	20.36
327.185	20.39
327.396	20.72
327.608	21.72
327.82	20.93
328.032	22.07
328.243	22.36
328.455	23.89
328.666	23.11
328.878	22.82
329.09	22.91
329.301	23.11
329.513	22.58
329.725	22.09
329.936	22.83
330.148	22.68
330.359	21.66
330.571	22.89
330.782	21.97
330.994	21.65
331.205	20.78
331.417	20.61
331.628	19.85
331.84	20.84
332.051	21.37
332.262	21.6
332.474	21.89
332.685	22.85
332.897	22.21
333.108	22.25
333.319	22.35
333.531	21.61
333.742	22.25
333.953	23.45
334.165	22.74
334.376	23.52
334.587	24.42
334.799	25.45
335.01	25.88
335.221	27.03
335.432	28.12
335.644	29.23
335.855	30.66
336.066	31.18
336.277	31.1
336.488	31.48
336.7	30.53
336.911	30.3
337.122	29.79
337.333	30.58
337.544	30.32
337.755	29.13
337.966	28.92
338.177	29.02
338.388	28.55
338.599	28.23
338.811	27.81
339.022	29.22
339.233	28.34
339.444	27.3
339.655	26.31
339.866	25.76
340.076	26.32
340.287	25.58
340.498	25.5
340.709	25.74
340.92	25.84
341.131	26.19
341.342	25.8
341.553	25.19
341.764	26.24
341.975	26.14
342.185	26.25
342.396	26.09
342.607	26.13
342.818	25.93
343.029	25.54
343.239	25.8
343.45	26
343.661	25.69
343.872	26.55
344.082	27.02
344.293	27.41
344.504	27.52
344.714	27.55
344.925	27.86
345.136	28.17
345.346	27.81
345.557	27.42
345.768	27.61
345.978	27.01
346.189	27.37
346.399	27.06
346.61	26.56
346.821	26.68
347.031	26.63
347.242	26.45
347.452	26.12
347.663	26.05
347.873	25.67
348.084	25.98
348.294	26.93
348.504	26.37
348.715	26.07
348.925	26.74
349.136	26.55
349.346	26.38
349.557	27.21
349.767	26.64
349.977	27.71
350.188	27.59
350.398	27.3
350.608	27.39
350.819	27.98
351.029	27.94
351.239	27.63
351.449	27.51
351.66	27.53
351.87	26.91
352.08	27.14
352.29	27.1
352.501	27.85
352.711	28.1
352.921	27.34
353.131	26.07
353.341	26.08
353.552	25.54
353.762	25.74
353.972	25.34
354.182	24.44
354.392	24.45
354.602	23.49
354.812	23.48
355.022	23.12
355.232	24
355.442	24.69
355.652	24.64
355.862	24.49
356.072	23.82
356.282	24.58
356.492	25.53
356.702	26.12
356.912	26.39
357.122	25.8
357.332	25.53
357.542	24.72
357.752	24.58
357.962	25.25
358.171	25.92
358.381	26.95
358.591	26.49
358.801	25.99
359.011	25.61
359.221	26.24
359.43	26.63
359.64	26.58
359.85	27.22
360.06	27.08
360.269	26.59
360.479	26.81
360.689	26.45
360.899	27
361.108	27.51
361.318	27.33
361.528	26.98
361.737	27.59
361.947	27.63
362.156	27.55
362.366	27.86
362.576	27.65
362.785	27.53
362.995	27.64
363.204	27.01
363.414	26.72
363.623	26.91
363.833	26.62
364.042	26.06
364.252	26.39
364.461	26.31
364.671	26.1
364.88	26.38
365.09	26.09
365.299	25.19
365.509	25.66
365.718	25.39
365.927	24.8
366.137	24.64
366.346	24.36
366.555	24.21
366.765	23.7
366.974	23.53
367.183	22.57
367.393	22.94
367.602	23.55
367.811	23.35
368.021	23.4
368.23	23.71
368.439	24.07
368.648	24.8
368.857	24.02
369.067	24
369.276	23.85
369.485	24.1
369.694	23.62
369.903	23.15
370.112	22.7
370.321	23.27
370.531	23.2
370.74	23.26
370.949	22.72
371.158	23.34
371.367	23.36
371.576	22.96
371.785	23.62
371.994	23.76
372.203	24.08
372.412	24.07
372.621	23.58
372.83	23.65
373.039	23.36
373.248	23.44
373.457	23.08
373.666	23.32
373.874	23.2
374.083	22.69
374.292	22.47
374.501	22.57
374.71	21.69
374.919	21.5
375.128	21.48
375.336	22.03
375.545	21.85
375.754	21.4
375.963	21.39
376.171	22.12
376.38	22.22
376.589	21.76
376.798	21.3
377.006	21.93
377.215	21.35
377.424	21.13
377.632	20.71
377.841	20.59
378.05	20.35
378.258	20.1
378.467	19.47
378.675	19.35
378.884	18.76
379.093	19.1
379.301	19.11
379.51	19.77
379.718	19.41
379.927	19.38
380.135	19.98
380.344	20.93
380.552	20.38
380.761	20.49
380.969	20.69
381.177	21.43
381.386	20.71
381.594	21.1
381.803	20.74
382.011	20.68
382.219	20.82
382.428	20.02
382.636	19.47
382.845	19.66
383.053	19.98
383.261	19.58
383.469	19.15
383.678	19.18
383.886	19.05
384.094	19
384.302	18.68
384.511	18.38
384.719	18.37
384.927	18.38
385.135	18.53
385.343	18.22
385.552	17.81
385.76	17.8
385.968	17.92
386.176	17.47
386.384	17.46
386.592	17.7
386.8	17.26
387.008	17.27
387.216	17.13
387.424	16.46
387.633	16.19
387.841	16.5
388.049	16.85
388.257	16.57
388.465	16.09
388.672	15.77
388.88	15.9
389.088	16.17
389.296	15.79
389.504	15.34
389.712	15.79
389.92	15.74
390.128	15.77
390.336	15.39
390.544	15.61
390.751	15.75
390.959	15.66
391.167	15.6
391.375	15.74
391.583	15.7
391.79	15.88
391.998	15.8
392.206	15.8
392.414	15.44
392.621	15.05
392.829	14.99
393.037	15.27
393.244	15.45
393.452	15.39
393.66	15.18
393.867	15.08
394.075	15.39
394.283	15.32
394.49	15.38
394.698	15.62
394.905	15.9
395.113	15.76
395.32	15.7
395.528	15.42
395.735	15.28
395.943	15.28
396.15	15.37
396.358	14.98
396.565	15.02
396.773	15.17
396.98	14.91
397.188	15.13
397.395	15.24
397.602	14.96
397.81	15.28
398.017	15.2
398.225	15.1
398.432	14.72
398.639	14.94
398.847	14.88
399.054	14.66
399.261	14.69
399.468	14.54
399.676	14.45
399.883	14.42
400.09	14.32
400.297	14.18
400.505	13.78
400.712	14.01
400.919	13.88
401.126	13.64
401.333	13.79
401.54	14.09
401.748	14.12
401.955	14
402.162	14.31
402.369	14.15
402.576	14.27
402.783	14.71
402.99	14.83
403.197	14.71
403.404	14.63
403.611	14.32
403.818	14.11
404.025	14.14
404.232	13.93
404.439	13.75
404.646	13.79
404.853	13.87
405.06	13.75
405.267	13.81
405.474	13.75
405.681	13.75
405.887	13.92
406.094	13.78
406.301	13.65
406.508	14
406.715	13.8
406.922	13.73
407.128	13.72
407.335	13.67
407.542	13.63
407.749	13.82
407.955	13.77
408.162	13.88
408.369	13.86
408.575	13.65
408.782	13.47
408.989	13.61
409.195	13.69
409.402	13.65
409.609	13.53
409.815	13.36
410.022	13.29
410.228	13.5
410.435	13.27
410.642	13.57
410.848	13.62
411.055	13.59
411.261	13.41
411.468	13.23
411.674	13.17
411.881	13.16
412.087	13.08
412.294	13.13
412.5	13.32
412.706	13.25
412.913	12.8
413.119	12.92
413.326	12.84
413.532	13.18
413.738	13.34
413.945	13.55
414.151	13.82
414.357	14.14
414.564	14
414.77	13.75
414.976	13.8
415.182	14.04
415.389	13.96
415.595	14.04
415.801	13.9
416.007	13.84
416.214	13.77
416.42	13.68
416.626	13.54
416.832	13.61
417.038	13.92
417.244	14.07
417.45	14.17
417.657	14.24
417.863	14.36
418.069	14.43
418.275	14.29
418.481	14.4
418.687	14.45
418.893	14.57
419.099	14.48
419.305	14.31
419.511	14.29
419.717	14.24
419.923	14.2
420.129	14.12
420.335	14.09
420.541	14.26
420.746	14.17
420.952	14.09
421.158	14.16
421.364	14.09
421.57	14.02
421.776	13.91
421.982	13.79
422.187	13.84
422.393	13.93
422.599	13.84
422.805	13.92
423.01	13.99
423.216	14.09
423.422	13.96
423.628	14.01
423.833	14.11
424.039	14.13
424.245	14.25
424.45	14.33
424.656	14.31
424.862	14.37
425.067	14.27
425.273	14.15
425.478	14.17
425.684	14.11
425.889	14.07
426.095	14.13
426.301	14.02
426.506	14.02
426.712	13.93
426.917	14.01
427.123	13.85
427.328	13.83
427.533	13.95
427.739	13.9
427.944	13.95
428.15	13.95
428.355	13.66
428.561	13.8
428.766	13.85
428.971	13.76
429.177	13.55
429.382	13.58
429.587	13.55
429.793	13.49
429.998	13.51
430.203	13.48
430.408	13.85
430.614	13.73
430.819	13.71
431.024	13.67
431.229	13.65
431.434	13.54
431.64	13.69
431.845	13.71
432.05	13.75
432.255	13.6
432.46	13.59
432.665	13.34
432.87	13.54
433.076	13.76
433.281	13.73
433.486	13.73
433.691	13.81
433.896	13.75
434.101	13.64
434.306	13.44
434.511	13.28
434.716	13.29
434.921	13.34
435.126	13.41
435.331	13.27
435.535	13.25
435.74	13.25
435.945	13.41
436.15	13.34
436.355	13.36
436.56	13.49
436.765	13.65
436.97	13.66
437.174	13.65
437.379	13.79
437.584	13.81
437.789	13.75
437.993	13.87
438.198	13.58
438.403	13.9
438.608	13.97
438.812	13.96
439.017	13.92
439.222	14.13
439.426	14.1
439.631	13.93
439.836	13.83
440.04	13.99
440.245	13.94
440.45	14.07
440.654	13.93
440.859	13.92
441.063	13.92
441.268	13.94
441.472	13.77
441.677	13.94
441.881	13.92
442.086	13.9
442.29	13.73
442.495	13.79
442.699	13.83
442.904	13.84
443.108	13.88
443.312	13.88
443.517	13.87
443.721	13.78
443.925	13.67
444.13	13.76
444.334	13.9
444.538	14.11
444.743	13.96
444.947	14
445.151	13.9
445.356	14.06
445.56	14.12
445.764	14.29
445.968	14.27
446.173	14.26
446.377	14.25
446.581	14.23
446.785	14.07
446.989	14.2
447.193	14.19
447.398	14.33
447.602	14.17
447.806	14.14
448.01	14.04
448.214	14.18
448.418	14.02
448.622	13.91
448.826	13.87
449.03	13.88
449.234	13.75
449.438	13.62
449.642	13.43
449.846	13.25
450.05	13.18
450.254	13.14
450.458	13.02
450.662	13.3
450.866	13.37
451.069	13.4
451.273	13.35
451.477	13.41
451.681	13.35
451.885	13.61
452.089	13.7
452.292	13.85
452.496	13.86
452.7	13.86
452.904	13.7
453.107	13.64
453.311	13.78
453.515	13.92
453.719	13.8
453.922	13.81
454.126	13.64
454.33	13.74
454.533	13.62
454.737	13.48
454.94	13.46
455.144	13.58
455.348	13.78
455.551	13.52
455.755	13.48
455.958	13.5
456.162	13.51
456.365	13.55
456.569	13.57
456.772	13.66
456.976	13.75
457.179	13.71
457.383	13.58
457.586	13.48
457.79	13.6
457.993	13.68
458.196	13.69
458.4	13.72
458.603	13.69
458.807	13.68
459.01	13.65
459.213	13.68
459.417	13.81
459.62	13.89
459.823	13.83
460.026	13.81
460.23	13.72
460.433	13.73
460.636	13.95
460.839	13.97
461.042	13.94
461.246	13.99
461.449	13.9
461.652	13.8
461.855	13.82
462.058	13.72
462.261	13.75
462.464	13.79
462.668	13.8
462.871	13.69
463.074	13.63
463.277	13.74
463.48	13.7
463.683	13.85
463.886	14.02
464.089	13.81
464.292	13.86
464.495	13.78
464.698	13.82
464.901	13.91
465.104	13.74
465.306	13.7
465.509	13.44
465.712	13.4
465.915	13.38
466.118	13.17
466.321	13.23
466.524	13.3
466.726	13.34
466.929	13.16
467.132	13.02
467.335	12.91
467.538	13.02
467.74	13.05
467.943	13.01
468.146	13.05
468.348	13.31
468.551	13.32
468.754	13.4
468.956	13.44
469.159	13.48
469.362	13.75
469.564	13.91
469.767	13.82
469.969	14.15
470.172	14.15
470.375	14.06
470.577	13.83
470.78	13.73
470.982	13.85
471.185	13.85
471.387	13.96
471.59	13.72
471.792	13.65
471.995	13.63
472.197	13.33
472.399	13.19
472.602	13.14
472.804	13.24
473.007	13.34
473.209	13.4
473.411	13.26
473.614	13.12
473.816	13.1
474.018	13.15
474.22	13.15
474.423	13.46
474.625	13.72
474.827	13.78
475.03	13.69
475.232	13.68
475.434	13.45
475.636	13.52
475.838	13.76
476.04	13.82
476.243	13.6
476.445	13.52
476.647	13.32
476.849	13.23
477.051	13.22
477.253	13.21
477.455	13.03
477.657	13.12
477.859	13.08
478.061	13
478.263	12.97
478.465	13.08
478.667	13.17
478.869	13.18
479.071	13.17
479.273	13.35
479.475	13.36
479.677	13.5
479.879	13.49
480.081	13.58
480.283	13.53
480.485	13.46
480.686	13.6
480.888	13.6
481.09	13.58
481.292	13.55
481.494	13.54
481.695	13.61
481.897	13.76
482.099	13.72
482.301	13.68
482.502	13.71
482.704	13.86
482.906	13.89
483.107	13.93
483.309	14
483.511	14.06
483.712	14.08
483.914	14.1
484.115	14.11
484.317	14.17
484.519	14.17
484.72	14.13
484.922	14.09
485.123	14.07
485.325	14.03
485.526	14.02
485.728	14.05
485.929	14
486.131	13.94
486.332	13.86
486.534	13.77
486.735	13.79
486.936	13.91
487.138	13.96
487.339	13.93
487.541	14.04
487.742	14.01
487.943	13.92
488.144	13.97
488.346	14.02
488.547	14.05
488.748	14.04
488.95	14.07
489.151	14.04
489.352	13.94
489.553	14
489.755	13.96
489.956	13.95
490.157	14.01
490.358	13.95
490.559	13.94
490.76	13.84
490.961	13.95
491.163	13.93
491.364	13.88
491.565	13.92
491.766	13.92
491.967	13.93
492.168	13.94
492.369	13.92
492.57	13.91
492.771	13.91
492.972	13.97
493.173	13.93
493.374	13.96
493.575	13.94
493.776	13.9
493.976	13.76
494.177	13.63
494.378	13.57
494.579	13.7
494.78	13.7
494.981	13.79
495.182	13.83
495.382	13.83
495.583	13.85
495.784	13.95
495.985	14.07
496.185	14.08
496.386	14.11
496.587	14.17
496.788	14.05
496.988	14.1
497.189	14.02
497.39	14.16
497.59	14.19
497.791	14.2
497.992	14.23
498.192	14.11
498.393	14.17
498.593	14.15
498.794	14.1
498.994	14.07
499.195	13.87
499.395	13.85
499.596	13.64
499.796	13.63
499.997	13.68
500.197	13.71
500.398	13.77
500.598	13.8
500.799	13.8
500.999	13.79
501.199	13.85
501.4	13.95
501.6	13.89
501.801	14.02
502.001	14.14
502.201	14.16
502.402	14.09
502.602	14.24
502.802	14.23
503.002	14.39
503.203	14.39
503.403	14.35
503.603	14.39
503.803	14.41
504.003	14.42
504.204	14.27
504.404	14.33
504.604	14.45
504.804	14.33
505.004	14.46
505.204	14.34
505.404	14.37
505.604	14.37
505.804	14.33
506.005	14.4
506.205	14.49
506.405	14.52
506.605	14.52
506.805	14.28
507.005	14.31
507.204	14.53
507.404	14.64
507.604	14.64
507.804	14.73
508.004	14.9
508.204	15.02
508.404	14.9
508.604	14.91
508.804	14.85
509.003	15.22
509.203	15.28
509.403	15.12
509.603	15.12
509.803	15.33
510.002	15.4
510.202	15.57
510.402	15.58
510.602	15.58
510.801	15.76
511.001	15.72
511.201	15.49
511.4	15.52
511.6	15.58
511.8	15.64
511.999	15.57
512.199	15.49
512.398	15.42
512.598	15.47
512.797	15.6
512.997	15.64
513.197	15.94
513.396	16.18
513.596	16.24
513.795	16.39
513.994	16.34
514.194	16.54
514.393	16.8
514.593	16.89
514.792	16.97
514.992	17.14
515.191	17.14
515.39	17.01
515.59	17.11
515.789	17.27
515.988	17.36
516.188	17.64
516.387	17.69
516.586	17.65
516.786	17.61
516.985	17.67
517.184	17.68
517.383	17.63
517.582	17.76
517.782	17.78
517.981	17.85
518.18	17.86
518.379	17.9
518.578	17.91
518.777	17.94
518.976	18.11
519.176	18.11
519.375	18.2
519.574	18.47
519.773	18.43
519.972	18.47
520.171	18.49
520.37	18.53
520.569	18.51
520.768	18.7
520.967	18.72
521.166	18.84
521.365	18.8
521.564	18.87
521.762	18.81
521.961	18.95
522.16	19.12
522.359	19.23
522.558	19.25
522.757	19.42
522.956	19.46
523.154	19.78
523.353	19.75
523.552	20.11
523.751	20.28
523.949	20.49
524.148	20.7
524.347	20.69
524.546	20.84
524.744	21
524.943	21.03
525.142	20.91
525.34	20.84
525.539	20.86
525.737	20.93
525.936	20.96
526.135	20.95
526.333	21.04
526.532	21.25
526.73	21.34
526.929	21.29
527.127	21.4
527.326	21.61
527.524	21.74
527.723	21.95
527.921	21.99
528.12	22.05
528.318	22.16
528.516	22.22
528.715	22.24
528.913	22.35
529.112	22.47
529.31	22.59
529.508	22.64
529.707	22.77
529.905	22.77
530.103	22.83
530.301	22.96
530.5	23.04
530.698	23.08
530.896	23.1
531.094	23.04
531.293	23.03
531.491	22.99
531.689	23.13
531.887	23.14
532.085	23.31
532.283	23.31
532.481	23.41
532.68	23.51
532.878	23.62
533.076	23.77
533.274	23.91
533.472	23.98
533.67	24.12
533.868	24.11
534.066	24.12
534.264	24.12
534.462	24.24
534.66	24.16
534.858	24.07
535.056	24.08
535.253	24.06
535.451	24.1
535.649	24.38
535.847	24.36
536.045	24.42
536.243	24.48
536.441	24.59
536.638	24.74
536.836	24.86
537.034	25.13
537.232	25.19
537.43	25.32
537.627	25.33
537.825	25.24
538.023	25.31
538.22	25.36
538.418	25.38
538.616	25.49
538.813	25.41
539.011	25.4
539.209	25.4
539.406	25.54
539.604	25.65
539.801	25.76
539.999	25.99
540.196	26.14
540.394	26.3
540.591	26.44
540.789	26.43
540.986	26.58
541.184	26.69
541.381	26.71
541.579	26.71
541.776	26.68
541.974	26.75
542.171	26.69
542.368	26.76
542.566	26.77
542.763	26.88
542.96	26.88
543.158	26.97
543.355	27.09
543.552	27.17
543.75	27.17
543.947	27.25
544.144	27.28
544.341	27.44
544.539	27.38
544.736	27.51
544.933	27.5
545.13	27.61
545.327	27.49
545.524	27.45
545.722	27.49
545.919	27.62
546.116	27.78
546.313	27.83
546.51	27.83
546.707	27.91
546.904	27.8
547.101	27.82
547.298	27.9
547.495	28.07
547.692	28.11
547.889	28.12
548.086	28.08
548.283	28
548.48	28.07
548.677	28.13
548.874	28.02
549.07	28.04
549.267	28.07
549.464	28.13
549.661	28
549.858	28.11
550.055	28.31
550.251	28.53
550.448	28.53
550.645	28.58
550.842	28.65
551.038	28.98
551.235	29.34
551.432	29.48
551.628	29.6
551.825	29.66
552.022	29.67
552.218	29.57
552.415	29.66
552.612	29.78
552.808	29.78
553.005	29.82
553.201	29.87
553.398	29.78
553.594	29.66
553.791	29.63
553.987	29.87
554.184	29.85
554.38	29.87
554.577	29.93
554.773	30.09
554.97	30.25
555.166	30.37
555.362	30.36
555.559	30.35
555.755	30.56
555.952	30.59
556.148	30.41
556.344	30.66
556.541	30.71
556.737	30.7
556.933	30.7
557.129	30.54
557.326	30.61
557.522	30.59
557.718	30.64
557.914	30.82
558.11	30.93
558.307	31.34
558.503	31.09
558.699	31.19
558.895	31.31
559.091	31.25
559.287	31.69
559.483	31.7
559.679	31.87
559.876	32.12
560.072	32.11
560.268	32.24
560.464	32.39
560.66	32.88
560.856	33.09
561.052	33.14
561.247	33.2
561.443	32.97
561.639	33.13
561.835	33.27
562.031	33.23
562.227	33.15
562.423	33.24
562.619	33.18
562.815	33.24
563.01	33.34
563.206	33.43
563.402	33.71
563.598	33.89
563.793	33.82
563.989	33.8
564.185	33.86
564.381	33.78
564.576	33.8
564.772	33.79
564.968	33.69
565.163	33.58
565.359	33.65
565.555	33.6
565.75	33.59
565.946	33.78
566.141	33.86
566.337	33.89
566.532	34.22
566.728	34.34
566.923	34.24
567.119	34.25
567.314	34.11
567.51	34.13
567.705	34.18
567.901	34.18
568.096	34.19
568.292	34.13
568.487	34.24
568.682	34.2
568.878	34.19
569.073	34.48
569.268	34.64
569.464	35.01
569.659	35.11
569.854	35.3
570.05	35.54
570.245	35.65
570.44	35.85
570.635	35.88
570.831	35.98
571.026	35.71
571.221	35.74
571.416	35.59
571.611	35.74
571.806	35.63
572.002	35.58
572.197	35.58
572.392	35.51
572.587	35.39
572.782	35.39
572.977	35.37
573.172	35.74
573.367	35.72
573.562	35.78
573.757	35.65
573.952	35.73
574.147	35.73
574.342	35.92
574.537	36.04
574.732	36.32
574.927	36.51
575.121	36.39
575.316	36.34
575.511	36.35
575.706	36.49
575.901	36.67
576.096	36.7
576.29	36.73
576.485	36.6
576.68	36.73
576.875	36.68
577.069	36.42
577.264	36.65
577.459	36.64
577.654	36.58
577.848	36.52
578.043	36.45
578.238	36.83
578.432	36.71
578.627	36.75
578.821	36.38
579.016	36.32
579.21	36.68
579.405	36.71
579.6	36.69
579.794	36.8
579.989	37.13
580.183	36.85
580.378	36.45
580.572	36.63
580.766	36.62
580.961	36.75
581.155	36.72
581.35	36.56
581.544	36.58
581.738	36.65
581.933	36.82
582.127	36.85
582.321	37.05
582.516	37
582.71	37.08
582.904	36.9
583.099	36.98
583.293	37.3
583.487	37.37
583.681	37.12
583.875	36.92
584.07	36.71
584.264	36.64
584.458	36.52
584.652	36.64
584.846	36.49
585.04	36.53
585.234	36.79
585.428	36.56
585.623	36.77
585.817	37.11
586.011	37.39
586.205	37.52
586.399	37.22
586.593	37.34
586.787	37.55
586.981	37.88
587.174	38.05
587.368	37.66
587.562	37.58
587.756	37.23
587.95	37.17
588.144	37.31
588.338	37.27
588.532	37.48
588.725	37.87
588.919	38.01
589.113	38.12
589.307	38.01
589.501	38.22
589.694	38.47
589.888	38.66
590.082	38.78
590.275	38.78
590.469	38.82
590.663	38.81
590.856	38.77
591.05	38.74
591.244	38.89
591.437	39.05
591.631	39.07
591.824	39.1
592.018	39.11
592.212	38.96
592.405	39.13
592.599	39.13
592.792	38.89
592.986	38.7
593.179	38.87
593.372	38.61
593.566	38.79
593.759	38.98
593.953	39.07
594.146	39.01
594.339	39.07
594.533	38.9
594.726	38.92
594.92	39.13
595.113	39.19
595.306	39.03
595.499	38.92
595.693	38.86
595.886	38.92
596.079	38.81
596.272	39.06
596.466	39.2
596.659	39.27
596.852	39.43
597.045	39.54
597.238	39.56
597.431	39.64
597.624	39.82
597.818	40.05
598.011	39.91
598.204	39.96
598.397	39.99
598.59	40.05
598.783	40.05
598.976	40.02
599.169	40.13
599.362	40.28
599.555	40.13
599.748	40
599.941	39.62
600.134	39.78
600.326	39.75
600.519	39.55
600.712	39.48
600.905	39.38
601.098	39.11
601.291	38.75
601.483	38.69
601.676	38.49
601.869	38.69
602.062	38.89
602.255	38.86
602.447	38.85
602.64	39.26
602.833	39.33
603.025	39.45
603.218	39.71
603.411	40.11
603.603	40.25
603.796	40.57
603.989	40.7
604.181	40.56
604.374	40.87
604.566	41.07
604.759	41.06
604.951	41.15
605.144	41
605.336	40.87
605.529	40.73
605.721	40.67
605.914	40.66
606.106	40.54
606.299	40.69
606.491	40.61
606.683	40.55
606.876	40.22
607.068	40.23
607.26	40.29
607.453	40.57
607.645	40.67
607.837	40.46
608.03	40.47
608.222	40.57
608.414	40.92
608.606	40.72
608.799	40.82
608.991	40.96
609.183	40.96
609.375	41.38
609.567	41.34
609.759	41.4
609.952	41.79
610.144	41.87
610.336	42.12
610.528	41.91
610.72	42.17
610.912	42.22
611.104	42.4
611.296	42.26
611.488	42.04
611.68	42.01
611.872	41.86
612.064	41.5
612.256	41.2
612.448	40.91
612.64	40.84
612.832	40.46
613.023	40.55
613.215	40.08
613.407	40.15
613.599	40.02
613.791	40.18
613.983	40.19
614.174	40.49
614.366	41.15
614.558	41.04
614.75	41.27
614.941	41.31
615.133	40.98
615.325	41.39
615.516	41.74
615.708	41.78
615.9	41.78
616.091	41.86
616.283	41.7
616.475	41.51
616.666	41.26
616.858	41.13
617.049	41.13
617.241	41.03
617.432	40.95
617.624	40.6
617.815	40.65
618.007	40.5
618.198	40.55
618.39	40.61
618.581	40.34
618.773	40.65
618.964	40.61
619.155	41.03
619.347	41.11
619.538	41.24
619.729	41.68
619.921	41.69
620.112	41.89
620.303	41.79
620.494	41.86
620.686	42.07
620.877	42.17
621.068	42.22
621.259	42.06
621.451	42.2
621.642	41.94
621.833	41.35
622.024	41.34
622.215	41.18
622.406	41.29
622.597	41.45
622.788	41.4
622.98	41.18
623.171	41.36
623.362	41.11
623.553	41.2
623.744	41.5
623.935	41.73
624.126	41.95
624.317	41.86
624.508	42.04
624.698	41.9
624.889	41.62
625.08	41.7
625.271	41.76
625.462	41.77
625.653	41.84
625.844	41.63
626.034	41.74
626.225	41.73
626.416	41.88
626.607	41.81
626.798	41.9
626.988	42.18
627.179	42.43
627.37	42.56
627.56	42.93
627.751	42.88
627.942	42.91
628.132	42.8
628.323	42.62
628.514	42.8
628.704	42.93
628.895	42.81
629.085	42.89
629.276	42.66
629.466	42.48
629.657	41.84
629.847	41.85
630.038	42
630.228	42.05
630.419	42.39
630.609	42.35
630.8	42.05
630.99	42.22
631.181	41.89
631.371	41.88
631.561	42.04
631.752	42.18
631.942	42.08
632.132	41.88
632.323	41.71
632.513	41.56
632.703	41.43
632.893	41.46
633.084	41.26
633.274	41.36
633.464	41.54
633.654	41.22
633.844	41.44
634.034	41.64
634.225	41.86
634.415	42.09
634.605	41.92
634.795	41.73
634.985	41.82
635.175	42.01
635.365	42.02
635.555	41.67
635.745	41.42
635.935	41.54
636.125	41.6
636.315	41.53
636.505	41.46
636.695	41.55
636.885	41.89
637.075	41.77
637.265	41.68
637.455	41.73
637.644	42.02
637.834	42.55
638.024	42.33
638.214	42.11
638.404	41.9
638.593	42.02
638.783	41.8
638.973	42.09
639.163	42.01
639.352	41.9
639.542	41.88
639.732	41.52
639.921	41.17
640.111	41.16
640.301	41.21
640.49	41.43
640.68	41.34
640.87	41.72
641.059	41.29
641.249	41.61
641.438	41.76
641.628	41.77
641.817	42.17
642.007	42.45
642.196	42.7
642.386	42.9
642.575	42.52
642.764	42.63
642.954	42.59
643.143	42.62
643.333	42.68
643.522	42.07
643.711	41.99
643.901	41.7
644.09	41.46
644.279	41.74
644.469	41.81
644.658	42.09
644.847	41.91
645.036	41.83
645.226	41.8
645.415	41.89
645.604	42.41
645.793	42.43
645.982	42.96
646.171	43.03
646.361	42.4
646.55	41.59
646.739	41.68
646.928	41.77
647.117	41.84
647.306	41.58
647.495	41.31
647.684	41.17
647.873	41.54
648.062	41.11
648.251	41.2
648.44	41.01
648.629	41.75
648.818	41.87
649.007	42.29
649.196	42.28
649.384	42.54
649.573	42.94
649.762	43.33
649.951	42.96
650.14	42.94
650.328	42.88
650.517	42.96
650.706	42.35
650.895	42.33
651.083	41.88
651.272	41.74
651.461	41.83
651.65	41.36
651.838	41.41
652.027	41.45
652.216	41.73
652.404	41.57
652.593	42.08
652.781	42.34
652.97	42.2
653.158	42.2
653.347	42.5
653.535	42.5
653.724	42.47
653.912	42.09
654.101	42.48
654.289	42.51
654.478	42.86
654.666	42.77
654.855	43.17
655.043	43.06
655.231	42.94
655.42	42.84
655.608	42.96
655.796	43.16
655.985	43.22
656.173	42.83
656.361	42.59
656.55	42.19
656.738	41.85
656.926	41.61
657.114	41.53
657.302	41.97
657.491	42.04
657.679	41.97
657.867	42.27
658.055	42.34
658.243	42.41
658.431	42.5
658.619	42.71
658.807	43.02
658.996	42.93
659.184	43.11
659.372	42.98
659.56	42.75
659.748	42.85
659.936	42.73
660.124	42.34
660.311	42.42
660.499	42.58
660.687	42.44
660.875	42.23
661.063	42.33
661.251	42.49
661.439	42.18
661.627	42.37
661.814	42.27
662.002	42.18
662.19	42.58
662.378	42.4
662.565	42.08
662.753	42.34
662.941	42.79
663.129	42.56
663.316	42.58
663.504	42.74
663.692	42.52
663.879	42.4
664.067	42.27
664.254	42.51
664.442	42.65
664.63	42.63
664.817	42.34
665.005	42.04
665.192	42.35
665.38	42.43
665.567	42.32
665.755	42.68
665.942	42.64
666.13	42.56
666.317	42.44
666.504	42.26
666.692	42.17
666.879	42.35
667.067	41.98
667.254	41.6
667.441	41.54
667.629	41.68
667.816	41.84
668.003	41.73
668.19	42.12
668.378	42.17
668.565	42.37
668.752	42.54
668.939	42.99
669.127	43.2
669.314	43.36
669.501	43.5
669.688	43.78
669.875	43.25
670.062	43.34
670.249	43.07
670.436	43.45
670.623	43.53
670.81	43.58
670.997	43.26
671.184	43.29
671.371	43.36
671.558	42.73
671.745	42.36
671.932	42.69
672.119	42.49
672.306	42.62
672.493	42.3
672.68	42.24
672.867	41.68
673.054	41.21
673.24	40.91
673.427	41.23
673.614	41.65
673.801	41.98
673.988	41.95
674.174	42.13
674.361	42.49
674.548	42.1
674.734	42.32
674.921	43.07
675.108	43.73
675.294	44.17
675.481	43.65
675.668	43.25
675.854	43.22
676.041	42.9
676.227	42.97
676.414	42.15
676.601	42.18
676.787	42.04
676.974	41.52
677.16	41.66
677.347	41.56
677.533	41.91
677.719	42.25
677.906	42.1
678.092	42.16
678.279	42.72
678.465	42.57
678.651	42.61
678.838	42.3
679.024	42.99
679.21	42.89
679.397	43.32
679.583	42.89
679.769	43.04
679.955	43.04
680.142	43.16
680.328	42.67
680.514	42.93
680.7	43
680.886	43.32
681.073	43.04
681.259	42.55
681.445	41.72
681.631	41.79
681.817	41.36
682.003	41.35
682.189	41.09
682.375	41.21
682.561	41.7
682.747	41.51
682.933	41.11
683.119	41.28
683.305	41.56
683.491	41.84
683.677	42.18
683.863	42.86
684.049	42.42
684.235	42.62
684.42	42.43
684.606	42.13
684.792	42.36
684.978	42.59
685.164	42.63
685.349	42.51
685.535	42.69
685.721	42.94
685.907	42.06
686.092	42.96
686.278	43.28
686.464	43.08
686.649	42.26
686.835	42.97
687.021	42.59
687.206	42.61
687.392	42.77
687.577	42.94
687.763	42.98
687.948	43.3
688.134	42.9
688.319	42.16
688.505	41.98
688.69	42.96
688.876	42.36
689.061	43.25
689.247	42.91
689.432	42.43
689.618	42.31
689.803	41.98
689.988	42.19
690.174	42.43
690.359	42.51
690.544	42.97
690.73	42.72
690.915	42.98
691.1	42.41
691.285	42.29
691.471	42.8
691.656	43.21
691.841	43.18
692.026	42.94
692.211	42.48
692.396	42.74
692.582	42.98
692.767	42.75
692.952	42.66
693.137	42.67
693.322	42.16
693.507	42.24
693.692	41.37
693.877	41.07
694.062	41.53
694.247	42.04
694.432	42.52
694.617	41.91
694.802	42.61
694.987	42.44
695.172	42.33
695.357	43.82
695.541	43.77
695.726	44.32
695.911	44.95
696.096	44.45
696.281	44.18
696.466	43.98
696.65	44.42
696.835	43.78
697.02	43.57
697.204	43.34
697.389	42.63
697.574	42.56
697.759	42.44
697.943	41.96
698.128	42.08
698.312	41.95
698.497	42.12
698.682	42.12
698.866	42.04
699.051	41.94
699.235	41.93
699.42	42.18
699.604	42.03
699.789	42.13
699.973	42.48
700.158	42.83
700.342	42.7
700.527	42.71
700.711	42.62
700.895	42.94
701.08	42.83
701.264	43.49
701.448	43.26
701.633	43.32
701.817	42.95
702.001	42.17
702.186	41.37
702.37	41.52
702.554	41.32
702.738	41.66
702.923	41.3
703.107	41.87
703.291	41.49
703.475	40.4
703.659	40.55
703.843	41.13
704.027	41.91
704.212	41.99
704.396	41.87
704.58	41.74
704.764	41.01
704.948	40.98
705.132	40.86
705.316	41.19
705.5	42.52
705.684	42.96
705.868	42.99
706.052	42.42
706.235	42.81
706.419	43.3
706.603	43.62
706.787	44.12
706.971	44.11
707.155	43.74
707.339	43.63
707.522	43.74
707.706	43.25
707.89	42.94
708.074	43.43
708.257	44
708.441	43.7
708.625	43.22
708.808	43.45
708.992	43.8
709.176	44.32
709.359	44.13
709.543	43.86
709.727	43.93
709.91	43.48
710.094	43.33
710.277	42.77
710.461	42.79
710.644	43.4
710.828	42.89
711.011	43.06
711.195	42.86
711.378	42.48
711.562	42.72
711.745	42.46
711.928	43.25
712.112	43.66
712.295	43.68
712.478	44.49
712.662	43.93
712.845	43.41
713.028	43.18
713.212	43.62
713.395	43.68
713.578	42.88
713.761	42.8
713.945	42.84
714.128	42.17
714.311	42.28
714.494	41.78
714.677	41.84
714.86	42.37
715.043	41.71
715.227	40.9
715.41	40.77
715.593	40.81
715.776	41.06
715.959	40.99
716.142	41.23
716.325	40.65
716.508	39.64
716.691	39.75
716.874	39.73
717.057	40.08
717.239	40.16
717.422	40.72
717.605	41.59
717.788	41.55
717.971	40.98
718.154	41.55
718.337	41.92
718.519	42.8
718.702	42.76
718.885	42.87
719.068	42.3
719.25	41.49
719.433	41.2
719.616	40.19
719.798	39.96
719.981	39.42
720.164	38.24
720.346	38.76
720.529	38.62
720.712	37.95
720.894	37.56
721.077	38.26
721.259	38.95
721.442	38.87
721.624	39.17
721.807	38.99
721.989	39.49
722.172	40.65
722.354	39.65
722.537	40.16
722.719	40.64
722.901	40.06
723.084	40.56
723.266	41.07
723.448	40.02
723.631	40.4
723.813	40.26
723.995	40.07
724.178	39.54
724.36	40.23
724.542	40.02
724.724	41.08
724.907	41.7
725.089	41.22
725.271	41.81
725.453	42.99
725.635	42.03
725.817	42.53
725.999	43.02
726.181	43.41
726.364	43.18
726.546	44.02
726.728	42.82
726.91	43.55
727.092	43.01
727.274	41.71
727.456	42.34
727.638	42.57
727.819	42.42
728.001	42.21
728.183	41.74
728.365	41.38
728.547	40.54
728.729	40.9
728.911	40.5
729.093	41.36
729.274	42.77
729.456	41.9
729.638	41.84
729.82	41.17
730.001	40.75
730.183	40.53
730.365	40.94
730.546	41.07
730.728	40.99
730.91	41.48
731.091	40.36
731.273	38.84
731.455	38.43
731.636	38.62
731.818	39.29
731.999	40.06
732.181	40.52
732.362	40.54
732.544	40.14
732.725	39.98
732.907	39.99
733.088	40.61
733.27	42.02
733.451	42.52
733.633	43.22
733.814	42.76
733.995	42.75
734.177	41.61
734.358	41.65
734.539	40.95
734.721	40.72
734.902	40.96
735.083	40.95
735.264	40.03
735.446	40.59
735.627	39.84
735.808	40.67
735.989	39.17
736.17	40.17
736.351	39.34
736.533	40.81
736.714	41.21
736.895	39.49
737.076	39.93
737.257	40.17
737.438	40.14
737.619	39.85
737.8	40.98
737.981	42.16
738.162	42.52
738.343	43.39
738.524	43.38
738.705	42.75
738.886	43.37
739.067	42.45
739.247	42.3
739.428	40.94
739.609	41.23
739.79	39.67
739.971	40.41
740.151	39.5
740.332	38.86
740.513	38.84
740.694	39.31
740.874	39.7
741.055	39.77
741.236	39.79
741.417	40.84
741.597	40.54
741.778	40.75
741.958	39.74
742.139	39.3
742.32	39.84
742.5	39.02
742.681	38.96
742.861	37.82
743.042	37.02
743.222	37.73
743.403	37.13
743.583	36.92
743.764	36.2
743.944	36.74
744.124	37.91
744.305	37.7
744.485	38.14
744.666	37.84
744.846	38.32
745.026	40.14
745.207	38.41
745.387	37.05
745.567	37.17
745.747	38.3
745.928	38.08
746.108	38.24
746.288	38.67
746.468	38.47
746.648	38.77
746.829	38.48
747.009	37.82
747.189	39.19
747.369	40.97
747.549	41.13
747.729	40.19
747.909	40.71
748.089	40.27
748.269	39.46
748.449	38.73
748.629	38.3
748.809	39.05
748.989	40.93
749.169	39.96
749.349	39.21
749.529	39.88
749.709	39.95
749.889	39.5
750.068	39.91
750.248	39.71
750.428	40.77
750.608	41.08
750.788	41.88
750.967	39.61
751.147	39.43
751.327	40.95
751.507	39.53
751.686	40.45
751.866	39.75
752.046	39.28
752.225	39.86
752.405	40.03
752.585	41.08
752.764	40.75
752.944	41.06
753.123	41.94
753.303	40.67
753.482	41.27
753.662	41.03
753.841	42.04
754.021	42.03
754.2	42.39
754.38	41.62
754.559	41.4
754.739	40.43
754.918	40.79
755.097	39.88
755.277	40.57
755.456	40.45
755.635	38.59
755.815	37.64
755.994	38.18
756.173	37.66
756.352	37.91
756.532	37.99
756.711	37.5
756.89	37.32
757.069	38.68
757.248	37.91
757.427	37.76
757.607	38.88
757.786	39.41
757.965	39.69
758.144	40.2
758.323	39.93
758.502	41.07
758.681	42.16
758.86	42.92
759.039	42.43
759.218	42.95
759.397	44.35
759.576	44.1
759.755	43.13
759.934	43.09
760.113	42.08
760.291	42.7
760.47	41.23
760.649	41.55
760.828	40.35
761.007	39.5
761.186	39.2
761.364	38.52
761.543	39.31
761.722	39.51
761.901	39.3
762.079	39.48
762.258	38.87
762.437	38.53
762.615	38.6
762.794	39.48
762.972	39.55
763.151	39.4
763.33	39.56
763.508	39.53
763.687	39.97
763.865	39.35
764.044	39.77
764.222	40.17
764.401	39.79
764.579	39.38
764.758	39.14
764.936	40.36
765.114	41.18
765.293	40.83
765.471	41.7
765.65	41.41
765.828	42.5
766.006	42.76
766.184	42.68
766.363	43.24
766.541	43.87
766.719	43.1
766.898	42.54
767.076	40.56
767.254	40.79
767.432	39.67
767.61	39.98
767.788	38.56
767.967	38.38
768.145	37.6
768.323	37.15
768.501	37.01
768.679	37.82
768.857	36.33
769.035	38.39
769.213	38.61
769.391	37.66
769.569	36.67
769.747	36.17
769.925	34.49
770.103	34.39
770.281	33.3
770.459	31.73
770.636	33.97
770.814	35.8
770.992	36.08
771.17	34.65
771.348	34.41
771.525	34.61
771.703	33.89
771.881	34.64
772.059	34.89
772.236	34.89
772.414	34.41
772.592	32.42
772.769	31.4
772.947	28.74
773.125	29.34
773.302	30.63
773.48	32.22
773.657	34.51
773.835	34.76
774.013	34.29
774.19	34.11
774.368	35.3
774.545	33.98
774.723	30.79
774.9	32.69
775.077	31.56
775.255	30.85
775.432	30.48
775.61	30.26
775.787	29.34
775.964	30.06
776.142	30.12
776.319	29.73
776.496	30.04
776.674	32.94
776.851	32.24
777.028	32.12
777.205	30.8
777.382	30.5
777.56	28.99
777.737	28.73
777.914	27.26
778.091	27.97
778.268	27.13
778.445	27.72
778.622	27.19
778.8	27.43
778.977	28.51
779.154	30.3
779.331	29.33
779.508	29.92
779.685	29.08
779.862	31.49
780.038	31.97
780.215	32.56
780.392	31.69
780.569	30.64
780.746	31.31
780.923	31.82
781.1	30.37
781.277	29.95
781.453	31.48
781.63	33.01
781.807	31.26
781.984	33.21
782.16	33.48
782.337	33.36
782.514	32.99
782.691	32.01
782.867	31.65
783.044	32.11
783.221	32.17
783.397	32.41
783.574	30.21
783.75	31.03
783.927	31.04
784.103	33.24
784.28	34.61
784.456	36.69
784.633	36.42
784.809	37.36
784.986	38.33
785.162	37.39
785.339	36.1
785.515	38.58
785.692	37.65
785.868	34.76
786.044	32.92
786.221	31.43
786.397	29.78
786.573	29.43
786.749	29.08
786.926	27.65
787.102	29.04
787.278	29.46
787.454	29.51
787.631	29.69
787.807	31.79
787.983	30.76
788.159	30.23
788.335	28.66
788.511	28.43
788.687	26.47
788.863	28.49
789.039	30.86
789.216	27.95
789.392	27.16
789.568	27.08
789.744	25.41
789.919	25.06
790.095	24.89
790.271	26.37
790.447	28.36
790.623	30.67
790.799	29.94
790.975	26.39
791.151	28.15
791.327	30.01
791.502	30.69
791.678	31.02
791.854	30.6
792.03	31.07
792.205	33.85
792.381	32.05
792.557	32.08
792.733	33.01
792.908	34.87
793.084	35.29
793.259	34.44
793.435	35.52
793.611	36.81
793.786	37.19
793.962	37.94
794.137	36.42
794.313	34.34
794.488	33.83
794.664	31.78
794.839	30.99
795.015	32.64
795.19	31.4
795.366	28.93
795.541	28.97
795.716	30.43
795.892	29.99
796.067	30.44
796.242	33.83
796.418	32.46
796.593	34.1
796.768	33.77
796.944	33.1
797.119	33.26
797.294	32.66
797.469	33.58
797.644	32.39
797.82	29.65
797.995	30.12
798.17	29.24
798.345	29.82
798.52	29.71
798.695	30.73
798.87	28.8
799.045	30.31
799.22	31.07
799.395	31.11
799.57	32.28
799.745	34.51
799.92	35.12
800.095	34.09
800.27	33.32
800.445	32.05
800.62	31.1
800.795	33.53
800.97	32.35
801.145	33.73
801.319	31.17
801.494	32.02
801.669	32.97
801.844	31.7
802.018	34.2
802.193	35.25
802.368	36.94
802.543	35.83
802.717	34.91
802.892	38.01
803.067	37.21
803.241	38.43
803.416	40.2
803.59	40.58
803.765	40.88
803.94	36.67
804.114	34.44
804.289	32.68
804.463	34.65
804.638	31.88
804.812	26.84
804.986	28.28
805.161	27.8
805.335	23.41
805.51	21.98
805.684	20.11
805.858	22.03
806.033	23.59
806.207	21.96
806.381	19.77
806.556	21.79
806.73	24.33
806.904	24.69
807.078	23.32
807.253	21.13
807.427	23.69
807.601	24.43
807.775	24.68
807.949	24.32
808.123	23.31
808.298	24.63
808.472	23.29
808.646	23.51
808.82	20.69
808.994	21.28
809.168	23.26
809.342	22.31
809.516	23.6
809.69	25.87
809.864	25.02
810.038	29.57
810.212	28.64
810.385	30.8
810.559	29.61
810.733	28.75
810.907	26.23
811.081	27.24
811.255	23.48
811.428	23.1
811.602	22.7
811.776	27.46
811.95	25.27
812.123	25.08
812.297	25.28
812.471	25.73
812.644	28.4
812.818	31.06
812.992	27.17
813.165	26.98
813.339	26.77
813.512	24.29
813.686	23.32
813.86	25.16
814.033	21.84
814.207	22.16
814.38	21.98
814.554	24.87
814.727	26.12
814.9	25.1
815.074	28.08
815.247	27.88
815.421	27.59
815.594	23.14
815.767	16.78
815.941	20.53
816.114	18.5
816.287	18.13
816.46	11.91
816.634	9.49
816.807	11.17
816.98	12.19
817.153	11.96
817.327	12.25
817.5	13.19
817.673	16.62
817.846	14.11
818.019	16.75
818.192	18.6
818.365	23.64
818.538	28.78
818.711	29.46
818.884	27.78
819.057	23.31
819.23	23.14
819.403	24.48
819.576	24.9
819.749	28.85
819.922	29.29
820.095	31.76
820.268	32.74
820.441	30.99
820.614	34.08
820.786	34.49
820.959	39.65
821.132	38.9
821.305	38.71
821.477	40.58
821.65	40.68
821.823	41.11
821.996	40.75
822.168	40.91
822.341	40.95
822.514	40.63
822.686	41.59
822.859	41.17
823.031	42.06
823.204	42.16
823.376	41.77
823.549	41.71
823.722	41.73
823.894	41.76
824.067	41.47
824.239	40.99
824.411	41.42
824.584	40.84
824.756	40.38
824.929	40.45
825.101	40.61
825.273	40.02
825.446	39.76
825.618	39.27
825.79	39.62
825.963	39.54
826.135	40.56
826.307	40.47
826.479	39.92
826.652	40.31
826.824	39.87
826.996	39.56
827.168	39.4
827.34	38.59
827.512	39.18
827.684	38.25
827.856	38.62
828.029	38.27
828.201	37.92
828.373	38.95
828.545	38.96
828.717	38.37
828.889	38.82
829.061	41.39
829.232	41.94
829.404	41.17
829.576	42.34
829.748	41.94
829.92	42.02
830.092	41.72
830.264	41.07
830.436	39.25
830.607	38.36
830.779	36.73
830.951	32.98
831.123	33.33
831.294	32.33
831.466	28.39
831.638	26.42
831.809	25.18
831.981	26.09
832.153	24.95
832.324	25.14
832.496	26.66
832.667	25.93
832.839	25.05
833.011	27.19
833.182	27.26
833.354	28.46
833.525	29.38
833.697	30.03
833.868	29.3
834.039	31.61
834.211	33.22
834.382	33.21
834.554	36.65
834.725	38.28
834.896	34.09
835.068	36.35
835.239	35.19
835.41	35.58
835.581	36.6
835.753	35.33
835.924	31.57
836.095	32.13
836.266	33.04
836.438	31.74
836.609	29.72
836.78	31.86
836.951	28.76
837.122	29.46
837.293	27.89
837.464	24.36
837.635	24.59
837.806	24.79
837.977	21.18
838.148	14.26
838.319	9.86
838.49	13.95
838.661	12.08
838.832	12.46
839.003	9.84
839.174	4.17
839.345	6.35
839.516	-0.67
839.687	3.59
839.857	11.43
840.028	21.96
840.199	21.76
840.37	15.49
840.54	23.46
840.711	25.8
840.882	25.32
841.053	28.03
841.223	27.74
841.394	35.05
841.564	35.03
841.735	30.6
841.906	25.13
842.076	24.17
842.247	24.85
842.417	19.95
842.588	17.68
842.758	16.13
842.929	12.3
843.099	4.53
843.27	-0.39
843.44	-1.33
843.611	-7.08
843.781	-16.17
843.951	-10.98
844.122	-6.62
844.292	-13.76
844.462	-21.97
844.633	-16.55
844.803	-7.17
844.973	-0.52
845.144	-0.94
845.314	-8.94
845.484	-2.64
845.654	16.13
845.824	7.59
845.995	-8.16
846.165	-6.08
846.335	0.29
846.505	-16.05
846.675	-25.34
846.845	-39.97
847.015	-57.32
847.185	-50.86
847.355	-62.36
847.525	-58.41
847.695	-62.68
847.865	-78.2
848.035	-85.3
848.205	-111.58
848.375	-72.53
848.545	-85.52
848.715	-80.1
848.884	-78.94
849.054	-124.4
849.224	-105.36
849.394	-148.49
849.564	-120.34
849.733	-73.03
849.903	-59.99
850.073	-36.21
850.243	-41.8
850.412	-35.78
850.582	-59.93
850.752	-91.53
850.921	-43.23
851.091	-56
851.26	-50.76
851.43	-46
851.599	-80.09
851.769	-90.19
851.939	-101.4
852.108	-204.81
852.278	-209.7
852.447	-179.21
852.616	-110.04
852.786	-142.07
852.955	-129.5
853.125	-154.3
853.294	-153.42
853.463	-162.32
853.633	-204.31
853.802	-198.4
853.971	-135.41
854.141	-127.51
854.31	-164.35
854.479	-211.28
854.648	-255.4
854.818	-259.62
854.987	-188.24
855.156	-218.66
855.325	-166.44
855.494	-191.58
855.663	-221.49
855.832	-279.94
856.001	-271.56
856.171	-229.42
856.34	-201.27
856.509	-204.78
856.678	-246.74
856.847	-221.57
857.016	-206.58
857.185	-181.68
857.353	-84.55
857.522	-95.24
857.691	-45.86
857.86	-70.3
858.029	-27.8
858.198	-45.87
858.367	-21.59
858.535	-20.92
858.704	-39.56
858.873	-24.22
859.042	-1.36
859.21	-22.65
859.379	-18.46
859.548	-38.05
859.717	-44.81
859.885	-44.58
860.054	-37.21
860.222	-57.79
860.391	-48.5
860.56	-22.53
860.728	-24.46
860.897	-31.52
861.065	-26.29
861.234	-25.81
861.402	-22.54
861.571	-14.94
861.739	-23.4
861.908	-20.32
862.076	-17.89
862.244	-12.89
862.413	-34.33
862.581	-67.86
862.749	-158.03
862.918	-250.99
863.086	-245.35
863.254	-318.54
863.423	-587.9
863.591	-376.4
863.759	-596.21
863.927	-675.02
864.096	-2798.23
864.264	652.18
864.432	942.69
864.6	-1015.4
864.768	-202.38
864.936	-88.88
865.104	-25.01
865.272	2.59
865.44	-39.75
865.608	20.66
865.776	-73.91
865.944	-75.19
866.112	-40.27
866.28	-64.48
866.448	-96.5
866.616	-90.5
866.784	-87.87
866.952	-104.93
867.12	-97.91
867.288	-66.97
867.455	-78.12
867.623	-52.7
867.791	-56.04
867.959	-76.45
868.127	-48.71
868.294	-25.82
868.462	-38.96
868.63	-72.29
868.797	-115.68
868.965	-261.32
869.133	-273.98
869.3	-392.68
869.468	-186.39
869.636	-110.16
869.803	-151.32
869.971	-144.42
870.138	-113.28
870.306	-106.78
870.473	-69.24
870.641	-62.44
870.808	-43.42
870.975	-68.94
871.143	-32.45
871.31	-71.66
871.478	-203.3
871.645	-74.14
871.812	-78.84
871.98	-103.46
872.147	-136.55
872.314	-126.18
872.482	-157.9
872.649	-242.11
872.816	-126.79
872.983	-404.47
873.15	-177.69
873.318	-135.22
873.485	-205.75
873.652	-215.67
873.819	-122.11
873.986	-64.5
874.153	-89.7
874.32	-55.77
874.487	-51.47
874.654	-39.87
874.821	-17.93
874.988	11.61
875.155	15.25
875.322	12.52
875.489	5.48
875.656	-2.43
875.823	-36.46
875.99	-16.92
876.157	-21.33
876.324	-21.79
876.49	-13.69
876.657	-38.57
876.824	-53.45
876.991	-81.99
877.157	-98.31
877.324	-78.98
877.491	-52.57
877.658	-48.22
877.824	-49.87
877.991	-49.34
878.157	-52.27
878.324	-71.85
878.491	-23.53
878.657	-41.55
878.824	-23.72
878.99	-15.73
879.157	-18.44
879.323	-28.72
879.49	-23.64
879.656	-31.26
879.823	-46.66
879.989	-38.17
880.156	-64.76
880.322	-78.5
880.488	-52.48
880.655	-65.84
880.821	-81.23
880.987	-51.88
881.154	-47.8
881.32	-40.52
881.486	-29.55
881.652	-16.63
881.819	-7.27
881.985	14.99
882.151	14.26
882.317	13.47
882.483	18.09
882.649	23.1
882.816	18.82
882.982	21.76
883.148	25.48
883.314	27.49
883.48	27.85
883.646	27.87
883.812	28.73
883.978	29.59
884.144	30.26
884.31	29.81
884.476	29.63
884.642	31.59
884.807	32.58
884.973	32.74
885.139	32.8
885.305	33.1
885.471	33.71
885.637	32.64
885.802	33.92
885.968	35.53
886.134	35.61
886.3	36.33
886.465	34.47
886.631	31.13
886.797	30.65
886.962	29.61
887.128	23.67
887.293	17.22
887.459	7.4
887.625	-2.52
887.79	-13.86
887.956	-12.77
888.121	-24.37
888.287	-29.92
888.452	-36.95
888.618	-71.58
888.783	-114.51
