Data from CB_109_Reflection_3.txt Node
Date: Sat Nov 14 18:11:01 EST 2015
User: robert
Spectrometer: USB4E03001
Autoset integration time: false
Trigger mode: 4
Integration Time (sec): 1.000000E-1
Scans to average: 15
Electric dark correction enabled: true
Nonlinearity correction enabled: false
Boxcar width: 5
Stray light correction enabled: false
XAxis mode: Wavelengths
Stop averaging: false
Number of Pixels in Spectrum: 3648
>>>>>Begin Spectral Data<<<<<
177.566	303.31
177.785	-2680.79
178.005	733.42
178.225	836.52
178.445	-3767.37
178.665	398
178.885	-1507.22
179.105	282.27
179.324	427.58
179.544	171.79
179.764	176.76
179.984	147.34
180.204	165.67
180.423	138.79
180.643	188.82
180.863	254.85
181.083	172.91
181.302	174.72
181.522	221.18
181.742	195.62
181.961	275.15
182.181	395.04
182.401	1031.18
182.621	652.56
182.84	914.46
183.06	384.02
183.279	283.55
183.499	457.54
183.719	330.16
183.938	167.21
184.158	157.34
184.377	146.12
184.597	148.95
184.816	124.66
185.036	133.91
185.256	134.64
185.475	136.33
185.695	121.2
185.914	115.26
186.134	116.32
186.353	123.45
186.572	114.73
186.792	102.58
187.011	109.36
187.231	107.55
187.45	114.15
187.67	98.91
187.889	95.81
188.108	103.99
188.328	113.01
188.547	118.94
188.766	121.07
188.986	117.11
189.205	128.47
189.424	107.61
189.644	106.44
189.863	87.17
190.082	119.3
190.302	122.75
190.521	105.05
190.74	97.42
190.959	98.76
191.178	82.89
191.398	110.34
191.617	101.65
191.836	80.58
192.055	81.26
192.274	96.83
192.494	112.07
192.713	206.91
192.932	194.69
193.151	251.04
193.37	207.37
193.589	222.96
193.808	330.73
194.027	483.03
194.246	-1668.78
194.465	2992.81
194.685	239.08
194.904	191.67
195.123	96.32
195.342	98.75
195.561	105.66
195.78	94.29
195.999	86
196.218	66.36
196.436	77.13
196.655	60.55
196.874	72.64
197.093	86.77
197.312	77.24
197.531	91.05
197.75	91.22
197.969	96.03
198.188	101.39
198.407	94.42
198.625	111.09
198.844	120.59
199.063	118.39
199.282	111.49
199.501	124.28
199.719	130.32
199.938	95.5
200.157	79.63
200.376	77.19
200.594	82.8
200.813	109.26
201.032	83.52
201.251	89.62
201.469	86.82
201.688	95.33
201.907	87.45
202.125	106.97
202.344	170.97
202.563	203.03
202.781	182.37
203	225.79
203.218	204.17
203.437	201.06
203.656	204.68
203.874	187.02
204.093	184.15
204.311	187.77
204.53	187.74
204.748	142.9
204.967	148.84
205.185	171.11
205.404	164.12
205.622	144.97
205.841	149.18
206.059	140.61
206.278	131.18
206.496	128.02
206.715	136.23
206.933	109.83
207.151	103.39
207.37	125.68
207.588	111.36
207.806	101.83
208.025	90.46
208.243	86.17
208.461	92.59
208.68	95.39
208.898	103.58
209.116	97.81
209.335	102.89
209.553	136.46
209.771	130.03
209.989	116.11
210.208	99.3
210.426	107.86
210.644	100.6
210.862	83.89
211.081	81.17
211.299	68.33
211.517	73.3
211.735	75.22
211.953	78.69
212.171	81.57
212.39	82.33
212.608	89.2
212.826	91.46
213.044	102.96
213.262	105.26
213.48	116.34
213.698	115.13
213.916	123.65
214.134	107.15
214.352	106.65
214.57	102.45
214.788	116.04
215.006	127.74
215.224	135
215.442	156.33
215.66	143.07
215.878	134.83
216.096	169.74
216.314	157.11
216.532	189.54
216.75	159.27
216.968	193.3
217.185	172.48
217.403	193.08
217.621	246.45
217.839	225.6
218.057	297.56
218.275	278.53
218.492	274.23
218.71	270.78
218.928	274.43
219.146	433.68
219.363	298.8
219.581	338.61
219.799	386.76
220.017	313.7
220.234	295.79
220.452	327.45
220.67	358.54
220.887	539.09
221.105	742.29
221.323	10890.18
221.54	818.74
221.758	4463.93
221.976	1782.09
222.193	335
222.411	424.31
222.629	596.14
222.846	771.59
223.064	-658.89
223.281	894.59
223.499	589.92
223.716	947.84
223.934	-941.88
224.151	-300.77
224.369	-181.95
224.586	-84.74
224.804	-50.71
225.021	-62.58
225.239	-66.42
225.456	-90.33
225.674	-89.97
225.891	-103.84
226.108	-165.42
226.326	-158.24
226.543	-99.73
226.76	-92.51
226.978	-70.15
227.195	-74.03
227.413	-75.78
227.63	-40.05
227.847	-32.06
228.064	-14.95
228.282	-13.42
228.499	-5.25
228.716	-6.35
228.934	-7.92
229.151	-6.19
229.368	-7.3
229.585	-8.96
229.802	-3.05
230.02	-6.41
230.237	-4.31
230.454	-4.34
230.671	-5.67
230.888	-8.76
231.105	-10.24
231.323	-16.03
231.54	-27.97
231.757	-37.07
231.974	-40.93
232.191	-52.49
232.408	-51.95
232.625	-52.84
232.842	-53.57
233.059	-50.37
233.276	-53.87
233.493	-53.1
233.71	-35.72
233.927	-15.38
234.144	-14.27
234.361	-12.09
234.578	-16.11
234.795	-13.49
235.012	-15.02
235.229	-21.99
235.446	-22.05
235.663	-23.88
235.879	-24.57
236.096	-31.74
236.313	-42.81
236.53	-33.91
236.747	-38.2
236.964	-36.83
237.181	-44.84
237.397	-47.46
237.614	-39.88
237.831	-36.33
238.048	-30.47
238.264	-36.75
238.481	-38.51
238.698	-27.03
238.915	-25.5
239.131	-18.88
239.348	-19.94
239.565	-14.86
239.781	-12.96
239.998	-13.07
240.215	-14.05
240.431	-13.71
240.648	-4.38
240.865	-0.56
241.081	-0.52
241.298	0.15
241.514	1.16
241.731	4.24
241.947	4.55
242.164	5.2
242.38	6.33
242.597	7.81
242.814	9.77
243.03	7.82
243.246	8.04
243.463	7.14
243.679	4.44
243.896	4.68
244.112	3.43
244.329	1.69
244.545	1.83
244.762	2.86
244.978	3.01
245.194	-0.17
245.411	1.61
245.627	0.42
245.843	0.14
246.06	2.13
246.276	3.58
246.492	5.83
246.709	6.65
246.925	6.86
247.141	6.28
247.357	6.74
247.574	7.08
247.79	7.09
248.006	7.43
248.222	7.46
248.439	7.31
248.655	5.92
248.871	4.9
249.087	5.1
249.303	3.82
249.519	2.23
249.736	-0.42
249.952	-0.48
250.168	-0.86
250.384	-1.46
250.6	-0.59
250.816	-1.72
251.032	-0.72
251.248	-3.35
251.464	-6.1
251.68	-6.83
251.896	-6.74
252.112	-7.14
252.328	-6.68
252.544	-7.98
252.76	-10.06
252.976	-12.61
253.192	-11.08
253.408	-10.19
253.624	-8.03
253.84	-6.25
254.056	-4.46
254.272	-5.08
254.487	-5.14
254.703	-7.43
254.919	-9.62
255.135	-7.64
255.351	-7.4
255.567	-8.76
255.782	-11.03
255.998	-10.92
256.214	-13.54
256.43	-9.57
256.646	-8.27
256.861	-5.49
257.077	-7.27
257.293	-3.88
257.508	-1.67
257.724	-0.03
257.94	2.4
258.155	2.11
258.371	1.36
258.587	1.76
258.802	0.95
259.018	2.21
259.234	2.5
259.449	3.96
259.665	4.5
259.88	3.85
260.096	4.18
260.312	3.98
260.527	4.73
260.743	4.72
260.958	4.89
261.174	4.78
261.389	4.45
261.605	4.76
261.82	4
262.036	3.35
262.251	2.53
262.466	3.56
262.682	3.41
262.897	0.84
263.113	1.15
263.328	1.93
263.543	-1.03
263.759	-4.39
263.974	-6.97
264.189	-8.75
264.405	-10.77
264.62	-10.2
264.835	-11.01
265.051	-9.34
265.266	-7.43
265.481	-7.31
265.696	-6.78
265.912	-2.11
266.127	1.07
266.342	2.23
266.557	4.52
266.773	5.06
266.988	5.73
267.203	4.66
267.418	2.68
267.633	3.74
267.848	4.41
268.064	4.7
268.279	4.36
268.494	4.16
268.709	4.42
268.924	4.21
269.139	3.99
269.354	5.03
269.569	5.58
269.784	5.93
269.999	5.11
270.214	4.02
270.429	3.18
270.644	3.68
270.859	4.41
271.074	3.19
271.289	3.16
271.504	4.21
271.719	4.6
271.934	2.43
272.149	3.67
272.363	3.92
272.578	6.16
272.793	5.09
273.008	3.32
273.223	3.62
273.438	3.74
273.653	3.6
273.867	2.52
274.082	1.77
274.297	3.43
274.512	1.3
274.726	-0.66
274.941	-3.78
275.156	-2.84
275.371	-0.3
275.585	-0.64
275.8	1.23
276.015	0.82
276.229	2.56
276.444	1.81
276.659	1.23
276.873	2.26
277.088	2.5
277.302	3.51
277.517	4.57
277.732	3.19
277.946	1.68
278.161	0.1
278.375	0.94
278.59	-0.03
278.804	-0.67
279.019	-0.85
279.233	-0.62
279.448	-0.46
279.662	-1.09
279.877	-1.35
280.091	-0.67
280.306	-0.18
280.52	0.26
280.735	-0.12
280.949	-0.77
281.163	-0.31
281.378	0.9
281.592	1.49
281.806	2.79
282.021	3.03
282.235	2.61
282.449	1.89
282.664	2.55
282.878	2.53
283.092	2.63
283.307	3.66
283.521	3.9
283.735	2.98
283.949	3.02
284.164	3.32
284.378	3.96
284.592	3.85
284.806	4.38
285.02	4.49
285.234	5.61
285.449	6.39
285.663	6.35
285.877	6.17
286.091	5.93
286.305	5.92
286.519	5.54
286.733	4.44
286.947	5.25
287.161	6.17
287.375	5.58
287.589	4.8
287.803	4.32
288.017	4.84
288.231	5.13
288.445	5.43
288.659	4.59
288.873	4.52
289.087	4.69
289.301	3.33
289.515	2.66
289.729	2.95
289.943	1.88
290.157	0.13
290.371	-0.55
290.584	-0.63
290.798	-0.37
291.012	0.48
291.226	-0.33
291.44	-0.07
291.654	0.6
291.867	0.48
292.081	1.63
292.295	3.13
292.509	3.95
292.722	4.21
292.936	4.07
293.15	5.15
293.364	4.51
293.577	5.28
293.791	5.28
294.005	5.12
294.218	4.84
294.432	3.33
294.645	2.62
294.859	4.57
295.073	4.71
295.286	5.3
295.5	5.71
295.713	5.85
295.927	6.42
296.14	6.23
296.354	6.45
296.568	6.63
296.781	7.5
296.994	7.74
297.208	6.1
297.421	6.05
297.635	6.12
297.848	5.76
298.062	6.6
298.275	6.97
298.489	7.16
298.702	6.87
298.915	6.45
299.129	6.64
299.342	7.27
299.555	8.43
299.769	8.97
299.982	8.48
300.195	7.36
300.409	6.06
300.622	5.09
300.835	5.1
301.048	5.27
301.262	5.31
301.475	4.18
301.688	3.12
301.901	3.31
302.115	2.92
302.328	4.06
302.541	4.71
302.754	5.17
302.967	4.93
303.18	4.9
303.393	5.35
303.607	4.79
303.82	5.24
304.033	6.96
304.246	7.07
304.459	6.96
304.672	6.33
304.885	6.87
305.098	7.18
305.311	7.96
305.524	7.59
305.737	5.62
305.95	7.28
306.163	7.61
306.376	5.52
306.589	5.05
306.802	3.14
307.015	1.52
307.228	1.45
307.44	1.16
307.653	1.23
307.866	2.2
308.079	4
308.292	5.01
308.505	4.3
308.718	6.02
308.93	7.2
309.143	8.41
309.356	8.79
309.569	9.73
309.781	10.45
309.994	10.92
310.207	10.83
310.42	10.19
310.632	9.14
310.845	9.44
311.058	9.26
311.27	8.31
311.483	8.86
311.696	10.17
311.908	9.67
312.121	8.94
312.333	8.37
312.546	8.55
312.759	9.04
312.971	9.25
313.184	9.01
313.396	7.65
313.609	6.19
313.821	5.53
314.034	4.05
314.246	2.56
314.459	3.48
314.671	2.94
314.884	2.96
315.096	2.28
315.309	0.66
315.521	1.99
315.733	2.54
315.946	3.84
316.158	4.44
316.371	6.23
316.583	6.05
316.795	5.96
317.008	6.63
317.22	7.6
317.432	7.86
317.644	8.46
317.857	8.11
318.069	9.32
318.281	8.79
318.494	8.19
318.706	7.05
318.918	7.46
319.13	7.49
319.342	8.64
319.555	7.17
319.767	7.25
319.979	7.98
320.191	9.36
320.403	8.88
320.615	9.05
320.827	8.14
321.039	8.49
321.252	10.76
321.464	10.88
321.676	9.25
321.888	10.33
322.1	10.89
322.312	11.93
322.524	9.15
322.736	10
322.948	10.48
323.16	11.44
323.372	11.64
323.584	10.18
323.796	9.41
324.007	9.86
324.219	9.41
324.431	9.36
324.643	8.29
324.855	9.57
325.067	9.24
325.279	9.49
325.491	10.76
325.702	9.99
325.914	10.06
326.126	10.5
326.338	12.2
326.55	13.18
326.761	13.82
326.973	14.7
327.185	15.7
327.396	16.23
327.608	16.57
327.82	16.1
328.032	18.25
328.243	18.89
328.455	20.46
328.666	19.35
328.878	20.04
329.09	20.49
329.301	21.36
329.513	20.26
329.725	19.37
329.936	19.88
330.148	19.09
330.359	17.81
330.571	17.94
330.782	17.53
330.994	19.19
331.205	18.98
331.417	19.61
331.628	18.95
331.84	18.76
332.051	20.06
332.262	20.14
332.474	20.71
332.685	21.65
332.897	22.57
333.108	22.15
333.319	21.41
333.531	21.88
333.742	22.15
333.953	22.98
334.165	23.54
334.376	23.5
334.587	24.45
334.799	26.28
335.01	25.11
335.221	25.91
335.432	26.77
335.644	27.85
335.855	27.97
336.066	28.46
336.277	28.36
336.488	29.18
336.7	28.59
336.911	28.49
337.122	28.01
337.333	30.05
337.544	29.22
337.755	28.23
337.966	27.68
338.177	27.84
338.388	27.38
338.599	27.5
338.811	26.84
339.022	27.91
339.233	27.55
339.444	26.68
339.655	25.52
339.866	25.24
340.076	25.36
340.287	24.06
340.498	23.78
340.709	23.41
340.92	24.15
341.131	24.95
341.342	24.83
341.553	24.47
341.764	26.15
341.975	26.34
342.185	27.06
342.396	27.16
342.607	28.09
342.818	27.93
343.029	28.35
343.239	27.44
343.45	26.96
343.661	26.6
343.872	26.96
344.082	26.58
344.293	26.94
344.504	26.83
344.714	27.99
344.925	28.12
345.136	28.16
345.346	27.45
345.557	27.47
345.768	28.11
345.978	28.15
346.189	28.89
346.399	28.35
346.61	27.36
346.821	26.95
347.031	27.09
347.242	27.56
347.452	26.99
347.663	27.02
347.873	26.76
348.084	25.67
348.294	26.01
348.504	25.43
348.715	25.53
348.925	25.85
349.136	26.08
349.346	25.87
349.557	25.27
349.767	25.52
349.977	26.02
350.188	26.16
350.398	26.73
350.608	27.24
350.819	27.04
351.029	27.12
351.239	26.59
351.449	26.93
351.66	25.65
351.87	25.84
352.08	25.9
352.29	26.51
352.501	26.8
352.711	27.76
352.921	27.41
353.131	27.88
353.341	27.71
353.552	28.5
353.762	28.76
353.972	29.26
354.182	29.13
354.392	28.76
354.602	28.3
354.812	28.28
355.022	27.23
355.232	26.86
355.442	27.18
355.652	27.42
355.862	27.54
356.072	26.83
356.282	27.8
356.492	28.21
356.702	29.03
356.912	28.86
357.122	29.1
357.332	29.46
357.542	29.35
357.752	28.51
357.962	28.26
358.171	28.39
358.381	29.17
358.591	28.47
358.801	27.84
359.011	27.59
359.221	28.11
359.43	27.92
359.64	27.66
359.85	27.19
360.06	27.53
360.269	27.55
360.479	27.43
360.689	26.87
360.899	27.17
361.108	27.48
361.318	27.46
361.528	26.91
361.737	27.08
361.947	27.07
362.156	27.7
362.366	27.44
362.576	27.41
362.785	27.35
362.995	27.96
363.204	27.7
363.414	27.46
363.623	27.01
363.833	26.94
364.042	26.76
364.252	26.78
364.461	26.79
364.671	27.52
364.88	27.53
365.09	27.65
365.299	27.36
365.509	27.15
365.718	26.99
365.927	27.54
366.137	27.39
366.346	27.25
366.555	27.05
366.765	25.89
366.974	25.14
367.183	24.77
367.393	24.58
367.602	24.13
367.811	24.18
368.021	23.9
368.23	23.78
368.439	24.22
368.648	24.44
368.857	24.54
369.067	24.89
369.276	24.96
369.485	24.71
369.694	24.52
369.903	23.95
370.112	23.38
370.321	24.06
370.531	23.95
370.74	23.76
370.949	23.57
371.158	23.41
371.367	23.75
371.576	23.97
371.785	24.13
371.994	24.15
372.203	24.67
372.412	25.1
372.621	24.82
372.83	24.65
373.039	24.88
373.248	24.96
373.457	24.61
373.666	24.27
373.874	23.94
374.083	23.86
374.292	24.12
374.501	23.51
374.71	22.89
374.919	23.1
375.128	23.41
375.336	22.94
375.545	22.49
375.754	22.87
375.963	23.67
376.171	23.68
376.38	24.01
376.589	23.74
376.798	23.79
377.006	24.21
377.215	23.35
377.424	22.87
377.632	22.81
377.841	23.1
378.05	23.02
378.258	22.44
378.467	21.9
378.675	21.88
378.884	21.06
379.093	21
379.301	21.01
379.51	21.43
379.718	20.94
379.927	21.1
380.135	21.38
380.344	21.37
380.552	20.8
380.761	20.96
380.969	20.57
381.177	21.08
381.386	20.76
381.594	20.98
381.803	21.03
382.011	21.29
382.219	21.24
382.428	20.94
382.636	20.97
382.845	21.84
383.053	22.48
383.261	22.74
383.469	22.84
383.678	23.5
383.886	23.23
384.094	23.17
384.302	23.33
384.511	23.4
384.719	22.84
384.927	22.52
385.135	22
385.343	21.05
385.552	21.12
385.76	20.43
385.968	19.99
386.176	19.61
386.384	19.31
386.592	19.23
386.8	18.54
387.008	18.75
387.216	19.16
387.424	19
387.633	19.33
387.841	18.83
388.049	19.03
388.257	18.86
388.465	18.35
388.672	17.87
388.88	17.45
389.088	17.6
389.296	17.08
389.504	16.44
389.712	16.22
389.92	16.19
390.128	16.06
390.336	16.21
390.544	16.4
390.751	16.45
390.959	16.55
391.167	16.82
391.375	16.71
391.583	17
391.79	16.95
391.998	17.04
392.206	17.03
392.414	16.8
392.621	16.53
392.829	16.32
393.037	16.95
393.244	17.26
393.452	17.02
393.66	17.14
393.867	16.93
394.075	17.25
394.283	17.3
394.49	16.92
394.698	17.05
394.905	17.06
395.113	16.98
395.32	16.62
395.528	16.21
395.735	16.14
395.943	15.99
396.15	15.85
396.358	15.34
396.565	15.11
396.773	15.35
396.98	15.45
397.188	15.42
397.395	15.27
397.602	14.97
397.81	15.29
398.017	15.1
398.225	15.07
398.432	15.16
398.639	15.31
398.847	15.59
399.054	15.64
399.261	15.7
399.468	15.86
399.676	15.87
399.883	15.89
400.09	15.45
400.297	15.18
400.505	14.9
400.712	14.72
400.919	14.32
401.126	13.88
401.333	13.64
401.54	13.76
401.748	13.58
401.955	13.53
402.162	13.68
402.369	13.76
402.576	14.31
402.783	14.47
402.99	14.53
403.197	14.91
403.404	14.81
403.611	14.59
403.818	14.37
404.025	14.26
404.232	14.28
404.439	14.31
404.646	14.4
404.853	14.35
405.06	14.13
405.267	14.06
405.474	13.82
405.681	14.11
405.887	14.2
406.094	13.89
406.301	14.06
406.508	13.93
406.715	13.59
406.922	13.3
407.128	13.26
407.335	13.54
407.542	13.68
407.749	13.92
407.955	13.77
408.162	14.06
408.369	14.13
408.575	13.94
408.782	14.33
408.989	14.54
409.195	15.14
409.402	14.88
409.609	14.87
409.815	14.49
410.022	14.45
410.228	14.41
410.435	14.38
410.642	14.73
410.848	14.49
411.055	14.11
411.261	13.98
411.468	13.62
411.674	13.8
411.881	13.82
412.087	14
412.294	13.91
412.5	13.86
412.706	13.86
412.913	13.36
413.119	13.62
413.326	13.99
413.532	14.18
413.738	14.29
413.945	14.06
414.151	14.21
414.357	14.38
414.564	14.5
414.77	14.31
414.976	14.23
415.182	14.41
415.389	14.43
415.595	14.16
415.801	14.05
416.007	14.11
416.214	14.19
416.42	14.23
416.626	14.24
416.832	14.15
417.038	14.37
417.244	14.24
417.45	14.28
417.657	14.22
417.863	14.1
418.069	14.17
418.275	14.02
418.481	14.07
418.687	13.95
418.893	13.93
419.099	14.03
419.305	13.98
419.511	13.89
419.717	13.81
419.923	13.78
420.129	13.89
420.335	13.83
420.541	13.95
420.746	13.81
420.952	13.73
421.158	13.79
421.364	13.6
421.57	13.51
421.776	13.52
421.982	13.52
422.187	13.38
422.393	13.38
422.599	13.4
422.805	13.26
423.01	13.48
423.216	13.45
423.422	13.31
423.628	13.35
423.833	13.45
424.039	13.61
424.245	13.59
424.45	13.66
424.656	13.72
424.862	13.74
425.067	13.68
425.273	13.58
425.478	13.53
425.684	13.5
425.889	13.35
426.095	13.42
426.301	13.15
426.506	13.1
426.712	13.24
426.917	13.14
427.123	12.89
427.328	12.95
427.533	12.86
427.739	12.9
427.944	12.99
428.15	13.05
428.355	12.81
428.561	12.87
428.766	13.14
428.971	12.93
429.177	13.02
429.382	13.18
429.587	13.01
429.793	12.97
429.998	13
430.203	12.85
430.408	13.13
430.614	13.04
430.819	12.98
431.024	12.75
431.229	12.85
431.434	12.62
431.64	12.58
431.845	12.81
432.05	12.82
432.255	12.83
432.46	12.96
432.665	12.73
432.87	12.85
433.076	12.79
433.281	12.65
433.486	12.59
433.691	12.53
433.896	12.63
434.101	12.55
434.306	12.44
434.511	12.4
434.716	12.29
434.921	12.39
435.126	12.19
435.331	12.34
435.535	12.49
435.74	12.58
435.945	12.85
436.15	12.79
436.355	12.78
436.56	12.87
436.765	12.97
436.97	13.12
437.174	13.21
437.379	13.36
437.584	13.51
437.789	13.46
437.993	13.43
438.198	13.29
438.403	13.28
438.608	13.34
438.812	13.38
439.017	13.23
439.222	13.22
439.426	13.05
439.631	13.07
439.836	13.01
440.04	13.15
440.245	13.16
440.45	13.1
440.654	13.15
440.859	13.12
441.063	13.11
441.268	13.08
441.472	12.95
441.677	13.11
441.881	13.1
442.086	13.21
442.29	12.91
442.495	12.97
442.699	12.96
442.904	12.89
443.108	12.73
443.312	12.77
443.517	12.81
443.721	12.71
443.925	12.71
444.13	12.72
444.334	12.53
444.538	12.71
444.743	12.64
444.947	12.7
445.151	12.58
445.356	12.83
445.56	12.92
445.764	13.17
445.968	13.24
446.173	13.18
446.377	13.15
446.581	13.07
446.785	12.99
446.989	12.96
447.193	12.89
447.398	13.05
447.602	12.95
447.806	12.69
448.01	12.49
448.214	12.58
448.418	12.38
448.622	12.17
448.826	12.08
449.03	12.3
449.234	12.27
449.438	12.34
449.642	12.08
449.846	11.95
450.05	12.03
450.254	12.04
450.458	11.77
450.662	11.84
450.866	12
451.069	12.24
451.273	11.87
451.477	11.91
451.681	11.84
451.885	12.11
452.089	12.15
452.292	12.16
452.496	12.04
452.7	12.2
452.904	12.28
453.107	12.24
453.311	12.2
453.515	12.35
453.719	12.28
453.922	12.16
454.126	11.96
454.33	11.93
454.533	11.83
454.737	11.79
454.94	11.71
455.144	11.77
455.348	11.88
455.551	11.76
455.755	11.75
455.958	11.88
456.162	12.07
456.365	12.3
456.569	12.31
456.772	12.44
456.976	12.73
457.179	12.72
457.383	12.6
457.586	12.59
457.79	12.68
457.993	12.69
458.196	12.5
458.4	12.59
458.603	12.44
458.807	12.5
459.01	12.5
459.213	12.43
459.417	12.53
459.62	12.48
459.823	12.45
460.026	12.38
460.23	12.4
460.433	12.43
460.636	12.38
460.839	12.39
461.042	12.37
461.246	12.44
461.449	12.26
461.652	12.17
461.855	12.16
462.058	12.04
462.261	12.18
462.464	12.15
462.668	12.24
462.871	12.17
463.074	12.16
463.277	12.33
463.48	12.08
463.683	12.05
463.886	12.15
464.089	12.23
464.292	12.4
464.495	12.31
464.698	12.24
464.901	12.3
465.104	12.2
465.306	12.27
465.509	12.05
465.712	12.17
465.915	12.31
466.118	12.26
466.321	12.21
466.524	12.18
466.726	12.09
466.929	12.02
467.132	11.93
467.335	11.86
467.538	11.86
467.74	11.75
467.943	11.67
468.146	11.82
468.348	11.97
468.551	12.13
468.754	12.1
468.956	12.1
469.159	12.17
469.362	12.28
469.564	12.51
469.767	12.5
469.969	12.74
470.172	12.89
470.375	12.74
470.577	12.74
470.78	12.53
470.982	12.69
471.185	12.77
471.387	12.82
471.59	12.66
471.792	12.5
471.995	12.45
472.197	12.35
472.399	12.12
472.602	12.12
472.804	11.97
473.007	12.1
473.209	12.07
473.411	11.93
473.614	11.93
473.816	11.88
474.018	11.94
474.22	11.97
474.423	11.96
474.625	12.19
474.827	12.14
475.03	12.06
475.232	12.1
475.434	12.07
475.636	12.17
475.838	12.15
476.04	12.2
476.243	12.05
476.445	11.95
476.647	11.91
476.849	11.87
477.051	11.86
477.253	11.86
477.455	11.6
477.657	11.54
477.859	11.58
478.061	11.47
478.263	11.51
478.465	11.82
478.667	11.84
478.869	11.89
479.071	11.89
479.273	12.11
479.475	12.17
479.677	12.34
479.879	12.44
480.081	12.4
480.283	12.48
480.485	12.48
480.686	12.44
480.888	12.51
481.09	12.49
481.292	12.54
481.494	12.42
481.695	12.49
481.897	12.57
482.099	12.56
482.301	12.59
482.502	12.66
482.704	12.69
482.906	12.72
483.107	12.77
483.309	12.79
483.511	12.78
483.712	12.79
483.914	12.74
484.115	12.75
484.317	12.78
484.519	12.78
484.72	12.75
484.922	12.74
485.123	12.74
485.325	12.69
485.526	12.69
485.728	12.69
485.929	12.68
486.131	12.66
486.332	12.57
486.534	12.51
486.735	12.52
486.936	12.54
487.138	12.59
487.339	12.48
487.541	12.55
487.742	12.54
487.943	12.54
488.144	12.56
488.346	12.56
488.547	12.61
488.748	12.59
488.95	12.61
489.151	12.59
489.352	12.52
489.553	12.56
489.755	12.51
489.956	12.52
490.157	12.55
490.358	12.5
490.559	12.62
490.76	12.58
490.961	12.66
491.163	12.7
491.364	12.69
491.565	12.66
491.766	12.71
491.967	12.69
492.168	12.72
492.369	12.69
492.57	12.73
492.771	12.64
492.972	12.66
493.173	12.53
493.374	12.47
493.575	12.5
493.776	12.5
493.976	12.4
494.177	12.29
494.378	12.3
494.579	12.34
494.78	12.27
494.981	12.36
495.182	12.34
495.382	12.44
495.583	12.35
495.784	12.35
495.985	12.51
496.185	12.51
496.386	12.64
496.587	12.58
496.788	12.5
496.988	12.52
497.189	12.51
497.39	12.65
497.59	12.7
497.791	12.75
497.992	12.74
498.192	12.67
498.393	12.72
498.593	12.75
498.794	12.64
498.994	12.71
499.195	12.56
499.395	12.59
499.596	12.43
499.796	12.49
499.997	12.66
500.197	12.77
500.398	12.76
500.598	12.73
500.799	12.69
500.999	12.82
501.199	12.69
501.4	12.86
501.6	12.91
501.801	12.95
502.001	12.9
502.201	12.77
502.402	12.7
502.602	12.62
502.802	12.64
503.002	12.72
503.203	12.79
503.403	12.95
503.603	13.11
503.803	13.13
504.003	13.23
504.204	13.23
504.404	13.38
504.604	13.47
504.804	13.48
505.004	13.56
505.204	13.5
505.404	13.53
505.604	13.59
505.804	13.54
506.005	13.52
506.205	13.6
506.405	13.71
506.605	13.71
506.805	13.79
507.005	13.93
507.204	14.11
507.404	14.27
507.604	14.31
507.804	14.27
508.004	14.29
508.204	14.4
508.404	14.41
508.604	14.45
508.804	14.48
509.003	14.69
509.203	14.75
509.403	14.77
509.603	14.73
509.803	14.86
510.002	14.91
510.202	15.07
510.402	15.02
510.602	15.07
510.801	15.09
511.001	15.1
511.201	15.04
511.4	15.05
511.6	14.94
511.8	15.06
511.999	14.95
512.199	15.08
512.398	15.05
512.598	15.27
512.797	15.36
512.997	15.42
513.197	15.49
513.396	15.45
513.596	15.58
513.795	15.85
513.994	15.8
514.194	16.04
514.393	16.19
514.593	16.17
514.792	16.13
514.992	16.16
515.191	16.27
515.39	16.41
515.59	16.43
515.789	16.51
515.988	16.59
516.188	16.77
516.387	16.91
516.586	16.87
516.786	17.05
516.985	17.11
517.184	17.24
517.383	17.33
517.582	17.45
517.782	17.66
517.981	17.61
518.18	17.76
518.379	17.89
518.578	17.84
518.777	17.89
518.976	17.94
519.176	18.04
519.375	18.11
519.574	18.16
519.773	18.11
519.972	18.12
520.171	18.31
520.37	18.28
520.569	18.41
520.768	18.48
520.967	18.63
521.166	18.8
521.365	18.97
521.564	19.11
521.762	19.25
521.961	19.31
522.16	19.49
522.359	19.69
522.558	19.93
522.757	19.86
522.956	19.99
523.154	20.15
523.353	20.17
523.552	20.19
523.751	20.26
523.949	20.38
524.148	20.64
524.347	20.65
524.546	20.66
524.744	20.65
524.943	20.78
525.142	20.85
525.34	20.94
525.539	21.12
525.737	21.29
525.936	21.34
526.135	21.45
526.333	21.56
526.532	21.72
526.73	21.92
526.929	21.96
527.127	22.05
527.326	22.24
527.524	22.38
527.723	22.47
527.921	22.53
528.12	22.71
528.318	22.79
528.516	22.83
528.715	22.91
528.913	22.96
529.112	23.01
529.31	23.15
529.508	23.22
529.707	23.27
529.905	23.3
530.103	23.39
530.301	23.37
530.5	23.49
530.698	23.6
530.896	23.66
531.094	23.72
531.293	23.98
531.491	23.91
531.689	23.92
531.887	23.89
532.085	24.07
532.283	24.07
532.481	24.2
532.68	24.19
532.878	24.33
533.076	24.43
533.274	24.5
533.472	24.46
533.67	24.62
533.868	24.7
534.066	24.89
534.264	24.95
534.462	25.03
534.66	25.06
534.858	25.08
535.056	25.03
535.253	25
535.451	25.09
535.649	25.29
535.847	25.31
536.045	25.43
536.243	25.49
536.441	25.64
536.638	25.76
536.836	25.93
537.034	26.1
537.232	26.27
537.43	26.4
537.627	26.35
537.825	26.3
538.023	26.3
538.22	26.39
538.418	26.29
538.616	26.19
538.813	26.26
539.011	26.27
539.209	26.31
539.406	26.4
539.604	26.57
539.801	26.75
539.999	27.01
540.196	27.24
540.394	27.32
540.591	27.47
540.789	27.64
540.986	27.7
541.184	27.73
541.381	27.81
541.579	27.82
541.776	27.86
541.974	27.93
542.171	27.9
542.368	28.04
542.566	28.07
542.763	28.25
542.96	28.29
543.158	28.35
543.355	28.48
543.552	28.64
543.75	28.72
543.947	28.81
544.144	28.89
544.341	29
544.539	28.9
544.736	28.99
544.933	29.01
545.13	28.99
545.327	29.02
545.524	29.06
545.722	28.94
545.919	28.93
546.116	28.97
546.313	28.94
546.51	28.81
546.707	28.79
546.904	28.83
547.101	28.72
547.298	28.85
547.495	28.97
547.692	29.07
547.889	29.18
548.086	29.37
548.283	29.36
548.48	29.29
548.677	29.52
548.874	29.71
549.07	29.71
549.267	29.89
549.464	29.91
549.661	29.78
549.858	29.79
550.055	29.86
550.251	29.72
550.448	29.8
550.645	30.05
550.842	30.05
551.038	30.08
551.235	30.16
551.432	30.09
551.628	30.16
551.825	30.29
552.022	30.35
552.218	30.34
552.415	30.53
552.612	30.66
552.808	30.79
553.005	30.81
553.201	30.74
553.398	30.72
553.594	30.83
553.791	30.92
553.987	31.06
554.184	31.02
554.38	31.07
554.577	31.25
554.773	31.38
554.97	31.3
555.166	31.34
555.362	31.48
555.559	31.72
555.755	31.66
555.952	31.67
556.148	31.62
556.344	31.91
556.541	31.99
556.737	31.87
556.933	31.71
557.129	31.79
557.326	32.15
557.522	32.44
557.718	32.35
557.914	32.67
558.11	32.67
558.307	32.86
558.503	32.59
558.699	32.52
558.895	32.52
559.091	32.55
559.287	32.71
559.483	32.55
559.679	32.44
559.876	32.38
560.072	32.4
560.268	32.38
560.464	32.65
560.66	32.89
560.856	32.91
561.052	33.24
561.247	33.19
561.443	33.19
561.639	33.22
561.835	33.26
562.031	33.5
562.227	33.44
562.423	33.58
562.619	33.34
562.815	33.32
563.01	33.21
563.206	33.01
563.402	33.12
563.598	32.99
563.793	33.13
563.989	33.16
564.185	33.04
564.381	33.04
564.576	33.08
564.772	33.13
564.968	33.19
565.163	33.46
565.359	33.69
565.555	33.88
565.75	34.08
565.946	33.97
566.141	33.98
566.337	34.06
566.532	34.06
566.728	34.17
566.923	34.19
567.119	34.21
567.314	34.08
567.51	33.94
567.705	33.76
567.901	33.79
568.096	33.86
568.292	33.91
568.487	34.24
568.682	34.37
568.878	34.22
569.073	34.17
569.268	34.24
569.464	34.34
569.659	34.32
569.854	34.45
570.05	34.53
570.245	34.75
570.44	34.73
570.635	34.58
570.831	34.5
571.026	34.63
571.221	34.72
571.416	34.83
571.611	34.81
571.806	35.05
572.002	35.2
572.197	35.36
572.392	35.25
572.587	35.21
572.782	35.19
572.977	35.29
573.172	35.35
573.367	35.44
573.562	35.35
573.757	35.49
573.952	35.4
574.147	35.32
574.342	35.3
574.537	35.27
574.732	35.49
574.927	35.39
575.121	35.41
575.316	35.49
575.511	35.63
575.706	35.64
575.901	35.64
576.096	35.69
576.29	35.7
576.485	35.59
576.68	35.58
576.875	35.66
577.069	35.92
577.264	36.1
577.459	36.1
577.654	36.05
577.848	35.96
578.043	36.03
578.238	36.04
578.432	35.86
578.627	35.92
578.821	36.05
579.016	35.69
579.21	35.72
579.405	35.62
579.6	35.66
579.794	35.66
579.989	35.95
580.183	35.73
580.378	35.63
580.572	35.94
580.766	35.97
580.961	35.99
581.155	36.07
581.35	35.96
581.544	36.02
581.738	35.82
581.933	35.79
582.127	35.58
582.321	35.95
582.516	35.94
582.71	35.88
582.904	35.82
583.099	35.77
583.293	36.23
583.487	36.21
583.681	36.11
583.875	36.03
584.07	35.96
584.264	36.11
584.458	35.9
584.652	36.08
584.846	36.26
585.04	36.23
585.234	36.31
585.428	35.98
585.623	36.26
585.817	36.03
586.011	36.16
586.205	36.28
586.399	36.01
586.593	35.91
586.787	36.29
586.981	36.23
587.174	36.2
587.368	36.08
587.562	35.9
587.756	35.71
587.95	36.11
588.144	36.13
588.338	35.98
588.532	36.08
588.725	36.57
588.919	36.36
589.113	36.4
589.307	36.55
589.501	36.5
589.694	36.92
589.888	36.89
590.082	36.69
590.275	36.76
590.469	36.82
590.663	36.85
590.856	36.83
591.05	36.94
591.244	37.03
591.437	36.83
591.631	36.95
591.824	36.79
592.018	36.99
592.212	36.95
592.405	37.06
592.599	37.08
592.792	37.01
592.986	36.67
593.179	36.56
593.372	36.53
593.566	36.92
593.759	36.79
593.953	36.97
594.146	36.61
594.339	36.9
594.533	36.94
594.726	37.12
594.92	37.34
595.113	37.62
595.306	37.31
595.499	37.41
595.693	37.5
595.886	37.64
596.079	37.58
596.272	37.77
596.466	37.5
596.659	37.43
596.852	37.43
597.045	37.53
597.238	37.32
597.431	37.62
597.624	37.51
597.818	37.44
598.011	37.32
598.204	37.23
598.397	37.26
598.59	37.45
598.783	37.23
598.976	37.16
599.169	37.09
599.362	37.19
599.555	37.2
599.748	37.25
599.941	36.99
600.134	37.31
600.326	37.47
600.519	37.36
600.712	37.26
600.905	37.5
601.098	37.56
601.291	37.27
601.483	37.22
601.676	36.92
601.869	36.94
602.062	36.8
602.255	36.75
602.447	36.82
602.64	36.99
602.833	37.2
603.025	37.23
603.218	36.93
603.411	37.28
603.603	37.43
603.796	37.68
603.989	37.76
604.181	38.03
604.374	38.16
604.566	38.18
604.759	38
604.951	37.95
605.144	38.14
605.336	38.26
605.529	38.14
605.721	38.05
605.914	37.96
606.106	37.75
606.299	37.6
606.491	37.46
606.683	37.24
606.876	37.45
607.068	37.36
607.26	37.16
607.453	37.49
607.645	37.47
607.837	37.59
608.03	37.54
608.222	37.81
608.414	37.82
608.606	37.98
608.799	37.84
608.991	38.01
609.183	38.29
609.375	38.38
609.567	38.34
609.759	38.39
609.952	38.62
610.144	38.88
610.336	39.02
610.528	39.25
610.72	39.32
610.912	39.7
611.104	39.69
611.296	39.47
611.488	39.53
611.68	39.31
611.872	39.62
612.064	39.3
612.256	38.77
612.448	38.43
612.64	38.42
612.832	38.37
613.023	38.3
613.215	38.07
613.407	38.21
613.599	38.2
613.791	38.33
613.983	38.12
614.174	38.45
614.366	39.1
614.558	39.13
614.75	39.07
614.941	38.9
615.133	38.85
615.325	39.06
615.516	39.23
615.708	39.17
615.9	39.22
616.091	39.1
616.283	38.77
616.475	38.53
616.666	38.66
616.858	38.64
617.049	38.74
617.241	38.69
617.432	38.28
617.624	38.02
617.815	37.83
618.007	37.54
618.198	37.72
618.39	37.67
618.581	37.47
618.773	37.36
618.964	37.5
619.155	37.63
619.347	37.78
619.538	37.96
619.729	38.16
619.921	38.38
620.112	38.67
620.303	38.4
620.494	38.42
620.686	38.81
620.877	38.89
621.068	38.81
621.259	38.57
621.451	38.27
621.642	38.32
621.833	37.94
622.024	37.45
622.215	37.56
622.406	37.85
622.597	37.91
622.788	37.66
622.98	37.5
623.171	37.7
623.362	37.61
623.553	37.86
623.744	37.98
623.935	38.13
624.126	38.38
624.317	37.95
624.508	37.89
624.698	37.92
624.889	37.65
625.08	37.64
625.271	37.65
625.462	37.7
625.653	37.78
625.844	37.74
626.034	37.92
626.225	38.18
626.416	38.64
626.607	38.55
626.798	38.44
626.988	38.81
627.179	39.04
627.37	39.09
627.56	39.52
627.751	39.58
627.942	39.67
628.132	39.62
628.323	39.54
628.514	39.13
628.704	39.14
628.895	39.29
629.085	39.35
629.276	39.4
629.466	39.22
629.657	38.65
629.847	38.51
630.038	38.29
630.228	38.28
630.419	38.41
630.609	38.89
630.8	38.81
630.99	38.96
631.181	38.79
631.371	38.24
631.561	38.51
631.752	38.78
631.942	38.75
632.132	38.96
632.323	38.77
632.513	38.76
632.703	38.66
632.893	38.76
633.084	38.73
633.274	38.75
633.464	39.05
633.654	38.82
633.844	38.95
634.034	39
634.225	39.07
634.415	39.2
634.605	39.29
634.795	39.19
634.985	39.26
635.175	39.29
635.365	39.32
635.555	39.04
635.745	38.94
635.935	38.82
636.125	39.12
636.315	39.11
636.505	39.21
636.695	38.97
636.885	39.29
637.075	39.26
637.265	39.16
637.455	39.19
637.644	39.85
637.834	39.83
638.024	39.34
638.214	39.09
638.404	38.87
638.593	38.78
638.783	38.86
638.973	38.86
639.163	38.84
639.352	38.97
639.542	39.17
639.732	39.01
639.921	39.18
640.111	39.44
640.301	39.16
640.49	39.32
640.68	39.56
640.87	39.96
641.059	39.62
641.249	39.66
641.438	39.33
641.628	39.43
641.817	39.34
642.007	38.94
642.196	39.36
642.386	39.9
642.575	39.4
642.764	39.34
642.954	38.94
643.143	38.93
643.333	39
643.522	38.7
643.711	38.61
643.901	38.72
644.09	38.93
644.279	38.87
644.469	38.5
644.658	39.04
644.847	38.93
645.036	38.66
645.226	38.64
645.415	38.56
645.604	39.25
645.793	39.24
645.982	39.26
646.171	39.17
646.361	38.96
646.55	38.92
646.739	38.78
646.928	38.53
647.117	38.89
647.306	38.97
647.495	39.13
647.684	38.74
647.873	38.4
648.062	38.08
648.251	38.26
648.44	37.93
648.629	38.01
648.818	37.83
649.007	38.16
649.196	38
649.384	37.74
649.573	37.85
649.762	38.24
649.951	38.77
650.14	39.06
650.328	38.96
650.517	39.46
650.706	39.61
650.895	39.78
651.083	39.52
651.272	39.58
651.461	39.83
651.65	39.49
651.838	39.58
652.027	39.43
652.216	39.25
652.404	39.63
652.593	39.35
652.781	39.04
652.97	39.19
653.158	39.52
653.347	39.47
653.535	39.48
653.724	39.87
653.912	39.44
654.101	39.19
654.289	39.19
654.478	38.96
654.666	39.19
654.855	39.56
655.043	39.06
655.231	38.58
655.42	38.82
655.608	38.6
655.796	38.04
655.985	38.06
656.173	38.36
656.361	38.64
656.55	38.93
656.738	39
656.926	38.85
657.114	38.82
657.302	39.01
657.491	38.66
657.679	38.54
657.867	39.12
658.055	39.22
658.243	38.83
658.431	38.4
658.619	38.41
658.807	38.05
658.996	37.7
659.184	38.12
659.372	38.3
659.56	38.43
659.748	38.87
659.936	38.67
660.124	38.44
660.311	38.76
660.499	39.1
660.687	38.75
660.875	39.06
661.063	39.51
661.251	39.85
661.439	39.58
661.627	39.74
661.814	39.54
662.002	39.87
662.19	40.04
662.378	40.44
662.565	40.28
662.753	40.16
662.941	40.01
663.129	40.01
663.316	39.87
663.504	40.1
663.692	39.93
663.879	40
664.067	39.72
664.254	40.02
664.442	39.27
664.63	39.35
664.817	39.67
665.005	39.68
665.192	39.24
665.38	38.58
665.567	38.85
665.755	38.71
665.942	38.42
666.13	38.46
666.317	38.36
666.504	38.08
666.692	37.98
666.879	38.06
667.067	38.14
667.254	38.41
667.441	38.97
667.629	38.49
667.816	38.91
668.003	38.74
668.19	38.36
668.378	38.25
668.565	38.55
668.752	38.49
668.939	38.69
669.127	38.5
669.314	38.45
669.501	37.95
669.688	38.41
669.875	38.31
670.062	38.7
670.249	38.6
670.436	38.81
670.623	39.12
670.81	39.48
670.997	39.08
671.184	39.16
671.371	39.42
671.558	39.77
671.745	39.49
671.932	39.09
672.119	38.85
672.306	38.99
672.493	38.96
672.68	38.4
672.867	38.04
673.054	38.15
673.24	38.31
673.427	38.01
673.614	37.86
673.801	38.19
673.988	38.38
674.174	38.11
674.361	38.31
674.548	38.28
674.734	39.16
674.921	39.31
675.108	39.58
675.294	39.71
675.481	39.67
675.668	39.81
675.854	39.32
676.041	39.14
676.227	39.58
676.414	39
676.601	38.84
676.787	38.44
676.974	38.23
677.16	37.83
677.347	37.78
677.533	38.02
677.719	37.9
677.906	38.12
678.092	38.55
678.279	39.16
678.465	39.7
678.651	39.63
678.838	39.56
679.024	40.02
679.21	40.08
679.397	40.29
679.583	39.78
679.769	39.87
679.955	39.66
680.142	39.38
680.328	38.92
680.514	38.96
680.7	39.24
680.886	39.33
681.073	38.95
681.259	38.59
681.445	37.84
681.631	38.13
681.817	38.2
682.003	38.17
682.189	38.11
682.375	38.35
682.561	38.2
682.747	38.19
682.933	38.2
683.119	38.09
683.305	38.54
683.491	38.69
683.677	38.87
683.863	38.88
684.049	38.5
684.235	38.63
684.42	38.61
684.606	39.25
684.792	38.74
684.978	38.55
685.164	38.26
685.349	38.25
685.535	38.61
685.721	39.07
685.907	39.17
686.092	40.31
686.278	40.2
686.464	39.73
686.649	38.71
686.835	39.26
687.021	39.12
687.206	39.99
687.392	39.81
687.577	39.81
687.763	39.06
687.948	38.85
688.134	38.57
688.319	38.67
688.505	38.82
688.69	38.75
688.876	38.46
689.061	39.15
689.247	38.61
689.432	39.03
689.618	39.08
689.803	39.32
689.988	39.51
690.174	39.55
690.359	39.1
690.544	39.05
690.73	39.25
690.915	39.41
691.1	38.52
691.285	38.71
691.471	38.33
691.656	38.7
691.841	39.39
692.026	39.07
692.211	37.94
692.396	38.8
692.582	39.26
692.767	39.75
692.952	39.47
693.137	39.65
693.322	39.7
693.507	39.65
693.692	38.7
693.877	38.1
694.062	38.6
694.247	39.31
694.432	39.44
694.617	38.44
694.802	38.33
694.987	38.34
695.172	38.44
695.357	38.39
695.541	38.76
695.726	39.75
695.911	39.35
696.096	39.55
696.281	39.71
696.466	39.53
696.65	40.38
696.835	40.34
697.02	40.8
697.204	40.98
697.389	41.2
697.574	40.97
697.759	40.78
697.943	41.16
698.128	40.75
698.312	40.5
698.497	40.54
698.682	40.01
698.866	40.06
699.051	39.66
699.235	39.5
699.42	39.51
699.604	39.14
699.789	38.91
699.973	38.71
700.158	38.62
700.342	38.97
700.527	38.69
700.711	38.99
700.895	38.7
701.08	38.8
701.264	39.06
701.448	39.01
701.633	39.38
701.817	39.22
702.001	39.23
702.186	39.27
702.37	39.24
702.554	39.11
702.738	39.48
702.923	39.57
703.107	39.5
703.291	39.14
703.475	38.38
703.659	38.27
703.843	38.33
704.027	38.75
704.212	38.76
704.396	38.07
704.58	38.36
704.764	37.37
704.948	37.59
705.132	37.62
705.316	37.75
705.5	37.99
705.684	38.7
705.868	39.12
706.052	37.77
706.235	37.25
706.419	38.04
706.603	38.28
706.787	38.82
706.971	38.58
707.155	38.91
707.339	38.74
707.522	39.09
707.706	38.41
707.89	37.8
708.074	39.01
708.257	40.2
708.441	39.88
708.625	39.33
708.808	39.27
708.992	39.14
709.176	38.67
709.359	38.77
709.543	38.75
709.727	39.3
709.91	39.46
710.094	38.9
710.277	38.64
710.461	38.56
710.644	38.43
710.828	38.54
711.011	38.9
711.195	39.21
711.378	39.11
711.562	39.05
711.745	38.92
711.928	39.28
712.112	39.9
712.295	39.6
712.478	39.77
712.662	39.81
712.845	39.63
713.028	39.2
713.212	39.69
713.395	39.58
713.578	39.15
713.761	39.11
713.945	38.87
714.128	38.71
714.311	38.91
714.494	39.55
714.677	39.26
714.86	39.08
715.043	39.07
715.227	38.01
715.41	38.65
715.593	38.79
715.776	38.98
715.959	39.61
716.142	39.07
716.325	38.59
716.508	37.37
716.691	37.77
716.874	37.99
717.057	39.05
717.239	39.08
717.422	39.09
717.605	39.32
717.788	39.26
717.971	38.26
718.154	38.59
718.337	38.83
718.519	39.54
718.702	39.61
718.885	39.74
719.068	38.68
719.25	38.81
719.433	37.57
719.616	37.86
719.798	38.05
719.981	37.54
720.164	37.63
720.346	37.63
720.529	36.64
720.712	36.65
720.894	36.77
721.077	36.64
721.259	35.99
721.442	36.36
721.624	35.48
721.807	34.66
721.989	35.57
722.172	35.22
722.354	34.72
722.537	35.08
722.719	35.56
722.901	35.21
723.084	35.52
723.266	36.97
723.448	36.42
723.631	37.1
723.813	37.6
723.995	36.21
724.178	36.22
724.36	36.04
724.542	36.96
724.724	36.4
724.907	36.72
725.089	36.7
725.271	35.49
725.453	36.47
725.635	36.02
725.817	35.29
725.999	36.8
726.181	37.14
726.364	37.99
726.546	37.63
726.728	37.35
726.91	37.04
727.092	36.46
727.274	37.59
727.456	37.74
727.638	37.86
727.819	37.8
728.001	37.8
728.183	37.16
728.365	36.91
728.547	36.69
728.729	36.79
728.911	36.68
729.093	37.23
729.274	37.34
729.456	36.82
729.638	36.56
729.82	36.8
730.001	36.43
730.183	37.05
730.365	37.47
730.546	37.93
730.728	37.82
730.91	37.92
731.091	37.47
731.273	36.23
731.455	35.99
731.636	36.46
731.818	37.51
731.999	38.75
732.181	38.74
732.362	38.01
732.544	37.66
732.725	37.38
732.907	37.86
733.088	37.54
733.27	37.69
733.451	38.2
733.633	38.3
733.814	37.11
733.995	36.12
734.177	34.88
734.358	35.95
734.539	35.3
734.721	35.38
734.902	34.16
735.083	34.58
735.264	34.89
735.446	35.38
735.627	35.2
735.808	35.59
735.989	34.03
736.17	35.87
736.351	35.26
736.533	36.28
736.714	37.18
736.895	36.71
737.076	36.69
737.257	36.77
737.438	36.42
737.619	36.44
737.8	36.31
737.981	37.64
738.162	36.58
738.343	36.36
738.524	35.19
738.705	34.81
738.886	34.95
739.067	35.72
739.247	36.31
739.428	35.71
739.609	35.43
739.79	35.62
739.971	36.31
740.151	36.44
740.332	36.13
740.513	36.97
740.694	36.95
740.874	37.31
741.055	36.26
741.236	36.74
741.417	36.78
741.597	36.72
741.778	35.93
741.958	34.81
742.139	35.45
742.32	35.84
742.5	35.76
742.681	35.17
742.861	36.06
743.042	35.42
743.222	35.01
743.403	34.7
743.583	35.03
743.764	34.67
743.944	35.09
744.124	34.85
744.305	33.88
744.485	33.4
744.666	33.16
744.846	32.5
745.026	33.62
745.207	32.03
745.387	31.79
745.567	31.31
745.747	31.86
745.928	33
746.108	32.21
746.288	33.14
746.468	34.14
746.648	35.64
746.829	35.81
747.009	37.04
747.189	37.76
747.369	38.03
747.549	37.65
747.729	37.91
747.909	36.45
748.089	37.25
748.269	36.47
748.449	36.71
748.629	35.29
748.809	35.32
748.989	34.42
749.169	34.8
749.349	34.71
749.529	35.49
749.709	35.72
749.889	35.53
750.068	33.9
750.248	33.94
750.428	32.4
750.608	33.07
750.788	33.87
750.967	32.31
751.147	31.69
751.327	33.45
751.507	33.71
751.686	33.96
751.866	35.29
752.046	36.82
752.225	37.1
752.405	37.82
752.585	38.54
752.764	38.25
752.944	39.05
753.123	39.17
753.303	38.02
753.482	37.06
753.662	37.03
753.841	36.38
754.021	34.95
754.2	35.19
754.38	36.04
754.559	35.81
754.739	36.13
754.918	36.1
755.097	35.35
755.277	35.5
755.456	36.1
755.635	36.42
755.815	35.81
755.994	37.34
756.173	37.15
756.352	35.98
756.532	35.55
756.711	34.53
756.89	34.74
757.069	36.18
757.248	36.04
757.427	36.9
757.607	35.87
757.786	36.62
757.965	37.79
758.144	38.45
758.323	38.67
758.502	39.84
758.681	40.47
758.86	41.66
759.039	40.98
759.218	40.46
759.397	40.47
759.576	41.11
759.755	39.48
759.934	38.33
760.113	36.93
760.291	37.09
760.47	35.84
760.649	35.58
760.828	34.32
761.007	35.06
761.186	35.82
761.364	35.62
761.543	35.91
761.722	37.63
761.901	37.8
762.079	38.35
762.258	38.44
762.437	38.34
762.615	38.22
762.794	38.87
762.972	38.58
763.151	37.78
763.33	37.88
763.508	37.28
763.687	36.95
763.865	36.34
764.044	35.81
764.222	34.85
764.401	34.18
764.579	34.72
764.758	34.56
764.936	35.11
765.114	36.03
765.293	35.8
765.471	36.73
765.65	35.8
765.828	36.39
766.006	37.27
766.184	38.03
766.363	38.51
766.541	37.87
766.719	37.98
766.898	37.35
767.076	35.85
767.254	35.68
767.432	35.16
767.61	37.12
767.788	36.1
767.967	36.41
768.145	37.04
768.323	36.75
768.501	36.89
768.679	36.79
768.857	36.92
769.035	38.5
769.213	38.98
769.391	37.71
769.569	37.34
769.747	36.93
769.925	36.14
770.103	34.48
770.281	34.73
770.459	34.66
770.636	35.86
770.814	36.38
770.992	37.52
771.17	35.21
771.348	36.11
771.525	35.85
771.703	37.28
771.881	37.62
772.059	38.08
772.236	38.72
772.414	37.43
772.592	35.72
772.769	33.98
772.947	33.07
773.125	34.39
773.302	34.39
773.48	34.39
773.657	34.04
773.835	34.9
774.013	34.81
774.19	32.6
774.368	33.85
774.545	31.03
774.723	31.66
774.9	31.55
775.077	30.63
775.255	30.4
775.432	27.82
775.61	28.3
775.787	26.02
775.964	26.77
776.142	29.06
776.319	29.67
776.496	31.23
776.674	30.83
776.851	31.23
777.028	30.81
777.205	29.63
777.382	31.98
777.56	30.65
777.737	30.43
777.914	29.19
778.091	28.16
778.268	27.86
778.445	29.28
778.622	29.17
778.8	27.3
778.977	27.69
779.154	27.67
779.331	27.4
779.508	26.5
779.685	25.68
779.862	27.16
780.038	26.71
780.215	26.82
780.392	26.46
780.569	24.09
780.746	25.27
780.923	24.9
781.1	25.64
781.277	25.83
781.453	28.52
781.63	30.39
781.807	31.29
781.984	32.36
782.16	32.97
782.337	33.51
782.514	35.52
782.691	34.07
782.867	33.62
783.044	34.27
783.221	33.71
783.397	31.21
783.574	29.52
783.75	28.78
783.927	30
784.103	28.84
784.28	26.1
784.456	28.15
784.633	28.64
784.809	31.33
784.986	31.93
785.162	31.99
785.339	32.17
785.515	32.83
785.692	31.55
785.868	30.08
786.044	28.94
786.221	30.27
786.397	28.03
786.573	29.8
786.749	28.57
786.926	26.93
787.102	26.81
787.278	29.31
787.454	31.13
787.631	30.93
787.807	30.96
787.983	31.29
788.159	30.49
788.335	29.1
788.511	27.4
788.687	26.51
788.863	27.26
789.039	27.71
789.216	25.56
789.392	23.35
789.568	22.84
789.744	21.13
789.919	20.63
790.095	22.93
790.271	24.65
790.447	24.39
790.623	27.73
790.799	29.34
790.975	27.93
791.151	30.2
791.327	33.85
791.502	34.27
791.678	35.76
791.854	36.9
792.03	35.6
792.205	36.1
792.381	34.96
792.557	34.16
792.733	34.09
792.908	36.07
793.084	36.42
793.259	35.71
793.435	36.68
793.611	38.89
793.786	38.14
793.962	36.59
794.137	35.87
794.313	38.18
794.488	35.06
794.664	34.64
794.839	33.55
795.015	31.98
795.19	31.18
795.366	30.76
795.541	28.63
795.716	29.7
795.892	30.21
796.067	29.07
796.242	29.42
796.418	29.44
796.593	28.69
796.768	27.16
796.944	28.41
797.119	27.65
797.294	26.38
797.469	27.38
797.644	26.7
797.82	26.58
797.995	26.25
798.17	24.14
798.345	25.18
798.52	23.02
798.695	24.91
798.87	22.55
799.045	24.08
799.22	25.89
799.395	27.08
799.57	29.31
799.745	29.77
799.92	32.5
800.095	35.44
800.27	34.79
800.445	33.88
800.62	34.76
800.795	35.23
800.97	36.16
801.145	37.39
801.319	37.63
801.494	36.36
801.669	36.84
801.844	36.64
802.018	35.53
802.193	37.32
802.368	39.81
802.543	36.32
802.717	38.11
802.892	36.43
803.067	33.37
803.241	33.89
803.416	32.71
803.59	32.98
803.765	33.78
803.94	29.72
804.114	28.78
804.289	26.98
804.463	29.2
804.638	27.64
804.812	28.62
804.986	31.89
805.161	32.73
805.335	33.9
805.51	34.46
805.684	30.73
805.858	32.57
806.033	30.03
806.207	31.59
806.381	31.22
806.556	31.25
806.73	29.86
806.904	26.87
807.078	22.6
807.253	20.75
807.427	19.9
807.601	20.52
807.775	20
807.949	22.18
808.123	21.06
808.298	19.7
808.472	20.35
808.646	19.47
808.82	23.71
808.994	24.81
809.168	24.47
809.342	25.06
809.516	28.98
809.69	31.58
809.864	31.02
810.038	32.94
810.212	32.38
810.385	29.56
810.559	30.17
810.733	24.58
810.907	21.56
811.081	21.29
811.255	20.02
811.428	16.54
811.602	16.05
811.776	21.43
811.95	21.56
812.123	25.92
812.297	28.78
812.471	27.51
812.644	30.56
812.818	31.95
812.992	31.83
813.165	30.56
813.339	31.86
813.512	31.31
813.686	32.08
813.86	32.88
814.033	27.8
814.207	27.04
814.38	25.3
814.554	28.03
814.727	28.54
814.9	27.71
815.074	32.14
815.247	29.38
815.421	33.3
815.594	25.02
815.767	20.51
815.941	18.71
816.114	19.95
816.287	23.54
816.46	18.55
816.634	20.64
816.807	18.15
816.98	16.52
817.153	19.74
817.327	16.94
817.5	19.52
817.673	19.55
817.846	20.53
818.019	19.22
818.192	19.54
818.365	23.37
818.538	26.58
818.711	33.86
818.884	31.96
819.057	27.66
819.23	25.9
819.403	25.71
819.576	28.05
819.749	27.17
819.922	27.51
820.095	28.44
820.268	27.39
820.441	24.43
820.614	25.51
820.786	28.59
820.959	31.34
821.132	31.79
821.305	32.56
821.477	33.9
821.65	35.83
821.823	36.75
821.996	36.69
822.168	36.32
822.341	36.44
822.514	36.59
822.686	36.69
822.859	37.13
823.031	37.61
823.204	37.3
823.376	37.06
823.549	37.33
823.722	37
823.894	37.31
824.067	38.04
824.239	38.41
824.411	38.71
824.584	38.35
824.756	38.15
824.929	38.71
825.101	38.91
825.273	39.07
825.446	38.02
825.618	38.65
825.79	38.47
825.963	37.71
826.135	37.43
826.307	36.2
826.479	35.42
826.652	34.55
826.824	33.37
826.996	33.19
827.168	32.8
827.34	32.97
827.512	32.9
827.684	31.93
827.856	31.81
828.029	31.52
828.201	31.66
828.373	32.11
828.545	32.18
828.717	31.2
828.889	31.35
829.061	30.8
829.232	30.84
829.404	30.34
829.576	30.1
829.748	30.36
829.92	29.16
830.092	29.84
830.264	28.87
830.436	28.78
830.607	28.11
830.779	28.49
830.951	27.71
831.123	27.38
831.294	24.33
831.466	22.84
831.638	22.08
831.809	22.79
831.981	25.24
832.153	23.35
832.324	23.33
832.496	23.62
832.667	23.06
832.839	23.56
833.011	25.64
833.182	27.14
833.354	26.27
833.525	26.2
833.697	28.26
833.868	25.37
834.039	27.58
834.211	29.1
834.382	29.86
834.554	28.67
834.725	30.53
834.896	27.13
835.068	28.09
835.239	29.43
835.41	30.45
835.581	28.71
835.753	30.1
835.924	29.73
836.095	30.16
836.266	31.61
836.438	32.67
836.609	31
836.78	34.4
836.951	34.42
837.122	35.49
837.293	35.69
837.464	35.97
837.635	30.15
837.806	29.99
837.977	25.83
838.148	22.91
838.319	21.27
838.49	21.39
838.661	20.91
838.832	17.9
839.003	13.65
839.174	2.35
839.345	0.68
839.516	-4.88
839.687	-9.77
839.857	-4.36
840.028	-3.83
840.199	0.98
840.37	-0.92
840.54	0.93
840.711	5.42
840.882	9.79
841.053	15.64
841.223	16.56
841.394	26.66
841.564	28.48
841.735	27.15
841.906	26.97
842.076	26.24
842.247	35.24
842.417	30.27
842.588	27.04
842.758	19.23
842.929	12.33
843.099	1.09
843.27	-9.26
843.44	-14.01
843.611	-13.75
843.781	-16.21
843.951	-14.07
844.122	-19.07
844.292	-15.08
844.462	-29.47
844.633	-18.69
844.803	-2.39
844.973	11.56
845.144	17.08
845.314	18.91
845.484	19.46
845.654	25.82
845.824	20.7
845.995	7.72
846.165	0.35
846.335	15.31
846.505	5.97
846.675	-15.22
846.845	-27.16
847.015	-28.1
847.185	-20.5
847.355	-30.75
847.525	-28.77
847.695	-37.84
847.865	-61.1
848.035	-75.13
848.205	-87.6
848.375	-78.94
848.545	-73.99
848.715	-62.87
848.884	-81
849.054	-119.92
849.224	-122.88
849.394	-132.33
849.564	-118.27
849.733	-70.76
849.903	-71
850.073	-57.41
850.243	-53.81
850.412	-50.12
850.582	-65.55
850.752	-62.67
850.921	-32.59
851.091	-40.61
851.26	-47.24
851.43	-28.04
851.599	-30.53
851.769	-18.27
851.939	-17.42
852.108	-50.46
852.278	-65.03
852.447	-70.02
852.616	-41.02
852.786	-51.45
852.955	6.67
853.125	-15.17
853.294	-38.6
853.463	-66.06
853.633	-89.26
853.802	-96.24
853.971	-61.17
854.141	-65.23
854.31	-83.47
854.479	-143.36
854.648	-156.68
854.818	-191.49
854.987	-177.23
855.156	-161.16
855.325	-97.5
855.494	-114.32
855.663	-116.31
855.832	-146.33
856.001	-111.33
856.171	-96.97
856.34	-73.18
856.509	-82.29
856.678	-88.65
856.847	-11.66
857.016	-45.21
857.185	-46.64
857.353	-3.4
857.522	-13.51
857.691	1.16
857.86	-14.46
858.029	2.58
858.198	-16.54
858.367	-0.65
858.535	-31.97
858.704	-54.11
858.873	-39.15
859.042	-27.09
859.21	-58.11
859.379	-50.07
859.548	-66.12
859.717	-54.47
859.885	-59.16
860.054	-29.87
860.222	-46.96
860.391	-16.81
860.56	-4.94
860.728	-0.03
860.897	-9.47
861.065	0.15
861.234	6.36
861.402	4.09
861.571	5.69
861.739	5.64
861.908	-4.56
862.076	9.57
862.244	5.03
862.413	-8.05
862.581	-30.93
862.749	-90.47
862.918	-152.98
863.086	-208.76
863.254	-237.25
863.423	-481.69
863.591	-300.03
863.759	-522.05
863.927	-708.86
864.096	-2729.55
864.264	742.77
864.432	1146.88
864.6	-1538.81
864.768	-611.3
864.936	-181.61
865.104	-128.01
865.272	-38.77
865.44	-86.86
865.608	-2.73
865.776	-91.48
865.944	-92.37
866.112	-37.13
866.28	-44.13
866.448	-54.56
866.616	-32.35
866.784	-49.92
866.952	-50.09
867.12	-62.06
867.288	-42.46
867.455	-59.68
867.623	-34.63
867.791	-38.73
867.959	-55.61
868.127	-39.42
868.294	-48.34
868.462	-54.82
868.63	-53.03
868.797	-121.46
868.965	-238.86
869.133	-247.97
869.3	-282.49
869.468	-175.21
869.636	-98.2
869.803	-159.22
869.971	-155.02
870.138	-106.28
870.306	-111.79
870.473	-114.46
870.641	-74.78
870.808	-59.07
870.975	-75.06
871.143	-60.05
871.31	-116.39
871.478	-250.48
871.645	-74.52
871.812	-90.5
871.98	-127.98
872.147	-192.82
872.314	-124.2
872.482	-175.17
872.649	-235.46
872.816	-133.45
872.983	-302.85
873.15	-76.39
873.318	-58.98
873.485	-117.43
873.652	-14.32
873.819	-10.96
873.986	19.8
874.153	11.33
874.32	21.97
874.487	24.21
874.654	29.08
874.821	24.99
874.988	21.89
875.155	36.72
875.322	35.81
875.489	10.49
875.656	-0.71
875.823	-11.68
875.99	-10.95
876.157	-15.24
876.324	-17.44
876.49	-13.45
876.657	-18.3
876.824	-11.54
876.991	-33.37
877.157	-41.04
877.324	-9.67
877.491	15.4
877.658	5.97
877.824	-5.24
877.991	18.93
878.157	8.66
878.324	-1.16
878.491	11.23
878.657	-6.72
878.824	-21.32
878.99	-3.62
879.157	-43.35
879.323	-22.94
879.49	-10.13
879.656	25.21
879.823	9.44
879.989	24.02
880.156	7.42
880.322	10.3
880.488	26.23
880.655	47.97
880.821	30.94
880.987	38.55
881.154	26.79
881.32	22.08
881.486	6.54
881.652	4.92
881.819	5.34
881.985	17.37
882.151	16.63
882.317	14.67
882.483	12.63
882.649	15.89
882.816	12.79
882.982	16.93
883.148	20.22
883.314	22.18
883.48	25.36
883.646	25.32
883.812	26.78
883.978	26.94
884.144	27.43
884.31	27.17
884.476	27.74
884.642	30.17
884.807	28.97
884.973	28.9
885.139	29.51
885.305	28.56
885.471	29.14
885.637	28.04
885.802	27.21
885.968	27.06
886.134	28.62
886.3	27.23
886.465	26.6
886.631	26.56
886.797	24.7
886.962	29.2
887.128	26.39
887.293	20.24
887.459	17.01
887.625	15.44
887.79	15.59
887.956	17.66
888.121	20.35
888.287	17.93
888.452	16.87
888.618	17.11
888.783	-29.69
