Data from CB_106_Reflection_2.txt Node
Date: Sat Nov 14 18:02:16 EST 2015
User: robert
Spectrometer: USB4E03001
Autoset integration time: false
Trigger mode: 4
Integration Time (sec): 1.000000E-1
Scans to average: 15
Electric dark correction enabled: true
Nonlinearity correction enabled: false
Boxcar width: 5
Stray light correction enabled: false
XAxis mode: Wavelengths
Stop averaging: false
Number of Pixels in Spectrum: 3648
>>>>>Begin Spectral Data<<<<<
177.566	231.65
177.785	-1416.75
178.005	259.45
178.225	354.49
178.445	-432.63
178.665	-82.37
178.885	-1781.44
179.105	114.49
179.324	121.32
179.544	95.48
179.764	120.65
179.984	101.8
180.204	96.36
180.423	85.98
180.643	123.55
180.863	165.71
181.083	121.11
181.302	120.79
181.522	167.65
181.742	153.62
181.961	196.92
182.181	249.09
182.401	698.56
182.621	467.8
182.84	647.49
183.06	285.88
183.279	206.58
183.499	279.53
183.719	237.61
183.938	143.94
184.158	166.46
184.377	194.52
184.597	211.02
184.816	149.12
185.036	160.91
185.256	153.7
185.475	158.75
185.695	134.78
185.914	126.58
186.134	122.24
186.353	120.43
186.572	110.88
186.792	94.92
187.011	94.08
187.231	100.31
187.45	82.47
187.67	77.43
187.889	69.47
188.108	73.32
188.328	79.82
188.547	90.16
188.766	93.25
188.986	101.59
189.205	104.47
189.424	99.03
189.644	103.09
189.863	127.08
190.082	151.58
190.302	141.48
190.521	129.1
190.74	130.93
190.959	145.1
191.178	143.92
191.398	143.93
191.617	143.48
191.836	142.2
192.055	100.75
192.274	101.18
192.494	109.38
192.713	199.94
192.932	207.35
193.151	293.13
193.37	191.27
193.589	162.76
193.808	225.21
194.027	261.89
194.246	-732.07
194.465	1410.13
194.685	69.98
194.904	72.72
195.123	46.73
195.342	41.31
195.561	48.78
195.78	42.5
195.999	79.63
196.218	71.86
196.436	82.5
196.655	85.41
196.874	90.65
197.093	96.35
197.312	86.55
197.531	101.96
197.75	115.13
197.969	116.12
198.188	130.87
198.407	102.14
198.625	114.76
198.844	125.58
199.063	115.92
199.282	130.18
199.501	172.14
199.719	156.33
199.938	134.59
200.157	95.91
200.376	107.99
200.594	103.57
200.813	128.67
201.032	110.72
201.251	113.73
201.469	122.18
201.688	105.29
201.907	99.94
202.125	120.11
202.344	149.37
202.563	195.45
202.781	178.28
203	224.59
203.218	210.15
203.437	193.3
203.656	178.84
203.874	109.8
204.093	160.14
204.311	167.47
204.53	196.89
204.748	156.73
204.967	150.74
205.185	164.12
205.404	144.19
205.622	116.04
205.841	139.61
206.059	125.36
206.278	143.24
206.496	123.51
206.715	131.89
206.933	97.8
207.151	99.47
207.37	111.04
207.588	113.49
207.806	98.66
208.025	105.24
208.243	95.54
208.461	116.89
208.68	108.47
208.898	104.45
209.116	98.3
209.335	92.76
209.553	102.81
209.771	104.95
209.989	86.27
210.208	107.16
210.426	93.47
210.644	87.28
210.862	76.48
211.081	95.48
211.299	105.41
211.517	110.7
211.735	135.64
211.953	122.13
212.171	122.41
212.39	121.7
212.608	129.4
212.826	140.25
213.044	145.44
213.262	144.23
213.48	131.22
213.698	114.61
213.916	132.85
214.134	105.29
214.352	96.3
214.57	97.16
214.788	107.06
215.006	94.37
215.224	102.16
215.442	105.17
215.66	105.26
215.878	133.92
216.096	175.53
216.314	120.84
216.532	162.11
216.75	165.46
216.968	163.13
217.185	158.6
217.403	180.92
217.621	199.96
217.839	166.67
218.057	211.95
218.275	110.35
218.492	142.35
218.71	191.42
218.928	183.92
219.146	258.81
219.363	188.29
219.581	219.91
219.799	237.53
220.017	226.21
220.234	218.05
220.452	240.29
220.67	298.26
220.887	383.79
221.105	486.11
221.323	6459.51
221.54	566.81
221.758	3189.29
221.976	1427.91
222.193	278.4
222.411	301.45
222.629	509.09
222.846	676.52
223.064	-596.39
223.281	946.29
223.499	699.38
223.716	1379.6
223.934	-1033.14
224.151	-337.4
224.369	-188.36
224.586	-109.57
224.804	-88.47
225.021	-94.3
225.239	-76.48
225.456	-124.24
225.674	-84.12
225.891	-85.31
226.108	-126.93
226.326	-131.85
226.543	-93
226.76	-68.69
226.978	-40.08
227.195	-37.51
227.413	-31.24
227.63	-19.44
227.847	-5.08
228.064	1.82
228.282	2.89
228.499	8.81
228.716	4.82
228.934	2.42
229.151	2.92
229.368	1.76
229.585	-0.52
229.802	0.18
230.02	-1.66
230.237	-3.53
230.454	-2.8
230.671	-3.1
230.888	-4.91
231.105	-6.31
231.323	-10.23
231.54	-18.83
231.757	-27.95
231.974	-37.78
232.191	-44.22
232.408	-48.51
232.625	-43.44
232.842	-49.07
233.059	-37.84
233.276	-33.99
233.493	-32.3
233.71	-20.24
233.927	-0.42
234.144	2.98
234.361	2.26
234.578	1.91
234.795	4.04
235.012	-0.68
235.229	-7.82
235.446	-16.54
235.663	-15.02
235.879	-18.33
236.096	-20.13
236.313	-35.49
236.53	-31.32
236.747	-21.2
236.964	-22.57
237.181	-27.3
237.397	-30.12
237.614	-20.57
237.831	-21.78
238.048	-31.8
238.264	-29.16
238.481	-37.75
238.698	-28.41
238.915	-21.75
239.131	-18.47
239.348	-16.37
239.565	-14.09
239.781	-11.06
239.998	-13.16
240.215	-15.77
240.431	-13.54
240.648	-7.59
240.865	-3.97
241.081	-4.51
241.298	-4.34
241.514	-3.69
241.731	0.12
241.947	1.88
242.164	3.62
242.38	5.56
242.597	8
242.814	9.92
243.03	10.13
243.246	10.59
243.463	10.85
243.679	9.97
243.896	10.41
244.112	7.73
244.329	6.55
244.545	5.61
244.762	4.59
244.978	4.32
245.194	2.98
245.411	0.63
245.627	1.48
245.843	1.76
246.06	1.5
246.276	2.2
246.492	4.35
246.709	4.31
246.925	3.92
247.141	4.09
247.357	5.33
247.574	5.27
247.79	5.44
248.006	5.85
248.222	5.61
248.439	5.41
248.655	4.6
248.871	4.03
249.087	4.69
249.303	5.11
249.519	5.41
249.736	3.04
249.952	2.51
250.168	3.19
250.384	0.82
250.6	2.22
250.816	2.91
251.032	3.58
251.248	0.92
251.464	-1.72
251.68	-1.46
251.896	-1.05
252.112	-2.98
252.328	-3.43
252.544	-5.53
252.76	-6.95
252.976	-7.85
253.192	-8.62
253.408	-9.6
253.624	-7.99
253.84	-5.46
254.056	-8.16
254.272	-10.42
254.487	-8.9
254.703	-8.25
254.919	-8.16
255.135	-6.39
255.351	-7.81
255.567	-5.33
255.782	-5.88
255.998	-3.98
256.214	-8.32
256.43	-4.37
256.646	-4.19
256.861	-0.24
257.077	-3.19
257.293	1.64
257.508	3.49
257.724	3.01
257.94	3.92
258.155	4.24
258.371	3.54
258.587	4.11
258.802	4.88
259.018	5.36
259.234	4.96
259.449	6.31
259.665	5.9
259.88	5.72
260.096	6.08
260.312	6.31
260.527	6.92
260.743	6.7
260.958	6.66
261.174	5.92
261.389	5.87
261.605	5.9
261.82	5.07
262.036	3.64
262.251	3.43
262.466	3.64
262.682	3.33
262.897	1.8
263.113	2.23
263.328	3.71
263.543	2.42
263.759	0.06
263.974	-2.41
264.189	-2.4
264.405	-3
264.62	-2.91
264.835	-1.64
265.051	-3.27
265.266	-1.26
265.481	-1.57
265.696	-3.6
265.912	-1.34
266.127	1.11
266.342	3.62
266.557	3.4
266.773	2.8
266.988	1.71
267.203	0.19
267.418	-0.63
267.633	0.08
267.848	-0.2
268.064	-0.74
268.279	-1.07
268.494	-1.76
268.709	-3.42
268.924	-2.22
269.139	-2.85
269.354	-1.43
269.569	-1.13
269.784	-0.98
269.999	-2.27
270.214	-1.05
270.429	0.29
270.644	0.65
270.859	1.04
271.074	2.3
271.289	1.38
271.504	3.07
271.719	2.34
271.934	1.22
272.149	2.59
272.363	2.15
272.578	2.35
272.793	1.62
273.008	1.1
273.223	1.74
273.438	0.53
273.653	2
273.867	0.98
274.082	2.16
274.297	4.37
274.512	2.65
274.726	2.88
274.941	2.3
275.156	4
275.371	4.73
275.585	4.17
275.8	5.12
276.015	2.98
276.229	3.72
276.444	3.23
276.659	1.48
276.873	3.26
277.088	3.36
277.302	2.64
277.517	2.4
277.732	1.43
277.946	1.31
278.161	0.48
278.375	0.97
278.59	2.34
278.804	0.91
279.019	0.45
279.233	0.51
279.448	-1.05
279.662	-0.24
279.877	0.24
280.091	1.14
280.306	0.8
280.52	1.95
280.735	2.41
280.949	2.31
281.163	3.69
281.378	4.85
281.592	4.41
281.806	5.89
282.021	6.61
282.235	6.2
282.449	5.57
282.664	6.51
282.878	6.72
283.092	6.26
283.307	5.11
283.521	5.09
283.735	5.01
283.949	4.87
284.164	5.18
284.378	4.49
284.592	4.55
284.806	5.06
285.02	4.51
285.234	4.28
285.449	4.98
285.663	5.7
285.877	5.24
286.091	4.52
286.305	4.54
286.519	4.21
286.733	3.14
286.947	3.17
287.161	3.63
287.375	3.74
287.589	4
287.803	3.14
288.017	3.62
288.231	3.65
288.445	4.25
288.659	3.96
288.873	3.3
289.087	5.17
289.301	4.27
289.515	3.74
289.729	3.12
289.943	1.99
290.157	1.83
290.371	1.71
290.584	2.68
290.798	2.37
291.012	3.53
291.226	4.17
291.44	3.73
291.654	4.83
291.867	5.5
292.081	6.78
292.295	7.69
292.509	8.9
292.722	8.28
292.936	7.38
293.15	7.3
293.364	6.98
293.577	6.58
293.791	7.12
294.005	7.01
294.218	6.74
294.432	5.21
294.645	4.76
294.859	5.41
295.073	5.77
295.286	6.11
295.5	7.1
295.713	7.33
295.927	8.47
296.14	8.16
296.354	7.78
296.568	7.67
296.781	8.54
296.994	8.71
297.208	7.63
297.421	7.95
297.635	7.49
297.848	6.91
298.062	6.6
298.275	6.04
298.489	5.78
298.702	6.11
298.915	6.28
299.129	6.68
299.342	7.67
299.555	7.45
299.769	7.99
299.982	8.93
300.195	9.05
300.409	10.11
300.622	10
300.835	9.91
301.048	9.94
301.262	9.03
301.475	8.15
301.688	7.22
301.901	8.18
302.115	7.31
302.328	7.7
302.541	9.15
302.754	8.7
302.967	9.25
303.18	9.4
303.393	9.63
303.607	9.03
303.82	9.86
304.033	10.76
304.246	11.86
304.459	12.2
304.672	12.47
304.885	11.71
305.098	10.91
305.311	11.4
305.524	11.92
305.737	11.12
305.95	12.73
306.163	12.11
306.376	10.99
306.589	11.3
306.802	10.77
307.015	9.27
307.228	10.25
307.44	11.46
307.653	11.84
307.866	12.3
308.079	12.7
308.292	13.25
308.505	13.86
308.718	14.65
308.93	13.79
309.143	14.17
309.356	13.42
309.569	12.65
309.781	12.92
309.994	12.47
310.207	11.42
310.42	11.02
310.632	11.3
310.845	11.02
311.058	11.12
311.27	11.07
311.483	11.89
311.696	13.2
311.908	13.38
312.121	12.88
312.333	12.54
312.546	13.53
312.759	14.39
312.971	13.63
313.184	14.01
313.396	13.61
313.609	14.2
313.821	13.63
314.034	12.98
314.246	13.89
314.459	14.11
314.671	14.22
314.884	14.16
315.096	14.52
315.309	15.16
315.521	15.31
315.733	15.63
315.946	15.17
316.158	15.48
316.371	16.65
316.583	15.18
316.795	15.36
317.008	16.81
317.22	18.12
317.432	17.71
317.644	15.92
317.857	16.51
318.069	16.95
318.281	15.75
318.494	14.8
318.706	15.39
318.918	15.16
319.13	15.01
319.342	14.41
319.555	12.73
319.767	12.98
319.979	14.43
320.191	14.53
320.403	14.89
320.615	15.66
320.827	14.73
321.039	13.92
321.252	14.56
321.464	14.94
321.676	13.42
321.888	13.23
322.1	13.12
322.312	12.94
322.524	11.47
322.736	11.72
322.948	12.29
323.16	13.89
323.372	13.25
323.584	13.5
323.796	13.86
324.007	14.75
324.219	15.61
324.431	14.86
324.643	14.81
324.855	15.85
325.067	16.15
325.279	16.13
325.491	17.66
325.702	18.59
325.914	18.77
326.126	17.77
326.338	18.73
326.55	19.45
326.761	21.06
326.973	22.36
327.185	22.93
327.396	23.05
327.608	23.57
327.82	21.96
328.032	22.21
328.243	23.23
328.455	25.15
328.666	24.83
328.878	25.22
329.09	24.95
329.301	25.08
329.513	24.59
329.725	24.78
329.936	24.61
330.148	24.73
330.359	23.99
330.571	23.4
330.782	22.62
330.994	22.57
331.205	21.1
331.417	20.98
331.628	20.85
331.84	20.25
332.051	19.79
332.262	20.47
332.474	21.19
332.685	22.04
332.897	22.66
333.108	22.45
333.319	23.75
333.531	24.46
333.742	24.9
333.953	24.67
334.165	25.41
334.376	25.67
334.587	25.5
334.799	26.5
335.01	25.91
335.221	26.15
335.432	27.18
335.644	26.94
335.855	27.79
336.066	28.01
336.277	27.76
336.488	27.87
336.7	26.59
336.911	26.9
337.122	26.72
337.333	27.76
337.544	27.15
337.755	25.55
337.966	24.86
338.177	24.84
338.388	25.39
338.599	25.4
338.811	25.16
339.022	26.62
339.233	25.73
339.444	24.44
339.655	23.54
339.866	23.29
340.076	24.57
340.287	24.93
340.498	23.94
340.709	23.26
340.92	24.16
341.131	23.69
341.342	23.64
341.553	23.65
341.764	24.58
341.975	25.29
342.185	26.47
342.396	25.44
342.607	25.1
342.818	25.87
343.029	25.95
343.239	26.02
343.45	26.49
343.661	25.94
343.872	26.97
344.082	26.37
344.293	26.78
344.504	25.89
344.714	26.57
344.925	26.89
345.136	27.38
345.346	26.53
345.557	26.27
345.768	26.34
345.978	25.88
346.189	25.4
346.399	25.84
346.61	25.29
346.821	26.23
347.031	26.32
347.242	26.06
347.452	25.52
347.663	26.06
347.873	26.04
348.084	26.04
348.294	27.26
348.504	27.66
348.715	27.24
348.925	27.09
349.136	26.39
349.346	25.82
349.557	26.28
349.767	25.74
349.977	25.95
350.188	24.97
350.398	25.4
350.608	25.73
350.819	24.51
351.029	25.08
351.239	24.44
351.449	24.45
351.66	25.18
351.87	25.54
352.08	24.94
352.29	25.45
352.501	26.58
352.711	26.41
352.921	26.25
353.131	26.82
353.341	26.14
353.552	26.89
353.762	27.06
353.972	26.8
354.182	26.26
354.392	26.94
354.602	26.1
354.812	25.88
355.022	25.69
355.232	25.24
355.442	25.55
355.652	26.11
355.862	25.31
356.072	24.61
356.282	24.57
356.492	25.11
356.702	25.18
356.912	25.26
357.122	25.22
357.332	25.24
357.542	25.06
357.752	24.85
357.962	25.07
358.171	25.47
358.381	26.22
358.591	26.27
358.801	25.4
359.011	25.67
359.221	25.47
359.43	25.2
359.64	24.68
359.85	24.44
360.06	24.52
360.269	24.25
360.479	24.33
360.689	24.29
360.899	24.42
361.108	24.95
361.318	24.72
361.528	24.96
361.737	25.23
361.947	25.39
362.156	25.9
362.366	26.28
362.576	26.08
362.785	26.12
362.995	26.3
363.204	26.02
363.414	25.75
363.623	25.92
363.833	25.81
364.042	25.46
364.252	26.29
364.461	25.79
364.671	25.97
364.88	25.78
365.09	25.93
365.299	25.53
365.509	25.58
365.718	25.31
365.927	25.18
366.137	25.41
366.346	24.94
366.555	24.4
366.765	24.03
366.974	23.35
367.183	23.1
367.393	23.03
367.602	23.07
367.811	23.62
368.021	23.39
368.23	23.11
368.439	22.9
368.648	23.93
368.857	23.67
369.067	24.08
369.276	23.75
369.485	23.49
369.694	23.12
369.903	22.98
370.112	22.61
370.321	23.66
370.531	23.38
370.74	23.13
370.949	22.42
371.158	22.68
371.367	23.02
371.576	22.99
371.785	23.41
371.994	23.31
372.203	23.1
372.412	22.71
372.621	21.71
372.83	21.5
373.039	21.66
373.248	21.59
373.457	21.25
373.666	20.52
373.874	20.22
374.083	20.18
374.292	20.02
374.501	20.24
374.71	19.67
374.919	20.15
375.128	20.49
375.336	20.44
375.545	20.55
375.754	20.58
375.963	21.18
376.171	21.55
376.38	21.53
376.589	21.59
376.798	21.29
377.006	21.97
377.215	21.24
377.424	20.9
377.632	20.77
377.841	20.65
378.05	20.34
378.258	19.83
378.467	18.91
378.675	18.7
378.884	18.2
379.093	18.38
379.301	18.16
379.51	18.48
379.718	18.55
379.927	18.68
380.135	19.12
380.344	19.4
380.552	19.04
380.761	19.53
380.969	19.92
381.177	20.58
381.386	20.24
381.594	20.38
381.803	20.54
382.011	20.15
382.219	19.86
382.428	19.6
382.636	19.29
382.845	19.82
383.053	19.95
383.261	19.71
383.469	19.41
383.678	19.8
383.886	19.7
384.094	19.54
384.302	19.37
384.511	19.55
384.719	19.28
384.927	19.34
385.135	19.02
385.343	19.04
385.552	19.06
385.76	18.65
385.968	17.85
386.176	17.35
386.384	17.27
386.592	17.5
386.8	16.61
387.008	16.3
387.216	16.29
387.424	15.86
387.633	15.8
387.841	15.38
388.049	15.82
388.257	15.75
388.465	15.72
388.672	15.16
388.88	15.23
389.088	15.88
389.296	15.75
389.504	15.45
389.712	15.96
389.92	15.72
390.128	16.12
390.336	15.78
390.544	16.22
390.751	15.97
390.959	16.12
391.167	15.9
391.375	15.73
391.583	15.93
391.79	16.11
391.998	15.89
392.206	15.93
392.414	15.3
392.621	15.03
392.829	14.75
393.037	15.21
393.244	15.37
393.452	15.02
393.66	15.09
393.867	14.78
394.075	14.98
394.283	14.71
394.49	14.35
394.698	14.52
394.905	14.65
395.113	14.63
395.32	14.23
395.528	14.23
395.735	14.83
395.943	14.65
396.15	14.63
396.358	13.95
396.565	14.01
396.773	14.16
396.98	14.11
397.188	14.25
397.395	14.45
397.602	14.63
397.81	14.45
398.017	14.35
398.225	14.58
398.432	14.49
398.639	14.59
398.847	14.91
399.054	14.97
399.261	15.02
399.468	14.85
399.676	14.65
399.883	14.52
400.09	14.26
400.297	14.32
400.505	13.78
400.712	13.75
400.919	13.57
401.126	13.1
401.333	13.2
401.54	13.42
401.748	13.41
401.955	13.14
402.162	13.33
402.369	13.51
402.576	13.26
402.783	13.49
402.99	13.93
403.197	14.11
403.404	14.1
403.611	13.92
403.818	13.44
404.025	13.46
404.232	13.36
404.439	13.52
404.646	13.57
404.853	13.45
405.06	13.31
405.267	13.2
405.474	13.17
405.681	13.37
405.887	13.37
406.094	13.24
406.301	13.39
406.508	13.71
406.715	13.24
406.922	13.21
407.128	13.26
407.335	13.45
407.542	13.09
407.749	12.85
407.955	12.57
408.162	12.65
408.369	12.92
408.575	12.71
408.782	12.49
408.989	12.62
409.195	12.73
409.402	12.65
409.609	12.67
409.815	12.93
410.022	12.95
410.228	13.01
410.435	13.19
410.642	13.51
410.848	13.2
411.055	13.26
411.261	13.34
411.468	13.11
411.674	13.2
411.881	13.1
412.087	12.94
412.294	13.32
412.5	13.58
412.706	13.5
412.913	13.2
413.119	13.45
413.326	13.27
413.532	13.23
413.738	13.29
413.945	13.21
414.151	13.11
414.357	13.08
414.564	12.94
414.77	12.65
414.976	12.48
415.182	12.38
415.389	12.36
415.595	12.55
415.801	12.24
416.007	12.28
416.214	12.21
416.42	12.39
416.626	12.52
416.832	12.41
417.038	12.69
417.244	12.86
417.45	12.99
417.657	13.08
417.863	13.04
418.069	13.26
418.275	13.06
418.481	13.3
418.687	13.33
418.893	13.34
419.099	13.43
419.305	13.3
419.511	13.1
419.717	12.98
419.923	12.95
420.129	13
420.335	13
420.541	13.2
420.746	13.13
420.952	13.06
421.158	13.07
421.364	12.91
421.57	13.04
421.776	13.09
421.982	13.02
422.187	12.86
422.393	12.78
422.599	12.81
422.805	12.67
423.01	12.71
423.216	12.68
423.422	12.75
423.628	12.87
423.833	12.85
424.039	12.86
424.245	13
424.45	13.15
424.656	13.3
424.862	13.25
425.067	13.25
425.273	13.03
425.478	12.97
425.684	12.89
425.889	12.84
426.095	12.81
426.301	12.6
426.506	12.63
426.712	12.49
426.917	12.4
427.123	12.27
427.328	12.49
427.533	12.69
427.739	12.8
427.944	12.72
428.15	12.64
428.355	12.43
428.561	12.68
428.766	12.7
428.971	12.68
429.177	12.62
429.382	12.84
429.587	12.52
429.793	12.62
429.998	12.59
430.203	12.6
430.408	12.97
430.614	13.02
430.819	12.97
431.024	12.74
431.229	12.79
431.434	12.58
431.64	12.42
431.845	12.51
432.05	12.43
432.255	12.44
432.46	12.44
432.665	12.07
432.87	12.12
433.076	12.15
433.281	12.17
433.486	12.18
433.691	12.16
433.896	12.2
434.101	12.22
434.306	12.09
434.511	11.95
434.716	11.88
434.921	12.02
435.126	11.89
435.331	11.95
435.535	12.14
435.74	12.2
435.945	12.36
436.15	12.4
436.355	12.4
436.56	12.45
436.765	12.44
436.97	12.46
437.174	12.42
437.379	12.55
437.584	12.51
437.789	12.49
437.993	12.56
438.198	12.59
438.403	12.66
438.608	12.74
438.812	12.8
439.017	12.89
439.222	13.06
439.426	12.95
439.631	12.9
439.836	12.83
440.04	12.93
440.245	12.87
440.45	13.03
440.654	12.98
440.859	12.85
441.063	12.82
441.268	12.76
441.472	12.63
441.677	12.91
441.881	13
442.086	13.06
442.29	12.81
442.495	12.81
442.699	12.71
442.904	12.66
443.108	12.72
443.312	12.65
443.517	12.7
443.721	12.62
443.925	12.36
444.13	12.44
444.334	12.42
444.538	12.58
444.743	12.71
444.947	12.64
445.151	12.66
445.356	12.77
445.56	12.89
445.764	13.03
445.968	13.05
446.173	13.05
446.377	12.86
446.581	12.88
446.785	12.73
446.989	12.7
447.193	12.74
447.398	12.78
447.602	12.79
447.806	12.7
448.01	12.57
448.214	12.64
448.418	12.53
448.622	12.5
448.826	12.41
449.03	12.67
449.234	12.55
449.438	12.55
449.642	12.52
449.846	12.39
450.05	12.43
450.254	12.49
450.458	12.46
450.662	12.63
450.866	12.68
451.069	12.77
451.273	12.46
451.477	12.63
451.681	12.45
451.885	12.48
452.089	12.24
452.292	12.21
452.496	12.01
452.7	11.96
452.904	12.08
453.107	12.08
453.311	12.02
453.515	12.16
453.719	12.01
453.922	11.93
454.126	11.65
454.33	12
454.533	11.88
454.737	11.99
454.94	12.02
455.144	11.86
455.348	11.93
455.551	12
455.755	12.03
455.958	11.97
456.162	11.96
456.365	12.14
456.569	11.97
456.772	12.07
456.976	12.11
457.179	11.97
457.383	11.92
457.586	12.1
457.79	12.37
457.993	12.41
458.196	12.42
458.4	12.59
458.603	12.51
458.807	12.54
459.01	12.54
459.213	12.63
459.417	12.81
459.62	12.72
459.823	12.48
460.026	12.17
460.23	12.01
460.433	11.98
460.636	12.04
460.839	12.09
461.042	12.02
461.246	12.06
461.449	11.9
461.652	11.77
461.855	11.91
462.058	11.9
462.261	12.08
462.464	12.19
462.668	12.24
462.871	12.15
463.074	12.01
463.277	12.04
463.48	11.85
463.683	11.73
463.886	11.74
464.089	11.71
464.292	11.76
464.495	11.69
464.698	11.79
464.901	11.81
465.104	11.74
465.306	11.93
465.509	11.97
465.712	11.99
465.915	12.24
466.118	12.31
466.321	12.28
466.524	12.38
466.726	12.37
466.929	12.01
467.132	11.95
467.335	11.84
467.538	11.9
467.74	11.75
467.943	11.84
468.146	11.76
468.348	11.79
468.551	11.79
468.754	11.85
468.956	11.84
469.159	11.99
469.362	12.07
469.564	12.29
469.767	12.16
469.969	12.35
470.172	12.45
470.375	12.24
470.577	12.18
470.78	12.15
470.982	12.06
471.185	12.14
471.387	12.19
471.59	12.26
471.792	12.19
471.995	12.24
472.197	12.08
472.399	11.86
472.602	12.08
472.804	11.95
473.007	12.01
473.209	12.07
473.411	11.99
473.614	12.11
473.816	11.99
474.018	12.01
474.22	12.16
474.423	12.22
474.625	12.36
474.827	12.34
475.03	12.41
475.232	12.33
475.434	12.33
475.636	12.51
475.838	12.41
476.04	12.47
476.243	12.35
476.445	12.28
476.647	12.27
476.849	12.31
477.051	12.32
477.253	12.27
477.455	12.26
477.657	12.19
477.859	11.99
478.061	12.07
478.263	12.03
478.465	12.11
478.667	12.02
478.869	11.9
479.071	11.78
479.273	11.87
479.475	11.99
479.677	12.15
479.879	12.19
480.081	12.18
480.283	12.14
480.485	12.1
480.686	12.19
480.888	12.35
481.09	12.5
481.292	12.63
481.494	12.58
481.695	12.66
481.897	12.74
482.099	12.69
482.301	12.66
482.502	12.68
482.704	12.73
482.906	12.72
483.107	12.66
483.309	12.72
483.511	12.72
483.712	12.77
483.914	12.75
484.115	12.67
484.317	12.7
484.519	12.76
484.72	12.78
484.922	12.73
485.123	12.75
485.325	12.69
485.526	12.7
485.728	12.64
485.929	12.61
486.131	12.45
486.332	12.48
486.534	12.48
486.735	12.43
486.936	12.36
487.138	12.38
487.339	12.28
487.541	12.46
487.742	12.42
487.943	12.46
488.144	12.43
488.346	12.53
488.547	12.49
488.748	12.4
488.95	12.45
489.151	12.44
489.352	12.4
489.553	12.46
489.755	12.4
489.956	12.37
490.157	12.29
490.358	12.32
490.559	12.42
490.76	12.37
490.961	12.41
491.163	12.43
491.364	12.45
491.565	12.48
491.766	12.5
491.967	12.44
492.168	12.43
492.369	12.43
492.57	12.4
492.771	12.25
492.972	12.31
493.173	12.29
493.374	12.23
493.575	12.22
493.776	12.24
493.976	12.16
494.177	12.03
494.378	12.02
494.579	12.13
494.78	12.14
494.981	12.26
495.182	12.39
495.382	12.43
495.583	12.47
495.784	12.42
495.985	12.5
496.185	12.49
496.386	12.54
496.587	12.58
496.788	12.56
496.988	12.6
497.189	12.74
497.39	12.73
497.59	12.82
497.791	12.72
497.992	12.84
498.192	12.81
498.393	12.94
498.593	13.04
498.794	12.96
498.994	12.92
499.195	12.81
499.395	12.64
499.596	12.63
499.796	12.5
499.997	12.69
500.197	12.62
500.398	12.67
500.598	12.58
500.799	12.64
500.999	12.64
501.199	12.71
501.4	12.75
501.6	12.79
501.801	12.78
502.001	13.02
502.201	12.94
502.402	12.99
502.602	12.95
502.802	13.01
503.002	13.03
503.203	13.13
503.403	13.17
503.603	13.19
503.803	13.15
504.003	12.97
504.204	12.82
504.404	13.04
504.604	13.18
504.804	13.2
505.004	13.07
505.204	12.95
505.404	13.09
505.604	13.15
505.804	13.24
506.005	13.32
506.205	13.67
506.405	13.83
506.605	13.63
506.805	13.51
507.005	13.55
507.204	13.82
507.404	13.91
507.604	13.73
507.804	13.63
508.004	13.73
508.204	13.85
508.404	13.78
508.604	13.83
508.804	14
509.003	14.23
509.203	14.29
509.403	14.43
509.603	14.49
509.803	14.68
510.002	14.7
510.202	14.67
510.402	14.73
510.602	14.65
510.801	14.64
511.001	14.49
511.201	14.41
511.4	14.44
511.6	14.42
511.8	14.6
511.999	14.4
512.199	14.48
512.398	14.46
512.598	14.52
512.797	14.67
512.997	14.76
513.197	14.98
513.396	15.1
513.596	15.22
513.795	15.25
513.994	15.03
514.194	15.3
514.393	15.46
514.593	15.69
514.792	15.64
514.992	15.75
515.191	15.74
515.39	15.78
515.59	15.76
515.789	15.84
515.988	15.83
516.188	16.14
516.387	16.4
516.586	16.37
516.786	16.33
516.985	16.36
517.184	16.4
517.383	16.48
517.582	16.59
517.782	16.7
517.981	16.73
518.18	16.76
518.379	16.78
518.578	16.61
518.777	16.72
518.976	16.82
519.176	16.92
519.375	16.94
519.574	17.06
519.773	16.93
519.972	17.03
520.171	17.07
520.37	17.1
520.569	17.26
520.768	17.4
520.967	17.46
521.166	17.54
521.365	17.67
521.564	17.83
521.762	17.97
521.961	18.15
522.16	18.23
522.359	18.29
522.558	18.38
522.757	18.39
522.956	18.63
523.154	18.87
523.353	18.9
523.552	19.02
523.751	19.02
523.949	19.07
524.148	19.29
524.347	19.3
524.546	19.39
524.744	19.55
524.943	19.57
525.142	19.51
525.34	19.43
525.539	19.48
525.737	19.59
525.936	19.79
526.135	19.87
526.333	19.87
526.532	20
526.73	20.14
526.929	20.2
527.127	20.38
527.326	20.52
527.524	20.69
527.723	20.96
527.921	20.94
528.12	20.98
528.318	21.04
528.516	21.15
528.715	21.22
528.913	21.32
529.112	21.35
529.31	21.39
529.508	21.45
529.707	21.57
529.905	21.54
530.103	21.67
530.301	21.7
530.5	21.85
530.698	21.97
530.896	22.01
531.094	22.06
531.293	22.21
531.491	22.23
531.689	22.3
531.887	22.3
532.085	22.4
532.283	22.4
532.481	22.52
532.68	22.57
532.878	22.58
533.076	22.69
533.274	22.75
533.472	22.83
533.67	22.94
533.868	22.98
534.066	23.06
534.264	23.09
534.462	23.21
534.66	23.29
534.858	23.31
535.056	23.39
535.253	23.42
535.451	23.56
535.649	23.69
535.847	23.69
536.045	23.89
536.243	23.95
536.441	24.1
536.638	24.21
536.836	24.3
537.034	24.34
537.232	24.35
537.43	24.47
537.627	24.36
537.825	24.42
538.023	24.48
538.22	24.47
538.418	24.44
538.616	24.5
538.813	24.57
539.011	24.68
539.209	24.85
539.406	25
539.604	25.09
539.801	25.29
539.999	25.34
540.196	25.57
540.394	25.74
540.591	25.89
540.789	25.87
540.986	25.9
541.184	26.03
541.381	25.98
541.579	26.04
541.776	26.18
541.974	26.3
542.171	26.31
542.368	26.36
542.566	26.44
542.763	26.58
542.96	26.7
543.158	26.83
543.355	26.86
543.552	27.15
543.75	27.31
543.947	27.39
544.144	27.44
544.341	27.62
544.539	27.82
544.736	27.88
544.933	27.91
545.13	27.93
545.327	28.05
545.524	28.11
545.722	28.06
545.919	27.97
546.116	27.97
546.313	27.98
546.51	28.03
546.707	27.98
546.904	27.91
547.101	27.9
547.298	27.99
547.495	28.06
547.692	28.22
547.889	28.34
548.086	28.48
548.283	28.66
548.48	28.81
548.677	28.76
548.874	28.85
549.07	29.14
549.267	29.28
549.464	29.53
549.661	29.42
549.858	29.25
550.055	29.2
550.251	29.39
550.448	29.17
550.645	29.3
550.842	29.54
551.038	29.62
551.235	29.79
551.432	29.83
551.628	29.73
551.825	29.93
552.022	30.13
552.218	30.33
552.415	30.2
552.612	30.4
552.808	30.42
553.005	30.5
553.201	30.5
553.398	30.51
553.594	30.56
553.791	30.63
553.987	30.7
554.184	30.62
554.38	30.7
554.577	30.98
554.773	31.16
554.97	31.14
555.166	31.19
555.362	31.33
555.559	31.34
555.755	31.62
555.952	31.64
556.148	31.62
556.344	31.94
556.541	31.98
556.737	31.9
556.933	31.75
557.129	31.68
557.326	31.71
557.522	31.74
557.718	31.7
557.914	31.76
558.11	31.98
558.307	32.14
558.503	32.02
558.699	32.1
558.895	32.2
559.091	32.52
559.287	32.99
559.483	33.3
559.679	33.39
559.876	33.6
560.072	33.63
560.268	33.49
560.464	33.73
560.66	34.07
560.856	34.05
561.052	34.14
561.247	33.99
561.443	33.98
561.639	34
561.835	33.97
562.031	34.14
562.227	34.13
562.423	34.23
562.619	34.28
562.815	34.19
563.01	34.37
563.206	34.65
563.402	34.67
563.598	34.58
563.793	34.6
563.989	34.75
564.185	34.67
564.381	34.84
564.576	34.95
564.772	34.97
564.968	34.96
565.163	35.06
565.359	35.11
565.555	35.37
565.75	35.66
565.946	35.77
566.141	36.04
566.337	36.17
566.532	36.12
566.728	36.45
566.923	36.43
567.119	36.38
567.314	36.35
567.51	36.32
567.705	36.34
567.901	36.19
568.096	36.3
568.292	36.26
568.487	36.35
568.682	36.46
568.878	36.53
569.073	36.82
569.268	37.06
569.464	37.12
569.659	37.14
569.854	37.25
570.05	37.64
570.245	37.65
570.44	37.68
570.635	37.73
570.831	37.77
571.026	37.48
571.221	37.49
571.416	37.53
571.611	37.7
571.806	37.85
572.002	37.88
572.197	37.78
572.392	37.62
572.587	37.69
572.782	37.67
572.977	37.82
573.172	38.04
573.367	37.92
573.562	37.79
573.757	37.68
573.952	37.62
574.147	37.8
574.342	37.9
574.537	38.16
574.732	38.25
574.927	38.23
575.121	38.12
575.316	37.95
575.511	38.15
575.706	38.36
575.901	38.41
576.096	38.54
576.29	38.45
576.485	38.17
576.68	38.16
576.875	38.21
577.069	38.38
577.264	38.58
577.459	38.76
577.654	38.96
577.848	38.88
578.043	39.06
578.238	39.12
578.432	39
578.627	39.3
578.821	39.41
579.016	39.17
579.21	39.23
579.405	38.85
579.6	38.93
579.794	38.61
579.989	38.88
580.183	38.56
580.378	38.56
580.572	38.82
580.766	39.08
580.961	38.92
581.155	39
581.35	38.78
581.544	39.19
581.738	39.28
581.933	39.42
582.127	39.41
582.321	39.79
582.516	39.54
582.71	39.48
582.904	39.3
583.099	39.21
583.293	39.53
583.487	39.75
583.681	39.51
583.875	39.44
584.07	39.27
584.264	39.13
584.458	39.16
584.652	39.44
584.846	39.38
585.04	39.43
585.234	39.82
585.428	39.67
585.623	39.94
585.817	40.38
586.011	40.64
586.205	40.84
586.399	41.09
586.593	40.95
586.787	41.16
586.981	41.44
587.174	41.19
587.368	40.73
587.562	40.43
587.756	40.2
587.95	40.2
588.144	40.14
588.338	40.22
588.532	40.26
588.725	40.57
588.919	40.57
589.113	40.43
589.307	40.76
589.501	41.09
589.694	41.61
589.888	41.47
590.082	41.27
590.275	41.2
590.469	41.04
590.663	40.89
590.856	41.17
591.05	41.16
591.244	41.55
591.437	41.74
591.631	41.7
591.824	41.71
592.018	42.03
592.212	42.09
592.405	42.25
592.599	42.23
592.792	42.3
592.986	41.99
593.179	42.3
593.372	41.95
593.566	41.9
593.759	42.13
593.953	42.23
594.146	41.96
594.339	42.1
594.533	41.97
594.726	42.17
594.92	42.31
595.113	42.08
595.306	41.82
595.499	42
595.693	41.95
595.886	42.14
596.079	42.02
596.272	42.34
596.466	42.23
596.659	42.39
596.852	42.31
597.045	42.49
597.238	42.57
597.431	42.67
597.624	42.61
597.818	42.72
598.011	42.42
598.204	42.45
598.397	42.35
598.59	42.6
598.783	42.65
598.976	42.86
599.169	42.73
599.362	42.83
599.555	42.6
599.748	42.75
599.941	42.37
600.134	42.55
600.326	42.48
600.519	42.51
600.712	42.44
600.905	42.34
601.098	42.43
601.291	42.18
601.483	42.08
601.676	42.07
601.869	41.94
602.062	42.05
602.255	42.28
602.447	42.5
602.64	42.47
602.833	42.48
603.025	42.47
603.218	42.5
603.411	42.77
603.603	43.08
603.796	43.33
603.989	43.58
604.181	43.82
604.374	43.8
604.566	43.94
604.759	43.9
604.951	44.12
605.144	44.16
605.336	44.14
605.529	44.16
605.721	44.01
605.914	43.93
606.106	43.76
606.299	43.58
606.491	43.51
606.683	43.24
606.876	43.39
607.068	43.32
607.26	43.36
607.453	43.45
607.645	43.35
607.837	43.4
608.03	43.79
608.222	44.16
608.414	44.59
608.606	44.69
608.799	44.66
608.991	44.87
609.183	45.09
609.375	45.44
609.567	45.62
609.759	45.86
609.952	46.11
610.144	46.06
610.336	46.18
610.528	46.14
610.72	46.14
610.912	46.66
611.104	46.76
611.296	46.58
611.488	46.39
611.68	46.33
611.872	46.35
612.064	46.2
612.256	46.01
612.448	45.69
612.64	45.63
612.832	45.42
613.023	45.31
613.215	45.1
613.407	45.06
613.599	44.93
613.791	44.8
613.983	44.57
614.174	44.6
614.366	45.07
614.558	45.1
614.75	45.24
614.941	45.33
615.133	44.93
615.325	44.7
615.516	44.66
615.708	45
615.9	44.97
616.091	45.06
616.283	45.02
616.475	44.63
616.666	44.44
616.858	44.28
617.049	44.57
617.241	44.86
617.432	44.97
617.624	44.94
617.815	44.79
618.007	44.71
618.198	45.06
618.39	44.91
618.581	44.79
618.773	44.86
618.964	44.89
619.155	45.17
619.347	44.74
619.538	44.89
619.729	45.22
619.921	45.23
620.112	45.44
620.303	45.09
620.494	45.15
620.686	45.27
620.877	45.49
621.068	45.33
621.259	45.08
621.451	45.18
621.642	44.98
621.833	44.65
622.024	44.73
622.215	44.65
622.406	44.77
622.597	44.98
622.788	44.98
622.98	44.95
623.171	45.09
623.362	44.95
623.553	45.08
623.744	45.34
623.935	45.23
624.126	45.35
624.317	45.2
624.508	45.4
624.698	45.43
624.889	45.37
625.08	45.12
625.271	45.2
625.462	45.19
625.653	45.34
625.844	45.26
626.034	45.54
626.225	45.41
626.416	45.65
626.607	45.46
626.798	45.25
626.988	45.39
627.179	45.66
627.37	45.95
627.56	45.88
627.751	45.86
627.942	45.86
628.132	45.68
628.323	45.65
628.514	45.7
628.704	45.75
628.895	45.71
629.085	45.83
629.276	45.75
629.466	45.44
629.657	45.45
629.847	45.46
630.038	45.59
630.228	45.88
630.419	45.83
630.609	45.67
630.8	45.62
630.99	45.71
631.181	45.35
631.371	45.19
631.561	44.98
631.752	45.05
631.942	45
632.132	44.62
632.323	44.34
632.513	44.39
632.703	44.59
632.893	44.52
633.084	44.44
633.274	44.36
633.464	44.4
633.654	44.64
633.844	44.69
634.034	44.67
634.225	44.94
634.415	44.75
634.605	44.57
634.795	44.62
634.985	44.85
635.175	45.26
635.365	45.38
635.555	45.62
635.745	45.29
635.935	45.2
636.125	45.35
636.315	45.37
636.505	45.58
636.695	45.74
636.885	45.46
637.075	45.18
637.265	45.07
637.455	45.41
637.644	45.3
637.834	45.67
638.024	45.7
638.214	45.44
638.404	45.34
638.593	45.44
638.783	45.16
638.973	45.39
639.163	45.34
639.352	45.08
639.542	44.94
639.732	44.83
639.921	44.32
640.111	44.35
640.301	44.41
640.49	44.66
640.68	44.89
640.87	45.15
641.059	45.08
641.249	45.46
641.438	45.64
641.628	45.39
641.817	45.68
642.007	46.08
642.196	46.24
642.386	46.31
642.575	45.69
642.764	45.42
642.954	45.69
643.143	45.55
643.333	45.71
643.522	45.25
643.711	45.4
643.901	45.29
644.09	45.12
644.279	45.05
644.469	45.26
644.658	45.59
644.847	45.58
645.036	45.24
645.226	45.21
645.415	44.79
645.604	45.29
645.793	45.28
645.982	45.26
646.171	45.53
646.361	45.46
646.55	45.49
646.739	45.83
646.928	45.97
647.117	46.09
647.306	46.17
647.495	45.97
647.684	45.86
647.873	45.91
648.062	45.83
648.251	45.89
648.44	45.79
648.629	46.03
648.818	46.08
649.007	46.14
649.196	46.31
649.384	46.04
649.573	46.46
649.762	46.76
649.951	46.69
650.14	46.36
650.328	46.21
650.517	46.38
650.706	46.1
650.895	45.72
651.083	45.55
651.272	45.4
651.461	45.68
651.65	45.06
651.838	44.79
652.027	44.59
652.216	44.9
652.404	45
652.593	45.01
652.781	44.71
652.97	44.59
653.158	44.54
653.347	44.42
653.535	44.43
653.724	45.17
653.912	45.16
654.101	45.55
654.289	45.36
654.478	45.17
654.666	45.18
654.855	45.72
655.043	46.02
655.231	45.68
655.42	45.92
655.608	46.05
655.796	45.9
655.985	46.31
656.173	46.2
656.361	46.49
656.55	46.46
656.738	46.73
656.926	46.58
657.114	46.32
657.302	46.49
657.491	46.45
657.679	46.63
657.867	47
658.055	46.88
658.243	46.67
658.431	46.47
658.619	46.86
658.807	46.73
658.996	46.44
659.184	46.71
659.372	47.04
659.56	46.89
659.748	46.66
659.936	46.33
660.124	46.36
660.311	46.29
660.499	46.53
660.687	46.17
660.875	46.18
661.063	46.3
661.251	46.45
661.439	46.3
661.627	46.44
661.814	46.77
662.002	46.88
662.19	46.46
662.378	47.03
662.565	46.71
662.753	46.91
662.941	46.95
663.129	47.01
663.316	46.74
663.504	46.66
663.692	46.69
663.879	46.3
664.067	46.39
664.254	46.83
664.442	46.34
664.63	46.51
664.817	46.2
665.005	45.94
665.192	45.78
665.38	45.81
665.567	45.84
665.755	45.81
665.942	45.61
666.13	45.3
666.317	45.21
666.504	45.4
666.692	45.76
666.879	45.94
667.067	45.97
667.254	46.18
667.441	46.06
667.629	46.02
667.816	46.4
668.003	46.68
668.19	46.83
668.378	46.84
668.565	46.63
668.752	46.51
668.939	47.06
669.127	46.74
669.314	46.49
669.501	46.46
669.688	46.7
669.875	46.33
670.062	45.97
670.249	46.07
670.436	45.94
670.623	46.16
670.81	45.89
670.997	45.67
671.184	45.73
671.371	45.98
671.558	46.04
671.745	46.13
671.932	45.91
672.119	45.7
672.306	45.95
672.493	46.24
672.68	46.65
672.867	46.81
673.054	46.8
673.24	47.11
673.427	46.94
673.614	47.36
673.801	47.14
673.988	47.18
674.174	47.72
674.361	47.19
674.548	46.87
674.734	46.85
674.921	46.97
675.108	46.87
675.294	46.84
675.481	46.72
675.668	46.03
675.854	45.81
676.041	46
676.227	46.23
676.414	46.07
676.601	46.09
676.787	45.87
676.974	45.63
677.16	45.42
677.347	45.67
677.533	45.86
677.719	46.26
677.906	46.39
678.092	46.75
678.279	47
678.465	46.97
678.651	47
678.838	47.01
679.024	47.23
679.21	47.31
679.397	47.1
679.583	46.59
679.769	46.72
679.955	46.69
680.142	46.52
680.328	46.35
680.514	46.72
680.7	46.84
680.886	47.09
681.073	46.76
681.259	46.55
681.445	46.17
681.631	46.55
681.817	46.24
682.003	46.13
682.189	46.06
682.375	45.61
682.561	46.01
682.747	45.87
682.933	45.44
683.119	45.68
683.305	45.8
683.491	46.46
683.677	46.72
683.863	47.26
684.049	47.23
684.235	47.16
684.42	47.48
684.606	47
684.792	47.25
684.978	46.87
685.164	46.91
685.349	47.02
685.535	46.99
685.721	46.9
685.907	46.53
686.092	47.11
686.278	47.43
686.464	47.46
686.649	47.42
686.835	47.49
687.021	47.74
687.206	47.54
687.392	47.56
687.577	47.67
687.763	47.84
687.948	47.79
688.134	47.67
688.319	47.45
688.505	47.37
688.69	47.21
688.876	46.51
689.061	46.94
689.247	47.25
689.432	47.12
689.618	46.63
689.803	46.37
689.988	46.7
690.174	46.62
690.359	46.08
690.544	45.79
690.73	45.7
690.915	46.28
691.1	46.15
691.285	46.28
691.471	46.55
691.656	47.12
691.841	46.98
692.026	46.63
692.211	46.55
692.396	47.28
692.582	47.15
692.767	47.44
692.952	47.78
693.137	47.53
693.322	47.25
693.507	47.26
693.692	46.85
693.877	47.14
694.062	46.96
694.247	47.32
694.432	47.51
694.617	47.7
694.802	47.74
694.987	47.58
695.172	47.83
695.357	47.72
695.541	47.39
695.726	47.51
695.911	47.58
696.096	47.7
696.281	47.3
696.466	47.14
696.65	47.53
696.835	47.91
697.02	47.88
697.204	47.52
697.389	47.55
697.574	47.67
697.759	48.12
697.943	48.17
698.128	48.13
698.312	48.03
698.497	48.1
698.682	48.06
698.866	47.64
699.051	47.33
699.235	47.31
699.42	47.3
699.604	47.1
699.789	46.87
699.973	46.5
700.158	46.96
700.342	46.69
700.527	46.51
700.711	46.9
700.895	46.75
701.08	46.88
701.264	46.97
701.448	47.12
701.633	47.28
701.817	46
702.001	46.47
702.186	46.08
702.37	46.75
702.554	46.45
702.738	45.9
702.923	46.09
703.107	46.15
703.291	46.32
703.475	45.72
703.659	45.46
703.843	46.52
704.027	46.99
704.212	46.61
704.396	46.66
704.58	46.95
704.764	46.79
704.948	46.93
705.132	46.96
705.316	47.66
705.5	48.29
705.684	48.99
705.868	49.42
706.052	48.82
706.235	48.96
706.419	48.91
706.603	49.74
706.787	49.81
706.971	49.91
707.155	49.34
707.339	48.85
707.522	48.64
707.706	48.41
707.89	47.97
708.074	47.34
708.257	48.31
708.441	47.63
708.625	46.85
708.808	46.96
708.992	46.8
709.176	47.82
709.359	47.21
709.543	47.46
709.727	47.35
709.91	47.47
710.094	47.16
710.277	47.23
710.461	47.68
710.644	47.56
710.828	47.56
711.011	47.43
711.195	46.79
711.378	47.44
711.562	47.17
711.745	47.64
711.928	48.05
712.112	48.89
712.295	47.43
712.478	47.76
712.662	48.07
712.845	47.74
713.028	48.01
713.212	47.94
713.395	47.67
713.578	46.99
713.761	46.98
713.945	46.75
714.128	46.1
714.311	46.78
714.494	46.32
714.677	45.96
714.86	46.74
715.043	46.34
715.227	46.53
715.41	46.27
715.593	47.15
715.776	46.96
715.959	46.64
716.142	47.04
716.325	47.08
716.508	46.97
716.691	46.37
716.874	45.86
717.057	46.32
717.239	45.86
717.422	46.64
717.605	46.62
717.788	45.87
717.971	46.14
718.154	45.67
718.337	45.71
718.519	45.74
718.702	46.58
718.885	46.83
719.068	46.63
719.25	46.93
719.433	45.92
719.616	45.55
719.798	45.82
719.981	44.6
720.164	45.17
720.346	45.4
720.529	45.98
720.712	45.38
720.894	44.78
721.077	45.5
721.259	44.7
721.442	44.28
721.624	44.1
721.807	44.55
721.989	46.5
722.172	46.54
722.354	45.69
722.537	45.19
722.719	46.12
722.901	46.13
723.084	45.35
723.266	46.05
723.448	46.79
723.631	47.86
723.813	48.12
723.995	46.45
724.178	47.16
724.36	48.13
724.542	47.89
724.724	47.25
724.907	47.48
725.089	47.63
725.271	48.78
725.453	48.88
725.635	47.86
725.817	47.56
725.999	48.14
726.181	47.94
726.364	47.08
726.546	47.09
726.728	47.12
726.91	46.57
727.092	46.4
727.274	45.56
727.456	45.32
727.638	46.63
727.819	46.3
728.001	46.97
728.183	46.28
728.365	46.49
728.547	46.9
728.729	46.59
728.911	46.61
729.093	46.99
729.274	47.46
729.456	47.99
729.638	46.97
729.82	46.75
730.001	46.6
730.183	46.74
730.365	47.06
730.546	47.13
730.728	47.19
730.91	48.04
731.091	46.06
731.273	45.53
731.455	45
731.636	44.88
731.818	45.17
731.999	44.8
732.181	45.07
732.362	44.89
732.544	44.01
732.725	44.19
732.907	44.05
733.088	44.79
733.27	44.98
733.451	45.18
733.633	45.39
733.814	45.17
733.995	44.19
734.177	43.45
734.358	44.59
734.539	44.54
734.721	44.41
734.902	44.33
735.083	45.8
735.264	45.95
735.446	46.76
735.627	47.35
735.808	48.38
735.989	49.14
736.17	49.37
736.351	47.46
736.533	48.06
736.714	48.1
736.895	46.83
737.076	45.53
737.257	44.89
737.438	43.64
737.619	42.88
737.8	42.91
737.981	43.28
738.162	43.01
738.343	43.93
738.524	44.2
738.705	43.8
738.886	44.43
739.067	45.05
739.247	45.74
739.428	45.69
739.609	46.52
739.79	45.98
739.971	47.12
740.151	47.18
740.332	46.77
740.513	47.56
740.694	48.55
740.874	48.74
741.055	47.87
741.236	47.8
741.417	48.32
741.597	47.97
741.778	47.92
741.958	46.69
742.139	47.81
742.32	46.75
742.5	46.16
742.681	46.54
742.861	46.76
743.042	46.32
743.222	46.42
743.403	45.45
743.583	44.46
743.764	43.72
743.944	43.76
744.124	42.91
744.305	44.04
744.485	42.89
744.666	42.48
744.846	43.08
745.026	43.24
745.207	42.52
745.387	43.5
745.567	43.9
745.747	44.15
745.928	44.68
746.108	44.9
746.288	44.68
746.468	45.91
746.648	45.09
746.829	44.55
747.009	45.32
747.189	46.31
747.369	45.94
747.549	46.14
747.729	46.37
747.909	45.61
748.089	45.47
748.269	44.65
748.449	44.26
748.629	44.85
748.809	46.09
748.989	47.99
749.169	47.27
749.349	47.55
749.529	47.9
749.709	47.93
749.889	48.17
750.068	47.48
750.248	48.85
750.428	48.25
750.608	47.99
750.788	47.22
750.967	46.43
751.147	45.88
751.327	47.31
751.507	46.31
751.686	46.78
751.866	46.75
752.046	46.54
752.225	46.97
752.405	47.04
752.585	47.44
752.764	47.95
752.944	47.17
753.123	47.52
753.303	44.92
753.482	45.23
753.662	45.27
753.841	45.52
754.021	45.07
754.2	43.69
754.38	45.14
754.559	45.42
754.739	44.34
754.918	44.84
755.097	44.9
755.277	46.48
755.456	46.31
755.635	45.79
755.815	44.47
755.994	46.19
756.173	46.11
756.352	45.33
756.532	45.83
756.711	45.69
756.89	45.3
757.069	44.91
757.248	44.67
757.427	45.31
757.607	44.25
757.786	46.27
757.965	46.39
758.144	47.02
758.323	46.16
758.502	46.53
758.681	46.86
758.86	46.81
759.039	47.2
759.218	47.4
759.397	47.46
759.576	48.33
759.755	46.35
759.934	45.99
760.113	45.6
760.291	46.39
760.47	45.11
760.649	44.47
760.828	45.21
761.007	45.74
761.186	46.1
761.364	46.18
761.543	47.98
761.722	48.24
761.901	47.79
762.079	47.84
762.258	46.77
762.437	46.85
762.615	46.55
762.794	45.75
762.972	45.09
763.151	44.5
763.33	44.3
763.508	43.47
763.687	44.24
763.865	43.74
764.044	44.56
764.222	44.67
764.401	44.4
764.579	45.24
764.758	45.42
764.936	46.53
765.114	46.68
765.293	47.19
765.471	47.25
765.65	46.82
765.828	47.94
766.006	47.77
766.184	48.29
766.363	48.69
766.541	48.22
766.719	48.19
766.898	47.05
767.076	46.22
767.254	45.88
767.432	45.4
767.61	45.44
767.788	45.08
767.967	44.28
768.145	43.74
768.323	43.61
768.501	44.11
768.679	45.48
768.857	45.86
769.035	46.71
769.213	47.16
769.391	47.17
769.569	47.1
769.747	46.66
769.925	46.05
770.103	47.43
770.281	46.28
770.459	45.54
770.636	45.84
770.814	47.29
770.992	47.82
771.17	46.95
771.348	46.13
771.525	45.75
771.703	45.26
771.881	45.61
772.059	44.48
772.236	45.17
772.414	43.18
772.592	40.31
772.769	38.01
772.947	37.58
773.125	36.6
773.302	37.07
773.48	37.29
773.657	38.99
773.835	39.56
774.013	39.3
774.19	37.57
774.368	38.75
774.545	37.67
774.723	36.26
774.9	35.21
775.077	35.19
775.255	37.19
775.432	36.85
775.61	37.48
775.787	36.56
775.964	36.87
776.142	40.11
776.319	40.75
776.496	42.17
776.674	43.45
776.851	44.53
777.028	42.32
777.205	41.48
777.382	44.69
777.56	43.73
777.737	43.72
777.914	41.79
778.091	39.75
778.268	40.21
778.445	40.94
778.622	42.57
778.8	41.53
778.977	43.64
779.154	41.05
779.331	38.24
779.508	37.07
779.685	36.2
779.862	38.85
780.038	39.55
780.215	37.79
780.392	36.72
780.569	32.22
780.746	33.18
780.923	34.14
781.1	34.67
781.277	33.64
781.453	35.13
781.63	37.08
781.807	36.22
781.984	35.02
782.16	36.27
782.337	36.25
782.514	38.09
782.691	37.55
782.867	34.63
783.044	35.22
783.221	36.66
783.397	33.19
783.574	29.11
783.75	27.97
783.927	30.73
784.103	31.7
784.28	32.47
784.456	34.71
784.633	34.86
784.809	36.78
784.986	37.87
785.162	35.67
785.339	38.95
785.515	41.67
785.692	44.23
785.868	42.25
786.044	40.98
786.221	39.55
786.397	38.91
786.573	39.95
786.749	40.96
786.926	40.84
787.102	40.36
787.278	40.27
787.454	40.51
787.631	37.67
787.807	40.13
787.983	40.71
788.159	42.34
788.335	38.85
788.511	40.57
788.687	38.72
788.863	39.58
789.039	42.4
789.216	40.87
789.392	40.73
789.568	41.97
789.744	39.49
789.919	38.37
790.095	37.58
790.271	40.3
790.447	37.52
790.623	40.08
790.799	42.94
790.975	41.15
791.151	42.97
791.327	45.59
791.502	45.22
791.678	47.13
791.854	48.95
792.03	48.39
792.205	50.16
792.381	48.44
792.557	48.51
792.733	43.84
792.908	46.41
793.084	45.01
793.259	45.01
793.435	46.04
793.611	47.67
793.786	47.1
793.962	48.78
794.137	46.6
794.313	48.86
794.488	47.35
794.664	47.38
794.839	44.6
795.015	45.85
795.19	42.27
795.366	40.88
795.541	39.33
795.716	40.9
795.892	39.41
796.067	38.73
796.242	41.04
796.418	39.57
796.593	41.12
796.768	42.53
796.944	41.41
797.119	41.29
797.294	39.81
797.469	41.38
797.644	39.31
797.82	38.92
797.995	38.6
798.17	35.09
798.345	36.8
798.52	34.68
798.695	32.35
798.87	32.35
799.045	34.27
799.22	35.78
799.395	33.25
799.57	37.11
799.745	38.13
799.92	39.75
800.095	41.56
800.27	40.98
800.445	41.71
800.62	40.34
800.795	39.29
800.97	37.84
801.145	40.22
801.319	39.99
801.494	36.63
801.669	35.62
801.844	32.26
802.018	32.61
802.193	33.79
802.368	33.18
802.543	33.7
802.717	35.11
802.892	36.73
803.067	37.52
803.241	38.05
803.416	39.95
803.59	41.16
803.765	42.97
803.94	38.96
804.114	36.52
804.289	36.73
804.463	40.19
804.638	40.44
804.812	39.86
804.986	40.03
805.161	41.25
805.335	38.34
805.51	37.75
805.684	40.8
805.858	43.18
806.033	43.3
806.207	44.5
806.381	44.4
806.556	46.15
806.73	44.07
806.904	43.64
807.078	43.58
807.253	45.06
807.427	49.23
807.601	48.24
807.775	46
807.949	46.93
808.123	45.34
808.298	44.97
808.472	42.55
808.646	44.18
808.82	42.96
808.994	38.11
809.168	36.06
809.342	31.36
809.516	31.82
809.69	34.33
809.864	35.42
810.038	39.24
810.212	35.43
810.385	35.26
810.559	35.38
810.733	29.91
810.907	33.46
811.081	35.61
811.255	34.31
811.428	32.39
811.602	30.28
811.776	28.48
811.95	28.42
812.123	32.01
812.297	32.96
812.471	34.91
812.644	39.39
812.818	36.75
812.992	33.73
813.165	34.03
813.339	37.61
813.512	34.4
813.686	37.17
813.86	32.53
814.033	28.16
814.207	30.08
814.38	31.19
814.554	30.91
814.727	34.57
814.9	34.98
815.074	37.1
815.247	34.49
815.421	40.39
815.594	41.17
815.767	38.7
815.941	43.34
816.114	38.85
816.287	38.44
816.46	35.87
816.634	33.84
816.807	35.35
816.98	35.23
817.153	36.8
817.327	35.92
817.5	31.39
817.673	33.86
817.846	33.75
818.019	37.89
818.192	35.57
818.365	45.31
818.538	45.04
818.711	44.83
818.884	44.45
819.057	35.89
819.23	33.41
819.403	35.1
819.576	33.73
819.749	34.62
819.922	33.31
820.095	34.48
820.268	30.39
820.441	30.82
820.614	35.07
820.786	35.3
820.959	40.2
821.132	41.68
821.305	43.05
821.477	45.37
821.65	44.48
821.823	45.01
821.996	44.86
822.168	45.08
822.341	45.96
822.514	44.8
822.686	45.63
822.859	45.78
823.031	45.73
823.204	45
823.376	44.67
823.549	45.34
823.722	45.28
823.894	45
824.067	45.11
824.239	44.25
824.411	44.76
824.584	44.18
824.756	44.11
824.929	44.73
825.101	45.02
825.273	45.03
825.446	44.71
825.618	44.91
825.79	45.73
825.963	44.86
826.135	45.03
826.307	44.99
826.479	44.82
826.652	44.95
826.824	43.86
826.996	44.22
827.168	43.67
827.34	43.82
827.512	44.25
827.684	42.88
827.856	42.87
828.029	43.5
828.201	43.22
828.373	42.43
828.545	41.67
828.717	41.82
828.889	41.21
829.061	41.17
829.232	39.63
829.404	38.29
829.576	39.22
829.748	39.92
829.92	39.23
830.092	37.95
830.264	38.12
830.436	37.78
830.607	37.01
830.779	37.41
830.951	37.38
831.123	38.18
831.294	37.48
831.466	32.98
831.638	31.09
831.809	29.48
831.981	29.69
832.153	27.33
832.324	26.15
832.496	26.05
832.667	22.19
832.839	21.95
833.011	22.82
833.182	21.14
833.354	23.29
833.525	28.03
833.697	30.14
833.868	31.42
834.039	33.69
834.211	37.02
834.382	38
834.554	42.42
834.725	44.44
834.896	43.3
835.068	44.77
835.239	46.19
835.41	45.48
835.581	46.35
835.753	45.66
835.924	45.33
836.095	43.5
836.266	43.77
836.438	42.02
836.609	39.12
836.78	39.44
836.951	40.82
837.122	41.55
837.293	41.28
837.464	40.23
837.635	40.4
837.806	40.14
837.977	40.3
838.148	37.85
838.319	35.26
838.49	38.04
838.661	36.1
838.832	31.01
839.003	24.08
839.174	13.74
839.345	11.75
839.516	3.66
839.687	-4.55
839.857	-0.89
840.028	3.15
840.199	5.86
840.37	7.19
840.54	15.07
840.711	19.21
840.882	22.97
841.053	25.17
841.223	22.6
841.394	31.83
841.564	37.18
841.735	33.69
841.906	34.26
842.076	35.58
842.247	37.4
842.417	31.66
842.588	30.44
842.758	27.68
842.929	28.98
843.099	24.86
843.27	14.59
843.44	10.68
843.611	16.74
843.781	9.49
843.951	5.91
844.122	2.61
844.292	5.97
844.462	-4.23
844.633	3.75
844.803	11.25
844.973	15.2
845.144	15.97
845.314	20.29
845.484	17.18
845.654	31.64
845.824	43.4
845.995	40.51
846.165	28.77
846.335	44.24
846.505	47.57
846.675	46.03
846.845	55.49
847.015	56.79
847.185	40.42
847.355	18
847.525	13.04
847.695	6.66
847.865	-10.29
848.035	2.22
848.205	-13.95
848.375	-16.03
848.545	-28.86
848.715	-21.63
848.884	-26.08
849.054	-23.09
849.224	3.08
849.394	-0.6
849.564	-7.88
849.733	19.9
849.903	4.54
850.073	19.16
850.243	33.19
850.412	40.37
850.582	21.95
850.752	12.38
850.921	14.54
851.091	22.44
851.26	17.3
851.43	4.12
851.599	-9.08
851.769	-1.14
851.939	-5.01
852.108	-51.55
852.278	-47.44
852.447	-54.94
852.616	-26.3
852.786	-45.22
852.955	-54.22
853.125	-56.89
853.294	-47.7
853.463	-49.44
853.633	-93.57
853.802	-97.27
853.971	-86.77
854.141	-97.18
854.31	-99.03
854.479	-140.85
854.648	-167.24
854.818	-169.19
854.987	-128.7
855.156	-114.22
855.325	-72.26
855.494	-67.44
855.663	-74.93
855.832	-73.62
856.001	-51.09
856.171	-34.43
856.34	-37.91
856.509	-18.6
856.678	-51.79
856.847	-42.05
857.016	-60.22
857.185	-60.14
857.353	-25.89
857.522	-21.59
857.691	-9.26
857.86	-9.25
858.029	-2.61
858.198	-6.5
858.367	0.7
858.535	4.41
858.704	-7.63
858.873	9.52
859.042	12.99
859.21	7.61
859.379	2.37
859.548	-14.6
859.717	-17.6
859.885	-21.8
860.054	-19.17
860.222	-42.38
860.391	-32.54
860.56	-18.25
860.728	-20.74
860.897	-20.28
861.065	-18.13
861.234	-14.89
861.402	-15.62
861.571	-22.67
861.739	-20.12
861.908	-9.26
862.076	7.13
862.244	14.39
862.413	4.93
862.581	0.53
862.749	-34.54
862.918	-50.86
863.086	-71.59
863.254	-58.19
863.423	-30.23
863.591	-23.38
863.759	-159.63
863.927	-234.64
864.096	-1378.54
864.264	379.45
864.432	557.63
864.6	-656.47
864.768	-123.64
864.936	11.12
865.104	4.55
865.272	3.39
865.44	-62.19
865.608	-10.17
865.776	-82.31
865.944	-67.21
866.112	-11.25
866.28	-24.7
866.448	-16.96
866.616	-23.14
866.784	-50.61
866.952	-60.63
867.12	-29.37
867.288	2.08
867.455	1.81
867.623	18.09
867.791	24.45
867.959	5.19
868.127	21.84
868.294	21.06
868.462	7
868.63	6.14
868.797	-1.07
868.965	-121.31
869.133	-103.17
869.3	-195.71
869.468	-57.23
869.636	-36.34
869.803	-22.72
869.971	-51.15
870.138	-53.29
870.306	-54.83
870.473	-36.48
870.641	-17.41
870.808	-10.72
870.975	-45.83
871.143	-20.87
871.31	-91
871.478	-204.5
871.645	-79.52
871.812	-71.3
871.98	-127.71
872.147	-149.81
872.314	-104.1
872.482	-165.25
872.649	-270.88
872.816	-117.29
872.983	-346.63
873.15	-122.7
873.318	-130.93
873.485	-238.11
873.652	-192.92
873.819	-54.02
873.986	-36.12
874.153	-55.59
874.32	-36.3
874.487	-11.94
874.654	-21.61
874.821	13.63
874.988	35
875.155	45.87
875.322	38.51
875.489	22.12
875.656	18.26
875.823	-1.21
875.99	-4.17
876.157	0.89
876.324	8.24
876.49	16.64
876.657	-2.89
876.824	-22.63
876.991	-34.54
877.157	-19.64
877.324	-8.44
877.491	0.35
877.658	-3.94
877.824	-2.25
877.991	-9.87
878.157	-9.54
878.324	-1.09
878.491	6.36
878.657	11.65
878.824	21.17
878.99	27.46
879.157	-0.99
879.323	-4.15
879.49	10.61
879.656	12.27
879.823	19.47
879.989	11.32
880.156	0.64
880.322	7.2
880.488	21.94
880.655	29.96
880.821	4.77
880.987	25.32
881.154	31.74
881.32	27.88
881.486	34.14
881.652	43.19
881.819	45.73
881.985	40.02
882.151	36.24
882.317	28.44
882.483	28.45
882.649	31.88
882.816	30.04
882.982	31.22
883.148	34.1
883.314	33.97
883.48	32.2
883.646	32.18
883.812	34.28
883.978	35.63
884.144	36.7
884.31	37.13
884.476	38.86
884.642	40.47
884.807	41.71
884.973	42.76
885.139	44.66
885.305	45.77
885.471	46.54
885.637	46.27
885.802	44.87
885.968	46.56
886.134	45.15
886.3	43.42
886.465	41.68
886.631	38.46
886.797	36.71
886.962	31.15
887.128	28.91
887.293	26.33
887.459	21.69
887.625	23.15
887.79	22.3
887.956	23.35
888.121	20
888.287	19.95
888.452	21.69
888.618	15.13
888.783	26.37
