Data from CB_110_Reflection_3.txt Node
Date: Sat Nov 14 18:13:13 EST 2015
User: robert
Spectrometer: USB4E03001
Autoset integration time: false
Trigger mode: 4
Integration Time (sec): 1.000000E-1
Scans to average: 15
Electric dark correction enabled: true
Nonlinearity correction enabled: false
Boxcar width: 5
Stray light correction enabled: false
XAxis mode: Wavelengths
Stop averaging: false
Number of Pixels in Spectrum: 3648
>>>>>Begin Spectral Data<<<<<
177.566	90.85
177.785	611.82
178.005	-56.3
178.225	89.59
178.445	1228.42
178.665	1.76
178.885	-721.65
179.105	93.43
179.324	176.69
179.544	42.58
179.764	38.44
179.984	39.63
180.204	4.08
180.423	20.3
180.643	44.31
180.863	34.22
181.083	47.88
181.302	71.1
181.522	96.31
181.742	78.51
181.961	123.05
182.181	165.68
182.401	456.55
182.621	338.98
182.84	503.62
183.06	234.24
183.279	161.18
183.499	253.76
183.719	149.81
183.938	73.28
184.158	98.35
184.377	85.52
184.597	83.82
184.816	63.55
185.036	61.83
185.256	58.14
185.475	60.67
185.695	72.65
185.914	64.63
186.134	84.06
186.353	85.67
186.572	76.34
186.792	80.44
187.011	86.21
187.231	91.18
187.45	90.42
187.67	93.65
187.889	94.94
188.108	97.61
188.328	106.67
188.547	97.89
188.766	107.51
188.986	101.77
189.205	99.84
189.424	88.03
189.644	85.6
189.863	92.35
190.082	94.73
190.302	99.17
190.521	78.24
190.74	85.37
190.959	84.37
191.178	107.48
191.398	115.09
191.617	126.85
191.836	128.95
192.055	134.6
192.274	136.2
192.494	131.98
192.713	234.5
192.932	333.61
193.151	404.95
193.37	236.44
193.589	183.29
193.808	289.99
194.027	488.33
194.246	-1178.9
194.465	1477.78
194.685	84.27
194.904	100.1
195.123	71.28
195.342	25.79
195.561	67.7
195.78	68.67
195.999	69.54
196.218	69.23
196.436	71.66
196.655	72.83
196.874	72.41
197.093	81.02
197.312	72.44
197.531	67.94
197.75	77.8
197.969	86.52
198.188	98.07
198.407	85.24
198.625	96.4
198.844	100.13
199.063	100.87
199.282	114.35
199.501	149.44
199.719	138.61
199.938	125.25
200.157	100.11
200.376	80.72
200.594	93.03
200.813	106.9
201.032	84.64
201.251	88.63
201.469	98.93
201.688	97.95
201.907	104.68
202.125	101.82
202.344	150.66
202.563	162.99
202.781	169.31
203	191.46
203.218	190.77
203.437	157.17
203.656	169.6
203.874	135.4
204.093	169.31
204.311	150.08
204.53	195.91
204.748	131.56
204.967	147.17
205.185	170.28
205.404	148.23
205.622	120.64
205.841	140.37
206.059	123.66
206.278	106.76
206.496	90.37
206.715	104.83
206.933	84.25
207.151	105.5
207.37	124.31
207.588	119.83
207.806	117.25
208.025	125.99
208.243	121.73
208.461	134.32
208.68	136.54
208.898	133.96
209.116	115.01
209.335	114.17
209.553	109.07
209.771	80.95
209.989	68.34
210.208	54.41
210.426	52.75
210.644	63.24
210.862	59.46
211.081	68.4
211.299	56.84
211.517	48.37
211.735	45.24
211.953	62.01
212.171	79.58
212.39	80.85
212.608	94.62
212.826	99.21
213.044	83
213.262	86.92
213.48	85.78
213.698	89.38
213.916	103.69
214.134	87.8
214.352	83.05
214.57	73.87
214.788	74.4
215.006	67.32
215.224	63.75
215.442	96.59
215.66	86.14
215.878	57.12
216.096	65.27
216.314	76.51
216.532	109.81
216.75	115.05
216.968	128.53
217.185	155.89
217.403	165.75
217.621	227.52
217.839	139.74
218.057	196.63
218.275	196.75
218.492	199.24
218.71	207.3
218.928	199.5
219.146	300.07
219.363	207.16
219.581	182.69
219.799	182.59
220.017	152
220.234	187.41
220.452	217.09
220.67	257.12
220.887	433.98
221.105	566.42
221.323	8859.51
221.54	667.81
221.758	3838.93
221.976	1775.07
222.193	369.18
222.411	489.96
222.629	808.53
222.846	848.79
223.064	-743.79
223.281	870.87
223.499	608.51
223.716	1038.49
223.934	-771.74
224.151	-233.13
224.369	-151.73
224.586	-63.77
224.804	-41.21
225.021	-40.05
225.239	-58.98
225.456	-86.58
225.674	-49.88
225.891	-48.54
226.108	-88.34
226.326	-91.87
226.543	-57.69
226.76	-36.15
226.978	-27.58
227.195	-34.2
227.413	-35.12
227.63	-19.16
227.847	-14.69
228.064	-8.73
228.282	-5.85
228.499	0.99
228.716	-0.08
228.934	-4.53
229.151	-3.12
229.368	-0.47
229.585	-0.09
229.802	3.38
230.02	4.44
230.237	6.22
230.454	8.47
230.671	5.92
230.888	5.45
231.105	3.71
231.323	5.9
231.54	-0.27
231.757	-11.05
231.974	-17.38
232.191	-24.13
232.408	-21.15
232.625	-20.31
232.842	-30.78
233.059	-22.76
233.276	-25.59
233.493	-23.93
233.71	-15.1
233.927	-3.5
234.144	-1.04
234.361	1.44
234.578	0.98
234.795	0.87
235.012	-2.56
235.229	-0.93
235.446	-5.11
235.663	-3.28
235.879	-3.14
236.096	-6.47
236.313	-14.51
236.53	-17.09
236.747	-13.38
236.964	-17.62
237.181	-27.81
237.397	-25.85
237.614	-27.54
237.831	-24.43
238.048	-28.24
238.264	-41.19
238.481	-47.03
238.698	-33.14
238.915	-26.93
239.131	-22.21
239.348	-12.92
239.565	-9.23
239.781	-10.45
239.998	-9.53
240.215	-10.89
240.431	-10.68
240.648	1.16
240.865	3.94
241.081	3.9
241.298	3.5
241.514	2.34
241.731	2.38
241.947	2.18
242.164	4.7
242.38	7.57
242.597	8.19
242.814	10.08
243.03	8
243.246	8.8
243.463	8.67
243.679	8.28
243.896	9.35
244.112	8.7
244.329	8.52
244.545	9.73
244.762	9.17
244.978	11.39
245.194	10.03
245.411	10.09
245.627	10.33
245.843	9.74
246.06	9.73
246.276	8.89
246.492	10.75
246.709	11.75
246.925	9.92
247.141	9.17
247.357	9.47
247.574	9.35
247.79	9.59
248.006	9.33
248.222	8.85
248.439	8.65
248.655	8.64
248.871	7.27
249.087	7.72
249.303	7.61
249.519	7.08
249.736	4.95
249.952	5.45
250.168	6.05
250.384	5.32
250.6	6.77
250.816	5.04
251.032	5.94
251.248	4.65
251.464	1.03
251.68	2
251.896	2.57
252.112	2.94
252.328	0.59
252.544	0.34
252.76	-2.13
252.976	-6.02
253.192	-5.55
253.408	-7.86
253.624	-6.82
253.84	-5.13
254.056	-6.64
254.272	-7.15
254.487	-7.85
254.703	-5.37
254.919	-8.77
255.135	-7.82
255.351	-4.28
255.567	0
255.782	2.29
255.998	2.43
256.214	0.04
256.43	3.77
256.646	1.54
256.861	1.9
257.077	-0.55
257.293	2.34
257.508	5.8
257.724	5.05
257.94	5.97
258.155	5.21
258.371	5.16
258.587	4.28
258.802	3.69
259.018	5.76
259.234	7.17
259.449	7.66
259.665	7.66
259.88	7.1
260.096	7.75
260.312	7.66
260.527	8.3
260.743	8.53
260.958	10.14
261.174	9.9
261.389	9.68
261.605	8.96
261.82	8.98
262.036	7.86
262.251	7.64
262.466	6.89
262.682	5.73
262.897	3.79
263.113	4.37
263.328	4.24
263.543	2.38
263.759	-1.09
263.974	-1.98
264.189	-3.4
264.405	-3.6
264.62	-2.75
264.835	-0.93
265.051	-0.67
265.266	-0.64
265.481	-2.15
265.696	-3.98
265.912	0.25
266.127	3.72
266.342	4.43
266.557	5.66
266.773	5.42
266.988	4.53
267.203	3.51
267.418	4.4
267.633	5.82
267.848	5.82
268.064	6.03
268.279	5.04
268.494	3.61
268.709	2.66
268.924	3.03
269.139	1.81
269.354	2.42
269.569	3.8
269.784	2.83
269.999	1.53
270.214	2.09
270.429	2.17
270.644	1.07
270.859	2.02
271.074	2.43
271.289	2.1
271.504	4.55
271.719	5.05
271.934	3.09
272.149	3.16
272.363	4.1
272.578	5.56
272.793	5.78
273.008	5.28
273.223	5.89
273.438	5.71
273.653	5.99
273.867	4.64
274.082	4.31
274.297	5.34
274.512	5.82
274.726	4.45
274.941	2.76
275.156	2.53
275.371	4.31
275.585	3.72
275.8	4.73
276.015	3.81
276.229	6.06
276.444	5.41
276.659	5.29
276.873	5.06
277.088	5.38
277.302	5.36
277.517	5.08
277.732	3.53
277.946	3.59
278.161	2.41
278.375	3.96
278.59	2.91
278.804	2.41
279.019	1.33
279.233	0.84
279.448	0.6
279.662	0.55
279.877	0.7
280.091	3.47
280.306	3.65
280.52	5.34
280.735	4.02
280.949	2.93
281.163	3.57
281.378	4.41
281.592	5.45
281.806	6.54
282.021	6.83
282.235	6.9
282.449	5.9
282.664	5.45
282.878	5.29
283.092	6.11
283.307	6.25
283.521	6.15
283.735	6.61
283.949	5.22
284.164	5.77
284.378	5.79
284.592	5.46
284.806	5.71
285.02	5.95
285.234	5.01
285.449	5.01
285.663	5.93
285.877	5.91
286.091	4.85
286.305	5.08
286.519	5.14
286.733	4.92
286.947	4.74
287.161	4.77
287.375	4.58
287.589	5.95
287.803	5.65
288.017	6.2
288.231	6.46
288.445	7.87
288.659	7.78
288.873	6.45
289.087	6.66
289.301	7.08
289.515	6.68
289.729	5.87
289.943	4.08
290.157	2.98
290.371	2.26
290.584	3.49
290.798	2.99
291.012	3.95
291.226	3.95
291.44	3.63
291.654	2.94
291.867	3.22
292.081	5.17
292.295	6.08
292.509	7.6
292.722	7.49
292.936	6.81
293.15	7.5
293.364	7.93
293.577	8.68
293.791	8.76
294.005	9.6
294.218	9.34
294.432	8.29
294.645	7.91
294.859	8.22
295.073	8.15
295.286	7.65
295.5	8.04
295.713	7.11
295.927	7.01
296.14	7.46
296.354	7.96
296.568	7.49
296.781	7.67
296.994	8.34
297.208	7.71
297.421	9.22
297.635	9.32
297.848	9.34
298.062	10.04
298.275	10.08
298.489	8.89
298.702	8.97
298.915	9.23
299.129	9.33
299.342	9.15
299.555	8.05
299.769	6.1
299.982	5.62
300.195	5.08
300.409	4.78
300.622	4.44
300.835	5.31
301.048	5.04
301.262	4.73
301.475	3.95
301.688	3.03
301.901	5.55
302.115	4.69
302.328	5.09
302.541	4.91
302.754	4.58
302.967	5.17
303.18	5.61
303.393	6.26
303.607	6.83
303.82	8.13
304.033	9.81
304.246	9.24
304.459	10.86
304.672	10.98
304.885	11.29
305.098	11.44
305.311	10.76
305.524	10.85
305.737	9.27
305.95	9.67
306.163	8.14
306.376	6.16
306.589	6.3
306.802	4.88
307.015	3.87
307.228	3.42
307.44	4
307.653	4.46
307.866	4.15
308.079	5.19
308.292	5.03
308.505	5.12
308.718	6.71
308.93	7.86
309.143	8.48
309.356	8.56
309.569	9.47
309.781	10.14
309.994	9.97
310.207	9.97
310.42	9.33
310.632	9.07
310.845	8.95
311.058	8.99
311.27	9.32
311.483	9.95
311.696	11.38
311.908	11.22
312.121	10.15
312.333	10.91
312.546	11.49
312.759	11.88
312.971	12.62
313.184	12.91
313.396	12.68
313.609	10.33
313.821	9.8
314.034	8.31
314.246	7.42
314.459	8.35
314.671	6.41
314.884	6.72
315.096	6.98
315.309	5.71
315.521	5.94
315.733	5.59
315.946	7.05
316.158	7.27
316.371	8.28
316.583	7.99
316.795	7.86
317.008	10.63
317.22	10.2
317.432	10.1
317.644	9.45
317.857	10.83
318.069	12.55
318.281	11.88
318.494	10.94
318.706	9.81
318.918	10.13
319.13	9.88
319.342	9.17
319.555	7.63
319.767	6.97
319.979	7.68
320.191	7.55
320.403	5.95
320.615	6.09
320.827	6.24
321.039	6.94
321.252	7.6
321.464	8.21
321.676	6.59
321.888	8.39
322.1	8.93
322.312	10.56
322.524	9.43
322.736	10.6
322.948	10.42
323.16	11.38
323.372	10.81
323.584	10.22
323.796	9.48
324.007	10.6
324.219	10.61
324.431	11.13
324.643	10.01
324.855	10.77
325.067	10.43
325.279	10.51
325.491	11.68
325.702	12.35
325.914	12.51
326.126	12.23
326.338	13.17
326.55	14.39
326.761	15.25
326.973	16.49
327.185	17.02
327.396	17.19
327.608	17.34
327.82	16.05
328.032	17.21
328.243	19.24
328.455	20.87
328.666	20.32
328.878	19.99
329.09	19.92
329.301	19.98
329.513	19.75
329.725	19.79
329.936	21.49
330.148	22.05
330.359	20.58
330.571	19.73
330.782	19.82
330.994	20.05
331.205	20.26
331.417	20.72
331.628	21.43
331.84	21.1
332.051	21.19
332.262	20.88
332.474	20.32
332.685	21.41
332.897	21.96
333.108	21.36
333.319	22.33
333.531	22.1
333.742	21.85
333.953	22.5
334.165	22.49
334.376	22.86
334.587	23.39
334.799	25.14
335.01	24.61
335.221	24.42
335.432	25.62
335.644	25.85
335.855	26.06
336.066	26.7
336.277	26.21
336.488	26.58
336.7	26.14
336.911	25.12
337.122	24.72
337.333	25.74
337.544	25.69
337.755	24.39
337.966	23.44
338.177	23.34
338.388	23.01
338.599	22.5
338.811	23.11
339.022	24.5
339.233	24.93
339.444	24.51
339.655	24.54
339.866	24.32
340.076	23.96
340.287	23.65
340.498	23.62
340.709	23.44
340.92	24.31
341.131	24.37
341.342	23.83
341.553	23.96
341.764	23.92
341.975	23.5
342.185	24.42
342.396	25.31
342.607	25.54
342.818	25.64
343.029	25.94
343.239	26.18
343.45	25.84
343.661	25.61
343.872	25.93
344.082	25.86
344.293	26.53
344.504	25.65
344.714	26.16
344.925	26.41
345.136	25.85
345.346	25.59
345.557	25.7
345.768	26.09
345.978	25.34
346.189	25.24
346.399	25.33
346.61	24.03
346.821	23.83
347.031	23.06
347.242	23.21
347.452	23.24
347.663	21.97
347.873	20.89
348.084	20.92
348.294	21.41
348.504	21.17
348.715	20.92
348.925	22.11
349.136	23.08
349.346	22.95
349.557	23.67
349.767	23.89
349.977	25.36
350.188	24.57
350.398	24.31
350.608	24.68
350.819	24.08
351.029	24.75
351.239	24.23
351.449	23.48
351.66	23.56
351.87	23.53
352.08	23.31
352.29	22.94
352.501	23.7
352.711	23.4
352.921	23.78
353.131	24.34
353.341	23.3
353.552	23.34
353.762	23.33
353.972	24.4
354.182	23.13
354.392	22.57
354.602	22.28
354.812	22.52
355.022	22.85
355.232	22.11
355.442	22.52
355.652	23.26
355.862	22.95
356.072	23.22
356.282	22.66
356.492	23.82
356.702	24.52
356.912	24.74
357.122	24.67
357.332	24.08
357.542	24.14
357.752	23.17
357.962	23.09
358.171	23.33
358.381	23.47
358.591	23.22
358.801	22.71
359.011	22.5
359.221	22.16
359.43	22.35
359.64	22.49
359.85	22.59
360.06	22.92
360.269	23.33
360.479	23.53
360.689	23.43
360.899	23.33
361.108	23.36
361.318	23.53
361.528	23.81
361.737	23.92
361.947	24.14
362.156	23.9
362.366	23.54
362.576	22.77
362.785	22.8
362.995	22.85
363.204	22.9
363.414	22.41
363.623	22.3
363.833	22.26
364.042	21.79
364.252	21.7
364.461	21.99
364.671	22.61
364.88	22.9
365.09	22.53
365.299	21.52
365.509	21.39
365.718	21.38
365.927	21.37
366.137	21.24
366.346	21.23
366.555	21.29
366.765	20.52
366.974	20.3
367.183	19.83
367.393	20.4
367.602	20.95
367.811	21.19
368.021	20.7
368.23	20.43
368.439	19.94
368.648	20.08
368.857	19.94
369.067	20.13
369.276	19.85
369.485	19.84
369.694	19.01
369.903	19.09
370.112	18.97
370.321	20.06
370.531	20.08
370.74	19.94
370.949	19.74
371.158	19.78
371.367	19.97
371.576	19.99
371.785	20.24
371.994	20.26
372.203	20.44
372.412	20.28
372.621	19.97
372.83	20.11
373.039	20.11
373.248	19.88
373.457	19.2
373.666	18.7
373.874	17.93
374.083	17.7
374.292	17.14
374.501	16.57
374.71	15.92
374.919	15.5
375.128	15.32
375.336	16.23
375.545	15.97
375.754	16.42
375.963	16.88
376.171	17.51
376.38	17.87
376.589	17.8
376.798	17.82
377.006	18.03
377.215	17.38
377.424	17.45
377.632	16.45
377.841	16.66
378.05	16.12
378.258	15.77
378.467	15.57
378.675	14.87
378.884	14.54
379.093	14.23
379.301	14.06
379.51	14.9
379.718	14.65
379.927	15.39
380.135	15.5
380.344	15.8
380.552	15.23
380.761	15.23
380.969	15.94
381.177	16.91
381.386	16.76
381.594	17.15
381.803	16.91
382.011	16.58
382.219	16.03
382.428	15.79
382.636	15.85
382.845	16.06
383.053	15.85
383.261	15.82
383.469	15.19
383.678	15.46
383.886	15.4
384.094	15.28
384.302	15.07
384.511	15.06
384.719	14.86
384.927	14.51
385.135	14.53
385.343	14.58
385.552	13.59
385.76	13.15
385.968	12.74
386.176	12.01
386.384	11.59
386.592	11.55
386.8	10.87
387.008	10.93
387.216	11.24
387.424	10.95
387.633	11.08
387.841	11.38
388.049	11.86
388.257	12.17
388.465	12.05
388.672	12.2
388.88	12.49
389.088	13.09
389.296	12.86
389.504	12.09
389.712	12.38
389.92	12.04
390.128	12.12
390.336	11.86
390.544	11.38
390.751	11.36
390.959	11.24
391.167	10.84
391.375	10.86
391.583	10.6
391.79	10.74
391.998	10.47
392.206	10.34
392.414	9.82
392.621	9.45
392.829	9.58
393.037	9.77
393.244	9.93
393.452	9.73
393.66	9.56
393.867	9.44
394.075	9.87
394.283	9.74
394.49	9.69
394.698	9.67
394.905	9.97
395.113	9.97
395.32	9.87
395.528	9.2
395.735	9.45
395.943	9.32
396.15	9.4
396.358	8.66
396.565	8.81
396.773	8.82
396.98	8.8
397.188	8.76
397.395	8.62
397.602	8.66
397.81	9.12
398.017	8.64
398.225	8.59
398.432	8.64
398.639	8.97
398.847	8.58
399.054	8.53
399.261	8.84
399.468	8.56
399.676	8.58
399.883	8.44
400.09	8.31
400.297	8.56
400.505	8.36
400.712	8.18
400.919	7.71
401.126	7.67
401.333	7.48
401.54	7.58
401.748	7.56
401.955	7.45
402.162	7.76
402.369	7.64
402.576	7.6
402.783	7.69
402.99	7.91
403.197	8.44
403.404	8.69
403.611	8.9
403.818	8.51
404.025	8.63
404.232	8.55
404.439	8.29
404.646	8.47
404.853	8.46
405.06	8.33
405.267	8.28
405.474	7.95
405.681	8.08
405.887	7.8
406.094	7.61
406.301	7.73
406.508	7.66
406.715	7.58
406.922	7.38
407.128	7.44
407.335	7.62
407.542	7.55
407.749	7.54
407.955	7.33
408.162	7.61
408.369	7.77
408.575	7.34
408.782	7.24
408.989	7.2
409.195	7.5
409.402	7.31
409.609	7.26
409.815	7.26
410.022	7.34
410.228	6.92
410.435	6.83
410.642	7.05
410.848	7.06
411.055	7.22
411.261	7.22
411.468	7.07
411.674	7.05
411.881	6.81
412.087	6.5
412.294	6.49
412.5	7.08
412.706	6.87
412.913	6.42
413.119	6.62
413.326	6.46
413.532	6.71
413.738	6.6
413.945	6.8
414.151	7.1
414.357	7.34
414.564	7.4
414.77	6.98
414.976	7.29
415.182	7.55
415.389	7.4
415.595	7.63
415.801	7.4
416.007	7.46
416.214	7.18
416.42	6.74
416.626	6.62
416.832	6.46
417.038	6.67
417.244	6.4
417.45	6.28
417.657	6.2
417.863	6.02
418.069	6
418.275	5.8
418.481	6.04
418.687	6.05
418.893	6.19
419.099	6.22
419.305	6.08
419.511	6.07
419.717	6.06
419.923	6.17
420.129	6.25
420.335	6.26
420.541	6.54
420.746	6.45
420.952	6.55
421.158	6.45
421.364	6.38
421.57	6.32
421.776	6.37
421.982	6.24
422.187	6.16
422.393	6.12
422.599	6.12
422.805	5.92
423.01	5.99
423.216	5.94
423.422	5.95
423.628	6.01
423.833	5.99
424.039	6.16
424.245	6.24
424.45	6.29
424.656	6.33
424.862	6.32
425.067	6.14
425.273	6.02
425.478	6
425.684	5.95
425.889	5.84
426.095	6.18
426.301	5.86
426.506	5.91
426.712	5.87
426.917	5.92
427.123	5.82
427.328	6.26
427.533	6.14
427.739	6.17
427.944	6.24
428.15	6.23
428.355	5.74
428.561	5.98
428.766	6.04
428.971	5.93
429.177	5.72
429.382	5.73
429.587	5.48
429.793	5.64
429.998	5.72
430.203	5.41
430.408	5.56
430.614	5.5
430.819	5.4
431.024	5.33
431.229	5.49
431.434	5.33
431.64	5.38
431.845	5.31
432.05	5.29
432.255	5.28
432.46	5.46
432.665	5.32
432.87	5.55
433.076	5.51
433.281	5.4
433.486	5.33
433.691	5.37
433.896	5.28
434.101	5.34
434.306	5.25
434.511	5.27
434.716	5.23
434.921	5.38
435.126	5.43
435.331	5.55
435.535	5.62
435.74	5.54
435.945	5.68
436.15	5.77
436.355	5.68
436.56	5.74
436.765	5.73
436.97	5.76
437.174	5.72
437.379	5.66
437.584	5.52
437.789	5.6
437.993	5.61
438.198	5.77
438.403	5.84
438.608	5.82
438.812	5.89
439.017	5.65
439.222	5.75
439.426	5.61
439.631	5.52
439.836	5.55
440.04	5.54
440.245	5.48
440.45	5.28
440.654	5.17
440.859	5.08
441.063	5
441.268	5.07
441.472	5.03
441.677	5.19
441.881	5.2
442.086	5.16
442.29	4.93
442.495	5.11
442.699	5.11
442.904	5.2
443.108	5.33
443.312	5.27
443.517	5.27
443.721	5.25
443.925	5.16
444.13	5.36
444.334	5.44
444.538	5.65
444.743	5.43
444.947	5.56
445.151	5.43
445.356	5.5
445.56	5.59
445.764	5.79
445.968	5.68
446.173	5.67
446.377	5.36
446.581	5.27
446.785	5.19
446.989	5.33
447.193	5.2
447.398	5.36
447.602	5.29
447.806	5.18
448.01	5.03
448.214	5.13
448.418	4.91
448.622	5.03
448.826	4.94
449.03	5.07
449.234	5.1
449.438	5.27
449.642	4.94
449.846	4.89
450.05	4.85
450.254	4.88
450.458	4.7
450.662	4.89
450.866	4.97
451.069	5.05
451.273	4.98
451.477	5
451.681	4.81
451.885	4.98
452.089	4.88
452.292	5.14
452.496	4.98
452.7	5.13
452.904	5.2
453.107	5.02
453.311	5.01
453.515	5.08
453.719	4.78
453.922	4.64
454.126	4.62
454.33	4.73
454.533	4.48
454.737	4.42
454.94	4.33
455.144	4.44
455.348	4.64
455.551	4.57
455.755	4.62
455.958	4.82
456.162	4.99
456.365	5.03
456.569	5.05
456.772	5.21
456.976	5.31
457.179	5.44
457.383	5.26
457.586	5.15
457.79	5.29
457.993	5.29
458.196	5.1
458.4	5.24
458.603	5.17
458.807	5.09
459.01	5.01
459.213	5.07
459.417	5
459.62	5
459.823	5.01
460.026	4.89
460.23	4.83
460.433	4.89
460.636	4.82
460.839	4.84
461.042	4.89
461.246	4.88
461.449	4.83
461.652	4.77
461.855	4.79
462.058	4.79
462.261	5.01
462.464	4.97
462.668	5.01
462.871	5.01
463.074	5.18
463.277	5.31
463.48	5.22
463.683	5.19
463.886	5.25
464.089	5
464.292	5.14
464.495	5.02
464.698	5.13
464.901	5.27
465.104	5.1
465.306	4.89
465.509	4.76
465.712	4.77
465.915	4.85
466.118	4.64
466.321	4.78
466.524	4.72
466.726	4.77
466.929	4.54
467.132	4.29
467.335	4.35
467.538	4.45
467.74	4.36
467.943	4.48
468.146	4.63
468.348	4.83
468.551	4.98
468.754	5.12
468.956	5.05
469.159	5.07
469.362	5.37
469.564	5.34
469.767	5.26
469.969	5.45
470.172	5.53
470.375	5.25
470.577	5.21
470.78	5.08
470.982	5.01
471.185	5.14
471.387	5.24
471.59	4.88
471.792	4.91
471.995	4.92
472.197	4.75
472.399	4.5
472.602	4.68
472.804	4.66
473.007	4.52
473.209	4.54
473.411	4.35
473.614	4.3
473.816	4.52
474.018	4.47
474.22	4.43
474.423	4.58
474.625	4.88
474.827	4.84
475.03	4.91
475.232	5.09
475.434	5.21
475.636	5.19
475.838	5.24
476.04	5.26
476.243	5.21
476.445	5.25
476.647	5.08
476.849	4.92
477.051	4.96
477.253	4.86
477.455	4.72
477.657	4.5
477.859	4.54
478.061	4.52
478.263	4.48
478.465	4.54
478.667	4.62
478.869	4.7
479.071	4.62
479.273	4.56
479.475	4.68
479.677	4.77
479.879	4.83
480.081	4.76
480.283	4.71
480.485	4.72
480.686	4.86
480.888	4.81
481.09	4.81
481.292	4.91
481.494	4.94
481.695	4.96
481.897	5.02
482.099	5
482.301	5.05
482.502	5.13
482.704	5.14
482.906	5.17
483.107	5.15
483.309	5.15
483.511	5.16
483.712	5.15
483.914	5.14
484.115	5.12
484.317	5.16
484.519	5.16
484.72	5.09
484.922	5.04
485.123	5.01
485.325	5.01
485.526	5.04
485.728	5.03
485.929	5.04
486.131	4.98
486.332	4.96
486.534	4.94
486.735	4.96
486.936	5.08
487.138	5.15
487.339	5.09
487.541	5.15
487.742	5.15
487.943	5.15
488.144	5.17
488.346	5.19
488.547	5.21
488.748	5.16
488.95	5.15
489.151	5.04
489.352	4.97
489.553	4.98
489.755	4.91
489.956	4.88
490.157	4.9
490.358	4.88
490.559	4.97
490.76	4.93
490.961	4.99
491.163	5.1
491.364	5.17
491.565	5.21
491.766	5.23
491.967	5.23
492.168	5.31
492.369	5.28
492.57	5.27
492.771	5.23
492.972	5.29
493.173	5.28
493.374	5.21
493.575	5.19
493.776	5.26
493.976	5.31
494.177	5.29
494.378	5.24
494.579	5.28
494.78	5.37
494.981	5.38
495.182	5.45
495.382	5.44
495.583	5.35
495.784	5.48
495.985	5.47
496.185	5.38
496.386	5.49
496.587	5.47
496.788	5.59
496.988	5.51
497.189	5.61
497.39	5.59
497.59	5.6
497.791	5.66
497.992	5.67
498.192	5.63
498.393	5.63
498.593	5.57
498.794	5.52
498.994	5.38
499.195	5.44
499.395	5.4
499.596	5.39
499.796	5.4
499.997	5.65
500.197	5.63
500.398	5.67
500.598	5.77
500.799	5.94
500.999	5.97
501.199	5.91
501.4	6.02
501.6	6.11
501.801	6.27
502.001	6.4
502.201	6.32
502.402	6.38
502.602	6.4
502.802	6.41
503.002	6.45
503.203	6.4
503.403	6.48
503.603	6.37
503.803	6.44
504.003	6.28
504.204	6.18
504.404	6.25
504.604	6.25
504.804	6.26
505.004	6.3
505.204	6.37
505.404	6.56
505.604	6.66
505.804	6.77
506.005	6.66
506.205	6.87
506.405	6.96
506.605	6.89
506.805	6.82
507.005	6.85
507.204	7.06
507.404	7.02
507.604	7.01
507.804	7
508.004	7.04
508.204	7.15
508.404	7.16
508.604	7.37
508.804	7.47
509.003	7.75
509.203	7.89
509.403	7.94
509.603	7.95
509.803	8.09
510.002	8.23
510.202	8.35
510.402	8.4
510.602	8.33
510.801	8.3
511.001	8.29
511.201	8.25
511.4	8.23
511.6	8.27
511.8	8.54
511.999	8.51
512.199	8.56
512.398	8.55
512.598	8.59
512.797	8.78
512.997	8.85
513.197	9.06
513.396	9.18
513.596	9.37
513.795	9.57
513.994	9.36
514.194	9.51
514.393	9.67
514.593	9.78
514.792	9.99
514.992	10.1
515.191	10.08
515.39	10.33
515.59	10.58
515.789	10.63
515.988	10.57
516.188	10.95
516.387	11.22
516.586	11.28
516.786	11.39
516.985	11.49
517.184	11.89
517.383	12.06
517.582	11.95
517.782	11.95
517.981	12.11
518.18	12.23
518.379	12.25
518.578	12.19
518.777	12.3
518.976	12.44
519.176	12.54
519.375	12.42
519.574	12.57
519.773	12.72
519.972	12.85
520.171	12.92
520.37	12.99
520.569	13.05
520.768	13.22
520.967	13.38
521.166	13.5
521.365	13.59
521.564	13.63
521.762	13.75
521.961	13.61
522.16	13.79
522.359	13.95
522.558	14.07
522.757	14.25
522.956	14.43
523.154	14.54
523.353	14.76
523.552	15
523.751	15.32
523.949	15.42
524.148	15.78
524.347	15.74
524.546	15.94
524.744	16.09
524.943	16.14
525.142	16.09
525.34	16.23
525.539	16.14
525.737	16.22
525.936	16.24
526.135	16.48
526.333	16.56
526.532	16.79
526.73	16.89
526.929	17.05
527.127	17.28
527.326	17.47
527.524	17.53
527.723	17.81
527.921	17.86
528.12	18
528.318	17.99
528.516	18.05
528.715	18.15
528.913	18.22
529.112	18.27
529.31	18.33
529.508	18.4
529.707	18.51
529.905	18.5
530.103	18.59
530.301	18.64
530.5	18.75
530.698	18.79
530.896	18.81
531.094	18.83
531.293	18.83
531.491	18.85
531.689	19.03
531.887	19
532.085	19.17
532.283	19.24
532.481	19.39
532.68	19.5
532.878	19.76
533.076	19.86
533.274	19.98
533.472	20.13
533.67	20.24
533.868	20.21
534.066	20.34
534.264	20.4
534.462	20.54
534.66	20.57
534.858	20.66
535.056	20.61
535.253	20.66
535.451	20.8
535.649	21
535.847	21.02
536.045	21.18
536.243	21.27
536.441	21.39
536.638	21.39
536.836	21.46
537.034	21.54
537.232	21.68
537.43	21.74
537.627	21.79
537.825	21.75
538.023	21.83
538.22	21.73
538.418	21.86
538.616	21.88
538.813	22.03
539.011	22.06
539.209	22.08
539.406	22.26
539.604	22.46
539.801	22.53
539.999	22.68
540.196	22.74
540.394	23.01
540.591	23.1
540.789	23.19
540.986	23.22
541.184	23.33
541.381	23.39
541.579	23.36
541.776	23.38
541.974	23.46
542.171	23.48
542.368	23.62
542.566	23.61
542.763	23.71
542.96	23.73
543.158	23.85
543.355	23.94
543.552	24.07
543.75	24.15
543.947	24.18
544.144	24.2
544.341	24.3
544.539	24.38
544.736	24.47
544.933	24.43
545.13	24.49
545.327	24.49
545.524	24.59
545.722	24.59
545.919	24.75
546.116	24.78
546.313	24.86
546.51	24.71
546.707	24.66
546.904	24.71
547.101	24.87
547.298	24.97
547.495	24.96
547.692	24.94
547.889	25.12
548.086	25.2
548.283	25.27
548.48	25.25
548.677	25.45
548.874	25.58
549.07	25.68
549.267	25.73
549.464	25.81
549.661	25.99
549.858	26.04
550.055	26.07
550.251	26.03
550.448	26.15
550.645	26.37
550.842	26.46
551.038	26.45
551.235	26.57
551.432	26.49
551.628	26.55
551.825	26.55
552.022	26.58
552.218	26.46
552.415	26.54
552.612	26.5
552.808	26.42
553.005	26.48
553.201	26.43
553.398	26.41
553.594	26.42
553.791	26.4
553.987	26.3
554.184	26.34
554.38	26.47
554.577	26.46
554.773	26.75
554.97	26.82
555.166	26.84
555.362	27.06
555.559	27.15
555.755	27.34
555.952	27.54
556.148	27.74
556.344	27.77
556.541	27.73
556.737	27.72
556.933	27.48
557.129	27.46
557.326	27.6
557.522	27.79
557.718	28.02
557.914	28.14
558.11	28.19
558.307	28.25
558.503	28.31
558.699	28.54
558.895	28.65
559.091	28.74
559.287	29.02
559.483	28.99
559.679	28.83
559.876	28.7
560.072	28.59
560.268	28.38
560.464	28.65
560.66	28.75
560.856	28.77
561.052	28.89
561.247	29.15
561.443	29.09
561.639	29.19
561.835	29.21
562.031	29.25
562.227	29.29
562.423	29.53
562.619	29.52
562.815	29.63
563.01	29.42
563.206	29.4
563.402	29.37
563.598	29.26
563.793	29.25
563.989	29.37
564.185	29.41
564.381	29.36
564.576	29.29
564.772	29.22
564.968	29.19
565.163	29.4
565.359	29.43
565.555	29.28
565.75	29.53
565.946	29.81
566.141	29.72
566.337	29.64
566.532	29.77
566.728	29.99
566.923	30
567.119	29.98
567.314	29.97
567.51	30.05
567.705	29.89
567.901	29.7
568.096	29.43
568.292	29.61
568.487	29.83
568.682	29.76
568.878	29.79
569.073	29.94
569.268	29.94
569.464	29.96
569.659	29.89
569.854	30.23
570.05	30.45
570.245	30.63
570.44	30.52
570.635	30.45
570.831	30.48
571.026	30.16
571.221	30.03
571.416	30.01
571.611	30.05
571.806	30.1
572.002	30.08
572.197	30.22
572.392	30.08
572.587	30.03
572.782	29.97
572.977	30.11
573.172	30.26
573.367	30.17
573.562	30.22
573.757	30.37
573.952	30.33
574.147	30.21
574.342	30.09
574.537	30.18
574.732	30.48
574.927	30.58
575.121	30.49
575.316	30.37
575.511	30.62
575.706	30.77
575.901	30.61
576.096	30.76
576.29	30.91
576.485	31
576.68	30.98
576.875	31.05
577.069	30.95
577.264	31.07
577.459	31.32
577.654	31.37
577.848	31.24
578.043	31.55
578.238	31.52
578.432	31.59
578.627	31.74
578.821	31.86
579.016	31.56
579.21	31.88
579.405	31.93
579.6	31.69
579.794	31.45
579.989	31.59
580.183	31.08
580.378	30.95
580.572	30.8
580.766	30.61
580.961	30.61
581.155	30.56
581.35	30.39
581.544	30.36
581.738	30.38
581.933	30.72
582.127	30.73
582.321	31.12
582.516	31.15
582.71	31.53
582.904	31.47
583.099	31.64
583.293	32
583.487	32.03
583.681	31.92
583.875	31.95
584.07	31.75
584.264	31.89
584.458	31.8
584.652	31.95
584.846	31.76
585.04	31.81
585.234	31.47
585.428	31.33
585.623	31.76
585.817	31.87
586.011	32.01
586.205	32.11
586.399	32.16
586.593	32.08
586.787	31.99
586.981	32.09
587.174	32.09
587.368	32.36
587.562	32.23
587.756	32.08
587.95	32.16
588.144	32.35
588.338	32.39
588.532	31.99
588.725	32.16
588.919	32.46
589.113	32.54
589.307	32.78
589.501	32.8
589.694	32.93
589.888	32.72
590.082	32.64
590.275	32.43
590.469	32.28
590.663	32.46
590.856	32.34
591.05	32.16
591.244	32.1
591.437	31.93
591.631	31.93
591.824	32
592.018	32
592.212	31.9
592.405	32.16
592.599	31.97
592.792	32.05
592.986	32.18
593.179	32.3
593.372	32.36
593.566	32.56
593.759	32.37
593.953	32.62
594.146	32.54
594.339	32.72
594.533	32.89
594.726	33.11
594.92	33.26
595.113	33.31
595.306	33.17
595.499	33
595.693	33.03
595.886	33.18
596.079	32.82
596.272	32.98
596.466	32.95
596.659	32.7
596.852	32.7
597.045	32.72
597.238	32.84
597.431	32.92
597.624	33.01
597.818	32.98
598.011	32.85
598.204	32.98
598.397	33.1
598.59	33.06
598.783	33.34
598.976	33.49
599.169	33.45
599.362	33.08
599.555	33.02
599.748	33.12
599.941	33.08
600.134	33.38
600.326	33.2
600.519	32.8
600.712	32.91
600.905	32.67
601.098	32.45
601.291	32.41
601.483	32.48
601.676	32.6
601.869	32.43
602.062	32.36
602.255	32.27
602.447	32.51
602.64	32.73
602.833	32.71
603.025	32.67
603.218	32.64
603.411	32.76
603.603	33.09
603.796	33.11
603.989	33.11
604.181	33.13
604.374	33.18
604.566	33.26
604.759	33.17
604.951	33.35
605.144	33.4
605.336	33.65
605.529	33.72
605.721	33.54
605.914	33.6
606.106	33.75
606.299	33.71
606.491	33.82
606.683	33.73
606.876	33.99
607.068	33.87
607.26	33.83
607.453	33.74
607.645	33.33
607.837	33.32
608.03	33.37
608.222	33.36
608.414	33.74
608.606	33.67
608.799	33.58
608.991	33.55
609.183	33.5
609.375	33.64
609.567	33.79
609.759	33.93
609.952	34.17
610.144	34.12
610.336	34.07
610.528	33.71
610.72	33.71
610.912	33.9
611.104	33.84
611.296	33.95
611.488	33.91
611.68	33.58
611.872	33.48
612.064	33.28
612.256	32.99
612.448	32.87
612.64	32.89
612.832	32.68
613.023	32.51
613.215	32.32
613.407	32.42
613.599	32.43
613.791	32.64
613.983	32.69
614.174	32.73
614.366	32.87
614.558	33.05
614.75	33.2
614.941	33.32
615.133	33.37
615.325	33.25
615.516	33.23
615.708	33.36
615.9	33.25
616.091	33.54
616.283	33.23
616.475	33.43
616.666	33.56
616.858	33.42
617.049	33.4
617.241	33.38
617.432	33.61
617.624	33.3
617.815	33.08
618.007	32.99
618.198	33.15
618.39	33.33
618.581	33.17
618.773	33
618.964	33.15
619.155	33.59
619.347	33.62
619.538	33.64
619.729	33.92
619.921	34.13
620.112	34.12
620.303	33.58
620.494	33.73
620.686	33.95
620.877	34.15
621.068	34.2
621.259	33.79
621.451	33.67
621.642	33.83
621.833	33.7
622.024	33.65
622.215	33.9
622.406	34.17
622.597	34.05
622.788	33.97
622.98	33.75
623.171	33.95
623.362	34.06
623.553	34.12
623.744	34.06
623.935	33.99
624.126	34.1
624.317	33.91
624.508	34.19
624.698	34.25
624.889	34.12
625.08	33.97
625.271	33.85
625.462	33.58
625.653	33.69
625.844	33.67
626.034	33.93
626.225	33.63
626.416	33.54
626.607	33.27
626.798	33.28
626.988	33.44
627.179	33.69
627.37	33.84
627.56	34.14
627.751	34.27
627.942	34.34
628.132	34.35
628.323	34.65
628.514	34.83
628.704	35.08
628.895	34.88
629.085	34.74
629.276	34.7
629.466	34.56
629.657	34.28
629.847	34.11
630.038	34.01
630.228	34.08
630.419	33.94
630.609	34.03
630.8	33.79
630.99	34.09
631.181	34.32
631.371	34.41
631.561	34.64
631.752	34.85
631.942	34.95
632.132	34.92
632.323	34.49
632.513	34.67
632.703	34.76
632.893	34.75
633.084	34.73
633.274	34.47
633.464	34.38
633.654	34.15
633.844	34.01
634.034	34.02
634.225	34.05
634.415	34.33
634.605	34.21
634.795	34.17
634.985	34.31
635.175	34.48
635.365	34.73
635.555	34.94
635.745	34.6
635.935	34.67
636.125	34.69
636.315	34.75
636.505	34.55
636.695	34.69
636.885	34.72
637.075	34.55
637.265	34.55
637.455	34.48
637.644	34.62
637.834	34.56
638.024	34.34
638.214	34.52
638.404	34.26
638.593	34.22
638.783	34.1
638.973	34.61
639.163	34.66
639.352	34.43
639.542	34.57
639.732	34.09
639.921	34.24
640.111	34.41
640.301	34.04
640.49	34.25
640.68	34.62
640.87	34.5
641.059	33.72
641.249	34.04
641.438	34.26
641.628	34.27
641.817	34.21
642.007	34.51
642.196	34.8
642.386	35.01
642.575	34.82
642.764	34.78
642.954	35.11
643.143	35.36
643.333	35.29
643.522	34.63
643.711	34.69
643.901	35.03
644.09	34.78
644.279	34.93
644.469	34.9
644.658	34.95
644.847	34.96
645.036	34.44
645.226	34.68
645.415	34.46
645.604	34.86
645.793	34.53
645.982	34.25
646.171	34.58
646.361	34.29
646.55	33.95
646.739	34.29
646.928	34.14
647.117	34.24
647.306	34.35
647.495	34.46
647.684	34.6
647.873	34.94
648.062	34.82
648.251	34.7
648.44	34.54
648.629	34.98
648.818	34.73
649.007	34.83
649.196	34.95
649.384	34.58
649.573	34.57
649.762	34.64
649.951	34.5
650.14	34.47
650.328	34.35
650.517	34.35
650.706	33.99
650.895	34
651.083	33.89
651.272	33.94
651.461	34.03
651.65	34.08
651.838	34.03
652.027	33.79
652.216	33.97
652.404	34.46
652.593	34.71
652.781	34.68
652.97	34.82
653.158	34.9
653.347	35.13
653.535	34.89
653.724	34.72
653.912	34.87
654.101	35.1
654.289	34.84
654.478	34.78
654.666	34.86
654.855	35.45
655.043	35.29
655.231	34.87
655.42	34.32
655.608	34.25
655.796	34.39
655.985	34.24
656.173	33.89
656.361	34.36
656.55	33.85
656.738	33.89
656.926	33.67
657.114	33.47
657.302	33.3
657.491	33.54
657.679	33.34
657.867	33.74
658.055	34.03
658.243	34.07
658.431	33.92
658.619	34.22
658.807	34.17
658.996	34.13
659.184	34.35
659.372	34.67
659.56	34.63
659.748	35.01
659.936	34.82
660.124	34.74
660.311	34.91
660.499	35.35
660.687	35.1
660.875	35.19
661.063	35.21
661.251	35.09
661.439	35.08
661.627	35.44
661.814	35.42
662.002	35.54
662.19	35.45
662.378	35.68
662.565	35.22
662.753	35.42
662.941	35.44
663.129	35.34
663.316	35.81
663.504	36.11
663.692	35.5
663.879	35.38
664.067	34.94
664.254	34.52
664.442	34.52
664.63	34.56
664.817	33.94
665.005	33.76
665.192	33.74
665.38	33.37
665.567	33.2
665.755	33.67
665.942	33.89
666.13	34.1
666.317	34.45
666.504	34.09
666.692	33.97
666.879	34.82
667.067	34.57
667.254	33.98
667.441	34.07
667.629	34.19
667.816	34.38
668.003	34.18
668.19	34.34
668.378	34.44
668.565	34.71
668.752	34.89
668.939	34.66
669.127	34.93
669.314	35.3
669.501	35.39
669.688	35.82
669.875	35.54
670.062	35.67
670.249	35.65
670.436	35.34
670.623	35.6
670.81	35.65
670.997	35.79
671.184	35.63
671.371	36.13
671.558	36.37
671.745	35.88
671.932	35.64
672.119	35.08
672.306	34.71
672.493	35.09
672.68	34.75
672.867	34.77
673.054	34.41
673.24	34.46
673.427	34.42
673.614	34.56
673.801	34.61
673.988	34.78
674.174	35.11
674.361	35.32
674.548	35.25
674.734	35.58
674.921	35.66
675.108	36.26
675.294	36.1
675.481	35.72
675.668	35.03
675.854	35.19
676.041	34.71
676.227	34.6
676.414	34.41
676.601	34.14
676.787	33.97
676.974	33.67
677.16	33.49
677.347	34.06
677.533	34.39
677.719	34.95
677.906	34.85
678.092	35.42
678.279	36.19
678.465	36.17
678.651	36.18
678.838	35.99
679.024	36.24
679.21	36.01
679.397	36.05
679.583	35.59
679.769	35.3
679.955	35.34
680.142	35.29
680.328	34.99
680.514	35.03
680.7	35.11
680.886	35.17
681.073	35
681.259	34.51
681.445	33.84
681.631	34.24
681.817	34.2
682.003	33.75
682.189	33.91
682.375	33.66
682.561	33.58
682.747	33.63
682.933	33.25
683.119	33.78
683.305	34.21
683.491	34.92
683.677	35.05
683.863	35.77
684.049	35.95
684.235	35.61
684.42	36.12
684.606	36.61
684.792	36.42
684.978	36.79
685.164	36.64
685.349	36.59
685.535	36.09
685.721	36.25
685.907	35.27
686.092	36.01
686.278	36.11
686.464	35.78
686.649	35.2
686.835	35.72
687.021	35.65
687.206	35.65
687.392	36.09
687.577	36.39
687.763	36.09
687.948	36.26
688.134	35.6
688.319	35.75
688.505	35.24
688.69	35.4
688.876	34.68
689.061	35.23
689.247	34.65
689.432	34.45
689.618	34.29
689.803	34.47
689.988	34.87
690.174	35.18
690.359	34.96
690.544	35.05
690.73	34.92
690.915	35.28
691.1	34.64
691.285	34.78
691.471	34.81
691.656	35.23
691.841	35.38
692.026	34.94
692.211	34.67
692.396	34.47
692.582	34.87
692.767	35.16
692.952	34.85
693.137	35.04
693.322	35.16
693.507	34.84
693.692	34.54
693.877	34.06
694.062	34.08
694.247	34.3
694.432	35.26
694.617	35.27
694.802	35.2
694.987	35.49
695.172	35.4
695.357	35.77
695.541	36.55
695.726	36.13
695.911	35.98
696.096	36.03
696.281	36.12
696.466	36.09
696.65	36.45
696.835	36.75
697.02	36.69
697.204	36.46
697.389	35.86
697.574	35.32
697.759	35.71
697.943	35.81
698.128	36.03
698.312	35.82
698.497	35.59
698.682	35.14
698.866	34.81
699.051	34.91
699.235	34.79
699.42	34.96
699.604	34.96
699.789	34.63
699.973	34.65
700.158	34.91
700.342	35.2
700.527	34.89
700.711	34.9
700.895	34.76
701.08	34.43
701.264	34.58
701.448	34.79
701.633	35.03
701.817	35.08
702.001	34.81
702.186	34.43
702.37	34.27
702.554	34.51
702.738	35.28
702.923	35.94
703.107	36.31
703.291	36.33
703.475	35.63
703.659	35.19
703.843	35.69
704.027	36.53
704.212	36.07
704.396	35.77
704.58	35.49
704.764	35.2
704.948	34.65
705.132	34.41
705.316	34.68
705.5	35.28
705.684	36.13
705.868	36.81
706.052	36.4
706.235	36.43
706.419	36.45
706.603	36.53
706.787	35.53
706.971	36.18
707.155	36.92
707.339	37.23
707.522	37.49
707.706	36.24
707.89	35.14
708.074	34.59
708.257	35.62
708.441	35.19
708.625	35.05
708.808	36.48
708.992	36.53
709.176	35.8
709.359	35.55
709.543	34.6
709.727	35.57
709.91	36.02
710.094	36.26
710.277	36.19
710.461	36.67
710.644	36.31
710.828	35.94
711.011	34.89
711.195	34.94
711.378	35.13
711.562	35.65
711.745	35.34
711.928	35.59
712.112	36.3
712.295	35.56
712.478	35.91
712.662	36.24
712.845	35.57
713.028	35.63
713.212	35.57
713.395	35.3
713.578	35.11
713.761	34.6
713.945	34.25
714.128	33.39
714.311	33.46
714.494	33.27
714.677	33.28
714.86	33.95
715.043	34.48
715.227	34.26
715.41	34.42
715.593	34.39
715.776	34.72
715.959	34.87
716.142	35.3
716.325	34.9
716.508	34.85
716.691	35.05
716.874	34.82
717.057	34.8
717.239	35.58
717.422	35.94
717.605	36.21
717.788	35.91
717.971	35.31
718.154	34.71
718.337	35.1
718.519	34.82
718.702	34.77
718.885	35.23
719.068	34.87
719.25	34
719.433	32.78
719.616	32.35
719.798	33.15
719.981	33.02
720.164	32.64
720.346	32.52
720.529	32.41
720.712	32.22
720.894	31.22
721.077	31.39
721.259	31.86
721.442	31.68
721.624	32.43
721.807	32.22
721.989	32.83
722.172	33.46
722.354	32.98
722.537	33.02
722.719	33.51
722.901	33.67
723.084	34.48
723.266	34.69
723.448	34.29
723.631	34.18
723.813	34.7
723.995	33.64
724.178	34.12
724.36	35.05
724.542	35.16
724.724	34.4
724.907	34.59
725.089	33.06
725.271	32.15
725.453	33.99
725.635	32.62
725.817	31.77
725.999	31.9
726.181	33.16
726.364	33.27
726.546	33.79
726.728	33.89
726.91	33.9
727.092	34.58
727.274	35.59
727.456	34.85
727.638	35.48
727.819	35.97
728.001	37.47
728.183	36.71
728.365	36.62
728.547	36.13
728.729	36.07
728.911	34.93
729.093	35.54
729.274	35.47
729.456	35.48
729.638	35.83
729.82	35.14
730.001	33.61
730.183	33.16
730.365	32.59
730.546	32.62
730.728	32.8
730.91	34.24
731.091	32.94
731.273	32.67
731.455	32.41
731.636	32.23
731.818	33.06
731.999	34.26
732.181	34.06
732.362	34.03
732.544	32.9
732.725	33.02
732.907	33.62
733.088	34.72
733.27	34.73
733.451	35.15
733.633	35.62
733.814	34.35
733.995	33.56
734.177	32.52
734.358	33.66
734.539	35.08
734.721	34.03
734.902	33.03
735.083	32.87
735.264	32.71
735.446	32.58
735.627	32.27
735.808	33.37
735.989	32.28
736.17	33.69
736.351	32.6
736.533	33.12
736.714	34.48
736.895	33.81
737.076	33.83
737.257	34.26
737.438	34.07
737.619	32.97
737.8	33.48
737.981	34.46
738.162	34.98
738.343	34.71
738.524	34.19
738.705	33.53
738.886	32.94
739.067	33.05
739.247	32.74
739.428	32.53
739.609	33.71
739.79	33.25
739.971	33.96
740.151	33.09
740.332	33.75
740.513	34
740.694	34.3
740.874	35.47
741.055	33.51
741.236	33.4
741.417	33.58
741.597	32.85
741.778	32.08
741.958	31.24
742.139	31.36
742.32	30.69
742.5	30.05
742.681	30.24
742.861	29.43
743.042	30.68
743.222	29.71
743.403	28.88
743.583	29.41
743.764	30.21
743.944	30.02
744.124	30.24
744.305	30.33
744.485	30.15
744.666	29.11
744.846	29.22
745.026	29.71
745.207	31.68
745.387	32.99
745.567	33.02
745.747	33.09
745.928	33.59
746.108	33.83
746.288	34.75
746.468	34.99
746.648	35.83
746.829	37.17
747.009	37.81
747.189	35.62
747.369	34.6
747.549	34.06
747.729	32.89
747.909	32.18
748.089	31.68
748.269	30.2
748.449	30.84
748.629	31.58
748.809	31.42
748.989	32.31
749.169	32.92
749.349	33.47
749.529	34.16
749.709	34.63
749.889	36.47
750.068	35.67
750.248	36.4
750.428	35.22
750.608	34.71
750.788	34.89
750.967	33.73
751.147	33.79
751.327	35.1
751.507	35.65
751.686	36.55
751.866	35.54
752.046	35.72
752.225	35.98
752.405	36.22
752.585	37.3
752.764	36.69
752.944	36.49
753.123	38.79
753.303	37.03
753.482	36.2
753.662	35.5
753.841	35.61
754.021	36.23
754.2	35.03
754.38	35.71
754.559	33.98
754.739	34.33
754.918	34.4
755.097	32.37
755.277	32.32
755.456	31.53
755.635	30.63
755.815	29.98
755.994	30.18
756.173	31.4
756.352	31.06
756.532	31.77
756.711	31.15
756.89	30.28
757.069	30.91
757.248	31.59
757.427	32.1
757.607	32.27
757.786	32.97
757.965	34.38
758.144	34
758.323	33.15
758.502	34.51
758.681	34.31
758.86	36.19
759.039	36.11
759.218	35.65
759.397	36.87
759.576	37.07
759.755	36.64
759.934	35.55
760.113	35.38
760.291	36.11
760.47	34.73
760.649	35.44
760.828	35.04
761.007	34.33
761.186	36.32
761.364	34.92
761.543	36.05
761.722	36.64
761.901	36.15
762.079	37.15
762.258	36.76
762.437	37.35
762.615	37.14
762.794	37.04
762.972	37.02
763.151	35.73
763.33	36.4
763.508	36.12
763.687	36
763.865	35.51
764.044	35.02
764.222	34.24
764.401	33.76
764.579	34.72
764.758	34.18
764.936	34.39
765.114	34.86
765.293	34.22
765.471	34.77
765.65	34.65
765.828	35.4
766.006	35.68
766.184	36.61
766.363	36.6
766.541	36.11
766.719	36.39
766.898	36.65
767.076	35.61
767.254	36.79
767.432	35.9
767.61	35.28
767.788	34.51
767.967	33.51
768.145	33.51
768.323	34.02
768.501	34.48
768.679	33.76
768.857	32.66
769.035	33.12
769.213	32.39
769.391	32.42
769.569	32.63
769.747	31.8
769.925	32.12
770.103	32.28
770.281	30.72
770.459	29.07
770.636	30.52
770.814	31.93
770.992	33.16
771.17	33.24
771.348	32.4
771.525	32.89
771.703	33.07
771.881	33.7
772.059	33.57
772.236	33.76
772.414	32.78
772.592	32.74
772.769	31.31
772.947	31.29
773.125	31.16
773.302	31.78
773.48	30.77
773.657	33.19
773.835	34.21
774.013	32.6
774.19	32.39
774.368	32.82
774.545	30.9
774.723	29.23
774.9	26.13
775.077	26.03
775.255	26.32
775.432	26.44
775.61	26.97
775.787	24.01
775.964	25.94
776.142	25.18
776.319	26.59
776.496	27.18
776.674	31.07
776.851	33.95
777.028	33.09
777.205	32.23
777.382	32.77
777.56	31.25
777.737	31.07
777.914	31.04
778.091	32.27
778.268	30.12
778.445	29.47
778.622	27.36
778.8	28.9
778.977	28.89
779.154	24.5
779.331	23.49
779.508	22.5
779.685	22.84
779.862	22.98
780.038	24.99
780.215	25.49
780.392	25.28
780.569	22.95
780.746	21
780.923	22.25
781.1	27.05
781.277	28.29
781.453	29.95
781.63	31.71
781.807	31.46
781.984	30.34
782.16	31.31
782.337	32.61
782.514	32.09
782.691	31
782.867	28.1
783.044	27.22
783.221	26.94
783.397	23.93
783.574	21.9
783.75	23.47
783.927	23.76
784.103	25.51
784.28	27.9
784.456	32.89
784.633	32.31
784.809	34.66
784.986	36.73
785.162	34.32
785.339	37.87
785.515	37.38
785.692	36.56
785.868	34.5
786.044	32.24
786.221	28.88
786.397	27.21
786.573	30.21
786.749	30.6
786.926	29.25
787.102	29.81
787.278	28.1
787.454	28.72
787.631	27.38
787.807	27.77
787.983	25.89
788.159	25.91
788.335	23.26
788.511	23.51
788.687	23.12
788.863	24.36
789.039	28.57
789.216	28.26
789.392	28.27
789.568	27.81
789.744	28.17
789.919	30.42
790.095	30.89
790.271	33.85
790.447	32.38
790.623	34.51
790.799	35.17
790.975	30.1
791.151	31.23
791.327	34.49
791.502	34.35
791.678	33.17
791.854	31.66
792.03	32.03
792.205	34.79
792.381	34.81
792.557	33.43
792.733	33.54
792.908	35.49
793.084	35.21
793.259	31.47
793.435	32.86
793.611	36.92
793.786	36.97
793.962	36.03
794.137	34.11
794.313	35.04
794.488	35.35
794.664	33.65
794.839	33.78
795.015	33.96
795.19	33.87
795.366	31.73
795.541	29.03
795.716	29.67
795.892	28.71
796.067	28.52
796.242	30.12
796.418	28.12
796.593	28.28
796.768	29.5
796.944	26.29
797.119	25.84
797.294	27.53
797.469	29.16
797.644	28.42
797.82	28.33
797.995	26.87
798.17	25.16
798.345	25.15
798.52	24.98
798.695	22.98
798.87	25.02
799.045	27.95
799.22	28.33
799.395	28.92
799.57	31.82
799.745	32.02
799.92	31.05
800.095	30.84
800.27	30.14
800.445	28.04
800.62	27.35
800.795	28.49
800.97	26.8
801.145	25.86
801.319	25.01
801.494	23.12
801.669	23.6
801.844	25.02
802.018	24.83
802.193	27.52
802.368	29.03
802.543	29.44
802.717	30.68
802.892	32.11
803.067	31.78
803.241	31.58
803.416	34.62
803.59	34.37
803.765	33.8
803.94	31.5
804.114	28.18
804.289	27.52
804.463	25.62
804.638	23.54
804.812	21.64
804.986	23.8
805.161	25.35
805.335	22.61
805.51	22.19
805.684	24.19
805.858	27.08
806.033	30.85
806.207	29.07
806.381	32.75
806.556	34.89
806.73	36.55
806.904	35.49
807.078	32.11
807.253	29.58
807.427	30.21
807.601	29.02
807.775	30.87
807.949	28.69
808.123	31.61
808.298	32.38
808.472	30.48
808.646	27.76
808.82	29.19
808.994	29.16
809.168	30.14
809.342	31.04
809.516	33.51
809.69	30.48
809.864	31.39
810.038	33.89
810.212	30.99
810.385	31.02
810.559	32.93
810.733	28.29
810.907	26.72
811.081	30.9
811.255	29.74
811.428	24.37
811.602	23.04
811.776	23.33
811.95	22.57
812.123	25.36
812.297	26.08
812.471	28.13
812.644	32.95
812.818	35.46
812.992	30.41
813.165	31.03
813.339	33.32
813.512	34.21
813.686	35.22
813.86	33.15
814.033	26.91
814.207	27.3
814.38	23.8
814.554	22.93
814.727	21.92
814.9	22.76
815.074	25.8
815.247	26.4
815.421	29.95
815.594	24.68
815.767	25.39
815.941	26.11
816.114	26.38
816.287	27.01
816.46	21.88
816.634	18.02
816.807	16.17
816.98	13.81
817.153	13.37
817.327	10.75
817.5	12.25
817.673	10.08
817.846	11.14
818.019	10.63
818.192	7.95
818.365	12.53
818.538	19.4
818.711	21.52
818.884	20.94
819.057	16
819.23	11.3
819.403	14.23
819.576	13.94
819.749	16.33
819.922	17.74
820.095	19.29
820.268	21.35
820.441	19.83
820.614	24.03
820.786	25.89
820.959	30.94
821.132	31.46
821.305	32.46
821.477	33.76
821.65	34.05
821.823	32.72
821.996	33.27
822.168	32.98
822.341	33.25
822.514	32.89
822.686	32.92
822.859	32.84
823.031	33.4
823.204	32.99
823.376	33.32
823.549	33.62
823.722	34.06
823.894	33.97
824.067	34.09
824.239	33.85
824.411	34.32
824.584	34.53
824.756	34.36
824.929	34.28
825.101	34.42
825.273	33.45
825.446	32.9
825.618	32.67
825.79	32.86
825.963	31.97
826.135	32.2
826.307	30.82
826.479	30.6
826.652	30.08
826.824	29.95
826.996	29.83
827.168	30.3
827.34	30.32
827.512	31.15
827.684	30.7
827.856	31.43
828.029	31.14
828.201	32.38
828.373	31.84
828.545	31.45
828.717	31.45
828.889	31.75
829.061	31.43
829.232	31.1
829.404	30.14
829.576	29.73
829.748	29.91
829.92	29.56
830.092	28.21
830.264	27.65
830.436	27.95
830.607	27.33
830.779	25.95
830.951	25.7
831.123	25.67
831.294	24.94
831.466	23.17
831.638	21.9
831.809	21.6
831.981	21.4
832.153	23.91
832.324	23.05
832.496	23.32
832.667	21.84
832.839	21.25
833.011	21.33
833.182	19.74
833.354	18.91
833.525	18.72
833.697	21.84
833.868	23.45
834.039	23.13
834.211	24.97
834.382	26.6
834.554	28.27
834.725	29.86
834.896	28.21
835.068	31.46
835.239	34.25
835.41	34.92
835.581	34.93
835.753	34.17
835.924	32.81
836.095	34.68
836.266	34.93
836.438	35.72
836.609	33.98
836.78	35.86
836.951	32.25
837.122	32.29
837.293	31.28
837.464	29.51
837.635	27.12
837.806	28.29
837.977	23.18
838.148	21.19
838.319	16.87
838.49	20.92
838.661	18.91
838.832	22.05
839.003	14.57
839.174	12.82
839.345	11.87
839.516	5.18
839.687	-0.18
839.857	5.64
840.028	10.41
840.199	17.77
840.37	13.37
840.54	18.51
840.711	16.7
840.882	27.76
841.053	28.19
841.223	31.09
841.394	37.72
841.564	41.21
841.735	42.98
841.906	37.42
842.076	32.13
842.247	33.91
842.417	29.58
842.588	31.53
842.758	25.6
842.929	28.01
843.099	22.33
843.27	24.04
843.44	16.68
843.611	5.61
843.781	4.99
843.951	8.08
844.122	9.02
844.292	3.79
844.462	1.46
844.633	6.11
844.803	10.11
844.973	13.12
845.144	14.97
845.314	16.2
845.484	27.62
845.654	40.78
845.824	37.35
845.995	31.86
846.165	37.92
846.335	51.48
846.505	48.6
846.675	27.3
846.845	31.43
847.015	15.22
847.185	22.03
847.355	9.93
847.525	3.64
847.695	3.48
847.865	-17.92
848.035	-13.36
848.205	-34.83
848.375	-24.13
848.545	-13.42
848.715	-18.39
848.884	-10.61
849.054	-45.09
849.224	-23.5
849.394	-28.62
849.564	-3.72
849.733	46.4
849.903	28.37
850.073	33.75
850.243	31.28
850.412	36.6
850.582	12.52
850.752	-8.99
850.921	10.86
851.091	-18.82
851.26	-15.87
851.43	-30.56
851.599	-65.43
851.769	-64.19
851.939	-77.67
852.108	-127.29
852.278	-129.28
852.447	-75.98
852.616	-42.7
852.786	-42.85
852.955	-23.2
853.125	-37.81
853.294	-6.6
853.463	-6.56
853.633	-23.56
853.802	-45.04
853.971	-23.95
854.141	-33
854.31	-61.68
854.479	-96.08
854.648	-75.93
854.818	-57.61
854.987	-50.43
855.156	-91
855.325	-28.12
855.494	-5.14
855.663	-21.73
855.832	-47.33
856.001	-54.54
856.171	-63.93
856.34	-1.51
856.509	-49.66
856.678	-62.51
856.847	-24.77
857.016	-35.09
857.185	-41.73
857.353	-20.81
857.522	-11.18
857.691	14.14
857.86	23.98
858.029	49.69
858.198	28.1
858.367	31.31
858.535	35.23
858.704	45.81
858.873	51.59
859.042	37.47
859.21	29.37
859.379	29.16
859.548	14.52
859.717	-6.14
859.885	-10.66
860.054	-11.23
860.222	-9.14
860.391	-8.88
860.56	-7.25
860.728	-6.51
860.897	6.53
861.065	14.39
861.234	12.05
861.402	14.22
861.571	9.52
861.739	6.22
861.908	11.46
862.076	13.49
862.244	18.37
862.413	1.68
862.581	-5.93
862.749	-69.08
862.918	-111.53
863.086	-139.95
863.254	-195.75
863.423	-183.33
863.591	-65.66
863.759	-215.39
863.927	-325.52
864.096	-1273.23
864.264	427.68
864.432	705.7
864.6	-768.38
864.768	-156.43
864.936	17.37
865.104	95.39
865.272	55.4
865.44	-24.25
865.608	14.54
865.776	-12.61
865.944	-39.06
866.112	8.67
866.28	0.27
866.448	-14.63
866.616	-6.08
866.784	-2.13
866.952	-31.45
867.12	-27.51
867.288	8.02
867.455	11.14
867.623	5.76
867.791	12.64
867.959	5.4
868.127	6.49
868.294	27.48
868.462	-7.18
868.63	-36.49
868.797	-71.21
868.965	-188.4
869.133	-199.98
869.3	-281.56
869.468	-80.87
869.636	-47.4
869.803	-79.9
869.971	-53.71
870.138	-60.05
870.306	-48.41
870.473	-32.57
870.641	-3
870.808	-2.44
870.975	-3.24
871.143	14.81
871.31	-20.18
871.478	-82.09
871.645	-11.48
871.812	-26.58
871.98	-48.46
872.147	-39.06
872.314	-34.6
872.482	-80.53
872.649	-60.43
872.816	-54.95
872.983	-232.76
873.15	-82.72
873.318	-90.08
873.485	-142.07
873.652	-84.95
873.819	-42.77
873.986	-31.5
874.153	-36.67
874.32	-49.74
874.487	-62.02
874.654	-51.8
874.821	-12.33
874.988	2.4
875.155	21.5
875.322	19.48
875.489	4.95
875.656	9.09
875.823	-4.33
875.99	5.7
876.157	26.97
876.324	48.14
876.49	48.55
876.657	15.37
876.824	1.73
876.991	-7.81
877.157	-8.01
877.324	2.08
877.491	-1.27
877.658	1.18
877.824	-3.22
877.991	-25.81
878.157	-38.06
878.324	-55.64
878.491	-18.46
878.657	-22.85
878.824	-29.22
878.99	-27.43
879.157	-44.09
879.323	-31.75
879.49	-13.63
879.656	-14.47
879.823	3.57
879.989	4.1
880.156	-2.05
880.322	1.79
880.488	19.82
880.655	19.77
880.821	20.64
880.987	30.38
881.154	45.12
881.32	33.51
881.486	29.38
881.652	32.2
881.819	30.72
881.985	34.68
882.151	30.12
882.317	26.47
882.483	26.87
882.649	26.06
882.816	20.93
882.982	21.88
883.148	24.08
883.314	26.49
883.48	24.51
883.646	25.48
883.812	25.97
883.978	26.93
884.144	26.33
884.31	28.53
884.476	27.86
884.642	30.79
884.807	31.51
884.973	32.22
885.139	31.21
885.305	32.18
885.471	31.97
885.637	30.68
885.802	30.56
885.968	31.98
886.134	29.82
886.3	31.09
886.465	32
886.631	27.1
886.797	25.36
886.962	26.62
887.128	25.16
887.293	22.54
887.459	19.37
887.625	14.5
887.79	7.43
887.956	7.23
888.121	1.62
888.287	-14.89
888.452	-10.48
888.618	-29.14
888.783	-65.46
