Data from CB_115_Reflection_1.txt Node
Date: Sat Nov 14 19:03:56 EST 2015
User: robert
Spectrometer: USB4E03001
Autoset integration time: false
Trigger mode: 4
Integration Time (sec): 1.000000E-1
Scans to average: 15
Electric dark correction enabled: true
Nonlinearity correction enabled: false
Boxcar width: 5
Stray light correction enabled: false
XAxis mode: Wavelengths
Stop averaging: false
Number of Pixels in Spectrum: 3648
>>>>>Begin Spectral Data<<<<<
177.566	50.58
177.785	65.55
178.005	67.53
178.225	49.15
178.445	42.55
178.665	-0.36
178.885	-185.31
179.105	158.04
179.324	149.66
179.544	4843.86
179.764	138.59
179.984	118.19
180.204	128.75
180.423	155.43
180.643	113.41
180.863	146.8
181.083	220.36
181.302	166.69
181.522	717.5
181.742	524.77
181.961	145.01
182.181	207.32
182.401	96.98
182.621	76.02
182.84	71.07
183.06	90.98
183.279	132.25
183.499	195.97
183.719	109.28
183.938	192.71
184.158	46.27
184.377	-22.29
184.597	28.79
184.816	8.09
185.036	-3.35
185.256	-10.77
185.475	-7.13
185.695	-40.14
185.914	-83.65
186.134	-168.97
186.353	-116.3
186.572	-108.87
186.792	-46.71
187.011	-40.3
187.231	-100.28
187.45	-74.05
187.67	-58.61
187.889	-84.44
188.108	-16.62
188.328	-25.49
188.547	55.08
188.766	-27.52
188.986	-50.81
189.205	39.2
189.424	9.45
189.644	-47.16
189.863	-80.08
190.082	122.59
190.302	129.6
190.521	125.7
190.74	144.52
190.959	162.79
191.178	158.87
191.398	147.74
191.617	206.8
191.836	222.09
192.055	166.95
192.274	153.94
192.494	395.61
192.713	-1034.55
192.932	757.2
193.151	-188.97
193.37	-123.86
193.589	-47.29
193.808	-57.04
194.027	-38.59
194.246	-69.14
194.465	-38.8
194.685	-47.12
194.904	-176.56
195.123	-66.87
195.342	8.33
195.561	-85.93
195.78	-170.66
195.999	-207.13
196.218	-182.49
196.436	-148.06
196.655	-146.34
196.874	-359.97
197.093	-280.04
197.312	-14113.33
197.531	238.19
197.75	230.98
197.969	232.94
198.188	246.18
198.407	339.94
198.625	344.77
198.844	187.39
199.063	206.77
199.282	237.67
199.501	359.32
199.719	1220.19
199.938	-498.19
200.157	-241.46
200.376	-253.44
200.594	-513.81
200.813	-213.72
201.032	-208.14
201.251	-144.54
201.469	-87.38
201.688	-48.82
201.907	-42.68
202.125	-12.6
202.344	-0.27
202.563	-1.38
202.781	-39.25
203	-53.42
203.218	-57.95
203.437	-67.89
203.656	-61.23
203.874	-321.33
204.093	-217.83
204.311	192.8
204.53	255.68
204.748	171.92
204.967	233.18
205.185	225.94
205.404	288.35
205.622	294.46
205.841	377.36
206.059	213.69
206.278	185.85
206.496	85.01
206.715	76.38
206.933	-21.12
207.151	18.53
207.37	-11.61
207.588	-87.44
207.806	-53.53
208.025	66.52
208.243	40.02
208.461	32.89
208.68	297.39
208.898	-258.99
209.116	-1742.02
209.335	418.26
209.553	967.08
209.771	762.8
209.989	1400
210.208	422.27
210.426	337.48
210.644	445.37
210.862	223.51
211.081	550.54
211.299	492.54
211.517	2177.8
211.735	-465.98
211.953	-2261.86
212.171	518.12
212.39	423.71
212.608	-223.18
212.826	-488.72
213.044	-1150.63
213.262	12184.09
213.48	-215.83
213.698	-343.07
213.916	404.35
214.134	193.45
214.352	303.42
214.57	402.55
214.788	1875.53
215.006	5643.68
215.224	-5147.1
215.442	334.42
215.66	570.21
215.878	-534.8
216.096	-30.89
216.314	53.18
216.532	59.32
216.75	74.7
216.968	68.64
217.185	84.66
217.403	177.07
217.621	101.7
217.839	103.7
218.057	55.7
218.275	29.59
218.492	313.63
218.71	684.14
218.928	-2852.98
219.146	-201.91
219.363	30.6
219.581	30.56
219.799	-13.78
220.017	-73.76
220.234	-164.35
220.452	-122.21
220.67	-55.14
220.887	-192.26
221.105	-101.77
221.323	-364.38
221.54	-229.73
221.758	-845.81
221.976	1237.81
222.193	779.99
222.411	436.54
222.629	-4423.14
222.846	-2456.1
223.064	3076.32
223.281	-221.09
223.499	547.67
223.716	-196.7
223.934	135.1
224.151	1071.36
224.369	-418.44
224.586	-193.23
224.804	-75.38
225.021	-55.65
225.239	-45.52
225.456	-78.22
225.674	-74.73
225.891	-73.16
226.108	-114.7
226.326	-66.49
226.543	-34.98
226.76	-3.44
226.978	8.08
227.195	3.15
227.413	-7.11
227.63	-9.05
227.847	0.31
228.064	-0.76
228.282	8.28
228.499	9.75
228.716	8.36
228.934	6.66
229.151	5.01
229.368	3.52
229.585	4.03
229.802	5.99
230.02	7.61
230.237	6.51
230.454	4.44
230.671	3.32
230.888	3.07
231.105	3.67
231.323	5.6
231.54	5.44
231.757	3.14
231.974	-0.13
232.191	-0.93
232.408	-7.24
232.625	-14.17
232.842	-5.63
233.059	-6.88
233.276	-4.1
233.493	-3.42
233.71	-3.74
233.927	-8.73
234.144	-9.51
234.361	-9.63
234.578	-14.29
234.795	-6.35
235.012	-5.39
235.229	-9.17
235.446	-11.61
235.663	-15
235.879	-16.05
236.096	-21.29
236.313	-19.45
236.53	-18.39
236.747	-16.06
236.964	-15.89
237.181	-25.09
237.397	-13
237.614	-9.97
237.831	-8.56
238.048	-7.41
238.264	-11.55
238.481	-8.87
238.698	-2.78
238.915	0.21
239.131	-0.46
239.348	1.94
239.565	3.61
239.781	-3.69
239.998	-0.73
240.215	-1.77
240.431	-4.86
240.648	-4.28
240.865	-4.23
241.081	-4.47
241.298	-4.51
241.514	-6.72
241.731	-4.5
241.947	-2.64
242.164	-2.55
242.38	-3.66
242.597	-2.61
242.814	0.41
243.03	1.25
243.246	-0.84
243.463	-1.31
243.679	-0.32
243.896	1.39
244.112	-0.12
244.329	-1.46
244.545	-0.08
244.762	0.12
244.978	-3.04
245.194	-1.93
245.411	-0.78
245.627	2.02
245.843	4
246.06	3.21
246.276	4.47
246.492	4.83
246.709	4.33
246.925	4.43
247.141	5.27
247.357	7.03
247.574	6.19
247.79	5.39
248.006	5.71
248.222	5.87
248.439	5.4
248.655	5.7
248.871	5.47
249.087	6.92
249.303	7.42
249.519	7.48
249.736	5.05
249.952	4.67
250.168	4.75
250.384	3.83
250.6	1.88
250.816	3.27
251.032	2.16
251.248	2.34
251.464	1.72
251.68	-0.07
251.896	-2.61
252.112	-1.6
252.328	-0.81
252.544	0.69
252.76	1.7
252.976	2.79
253.192	2.72
253.408	1.84
253.624	-1.31
253.84	-1.3
254.056	-0.21
254.272	2.15
254.487	1.53
254.703	0.58
254.919	4.41
255.135	2.77
255.351	0.12
255.567	-0.06
255.782	0.73
255.998	3.31
256.214	1.8
256.43	-0.12
256.646	-2.65
256.861	-0.12
257.077	1.44
257.293	-6.27
257.508	-4.84
257.724	-2.99
257.94	-1.07
258.155	-2.5
258.371	-2.09
258.587	-1.71
258.802	-0.66
259.018	-0.24
259.234	1.17
259.449	0.54
259.665	2.64
259.88	2.9
260.096	2.84
260.312	2.48
260.527	3.03
260.743	3.2
260.958	2.78
261.174	2.39
261.389	2.51
261.605	1.47
261.82	0.08
262.036	-0.3
262.251	-0.12
262.466	-1.1
262.682	-2.28
262.897	-1.69
263.113	-2.11
263.328	-0.85
263.543	-0.21
263.759	-1.54
263.974	-0.49
264.189	1.69
264.405	1.15
264.62	-1.42
264.835	0.1
265.051	1.7
265.266	-0.15
265.481	0.28
265.696	0.44
265.912	0.78
266.127	3.49
266.342	0.56
266.557	0.38
266.773	-0.53
266.988	0.04
267.203	-0.02
267.418	0.48
267.633	1.6
267.848	2.53
268.064	1.31
268.279	1.29
268.494	0.62
268.709	0.49
268.924	0.91
269.139	1.71
269.354	2.04
269.569	1.87
269.784	1.3
269.999	0.67
270.214	0.88
270.429	1.11
270.644	1.37
270.859	1.43
271.074	2.68
271.289	4.05
271.504	4.64
271.719	5.35
271.934	5.02
272.149	4.95
272.363	4.85
272.578	4.51
272.793	4.91
273.008	4.82
273.223	5.69
273.438	5.67
273.653	5.18
273.867	3.79
274.082	2.59
274.297	3.08
274.512	2.5
274.726	2.32
274.941	2.49
275.156	2.21
275.371	2.7
275.585	0.76
275.8	0.98
276.015	-0.71
276.229	0.48
276.444	2.13
276.659	1.42
276.873	2.25
277.088	1.13
277.302	1.33
277.517	1.13
277.732	0.78
277.946	0.52
278.161	0.95
278.375	1.77
278.59	1.79
278.804	-0.85
279.019	-0.8
279.233	-1.19
279.448	0.61
279.662	0.03
279.877	1.38
280.091	1.59
280.306	3.16
280.52	2.55
280.735	2.79
280.949	2.86
281.163	4.58
281.378	4.95
281.592	4.25
281.806	4.02
282.021	4.38
282.235	2.7
282.449	1.9
282.664	2.09
282.878	0.61
283.092	1.32
283.307	1.19
283.521	0.22
283.735	0.25
283.949	0.43
284.164	-0.33
284.378	-0.86
284.592	-0.62
284.806	-0.28
285.02	0.17
285.234	1.99
285.449	2.16
285.663	1.69
285.877	1.92
286.091	1.72
286.305	3.14
286.519	4.39
286.733	3.87
286.947	5.49
287.161	5.02
287.375	3.32
287.589	2.74
287.803	2.33
288.017	2.61
288.231	1.98
288.445	2
288.659	0.95
288.873	0.52
289.087	1.88
289.301	-0.04
289.515	0.36
289.729	0.59
289.943	-0.35
290.157	0.01
290.371	-0.36
290.584	-0
290.798	0.23
291.012	-0.14
291.226	-0.63
291.44	-0.41
291.654	1.38
291.867	2.49
292.081	3.51
292.295	5.3
292.509	5.68
292.722	6.5
292.936	4.48
293.15	5.3
293.364	3.87
293.577	4.57
293.791	2.09
294.005	1.13
294.218	-0.26
294.432	-0.77
294.645	-0.74
294.859	-1.35
295.073	-1.78
295.286	2.11
295.5	0.15
295.713	1.15
295.927	0.51
296.14	1.7
296.354	1.39
296.568	2.14
296.781	2.68
296.994	2.92
297.208	3.19
297.421	3.43
297.635	1.7
297.848	1.91
298.062	2.47
298.275	3.18
298.489	4.07
298.702	4.31
298.915	3.3
299.129	3.36
299.342	3.03
299.555	2.7
299.769	3.11
299.982	4.7
300.195	5.56
300.409	4.22
300.622	2.4
300.835	1.83
301.048	2.31
301.262	2.99
301.475	1.73
301.688	1.61
301.901	1.07
302.115	1.63
302.328	-0.47
302.541	-2.13
302.754	-1.68
302.967	-0.64
303.18	-0.59
303.393	-0.82
303.607	-1.59
303.82	-0.31
304.033	-1.02
304.246	0.15
304.459	-1.24
304.672	-0.97
304.885	1.26
305.098	2.69
305.311	3.54
305.524	3.92
305.737	2.96
305.95	4.8
306.163	4.03
306.376	3.99
306.589	3.87
306.802	4.73
307.015	5.75
307.228	4.66
307.44	3.65
307.653	2.99
307.866	1.91
308.079	2.77
308.292	0.77
308.505	1.63
308.718	1.02
308.93	0.41
309.143	0.1
309.356	0.05
309.569	-0.44
309.781	-0.82
309.994	-0.63
310.207	-0.23
310.42	-0.18
310.632	0.58
310.845	0.89
311.058	2.51
311.27	3.23
311.483	2.57
311.696	2.78
311.908	2.11
312.121	2.95
312.333	4.07
312.546	4.92
312.759	4.73
312.971	5.09
313.184	3.96
313.396	2.78
313.609	1.57
313.821	2.24
314.034	1.31
314.246	2.61
314.459	1.91
314.671	2.79
314.884	1.38
315.096	1.74
315.309	1.48
315.521	1.23
315.733	2.14
315.946	1.81
316.158	2.14
316.371	3.24
316.583	5.01
316.795	5.2
317.008	2.65
317.22	2.91
317.432	3.06
317.644	3.33
317.857	3.58
318.069	4.54
318.281	4.98
318.494	5.38
318.706	5.91
318.918	4.01
319.13	5.22
319.342	6.3
319.555	5.91
319.767	5.53
319.979	5.23
320.191	7.57
320.403	5.38
320.615	5.95
320.827	6.43
321.039	6.4
321.252	5.98
321.464	5.39
321.676	4.89
321.888	7.07
322.1	7.98
322.312	9.08
322.524	8.24
322.736	9.61
322.948	9.54
323.16	8.82
323.372	8.47
323.584	9.36
323.796	10.22
324.007	10.35
324.219	8.77
324.431	8.29
324.643	6.35
324.855	7.02
325.067	7.39
325.279	7.81
325.491	7.48
325.702	8.17
325.914	8.71
326.126	8.1
326.338	6.9
326.55	7.89
326.761	7.49
326.973	9.32
327.185	8.46
327.396	9.16
327.608	9.99
327.82	12.28
328.032	11.78
328.243	12.66
328.455	13.12
328.666	15.25
328.878	16.56
329.09	18.28
329.301	18.12
329.513	19.17
329.725	18.89
329.936	18.91
330.148	18.05
330.359	18.56
330.571	19.88
330.782	21.01
330.994	21.2
331.205	20.54
331.417	20.54
331.628	20.85
331.84	20.29
332.051	20.89
332.262	21.05
332.474	21.44
332.685	21.77
332.897	19.99
333.108	19.66
333.319	19.63
333.531	19.21
333.742	19.17
333.953	19.16
334.165	21.01
334.376	20.86
334.587	20.86
334.799	21.53
335.01	21.88
335.221	22.27
335.432	22.06
335.644	21.53
335.855	22.25
336.066	22.25
336.277	24.06
336.488	23.8
336.7	24.55
336.911	25.35
337.122	24.64
337.333	24.92
337.544	25.3
337.755	25.44
337.966	26.13
338.177	26.05
338.388	26.42
338.599	25.86
338.811	25.51
339.022	24.27
339.233	23.01
339.444	22.75
339.655	22.39
339.866	22.67
340.076	23.05
340.287	23.81
340.498	23.72
340.709	23.02
340.92	22.64
341.131	22.12
341.342	22.39
341.553	23.25
341.764	24.24
341.975	25.13
342.185	25.26
342.396	25.41
342.607	25.59
342.818	26.35
343.029	27.32
343.239	27.48
343.45	28.34
343.661	28.63
343.872	28.06
344.082	27.61
344.293	26.4
344.504	26.1
344.714	25.93
344.925	26.06
345.136	24.95
345.346	24.27
345.557	24.21
345.768	23.16
345.978	23.45
346.189	23.45
346.399	23.57
346.61	24.32
346.821	24.65
347.031	24.06
347.242	23.39
347.452	23.8
347.663	23.69
347.873	23.06
348.084	23.58
348.294	23.5
348.504	23.97
348.715	24.12
348.925	23.69
349.136	23.19
349.346	23.88
349.557	23.97
349.767	23.7
349.977	24.14
350.188	25.51
350.398	25.38
350.608	25.46
350.819	25.29
351.029	24.87
351.239	25.18
351.449	25.23
351.66	25.87
351.87	25.57
352.08	25.84
352.29	25.34
352.501	24.33
352.711	24.41
352.921	23.72
353.131	24
353.341	24.13
353.552	23.63
353.762	23.75
353.972	23.44
354.182	23.31
354.392	23.48
354.602	23.87
354.812	22.88
355.022	22.66
355.232	22.84
355.442	22.48
355.652	22.17
355.862	22.03
356.072	21.77
356.282	20.71
356.492	20.36
356.702	20.67
356.912	20.81
357.122	21.17
357.332	20.99
357.542	21.67
357.752	21.93
357.962	21.51
358.171	22.64
358.381	23.1
358.591	23.08
358.801	23.22
359.011	22.63
359.221	22.31
359.43	22.92
359.64	23.58
359.85	22.88
360.06	22.97
360.269	23.74
360.479	23.14
360.689	22.67
360.899	23.08
361.108	23.25
361.318	23.9
361.528	23.55
361.737	22.85
361.947	22.34
362.156	22.87
362.366	22.55
362.576	22.19
362.785	21.64
362.995	21.43
363.204	21.19
363.414	21.46
363.623	21.06
363.833	21.59
364.042	22.07
364.252	22.32
364.461	21.22
364.671	20.79
364.88	20.59
365.09	20.48
365.299	21.01
365.509	20.93
365.718	20.5
365.927	19.99
366.137	19.52
366.346	19.93
366.555	20.08
366.765	20.63
366.974	21.32
367.183	21.7
367.393	22.03
367.602	21.51
367.811	21.6
368.021	21.09
368.23	21.26
368.439	20.65
368.648	20.25
368.857	19.73
369.067	20.12
369.276	20.09
369.485	19.79
369.694	19.95
369.903	20.24
370.112	20.24
370.321	21.37
370.531	21.38
370.74	22.08
370.949	21.81
371.158	21.93
371.367	21.63
371.576	21.09
371.785	21.47
371.994	21.38
372.203	20.86
372.412	20.22
372.621	19.88
372.83	19.97
373.039	20.51
373.248	20.26
373.457	20.12
373.666	19.97
373.874	20.11
374.083	19.9
374.292	20.47
374.501	20.44
374.71	21.23
374.919	21.05
375.128	21.16
375.336	20.07
375.545	20.3
375.754	20.3
375.963	20.16
376.171	20.32
376.38	19.83
376.589	19.06
376.798	19.76
377.006	19.46
377.215	18.9
377.424	18.28
377.632	19.06
377.841	19.27
378.05	19.26
378.258	19.54
378.467	19.37
378.675	19.3
378.884	19.54
379.093	19.24
379.301	19.93
379.51	20.44
379.718	20.79
379.927	21.08
380.135	20.91
380.344	21.27
380.552	20.82
380.761	20.61
380.969	20.92
381.177	20.96
381.386	20.5
381.594	20.33
381.803	20.15
382.011	20.12
382.219	19.68
382.428	19.22
382.636	18.93
382.845	18.69
383.053	19.07
383.261	19.24
383.469	19.42
383.678	19.89
383.886	19.45
384.094	19.52
384.302	19.55
384.511	19.7
384.719	20.08
384.927	19.89
385.135	19.89
385.343	19.89
385.552	19.58
385.76	19.36
385.968	18.88
386.176	18.52
386.384	18.58
386.592	18.57
386.8	18.7
387.008	18.58
387.216	18.43
387.424	19.23
387.633	18.83
387.841	18.68
388.049	18.17
388.257	18.2
388.465	18.63
388.672	18.18
388.88	17.72
389.088	17.08
389.296	16.97
389.504	16.73
389.712	16.16
389.92	15.97
390.128	15.94
390.336	16.36
390.544	16.74
390.751	16.39
390.959	16.85
391.167	17.28
391.375	17.09
391.583	17.31
391.79	17.5
391.998	17.59
392.206	18.04
392.414	18.3
392.621	18.13
392.829	17.93
393.037	18.2
393.244	17.99
393.452	17.82
393.66	18.25
393.867	18.33
394.075	18.54
394.283	18.04
394.49	17.94
394.698	17.61
394.905	17.8
395.113	18.11
395.32	17.84
395.528	17.96
395.735	17.83
395.943	17.68
396.15	17.39
396.358	17.18
396.565	17.24
396.773	17.33
396.98	17.65
397.188	17.32
397.395	17.25
397.602	17.4
397.81	16.99
398.017	16.99
398.225	17.08
398.432	17.21
398.639	17.04
398.847	16.98
399.054	16.55
399.261	16.41
399.468	17
399.676	16.84
399.883	16.91
400.09	17.14
400.297	17.15
400.505	16.82
400.712	16.85
400.919	17.15
401.126	17.66
401.333	18.06
401.54	18.07
401.748	17.73
401.955	17.68
402.162	17.84
402.369	17.83
402.576	18.22
402.783	18.71
402.99	18.83
403.197	18.86
403.404	19.02
403.611	18.97
403.818	19.07
404.025	19.2
404.232	19.16
404.439	19.23
404.646	19.3
404.853	19.09
405.06	18.96
405.267	18.72
405.474	18.63
405.681	18.33
405.887	18.46
406.094	18.49
406.301	18.64
406.508	18.75
406.715	18.9
406.922	19
407.128	18.85
407.335	18.99
407.542	19.41
407.749	19.29
407.955	19.71
408.162	19.51
408.369	19.41
408.575	19.29
408.782	19.21
408.989	19.07
409.195	19.27
409.402	19.94
409.609	19.85
409.815	19.78
410.022	20.04
410.228	19.77
410.435	19.93
410.642	20.11
410.848	20.1
411.055	20.01
411.261	20.05
411.468	19.97
411.674	19.99
411.881	20.31
412.087	20.42
412.294	20.7
412.5	20.86
412.706	21.19
412.913	21.58
413.119	21.82
413.326	22.28
413.532	22.55
413.738	22.43
413.945	22.19
414.151	21.76
414.357	21.9
414.564	22.02
414.77	22.22
414.976	22.03
415.182	21.81
415.389	21.69
415.595	21.67
415.801	21.41
416.007	21.73
416.214	21.91
416.42	21.99
416.626	22.06
416.832	21.86
417.038	21.69
417.244	21.94
417.45	22.1
417.657	22.39
417.863	22.42
418.069	22.62
418.275	22.46
418.481	22.46
418.687	22.56
418.893	22.54
419.099	22.62
419.305	22.69
419.511	22.62
419.717	22.58
419.923	22.59
420.129	22.65
420.335	22.73
420.541	22.82
420.746	22.95
420.952	23.03
421.158	22.99
421.364	22.97
421.57	23.12
421.776	23.05
421.982	23.19
422.187	23.2
422.393	23.27
422.599	23.28
422.805	23.33
423.01	23.23
423.216	23.29
423.422	23.42
423.628	23.42
423.833	23.36
424.039	23.51
424.245	23.47
424.45	23.48
424.656	23.35
424.862	23.39
425.067	23.44
425.273	23.48
425.478	23.46
425.684	23.36
425.889	23.51
426.095	23.54
426.301	23.52
426.506	23.52
426.712	23.45
426.917	23.68
427.123	23.48
427.328	23.47
427.533	23.67
427.739	23.69
427.944	23.75
428.15	23.63
428.355	23.72
428.561	23.79
428.766	23.8
428.971	23.79
429.177	23.52
429.382	23.79
429.587	23.7
429.793	23.5
429.998	23.55
430.203	23.56
430.408	23.57
430.614	23.63
430.819	23.41
431.024	23.39
431.229	23.5
431.434	23.83
431.64	23.8
431.845	23.64
432.05	23.78
432.255	23.71
432.46	23.92
432.665	24.03
432.87	23.92
433.076	24.02
433.281	23.88
433.486	23.93
433.691	23.77
433.896	23.77
434.101	24.07
434.306	23.93
434.511	23.9
434.716	23.73
434.921	23.64
435.126	23.77
435.331	23.87
435.535	24.14
435.74	24.06
435.945	24.1
436.15	24.21
436.355	24.2
436.56	24.4
436.765	24.64
436.97	24.7
437.174	24.88
437.379	24.88
437.584	24.95
437.789	24.81
437.993	24.88
438.198	24.97
438.403	24.99
438.608	25
438.812	24.9
439.017	24.88
439.222	24.97
439.426	24.88
439.631	24.78
439.836	24.7
440.04	24.79
440.245	24.78
440.45	24.67
440.654	24.65
440.859	24.44
441.063	24.39
441.268	24.35
441.472	24.32
441.677	24.49
441.881	24.56
442.086	24.49
442.29	24.7
442.495	24.56
442.699	24.65
442.904	24.61
443.108	24.85
443.312	24.99
443.517	24.99
443.721	25.02
443.925	24.88
444.13	25.01
444.334	25.04
444.538	24.71
444.743	24.97
444.947	24.91
445.151	24.8
445.356	24.78
445.56	24.52
445.764	24.56
445.968	24.48
446.173	24.53
446.377	24.33
446.581	24.4
446.785	24.49
446.989	24.3
447.193	24.28
447.398	24.25
447.602	24.18
447.806	24.37
448.01	24.12
448.214	24.35
448.418	24.31
448.622	24.43
448.826	24.41
449.03	24.48
449.234	24.52
449.438	24.64
449.642	24.82
449.846	25.05
450.05	24.96
450.254	25.18
450.458	24.81
450.662	24.74
450.866	24.59
451.069	24.55
451.273	24.51
451.477	24.67
451.681	24.38
451.885	24.14
452.089	23.89
452.292	23.9
452.496	23.84
452.7	23.76
452.904	23.81
453.107	24.03
453.311	23.83
453.515	23.71
453.719	23.69
453.922	23.73
454.126	23.87
454.33	23.84
454.533	23.92
454.737	23.94
454.94	23.99
455.144	23.85
455.348	23.82
455.551	24.04
455.755	24.01
455.958	23.82
456.162	23.77
456.365	23.74
456.569	23.67
456.772	23.64
456.976	23.68
457.179	23.89
457.383	23.97
457.586	23.7
457.79	23.73
457.993	23.66
458.196	23.69
458.4	23.73
458.603	23.78
458.807	23.91
459.01	23.97
459.213	24.03
459.417	23.95
459.62	23.91
459.823	23.99
460.026	23.99
460.23	24.03
460.433	24.03
460.636	24.24
460.839	24.22
461.042	24.2
461.246	24.19
461.449	24.11
461.652	24.16
461.855	24.25
462.058	24.28
462.261	24.32
462.464	24.53
462.668	24.67
462.871	24.47
463.074	24.48
463.277	24.58
463.48	24.64
463.683	24.83
463.886	24.65
464.089	24.72
464.292	24.83
464.495	24.83
464.698	24.83
464.901	24.77
465.104	25.07
465.306	25.25
465.509	25.27
465.712	25.31
465.915	25.27
466.118	25.4
466.321	25.29
466.524	25.28
466.726	25.25
466.929	25.25
467.132	25.31
467.335	25.09
467.538	25.2
467.74	25.24
467.943	25.03
468.146	25.21
468.348	25.18
468.551	25.34
468.754	25.45
468.956	25.54
469.159	25.49
469.362	25.59
469.564	25.69
469.767	25.63
469.969	25.71
470.172	26.02
470.375	26.1
470.577	26.37
470.78	26.42
470.982	26.37
471.185	26.17
471.387	26.27
471.59	26.41
471.792	26.44
471.995	26.5
472.197	26.6
472.399	26.68
472.602	26.64
472.804	26.49
473.007	26.55
473.209	26.56
473.411	26.66
473.614	26.68
473.816	26.42
474.018	26.46
474.22	26.53
474.423	26.43
474.625	26.36
474.827	26.38
475.03	26.43
475.232	26.27
475.434	26.3
475.636	26.58
475.838	26.64
476.04	26.7
476.243	26.75
476.445	26.7
476.647	26.75
476.849	26.74
477.051	26.75
477.253	26.86
477.455	26.98
477.657	27.08
477.859	26.95
478.061	26.94
478.263	26.99
478.465	27.06
478.667	26.93
478.869	26.9
479.071	26.96
479.273	26.74
479.475	26.61
479.677	26.69
479.879	26.61
480.081	26.54
480.283	26.39
480.485	26.54
480.686	26.52
480.888	26.67
481.09	26.7
481.292	26.66
481.494	26.76
481.695	26.91
481.897	26.83
482.099	26.96
482.301	26.96
482.502	27.06
482.704	27.06
482.906	26.88
483.107	26.92
483.309	26.91
483.511	26.94
483.712	26.98
483.914	26.93
484.115	27.01
484.317	26.94
484.519	27
484.72	27.07
484.922	27.06
485.123	27.21
485.325	27.2
485.526	27.24
485.728	27.23
485.929	27.26
486.131	27.36
486.332	27.27
486.534	27.34
486.735	27.41
486.936	27.37
487.138	27.44
487.339	27.46
487.541	27.51
487.742	27.53
487.943	27.55
488.144	27.54
488.346	27.53
488.547	27.62
488.748	27.69
488.95	27.65
489.151	27.63
489.352	27.57
489.553	27.63
489.755	27.59
489.956	27.66
490.157	27.72
490.358	27.75
490.559	27.91
490.76	27.96
490.961	28.07
491.163	28.24
491.364	28.36
491.565	28.47
491.766	28.5
491.967	28.59
492.168	28.58
492.369	28.66
492.57	28.8
492.771	28.79
492.972	28.83
493.173	28.77
493.374	28.68
493.575	28.76
493.776	28.8
493.976	28.79
494.177	29.01
494.378	29.2
494.579	29.25
494.78	29.23
494.981	29.36
495.182	29.53
495.382	29.71
495.583	29.96
495.784	29.94
495.985	29.98
496.185	30.04
496.386	30.03
496.587	30.22
496.788	30.34
496.988	30.54
497.189	30.58
497.39	30.67
497.59	30.84
497.791	30.91
497.992	31.21
498.192	31.36
498.393	31.42
498.593	31.41
498.794	31.29
498.994	31.32
499.195	31.29
499.395	31.48
499.596	31.51
499.796	31.68
499.997	31.75
500.197	31.6
500.398	31.61
500.598	32.07
500.799	32.28
500.999	32.5
501.199	32.81
501.4	33.09
501.6	33.27
501.801	33.49
502.001	33.57
502.201	33.63
502.402	34
502.602	34.28
502.802	34.24
503.002	34.32
503.203	34.42
503.403	34.42
503.603	34.44
503.803	34.48
504.003	34.49
504.204	34.61
504.404	34.82
504.604	34.72
504.804	34.77
505.004	34.78
505.204	34.98
505.404	35.25
505.604	35.41
505.804	35.71
506.005	35.95
506.205	36.17
506.405	36.32
506.605	36.39
506.805	36.75
507.005	37
507.204	37.26
507.404	37.5
507.604	37.6
507.804	37.78
508.004	37.89
508.204	37.91
508.404	38.08
508.604	38.31
508.804	38.65
509.003	38.79
509.203	38.84
509.403	39.13
509.603	39.26
509.803	39.26
510.002	39.35
510.202	39.56
510.402	39.73
510.602	39.93
510.801	40.03
511.001	40.04
511.201	40.11
511.4	40.36
511.6	40.27
511.8	40.43
511.999	40.74
512.199	41.09
512.398	41.18
512.598	41.35
512.797	41.41
512.997	41.36
513.197	41.52
513.396	41.54
513.596	41.71
513.795	41.91
513.994	41.92
514.194	42.15
514.393	42.25
514.593	42.29
514.792	42.41
514.992	42.66
515.191	42.97
515.39	43.1
515.59	43.5
515.789	43.58
515.988	43.76
516.188	43.92
516.387	44.02
516.586	44.19
516.786	44.53
516.985	44.74
517.184	44.94
517.383	45.02
517.582	45.2
517.782	45.26
517.981	45.35
518.18	45.46
518.379	45.72
518.578	45.7
518.777	45.78
518.976	45.73
519.176	45.79
519.375	45.78
519.574	45.86
519.773	45.88
519.972	45.89
520.171	46.05
520.37	46.11
520.569	46.09
520.768	46.37
520.967	46.43
521.166	46.58
521.365	46.72
521.564	46.88
521.762	47.08
521.961	47.26
522.16	47.49
522.359	47.65
522.558	47.95
522.757	48.08
522.956	48.06
523.154	48.18
523.353	48.31
523.552	48.34
523.751	48.35
523.949	48.4
524.148	48.56
524.347	48.63
524.546	48.57
524.744	48.68
524.943	48.79
525.142	48.79
525.34	48.73
525.539	48.79
525.737	48.93
525.936	48.99
526.135	49.08
526.333	49.06
526.532	49.09
526.73	49.34
526.929	49.32
527.127	49.5
527.326	49.61
527.524	49.77
527.723	49.79
527.921	49.87
528.12	49.97
528.318	50.1
528.516	50.12
528.715	50.33
528.913	50.35
529.112	50.4
529.31	50.34
529.508	50.33
529.707	50.37
529.905	50.37
530.103	50.3
530.301	50.34
530.5	50.23
530.698	50.26
530.896	50.03
531.094	49.97
531.293	50.03
531.491	50.06
531.689	50.21
531.887	50.23
532.085	50.41
532.283	50.61
532.481	50.67
532.68	50.92
532.878	50.98
533.076	51.23
533.274	51.19
533.472	51.15
533.67	51.21
533.868	51.27
534.066	51.34
534.264	51.33
534.462	51.31
534.66	51.29
534.858	51.27
535.056	51.37
535.253	51.21
535.451	51.3
535.649	51.36
535.847	51.43
536.045	51.31
536.243	51.26
536.441	51.35
536.638	51.49
536.836	51.49
537.034	51.44
537.232	51.4
537.43	51.49
537.627	51.53
537.825	51.5
538.023	51.53
538.22	51.84
538.418	51.93
538.616	51.98
538.813	51.89
539.011	52.08
539.209	52.07
539.406	52.06
539.604	52.16
539.801	52.27
539.999	52.39
540.196	52.39
540.394	52.34
540.591	52.27
540.789	52.32
540.986	52.36
541.184	52.38
541.381	52.43
541.579	52.65
541.776	52.69
541.974	52.61
542.171	52.52
542.368	52.51
542.566	52.47
542.763	52.61
542.96	52.57
543.158	52.59
543.355	52.49
543.552	52.54
543.75	52.39
543.947	52.37
544.144	52.38
544.341	52.55
544.539	52.53
544.736	52.49
544.933	52.43
545.13	52.45
545.327	52.3
545.524	52.2
545.722	52.08
545.919	52.16
546.116	52.11
546.313	52.08
546.51	52.02
546.707	52.1
546.904	52.16
547.101	52.06
547.298	51.98
547.495	52.16
547.692	52.33
547.889	52.36
548.086	52.32
548.283	52.19
548.48	52.42
548.677	52.59
548.874	52.6
549.07	52.71
549.267	52.87
549.464	53.01
549.661	52.91
549.858	53.19
550.055	53.35
550.251	53.4
550.448	53.65
550.645	53.63
550.842	53.31
551.038	53.3
551.235	53.32
551.432	53.23
551.628	53.13
551.825	53.24
552.022	52.89
552.218	52.8
552.415	52.75
552.612	52.78
552.808	52.77
553.005	52.89
553.201	52.82
553.398	52.76
553.594	52.78
553.791	52.97
553.987	52.95
554.184	53.2
554.38	53.45
554.577	53.5
554.773	53.24
554.97	53.15
555.166	53.09
555.362	53.19
555.559	53.24
555.755	53.3
555.952	53.21
556.148	53.38
556.344	53.39
556.541	53.12
556.737	53.15
556.933	53.4
557.129	53.51
557.326	53.67
557.522	53.54
557.718	53.58
557.914	53.81
558.11	53.78
558.307	53.47
558.503	53.44
558.699	53.55
558.895	53.65
559.091	53.61
559.287	53.65
559.483	53.7
559.679	54.11
559.876	54.13
560.072	53.9
560.268	53.98
560.464	54.06
560.66	53.88
560.856	54.01
561.052	53.91
561.247	54.11
561.443	53.99
561.639	53.8
561.835	53.61
562.031	53.55
562.227	53.33
562.423	53.31
562.619	53.43
562.815	53.42
563.01	53.41
563.206	53.24
563.402	53.19
563.598	53.24
563.793	53.07
563.989	52.96
564.185	52.83
564.381	53.14
564.576	53.26
564.772	53.38
564.968	53.54
565.163	53.56
565.359	53.89
565.555	54
565.75	54.12
565.946	54.17
566.141	54.2
566.337	54.32
566.532	54.37
566.728	54.33
566.923	54.4
567.119	54.57
567.314	54.59
567.51	54.41
567.705	54.16
567.901	54.17
568.096	54.34
568.292	54.35
568.487	54.35
568.682	54.4
568.878	54.31
569.073	54.11
569.268	54.02
569.464	53.85
569.659	53.86
569.854	53.9
570.05	53.87
570.245	53.92
570.44	54
570.635	54.04
570.831	53.93
571.026	54.06
571.221	54.08
571.416	53.99
571.611	54.07
571.806	54.22
572.002	54.36
572.197	54.42
572.392	54.57
572.587	54.62
572.782	54.42
572.977	54.51
573.172	54.51
573.367	54.73
573.562	54.86
573.757	54.95
573.952	54.81
574.147	54.73
574.342	54.64
574.537	54.53
574.732	54.41
574.927	54.5
575.121	54.31
575.316	54.3
575.511	54.2
575.706	54.21
575.901	53.94
576.096	54.08
576.29	54.12
576.485	54.01
576.68	53.91
576.875	54.08
577.069	54.02
577.264	54.12
577.459	54.16
577.654	54.03
577.848	53.78
578.043	53.96
578.238	53.88
578.432	53.93
578.627	54.08
578.821	54.11
579.016	54.04
579.21	54.33
579.405	54.49
579.6	54.31
579.794	54.42
579.989	54.51
580.183	54.83
580.378	54.81
580.572	54.59
580.766	54.56
580.961	54.74
581.155	54.57
581.35	54.55
581.544	54.35
581.738	54.32
581.933	54.24
582.127	54.41
582.321	54.05
582.516	53.98
582.71	54.01
582.904	53.97
583.099	53.73
583.293	53.75
583.487	53.76
583.681	53.93
583.875	53.92
584.07	53.94
584.264	53.88
584.458	53.85
584.652	54.03
584.846	53.95
585.04	54.28
585.234	54.24
585.428	54.27
585.623	54.18
585.817	54.09
586.011	54.2
586.205	54.04
586.399	53.88
586.593	53.8
586.787	53.57
586.981	53.58
587.174	53.34
587.368	53.42
587.562	53.7
587.756	53.52
587.95	53.36
588.144	53.35
588.338	53.39
588.532	53.49
588.725	53.66
588.919	53.77
589.113	53.86
589.307	53.9
589.501	53.78
589.694	53.49
589.888	53.38
590.082	53.46
590.275	53.38
590.469	53.42
590.663	53.31
590.856	53.22
591.05	53.19
591.244	53.3
591.437	53.22
591.631	53.34
591.824	53.44
592.018	53.77
592.212	53.86
592.405	54.1
592.599	53.98
592.792	53.98
592.986	53.79
593.179	53.73
593.372	53.38
593.566	53.47
593.759	53.3
593.953	53.18
594.146	52.99
594.339	52.93
594.533	52.74
594.726	52.99
594.92	52.98
595.113	53.18
595.306	53.48
595.499	53.66
595.693	53.56
595.886	53.7
596.079	53.62
596.272	53.56
596.466	53.51
596.659	53.44
596.852	53.42
597.045	53.48
597.238	53.24
597.431	52.94
597.624	52.91
597.818	52.83
598.011	52.84
598.204	52.93
598.397	53
598.59	53.16
598.783	52.92
598.976	52.8
599.169	52.68
599.362	52.92
599.555	52.82
599.748	52.7
599.941	52.6
600.134	52.49
600.326	52.59
600.519	52.44
600.712	52.1
600.905	52.28
601.098	52.1
601.291	51.86
601.483	51.8
601.676	51.96
601.869	52.13
602.062	52.27
602.255	52.11
602.447	51.99
602.64	52.09
602.833	52.18
603.025	52.18
603.218	52.33
603.411	52.52
603.603	52.55
603.796	52.52
603.989	52.49
604.181	52.44
604.374	52.39
604.566	52.2
604.759	52.13
604.951	52.18
605.144	52.35
605.336	51.95
605.529	51.72
605.721	51.43
605.914	51.31
606.106	51.2
606.299	51.09
606.491	51.09
606.683	51.32
606.876	51.2
607.068	50.97
607.26	50.71
607.453	50.87
607.645	51.02
607.837	50.96
608.03	50.84
608.222	50.68
608.414	50.6
608.606	50.5
608.799	50.32
608.991	50.42
609.183	50.2
609.375	50.14
609.567	50.08
609.759	49.81
609.952	50
610.144	49.91
610.336	49.91
610.528	49.75
610.72	49.85
610.912	49.79
611.104	49.69
611.296	49.96
611.488	49.71
611.68	49.59
611.872	49.57
612.064	49.2
612.256	49.26
612.448	49.14
612.64	49.28
612.832	49.16
613.023	49.11
613.215	48.79
613.407	48.49
613.599	48.55
613.791	48.88
613.983	49.02
614.174	49.3
614.366	49.23
614.558	49.28
614.75	49.28
614.941	49.09
615.133	48.84
615.325	48.9
615.516	49.01
615.708	48.88
615.9	48.94
616.091	49.09
616.283	48.96
616.475	48.95
616.666	48.67
616.858	48.36
617.049	48.31
617.241	48.48
617.432	48.62
617.624	48.53
617.815	48.65
618.007	48.48
618.198	48.39
618.39	48.19
618.581	48.05
618.773	48.18
618.964	48.52
619.155	48.52
619.347	48.49
619.538	48.32
619.729	48.12
619.921	47.97
620.112	47.85
620.303	47.57
620.494	47.71
620.686	47.66
620.877	47.47
621.068	47.11
621.259	47.23
621.451	47.04
621.642	47.14
621.833	47.13
622.024	46.92
622.215	46.95
622.406	47.11
622.597	47.19
622.788	46.99
622.98	46.71
623.171	46.77
623.362	46.43
623.553	46.59
623.744	46.54
623.935	46.41
624.126	46.69
624.317	46.51
624.508	46.54
624.698	46.3
624.889	46.58
625.08	46.73
625.271	46.35
625.462	46.45
625.653	46.19
625.844	46.38
626.034	46.49
626.225	46.7
626.416	46.41
626.607	46.13
626.798	46.04
626.988	46.06
627.179	46.05
627.37	46.46
627.56	46.22
627.751	46.31
627.942	46.21
628.132	46.21
628.323	45.99
628.514	46.28
628.704	46.08
628.895	46.1
629.085	45.79
629.276	45.93
629.466	45.42
629.657	45.8
629.847	45.55
630.038	44.92
630.228	44.86
630.419	44.57
630.609	44.22
630.8	44.44
630.99	44.25
631.181	44.15
631.371	44.11
631.561	44.35
631.752	44.23
631.942	44.48
632.132	44.5
632.323	44.34
632.513	44.32
632.703	44.63
632.893	44.46
633.084	44.41
633.274	44.15
633.464	43.87
633.654	43.64
633.844	43.52
634.034	43.25
634.225	43.3
634.415	43.14
634.605	42.97
634.795	42.65
634.985	42.93
635.175	43.01
635.365	43.36
635.555	43.32
635.745	43.38
635.935	42.95
636.125	42.96
636.315	43.47
636.505	43.7
636.695	44.06
636.885	44.39
637.075	43.92
637.265	43.91
637.455	43.71
637.644	43.65
637.834	43.38
638.024	43.46
638.214	43.71
638.404	43.06
638.593	42.73
638.783	42.41
638.973	42.13
639.163	42.44
639.352	42.41
639.542	42.12
639.732	42.19
639.921	42.46
640.111	42.96
640.301	42.73
640.49	42.58
640.68	42.94
640.87	43.32
641.059	43.32
641.249	43.1
641.438	43.21
641.628	43.44
641.817	43.23
642.007	43.21
642.196	43.03
642.386	43.02
642.575	43.08
642.764	42.73
642.954	42.32
643.143	42.48
643.333	42.41
643.522	42.52
643.711	42.5
643.901	42.53
644.09	42.25
644.279	42.41
644.469	42.14
644.658	42.52
644.847	42.21
645.036	42.2
645.226	41.79
645.415	41.64
645.604	41.39
645.793	41.2
645.982	41.22
646.171	41.62
646.361	41.25
646.55	41.51
646.739	41.19
646.928	41.6
647.117	41.49
647.306	41.38
647.495	41.5
647.684	41.22
647.873	40.88
648.062	40.87
648.251	40.52
648.44	40.28
648.629	40.49
648.818	40.41
649.007	40.2
649.196	40.31
649.384	40.53
649.573	40.18
649.762	40
649.951	40.56
650.14	40.38
650.328	40.47
650.517	40.49
650.706	39.86
650.895	39.68
651.083	39.97
651.272	39.67
651.461	38.93
651.65	39.15
651.838	39.37
652.027	39.63
652.216	39.68
652.404	39.99
652.593	40.16
652.781	40.36
652.97	40.6
653.158	40.43
653.347	40.85
653.535	41.53
653.724	41.57
653.912	41.81
654.101	41.61
654.289	41.74
654.478	41.35
654.666	41.25
654.855	40.9
655.043	40.38
655.231	39.95
655.42	39.54
655.608	39.74
655.796	39.87
655.985	39.74
656.173	39.63
656.361	39.21
656.55	39.09
656.738	39.06
656.926	39.28
657.114	39.41
657.302	39.34
657.491	39.58
657.679	38.8
657.867	38.41
658.055	37.96
658.243	37.75
658.431	38.12
658.619	38.54
658.807	38.31
658.996	38.26
659.184	38.39
659.372	38.74
659.56	38.56
659.748	38.62
659.936	38.67
660.124	38.67
660.311	39.08
660.499	38.8
660.687	38.38
660.875	38.54
661.063	38.48
661.251	38.1
661.439	37.98
661.627	37.86
661.814	38.26
662.002	38.07
662.19	37.9
662.378	37.74
662.565	37.67
662.753	37.41
662.941	36.76
663.129	36.58
663.316	37.23
663.504	37.1
663.692	37.08
663.879	37.03
664.067	36.91
664.254	37.29
664.442	37.23
664.63	37.19
664.817	37.24
665.005	37.76
665.192	37.8
665.38	37.5
665.567	37.32
665.755	37.2
665.942	36.72
666.13	36.86
666.317	36.81
666.504	36.27
666.692	36.42
666.879	36.95
667.067	36.94
667.254	37.17
667.441	37.36
667.629	37.3
667.816	37.51
668.003	37.56
668.19	37.71
668.378	37.56
668.565	37.9
668.752	38.36
668.939	37.84
669.127	37.57
669.314	37.08
669.501	36.73
669.688	36.4
669.875	36.52
670.062	36.28
670.249	36.64
670.436	36.61
670.623	36.83
670.81	36.32
670.997	36.37
671.184	36.45
671.371	36.96
671.558	36.86
671.745	37.71
671.932	37.58
672.119	38.35
672.306	38.17
672.493	38.72
672.68	38.16
672.867	38.41
673.054	38.31
673.24	38.3
673.427	38.61
673.614	38.57
673.801	38.2
673.988	38.06
674.174	37.67
674.361	37.67
674.548	36.82
674.734	37.41
674.921	37.23
675.108	36.91
675.294	37.09
675.481	36.69
675.668	37.05
675.854	36.96
676.041	36.94
676.227	36.38
676.414	36.01
676.601	36.21
676.787	35.71
676.974	35.61
677.16	36.16
677.347	36.39
677.533	36.09
677.719	36.27
677.906	36.15
678.092	36.28
678.279	36.63
678.465	36.99
678.651	37.25
678.838	37.64
679.024	38.07
679.21	37.87
679.397	37.41
679.583	37.5
679.769	37.35
679.955	37.26
680.142	37.19
680.328	37.23
680.514	36.68
680.7	36.75
680.886	36.44
681.073	35.97
681.259	35.77
681.445	35.83
681.631	35.99
681.817	35.94
682.003	36.15
682.189	36.11
682.375	36.11
682.561	36.53
682.747	36.23
682.933	36
683.119	36.18
683.305	36.29
683.491	36.61
683.677	36.08
683.863	35.71
684.049	35.74
684.235	36.12
684.42	36.4
684.606	36.15
684.792	36.75
684.978	36.85
685.164	36.96
685.349	36.98
685.535	36.13
685.721	36.49
685.907	36.57
686.092	36.36
686.278	35.33
686.464	34.94
686.649	35.3
686.835	34.91
687.021	34.34
687.206	34.05
687.392	34.18
687.577	34.53
687.763	34.6
687.948	34.58
688.134	34.48
688.319	34.7
688.505	34.69
688.69	34.13
688.876	34.36
689.061	35.29
689.247	34.69
689.432	34.86
689.618	34.68
689.803	34.75
689.988	34.92
690.174	35.03
690.359	34.85
690.544	34.57
690.73	34.57
690.915	34.19
691.1	33.74
691.285	33.93
691.471	33.46
691.656	33.97
691.841	33.43
692.026	33.44
692.211	32.77
692.396	33.06
692.582	33.3
692.767	33.2
692.952	32.96
693.137	33.01
693.322	33.35
693.507	33.66
693.692	33.35
693.877	33.05
694.062	32.92
694.247	33.54
694.432	33.72
694.617	33.96
694.802	34.1
694.987	33.77
695.172	33.92
695.357	34.14
695.541	34.15
695.726	34.13
695.911	35.04
696.096	35.35
696.281	35.55
696.466	35.48
696.65	35.37
696.835	35.26
697.02	35.66
697.204	35.84
697.389	35.24
697.574	34.87
697.759	35.06
697.943	34.91
698.128	34.39
698.312	33.98
698.497	34.24
698.682	34.21
698.866	34.23
699.051	34.05
699.235	33.66
699.42	33.69
699.604	33.33
699.789	32.96
699.973	32.77
700.158	32.99
700.342	33.07
700.527	32.24
700.711	32.17
700.895	31.94
701.08	31.85
701.264	31.57
701.448	31.76
701.633	32.41
701.817	32.12
702.001	32.1
702.186	32.06
702.37	32.11
702.554	32.43
702.738	32.72
702.923	32.69
703.107	32.82
703.291	32.63
703.475	32.46
703.659	31.93
703.843	32.41
704.027	32.22
704.212	31.8
704.396	31.41
704.58	31.59
704.764	31.44
704.948	32.03
705.132	32.56
705.316	32.8
705.5	32.97
705.684	33.69
705.868	33.92
706.052	34.15
706.235	33.8
706.419	33.75
706.603	33.54
706.787	33.29
706.971	33.11
707.155	32.31
707.339	32.78
707.522	33.18
707.706	33.06
707.89	33.16
708.074	33.15
708.257	33.9
708.441	34.24
708.625	34.6
708.808	35.22
708.992	35.26
709.176	35.43
709.359	34.71
709.543	34.29
709.727	34.3
709.91	34.31
710.094	34.17
710.277	33.97
710.461	33.36
710.644	33.32
710.828	32.39
711.011	32.45
711.195	33.1
711.378	33.83
711.562	33.42
711.745	33.31
711.928	32.76
712.112	33.28
712.295	33.43
712.478	34.24
712.662	33.47
712.845	33.71
713.028	33.93
713.212	33.21
713.395	33.23
713.578	33.08
713.761	32.81
713.945	32.99
714.128	32.17
714.311	31.98
714.494	32.19
714.677	33.03
714.86	32.95
715.043	32.28
715.227	32.41
715.41	31.54
715.593	32.17
715.776	32.52
715.959	32.68
716.142	32.73
716.325	32.69
716.508	31.83
716.691	31.56
716.874	31.42
717.057	31.47
717.239	31.59
717.422	31.83
717.605	31.54
717.788	31.74
717.971	31.19
718.154	30.85
718.337	30.96
718.519	31.32
718.702	31.32
718.885	31.15
719.068	31.65
719.25	31.54
719.433	31.08
719.616	31.09
719.798	29.65
719.981	30.54
720.164	30.82
720.346	30.91
720.529	30.21
720.712	29.88
720.894	30.54
721.077	30.65
721.259	29.85
721.442	31.51
721.624	31.48
721.807	32.32
721.989	31.5
722.172	32.05
722.354	31.72
722.537	31.71
722.719	31.8
722.901	31.27
723.084	30.58
723.266	31.01
723.448	29.35
723.631	28.86
723.813	28.17
723.995	28.35
724.178	28.69
724.36	29.01
724.542	30.64
724.724	30.85
724.907	32
725.089	32.14
725.271	32.09
725.453	32.98
725.635	33.15
725.817	33.18
725.999	32.88
726.181	31.99
726.364	31.08
726.546	29.4
726.728	28.88
726.91	27.77
727.092	27.14
727.274	26.58
727.456	25.89
727.638	25.79
727.819	26.02
728.001	26.72
728.183	26.96
728.365	27.15
728.547	28.19
728.729	28.75
728.911	27.93
729.093	28.38
729.274	28.79
729.456	29
729.638	28.98
729.82	29.64
730.001	29.97
730.183	29.52
730.365	29.74
730.546	29.31
730.728	29.3
730.91	29.55
731.091	29.49
731.273	29.9
731.455	30.48
731.636	30.3
731.818	29.68
731.999	28.77
732.181	28.32
732.362	28.32
732.544	29.1
732.725	28.82
732.907	28.89
733.088	28.74
733.27	28.24
733.451	27.45
733.633	27.91
733.814	27.56
733.995	28.34
734.177	29.42
734.358	29.49
734.539	28.58
734.721	28.35
734.902	29.06
735.083	29.43
735.264	29.91
735.446	29.71
735.627	29.4
735.808	29.6
735.989	28.64
736.17	28.69
736.351	29.23
736.533	29.64
736.714	30.76
736.895	31.08
737.076	29.99
737.257	29.81
737.438	29.29
737.619	28.95
737.8	28.71
737.981	28.99
738.162	28.74
738.343	28.13
738.524	28.06
738.705	26.32
738.886	24.95
739.067	25.26
739.247	25.5
739.428	24.92
739.609	26.25
739.79	27.14
739.971	27.48
740.151	26.78
740.332	25.89
740.513	25.47
740.694	26.47
740.874	27.55
741.055	29.98
741.236	29.3
741.417	30.26
741.597	29.87
741.778	29.66
741.958	29.77
742.139	30.86
742.32	31.52
742.5	31.59
742.681	31.35
742.861	32.19
743.042	30.57
743.222	30.15
743.403	30.28
743.583	29.28
743.764	28.66
743.944	27.92
744.124	27.38
744.305	27.95
744.485	28.17
744.666	28.13
744.846	26.23
745.026	26.44
745.207	26.78
745.387	27.77
745.567	29.31
745.747	29.58
745.928	29.77
746.108	30.07
746.288	30.03
746.468	30.25
746.648	30.73
746.829	31
747.009	30.63
747.189	30.92
747.369	30.38
747.549	28.45
747.729	28.78
747.909	29.28
748.089	29.01
748.269	27.92
748.449	27.91
748.629	27.33
748.809	28.39
748.989	27.62
749.169	27.52
749.349	27.36
749.529	28.27
749.709	29.39
749.889	28.41
750.068	28.27
750.248	29.91
750.428	29.13
750.608	30.4
750.788	29.75
750.967	29.89
751.147	29.3
751.327	29.39
751.507	29.38
751.686	27.93
751.866	26.79
752.046	26.3
752.225	26.22
752.405	27.36
752.585	25.06
752.764	24.14
752.944	23.94
753.123	24.75
753.303	25.03
753.482	25.11
753.662	25.25
753.841	26.38
754.021	27.11
754.2	26.43
754.38	25.54
754.559	26.78
754.739	27.55
754.918	29.16
755.097	28.86
755.277	29.02
755.456	29.17
755.635	28.67
755.815	29.76
755.994	28.9
756.173	28.31
756.352	27.97
756.532	27.85
756.711	28.27
756.89	27.19
757.069	27.27
757.248	26.66
757.427	26.43
757.607	27.23
757.786	26.95
757.965	27.55
758.144	28.68
758.323	29.74
758.502	29.4
758.681	27.91
758.86	27.07
759.039	27.96
759.218	27.15
759.397	26.04
759.576	25.42
759.755	25.29
759.934	25.35
760.113	24.01
760.291	23.58
760.47	23.95
760.649	25.01
760.828	26.14
761.007	25.73
761.186	26.21
761.364	27.01
761.543	27.02
761.722	27.54
761.901	26.98
762.079	28.82
762.258	28.82
762.437	29.33
762.615	29.47
762.794	28.27
762.972	27.92
763.151	28.36
763.33	28.01
763.508	28.58
763.687	28.28
763.865	28.12
764.044	27.08
764.222	26.9
764.401	26.24
764.579	26.12
764.758	26.38
764.936	26.17
765.114	25.78
765.293	26.12
765.471	26.02
765.65	25.37
765.828	26.19
766.006	26.83
766.184	26.52
766.363	27.23
766.541	28.08
766.719	29.33
766.898	29.77
767.076	29.48
767.254	29.43
767.432	29.26
767.61	28.87
767.788	27.39
767.967	26.11
768.145	25.49
768.323	25.29
768.501	23.19
768.679	22.1
768.857	22.1
769.035	22.4
769.213	22.61
769.391	21.94
769.569	22.91
769.747	23.24
769.925	23.8
770.103	24.17
770.281	23.39
770.459	23.64
770.636	22.3
770.814	20.38
770.992	20.9
771.17	19.39
771.348	18.57
771.525	17.76
771.703	18.09
771.881	18.01
772.059	19.23
772.236	18.91
772.414	20.26
772.592	20.8
772.769	21.95
772.947	22.34
773.125	22.46
773.302	24.24
773.48	26.84
773.657	28.71
773.835	29.4
774.013	28.33
774.19	27.81
774.368	28.64
774.545	29.57
774.723	30.73
774.9	31.23
775.077	31.57
775.255	30.65
775.432	27.46
775.61	26.64
775.787	27.23
775.964	28.26
776.142	28.64
776.319	27.56
776.496	26.27
776.674	25.36
776.851	24.58
777.028	25.96
777.205	27.11
777.382	26.95
777.56	27.14
777.737	25.74
777.914	24.7
778.091	24.23
778.268	24.45
778.445	24.71
778.622	24.46
778.8	23.52
778.977	22.72
779.154	22.84
779.331	23.06
779.508	22.82
779.685	23.41
779.862	24.89
780.038	25.27
780.215	24.8
780.392	25.38
780.569	27.69
780.746	28.43
780.923	28.42
781.1	26.99
781.277	27.61
781.453	25.9
781.63	25.47
781.807	24.39
781.984	24.91
782.16	22.82
782.337	22.21
782.514	20.4
782.691	19.33
782.867	20.84
783.044	20.8
783.221	19.36
783.397	21.58
783.574	22.24
783.75	21.78
783.927	22.91
784.103	25.96
784.28	27.39
784.456	27.32
784.633	27.99
784.809	26.84
784.986	27.52
785.162	28.83
785.339	29.47
785.515	29.7
785.692	30.2
785.868	29.49
786.044	29.4
786.221	29.75
786.397	30.1
786.573	29.83
786.749	27.44
786.926	25.4
787.102	24.3
787.278	20.7
787.454	20.12
787.631	20.32
787.807	20.84
787.983	19.73
788.159	18.96
788.335	17.31
788.511	18.2
788.687	20.27
788.863	21.25
789.039	23.04
789.216	24.36
789.392	25.46
789.568	26.34
789.744	23.82
789.919	24.38
790.095	24.16
790.271	23.09
790.447	22.85
790.623	22.39
790.799	21.59
790.975	21
791.151	20.4
791.327	18.75
791.502	17.65
791.678	17.86
791.854	18.09
792.03	17.53
792.205	19.58
792.381	19.3
792.557	20.34
792.733	21.33
792.908	19.56
793.084	19.82
793.259	19.68
793.435	18.4
793.611	21.24
793.786	19.36
793.962	21.41
794.137	20.24
794.313	20.08
794.488	19.2
794.664	20.72
794.839	20.25
795.015	19.62
795.19	21.65
795.366	21.61
795.541	21.5
795.716	25.61
795.892	24.41
796.067	27.07
796.242	26.31
796.418	27.22
796.593	26.02
796.768	27.36
796.944	27.3
797.119	25.92
797.294	24.92
797.469	23.46
797.644	21.84
797.82	19.87
797.995	20.61
798.17	18.92
798.345	18.82
798.52	20.98
798.695	20.65
798.87	21.02
799.045	23.15
799.22	25.32
799.395	26.93
799.57	25.59
799.745	27.49
799.92	26.71
800.095	27.78
800.27	27.1
800.445	25.47
800.62	25.06
800.795	24.78
800.97	23.58
801.145	23.8
801.319	23.7
801.494	21.53
801.669	21.46
801.844	20.22
802.018	22.32
802.193	20.25
802.368	22.21
802.543	22.82
802.717	23.61
802.892	20.64
803.067	17.09
803.241	14.95
803.416	15.77
803.59	14.21
803.765	14.41
803.94	12.16
804.114	14.02
804.289	11.09
804.463	11.2
804.638	11.57
804.812	11.3
804.986	13.29
805.161	14.16
805.335	15.78
805.51	18.06
805.684	19.08
805.858	20.85
806.033	20.75
806.207	21.13
806.381	22.44
806.556	21.51
806.73	24.29
806.904	24.36
807.078	20.73
807.253	19.34
807.427	17.92
807.601	18.98
807.775	19.2
807.949	17.61
808.123	18.71
808.298	17.69
808.472	17.85
808.646	17.48
808.82	17.37
808.994	18.45
809.168	20.48
809.342	22.16
809.516	19.64
809.69	17.26
809.864	18.12
810.038	16.73
810.212	16.52
810.385	15.72
810.559	14.41
810.733	17.46
810.907	19.35
811.081	18.73
811.255	17.54
811.428	16.99
811.602	18.36
811.776	15.62
811.95	14.82
812.123	14.43
812.297	15.39
812.471	14.48
812.644	13.12
812.818	14.51
812.992	14.51
813.165	15.1
813.339	12.64
813.512	11.45
813.686	14.35
813.86	17.86
814.033	20.62
814.207	22.86
814.38	26.73
814.554	25.2
814.727	21.74
814.9	21.65
815.074	19.17
815.247	22.04
815.421	23.26
815.594	26.85
815.767	25.18
815.941	23.75
816.114	20.72
816.287	18.28
816.46	20.05
816.634	26.22
816.807	28.16
816.98	26.32
817.153	23.27
817.327	21.17
817.5	22.09
817.673	23.55
817.846	23.83
818.019	25.58
818.192	24.5
818.365	21.63
818.538	21.24
818.711	18.45
818.884	21.06
819.057	25.09
819.23	26.19
819.403	22.8
819.576	20.77
819.749	18.68
819.922	16.52
820.095	18.45
820.268	19.45
820.441	19.21
820.614	18.33
820.786	20.89
820.959	18.33
821.132	18.78
821.305	19.35
821.477	19.6
821.65	21.08
821.823	21.71
821.996	21.38
822.168	21.42
822.341	21.53
822.514	22.38
822.686	22.01
822.859	23.08
823.031	23.3
823.204	23
823.376	23.3
823.549	23.3
823.722	23.63
823.894	23.56
824.067	23.67
824.239	24.11
824.411	23.4
824.584	23.53
824.756	23.37
824.929	22.55
825.101	22.95
825.273	23.06
825.446	23
825.618	22.56
825.79	22.36
825.963	22.64
826.135	22.07
826.307	22.36
826.479	21.23
826.652	21.15
826.824	22.5
826.996	22.72
827.168	22.65
827.34	22.75
827.512	23.48
827.684	24.46
827.856	24.2
828.029	23.4
828.201	24.46
828.373	24.84
828.545	24.86
828.717	24.86
828.889	23.31
829.061	23.03
829.232	21.69
829.404	20.28
829.576	17.84
829.748	15.75
829.92	15.6
830.092	16.13
830.264	15.8
830.436	15.39
830.607	15.78
830.779	16.71
830.951	15.33
831.123	17.31
831.294	17.92
831.466	22.71
831.638	29.11
831.809	30.19
831.981	29.25
832.153	28.02
832.324	26.83
832.496	24.8
832.667	29.24
832.839	29.44
833.011	27.53
833.182	28.65
833.354	25.19
833.525	21.98
833.697	21.24
833.868	21.3
834.039	23.26
834.211	22.34
834.382	22.82
834.554	18.49
834.725	18.81
834.896	18.95
835.068	18.47
835.239	19.42
835.41	17.95
835.581	19.1
835.753	17.24
835.924	16.03
836.095	19.02
836.266	18.37
836.438	19.44
836.609	19.87
836.78	20.45
836.951	19.56
837.122	16.79
837.293	16.05
837.464	14.14
837.635	17.14
837.806	16.94
837.977	14.94
838.148	17.23
838.319	17.52
838.49	15.96
838.661	12.82
838.832	17.54
839.003	17.17
839.174	17.14
839.345	17.33
839.516	15.65
839.687	18.79
839.857	18.38
840.028	13.71
840.199	12.04
840.37	16.98
840.54	21.49
840.711	14.36
840.882	18.58
841.053	21.47
841.223	23.72
841.394	17.5
841.564	15.57
841.735	11.71
841.906	12.82
842.076	13.37
842.247	2.98
842.417	-1.62
842.588	-1.77
842.758	-3.15
842.929	-7.51
843.099	-12.56
843.27	-8.12
843.44	-6.39
843.611	-2.4
843.781	-3.88
843.951	-6.04
844.122	8.06
844.292	11.69
844.462	10.18
844.633	5.94
844.803	9.93
844.973	11.9
845.144	6.38
845.314	-2.96
845.484	-0.74
845.654	-1.53
845.824	7.9
845.995	0.59
846.165	-12.36
846.335	-7.31
846.505	1.75
846.675	5.84
846.845	-0.11
847.015	4.85
847.185	3.89
847.355	1.42
847.525	0.03
847.695	-13.91
847.865	-8.11
848.035	-3.05
848.205	-8.22
848.375	-19.31
848.545	-24.82
848.715	-22.32
848.884	-17.89
849.054	-19.88
849.224	-23.42
849.394	-24.59
849.564	-14.82
849.733	-20.23
849.903	-17.31
850.073	-4.23
850.243	-4.74
850.412	-9.93
850.582	-9.38
850.752	-9.28
850.921	-0.52
851.091	1.25
851.26	-6.01
851.43	-11.86
851.599	-7.19
851.769	-11.8
851.939	-18.89
852.108	-29.87
852.278	-34.7
852.447	-31.47
852.616	-39.48
852.786	-45.75
852.955	-31.13
853.125	-18.77
853.294	-21.53
853.463	-24.76
853.633	-31.21
853.802	-30.57
853.971	-20.28
854.141	-17.95
854.31	-26.15
854.479	-27.41
854.648	-19.78
854.818	-27.69
854.987	-43.45
855.156	-27.83
855.325	-33.41
855.494	-7.68
855.663	-1.12
855.832	-1.04
856.001	10.1
856.171	15.2
856.34	18.15
856.509	22.46
856.678	18.88
856.847	29.85
857.016	22.56
857.185	22.06
857.353	17.28
857.522	9.32
857.691	10.94
857.86	3.32
858.029	-1.03
858.198	1.23
858.367	-4.63
858.535	-4.9
858.704	-0.1
858.873	-15.53
859.042	-2.31
859.21	-11.58
859.379	-1.22
859.548	10.71
859.717	4.21
859.885	7.73
860.054	6.58
860.222	3.35
860.391	4.33
860.56	7.69
860.728	18.03
860.897	12.1
861.065	17.69
861.234	10.94
861.402	19.21
861.571	16.38
861.739	15.58
861.908	17.71
862.076	20.19
862.244	21.32
862.413	15.22
862.581	7.14
862.749	4.1
862.918	7.67
863.086	11.32
863.254	-2.39
863.423	-0.31
863.591	-3.95
863.759	-12.12
863.927	-19.65
864.096	-20.51
864.264	-17.11
864.432	-12.29
864.6	-5.05
864.768	-12.73
864.936	-17.3
865.104	-23.23
865.272	-26.83
865.44	-13.69
865.608	-14.19
865.776	-16.85
865.944	-26.41
866.112	-34.58
866.28	-31.13
866.448	-33.94
866.616	-29.43
866.784	-29.8
866.952	-34.08
867.12	-16.78
867.288	-30.29
867.455	-32.06
867.623	-34.13
867.791	-27.18
867.959	-21.96
868.127	-34.61
868.294	-31.9
868.462	-44.36
868.63	-59.72
868.797	-29.63
868.965	-39.49
869.133	-22.64
869.3	-6.63
869.468	-12.04
869.636	-13.14
869.803	-17.54
869.971	-8.7
870.138	-4.63
870.306	-4.72
870.473	-0.55
870.641	6.12
870.808	1.72
870.975	-32.62
871.143	-69.36
871.31	-33.17
871.478	-19.57
871.645	-4.71
871.812	-20.48
871.98	-16.63
872.147	-10.47
872.314	-10.22
872.482	-14.82
872.649	-12.75
872.816	1.3
872.983	5.5
873.15	2.76
873.318	10.42
873.485	-3.23
873.652	13.69
873.819	7.45
873.986	21.7
874.153	23.75
874.32	21.11
874.487	13.33
874.654	14.38
874.821	20.93
874.988	17.9
875.155	13.74
875.322	11.69
875.489	10.68
875.656	11.74
875.823	-2.96
875.99	-12.25
876.157	-28.7
876.324	-4.77
876.49	-12.49
876.657	-13.41
876.824	-6.05
876.991	-8.63
877.157	-2.41
877.324	-13.23
877.491	-22.35
877.658	-14.69
877.824	2.33
877.991	15.9
878.157	2.19
878.324	0.28
878.491	-0.22
878.657	0.26
878.824	-4.04
878.99	-8.76
879.157	-1.96
879.323	0.64
879.49	-0.17
879.656	-12.34
879.823	-11.63
879.989	-6.2
880.156	1.08
880.322	-5.61
880.488	-7.61
880.655	-1.41
880.821	5.54
880.987	4.79
881.154	10.62
881.32	4.27
881.486	7.73
881.652	5.22
881.819	7.32
881.985	10.41
882.151	12.78
882.317	14.88
882.483	12.02
882.649	14.4
882.816	16.85
882.982	15.79
883.148	18.1
883.314	19.86
883.48	19.35
883.646	19.09
883.812	18.76
883.978	19.56
884.144	19.23
884.31	19.62
884.476	18.09
884.642	18.45
884.807	19.41
884.973	18.33
885.139	17.65
885.305	17.81
885.471	18.27
885.637	18.14
885.802	18.07
885.968	16.55
886.134	17.31
886.3	16.13
886.465	12.71
886.631	11.55
886.797	12.15
886.962	9.14
887.128	12.5
887.293	13.79
887.459	9.2
887.625	11.9
887.79	9.61
887.956	10.48
888.121	13.46
888.287	16.98
888.452	17.46
888.618	19.67
888.783	22.59
