Data from CB_114_Reflection_3.txt Node
Date: Sat Nov 14 19:00:53 EST 2015
User: robert
Spectrometer: USB4E03001
Autoset integration time: false
Trigger mode: 4
Integration Time (sec): 1.000000E-1
Scans to average: 15
Electric dark correction enabled: true
Nonlinearity correction enabled: false
Boxcar width: 5
Stray light correction enabled: false
XAxis mode: Wavelengths
Stop averaging: false
Number of Pixels in Spectrum: 3648
>>>>>Begin Spectral Data<<<<<
177.566	111.43
177.785	99.55
178.005	106.83
178.225	122.29
178.445	151.34
178.665	167.24
178.885	107.92
179.105	102.23
179.324	99.66
179.544	8043.86
179.764	160.7
179.984	169.56
180.204	168.64
180.423	184.5
180.643	200.31
180.863	170.14
181.083	255.74
181.302	222.21
181.522	1021.39
181.742	948.35
181.961	166.57
182.181	372.72
182.401	149.03
182.621	145.33
182.84	216.84
183.06	199.31
183.279	-956.74
183.499	-287.65
183.719	-43
183.938	-174.91
184.158	-141.02
184.377	-180.46
184.597	-40.07
184.816	-44.76
185.036	-12.29
185.256	-9.68
185.475	-0.27
185.695	18.72
185.914	-12.85
186.134	-38.65
186.353	35.03
186.572	30.82
186.792	47.64
187.011	-2.27
187.231	-42.81
187.45	-65.52
187.67	-93.7
187.889	-47.48
188.108	-203.31
188.328	-131.92
188.547	3.43
188.766	-268.23
188.986	459.47
189.205	170.12
189.424	117.98
189.644	170.65
189.863	142.75
190.082	153.21
190.302	151.5
190.521	186.91
190.74	104.7
190.959	153.01
191.178	93.08
191.398	92.74
191.617	28.79
191.836	44.04
192.055	75.79
192.274	21.71
192.494	15.92
192.713	689.87
192.932	-294.19
193.151	99.03
193.37	158.47
193.589	23.47
193.808	4.85
194.027	-16.81
194.246	5.54
194.465	44.56
194.685	-3.8
194.904	-52.5
195.123	-55.84
195.342	-2.24
195.561	19.77
195.78	-29.73
195.999	57.05
196.218	152.6
196.436	51.35
196.655	75.71
196.874	290.78
197.093	235.96
197.312	5423.33
197.531	-72.87
197.75	7.11
197.969	-7.45
198.188	-53.21
198.407	-40.94
198.625	-74.75
198.844	-55.34
199.063	-66.79
199.282	-24.43
199.501	-26.11
199.719	191.57
199.938	-67.75
200.157	51.04
200.376	58.72
200.594	26.62
200.813	-12.7
201.032	-1.09
201.251	22.12
201.469	-4.71
201.688	12.9
201.907	12.94
202.125	59.97
202.344	54.38
202.563	48.93
202.781	46.65
203	75.24
203.218	146.12
203.437	161.74
203.656	235.86
203.874	549.37
204.093	460.57
204.311	-148.97
204.53	-56.48
204.748	-9.86
204.967	1.43
205.185	17.08
205.404	49.37
205.622	101.73
205.841	102.43
206.059	111.67
206.278	-20.48
206.496	38.18
206.715	69.35
206.933	32.12
207.151	15.76
207.37	-7.53
207.588	-51.51
207.806	-32.01
208.025	42.52
208.243	115.35
208.461	12.13
208.68	257.43
208.898	-248.47
209.116	-697.39
209.335	201.04
209.553	269.57
209.771	123.14
209.989	161.24
210.208	75.82
210.426	20.83
210.644	-10.81
210.862	-4.7
211.081	-58.8
211.299	-72.94
211.517	-165.75
211.735	93.89
211.953	208.11
212.171	50
212.39	42.28
212.608	105.89
212.826	105.49
213.044	-106.33
213.262	4304.55
213.48	-112.03
213.698	-226.72
213.916	69.72
214.134	24.42
214.352	-53.6
214.57	-50.06
214.788	-176.96
215.006	-458.05
215.224	1227.54
215.442	-119.54
215.66	-274.72
215.878	888.16
216.096	157.65
216.314	127.87
216.532	71.75
216.75	24.41
216.968	10.13
217.185	-7.23
217.403	-59.74
217.621	-16.08
217.839	-39.27
218.057	-46.93
218.275	-346.51
218.492	907.01
218.71	1160.06
218.928	-3707.95
219.146	-340.71
219.363	-147.44
219.581	-48.02
219.799	-56.94
220.017	-93.3
220.234	-42.56
220.452	-58.08
220.67	-75.45
220.887	-248.12
221.105	-119.36
221.323	-343.23
221.54	-141.57
221.758	-360.65
221.976	688.94
222.193	334.06
222.411	213.89
222.629	-2313.64
222.846	-903.9
223.064	751.32
223.281	-12.23
223.499	222.75
223.716	11.41
223.934	109.26
224.151	987.92
224.369	-208.25
224.586	-94.24
224.804	-58.38
225.021	-48.72
225.239	-92.24
225.456	-132.86
225.674	-84.4
225.891	-84
226.108	-117.34
226.326	-50.12
226.543	-20.23
226.76	-1.94
226.978	8.84
227.195	14.13
227.413	10.08
227.63	21.48
227.847	21.36
228.064	19.6
228.282	24.94
228.499	22.82
228.716	17.88
228.934	16.44
229.151	14.23
229.368	8.73
229.585	9.77
229.802	10.27
230.02	5.95
230.237	6.31
230.454	6.59
230.671	6.91
230.888	10.59
231.105	14.3
231.323	13.67
231.54	13.76
231.757	20.48
231.974	15.76
232.191	14.34
232.408	19.61
232.625	17.09
232.842	19.54
233.059	11.76
233.276	4.38
233.493	4.32
233.71	10.32
233.927	1.05
234.144	-6.83
234.361	-2.75
234.578	-7.04
234.795	-8.37
235.012	-3.02
235.229	-4.33
235.446	-4.74
235.663	-2.08
235.879	-6.81
236.096	-15.55
236.313	-9.65
236.53	-6.74
236.747	-7.31
236.964	-2.25
237.181	-4.62
237.397	-5.15
237.614	-9.14
237.831	-10.99
238.048	-11.72
238.264	-11.49
238.481	-4.47
238.698	-0.24
238.915	6.78
239.131	12.18
239.348	8.29
239.565	14.92
239.781	12.74
239.998	15.19
240.215	15.99
240.431	16.27
240.648	16.84
240.865	14.69
241.081	14.65
241.298	11.49
241.514	7.76
241.731	8.98
241.947	7.29
242.164	6.58
242.38	5.78
242.597	5.87
242.814	5.79
243.03	6.64
243.246	5.89
243.463	5.23
243.679	5.87
243.896	7.22
244.112	7.36
244.329	6
244.545	8.15
244.762	9.8
244.978	7.8
245.194	8.87
245.411	10.05
245.627	10.05
245.843	11.66
246.06	11.48
246.276	11.19
246.492	10.43
246.709	10.42
246.925	10.62
247.141	10.5
247.357	12
247.574	11.79
247.79	10.49
248.006	10.36
248.222	10.52
248.439	9.35
248.655	9.28
248.871	9.9
249.087	10.46
249.303	9.56
249.519	9.38
249.736	6.45
249.952	6.47
250.168	7.15
250.384	8.13
250.6	7.35
250.816	8.05
251.032	7.94
251.248	5.78
251.464	6.49
251.68	8.18
251.896	8.37
252.112	10.01
252.328	8.74
252.544	8.03
252.76	6.5
252.976	6.71
253.192	7.28
253.408	7.12
253.624	6.55
253.84	5.19
254.056	4.42
254.272	3.24
254.487	0.95
254.703	-1.07
254.919	1.85
255.135	2
255.351	-0.83
255.567	0.33
255.782	0.53
255.998	2.5
256.214	2.36
256.43	3
256.646	2.99
256.861	6.77
257.077	12.82
257.293	10.72
257.508	8.6
257.724	7.74
257.94	6.88
258.155	7.24
258.371	7.99
258.587	7.6
258.802	5.58
259.018	4.56
259.234	5.19
259.449	4.05
259.665	4.85
259.88	6.49
260.096	7.27
260.312	7.61
260.527	7.06
260.743	6.93
260.958	7.09
261.174	7.64
261.389	8.39
261.605	7.66
261.82	7.25
262.036	7.3
262.251	7.66
262.466	7.71
262.682	6.03
262.897	6.75
263.113	7.9
263.328	8.7
263.543	11.07
263.759	11.03
263.974	11.82
264.189	11.7
264.405	11.65
264.62	9.18
264.835	7.26
265.051	9.49
265.266	7.49
265.481	6.06
265.696	7.02
265.912	4.74
266.127	6.22
266.342	3.55
266.557	2.6
266.773	2.54
266.988	2.86
267.203	4.22
267.418	5.66
267.633	6.35
267.848	6.97
268.064	6.46
268.279	6.37
268.494	6.04
268.709	6.36
268.924	7.17
269.139	7.18
269.354	6.89
269.569	7.67
269.784	6.64
269.999	7
270.214	6.79
270.429	7.08
270.644	7.02
270.859	6.1
271.074	6.13
271.289	7.71
271.504	7.84
271.719	8.17
271.934	6.61
272.149	5.57
272.363	6.33
272.578	6.28
272.793	4.99
273.008	5.02
273.223	6.28
273.438	6.46
273.653	5.78
273.867	5.07
274.082	4.6
274.297	4.12
274.512	4.75
274.726	3.74
274.941	2.84
275.156	4.56
275.371	5.68
275.585	3.69
275.8	3.81
276.015	2.13
276.229	2.7
276.444	3.41
276.659	5
276.873	5.38
277.088	4.7
277.302	4.91
277.517	2.74
277.732	2.3
277.946	1.76
278.161	3.8
278.375	4.75
278.59	4.82
278.804	3.74
279.019	2.53
279.233	2.32
279.448	2.97
279.662	4.48
279.877	6.72
280.091	6.75
280.306	6.8
280.52	5.7
280.735	5.03
280.949	5.97
281.163	7.29
281.378	9.02
281.592	7.4
281.806	8.01
282.021	6.96
282.235	5.92
282.449	4.53
282.664	6.37
282.878	4.6
283.092	6.48
283.307	5.47
283.521	5.01
283.735	3.95
283.949	4.6
284.164	4.27
284.378	3.57
284.592	3.66
284.806	3.84
285.02	3.19
285.234	5.51
285.449	4.94
285.663	5.33
285.877	4.57
286.091	4.81
286.305	5.08
286.519	5.67
286.733	6.45
286.947	7.03
287.161	7.16
287.375	6.25
287.589	5.91
287.803	6.34
288.017	5.83
288.231	6.32
288.445	7.53
288.659	8.12
288.873	7.27
289.087	7.2
289.301	6.33
289.515	7.76
289.729	8.29
289.943	7.3
290.157	7.01
290.371	6.45
290.584	7.64
290.798	6.54
291.012	5.75
291.226	6.17
291.44	6.02
291.654	6.37
291.867	5.72
292.081	5.55
292.295	7.35
292.509	7.19
292.722	8.74
292.936	6.94
293.15	7.79
293.364	6.55
293.577	6.79
293.791	4.96
294.005	5.6
294.218	6.18
294.432	6.72
294.645	7.14
294.859	7.25
295.073	6.11
295.286	7.49
295.5	7.09
295.713	8.45
295.927	8.33
296.14	9.61
296.354	8.68
296.568	7.77
296.781	8.49
296.994	7.28
297.208	6.72
297.421	7.56
297.635	7.27
297.848	6.79
298.062	7.08
298.275	7.05
298.489	7.97
298.702	8.46
298.915	8.87
299.129	7.43
299.342	7.84
299.555	7.36
299.769	6.89
299.982	7.32
300.195	7.55
300.409	6.64
300.622	6.32
300.835	5.07
301.048	5.81
301.262	5.54
301.475	6.62
301.688	6.78
301.901	7.57
302.115	7.84
302.328	7.21
302.541	6.43
302.754	6.9
302.967	7.12
303.18	8.02
303.393	6.88
303.607	6.86
303.82	7.05
304.033	5.96
304.246	5.99
304.459	6.22
304.672	5.96
304.885	7.39
305.098	7.86
305.311	7.67
305.524	6.31
305.737	6.31
305.95	6.83
306.163	6.32
306.376	6.84
306.589	7.65
306.802	6.95
307.015	7.65
307.228	6.46
307.44	6.38
307.653	5.71
307.866	6.1
308.079	5.6
308.292	5.76
308.505	6.1
308.718	4.82
308.93	5.05
309.143	4.73
309.356	5.01
309.569	5.43
309.781	5.22
309.994	6.84
310.207	8
310.42	8.59
310.632	7.75
310.845	7.44
311.058	8.1
311.27	8.03
311.483	8.76
311.696	8.01
311.908	7.43
312.121	6.9
312.333	6.31
312.546	4.95
312.759	5.32
312.971	6.99
313.184	7.07
313.396	7.74
313.609	7.21
313.821	6.74
314.034	6.65
314.246	6.59
314.459	7.36
314.671	7.48
314.884	7.75
315.096	7.35
315.309	6.57
315.521	6.07
315.733	6.45
315.946	5.85
316.158	5.97
316.371	6.63
316.583	7.99
316.795	8.95
317.008	7.63
317.22	7.59
317.432	7.84
317.644	8.65
317.857	9.77
318.069	8.78
318.281	9.63
318.494	9.84
318.706	10.94
318.918	11.76
319.13	11.02
319.342	12.05
319.555	12.45
319.767	11.9
319.979	10.38
320.191	11.54
320.403	11.52
320.615	12.37
320.827	12
321.039	11.63
321.252	10.62
321.464	11.51
321.676	12.09
321.888	13.15
322.1	13.94
322.312	14.97
322.524	13.25
322.736	13.56
322.948	12.38
323.16	12
323.372	12.11
323.584	12.12
323.796	11.71
324.007	10.49
324.219	9.93
324.431	9.96
324.643	8.79
324.855	9.5
325.067	9.39
325.279	10.57
325.491	10.54
325.702	10.66
325.914	10.96
326.126	10.44
326.338	10.55
326.55	10.47
326.761	9.78
326.973	10.67
327.185	10.37
327.396	11.86
327.608	12.01
327.82	13.15
328.032	12.07
328.243	12.35
328.455	13.24
328.666	14.4
328.878	15.78
329.09	16.96
329.301	16.16
329.513	16.87
329.725	17.03
329.936	16.37
330.148	17.56
330.359	19.38
330.571	20.22
330.782	20.8
330.994	21.9
331.205	20.7
331.417	20.76
331.628	22.22
331.84	21.86
332.051	20.85
332.262	22.26
332.474	20.7
332.685	20.25
332.897	19.5
333.108	18.54
333.319	17.57
333.531	16.81
333.742	15.89
333.953	15.5
334.165	16.75
334.376	17.06
334.587	14.98
334.799	15.3
335.01	14.63
335.221	14.68
335.432	15.5
335.644	14.87
335.855	16.03
336.066	17.07
336.277	18.44
336.488	18.61
336.7	18.25
336.911	19.37
337.122	19.72
337.333	19.58
337.544	19.73
337.755	19.09
337.966	19.69
338.177	20.2
338.388	19.82
338.599	19.06
338.811	18.68
339.022	19.4
339.233	19.49
339.444	19.8
339.655	19.83
339.866	19.48
340.076	19.6
340.287	20.39
340.498	19.76
340.709	18.9
340.92	19.73
341.131	19.51
341.342	19.16
341.553	18.63
341.764	18.64
341.975	19.96
342.185	20.32
342.396	21.06
342.607	20.11
342.818	20.49
343.029	20.98
343.239	21.27
343.45	21.69
343.661	22.03
343.872	22.03
344.082	21.44
344.293	20.41
344.504	20.45
344.714	19.35
344.925	19.57
345.136	19.48
345.346	20.25
345.557	18.99
345.768	18.13
345.978	17.7
346.189	17.37
346.399	17.94
346.61	18.29
346.821	18.5
347.031	19.05
347.242	19.39
347.452	19.58
347.663	19.14
347.873	18.93
348.084	18.72
348.294	18.85
348.504	19.18
348.715	18.33
348.925	17.41
349.136	16.69
349.346	16.82
349.557	17.67
349.767	17.35
349.977	17.86
350.188	18.96
350.398	19.43
350.608	19.86
350.819	19.9
351.029	20.11
351.239	20.9
351.449	20.97
351.66	21.36
351.87	20.42
352.08	19.69
352.29	18.92
352.501	17.92
352.711	18.2
352.921	17.18
353.131	18.12
353.341	18.39
353.552	18.42
353.762	18.75
353.972	18.28
354.182	18.93
354.392	19.6
354.602	19.85
354.812	19.01
355.022	19.03
355.232	19.73
355.442	18.86
355.652	18.84
355.862	18.76
356.072	18.87
356.282	18.49
356.492	17.08
356.702	17.3
356.912	18.23
357.122	18.6
357.332	18.22
357.542	17.93
357.752	18.22
357.962	18.22
358.171	18.96
358.381	18.83
358.591	18.65
358.801	18.75
359.011	18.49
359.221	18.51
359.43	19.16
359.64	19.22
359.85	18.75
360.06	18.33
360.269	17.96
360.479	17.28
360.689	17.69
360.899	17.77
361.108	18.33
361.318	18.36
361.528	16.92
361.737	16.57
361.947	16.45
362.156	17.04
362.366	17.58
362.576	17.69
362.785	17.77
362.995	17.82
363.204	18.15
363.414	18.06
363.623	18.22
363.833	19.08
364.042	19.26
364.252	19.06
364.461	18.48
364.671	17.9
364.88	17.67
365.09	17.69
365.299	17.34
365.509	17.13
365.718	17.58
365.927	17.56
366.137	17.24
366.346	17.79
366.555	18.52
366.765	18.11
366.974	17.84
367.183	18.22
367.393	17.65
367.602	17.32
367.811	17.09
368.021	16.3
368.23	16.4
368.439	16.22
368.648	15.75
368.857	15.24
369.067	15.87
369.276	16.97
369.485	16.65
369.694	16.46
369.903	16.83
370.112	16.93
370.321	17.57
370.531	17.26
370.74	17.51
370.949	17.31
371.158	17.43
371.367	17.74
371.576	16.62
371.785	16.6
371.994	16.86
372.203	15.93
372.412	15
372.621	14.52
372.83	13.95
373.039	14.4
373.248	14.54
373.457	14.28
373.666	13.52
373.874	13.98
374.083	14.06
374.292	14.67
374.501	15.38
374.71	16.64
374.919	16.61
375.128	16.85
375.336	16.25
375.545	15.92
375.754	15.76
375.963	16.04
376.171	16.35
376.38	16.33
376.589	15.83
376.798	16.12
377.006	15.77
377.215	15.54
377.424	15.15
377.632	15.14
377.841	15.19
378.05	15.12
378.258	15.46
378.467	14.69
378.675	14.62
378.884	14.38
379.093	14.26
379.301	14.51
379.51	14.92
379.718	15.44
379.927	16.07
380.135	15.81
380.344	16.29
380.552	15.97
380.761	16.43
380.969	16.54
381.177	16.69
381.386	15.78
381.594	15.69
381.803	15.69
382.011	15.44
382.219	15.01
382.428	15.24
382.636	15.32
382.845	15.18
383.053	15.09
383.261	14.66
383.469	14.88
383.678	15.46
383.886	15.71
384.094	15.3
384.302	15.11
384.511	14.71
384.719	14.61
384.927	14.37
385.135	14.52
385.343	14.53
385.552	14.5
385.76	14.63
385.968	14.56
386.176	13.81
386.384	14.16
386.592	14.27
386.8	14.15
387.008	14.07
387.216	13.88
387.424	13.81
387.633	13.65
387.841	13.59
388.049	13.28
388.257	13.09
388.465	13.44
388.672	13.37
388.88	13.35
389.088	13.39
389.296	13.26
389.504	12.81
389.712	12.99
389.92	12.77
390.128	13.04
390.336	13.06
390.544	13.37
390.751	13.47
390.959	13.32
391.167	13.16
391.375	13.14
391.583	13.43
391.79	13.68
391.998	13.73
392.206	14.34
392.414	14.21
392.621	14.11
392.829	14.27
393.037	14.13
393.244	14.33
393.452	14.62
393.66	14.67
393.867	14.76
394.075	15.06
394.283	14.52
394.49	14.14
394.698	14.07
394.905	14.07
395.113	13.98
395.32	13.84
395.528	13.71
395.735	13.57
395.943	13.39
396.15	13.22
396.358	13.11
396.565	13.33
396.773	13.31
396.98	13.58
397.188	13.67
397.395	13.44
397.602	13.83
397.81	13.75
398.017	13.82
398.225	14
398.432	14.18
398.639	14.26
398.847	13.92
399.054	13.65
399.261	13.33
399.468	13.48
399.676	13.31
399.883	13.03
400.09	13
400.297	12.76
400.505	12.93
400.712	12.64
400.919	12.27
401.126	12.78
401.333	13.06
401.54	13.5
401.748	13.39
401.955	13.63
402.162	13.87
402.369	13.8
402.576	14.15
402.783	14.19
402.99	14.2
403.197	14.45
403.404	14.28
403.611	14.37
403.818	13.87
404.025	13.79
404.232	13.65
404.439	13.15
404.646	13.1
404.853	12.78
405.06	12.77
405.267	12.78
405.474	12.43
405.681	12.3
405.887	12.28
406.094	12.65
406.301	12.8
406.508	13
406.715	13.42
406.922	13.49
407.128	13.85
407.335	14.03
407.542	14.09
407.749	14.49
407.955	14.98
408.162	14.69
408.369	14.54
408.575	14.49
408.782	14.36
408.989	14.22
409.195	14.44
409.402	14.33
409.609	13.76
409.815	13.94
410.022	14.05
410.228	13.77
410.435	14.04
410.642	14.23
410.848	14.21
411.055	14.43
411.261	14.77
411.468	14.57
411.674	14.79
411.881	15.22
412.087	15.5
412.294	15.36
412.5	15.07
412.706	15.4
412.913	15.34
413.119	15.47
413.326	15.28
413.532	15.34
413.738	15.6
413.945	15.52
414.151	15.37
414.357	14.84
414.564	14.97
414.77	15.2
414.976	14.92
415.182	14.82
415.389	14.5
415.595	14.58
415.801	14.26
416.007	14.25
416.214	14.07
416.42	14.17
416.626	14.34
416.832	14.35
417.038	14.24
417.244	14.43
417.45	14.54
417.657	14.91
417.863	14.93
418.069	15.21
418.275	15.2
418.481	15.44
418.687	15.39
418.893	15.4
419.099	15.37
419.305	15.55
419.511	15.52
419.717	15.45
419.923	15.43
420.129	15.52
420.335	15.51
420.541	15.59
420.746	15.54
420.952	15.65
421.158	15.6
421.364	15.66
421.57	15.71
421.776	15.72
421.982	15.87
422.187	15.96
422.393	16.09
422.599	16.07
422.805	16.03
423.01	16.09
423.216	16.19
423.422	16.36
423.628	16.29
423.833	16.27
424.039	16.31
424.245	16.37
424.45	16.28
424.656	16.12
424.862	16.12
425.067	16.16
425.273	16.1
425.478	15.96
425.684	15.92
425.889	15.87
426.095	15.71
426.301	15.73
426.506	15.65
426.712	15.58
426.917	15.6
427.123	15.42
427.328	15.45
427.533	15.6
427.739	15.62
427.944	15.79
428.15	16.01
428.355	16.35
428.561	16.45
428.766	16.48
428.971	16.51
429.177	16.49
429.382	16.91
429.587	16.84
429.793	16.81
429.998	16.85
430.203	16.68
430.408	16.6
430.614	16.5
430.819	16.25
431.024	16.13
431.229	16.15
431.434	16.16
431.64	16
431.845	16.04
432.05	16.05
432.255	16.08
432.46	15.97
432.665	15.98
432.87	16.02
433.076	16.06
433.281	16.05
433.486	16.16
433.691	16.08
433.896	16.12
434.101	16.05
434.306	16.01
434.511	16.09
434.716	16.25
434.921	16.28
435.126	16.37
435.331	16.35
435.535	16.42
435.74	16.4
435.945	16.71
436.15	16.72
436.355	16.75
436.56	16.75
436.765	16.65
436.97	16.81
437.174	16.92
437.379	16.89
437.584	16.93
437.789	16.95
437.993	16.97
438.198	16.68
438.403	16.76
438.608	16.9
438.812	16.94
439.017	16.93
439.222	16.66
439.426	16.59
439.631	16.62
439.836	16.69
440.04	16.73
440.245	16.77
440.45	16.8
440.654	16.75
440.859	16.51
441.063	16.55
441.268	16.61
441.472	16.69
441.677	16.71
441.881	16.8
442.086	16.67
442.29	16.71
442.495	16.54
442.699	16.51
442.904	16.46
443.108	16.69
443.312	16.67
443.517	16.6
443.721	16.66
443.925	16.63
444.13	16.51
444.334	16.66
444.538	16.71
444.743	16.75
444.947	16.83
445.151	16.84
445.356	16.77
445.56	16.75
445.764	16.79
445.968	16.71
446.173	16.78
446.377	16.68
446.581	16.72
446.785	16.65
446.989	16.61
447.193	16.64
447.398	16.54
447.602	16.62
447.806	16.54
448.01	16.49
448.214	16.71
448.418	16.6
448.622	16.46
448.826	16.47
449.03	16.51
449.234	16.6
449.438	16.56
449.642	16.58
449.846	16.49
450.05	16.53
450.254	16.33
450.458	16.09
450.662	16.06
450.866	16
451.069	15.95
451.273	15.86
451.477	15.91
451.681	15.79
451.885	15.76
452.089	15.84
452.292	15.81
452.496	16.07
452.7	16
452.904	16.13
453.107	16.35
453.311	16.14
453.515	16.11
453.719	16.05
453.922	15.97
454.126	16.13
454.33	15.88
454.533	15.88
454.737	15.94
454.94	15.9
455.144	15.86
455.348	15.88
455.551	16.19
455.755	16.16
455.958	16.17
456.162	16.22
456.365	16.12
456.569	16.2
456.772	16.18
456.976	15.9
457.179	16.01
457.383	15.97
457.586	15.92
457.79	15.72
457.993	15.84
458.196	15.91
458.4	16.06
458.603	16.18
458.807	16.23
459.01	16.31
459.213	16.42
459.417	16.4
459.62	16.33
459.823	16.38
460.026	16.57
460.23	16.57
460.433	16.44
460.636	16.36
460.839	16.35
461.042	16.31
461.246	16.25
461.449	16.33
461.652	16.33
461.855	16.48
462.058	16.43
462.261	16.33
462.464	16.22
462.668	16.41
462.871	16.57
463.074	16.47
463.277	16.62
463.48	16.84
463.683	17.01
463.886	17
464.089	16.97
464.292	17.17
464.495	17.19
464.698	17.43
464.901	17.42
465.104	17.56
465.306	17.6
465.509	17.61
465.712	17.35
465.915	17.35
466.118	17.39
466.321	17.3
466.524	17.23
466.726	17.39
466.929	17.26
467.132	17.24
467.335	16.92
467.538	17.02
467.74	16.92
467.943	17.03
468.146	17.02
468.348	17.03
468.551	17.08
468.754	17.09
468.956	16.99
469.159	17.11
469.362	17.1
469.564	17.38
469.767	17.28
469.969	17.57
470.172	17.77
470.375	17.64
470.577	17.76
470.78	17.83
470.982	17.79
471.185	17.67
471.387	17.81
471.59	17.94
471.792	17.84
471.995	17.96
472.197	17.91
472.399	17.73
472.602	17.83
472.804	17.78
473.007	17.8
473.209	17.9
473.411	17.87
473.614	17.65
473.816	17.55
474.018	17.75
474.22	18.01
474.423	17.89
474.625	18.07
474.827	18.1
475.03	18.1
475.232	17.99
475.434	18.04
475.636	18.05
475.838	18.29
476.04	18.33
476.243	18.19
476.445	17.98
476.647	18.01
476.849	17.93
477.051	17.97
477.253	17.93
477.455	18.08
477.657	18.2
477.859	18.23
478.061	18
478.263	18
478.465	17.95
478.667	17.79
478.869	17.73
479.071	17.75
479.273	17.73
479.475	17.71
479.677	17.79
479.879	17.57
480.081	17.53
480.283	17.61
480.485	17.59
480.686	17.63
480.888	17.78
481.09	17.85
481.292	17.98
481.494	17.96
481.695	17.96
481.897	17.86
482.099	18.06
482.301	18.15
482.502	18.16
482.704	18.2
482.906	18.21
483.107	18.21
483.309	18.18
483.511	18.12
483.712	18.12
483.914	18.17
484.115	18.2
484.317	18.13
484.519	18.14
484.72	18.15
484.922	18.13
485.123	18.17
485.325	18.19
485.526	18.28
485.728	18.3
485.929	18.37
486.131	18.39
486.332	18.42
486.534	18.53
486.735	18.57
486.936	18.55
487.138	18.64
487.339	18.64
487.541	18.59
487.742	18.56
487.943	18.61
488.144	18.57
488.346	18.56
488.547	18.55
488.748	18.54
488.95	18.51
489.151	18.55
489.352	18.49
489.553	18.55
489.755	18.66
489.956	18.71
490.157	18.71
490.358	18.74
490.559	18.83
490.76	18.9
490.961	18.92
491.163	19.04
491.364	19.1
491.565	19.19
491.766	19.2
491.967	19.18
492.168	19.2
492.369	19.29
492.57	19.37
492.771	19.37
492.972	19.44
493.173	19.47
493.374	19.44
493.575	19.53
493.776	19.5
493.976	19.49
494.177	19.65
494.378	19.75
494.579	19.75
494.78	19.81
494.981	19.96
495.182	20.07
495.382	20.1
495.583	20.32
495.784	20.37
495.985	20.45
496.185	20.37
496.386	20.36
496.587	20.4
496.788	20.41
496.988	20.42
497.189	20.54
497.39	20.55
497.59	20.72
497.791	20.77
497.992	20.96
498.192	21.06
498.393	21.23
498.593	21.29
498.794	21.29
498.994	21.2
499.195	21.21
499.395	21.08
499.596	21.06
499.796	21.15
499.997	21.13
500.197	21
500.398	21.08
500.598	21.23
500.799	21.49
500.999	21.52
501.199	21.77
501.4	21.85
501.6	22.05
501.801	22.18
502.001	22.27
502.201	22.37
502.402	22.54
502.602	22.54
502.802	22.57
503.002	22.38
503.203	22.39
503.403	22.6
503.603	22.74
503.803	22.74
504.003	22.81
504.204	22.73
504.404	22.91
504.604	22.81
504.804	22.95
505.004	23.07
505.204	23.35
505.404	23.67
505.604	23.67
505.804	23.8
506.005	24.09
506.205	24.12
506.405	24.27
506.605	24.3
506.805	24.56
507.005	24.81
507.204	24.93
507.404	25.04
507.604	25.07
507.804	24.93
508.004	25.07
508.204	25.13
508.404	25.2
508.604	25.22
508.804	25.32
509.003	25.25
509.203	25.18
509.403	25.2
509.603	25.07
509.803	24.99
510.002	25.12
510.202	25.14
510.402	25.09
510.602	25.22
510.801	25.39
511.001	25.34
511.201	25.54
511.4	25.58
511.6	25.56
511.8	25.84
511.999	26.03
512.199	26.29
512.398	26.37
512.598	26.4
512.797	26.44
512.997	26.31
513.197	26.34
513.396	26.3
513.596	26.52
513.795	26.68
513.994	26.61
514.194	26.66
514.393	26.68
514.593	26.6
514.792	26.67
514.992	26.8
515.191	27.08
515.39	27.09
515.59	27.23
515.789	27.07
515.988	27.11
516.188	27.05
516.387	27.08
516.586	26.97
516.786	27.05
516.985	27.16
517.184	27.23
517.383	27.32
517.582	27.43
517.782	27.37
517.981	27.47
518.18	27.65
518.379	27.86
518.578	27.92
518.777	28.17
518.976	28.17
519.176	28.15
519.375	28.15
519.574	28.05
519.773	28.06
519.972	28.05
520.171	28.15
520.37	27.99
520.569	27.86
520.768	27.96
520.967	27.84
521.166	27.94
521.365	28.09
521.564	28.05
521.762	28.15
521.961	28.14
522.16	28.32
522.359	28.34
522.558	28.51
522.757	28.77
522.956	28.7
523.154	28.78
523.353	28.88
523.552	28.88
523.751	28.92
523.949	28.99
524.148	29.04
524.347	28.88
524.546	28.82
524.744	28.91
524.943	28.87
525.142	28.92
525.34	28.79
525.539	28.8
525.737	28.82
525.936	28.8
526.135	28.79
526.333	28.95
526.532	29.01
526.73	29.03
526.929	29.03
527.127	28.98
527.326	29.05
527.524	29.18
527.723	29.24
527.921	29.26
528.12	29.31
528.318	29.36
528.516	29.29
528.715	29.35
528.913	29.4
529.112	29.35
529.31	29.42
529.508	29.41
529.707	29.44
529.905	29.39
530.103	29.33
530.301	29.4
530.5	29.36
530.698	29.4
530.896	29.36
531.094	29.42
531.293	29.48
531.491	29.37
531.689	29.35
531.887	29.28
532.085	29.39
532.283	29.55
532.481	29.46
532.68	29.5
532.878	29.52
533.076	29.58
533.274	29.53
533.472	29.62
533.67	29.64
533.868	29.7
534.066	29.8
534.264	29.71
534.462	29.73
534.66	29.71
534.858	29.74
535.056	29.73
535.253	29.7
535.451	29.83
535.649	29.76
535.847	29.84
536.045	29.83
536.243	29.85
536.441	29.96
536.638	29.94
536.836	29.97
537.034	30
537.232	30.05
537.43	30.18
537.627	30.14
537.825	30.06
538.023	30.15
538.22	30.08
538.418	29.95
538.616	29.88
538.813	29.84
539.011	29.9
539.209	29.85
539.406	29.83
539.604	29.77
539.801	29.71
539.999	29.94
540.196	29.96
540.394	30.15
540.591	30.17
540.789	30.2
540.986	30.24
541.184	30.16
541.381	30.14
541.579	30.18
541.776	30.21
541.974	30.2
542.171	30.12
542.368	30.12
542.566	30.11
542.763	30.19
542.96	30.2
543.158	30.17
543.355	30.23
543.552	30.26
543.75	30.29
543.947	30.3
544.144	30.32
544.341	30.41
544.539	30.34
544.736	30.3
544.933	30.29
545.13	30.2
545.327	30.23
545.524	30.16
545.722	30.06
545.919	30.1
546.116	30.07
546.313	30.05
546.51	30.01
546.707	30.12
546.904	30.04
547.101	30.02
547.298	30.08
547.495	30.13
547.692	30.27
547.889	30.4
548.086	30.41
548.283	30.37
548.48	30.47
548.677	30.41
548.874	30.29
549.07	30.49
549.267	30.38
549.464	30.42
549.661	30.44
549.858	30.4
550.055	30.57
550.251	30.5
550.448	30.7
550.645	30.65
550.842	30.66
551.038	30.76
551.235	30.8
551.432	30.82
551.628	30.88
551.825	30.86
552.022	31.04
552.218	30.97
552.415	30.99
552.612	31.14
552.808	31.11
553.005	31.15
553.201	31.16
553.398	31.15
553.594	31.32
553.791	31.45
553.987	31.35
554.184	31.08
554.38	31.22
554.577	31.22
554.773	30.83
554.97	30.8
555.166	30.89
555.362	30.91
555.559	30.87
555.755	30.92
555.952	30.78
556.148	30.96
556.344	31.14
556.541	30.97
556.737	31.13
556.933	31.38
557.129	31.57
557.326	31.48
557.522	31.43
557.718	31.53
557.914	31.29
558.11	31.36
558.307	31.19
558.503	31.13
558.699	31.06
558.895	30.88
559.091	30.83
559.287	30.8
559.483	30.92
559.679	31.06
559.876	30.87
560.072	30.86
560.268	30.89
560.464	30.96
560.66	31.02
560.856	31.2
561.052	31.23
561.247	31.25
561.443	31.26
561.639	31.03
561.835	30.95
562.031	31.08
562.227	31.05
562.423	31
562.619	31.17
562.815	31.16
563.01	31.09
563.206	31.02
563.402	31.08
563.598	31.02
563.793	30.97
563.989	31.24
564.185	31
564.381	31.25
564.576	31.42
564.772	31.34
564.968	31.32
565.163	31.45
565.359	31.75
565.555	31.84
565.75	31.91
565.946	31.92
566.141	31.7
566.337	31.92
566.532	31.88
566.728	31.66
566.923	31.77
567.119	31.91
567.314	31.93
567.51	31.66
567.705	31.63
567.901	31.73
568.096	31.88
568.292	31.95
568.487	31.79
568.682	31.82
568.878	31.91
569.073	31.76
569.268	31.61
569.464	31.57
569.659	31.69
569.854	31.73
570.05	31.62
570.245	31.7
570.44	31.71
570.635	31.74
570.831	31.84
571.026	32.02
571.221	31.95
571.416	31.96
571.611	32.04
571.806	32.08
572.002	31.99
572.197	31.88
572.392	31.91
572.587	31.99
572.782	32.16
572.977	32.13
573.172	32.19
573.367	32.27
573.562	32.3
573.757	32.28
573.952	32.23
574.147	32.3
574.342	32.45
574.537	32.49
574.732	32.51
574.927	32.35
575.121	32.22
575.316	32.09
575.511	32.09
575.706	32.13
575.901	31.9
576.096	32.12
576.29	32.2
576.485	32.14
576.68	32.09
576.875	32.14
577.069	32.32
577.264	32.33
577.459	32.23
577.654	32.17
577.848	32.2
578.043	32.45
578.238	32.32
578.432	32.32
578.627	32.28
578.821	32.3
579.016	32.23
579.21	32.03
579.405	31.99
579.6	32.12
579.794	32.35
579.989	32.16
580.183	32.19
580.378	32.09
580.572	32.05
580.766	32.32
580.961	32.42
581.155	32.46
581.35	32.6
581.544	32.83
581.738	32.98
581.933	32.81
582.127	33.03
582.321	32.86
582.516	33.04
582.71	32.71
582.904	32.42
583.099	32.23
583.293	32.07
583.487	32
583.681	32.05
583.875	31.98
584.07	32.15
584.264	32.4
584.458	32.7
584.652	32.65
584.846	32.85
585.04	33.27
585.234	33.41
585.428	33.37
585.623	33.58
585.817	33.85
586.011	33.94
586.205	34.17
586.399	34.09
586.593	33.95
586.787	33.98
586.981	34.1
587.174	34.18
587.368	34.25
587.562	34.44
587.756	34.29
587.95	33.88
588.144	33.78
588.338	33.48
588.532	33.48
588.725	33.6
588.919	33.86
589.113	33.7
589.307	33.65
589.501	33.55
589.694	33.54
589.888	33.49
590.082	33.55
590.275	33.37
590.469	33.52
590.663	33.49
590.856	33.31
591.05	33.13
591.244	33.47
591.437	33.54
591.631	33.62
591.824	33.54
592.018	33.77
592.212	33.84
592.405	34.13
592.599	34.13
592.792	34.2
592.986	34.27
593.179	34.3
593.372	34.02
593.566	33.62
593.759	33.52
593.953	33.56
594.146	33.49
594.339	33.47
594.533	33.57
594.726	33.55
594.92	33.55
595.113	33.71
595.306	33.54
595.499	33.75
595.693	33.8
595.886	34.01
596.079	34.04
596.272	33.98
596.466	34.03
596.659	33.8
596.852	33.68
597.045	33.68
597.238	33.48
597.431	33.56
597.624	33.52
597.818	33.64
598.011	33.83
598.204	33.86
598.397	33.97
598.59	34.02
598.783	34.26
598.976	34.45
599.169	34.46
599.362	34.66
599.555	34.6
599.748	34.67
599.941	34.66
600.134	34.35
600.326	34.27
600.519	33.81
600.712	34
600.905	33.8
601.098	33.86
601.291	33.86
601.483	33.91
601.676	34.07
601.869	34.03
602.062	34.48
602.255	34.41
602.447	34.54
602.64	34.82
602.833	34.4
603.025	34.39
603.218	34.4
603.411	34.39
603.603	34.5
603.796	34.51
603.989	34.57
604.181	34.28
604.374	34.2
604.566	34.24
604.759	34.33
604.951	34.39
605.144	34.38
605.336	34.21
605.529	34.33
605.721	34.27
605.914	34.08
606.106	33.95
606.299	34.1
606.491	34.24
606.683	34.28
606.876	34.38
607.068	34.61
607.26	34.84
607.453	35.02
607.645	34.97
607.837	34.85
608.03	34.91
608.222	35.16
608.414	35.06
608.606	34.84
608.799	34.96
608.991	35.02
609.183	35.05
609.375	34.95
609.567	34.92
609.759	34.86
609.952	35.08
610.144	35.25
610.336	34.9
610.528	34.74
610.72	35.09
610.912	35.05
611.104	35.06
611.296	35.1
611.488	34.99
611.68	34.89
611.872	34.96
612.064	34.67
612.256	34.43
612.448	34.75
612.64	34.92
612.832	34.64
613.023	34.31
613.215	34.14
613.407	34.2
613.599	34.23
613.791	34.44
613.983	34.52
614.174	34.53
614.366	34.9
614.558	34.85
614.75	34.94
614.941	34.9
615.133	35.22
615.325	35.24
615.516	35.12
615.708	35.58
615.9	35.53
616.091	35.51
616.283	35.88
616.475	36.04
616.666	36.02
616.858	35.86
617.049	36
617.241	35.88
617.432	36.18
617.624	36.15
617.815	35.87
618.007	36
618.198	35.94
618.39	35.99
618.581	35.89
618.773	36
618.964	36.08
619.155	36.16
619.347	36.25
619.538	36.27
619.729	36.53
619.921	36.72
620.112	36.81
620.303	36.83
620.494	36.58
620.686	36.56
620.877	36.55
621.068	36.54
621.259	36.84
621.451	36.79
621.642	36.6
621.833	36.57
622.024	36.51
622.215	36.46
622.406	36.61
622.597	37.03
622.788	36.86
622.98	36.58
623.171	36.53
623.362	36.28
623.553	36.28
623.744	36.42
623.935	36.43
624.126	36.63
624.317	36.62
624.508	36.4
624.698	35.97
624.889	36.37
625.08	36.57
625.271	36.55
625.462	36.5
625.653	36.42
625.844	36.46
626.034	36.58
626.225	36.48
626.416	36.49
626.607	36.77
626.798	36.78
626.988	36.84
627.179	36.99
627.37	37.29
627.56	37.31
627.751	37.49
627.942	37.45
628.132	37.11
628.323	36.91
628.514	36.99
628.704	36.89
628.895	37.04
629.085	36.82
629.276	36.92
629.466	36.68
629.657	36.85
629.847	37.02
630.038	37.07
630.228	37.06
630.419	36.9
630.609	36.93
630.8	36.9
630.99	37
631.181	36.92
631.371	36.95
631.561	37.3
631.752	37.26
631.942	37.32
632.132	37.22
632.323	37.33
632.513	37.84
632.703	37.75
632.893	37.67
633.084	37.55
633.274	37.34
633.464	37.18
633.654	36.87
633.844	36.93
634.034	36.88
634.225	37.05
634.415	37.19
634.605	37.04
634.795	37.08
634.985	37.21
635.175	37.51
635.365	37.64
635.555	37.56
635.745	37.78
635.935	37.37
636.125	37.36
636.315	37.39
636.505	37.39
636.695	37.29
636.885	37.27
637.075	37.18
637.265	37.05
637.455	37.3
637.644	37.28
637.834	37.22
638.024	37.64
638.214	37.78
638.404	37.7
638.593	37.72
638.783	38.01
638.973	37.83
639.163	38
639.352	37.77
639.542	37.81
639.732	38.15
639.921	38.39
640.111	38.63
640.301	38.28
640.49	38.13
640.68	38.19
640.87	38.28
641.059	38.41
641.249	38.44
641.438	38.97
641.628	38.94
641.817	38.84
642.007	38.39
642.196	38.24
642.386	38.33
642.575	38.51
642.764	38.22
642.954	38.34
643.143	38.54
643.333	38.45
643.522	38.24
643.711	38.32
643.901	38.29
644.09	38.8
644.279	38.76
644.469	38.91
644.658	38.97
644.847	39.41
645.036	39.23
645.226	39.73
645.415	39.81
645.604	39.73
645.793	39.31
645.982	39.22
646.171	39.06
646.361	39.04
646.55	39.08
646.739	38.89
646.928	38.57
647.117	38.19
647.306	37.83
647.495	37.93
647.684	37.59
647.873	37.61
648.062	37.65
648.251	37.73
648.44	37.74
648.629	37.99
648.818	37.99
649.007	38.25
649.196	38.69
649.384	38.51
649.573	38.44
649.762	38.6
649.951	39.15
650.14	39.1
650.328	38.98
650.517	38.97
650.706	38.55
650.895	38.61
651.083	38.93
651.272	38.84
651.461	38.76
651.65	38.83
651.838	38.89
652.027	39.08
652.216	39.45
652.404	39.75
652.593	39.73
652.781	39.87
652.97	40.18
653.158	39.81
653.347	40.22
653.535	40.61
653.724	40.68
653.912	40.52
654.101	40.25
654.289	40.22
654.478	39.86
654.666	39.91
654.855	39.82
655.043	39.63
655.231	39.64
655.42	38.99
655.608	38.84
655.796	38.89
655.985	39.18
656.173	39.3
656.361	38.92
656.55	39.14
656.738	39.34
656.926	39.31
657.114	39.13
657.302	39.21
657.491	39.4
657.679	39.22
657.867	38.72
658.055	39.07
658.243	39.26
658.431	39.47
658.619	39.87
658.807	40.11
658.996	40.14
659.184	40.22
659.372	40.41
659.56	40.62
659.748	40.6
659.936	41.25
660.124	40.96
660.311	40.95
660.499	41.01
660.687	40.89
660.875	40.48
661.063	40.39
661.251	40.31
661.439	40.05
661.627	39.93
661.814	39.77
662.002	39.42
662.19	39.28
662.378	39.17
662.565	38.83
662.753	38.69
662.941	38.53
663.129	38.59
663.316	38.75
663.504	39.08
663.692	39.29
663.879	39.31
664.067	39.24
664.254	39.71
664.442	39.74
664.63	40.31
664.817	40.15
665.005	40.75
665.192	40.99
665.38	41.53
665.567	41.18
665.755	41.11
665.942	41.46
666.13	41.61
666.317	41.29
666.504	40.9
666.692	40.86
666.879	41.27
667.067	41.49
667.254	41.74
667.441	41.67
667.629	41.44
667.816	41.2
668.003	41.6
668.19	41.53
668.378	41.51
668.565	42.04
668.752	41.79
668.939	41.44
669.127	40.66
669.314	40.42
669.501	40.03
669.688	40.4
669.875	40.75
670.062	40.48
670.249	40.8
670.436	40.96
670.623	40.96
670.81	41.27
670.997	41.3
671.184	41.95
671.371	42.22
671.558	42.01
671.745	42.57
671.932	42.29
672.119	42.15
672.306	42.25
672.493	42.69
672.68	42.43
672.867	42.88
673.054	42.9
673.24	42.56
673.427	42.49
673.614	42.67
673.801	42.17
673.988	42.53
674.174	42.62
674.361	41.93
674.548	41.45
674.734	41.91
674.921	41.28
675.108	41.43
675.294	41.85
675.481	42.1
675.668	42.25
675.854	42.32
676.041	42.11
676.227	42.2
676.414	42.65
676.601	42.66
676.787	42.43
676.974	42.86
677.16	42.89
677.347	42.73
677.533	42.39
677.719	42.51
677.906	42.33
678.092	42.58
678.279	42.59
678.465	42.76
678.651	43.57
678.838	43.65
679.024	43.48
679.21	43.72
679.397	43.48
679.583	43.15
679.769	43.05
679.955	43.41
680.142	43.15
680.328	43.24
680.514	43.13
680.7	42.87
680.886	42.95
681.073	42.84
681.259	42.75
681.445	42.72
681.631	43.27
681.817	43.45
682.003	43.51
682.189	43.72
682.375	43.99
682.561	44.27
682.747	44.23
682.933	43.84
683.119	43.8
683.305	43.05
683.491	43.3
683.677	43.07
683.863	43.09
684.049	43.07
684.235	43.43
684.42	43.49
684.606	42.85
684.792	42.85
684.978	43.4
685.164	43.85
685.349	44.54
685.535	44.1
685.721	44.27
685.907	44.45
686.092	44.56
686.278	43.97
686.464	43.56
686.649	44.39
686.835	44.03
687.021	43.92
687.206	43.42
687.392	43.3
687.577	44.3
687.763	44.54
687.948	44.5
688.134	44.29
688.319	44.6
688.505	44.83
688.69	44.82
688.876	45.62
689.061	45.55
689.247	45.75
689.432	46.14
689.618	45.87
689.803	45.63
689.988	45.49
690.174	45.39
690.359	45.15
690.544	44.74
690.73	44.58
690.915	43.95
691.1	43.34
691.285	43.22
691.471	43.03
691.656	42.73
691.841	42.94
692.026	43.34
692.211	43.23
692.396	43.47
692.582	43.78
692.767	43.04
692.952	42.92
693.137	43.72
693.322	43.64
693.507	43.83
693.692	44.13
693.877	43.39
694.062	43.04
694.247	43.02
694.432	42.91
694.617	43.3
694.802	43.87
694.987	44.52
695.172	44.68
695.357	44.96
695.541	44.68
695.726	44.39
695.911	45.56
696.096	46.12
696.281	46.2
696.466	46.39
696.65	46.39
696.835	46.29
697.02	46.34
697.204	46.62
697.389	46.54
697.574	46.93
697.759	47.18
697.943	46.56
698.128	45.95
698.312	46.12
698.497	46.59
698.682	46.3
698.866	46.25
699.051	45.88
699.235	45.54
699.42	45.51
699.604	45.04
699.789	45.02
699.973	45.43
700.158	45.77
700.342	45.99
700.527	45.81
700.711	45.97
700.895	46.06
701.08	46.07
701.264	46.29
701.448	46.36
701.633	46.66
701.817	46.83
702.001	46.44
702.186	46.29
702.37	45.95
702.554	45.03
702.738	45.15
702.923	45.19
703.107	45.59
703.291	45.77
703.475	46.42
703.659	46.37
703.843	45.74
704.027	46.2
704.212	46.43
704.396	46.51
704.58	46.8
704.764	47.39
704.948	47.58
705.132	46.95
705.316	46.57
705.5	46.09
705.684	46.8
705.868	47.75
706.052	48.11
706.235	47.68
706.419	47.95
706.603	48.33
706.787	47.71
706.971	47.85
707.155	48.35
707.339	48.18
707.522	48.25
707.706	47.68
707.89	47.11
708.074	46.27
708.257	46.51
708.441	46.87
708.625	47.05
708.808	47.98
708.992	48.29
709.176	48.27
709.359	48.79
709.543	49.13
709.727	49.93
709.91	50.33
710.094	51.17
710.277	51.24
710.461	50.68
710.644	50.43
710.828	49.54
711.011	48.65
711.195	49.21
711.378	48.95
711.562	48.82
711.745	48.95
711.928	48.69
712.112	48.88
712.295	49.28
712.478	49.26
712.662	49.46
712.845	49.66
713.028	50.44
713.212	50.02
713.395	50.02
713.578	50.39
713.761	49.96
713.945	50.39
714.128	50
714.311	49.36
714.494	50.12
714.677	49.82
714.86	50.04
715.043	49.43
715.227	49.56
715.41	49.15
715.593	49.43
715.776	49.56
715.959	49.74
716.142	49.31
716.325	49.28
716.508	49.26
716.691	49.76
716.874	49.28
717.057	50.29
717.239	50.03
717.422	51.28
717.605	50.85
717.788	50.73
717.971	50.29
718.154	50.65
718.337	50.94
718.519	49.92
718.702	50.08
718.885	50.92
719.068	50.62
719.25	50.59
719.433	49.69
719.616	49.44
719.798	48.8
719.981	49.22
720.164	48.89
720.346	49.43
720.529	49.39
720.712	48.52
720.894	48.22
721.077	48.41
721.259	48.76
721.442	49.42
721.624	48.97
721.807	49.86
721.989	49.57
722.172	50.18
722.354	50.26
722.537	50.16
722.719	50.15
722.901	50.23
723.084	49.28
723.266	48.11
723.448	47.68
723.631	47.3
723.813	47.54
723.995	47.76
724.178	48.16
724.36	46.93
724.542	47.76
724.724	48
724.907	48.28
725.089	49.63
725.271	50.46
725.453	50.83
725.635	51.92
725.817	51.44
725.999	51.37
726.181	50.55
726.364	51.72
726.546	51.04
726.728	50.42
726.91	49.27
727.092	48.93
727.274	49.44
727.456	49.18
727.638	48.7
727.819	48.58
728.001	48.67
728.183	48.71
728.365	48.43
728.547	49.7
728.729	51.31
728.911	52.82
729.093	52.27
729.274	52.26
729.456	52.69
729.638	53.08
729.82	53.41
730.001	53.31
730.183	53.42
730.365	52.8
730.546	52.1
730.728	51.34
730.91	49.64
731.091	50.03
731.273	49.74
731.455	49.48
731.636	49.79
731.818	49.57
731.999	49.39
732.181	49.37
732.362	50.66
732.544	51.28
732.725	51.25
732.907	51.78
733.088	51.39
733.27	51.29
733.451	50.89
733.633	50.87
733.814	51.01
733.995	50.79
734.177	51.61
734.358	51.49
734.539	51.27
734.721	50.82
734.902	51.17
735.083	51.44
735.264	51.99
735.446	52.61
735.627	51.85
735.808	52.12
735.989	52.7
736.17	51.59
736.351	51.59
736.533	51.81
736.714	53.09
736.895	53.19
737.076	53.9
737.257	53.91
737.438	53.38
737.619	54.33
737.8	53.84
737.981	53.22
738.162	54.18
738.343	53.7
738.524	52.92
738.705	52.72
738.886	52.03
739.067	52.01
739.247	52.28
739.428	51.7
739.609	51.78
739.79	52.73
739.971	53.12
740.151	52.09
740.332	51.6
740.513	52.06
740.694	51.69
740.874	52.89
741.055	52.46
741.236	51.93
741.417	52.43
741.597	53.05
741.778	52.63
741.958	53.37
742.139	53.59
742.32	54.04
742.5	54.51
742.681	54.44
742.861	55.26
743.042	55.25
743.222	55.61
743.403	55.7
743.583	54.99
743.764	53.84
743.944	53.6
744.124	53.47
744.305	53.95
744.485	53.52
744.666	54.04
744.846	51.98
745.026	51.85
745.207	51.96
745.387	52.28
745.567	52.37
745.747	52.97
745.928	53.3
746.108	54.46
746.288	55.08
746.468	54.45
746.648	54.62
746.829	55.7
747.009	56.33
747.189	55.79
747.369	56.24
747.549	56.44
747.729	56.87
747.909	56.64
748.089	56.34
748.269	54.7
748.449	55.81
748.629	54.98
748.809	54.88
748.989	54.38
749.169	54.26
749.349	53.84
749.529	53.87
749.709	54.75
749.889	54.2
750.068	53.96
750.248	55.23
750.428	54.83
750.608	56.16
750.788	56.52
750.967	56.43
751.147	56.47
751.327	56.78
751.507	55.36
751.686	54.27
751.866	54.21
752.046	53.23
752.225	53.4
752.405	54.4
752.585	53.31
752.764	52.98
752.944	52.76
753.123	53.47
753.303	53.72
753.482	54.99
753.662	55.49
753.841	55.53
754.021	56.27
754.2	56.08
754.38	54.7
754.559	54.53
754.739	55.11
754.918	54.96
755.097	55.42
755.277	55.34
755.456	55.49
755.635	54.8
755.815	55.59
755.994	56.26
756.173	56.06
756.352	57.08
756.532	59.05
756.711	58.14
756.89	58.67
757.069	57.29
757.248	57.52
757.427	56.29
757.607	56.83
757.786	55.51
757.965	54.84
758.144	55.72
758.323	54.98
758.502	53.53
758.681	53.53
758.86	54.42
759.039	54.84
759.218	53.42
759.397	53.8
759.576	53.32
759.755	54.06
759.934	54.01
760.113	52.41
760.291	52.35
760.47	52.26
760.649	52.81
760.828	51.73
761.007	51
761.186	51.68
761.364	52.68
761.543	53.49
761.722	53.96
761.901	54.78
762.079	55.44
762.258	55.68
762.437	56.66
762.615	56.26
762.794	56.9
762.972	57.31
763.151	58.24
763.33	57.73
763.508	57.27
763.687	57.61
763.865	57.59
764.044	57.28
764.222	56.78
764.401	56
764.579	56.36
764.758	55.66
764.936	55.88
765.114	55.24
765.293	55.17
765.471	55
765.65	53.58
765.828	53.48
766.006	53.11
766.184	53.64
766.363	53.19
766.541	53.34
766.719	53.89
766.898	53.57
767.076	54.04
767.254	53.58
767.432	53.98
767.61	54.09
767.788	53.74
767.967	54.33
768.145	53.61
768.323	55.06
768.501	54.98
768.679	55.13
768.857	55.87
769.035	54.47
769.213	55.83
769.391	55.53
769.569	56.28
769.747	55.66
769.925	55.85
770.103	56.93
770.281	55.94
770.459	56.26
770.636	56.17
770.814	55.23
770.992	56.17
771.17	54.84
771.348	54.2
771.525	53.61
771.703	54.19
771.881	55.67
772.059	55.85
772.236	54.99
772.414	53.92
772.592	52.75
772.769	53.15
772.947	53.7
773.125	55.15
773.302	55.77
773.48	57.43
773.657	57.27
773.835	55.53
774.013	53.86
774.19	55.71
774.368	55.91
774.545	56.39
774.723	57.39
774.9	56.28
775.077	54.16
775.255	54.04
775.432	53.59
775.61	54.23
775.787	55.84
775.964	58.51
776.142	56.52
776.319	57.54
776.496	58.08
776.674	56.46
776.851	57.26
777.028	59.32
777.205	59.52
777.382	59.08
777.56	59.31
777.737	56.96
777.914	57.09
778.091	56.54
778.268	56.21
778.445	56.14
778.622	56.12
778.8	55.31
778.977	55.4
779.154	54.79
779.331	54.96
779.508	54.98
779.685	55.99
779.862	54.46
780.038	55.81
780.215	54.85
780.392	54.53
780.569	55.84
780.746	56.51
780.923	56.11
781.1	56.2
781.277	56.29
781.453	55.35
781.63	55.4
781.807	54.8
781.984	56.1
782.16	55.77
782.337	56.8
782.514	56.2
782.691	56.5
782.867	55.35
783.044	56.64
783.221	56.41
783.397	56.94
783.574	55.92
783.75	55.21
783.927	54.27
784.103	54.74
784.28	55.55
784.456	54.71
784.633	53.64
784.809	54.38
784.986	53.95
785.162	53.22
785.339	54.63
785.515	54.28
785.692	55.99
785.868	56.19
786.044	54.7
786.221	53.84
786.397	54.64
786.573	54.17
786.749	53.03
786.926	52.41
787.102	53.82
787.278	50.31
787.454	50.13
787.631	51.08
787.807	51.3
787.983	51.64
788.159	50.62
788.335	50.39
788.511	50.29
788.687	51.4
788.863	50.34
789.039	50.08
789.216	52.17
789.392	54.94
789.568	53.59
789.744	53.17
789.919	55.11
790.095	55
790.271	53.25
790.447	54.52
790.623	53.14
790.799	55.18
790.975	55.8
791.151	55.38
791.327	53.52
791.502	52.94
791.678	54.58
791.854	53.4
792.03	53.68
792.205	57.45
792.381	56.52
792.557	57.18
792.733	55.77
792.908	53.28
793.084	51.7
793.259	53.3
793.435	55.57
793.611	52.79
793.786	52.03
793.962	53.05
794.137	52.64
794.313	51.91
794.488	52.77
794.664	52.99
794.839	52.7
795.015	54.38
795.19	54.49
795.366	54.2
795.541	54.26
795.716	58.31
795.892	57.46
796.067	56.78
796.242	57.09
796.418	57.21
796.593	56.84
796.768	59.8
796.944	57.96
797.119	54.84
797.294	53.42
797.469	54.42
797.644	50.9
797.82	50.16
797.995	50.58
798.17	49
798.345	48.36
798.52	49.72
798.695	47.77
798.87	49.96
799.045	52.34
799.22	52.88
799.395	54.39
799.57	54.14
799.745	55.98
799.92	54.99
800.095	54.96
800.27	55.56
800.445	56.05
800.62	56.15
800.795	53.64
800.97	53.7
801.145	54.56
801.319	53.67
801.494	54.47
801.669	54.35
801.844	55.36
802.018	57.71
802.193	57.27
802.368	57.38
802.543	57.55
802.717	59.68
802.892	58.41
803.067	56.62
803.241	55.24
803.416	53.35
803.59	52.79
803.765	53.11
803.94	53.6
804.114	52.75
804.289	49.33
804.463	50.68
804.638	51.63
804.812	50.2
804.986	50.13
805.161	51.15
805.335	53.7
805.51	53.12
805.684	54.07
805.858	52.37
806.033	51.16
806.207	53.14
806.381	52.14
806.556	50.21
806.73	51.75
806.904	51.23
807.078	50.35
807.253	47.89
807.427	47.58
807.601	46.27
807.775	49.63
807.949	52.66
808.123	52.76
808.298	55.22
808.472	55.41
808.646	55.9
808.82	54.8
808.994	56.35
809.168	57.81
809.342	59.53
809.516	58.28
809.69	55.56
809.864	51.88
810.038	50.97
810.212	48.71
810.385	51.49
810.559	51.75
810.733	55.89
810.907	53.05
811.081	56.38
811.255	54.68
811.428	55.68
811.602	53.85
811.776	53.64
811.95	52.75
812.123	55.35
812.297	51.61
812.471	48.11
812.644	44.02
812.818	44.8
812.992	42.49
813.165	41.7
813.339	38.41
813.512	41.16
813.686	43.45
813.86	46.13
814.033	43.62
814.207	44.29
814.38	47.33
814.554	48.23
814.727	47.8
814.9	45.28
815.074	46.04
815.247	50.06
815.421	49.97
815.594	52.86
815.767	53.63
815.941	51.89
816.114	53.77
816.287	54.44
816.46	56.37
816.634	61.34
816.807	62.85
816.98	61.98
817.153	57.86
817.327	55.83
817.5	51.8
817.673	52.18
817.846	55.5
818.019	55.34
818.192	53.56
818.365	51.41
818.538	48.45
818.711	49.36
818.884	48.77
819.057	53.24
819.23	55.43
819.403	56.09
819.576	53
819.749	49.24
819.922	48.65
820.095	52.39
820.268	55.22
820.441	54.89
820.614	52.62
820.786	53.54
820.959	50.48
821.132	50.17
821.305	51.69
821.477	51.45
821.65	51.38
821.823	51.03
821.996	49.66
822.168	49.83
822.341	49.72
822.514	50.65
822.686	50.05
822.859	50.59
823.031	50.84
823.204	50.27
823.376	50.68
823.549	51.03
823.722	51.97
823.894	52.5
824.067	52.54
824.239	52.72
824.411	52.51
824.584	53.01
824.756	53.24
824.929	52.86
825.101	53.1
825.273	53.29
825.446	53.43
825.618	52.45
825.79	52.11
825.963	51.36
826.135	51.49
826.307	50.76
826.479	50.08
826.652	50.4
826.824	51.13
826.996	51.68
827.168	50.94
827.34	50.43
827.512	50.17
827.684	49.84
827.856	49.44
828.029	48.53
828.201	48.21
828.373	48.35
828.545	47.16
828.717	46.44
828.889	44.94
829.061	45.31
829.232	45.19
829.404	44.39
829.576	43.66
829.748	43.84
829.92	44.5
830.092	45.16
830.264	45.83
830.436	45.68
830.607	44.49
830.779	45.67
830.951	45.76
831.123	46.83
831.294	47.07
831.466	47.75
831.638	49.69
831.809	49.01
831.981	49.01
832.153	46.69
832.324	44.49
832.496	47.01
832.667	46.72
832.839	44.06
833.011	42.03
833.182	44.01
833.354	45.75
833.525	42.75
833.697	43.51
833.868	44.55
834.039	45.3
834.211	47.5
834.382	45.71
834.554	45.94
834.725	47.34
834.896	48.47
835.068	47.76
835.239	47.2
835.41	47.81
835.581	48.13
835.753	47.34
835.924	47.84
836.095	48.21
836.266	49.41
836.438	47.94
836.609	48.2
836.78	48.46
836.951	50.26
837.122	50.14
837.293	51.13
837.464	48.31
837.635	48.72
837.806	48.48
837.977	48.37
838.148	50.79
838.319	50.59
838.49	50.53
838.661	50.12
838.832	52.02
839.003	50.95
839.174	49.41
839.345	51.05
839.516	54.05
839.687	54.95
839.857	55.43
840.028	52.62
840.199	55.18
840.37	55.77
840.54	54.55
840.711	49.96
840.882	55.67
841.053	53.7
841.223	57.86
841.394	51.66
841.564	51.68
841.735	49.98
841.906	48.69
842.076	50.13
842.247	47.89
842.417	44.41
842.588	39.6
842.758	32.87
842.929	30.26
843.099	25.17
843.27	25.15
843.44	23.3
843.611	26.88
843.781	24.52
843.951	21.8
844.122	24.98
844.292	30.55
844.462	36.83
844.633	36.94
844.803	48.65
844.973	48.22
845.144	48.73
845.314	47.39
845.484	40.89
845.654	49.04
845.824	48.47
845.995	48.05
846.165	51.48
846.335	48.62
846.505	47.95
846.675	42.78
846.845	39.12
847.015	42.07
847.185	42.16
847.355	48.52
847.525	42.11
847.695	40.64
847.865	42.04
848.035	40.77
848.205	41.73
848.375	40.19
848.545	43.09
848.715	46.52
848.884	52.25
849.054	54.39
849.224	41.34
849.394	47.2
849.564	50.02
849.733	58.49
849.903	62.06
850.073	61.82
850.243	64.09
850.412	65.38
850.582	65.93
850.752	54.12
850.921	57.41
851.091	64.37
851.26	45.33
851.43	44.51
851.599	37.75
851.769	34.92
851.939	28.87
852.108	21.48
852.278	13.34
852.447	15.02
852.616	35.77
852.786	24.2
852.955	26.31
853.125	37.46
853.294	31
853.463	32.42
853.633	21.21
853.802	26.46
853.971	35.94
854.141	41.58
854.31	43.08
854.479	24.7
854.648	31.85
854.818	31.2
854.987	24.43
855.156	27.44
855.325	25.58
855.494	44.19
855.663	43.37
855.832	33.8
856.001	39.36
856.171	36.83
856.34	45.53
856.509	48.43
856.678	49.32
856.847	55.32
857.016	51.8
857.185	52.33
857.353	48.66
857.522	51.71
857.691	59.03
857.86	51.04
858.029	53.11
858.198	49.54
858.367	37.53
858.535	38.16
858.704	36.17
858.873	45.57
859.042	34.89
859.21	14.89
859.379	13.94
859.548	15.55
859.717	23.88
859.885	20.41
860.054	21.63
860.222	16.33
860.391	13.83
860.56	16.85
860.728	19.36
860.897	20.45
861.065	28.4
861.234	18.88
861.402	25.42
861.571	19.63
861.739	25.61
861.908	29.8
862.076	39.12
862.244	41.76
862.413	40.38
862.581	39.97
862.749	42.22
862.918	52.4
863.086	58.85
863.254	45.73
863.423	48.12
863.591	42.92
863.759	35.5
863.927	34.49
864.096	37.83
864.264	38.46
864.432	36.49
864.6	38.51
864.768	36.71
864.936	33.37
865.104	40.45
865.272	47.54
865.44	51.47
865.608	49.39
865.776	55.63
865.944	52.16
866.112	50.27
866.28	46.52
866.448	42.88
866.616	34.51
866.784	34.76
866.952	33.23
867.12	24.25
867.288	17.93
867.455	20.43
867.623	11.37
867.791	14.17
867.959	21.16
868.127	13.64
868.294	10.98
868.462	-1.07
868.63	-19.96
868.797	-20.11
868.965	-21.52
869.133	-3.27
869.3	4.23
869.468	0.86
869.636	-17.71
869.803	-29.34
869.971	-11.45
870.138	-1.54
870.306	8.06
870.473	7.32
870.641	10.26
870.808	13.46
870.975	-14.75
871.143	-17.29
871.31	-3.56
871.478	18.68
871.645	32.38
871.812	18.67
871.98	14.23
872.147	16.97
872.314	16.86
872.482	18.99
872.649	18.23
872.816	29.9
872.983	27.73
873.15	32.96
873.318	35.52
873.485	34.51
873.652	38.07
873.819	40.6
873.986	47.93
874.153	48.44
874.32	46.97
874.487	46.81
874.654	38.72
874.821	44.61
874.988	40.54
875.155	36.81
875.322	34.33
875.489	34.21
875.656	27.39
875.823	21.61
875.99	22.37
876.157	26.59
876.324	26.03
876.49	28.46
876.657	26.42
876.824	28.95
876.991	31.61
877.157	26.57
877.324	18.56
877.491	28.19
877.658	27.57
877.824	32.9
877.991	30
878.157	28.59
878.324	33.06
878.491	31.58
878.657	35.32
878.824	32.41
878.99	33.21
879.157	32.83
879.323	24.98
879.49	27.41
879.656	28.29
879.823	33.9
879.989	38.37
880.156	39
880.322	36.78
880.488	34.36
880.655	33.04
880.821	33.12
880.987	38.49
881.154	47.23
881.32	45.07
881.486	39.7
881.652	34.92
881.819	35.9
881.985	33.75
882.151	35.38
882.317	34.25
882.483	33.31
882.649	34.65
882.816	33.46
882.982	32.51
883.148	33.3
883.314	33.88
883.48	33.77
883.646	33.32
883.812	34.56
883.978	33.87
884.144	34.61
884.31	34.36
884.476	33.62
884.642	34.31
884.807	34.13
884.973	32.11
885.139	32.02
885.305	31.92
885.471	30.71
885.637	29.39
885.802	27.7
885.968	25.53
886.134	29.2
886.3	31.01
886.465	28.92
886.631	28.39
886.797	32.37
886.962	32.81
887.128	35.15
887.293	37.02
887.459	34.08
887.625	39.11
887.79	43.95
887.956	41.27
888.121	39.26
888.287	43.32
888.452	43.62
888.618	40.57
888.783	41.53
