Data from CB_111_Reflection_1.txt Node
Date: Sat Nov 14 18:15:29 EST 2015
User: robert
Spectrometer: USB4E03001
Autoset integration time: false
Trigger mode: 4
Integration Time (sec): 1.000000E-1
Scans to average: 15
Electric dark correction enabled: true
Nonlinearity correction enabled: false
Boxcar width: 5
Stray light correction enabled: false
XAxis mode: Wavelengths
Stop averaging: false
Number of Pixels in Spectrum: 3648
>>>>>Begin Spectral Data<<<<<
177.566	165.51
177.785	-499.01
178.005	199.04
178.225	203.28
178.445	62.11
178.665	81.43
178.885	-572.16
179.105	93.33
179.324	2.59
179.544	12.06
179.764	57.89
179.984	51.22
180.204	37.67
180.423	50.84
180.643	70.42
180.863	107.27
181.083	97.74
181.302	93.34
181.522	99.54
181.742	128.77
181.961	227.79
182.181	306.39
182.401	724.06
182.621	475.65
182.84	638.21
183.06	289.21
183.279	206.98
183.499	318.25
183.719	326.94
183.938	182.12
184.158	194.12
184.377	160.88
184.597	168.72
184.816	166.39
185.036	163.95
185.256	169.06
185.475	172.35
185.695	148.3
185.914	141.49
186.134	134.29
186.353	158.73
186.572	145.64
186.792	134.22
187.011	133.75
187.231	124.08
187.45	120.55
187.67	112.25
187.889	105.84
188.108	111.91
188.328	103.24
188.547	104.29
188.766	113.16
188.986	105.51
189.205	115.95
189.424	92.02
189.644	99.93
189.863	98.89
190.082	103.04
190.302	94.08
190.521	91.21
190.74	100.8
190.959	125.54
191.178	104.19
191.398	138.81
191.617	131.18
191.836	174.34
192.055	128.11
192.274	127.27
192.494	143.34
192.713	283.73
192.932	275.86
193.151	474.28
193.37	274.35
193.589	241.96
193.808	397.03
194.027	885.08
194.246	-2599.16
194.465	4327.78
194.685	375.51
194.904	349.09
195.123	189.48
195.342	249.35
195.561	152.82
195.78	125.16
195.999	124.97
196.218	76.86
196.436	76.89
196.655	78.17
196.874	93.29
197.093	98.35
197.312	106.2
197.531	108.34
197.75	101.67
197.969	112.47
198.188	130.29
198.407	115.56
198.625	144.69
198.844	141.81
199.063	120.85
199.282	99.64
199.501	100.99
199.719	92.47
199.938	103.01
200.157	98.35
200.376	109.52
200.594	113.27
200.813	132.6
201.032	111.42
201.251	108.21
201.469	113.85
201.688	125.89
201.907	113.03
202.125	118.94
202.344	191.4
202.563	192.65
202.781	156.15
203	181.62
203.218	203.21
203.437	167.35
203.656	158.62
203.874	107.41
204.093	117.6
204.311	137.32
204.53	142.52
204.748	83.29
204.967	88.96
205.185	107.96
205.404	105.05
205.622	88.74
205.841	95.27
206.059	109.49
206.278	124.01
206.496	120.22
206.715	145.2
206.933	127
207.151	124.62
207.37	126.58
207.588	125.4
207.806	120.44
208.025	108.23
208.243	107.9
208.461	124.56
208.68	121.29
208.898	115.74
209.116	79.9
209.335	93.21
209.553	110.44
209.771	122.4
209.989	98.02
210.208	70.03
210.426	80.5
210.644	77.63
210.862	56.18
211.081	65.55
211.299	56.48
211.517	77.42
211.735	67.85
211.953	73.72
212.171	74.85
212.39	69.74
212.608	87.81
212.826	90.59
213.044	98.78
213.262	101.84
213.48	98.74
213.698	97.94
213.916	112.28
214.134	98.26
214.352	96.6
214.57	84.1
214.788	103.39
215.006	104.57
215.224	100.02
215.442	115.8
215.66	110.09
215.878	107.83
216.096	130.89
216.314	124.8
216.532	142.55
216.75	153.92
216.968	180.47
217.185	160.24
217.403	184.77
217.621	265.82
217.839	188.56
218.057	256.25
218.275	204.24
218.492	226.83
218.71	216.04
218.928	211.21
219.146	272.91
219.363	213.36
219.581	260.35
219.799	268.39
220.017	203.06
220.234	216.17
220.452	237.22
220.67	271.53
220.887	436.03
221.105	616.46
221.323	10437.42
221.54	1048.24
221.758	5212.5
221.976	2073.58
222.193	437.9
222.411	564.16
222.629	844.02
222.846	1130.3
223.064	-1036.71
223.281	1022.41
223.499	708
223.716	969.05
223.934	-494.95
224.151	-175.23
224.369	-124.54
224.586	-44.16
224.804	-22.45
225.021	-41.07
225.239	-32.4
225.456	-37.91
225.674	-39.27
225.891	-61.36
226.108	-136.07
226.326	-106.02
226.543	-86.45
226.76	-41.27
226.978	-43.01
227.195	-64.59
227.413	-62.4
227.63	-38.54
227.847	-31.78
228.064	-21.64
228.282	-10.01
228.499	-3.41
228.716	-8.99
228.934	-10.86
229.151	-12.21
229.368	-10.71
229.585	-9.75
229.802	-8.81
230.02	-9.94
230.237	-10.74
230.454	-9.54
230.671	-12.27
230.888	-13.25
231.105	-13.63
231.323	-15.94
231.54	-23.79
231.757	-31.74
231.974	-35.89
232.191	-36.21
232.408	-36.96
232.625	-28.99
232.842	-27.35
233.059	-31.87
233.276	-33.16
233.493	-32.2
233.71	-21.05
233.927	-9.9
234.144	-2.7
234.361	-7.47
234.578	-11.55
234.795	-9.84
235.012	-19.7
235.229	-28.6
235.446	-23.33
235.663	-23.21
235.879	-27.82
236.096	-34.99
236.313	-42.66
236.53	-39.5
236.747	-34.92
236.964	-37.3
237.181	-48.52
237.397	-47.59
237.614	-46.17
237.831	-52.71
238.048	-52.49
238.264	-55.17
238.481	-52.15
238.698	-36.64
238.915	-33.44
239.131	-29.44
239.348	-24.01
239.565	-20.16
239.781	-16.34
239.998	-12.49
240.215	-9.11
240.431	-11.41
240.648	-2.11
240.865	-1.18
241.081	-3.67
241.298	-4.67
241.514	-2.49
241.731	-0.29
241.947	0.04
242.164	1.13
242.38	5.08
242.597	6.21
242.814	8.14
243.03	4.96
243.246	6.31
243.463	6.43
243.679	5.45
243.896	4.77
244.112	2.15
244.329	2.27
244.545	3.63
244.762	0.25
244.978	0.09
245.194	-0.9
245.411	-1.64
245.627	-2.55
245.843	-2.74
246.06	-1.57
246.276	-0.17
246.492	1.86
246.709	1.95
246.925	1.61
247.141	2.61
247.357	2.63
247.574	3.34
247.79	5.15
248.006	5.79
248.222	5.65
248.439	6.02
248.655	4.85
248.871	5.04
249.087	6.36
249.303	6.1
249.519	5.55
249.736	3.31
249.952	1.69
250.168	0.39
250.384	-2.09
250.6	-0.22
250.816	-1.64
251.032	1.56
251.248	-1.05
251.464	-6.3
251.68	-5.98
251.896	-5.64
252.112	-4.38
252.328	-4.26
252.544	-6.03
252.76	-6.67
252.976	-10.24
253.192	-10.56
253.408	-11.88
253.624	-9.14
253.84	-6.06
254.056	-7.73
254.272	-9.2
254.487	-9.02
254.703	-8.67
254.919	-10.6
255.135	-8.93
255.351	-9.29
255.567	-5.73
255.782	-6.83
255.998	-5.75
256.214	-7.4
256.43	-3.53
256.646	-5.05
256.861	-1.35
257.077	-3.66
257.293	0.12
257.508	1.52
257.724	4.06
257.94	3.7
258.155	2.31
258.371	0.66
258.587	1.52
258.802	2.04
259.018	3.23
259.234	3.19
259.449	4.13
259.665	3.55
259.88	3.33
260.096	3.8
260.312	3.75
260.527	4.4
260.743	4.8
260.958	4.86
261.174	3.96
261.389	4.08
261.605	3.63
261.82	3.39
262.036	3.21
262.251	2.63
262.466	1.86
262.682	1.32
262.897	0.67
263.113	-0.23
263.328	-0.08
263.543	-1.48
263.759	-4.54
263.974	-6.26
264.189	-7.4
264.405	-6.76
264.62	-6.9
264.835	-5.91
265.051	-5.42
265.266	-3.92
265.481	-2.13
265.696	-1.63
265.912	0.65
266.127	2.37
266.342	3.79
266.557	4.13
266.773	3.39
266.988	3.46
267.203	3.92
267.418	3.52
267.633	3.91
267.848	3.46
268.064	2.9
268.279	2.86
268.494	2.6
268.709	2.93
268.924	3.97
269.139	3.01
269.354	4.05
269.569	3.55
269.784	3.48
269.999	1.18
270.214	-0.14
270.429	-0.36
270.644	-0.66
270.859	0.11
271.074	-1.36
271.289	-1.65
271.504	0.91
271.719	0.74
271.934	-0.99
272.149	-0.43
272.363	-0.03
272.578	0.85
272.793	0.39
273.008	-0.31
273.223	-0.85
273.438	-1
273.653	-0.71
273.867	-2.21
274.082	-2.85
274.297	-1.6
274.512	-3.43
274.726	-3.71
274.941	-3.9
275.156	-2.78
275.371	-0.98
275.585	-0.84
275.8	0.15
276.015	-0.39
276.229	0.18
276.444	-0.16
276.659	0.19
276.873	3.12
277.088	4.47
277.302	4.81
277.517	4.91
277.732	3.35
277.946	3.01
278.161	2.26
278.375	2.5
278.59	3.1
278.804	3.21
279.019	1.93
279.233	0.84
279.448	-1.3
279.662	-2.72
279.877	-3.51
280.091	-2.45
280.306	-1.44
280.52	-0.87
280.735	-0.68
280.949	-0.33
281.163	0.97
281.378	1.29
281.592	1.4
281.806	3.4
282.021	4.11
282.235	4.14
282.449	2.93
282.664	3.81
282.878	4.22
283.092	3.76
283.307	3.46
283.521	3.36
283.735	3.24
283.949	2.6
284.164	3.2
284.378	3.93
284.592	4.73
284.806	6.62
285.02	5.18
285.234	5.29
285.449	5.73
285.663	5.92
285.877	5.25
286.091	5.44
286.305	5.57
286.519	4.09
286.733	3.47
286.947	3.88
287.161	3.39
287.375	3.54
287.589	4.14
287.803	4.68
288.017	3.94
288.231	4.87
288.445	4.82
288.659	4.2
288.873	4.26
289.087	4.81
289.301	3.34
289.515	3.03
289.729	2.54
289.943	0.61
290.157	-0.77
290.371	-0.6
290.584	-0.42
290.798	-1.12
291.012	-0.08
291.226	-0.41
291.44	-0.71
291.654	-0.8
291.867	-0
292.081	1.3
292.295	3.2
292.509	3.57
292.722	3.49
292.936	1.96
293.15	2.53
293.364	2.67
293.577	4.92
293.791	5.94
294.005	6.73
294.218	6.01
294.432	5.32
294.645	4.53
294.859	5.53
295.073	4.95
295.286	5.62
295.5	6.16
295.713	6.52
295.927	5.62
296.14	4.88
296.354	5.03
296.568	5.41
296.781	6.89
296.994	7.15
297.208	6.72
297.421	8.04
297.635	7.96
297.848	8.03
298.062	8.09
298.275	8.24
298.489	8.29
298.702	8.51
298.915	8.69
299.129	7.63
299.342	7.79
299.555	6.83
299.769	6.21
299.982	6.82
300.195	6.09
300.409	6.37
300.622	6.04
300.835	5.97
301.048	6.11
301.262	5.99
301.475	5.42
301.688	4.04
301.901	4.26
302.115	4.3
302.328	4.12
302.541	5.88
302.754	4.57
302.967	5.44
303.18	6.23
303.393	6.58
303.607	6.58
303.82	6.56
304.033	8.42
304.246	9.03
304.459	9.22
304.672	9.74
304.885	8.75
305.098	9.53
305.311	9.27
305.524	8.59
305.737	7.25
305.95	6.86
306.163	7.5
306.376	6.58
306.589	7.29
306.802	5.74
307.015	4.51
307.228	5.06
307.44	5.56
307.653	5.45
307.866	6.56
308.079	7.46
308.292	9.29
308.505	9.76
308.718	10.44
308.93	10.28
309.143	11.1
309.356	11
309.569	10.78
309.781	11.1
309.994	10.72
310.207	10.2
310.42	9.57
310.632	9.1
310.845	9.07
311.058	9.95
311.27	10.55
311.483	11.49
311.696	12.53
311.908	12.42
312.121	11.09
312.333	11.02
312.546	11.58
312.759	11.47
312.971	10.89
313.184	10.71
313.396	9.09
313.609	8.02
313.821	6.25
314.034	4.57
314.246	5.45
314.459	6.77
314.671	6.95
314.884	6.03
315.096	7.53
315.309	6.78
315.521	6.68
315.733	5.96
315.946	5.67
316.158	6.96
316.371	7.93
316.583	5.94
316.795	5.68
317.008	6.45
317.22	6.47
317.432	5.59
317.644	4.76
317.857	6.13
318.069	7.41
318.281	7.21
318.494	5.98
318.706	5.73
318.918	5.98
319.13	5.15
319.342	5.48
319.555	5.72
319.767	6
319.979	6.39
320.191	6.28
320.403	6.24
320.615	7.98
320.827	8.52
321.039	8.54
321.252	9.96
321.464	11.13
321.676	10.79
321.888	11.25
322.1	11.42
322.312	13.31
322.524	11.49
322.736	13.13
322.948	11.79
323.16	11.47
323.372	11.36
323.584	11.07
323.796	9
324.007	8.34
324.219	8.66
324.431	8.74
324.643	7.5
324.855	9.08
325.067	8.75
325.279	9.82
325.491	11.55
325.702	11.33
325.914	11.34
326.126	12.75
326.338	14.04
326.55	14.37
326.761	15.21
326.973	15.85
327.185	15.95
327.396	15.61
327.608	14.35
327.82	13.29
328.032	14.79
328.243	14.6
328.455	16.28
328.666	16.28
328.878	16.34
329.09	16.19
329.301	17.6
329.513	16.47
329.725	15.95
329.936	17.69
330.148	17.92
330.359	16.85
330.571	17.21
330.782	17.52
330.994	18.76
331.205	18.25
331.417	18.4
331.628	17.48
331.84	17.05
332.051	16.94
332.262	16.84
332.474	17.22
332.685	17.72
332.897	18.77
333.108	17.42
333.319	16.38
333.531	16.79
333.742	16.82
333.953	17.21
334.165	18.26
334.376	19.4
334.587	19.4
334.799	19.78
335.01	19.63
335.221	20.4
335.432	20.62
335.644	21.06
335.855	21.11
336.066	20.98
336.277	21.44
336.488	21.93
336.7	21.92
336.911	22.46
337.122	22.86
337.333	23.65
337.544	22.14
337.755	22.17
337.966	22.57
338.177	22.51
338.388	22.86
338.599	22.29
338.811	22.52
339.022	23.06
339.233	22.12
339.444	21.68
339.655	21.64
339.866	22.06
340.076	22.69
340.287	21.73
340.498	21.9
340.709	22.15
340.92	22.46
341.131	21.7
341.342	21.17
341.553	20.82
341.764	21.29
341.975	21.14
342.185	22.09
342.396	21.63
342.607	21.11
342.818	21.33
343.029	20.84
343.239	20.51
343.45	21.23
343.661	21.53
343.872	21.86
344.082	20.71
344.293	21.01
344.504	19.63
344.714	19.51
344.925	20.32
345.136	20.56
345.346	19.89
345.557	19.59
345.768	19.23
345.978	18.85
346.189	19.85
346.399	20.51
346.61	20.29
346.821	20.71
347.031	20.95
347.242	20.96
347.452	20.62
347.663	20.63
347.873	21.18
348.084	21.22
348.294	20.95
348.504	19.97
348.715	19.66
348.925	19.34
349.136	19.25
349.346	19.28
349.557	19.15
349.767	18.21
349.977	18.57
350.188	17.6
350.398	18.16
350.608	18.74
350.819	18.82
351.029	18.83
351.239	18.38
351.449	18.38
351.66	18.33
351.87	18.83
352.08	19.46
352.29	20.24
352.501	20.94
352.711	20.23
352.921	19.39
353.131	19.83
353.341	20.04
353.552	20
353.762	20.48
353.972	20.44
354.182	19.33
354.392	19.09
354.602	18.78
354.812	19.07
355.022	18.93
355.232	19.17
355.442	18.64
355.652	17.93
355.862	18.35
356.072	17.48
356.282	17.34
356.492	18.05
356.702	18.44
356.912	18.69
357.122	18.04
357.332	18.62
357.542	18.65
357.752	18.59
357.962	19.22
358.171	18.98
358.381	20.17
358.591	20.03
358.801	19.68
359.011	20.01
359.221	19.66
359.43	20.12
359.64	19.5
359.85	19.45
360.06	19.63
360.269	19.86
360.479	20.15
360.689	19.64
360.899	19.76
361.108	19.69
361.318	19.12
361.528	19.14
361.737	19.18
361.947	19.42
362.156	19.18
362.366	19.28
362.576	19.06
362.785	18.88
362.995	19.32
363.204	19.18
363.414	19.39
363.623	19.35
363.833	19.34
364.042	18.95
364.252	19.12
364.461	19.72
364.671	19.48
364.88	19.38
365.09	19.3
365.299	18.63
365.509	18.45
365.718	18.2
365.927	18.12
366.137	18.05
366.346	18.56
366.555	18.32
366.765	17.92
366.974	18.11
367.183	17.74
367.393	18
367.602	17.97
367.811	18.13
368.021	17.77
368.23	17.84
368.439	17.85
368.648	18.2
368.857	18.18
369.067	17.91
369.276	16.92
369.485	16.56
369.694	16.33
369.903	16.22
370.112	16.09
370.321	16.38
370.531	16.32
370.74	16.54
370.949	15.61
371.158	16.14
371.367	16.4
371.576	16.92
371.785	17.84
371.994	17.89
372.203	18.22
372.412	18
372.621	18.24
372.83	18.15
373.039	18.21
373.248	18.66
373.457	17.78
373.666	17.43
373.874	17.26
374.083	16.48
374.292	15.99
374.501	15.65
374.71	15.66
374.919	15.24
375.128	15.61
375.336	15.48
375.545	14.99
375.754	15.48
375.963	15.52
376.171	15.43
376.38	15.88
376.589	16.15
376.798	16.07
377.006	16.33
377.215	15.62
377.424	15.5
377.632	15.53
377.841	15.89
378.05	15.28
378.258	15.72
378.467	15.74
378.675	15.7
378.884	15.01
379.093	14.88
379.301	14.77
379.51	15.75
379.718	15.37
379.927	15.5
380.135	15.3
380.344	15.59
380.552	14.56
380.761	15
380.969	14.76
381.177	15.31
381.386	14.96
381.594	15.53
381.803	15.33
382.011	15.37
382.219	15.11
382.428	15.15
382.636	15.35
382.845	15.97
383.053	15.77
383.261	15.63
383.469	15.19
383.678	15.6
383.886	15.38
384.094	15.2
384.302	15.13
384.511	15.08
384.719	15.11
384.927	14.43
385.135	14.23
385.343	13.83
385.552	14.15
385.76	14.25
385.968	14
386.176	13.52
386.384	13.68
386.592	13.69
386.8	12.96
387.008	12.96
387.216	13.45
387.424	13.36
387.633	13.39
387.841	12.93
388.049	13.3
388.257	13.25
388.465	13.35
388.672	12.92
388.88	12.77
389.088	12.98
389.296	12.5
389.504	12.2
389.712	12.55
389.92	12.73
390.128	13.15
390.336	12.67
390.544	12.72
390.751	12.16
390.959	12.19
391.167	12.45
391.375	12.6
391.583	12.69
391.79	12.74
391.998	12.54
392.206	12.27
392.414	11.54
392.621	11.43
392.829	11.23
393.037	11.78
393.244	12.01
393.452	11.32
393.66	11.32
393.867	11.16
394.075	11.35
394.283	11.02
394.49	10.75
394.698	10.79
394.905	10.93
395.113	11.02
395.32	10.67
395.528	10.07
395.735	10.88
395.943	10.73
396.15	10.74
396.358	10.12
396.565	10.32
396.773	10.58
396.98	10.82
397.188	11.11
397.395	11.18
397.602	11.16
397.81	11.38
398.017	10.9
398.225	10.88
398.432	10.94
398.639	11.08
398.847	11.18
399.054	11.52
399.261	11.44
399.468	11.1
399.676	11.15
399.883	10.87
400.09	10.88
400.297	10.96
400.505	10.66
400.712	10.69
400.919	10.45
401.126	9.9
401.333	9.6
401.54	9.65
401.748	9.45
401.955	9.04
402.162	9.15
402.369	8.96
402.576	8.87
402.783	8.96
402.99	9
403.197	9.2
403.404	9.22
403.611	9.05
403.818	9.12
404.025	9.24
404.232	9.22
404.439	9.45
404.646	9.83
404.853	9.64
405.06	9.59
405.267	9.72
405.474	9.58
405.681	9.96
405.887	9.88
406.094	9.67
406.301	9.77
406.508	9.98
406.715	9.71
406.922	9.59
407.128	9.94
407.335	10.12
407.542	9.69
407.749	10.11
407.955	9.89
408.162	10.36
408.369	10.4
408.575	10.29
408.782	10.32
408.989	10.52
409.195	10.82
409.402	10.74
409.609	10.85
409.815	11.23
410.022	11.01
410.228	10.97
410.435	10.57
410.642	10.66
410.848	10.24
411.055	10.34
411.261	10.18
411.468	9.81
411.674	9.49
411.881	9.55
412.087	9.13
412.294	9.21
412.5	9.33
412.706	9.58
412.913	9.29
413.119	9.48
413.326	9.49
413.532	9.66
413.738	9.64
413.945	9.82
414.151	9.53
414.357	9.96
414.564	10.04
414.77	9.82
414.976	9.57
415.182	9.68
415.389	10
415.595	9.69
415.801	9.64
416.007	9.74
416.214	9.59
416.42	9.81
416.626	9.42
416.832	9.27
417.038	9.55
417.244	9.7
417.45	9.83
417.657	9.59
417.863	9.77
418.069	9.81
418.275	9.64
418.481	9.56
418.687	9.49
418.893	9.72
419.099	9.66
419.305	9.34
419.511	9.26
419.717	9.23
419.923	9.28
420.129	9.19
420.335	9.03
420.541	9.1
420.746	9.21
420.952	9.17
421.158	9.1
421.364	9.14
421.57	9.25
421.776	9.33
421.982	9.16
422.187	9.11
422.393	9.09
422.599	9.12
422.805	9.24
423.01	9.38
423.216	9.31
423.422	9.28
423.628	9.33
423.833	9.43
424.039	9.44
424.245	9.56
424.45	9.67
424.656	9.71
424.862	9.79
425.067	9.7
425.273	9.6
425.478	9.72
425.684	9.86
425.889	9.66
426.095	9.75
426.301	9.58
426.506	9.54
426.712	9.47
426.917	9.53
427.123	9.43
427.328	9.59
427.533	9.54
427.739	9.43
427.944	9.21
428.15	9.24
428.355	8.81
428.561	8.98
428.766	9.07
428.971	8.96
429.177	8.9
429.382	9.04
429.587	8.72
429.793	8.76
429.998	8.83
430.203	8.9
430.408	9.16
430.614	9.3
430.819	9.1
431.024	9.12
431.229	9.32
431.434	9.17
431.64	9.04
431.845	9.16
432.05	9.14
432.255	9.09
432.46	9.22
432.665	8.88
432.87	9.05
433.076	9.24
433.281	9.12
433.486	9.14
433.691	9.03
433.896	9.08
434.101	9.08
434.306	8.89
434.511	8.9
434.716	8.62
434.921	8.95
435.126	8.79
435.331	8.86
435.535	8.91
435.74	8.67
435.945	8.83
436.15	8.68
436.355	8.48
436.56	8.62
436.765	8.55
436.97	8.69
437.174	8.57
437.379	8.64
437.584	8.45
437.789	8.4
437.993	8.55
438.198	8.56
438.403	8.82
438.608	8.93
438.812	9.13
439.017	9.17
439.222	9.22
439.426	9.13
439.631	9.11
439.836	9.12
440.04	9.2
440.245	9.24
440.45	9.33
440.654	9.23
440.859	9.21
441.063	9.15
441.268	8.96
441.472	8.87
441.677	9.01
441.881	9.06
442.086	9.13
442.29	9.06
442.495	9.02
442.699	8.87
442.904	8.84
443.108	8.64
443.312	8.61
443.517	8.82
443.721	8.78
443.925	8.67
444.13	8.67
444.334	8.61
444.538	8.63
444.743	8.61
444.947	8.71
445.151	8.66
445.356	8.82
445.56	8.9
445.764	8.93
445.968	9.02
446.173	9.07
446.377	8.98
446.581	8.93
446.785	8.8
446.989	8.78
447.193	8.7
447.398	8.8
447.602	8.83
447.806	8.6
448.01	8.54
448.214	8.53
448.418	8.33
448.622	8.06
448.826	7.89
449.03	8.07
449.234	8.09
449.438	8
449.642	7.9
449.846	7.76
450.05	7.86
450.254	7.82
450.458	7.73
450.662	7.78
450.866	7.99
451.069	8.36
451.273	8.2
451.477	8.36
451.681	8.52
451.885	8.57
452.089	8.56
452.292	8.72
452.496	8.65
452.7	8.58
452.904	8.73
453.107	8.72
453.311	8.66
453.515	8.77
453.719	8.48
453.922	8.32
454.126	8.22
454.33	8.4
454.533	8.05
454.737	8.2
454.94	8.35
455.144	8.36
455.348	8.5
455.551	8.27
455.755	8.2
455.958	8.25
456.162	8.32
456.365	8.45
456.569	8.47
456.772	8.87
456.976	8.83
457.179	8.84
457.383	8.86
457.586	9.02
457.79	9.1
457.993	9.22
458.196	9.19
458.4	9.29
458.603	9.1
458.807	9.03
459.01	8.79
459.213	8.9
459.417	8.92
459.62	8.71
459.823	8.59
460.026	8.55
460.23	8.47
460.433	8.51
460.636	8.5
460.839	8.64
461.042	8.59
461.246	8.6
461.449	8.47
461.652	8.26
461.855	8.51
462.058	8.38
462.261	8.38
462.464	8.42
462.668	8.51
462.871	8.4
463.074	8.35
463.277	8.48
463.48	8.33
463.683	8.18
463.886	8.32
464.089	8.12
464.292	8.2
464.495	8.33
464.698	8.37
464.901	8.26
465.104	8.15
465.306	8.04
465.509	7.87
465.712	8.01
465.915	8.12
466.118	8.11
466.321	8.09
466.524	8.12
466.726	7.95
466.929	7.77
467.132	7.71
467.335	7.73
467.538	7.93
467.74	7.8
467.943	7.83
468.146	7.84
468.348	7.98
468.551	8.17
468.754	8.17
468.956	8.38
469.159	8.34
469.362	8.61
469.564	8.72
469.767	8.62
469.969	8.94
470.172	9.03
470.375	9.04
470.577	8.9
470.78	8.61
470.982	8.69
471.185	8.7
471.387	8.85
471.59	8.66
471.792	8.53
471.995	8.55
472.197	8.34
472.399	8.11
472.602	7.91
472.804	7.8
473.007	7.93
473.209	7.88
473.411	7.69
473.614	7.57
473.816	7.43
474.018	7.51
474.22	7.45
474.423	7.56
474.625	7.88
474.827	7.99
475.03	8.06
475.232	8.14
475.434	8.41
475.636	8.63
475.838	8.69
476.04	8.9
476.243	8.81
476.445	8.93
476.647	8.72
476.849	8.68
477.051	8.84
477.253	8.75
477.455	8.51
477.657	8.24
477.859	8.13
478.061	8.15
478.263	8.07
478.465	8.15
478.667	8.1
478.869	8.22
479.071	8.08
479.273	8.03
479.475	8.01
479.677	8.14
479.879	8.16
480.081	8.2
480.283	8
480.485	7.93
480.686	7.99
480.888	8.01
481.09	8.04
481.292	8.25
481.494	8.24
481.695	8.36
481.897	8.45
482.099	8.47
482.301	8.43
482.502	8.6
482.704	8.72
482.906	8.78
483.107	8.72
483.309	8.68
483.511	8.67
483.712	8.7
483.914	8.67
484.115	8.66
484.317	8.69
484.519	8.67
484.72	8.62
484.922	8.55
485.123	8.52
485.325	8.51
485.526	8.54
485.728	8.5
485.929	8.45
486.131	8.46
486.332	8.41
486.534	8.32
486.735	8.36
486.936	8.37
487.138	8.44
487.339	8.36
487.541	8.43
487.742	8.48
487.943	8.51
488.144	8.55
488.346	8.57
488.547	8.53
488.748	8.53
488.95	8.57
489.151	8.54
489.352	8.5
489.553	8.57
489.755	8.49
489.956	8.42
490.157	8.38
490.358	8.33
490.559	8.38
490.76	8.42
490.961	8.46
491.163	8.44
491.364	8.49
491.565	8.54
491.766	8.58
491.967	8.59
492.168	8.67
492.369	8.62
492.57	8.56
492.771	8.43
492.972	8.43
493.173	8.42
493.374	8.44
493.575	8.4
493.776	8.28
493.976	8.15
494.177	8.02
494.378	7.92
494.579	7.98
494.78	8.1
494.981	8.31
495.182	8.58
495.382	8.71
495.583	8.6
495.784	8.63
495.985	8.68
496.185	8.46
496.386	8.61
496.587	8.53
496.788	8.46
496.988	8.47
497.189	8.53
497.39	8.36
497.59	8.31
497.791	8.34
497.992	8.39
498.192	8.39
498.393	8.64
498.593	8.59
498.794	8.52
498.994	8.55
499.195	8.31
499.395	8.29
499.596	8.28
499.796	8.24
499.997	8.31
500.197	8.2
500.398	8.16
500.598	8.14
500.799	8.39
500.999	8.39
501.199	8.35
501.4	8.59
501.6	8.45
501.801	8.44
502.001	8.49
502.201	8.57
502.402	8.54
502.602	8.54
502.802	8.43
503.002	8.33
503.203	8.47
503.403	8.64
503.603	8.66
503.803	8.65
504.003	8.63
504.204	8.66
504.404	8.66
504.604	8.77
504.804	8.78
505.004	8.77
505.204	8.45
505.404	8.59
505.604	8.4
505.804	8.44
506.005	8.49
506.205	8.63
506.405	8.57
506.605	8.42
506.805	8.4
507.005	8.44
507.204	8.64
507.404	8.83
507.604	8.63
507.804	8.8
508.004	8.69
508.204	8.71
508.404	8.62
508.604	8.68
508.804	8.72
509.003	8.83
509.203	8.93
509.403	8.96
509.603	8.97
509.803	9.13
510.002	8.97
510.202	9
510.402	9.02
510.602	9.06
510.801	9.05
511.001	9.03
511.201	9.03
511.4	8.94
511.6	8.82
511.8	8.89
511.999	8.83
512.199	8.97
512.398	9.04
512.598	9.02
512.797	9.09
512.997	9.16
513.197	9.27
513.396	9.2
513.596	9.33
513.795	9.58
513.994	9.49
514.194	9.55
514.393	9.65
514.593	9.72
514.792	9.75
514.992	9.86
515.191	9.83
515.39	9.89
515.59	9.94
515.789	9.83
515.988	9.78
516.188	10
516.387	10.22
516.586	10.2
516.786	10.22
516.985	10.34
517.184	10.32
517.383	10.29
517.582	10.31
517.782	10.52
517.981	10.6
518.18	10.72
518.379	10.81
518.578	10.69
518.777	10.64
518.976	10.68
519.176	10.65
519.375	10.68
519.574	10.85
519.773	10.88
519.972	10.85
520.171	10.93
520.37	10.97
520.569	10.98
520.768	11.04
520.967	11.22
521.166	11.37
521.365	11.57
521.564	11.64
521.762	11.67
521.961	11.7
522.16	11.79
522.359	11.93
522.558	11.93
522.757	11.89
522.956	12.03
523.154	12.12
523.353	12.07
523.552	12.18
523.751	12.3
523.949	12.41
524.148	12.64
524.347	12.58
524.546	12.66
524.744	12.77
524.943	12.9
525.142	12.88
525.34	12.95
525.539	12.97
525.737	13.04
525.936	13.03
526.135	13.12
526.333	13.12
526.532	13.27
526.73	13.35
526.929	13.25
527.127	13.33
527.326	13.47
527.524	13.53
527.723	13.78
527.921	13.78
528.12	13.87
528.318	13.89
528.516	13.97
528.715	14.03
528.913	14.06
529.112	14.18
529.31	14.33
529.508	14.39
529.707	14.44
529.905	14.38
530.103	14.47
530.301	14.5
530.5	14.62
530.698	14.61
530.896	14.69
531.094	14.76
531.293	14.89
531.491	14.83
531.689	14.92
531.887	15.02
532.085	15.19
532.283	15.31
532.481	15.48
532.68	15.62
532.878	15.8
533.076	15.88
533.274	15.95
533.472	15.98
533.67	16.13
533.868	16.19
534.066	16.23
534.264	16.28
534.462	16.41
534.66	16.51
534.858	16.48
535.056	16.44
535.253	16.44
535.451	16.52
535.649	16.71
535.847	16.73
536.045	16.82
536.243	17.01
536.441	17.15
536.638	17.2
536.836	17.21
537.034	17.31
537.232	17.46
537.43	17.58
537.627	17.73
537.825	17.66
538.023	17.74
538.22	17.83
538.418	17.85
538.616	17.81
538.813	17.74
539.011	17.8
539.209	17.83
539.406	17.91
539.604	18.08
539.801	18.19
539.999	18.35
540.196	18.46
540.394	18.56
540.591	18.7
540.789	18.75
540.986	18.92
541.184	18.98
541.381	19.05
541.579	19.12
541.776	19.21
541.974	19.17
542.171	19.28
542.368	19.35
542.566	19.38
542.763	19.49
542.96	19.5
543.158	19.62
543.355	19.82
543.552	19.94
543.75	20.05
543.947	20.01
544.144	20.21
544.341	20.25
544.539	20.27
544.736	20.38
544.933	20.25
545.13	20.48
545.327	20.37
545.524	20.32
545.722	20.32
545.919	20.37
546.116	20.48
546.313	20.29
546.51	20.22
546.707	20.29
546.904	20.22
547.101	20.42
547.298	20.43
547.495	20.54
547.692	20.55
547.889	20.66
548.086	20.7
548.283	20.8
548.48	20.99
548.677	21.07
548.874	21.02
549.07	21.06
549.267	21.22
549.464	21.34
549.661	21.26
549.858	21.4
550.055	21.48
550.251	21.53
550.448	21.58
550.645	21.74
550.842	21.84
551.038	22.01
551.235	22.29
551.432	22.06
551.628	22.09
551.825	22.3
552.022	22.27
552.218	22.24
552.415	22.27
552.612	22.21
552.808	22.22
553.005	22.37
553.201	22.34
553.398	22.19
553.594	22.27
553.791	22.44
553.987	22.44
554.184	22.52
554.38	22.46
554.577	22.52
554.773	22.79
554.97	22.87
555.166	22.94
555.362	23.06
555.559	23.1
555.755	23.18
555.952	23.07
556.148	23.05
556.344	23.14
556.541	23.43
556.737	23.49
556.933	23.25
557.129	23.23
557.326	23.31
557.522	23.55
557.718	23.59
557.914	23.79
558.11	24.05
558.307	24.18
558.503	24.13
558.699	24.08
558.895	24.01
559.091	23.94
559.287	24.16
559.483	24.1
559.679	23.96
559.876	24.07
560.072	24.08
560.268	23.69
560.464	23.77
560.66	24.12
560.856	24.11
561.052	24.47
561.247	24.65
561.443	24.69
561.639	24.98
561.835	24.98
562.031	25.2
562.227	25.26
562.423	25.32
562.619	25.47
562.815	25.29
563.01	25.4
563.206	25.5
563.402	25.54
563.598	25.44
563.793	25.14
563.989	25.38
564.185	25.28
564.381	25.29
564.576	25.52
564.772	25.24
564.968	25.18
565.163	25.26
565.359	25.17
565.555	25.42
565.75	25.63
565.946	25.79
566.141	25.61
566.337	25.69
566.532	25.61
566.728	25.77
566.923	25.94
567.119	25.96
567.314	25.88
567.51	25.77
567.705	25.73
567.901	25.59
568.096	25.62
568.292	25.99
568.487	26.14
568.682	26.2
568.878	26.08
569.073	26.14
569.268	26.55
569.464	26.56
569.659	26.64
569.854	26.71
570.05	26.95
570.245	27.25
570.44	27.07
570.635	26.96
570.831	27.04
571.026	26.98
571.221	27.02
571.416	26.99
571.611	27.16
571.806	27.2
572.002	27.28
572.197	27.2
572.392	27.03
572.587	26.94
572.782	27.05
572.977	27.22
573.172	27.37
573.367	27.35
573.562	27.15
573.757	27.2
573.952	27.13
574.147	27.16
574.342	27.29
574.537	27.32
574.732	27.63
574.927	27.65
575.121	27.61
575.316	27.54
575.511	27.68
575.706	27.82
575.901	27.78
576.096	27.95
576.29	27.97
576.485	27.95
576.68	27.98
576.875	27.97
577.069	27.86
577.264	27.86
577.459	27.91
577.654	28.2
577.848	28.16
578.043	28.27
578.238	28.35
578.432	28.16
578.627	28.32
578.821	28.27
579.016	28.04
579.21	28.27
579.405	28.34
579.6	28.54
579.794	28.2
579.989	28.27
580.183	27.97
580.378	27.98
580.572	28.15
580.766	28
580.961	28
581.155	28.13
581.35	28
581.544	28.06
581.738	27.95
581.933	28.13
582.127	28
582.321	28.43
582.516	28.21
582.71	28.27
582.904	28.14
583.099	28.17
583.293	28.32
583.487	28.37
583.681	28.22
583.875	28.19
584.07	27.99
584.264	28.3
584.458	28.18
584.652	28.3
584.846	28.11
585.04	28.07
585.234	28.27
585.428	28.17
585.623	28.38
585.817	28.4
586.011	28.39
586.205	28.54
586.399	28.57
586.593	28.35
586.787	28.43
586.981	28.64
587.174	28.91
587.368	28.67
587.562	28.75
587.756	28.51
587.95	28.51
588.144	28.77
588.338	28.86
588.532	28.82
588.725	29.23
588.919	29.44
589.113	29.47
589.307	29.46
589.501	29.6
589.694	29.66
589.888	30.01
590.082	29.92
590.275	29.97
590.469	29.65
590.663	29.47
590.856	29.44
591.05	29.49
591.244	29.48
591.437	29.52
591.631	29.33
591.824	29.57
592.018	29.4
592.212	29.35
592.405	29.25
592.599	29.61
592.792	29.44
592.986	29.43
593.179	29.32
593.372	29.28
593.566	29.39
593.759	29.63
593.953	29.62
594.146	29.51
594.339	29.84
594.533	30.05
594.726	29.96
594.92	30.33
595.113	30.39
595.306	30.29
595.499	30.62
595.693	30.52
595.886	30.5
596.079	30.25
596.272	30.39
596.466	30.52
596.659	30.42
596.852	30.5
597.045	30.42
597.238	30.41
597.431	30.7
597.624	30.49
597.818	30.5
598.011	30.72
598.204	30.98
598.397	31.06
598.59	30.92
598.783	31.16
598.976	31.22
599.169	31.5
599.362	31.6
599.555	31.32
599.748	31.43
599.941	31.39
600.134	31.25
600.326	31.1
600.519	30.98
600.712	31.08
600.905	30.56
601.098	30.46
601.291	30.06
601.483	29.88
601.676	29.91
601.869	29.74
602.062	29.96
602.255	30
602.447	29.93
602.64	30.21
602.833	30.32
603.025	30.46
603.218	30.46
603.411	30.85
603.603	31.23
603.796	31.23
603.989	31.4
604.181	31.51
604.374	31.66
604.566	31.78
604.759	31.48
604.951	31.44
605.144	31.63
605.336	31.87
605.529	31.76
605.721	31.65
605.914	31.71
606.106	31.78
606.299	31.65
606.491	31.53
606.683	31.76
606.876	32.18
607.068	32.34
607.26	32.29
607.453	32.31
607.645	32.47
607.837	32.35
608.03	32.65
608.222	32.69
608.414	32.77
608.606	32.67
608.799	32.33
608.991	32.23
609.183	32.35
609.375	32.52
609.567	32.76
609.759	32.85
609.952	32.85
610.144	32.86
610.336	33.2
610.528	33.3
610.72	33.25
610.912	33.46
611.104	33.6
611.296	33.37
611.488	33.32
611.68	32.9
611.872	32.7
612.064	32.87
612.256	32.63
612.448	32.13
612.64	31.81
612.832	32.03
613.023	32.11
613.215	31.81
613.407	31.77
613.599	31.84
613.791	32.04
613.983	31.9
614.174	31.87
614.366	31.94
614.558	32.19
614.75	32.42
614.941	32.6
615.133	32.23
615.325	32.49
615.516	32.46
615.708	32.23
615.9	32.22
616.091	32.42
616.283	32.42
616.475	32.48
616.666	32.46
616.858	32.27
617.049	32.05
617.241	32.31
617.432	32.31
617.624	32.27
617.815	32.19
618.007	32.31
618.198	32.26
618.39	32.14
618.581	32.23
618.773	31.92
618.964	32.16
619.155	32.63
619.347	32.61
619.538	32.57
619.729	32.95
619.921	33.44
620.112	33.34
620.303	33.37
620.494	33.52
620.686	33.66
620.877	34.02
621.068	34.09
621.259	33.61
621.451	33.57
621.642	33.3
621.833	33.07
622.024	32.98
622.215	32.92
622.406	32.93
622.597	32.98
622.788	32.84
622.98	32.43
623.171	32.7
623.362	32.88
623.553	33.21
623.744	33.54
623.935	33.62
624.126	33.58
624.317	33.28
624.508	33.6
624.698	33.36
624.889	33.17
625.08	33.37
625.271	33.26
625.462	33.4
625.653	33.48
625.844	33.28
626.034	33.28
626.225	33.28
626.416	33.67
626.607	33.39
626.798	33.53
626.988	33.87
627.179	34.02
627.37	34.26
627.56	34.07
627.751	34.01
627.942	34.2
628.132	34.29
628.323	34.21
628.514	34.3
628.704	34.56
628.895	34.34
629.085	34.26
629.276	34.41
629.466	34.36
629.657	34.3
629.847	34.08
630.038	33.99
630.228	34.14
630.419	34.37
630.609	34.39
630.8	34.36
630.99	34.52
631.181	34.41
631.371	34.38
631.561	34.04
631.752	34.41
631.942	34.56
632.132	34.75
632.323	34.45
632.513	34.45
632.703	33.97
632.893	33.85
633.084	34.07
633.274	34.22
633.464	34.18
633.654	34.49
633.844	34.54
634.034	34.68
634.225	34.68
634.415	34.84
634.605	34.58
634.795	34.96
634.985	35.17
635.175	35.19
635.365	34.95
635.555	34.92
635.745	34.55
635.935	34.34
636.125	34.34
636.315	34.18
636.505	34.18
636.695	34.17
636.885	34.06
637.075	33.75
637.265	33.93
637.455	34.04
637.644	34.11
637.834	34.23
638.024	34.12
638.214	34.19
638.404	34.36
638.593	34.3
638.783	34.19
638.973	34.43
639.163	34.46
639.352	34.04
639.542	34.05
639.732	34.02
639.921	33.8
640.111	33.54
640.301	32.89
640.49	32.81
640.68	33.03
640.87	33.41
641.059	32.71
641.249	32.81
641.438	33.04
641.628	32.81
641.817	33.07
642.007	33.35
642.196	34.05
642.386	34.53
642.575	34.21
642.764	34.23
642.954	34.06
643.143	34.68
643.333	35.19
643.522	34.77
643.711	35.29
643.901	35.09
644.09	35.01
644.279	34.78
644.469	34.88
644.658	34.85
644.847	34.69
645.036	34.88
645.226	34.96
645.415	34.51
645.604	35.1
645.793	35.03
645.982	34.92
646.171	35.15
646.361	34.83
646.55	34.63
646.739	34.81
646.928	34.71
647.117	34.95
647.306	34.87
647.495	35.2
647.684	34.79
647.873	34.49
648.062	34.11
648.251	33.92
648.44	33.81
648.629	34.07
648.818	34.43
649.007	34.84
649.196	34.54
649.384	34.35
649.573	34.21
649.762	34.7
649.951	35.02
650.14	35.29
650.328	35.35
650.517	35.79
650.706	35.48
650.895	35.34
651.083	35.12
651.272	35.06
651.461	35.79
651.65	35.46
651.838	35.43
652.027	35.23
652.216	35.41
652.404	35.44
652.593	35.4
652.781	35.4
652.97	35.19
653.158	34.94
653.347	34.8
653.535	34.2
653.724	34.43
653.912	34.12
654.101	34.55
654.289	34.42
654.478	34.29
654.666	34.09
654.855	34.1
655.043	34.1
655.231	34.16
655.42	34.12
655.608	34.11
655.796	34.17
655.985	34.56
656.173	33.97
656.361	34.16
656.55	34.37
656.738	34.59
656.926	34.69
657.114	34.53
657.302	34.51
657.491	34.55
657.679	34.59
657.867	34.83
658.055	34.58
658.243	34.45
658.431	34.22
658.619	34.44
658.807	34.41
658.996	34.39
659.184	34.69
659.372	34.98
659.56	34.81
659.748	35.2
659.936	34.9
660.124	34.9
660.311	35.34
660.499	35.66
660.687	35.59
660.875	35.61
661.063	35.84
661.251	35.94
661.439	35.65
661.627	36.11
661.814	36.27
662.002	36.57
662.19	36.56
662.378	36.38
662.565	36.4
662.753	36.21
662.941	36.19
663.129	36.11
663.316	36.19
663.504	36.45
663.692	36.27
663.879	35.59
664.067	35.23
664.254	35.67
664.442	35.87
664.63	35.32
664.817	35.64
665.005	35.6
665.192	35.36
665.38	35.23
665.567	35.34
665.755	35.49
665.942	35.35
666.13	35.42
666.317	35.35
666.504	35.13
666.692	35.46
666.879	35.29
667.067	35.72
667.254	36.02
667.441	36.21
667.629	36.21
667.816	36.44
668.003	36.61
668.19	36.87
668.378	36.75
668.565	36.92
668.752	36.75
668.939	36.84
669.127	36.26
669.314	35.99
669.501	35.98
669.688	35.89
669.875	35.53
670.062	35.5
670.249	35.45
670.436	35.21
670.623	35.27
670.81	35.5
670.997	35.34
671.184	35.36
671.371	35.64
671.558	35.25
671.745	35.52
671.932	35.42
672.119	35.5
672.306	35.27
672.493	35.46
672.68	35.47
672.867	35.45
673.054	35.2
673.24	35.35
673.427	35.09
673.614	35.31
673.801	35.1
673.988	35.27
674.174	35.1
674.361	35.09
674.548	35.36
674.734	35.65
674.921	35.48
675.108	36
675.294	36.18
675.481	36.16
675.668	36.13
675.854	35.87
676.041	35.83
676.227	36.35
676.414	36.17
676.601	35.5
676.787	35.14
676.974	34.57
677.16	34.18
677.347	34.23
677.533	34.72
677.719	34.75
677.906	35.08
678.092	35.67
678.279	35.74
678.465	36.05
678.651	36.45
678.838	36.37
679.024	37.36
679.21	37.47
679.397	37.81
679.583	37.52
679.769	37.67
679.955	37.51
680.142	37.08
680.328	37.05
680.514	37.06
680.7	36.91
680.886	37.17
681.073	36.84
681.259	36.47
681.445	35.66
681.631	35.5
681.817	35.23
682.003	34.96
682.189	35.02
682.375	34.52
682.561	34.57
682.747	34.74
682.933	34.24
683.119	33.95
683.305	34.35
683.491	35
683.677	35.35
683.863	35.51
684.049	35.58
684.235	35.58
684.42	35.79
684.606	35.74
684.792	35.24
684.978	35.62
685.164	36.09
685.349	36.46
685.535	36.26
685.721	36.35
685.907	36.4
686.092	37.43
686.278	37.55
686.464	37.75
686.649	37.42
686.835	37.91
687.021	37.91
687.206	38.01
687.392	37.62
687.577	37.74
687.763	37.79
687.948	37.8
688.134	37.44
688.319	37.18
688.505	37.03
688.69	37.15
688.876	37.02
689.061	37.35
689.247	37.19
689.432	37.05
689.618	37.34
689.803	37.05
689.988	36.87
690.174	36.54
690.359	36.46
690.544	35.91
690.73	36.21
690.915	36.41
691.1	36.15
691.285	36.19
691.471	36.05
691.656	36.01
691.841	36.4
692.026	36.17
692.211	35.71
692.396	35.98
692.582	37.07
692.767	36.73
692.952	36.26
693.137	35.65
693.322	35.4
693.507	35.95
693.692	35.45
693.877	35.36
694.062	36.09
694.247	36.79
694.432	37.46
694.617	36.23
694.802	36.35
694.987	37.2
695.172	37.96
695.357	38.42
695.541	38.68
695.726	38.94
695.911	38.9
696.096	38.18
696.281	38.32
696.466	37.82
696.65	38.72
696.835	38.61
697.02	37.86
697.204	37.14
697.389	36.7
697.574	36.19
697.759	35.97
697.943	35.92
698.128	36.57
698.312	35.84
698.497	35.92
698.682	35.93
698.866	36.35
699.051	36.51
699.235	36.71
699.42	36.89
699.604	36.9
699.789	36.86
699.973	36.94
700.158	37.13
700.342	37.85
700.527	37.81
700.711	37.82
700.895	37.22
701.08	37.1
701.264	37.55
701.448	37.48
701.633	37.73
701.817	37.55
702.001	37.31
702.186	36.51
702.37	36.64
702.554	36.37
702.738	36.57
702.923	37.29
703.107	37.34
703.291	36.77
703.475	36.77
703.659	36.38
703.843	36.99
704.027	37.8
704.212	37.75
704.396	37.05
704.58	37.05
704.764	36.86
704.948	36.45
705.132	36.16
705.316	36.71
705.5	37.07
705.684	36.85
705.868	37.07
706.052	36.46
706.235	36.56
706.419	37.16
706.603	37.62
706.787	37.49
706.971	37.26
707.155	38
707.339	37.51
707.522	37.46
707.706	37.47
707.89	37.29
708.074	37.83
708.257	37.96
708.441	37.05
708.625	36.84
708.808	36.92
708.992	37.28
709.176	37.31
709.359	37.53
709.543	37.54
709.727	38.1
709.91	38.07
710.094	37.09
710.277	37.56
710.461	37.91
710.644	37.52
710.828	37.28
711.011	37.18
711.195	36.52
711.378	36.59
711.562	36.32
711.745	36
711.928	36.23
712.112	37.15
712.295	36.58
712.478	36.99
712.662	37.17
712.845	37.09
713.028	36.92
713.212	37.74
713.395	37.71
713.578	37.91
713.761	38.22
713.945	37.84
714.128	36.91
714.311	37.17
714.494	37.18
714.677	36.94
714.86	37.5
715.043	37.19
715.227	36.67
715.41	36.93
715.593	36.37
715.776	36.08
715.959	35.86
716.142	36.11
716.325	35.68
716.508	35.25
716.691	35.43
716.874	34.3
717.057	34.84
717.239	35.04
717.422	34.45
717.605	34.9
717.788	35.81
717.971	35.89
718.154	35.84
718.337	36.26
718.519	36.18
718.702	36.22
718.885	37.7
719.068	37.2
719.25	36.57
719.433	37.16
719.616	37.54
719.798	37.42
719.981	36.73
720.164	36.79
720.346	37.44
720.529	37.34
720.712	37.65
720.894	37.05
721.077	37.13
721.259	36.68
721.442	35.8
721.624	35.19
721.807	34.7
721.989	35.87
722.172	36.65
722.354	35.69
722.537	36.03
722.719	35.95
722.901	36.6
723.084	36.82
723.266	38.48
723.448	39.22
723.631	40.24
723.813	40.26
723.995	38.91
724.178	37.97
724.36	38.49
724.542	38.25
724.724	37.29
724.907	36.63
725.089	37.65
725.271	37.86
725.453	37.54
725.635	35.93
725.817	34.85
725.999	35.81
726.181	36.03
726.364	35.75
726.546	36.18
726.728	37.19
726.91	37.33
727.092	35.93
727.274	35.22
727.456	34.85
727.638	35.86
727.819	36.93
728.001	37.36
728.183	37.54
728.365	37.56
728.547	37.49
728.729	37.28
728.911	36.45
729.093	37.09
729.274	36.81
729.456	36.94
729.638	36.93
729.82	36.94
730.001	36.69
730.183	36.8
730.365	36.86
730.546	37.04
730.728	37.8
730.91	38.59
731.091	37.46
731.273	37.95
731.455	37.94
731.636	37.65
731.818	37.74
731.999	38.43
732.181	38.9
732.362	38.71
732.544	38.55
732.725	37.82
732.907	37.4
733.088	38.47
733.27	38.39
733.451	38.47
733.633	37.97
733.814	36.88
733.995	36.39
734.177	34.62
734.358	36.06
734.539	35.55
734.721	34.99
734.902	35.59
735.083	35.56
735.264	35.5
735.446	36.02
735.627	37.01
735.808	37.66
735.989	36.68
736.17	38.26
736.351	36.02
736.533	36.03
736.714	35.86
736.895	35.18
737.076	35.06
737.257	35.22
737.438	34.49
737.619	33.05
737.8	33.61
737.981	34.09
738.162	33.23
738.343	34.41
738.524	34.66
738.705	34.77
738.886	34.75
739.067	34.23
739.247	34.5
739.428	34.4
739.609	35.13
739.79	35.58
739.971	36.12
740.151	36.4
740.332	36.08
740.513	36
740.694	36.21
740.874	36.7
741.055	36.57
741.236	36.14
741.417	36.71
741.597	37.1
741.778	36.44
741.958	35.57
742.139	35.78
742.32	35.83
742.5	35.44
742.681	36.26
742.861	35.07
743.042	35.19
743.222	35.36
743.403	34.41
743.583	34.03
743.764	32.85
743.944	33.2
744.124	32.81
744.305	32.44
744.485	32.88
744.666	32.3
744.846	33.11
745.026	33.96
745.207	33.2
745.387	33.62
745.567	32.64
745.747	32.95
745.928	34.04
746.108	33.39
746.288	34.7
746.468	35
746.648	35.67
746.829	36.34
747.009	35.56
747.189	36.49
747.369	36.32
747.549	36.84
747.729	36.85
747.909	36.63
748.089	37.33
748.269	35.63
748.449	35.32
748.629	34.77
748.809	33.99
748.989	36.32
749.169	36.19
749.349	35.94
749.529	36.15
749.709	36.65
749.889	36.31
750.068	35.35
750.248	35.89
750.428	35.76
750.608	35.74
750.788	36.42
750.967	33.99
751.147	33.05
751.327	34.94
751.507	35.83
751.686	35.14
751.866	34.62
752.046	35.49
752.225	35.73
752.405	36.02
752.585	36.74
752.764	36.15
752.944	36.88
753.123	37.8
753.303	35.67
753.482	35.4
753.662	35.97
753.841	37.17
754.021	37.55
754.2	37.54
754.38	37.7
754.559	36.89
754.739	37.33
754.918	36.79
755.097	36.13
755.277	36.61
755.456	35.89
755.635	35.46
755.815	34.44
755.994	34.79
756.173	35.39
756.352	35.8
756.532	36.1
756.711	35.43
756.89	36.12
757.069	37
757.248	36.87
757.427	38.35
757.607	39
757.786	39.99
757.965	39.18
758.144	38.8
758.323	38.58
758.502	39.58
758.681	39.89
758.86	39.93
759.039	39.73
759.218	40.7
759.397	40.17
759.576	40.16
759.755	38.94
759.934	39.77
760.113	38.92
760.291	38.57
760.47	37.37
760.649	37.45
760.828	37.44
761.007	36.85
761.186	36.87
761.364	36.64
761.543	37.04
761.722	37.86
761.901	38.08
762.079	39.37
762.258	39.56
762.437	40.77
762.615	40.6
762.794	40.41
762.972	40.8
763.151	40.54
763.33	40.54
763.508	40.76
763.687	40.49
763.865	39.22
764.044	38.71
764.222	37.81
764.401	37.07
764.579	37.63
764.758	37.98
764.936	38.05
765.114	38.2
765.293	38.08
765.471	37.6
765.65	37.04
765.828	37.72
766.006	37.34
766.184	38.39
766.363	37.99
766.541	37.48
766.719	37.17
766.898	36.65
767.076	35.62
767.254	36.15
767.432	35.57
767.61	35.5
767.788	35.62
767.967	35.25
768.145	35.59
768.323	36.84
768.501	37.77
768.679	38.04
768.857	37.82
769.035	38.19
769.213	38.05
769.391	38.64
769.569	39.58
769.747	38.28
769.925	38.63
770.103	38.66
770.281	36.3
770.459	33.97
770.636	34.77
770.814	36.77
770.992	38.1
771.17	37.6
771.348	37.34
771.525	37.13
771.703	37.73
771.881	38.03
772.059	36.3
772.236	35.95
772.414	35.47
772.592	33.62
772.769	30.96
772.947	29.82
773.125	29.23
773.302	29.31
773.48	30.79
773.657	31.72
773.835	32.04
774.013	31.99
774.19	33.01
774.368	34.1
774.545	33.58
774.723	31.16
774.9	31.05
775.077	30.08
775.255	30.04
775.432	28.44
775.61	29.5
775.787	26.71
775.964	28.1
776.142	29.82
776.319	30.54
776.496	30.79
776.674	35.3
776.851	35.62
777.028	34.67
777.205	35.76
777.382	34.3
777.56	32.43
777.737	32.79
777.914	30.61
778.091	30.01
778.268	28.11
778.445	27.8
778.622	27.23
778.8	28.99
778.977	33.14
779.154	30.65
779.331	31.58
779.508	32.46
779.685	32.36
779.862	33.29
780.038	34.39
780.215	34.87
780.392	35.4
780.569	33.14
780.746	33.57
780.923	32.13
781.1	32.38
781.277	33.96
781.453	33.29
781.63	35.17
781.807	36.49
781.984	34.55
782.16	34.93
782.337	35.3
782.514	35.98
782.691	33.01
782.867	32.23
783.044	32.3
783.221	30.33
783.397	29.12
783.574	28.34
783.75	27.68
783.927	28.84
784.103	31.27
784.28	31.15
784.456	31.7
784.633	33.36
784.809	33.26
784.986	36.56
785.162	36.44
785.339	37.9
785.515	37.66
785.692	38.27
785.868	37.84
786.044	34.7
786.221	32.73
786.397	33.64
786.573	33.08
786.749	35.26
786.926	32.68
787.102	34.14
787.278	35.59
787.454	38.87
787.631	36.58
787.807	36
787.983	36.84
788.159	38.15
788.335	35.56
788.511	34.85
788.687	32.05
788.863	31.95
789.039	33.98
789.216	30.6
789.392	28.32
789.568	27.73
789.744	29.47
789.919	31.48
790.095	32.19
790.271	35.08
790.447	33.98
790.623	36.46
790.799	39.36
790.975	35.55
791.151	36.53
791.327	39.53
791.502	40.82
791.678	37.24
791.854	32.7
792.03	32.08
792.205	31.95
792.381	31.28
792.557	30.2
792.733	28.56
792.908	30.34
793.084	34.23
793.259	31.68
793.435	31.79
793.611	35.08
793.786	36.53
793.962	36.06
794.137	34.93
794.313	37.22
794.488	36.89
794.664	36.18
794.839	34.45
795.015	28.81
795.19	27.07
795.366	26.5
795.541	25.31
795.716	27.23
795.892	27.41
796.067	26.33
796.242	27.64
796.418	26.99
796.593	27.34
796.768	27.69
796.944	30.7
797.119	31.95
797.294	31.64
797.469	33.94
797.644	34.77
797.82	32.65
797.995	34.55
798.17	33.59
798.345	34
798.52	34.27
798.695	34.92
798.87	32.93
799.045	33.93
799.22	35.13
799.395	32.56
799.57	32.83
799.745	34.66
799.92	33.43
800.095	33.63
800.27	34.68
800.445	33.51
800.62	31.99
800.795	32.87
800.97	31.11
801.145	33.31
801.319	32.59
801.494	27.87
801.669	29.39
801.844	29.53
802.018	29.72
802.193	28.51
802.368	29.05
802.543	28.25
802.717	31.01
802.892	34.29
803.067	33.03
803.241	36.64
803.416	40.69
803.59	37.79
803.765	37.76
803.94	38.42
804.114	38.33
804.289	37.38
804.463	38.73
804.638	34.96
804.812	31.73
804.986	34.44
805.161	31.39
805.335	31.2
805.51	31.97
805.684	33.79
805.858	33.48
806.033	31.2
806.207	30.52
806.381	32.05
806.556	35.64
806.73	40.06
806.904	36.32
807.078	35.15
807.253	32.41
807.427	33.81
807.601	32.03
807.775	30.49
807.949	31.18
808.123	32.15
808.298	32.67
808.472	32.04
808.646	25.65
808.82	26.77
808.994	29
809.168	33.79
809.342	34.98
809.516	35.18
809.69	36.72
809.864	38.24
810.038	38.15
810.212	34.4
810.385	33.88
810.559	36.57
810.733	32.93
810.907	29.39
811.081	26.5
811.255	21.29
811.428	18.89
811.602	16.97
811.776	18.31
811.95	16.65
812.123	20.93
812.297	22.23
812.471	20.58
812.644	22.58
812.818	27.99
812.992	25.52
813.165	28.59
813.339	32.64
813.512	28.35
813.686	31.24
813.86	34.06
814.033	29.14
814.207	30.97
814.38	33.27
814.554	36.2
814.727	34.35
814.9	34.38
815.074	34.88
815.247	33.12
815.421	40.06
815.594	37.75
815.767	34.04
815.941	38.42
816.114	32.12
816.287	32.9
816.46	29.17
816.634	27.3
816.807	27.52
816.98	32.33
817.153	35.22
817.327	34.31
817.5	34.04
817.673	33.53
817.846	32.14
818.019	35.11
818.192	32.74
818.365	27.94
818.538	32.14
818.711	37.06
818.884	32.75
819.057	30.12
819.23	27.02
819.403	24.45
819.576	25.08
819.749	25
819.922	25.27
820.095	26.64
820.268	32.23
820.441	28.52
820.614	28.94
820.786	29.3
820.959	31.84
821.132	32.77
821.305	34.08
821.477	35.59
821.65	36.54
821.823	37.19
821.996	37.72
822.168	38.52
822.341	40.15
822.514	39.39
822.686	40.62
822.859	40.31
823.031	40.96
823.204	40.8
823.376	41
823.549	41.59
823.722	41.39
823.894	41.44
824.067	40.81
824.239	39.91
824.411	40.73
824.584	39.78
824.756	39.46
824.929	39.18
825.101	39.46
825.273	39.56
825.446	38.43
825.618	38.6
825.79	38.21
825.963	38.51
826.135	38.34
826.307	37.64
826.479	37.53
826.652	38.03
826.824	37.58
826.996	37.02
827.168	35.28
827.34	34.92
827.512	35.28
827.684	34.95
827.856	35.22
828.029	36.15
828.201	36.77
828.373	36.55
828.545	35.38
828.717	34.61
828.889	35.42
829.061	36.49
829.232	35.99
829.404	35.2
829.576	35.43
829.748	35.33
829.92	34.46
830.092	34.8
830.264	34.8
830.436	35.96
830.607	36.46
830.779	34.73
830.951	32.94
831.123	34.23
831.294	34.05
831.466	34.14
831.638	29.54
831.809	27.43
831.981	27.73
832.153	27.37
832.324	25.49
832.496	26.11
832.667	24.73
832.839	26.43
833.011	27.02
833.182	25.48
833.354	24.86
833.525	30.94
833.697	32.89
833.868	30.86
834.039	32.66
834.211	35.66
834.382	36.9
834.554	38.71
834.725	40.5
834.896	40.29
835.068	43.5
835.239	43.06
835.41	41.81
835.581	43.36
835.753	43.12
835.924	40.64
836.095	38.92
836.266	38.97
836.438	38.78
836.609	36.34
836.78	35.26
836.951	34.1
837.122	34.7
837.293	34.36
837.464	31.81
837.635	30.22
837.806	30.53
837.977	29.3
838.148	26.01
838.319	23.42
838.49	27.02
838.661	24.52
838.832	17.58
839.003	18.02
839.174	13.51
839.345	13.26
839.516	4.22
839.687	4.56
839.857	5.28
840.028	8.69
840.199	13.58
840.37	10.1
840.54	20.28
840.711	27.45
840.882	25.75
841.053	24.38
841.223	23.09
841.394	38.08
841.564	39.74
841.735	44.16
841.906	44.17
842.076	41.09
842.247	42.4
842.417	39.26
842.588	35.16
842.758	30.68
842.929	27.47
843.099	23.21
843.27	8.63
843.44	7.52
843.611	-0.72
843.781	-7.57
843.951	-1.9
844.122	2.27
844.292	-6.78
844.462	-14.8
844.633	-9.37
844.803	5.37
844.973	14.96
845.144	18.61
845.314	16.62
845.484	24.42
845.654	38.28
845.824	37.98
845.995	24.12
846.165	32.25
846.335	36.77
846.505	25.64
846.675	3.58
846.845	-8.41
847.015	-11.4
847.185	-22.73
847.355	-38.16
847.525	-36.57
847.695	-54.42
847.865	-65.13
848.035	-72.03
848.205	-90.08
848.375	-69.56
848.545	-69.07
848.715	-63.55
848.884	-67.14
849.054	-84.37
849.224	-73.06
849.394	-96.96
849.564	-82.18
849.733	-53.77
849.903	-55.82
850.073	-28.46
850.243	-13.18
850.412	-7.33
850.582	-27.84
850.752	-62.37
850.921	-19.44
851.091	-15.37
851.26	-22.03
851.43	-13.92
851.599	-42.29
851.769	-42.73
851.939	-36.62
852.108	-92.43
852.278	-82.94
852.447	-71.14
852.616	-3.06
852.786	-4.05
852.955	-5.35
853.125	11.34
853.294	17.05
853.463	39.55
853.633	71.78
853.802	49.08
853.971	40.73
854.141	4.67
854.31	8.61
854.479	-35.31
854.648	-72.18
854.818	-81.85
854.987	-65.72
855.156	-70.98
855.325	-35.59
855.494	-47.75
855.663	-67.07
855.832	-109.15
856.001	-91.27
856.171	-88.31
856.34	-78.35
856.509	-100.95
856.678	-135.96
856.847	-118.96
857.016	-160.1
857.185	-182.4
857.353	-104.59
857.522	-123.43
857.691	-58.42
857.86	-73.67
858.029	-63.27
858.198	-63.46
858.367	-37.88
858.535	-43.75
858.704	-52.86
858.873	-28.59
859.042	-17.29
859.21	-49.89
859.379	-44.1
859.548	-66.88
859.717	-66.61
859.885	-51.11
860.054	-51.69
860.222	-73.54
860.391	-53.94
860.56	-30.34
860.728	-32.32
860.897	-26.73
861.065	-14.24
861.234	-17.07
861.402	-24.16
861.571	-23.28
861.739	-22.61
861.908	-14.97
862.076	-5.77
862.244	-6.7
862.413	-33.35
862.581	-44.94
862.749	-138.51
862.918	-208.11
863.086	-189.71
863.254	-177.16
863.423	-268.72
863.591	-187.58
863.759	-313.84
863.927	-484.74
864.096	-1420.45
864.264	356.65
864.432	588.06
864.6	-388.91
864.768	-160.15
864.936	-27.36
865.104	13.67
865.272	21.53
865.44	-24.71
865.608	-3.71
865.776	-37.6
865.944	-61.91
866.112	-10.39
866.28	-19.45
866.448	-26.58
866.616	-6.29
866.784	2.07
866.952	-16.96
867.12	-21.25
867.288	7.15
867.455	7.26
867.623	12.92
867.791	10.14
867.959	-7.75
868.127	10.89
868.294	10.84
868.462	-3.52
868.63	-31.49
868.797	-91.56
868.965	-192.98
869.133	-170.58
869.3	-245.72
869.468	-96.66
869.636	-62.04
869.803	-77.49
869.971	-82.55
870.138	-45.38
870.306	-53.65
870.473	-52.98
870.641	-25.2
870.808	-24.78
870.975	-58.42
871.143	-19.67
871.31	-65.03
871.478	-162.32
871.645	-51.91
871.812	-65.07
871.98	-125.93
872.147	-159.84
872.314	-91.17
872.482	-81.78
872.649	-141.28
872.816	-48.73
872.983	-251.89
873.15	-86.73
873.318	-80.93
873.485	-137.3
873.652	-58.93
873.819	-23.52
873.986	-24.69
874.153	-38.32
874.32	-50.83
874.487	-30.86
874.654	-38.85
874.821	-19.35
874.988	-8.11
875.155	11.68
875.322	4.98
875.489	-15.04
875.656	-18.99
875.823	-11.6
875.99	1.83
876.157	8.25
876.324	8.91
876.49	17.34
876.657	-4.12
876.824	-11.65
876.991	-24.34
877.157	-27.77
877.324	-14.31
877.491	-9.7
877.658	-18.01
877.824	-41.46
877.991	-55.44
878.157	-51.67
878.324	-59.9
878.491	-24.79
878.657	-22.41
878.824	-29.2
878.99	-18.03
879.157	-8.97
879.323	-3.52
879.49	26.68
879.656	29.14
879.823	33.51
879.989	29.61
880.156	12.25
880.322	3.87
880.488	3.17
880.655	17.55
880.821	-0.53
880.987	-2.66
881.154	2.04
881.32	-16.66
881.486	-8.61
881.652	-7.97
881.819	5.71
881.985	18.07
882.151	19
882.317	18.3
882.483	17.63
882.649	22.91
882.816	21.34
882.982	25.7
883.148	28.68
883.314	27.87
883.48	28.85
883.646	28.02
883.812	28.23
883.978	29.86
884.144	30.34
884.31	30.77
884.476	31.77
884.642	34.72
884.807	34.26
884.973	35.26
885.139	38.61
885.305	40.56
885.471	41.64
885.637	40.17
885.802	39.92
885.968	41.98
886.134	43.05
886.3	39.72
886.465	40.66
886.631	39.61
886.797	38.35
886.962	33.98
887.128	30.85
887.293	26.74
887.459	25.85
887.625	22.43
887.79	15.43
887.956	11.83
888.121	13.74
888.287	-2.67
888.452	-10.76
888.618	-21.93
888.783	-30.85
