Data from CB_116_Reflection_3.txt Node
Date: Sat Nov 14 19:06:58 EST 2015
User: robert
Spectrometer: USB4E03001
Autoset integration time: false
Trigger mode: 4
Integration Time (sec): 1.000000E-1
Scans to average: 15
Electric dark correction enabled: true
Nonlinearity correction enabled: false
Boxcar width: 5
Stray light correction enabled: false
XAxis mode: Wavelengths
Stop averaging: false
Number of Pixels in Spectrum: 3648
>>>>>Begin Spectral Data<<<<<
177.566	42.89
177.785	13.54
178.005	20.61
178.225	42.55
178.445	69.51
178.665	131.75
178.885	269.14
179.105	13.1
179.324	19.63
179.544	-2108.77
179.764	34.71
179.984	30.87
180.204	13.09
180.423	42.64
180.643	48.44
180.863	67.7
181.083	60.44
181.302	48.62
181.522	-416.11
181.742	-271.41
181.961	-30.4
182.181	-155.62
182.401	-40.04
182.621	-74.22
182.84	-111.13
183.06	-39.9
183.279	583.41
183.499	132.15
183.719	88.68
183.938	12.68
184.158	38.46
184.377	-43.99
184.597	-45.81
184.816	16.42
185.036	-19.84
185.256	0.66
185.475	0.07
185.695	-2.84
185.914	12.53
186.134	-14.76
186.353	-14.57
186.572	-4.61
186.792	16.14
187.011	43.42
187.231	-71.72
187.45	-31.9
187.67	-172.91
187.889	-142.81
188.108	-259.56
188.328	-213.48
188.547	-87.82
188.766	-532.12
188.986	1154.04
189.205	287.24
189.424	265.11
189.644	496.94
189.863	541.44
190.082	364.81
190.302	274.75
190.521	247.93
190.74	200.21
190.959	191.7
191.178	113.34
191.398	104.47
191.617	63.64
191.836	52.12
192.055	34.9
192.274	9.94
192.494	-123.92
192.713	572.21
192.932	155.35
193.151	-64.29
193.37	-32.27
193.589	-107.74
193.808	-107.13
194.027	-125.56
194.246	-124.07
194.465	-91.32
194.685	-117.38
194.904	-278.88
195.123	-155.28
195.342	-130.24
195.561	-129.45
195.78	-232.31
195.999	-221.8
196.218	-62.12
196.436	-16
196.655	-22.85
196.874	71.76
197.093	30.97
197.312	-2048.33
197.531	39.64
197.75	42.76
197.969	47.94
198.188	1.07
198.407	-26.61
198.625	45.98
198.844	23.89
199.063	7.08
199.282	57.23
199.501	129.97
199.719	377.27
199.938	-136.28
200.157	-63.33
200.376	-14.84
200.594	18.45
200.813	10.12
201.032	24.82
201.251	28.75
201.469	48.31
201.688	59.59
201.907	71.88
202.125	77.34
202.344	88.73
202.563	133.55
202.781	131.21
203	126.11
203.218	162.26
203.437	221.62
203.656	323.86
203.874	834.42
204.093	539.95
204.311	-76.64
204.53	-28.33
204.748	-11.71
204.967	-11.75
205.185	41.94
205.404	-11.52
205.622	-65.41
205.841	-120.34
206.059	-22.2
206.278	-43.78
206.496	-0.09
206.715	-79.53
206.933	-256.92
207.151	-247.05
207.37	-268.68
207.588	-393.61
207.806	-206.16
208.025	-211.89
208.243	-72.27
208.461	35.69
208.68	-60.58
208.898	-13.71
209.116	-116.61
209.335	100.08
209.553	235.79
209.771	185.16
209.989	286
210.208	112.99
210.426	117.99
210.644	41.05
210.862	22.95
211.081	84.76
211.299	-64.76
211.517	-212.9
211.735	-40.58
211.953	-177.78
212.171	103.87
212.39	79.5
212.608	40.37
212.826	-30.44
213.044	-200.63
213.262	-634.09
213.48	8.58
213.698	91.64
213.916	75.56
214.134	7.82
214.352	11.61
214.57	86.42
214.788	742.76
215.006	1625.29
215.224	-1653.62
215.442	110.5
215.66	311.49
215.878	-392.54
216.096	-74.68
216.314	-8.15
216.532	6.45
216.75	-42.72
216.968	-50.51
217.185	-100.22
217.403	-172.34
217.621	-61.1
217.839	-111.08
218.057	-88.87
218.275	-633.31
218.492	1242.93
218.71	1154.04
218.928	-5230.46
219.146	-274.86
219.363	-27.14
219.581	-18.91
219.799	-32.32
220.017	-24.86
220.234	81.05
220.452	33.81
220.67	34.45
220.887	-72.11
221.105	-33.59
221.323	-190.5
221.54	-87.73
221.758	-213.81
221.976	221.83
222.193	180.3
222.411	86.14
222.629	-389.67
222.846	383.12
223.064	-647.7
223.281	192.58
223.499	-327.3
223.716	326.25
223.934	-85.9
224.151	-376.51
224.369	131.03
224.586	125.23
224.804	38.83
225.021	27.64
225.239	-43.86
225.456	-80.12
225.674	-64.16
225.891	-75.8
226.108	-104.04
226.326	-56.77
226.543	-53.49
226.76	-25.97
226.978	-25.93
227.195	-23.67
227.413	-26.24
227.63	-15.95
227.847	-2.47
228.064	-4.4
228.282	2.68
228.499	5.77
228.716	4.69
228.934	6.73
229.151	5.63
229.368	6.65
229.585	6.44
229.802	9.46
230.02	10.56
230.237	9.88
230.454	9.67
230.671	9.65
230.888	7.78
231.105	9.5
231.323	8.46
231.54	7.31
231.757	4.48
231.974	3.6
232.191	1.72
232.408	-1.06
232.625	-9.26
232.842	4.12
233.059	7
233.276	12.27
233.493	8.1
233.71	6.74
233.927	-1.06
234.144	4.35
234.361	11.54
234.578	3.96
234.795	7.67
235.012	9.48
235.229	4.43
235.446	1.24
235.663	0.65
235.879	4.11
236.096	3.69
236.313	12.6
236.53	8.99
236.747	1.75
236.964	7.26
237.181	3.38
237.397	9.36
237.614	7.67
237.831	2.37
238.048	2.24
238.264	0.26
238.481	6.84
238.698	12.67
238.915	13.93
239.131	14.54
239.348	14.42
239.565	15.26
239.781	6.64
239.998	8.46
240.215	10.46
240.431	9.66
240.648	11.81
240.865	10.51
241.081	9.35
241.298	8.03
241.514	7.79
241.731	9.16
241.947	10.55
242.164	10.31
242.38	9.16
242.597	10.23
242.814	10.75
243.03	10.27
243.246	8.32
243.463	5.09
243.679	5.98
243.896	4.92
244.112	1.48
244.329	0.83
244.545	3.83
244.762	4.24
244.978	0.26
245.194	1.47
245.411	1.77
245.627	3.11
245.843	7.23
246.06	7.77
246.276	10.27
246.492	11.24
246.709	10.59
246.925	10.46
247.141	11.33
247.357	12.76
247.574	12.36
247.79	11.64
248.006	12.32
248.222	12.2
248.439	11.31
248.655	10.3
248.871	10.47
249.087	10.64
249.303	11.5
249.519	11.08
249.736	10.34
249.952	9.72
250.168	9.21
250.384	8.52
250.6	7.79
250.816	8.94
251.032	10.03
251.248	7.84
251.464	8.52
251.68	6.03
251.896	5.93
252.112	5.15
252.328	4.08
252.544	5.73
252.76	4.97
252.976	6.79
253.192	7.14
253.408	5.37
253.624	3.47
253.84	1.55
254.056	3.21
254.272	2.56
254.487	2.55
254.703	5.32
254.919	7.32
255.135	7.13
255.351	4.2
255.567	4.35
255.782	5.45
255.998	6.99
256.214	8.17
256.43	7.19
256.646	7.43
256.861	9.52
257.077	8.74
257.293	4.29
257.508	5.45
257.724	2.55
257.94	1.59
258.155	1.65
258.371	4.35
258.587	5.18
258.802	4.06
259.018	4.25
259.234	3.97
259.449	4.42
259.665	6.12
259.88	6.2
260.096	7.03
260.312	7.21
260.527	7.39
260.743	7.08
260.958	6.73
261.174	7.89
261.389	7.61
261.605	7.17
261.82	6.32
262.036	5.2
262.251	5.67
262.466	5.8
262.682	4.88
262.897	4.63
263.113	4.78
263.328	5.7
263.543	4.75
263.759	3.99
263.974	6.06
264.189	6.91
264.405	7.46
264.62	5.28
264.835	6.97
265.051	9.01
265.266	9.27
265.481	9.31
265.696	8.62
265.912	7.87
266.127	10.11
266.342	7.47
266.557	7.74
266.773	7.31
266.988	7.33
267.203	5.63
267.418	6.19
267.633	5.08
267.848	5.13
268.064	5.02
268.279	5.15
268.494	4.45
268.709	4.93
268.924	5.93
269.139	6.55
269.354	7.42
269.569	7.7
269.784	7.33
269.999	8.56
270.214	8.31
270.429	8.35
270.644	8.08
270.859	7.94
271.074	8.16
271.289	8.4
271.504	8.7
271.719	8.68
271.934	8.88
272.149	9.06
272.363	9.24
272.578	9.43
272.793	9.35
273.008	9.13
273.223	9.54
273.438	8.49
273.653	6.43
273.867	5.54
274.082	5.76
274.297	5.3
274.512	4.92
274.726	3.29
274.941	2.49
275.156	1.39
275.371	2.86
275.585	1.86
275.8	1.74
276.015	3.05
276.229	4.17
276.444	4.19
276.659	5.22
276.873	4.59
277.088	5.77
277.302	6.21
277.517	6.92
277.732	6.04
277.946	5.5
278.161	8.55
278.375	7.91
278.59	7.62
278.804	6.64
279.019	6.36
279.233	7.29
279.448	7.97
279.662	9.18
279.877	10.35
280.091	11.36
280.306	10.45
280.52	10.02
280.735	9.99
280.949	10.2
281.163	10.89
281.378	9.13
281.592	8.31
281.806	7.32
282.021	6.38
282.235	5.39
282.449	4.38
282.664	6.73
282.878	3.71
283.092	5.06
283.307	5.3
283.521	4.28
283.735	6.68
283.949	6.12
284.164	4.98
284.378	4.14
284.592	4.41
284.806	4.1
285.02	3.05
285.234	5.53
285.449	5.6
285.663	4.83
285.877	5.73
286.091	5
286.305	5.73
286.519	7.98
286.733	8.15
286.947	9.08
287.161	10.28
287.375	10.3
287.589	10.15
287.803	10.03
288.017	10.36
288.231	9.95
288.445	11.11
288.659	10.74
288.873	8.24
289.087	8.89
289.301	8.83
289.515	7.75
289.729	7.47
289.943	7.11
290.157	8.1
290.371	7.69
290.584	8.63
290.798	7.85
291.012	8.11
291.226	8.37
291.44	9.23
291.654	7.94
291.867	8.74
292.081	9.47
292.295	11.09
292.509	10.12
292.722	11.78
292.936	9.81
293.15	8.9
293.364	8.12
293.577	8.81
293.791	6.87
294.005	7.44
294.218	6.39
294.432	5.95
294.645	5.78
294.859	5.96
295.073	4.45
295.286	5.94
295.5	5.65
295.713	6
295.927	5.99
296.14	6.31
296.354	6.32
296.568	7.37
296.781	7.34
296.994	6.68
297.208	6.35
297.421	6.64
297.635	5.79
297.848	5.56
298.062	6.37
298.275	6.05
298.489	7.67
298.702	6.88
298.915	6.57
299.129	7.51
299.342	8.17
299.555	7.7
299.769	7.51
299.982	8.36
300.195	9.23
300.409	7.73
300.622	8.64
300.835	6.87
301.048	8
301.262	7.56
301.475	6.48
301.688	5.87
301.901	6.91
302.115	8
302.328	7.89
302.541	6.63
302.754	7.32
302.967	6.51
303.18	7.15
303.393	6.82
303.607	6.4
303.82	7.58
304.033	6.67
304.246	5.49
304.459	3.56
304.672	2.59
304.885	4.34
305.098	4.27
305.311	5.05
305.524	5.74
305.737	6.22
305.95	6.92
306.163	6.15
306.376	6.18
306.589	7.38
306.802	9.39
307.015	9.68
307.228	10.01
307.44	10.28
307.653	10.03
307.866	9.02
308.079	10.5
308.292	10.68
308.505	11.44
308.718	11.78
308.93	12.12
309.143	10.63
309.356	12.05
309.569	11.42
309.781	10.97
309.994	12.08
310.207	12.43
310.42	11.4
310.632	10.24
310.845	9.85
311.058	9.99
311.27	9.89
311.483	10.39
311.696	8.88
311.908	7.98
312.121	7.57
312.333	6.59
312.546	6.48
312.759	5.5
312.971	7.37
313.184	7.05
313.396	5.08
313.609	4.66
313.821	5.18
314.034	6.51
314.246	7.98
314.459	9.06
314.671	8.64
314.884	9.45
315.096	10.79
315.309	10.42
315.521	10.4
315.733	11.93
315.946	10.38
316.158	10.42
316.371	9.57
316.583	9.93
316.795	10.62
317.008	11.2
317.22	8.39
317.432	8.04
317.644	6.96
317.857	7.51
318.069	8.3
318.281	9.58
318.494	9.21
318.706	11.12
318.918	11.09
319.13	10.6
319.342	11.02
319.555	12.95
319.767	12.72
319.979	11.56
320.191	11.91
320.403	11.65
320.615	11.94
320.827	12
321.039	10.6
321.252	10.48
321.464	10.78
321.676	10.43
321.888	10.81
322.1	10.91
322.312	12.63
322.524	12.92
322.736	12.72
322.948	13.49
323.16	12.56
323.372	12.87
323.584	13.48
323.796	14.64
324.007	14.85
324.219	13.68
324.431	13.71
324.643	13.2
324.855	12.35
325.067	12.6
325.279	11.77
325.491	12.37
325.702	12.9
325.914	12.19
326.126	10.91
326.338	11.05
326.55	12.04
326.761	12.24
326.973	12.92
327.185	13.38
327.396	14.23
327.608	15.04
327.82	15.55
328.032	14.79
328.243	16.52
328.455	16.37
328.666	16.51
328.878	17.57
329.09	18.34
329.301	17.39
329.513	16.77
329.725	17.53
329.936	17.78
330.148	18.59
330.359	20.54
330.571	20.04
330.782	21.13
330.994	21.76
331.205	21.4
331.417	20.58
331.628	22.44
331.84	22.31
332.051	20.75
332.262	20.15
332.474	19.42
332.685	18.66
332.897	18.67
333.108	18.86
333.319	19.1
333.531	17.89
333.742	18.33
333.953	16.91
334.165	19.07
334.376	20.05
334.587	20.02
334.799	20.15
335.01	20.34
335.221	20.47
335.432	20.03
335.644	19.48
335.855	20.44
336.066	21.17
336.277	22.84
336.488	22.1
336.7	22.56
336.911	22.94
337.122	23.94
337.333	22.95
337.544	21.89
337.755	21.62
337.966	22.07
338.177	22.77
338.388	22.97
338.599	22.79
338.811	22.79
339.022	22.5
339.233	21.51
339.444	20.69
339.655	20.93
339.866	21.72
340.076	23.56
340.287	23.72
340.498	23.43
340.709	22.48
340.92	22.41
341.131	22.19
341.342	21.83
341.553	23.38
341.764	24.24
341.975	24.12
342.185	24
342.396	23.37
342.607	23.07
342.818	22.77
343.029	23.36
343.239	22.64
343.45	22.94
343.661	22.89
343.872	21.86
344.082	20.53
344.293	20.92
344.504	20.78
344.714	19.61
344.925	19.94
345.136	20.04
345.346	19.74
345.557	19.75
345.768	19.19
345.978	19.63
346.189	20.41
346.399	20.94
346.61	20.93
346.821	21.48
347.031	22.32
347.242	22.62
347.452	22.78
347.663	23.15
347.873	22.96
348.084	22.57
348.294	22.22
348.504	22.25
348.715	22.13
348.925	22.03
349.136	21.03
349.346	20.61
349.557	20.29
349.767	20.26
349.977	19.74
350.188	20.81
350.398	21.75
350.608	22.31
350.819	21.74
351.029	21.16
351.239	21.7
351.449	22.12
351.66	22.7
351.87	22.79
352.08	22.49
352.29	22.53
352.501	21.3
352.711	21.6
352.921	21.05
353.131	21.23
353.341	21.71
353.552	21.29
353.762	21.85
353.972	20.38
354.182	20.35
354.392	20.88
354.602	20.28
354.812	20.26
355.022	19.96
355.232	20.52
355.442	20.8
355.652	20.36
355.862	20.02
356.072	19.63
356.282	20.84
356.492	20.32
356.702	20.56
356.912	21.61
357.122	21.81
357.332	21.75
357.542	21.34
357.752	21.11
357.962	21.69
358.171	22.87
358.381	23.23
358.591	22.5
358.801	22.76
359.011	22.47
359.221	22.14
359.43	22.77
359.64	22.88
359.85	22.71
360.06	22.05
360.269	22.42
360.479	21.65
360.689	20.96
360.899	21.44
361.108	21.66
361.318	21.26
361.528	20.83
361.737	20.07
361.947	19.68
362.156	20.05
362.366	20.92
362.576	20.51
362.785	20.89
362.995	20.97
363.204	20.67
363.414	20.85
363.623	21.2
363.833	21.61
364.042	22.01
364.252	21.88
364.461	20.81
364.671	20.45
364.88	20.54
365.09	19.85
365.299	20.64
365.509	20.9
365.718	20.59
365.927	20.04
366.137	20.05
366.346	19.88
366.555	20.36
366.765	20.61
366.974	20.24
367.183	20.2
367.393	20.28
367.602	19.51
367.811	19.61
368.021	18.76
368.23	19.01
368.439	18.51
368.648	18.8
368.857	18.54
369.067	19.18
369.276	19.63
369.485	19.6
369.694	19.57
369.903	20.01
370.112	19.38
370.321	19.96
370.531	19.82
370.74	20.54
370.949	20.5
371.158	21.2
371.367	20.92
371.576	20.68
371.785	20.35
371.994	20.07
372.203	19.1
372.412	18.27
372.621	18.35
372.83	18.19
373.039	18.15
373.248	18.1
373.457	17.61
373.666	17.68
373.874	17.84
374.083	18.06
374.292	18.73
374.501	19.45
374.71	20.64
374.919	20.69
375.128	21.1
375.336	20.53
375.545	20.18
375.754	19.78
375.963	19.34
376.171	19.13
376.38	19.37
376.589	19.5
376.798	19.75
377.006	19.62
377.215	19.16
377.424	18.91
377.632	19.44
377.841	19.69
378.05	19.73
378.258	20.23
378.467	19.96
378.675	19.16
378.884	18.73
379.093	18.62
379.301	18.86
379.51	18.89
379.718	19.34
379.927	19.64
380.135	19.36
380.344	19.45
380.552	19.13
380.761	19.61
380.969	20.47
381.177	20.33
381.386	19.63
381.594	19.44
381.803	19.68
382.011	18.57
382.219	17.48
382.428	17.51
382.636	18.02
382.845	18.02
383.053	17.63
383.261	16.98
383.469	17.12
383.678	17.64
383.886	17.43
384.094	17.62
384.302	18.59
384.511	18.82
384.719	18.75
384.927	18.51
385.135	18.49
385.343	18.68
385.552	18.78
385.76	19.05
385.968	18.7
386.176	18.69
386.384	18.42
386.592	17.9
386.8	17.77
387.008	17.96
387.216	17.45
387.424	17.63
387.633	17.17
387.841	17.02
388.049	16.54
388.257	16.5
388.465	16.27
388.672	15.92
388.88	15.74
389.088	15.54
389.296	15.15
389.504	15.24
389.712	15.04
389.92	14.97
390.128	15.04
390.336	15.29
390.544	15.52
390.751	15.7
390.959	16.26
391.167	16.12
391.375	16.1
391.583	16.27
391.79	16.2
391.998	16.4
392.206	16.75
392.414	16.72
392.621	16.53
392.829	16.57
393.037	16.22
393.244	15.78
393.452	16.25
393.66	16.54
393.867	16.49
394.075	16.76
394.283	16.24
394.49	16.17
394.698	16.2
394.905	16.26
395.113	16.05
395.32	16.54
395.528	16.91
395.735	16.67
395.943	16.58
396.15	16.28
396.358	16.61
396.565	16.87
396.773	16.66
396.98	16.82
397.188	16.4
397.395	16.48
397.602	16.32
397.81	15.89
398.017	15.68
398.225	15.56
398.432	15.99
398.639	15.46
398.847	15.11
399.054	14.85
399.261	14.43
399.468	14.66
399.676	14.78
399.883	14.55
400.09	14.71
400.297	14.66
400.505	14.83
400.712	14.94
400.919	14.81
401.126	15.21
401.333	15.72
401.54	16.33
401.748	16.38
401.955	16.31
402.162	16.68
402.369	16.55
402.576	16.97
402.783	16.97
402.99	16.72
403.197	16.94
403.404	16.86
403.611	16.77
403.818	16.44
404.025	16.64
404.232	16.49
404.439	16.35
404.646	16.68
404.853	16.35
405.06	16.3
405.267	16.35
405.474	16.07
405.681	16.09
405.887	16.07
406.094	16.44
406.301	16.43
406.508	16.52
406.715	16.83
406.922	16.59
407.128	16.72
407.335	16.81
407.542	16.84
407.749	17.02
407.955	17.15
408.162	17.24
408.369	17.12
408.575	17.01
408.782	17.22
408.989	17.15
409.195	17.35
409.402	17.58
409.609	17.55
409.815	17.68
410.022	17.89
410.228	17.65
410.435	17.76
410.642	17.91
410.848	17.98
411.055	17.93
411.261	17.93
411.468	17.87
411.674	17.84
411.881	17.99
412.087	18.23
412.294	18.21
412.5	18.37
412.706	18.47
412.913	18.62
413.119	18.87
413.326	18.78
413.532	18.75
413.738	18.84
413.945	18.68
414.151	18.18
414.357	18.09
414.564	18.15
414.77	18.1
414.976	17.86
415.182	17.33
415.389	17.18
415.595	17.4
415.801	17.19
416.007	17.14
416.214	17.33
416.42	17.83
416.626	17.94
416.832	17.9
417.038	18.14
417.244	18.46
417.45	18.79
417.657	18.88
417.863	18.85
418.069	19.1
418.275	19.07
418.481	19.23
418.687	19.1
418.893	19.06
419.099	19.09
419.305	18.96
419.511	18.96
419.717	18.94
419.923	18.99
420.129	19.14
420.335	19.07
420.541	19.13
420.746	19.17
420.952	19.21
421.158	19.12
421.364	19.06
421.57	19.13
421.776	19.07
421.982	19.06
422.187	19.13
422.393	19.14
422.599	19.18
422.805	19.09
423.01	18.92
423.216	18.89
423.422	18.94
423.628	18.99
423.833	19.02
424.039	19.13
424.245	19.06
424.45	18.89
424.656	18.83
424.862	18.83
425.067	18.95
425.273	19.05
425.478	19.08
425.684	18.96
425.889	19.16
426.095	19.02
426.301	18.86
426.506	18.97
426.712	18.98
426.917	18.92
427.123	18.78
427.328	18.57
427.533	18.59
427.739	18.67
427.944	18.83
428.15	18.73
428.355	18.92
428.561	18.91
428.766	18.94
428.971	19.06
429.177	19.06
429.382	19.36
429.587	19.66
429.793	19.59
429.998	19.59
430.203	19.76
430.408	19.58
430.614	19.53
430.819	19.42
431.024	18.99
431.229	18.77
431.434	18.76
431.64	18.71
431.845	18.49
432.05	18.57
432.255	18.6
432.46	18.61
432.665	18.76
432.87	18.91
433.076	19.04
433.281	19.39
433.486	19.75
433.691	19.78
433.896	19.73
434.101	19.84
434.306	19.66
434.511	19.63
434.716	19.51
434.921	19.58
435.126	19.51
435.331	19.41
435.535	19.41
435.74	19.2
435.945	19.28
436.15	19.39
436.355	19.53
436.56	19.65
436.765	19.78
436.97	19.75
437.174	19.63
437.379	19.63
437.584	19.69
437.789	19.61
437.993	19.83
438.198	19.77
438.403	19.87
438.608	19.94
438.812	19.98
439.017	19.88
439.222	19.86
439.426	19.79
439.631	19.83
439.836	19.82
440.04	19.86
440.245	19.79
440.45	19.75
440.654	19.7
440.859	19.35
441.063	19.36
441.268	19.38
441.472	19.36
441.677	19.51
441.881	19.54
442.086	19.53
442.29	19.62
442.495	19.49
442.699	19.57
442.904	19.55
443.108	19.8
443.312	19.9
443.517	19.89
443.721	19.98
443.925	19.97
444.13	20.09
444.334	20.18
444.538	19.83
444.743	19.82
444.947	19.73
445.151	19.59
445.356	19.52
445.56	19.33
445.764	19.26
445.968	19.13
446.173	18.99
446.377	18.78
446.581	18.71
446.785	18.72
446.989	18.7
447.193	18.68
447.398	18.54
447.602	18.56
447.806	18.61
448.01	18.61
448.214	18.77
448.418	18.75
448.622	18.61
448.826	18.64
449.03	18.81
449.234	18.75
449.438	18.72
449.642	18.86
449.846	18.94
450.05	18.81
450.254	18.65
450.458	18.6
450.662	18.47
450.866	18.58
451.069	18.63
451.273	18.61
451.477	18.72
451.681	18.72
451.885	18.67
452.089	18.62
452.292	18.72
452.496	18.79
452.7	18.54
452.904	18.79
453.107	18.91
453.311	18.84
453.515	18.88
453.719	18.91
453.922	18.92
454.126	19.13
454.33	19.12
454.533	19.1
454.737	19.32
454.94	19.45
455.144	19.4
455.348	19.37
455.551	19.4
455.755	19.32
455.958	19.46
456.162	19.41
456.365	19.21
456.569	19.08
456.772	19.17
456.976	19.03
457.179	19.13
457.383	19.14
457.586	19.01
457.79	18.99
457.993	19.04
458.196	18.88
458.4	18.85
458.603	18.92
458.807	18.99
459.01	18.93
459.213	18.79
459.417	18.76
459.62	18.64
459.823	18.73
460.026	18.91
460.23	18.78
460.433	18.79
460.636	18.75
460.839	18.73
461.042	18.72
461.246	18.69
461.449	18.77
461.652	18.78
461.855	18.85
462.058	18.71
462.261	18.46
462.464	18.57
462.668	18.63
462.871	18.81
463.074	18.86
463.277	18.75
463.48	19
463.683	19.15
463.886	19.13
464.089	19.25
464.292	19.39
464.495	19.69
464.698	19.96
464.901	19.92
465.104	19.88
465.306	19.87
465.509	20.03
465.712	19.86
465.915	19.87
466.118	20.02
466.321	20.08
466.524	19.99
466.726	19.83
466.929	19.72
467.132	19.84
467.335	19.93
467.538	20.15
467.74	20.1
467.943	20.02
468.146	20.04
468.348	19.93
468.551	19.9
468.754	20.1
468.956	20.22
469.159	20.16
469.362	20.12
469.564	20.25
469.767	20.07
469.969	20.41
470.172	20.61
470.375	20.8
470.577	20.86
470.78	20.77
470.982	20.85
471.185	20.54
471.387	20.72
471.59	20.82
471.792	20.59
471.995	20.62
472.197	20.45
472.399	20.56
472.602	20.4
472.804	20.37
473.007	20.63
473.209	20.49
473.411	20.62
473.614	20.63
473.816	20.56
474.018	20.66
474.22	20.84
474.423	20.74
474.625	20.65
474.827	20.8
475.03	20.92
475.232	20.73
475.434	20.87
475.636	20.86
475.838	20.75
476.04	20.82
476.243	20.82
476.445	20.76
476.647	20.85
476.849	20.84
477.051	20.81
477.253	20.79
477.455	20.95
477.657	20.96
477.859	21.06
478.061	21.21
478.263	21.08
478.465	21.14
478.667	21.11
478.869	21.11
479.071	21.2
479.273	21.19
479.475	21.18
479.677	21.11
479.879	20.92
480.081	20.85
480.283	20.64
480.485	20.72
480.686	20.71
480.888	20.68
481.09	20.71
481.292	20.68
481.494	20.61
481.695	20.66
481.897	20.75
482.099	20.81
482.301	20.91
482.502	20.89
482.704	20.98
482.906	20.93
483.107	20.99
483.309	20.99
483.511	20.93
483.712	20.92
483.914	20.88
484.115	20.87
484.317	20.87
484.519	20.86
484.72	20.9
484.922	20.84
485.123	20.96
485.325	20.97
485.526	20.94
485.728	20.96
485.929	21.06
486.131	21.07
486.332	21.05
486.534	21.04
486.735	21.01
486.936	20.97
487.138	20.98
487.339	20.89
487.541	20.93
487.742	20.91
487.943	20.96
488.144	20.86
488.346	20.9
488.547	20.87
488.748	20.94
488.95	20.97
489.151	20.98
489.352	20.98
489.553	20.98
489.755	20.92
489.956	21.1
490.157	21.15
490.358	21.24
490.559	21.29
490.76	21.38
490.961	21.44
491.163	21.56
491.364	21.71
491.565	21.83
491.766	21.88
491.967	21.93
492.168	21.9
492.369	21.96
492.57	21.99
492.771	22.03
492.972	22.16
493.173	22.28
493.374	22.25
493.575	22.32
493.776	22.27
493.976	22.3
494.177	22.45
494.378	22.59
494.579	22.68
494.78	22.88
494.981	22.98
495.182	23.07
495.382	23.14
495.583	23.35
495.784	23.37
495.985	23.51
496.185	23.41
496.386	23.33
496.587	23.43
496.788	23.46
496.988	23.53
497.189	23.64
497.39	23.66
497.59	23.68
497.791	23.72
497.992	23.87
498.192	24.06
498.393	24.33
498.593	24.46
498.794	24.45
498.994	24.42
499.195	24.55
499.395	24.57
499.596	24.57
499.796	24.69
499.997	24.75
500.197	24.77
500.398	24.82
500.598	25.02
500.799	25.26
500.999	25.33
501.199	25.71
501.4	25.74
501.6	26.02
501.801	26.25
502.001	26.47
502.201	26.61
502.402	26.73
502.602	26.71
502.802	26.64
503.002	26.54
503.203	26.67
503.403	26.6
503.603	26.61
503.803	26.71
504.003	26.76
504.204	26.8
504.404	26.9
504.604	26.94
504.804	27.16
505.004	27.33
505.204	27.5
505.404	27.65
505.604	27.83
505.804	28.13
506.005	28.32
506.205	28.58
506.405	28.55
506.605	28.62
506.805	29.04
507.005	29.21
507.204	29.35
507.404	29.47
507.604	29.69
507.804	29.78
508.004	29.86
508.204	29.93
508.404	30.03
508.604	30.32
508.804	30.31
509.003	30.27
509.203	30.34
509.403	30.56
509.603	30.69
509.803	30.62
510.002	30.61
510.202	30.61
510.402	30.7
510.602	30.75
510.801	30.81
511.001	30.98
511.201	31.1
511.4	31.2
511.6	31.06
511.8	31.31
511.999	31.44
512.199	31.69
512.398	31.91
512.598	32.11
512.797	32.29
512.997	32.33
513.197	32.44
513.396	32.46
513.596	32.64
513.795	33.01
513.994	33.02
514.194	33.2
514.393	33.35
514.593	33.51
514.792	33.39
514.992	33.45
515.191	33.6
515.39	33.79
515.59	33.97
515.789	34.08
515.988	34.11
516.188	34.09
516.387	34.31
516.586	34.39
516.786	34.41
516.985	34.7
517.184	34.99
517.383	35.04
517.582	35.21
517.782	35.29
517.981	35.35
518.18	35.49
518.379	35.68
518.578	35.66
518.777	35.76
518.976	35.9
519.176	35.94
519.375	35.82
519.574	35.86
519.773	35.94
519.972	35.92
520.171	36.11
520.37	36.04
520.569	36.08
520.768	36.28
520.967	36.27
521.166	36.26
521.365	36.26
521.564	36.27
521.762	36.5
521.961	36.43
522.16	36.57
522.359	36.39
522.558	36.55
522.757	36.6
522.956	36.55
523.154	36.69
523.353	36.85
523.552	36.9
523.751	37.12
523.949	36.99
524.148	37.11
524.347	37.26
524.546	37.46
524.744	37.62
524.943	37.67
525.142	37.81
525.34	37.81
525.539	37.82
525.737	38
525.936	38.01
526.135	38.21
526.333	38.27
526.532	38.28
526.73	38.26
526.929	38.19
527.127	38.37
527.326	38.31
527.524	38.42
527.723	38.51
527.921	38.55
528.12	38.65
528.318	38.71
528.516	38.73
528.715	38.81
528.913	38.92
529.112	38.98
529.31	38.98
529.508	39.02
529.707	39.02
529.905	38.94
530.103	38.91
530.301	38.94
530.5	38.88
530.698	38.93
530.896	38.99
531.094	38.91
531.293	38.99
531.491	38.97
531.689	39.11
531.887	39.22
532.085	39.38
532.283	39.51
532.481	39.41
532.68	39.56
532.878	39.57
533.076	39.65
533.274	39.79
533.472	39.77
533.67	39.8
533.868	39.86
534.066	39.81
534.264	39.92
534.462	39.9
534.66	40.07
534.858	40.12
535.056	40.15
535.253	40.06
535.451	40.05
535.649	40.17
535.847	40.28
536.045	40.19
536.243	40.26
536.441	40.14
536.638	40.17
536.836	40.16
537.034	40.14
537.232	40.12
537.43	40.05
537.627	40.06
537.825	40.03
538.023	39.98
538.22	40.03
538.418	39.98
538.616	40.07
538.813	40.08
539.011	40.12
539.209	40.1
539.406	40.27
539.604	40.34
539.801	40.35
539.999	40.37
540.196	40.46
540.394	40.55
540.591	40.61
540.789	40.59
540.986	40.74
541.184	40.78
541.381	40.74
541.579	40.83
541.776	41.01
541.974	41.02
542.171	41.01
542.368	40.97
542.566	41.02
542.763	41.1
542.96	41.23
543.158	41.21
543.355	41.14
543.552	41.26
543.75	41.19
543.947	41.04
544.144	41.07
544.341	41.19
544.539	41.22
544.736	41.23
544.933	41.29
545.13	41.2
545.327	41.01
545.524	41.03
545.722	40.89
545.919	41.01
546.116	41.14
546.313	41.07
546.51	40.96
546.707	41.1
546.904	41.06
547.101	40.93
547.298	41.03
547.495	41.2
547.692	41.32
547.889	41.48
548.086	41.4
548.283	41.37
548.48	41.5
548.677	41.64
548.874	41.61
549.07	41.73
549.267	41.82
549.464	41.74
549.661	41.79
549.858	41.84
550.055	41.93
550.251	42.06
550.448	41.95
550.645	42.06
550.842	42.11
551.038	42.13
551.235	42.25
551.432	42.3
551.628	42.35
551.825	42.28
552.022	42.25
552.218	42.25
552.415	42.13
552.612	42.34
552.808	42.33
553.005	42.27
553.201	42.31
553.398	42.27
553.594	42.18
553.791	42.24
553.987	42.35
554.184	42.56
554.38	42.51
554.577	42.52
554.773	42.24
554.97	41.99
555.166	42.13
555.362	42.1
555.559	42.1
555.755	42.04
555.952	42.15
556.148	42.19
556.344	42.12
556.541	42.14
556.737	42.38
556.933	42.56
557.129	42.68
557.326	42.42
557.522	42.46
557.718	42.38
557.914	42.77
558.11	42.79
558.307	42.75
558.503	42.86
558.699	42.9
558.895	42.77
559.091	42.86
559.287	42.91
559.483	43.27
559.679	43.5
559.876	43.5
560.072	43.22
560.268	43.11
560.464	42.98
560.66	42.84
560.856	42.97
561.052	43.01
561.247	42.95
561.443	43.07
561.639	43
561.835	42.81
562.031	42.83
562.227	42.79
562.423	42.76
562.619	42.9
562.815	42.83
563.01	42.95
563.206	42.94
563.402	43
563.598	42.92
563.793	42.78
563.989	42.91
564.185	42.93
564.381	43.18
564.576	43.26
564.772	43.41
564.968	43.37
565.163	43.33
565.359	43.65
565.555	43.74
565.75	43.89
565.946	43.97
566.141	43.95
566.337	43.9
566.532	43.96
566.728	44.02
566.923	44.15
567.119	44.35
567.314	44.38
567.51	44.11
567.705	43.93
567.901	44.06
568.096	44.12
568.292	43.99
568.487	44.1
568.682	44.21
568.878	44.18
569.073	43.94
569.268	44.05
569.464	43.93
569.659	43.87
569.854	44.2
570.05	44.21
570.245	44.19
570.44	44.26
570.635	44.23
570.831	44.02
571.026	44.05
571.221	44.01
571.416	43.95
571.611	44.07
571.806	44.12
572.002	43.9
572.197	43.73
572.392	43.82
572.587	43.71
572.782	43.74
572.977	44
573.172	44.1
573.367	44.32
573.562	44.36
573.757	44.45
573.952	44.61
574.147	44.83
574.342	44.92
574.537	44.87
574.732	45.11
574.927	45.21
575.121	45.07
575.316	44.93
575.511	44.85
575.706	44.64
575.901	44.4
576.096	44.4
576.29	44.18
576.485	44.14
576.68	44.13
576.875	44.28
577.069	44.17
577.264	44.07
577.459	44.12
577.654	44.1
577.848	44.15
578.043	44.32
578.238	44.2
578.432	44.48
578.627	44.7
578.821	44.79
579.016	44.73
579.21	44.94
579.405	45
579.6	45.01
579.794	44.95
579.989	44.95
580.183	45.14
580.378	45.3
580.572	45.2
580.766	45.13
580.961	45.08
581.155	44.89
581.35	44.72
581.544	44.74
581.738	44.88
581.933	45.03
582.127	45.11
582.321	44.75
582.516	44.7
582.71	44.76
582.904	44.62
583.099	44.59
583.293	44.61
583.487	44.86
583.681	44.93
583.875	44.83
584.07	44.91
584.264	45.03
584.458	45.19
584.652	45.19
584.846	45.13
585.04	45.32
585.234	45.37
585.428	45.56
585.623	45.57
585.817	45.69
586.011	45.57
586.205	45.59
586.399	45.59
586.593	45.47
586.787	45.84
586.981	45.93
587.174	46.02
587.368	46.15
587.562	45.87
587.756	45.69
587.95	45.67
588.144	46.01
588.338	46.01
588.532	46.01
588.725	46.1
588.919	45.8
589.113	46.02
589.307	45.88
589.501	45.83
589.694	46.11
589.888	46.04
590.082	46.06
590.275	45.86
590.469	45.92
590.663	46.12
590.856	46.29
591.05	46.14
591.244	46.13
591.437	46.17
591.631	46.09
591.824	45.85
592.018	46.31
592.212	46.28
592.405	46.4
592.599	46.27
592.792	45.89
592.986	45.73
593.179	45.93
593.372	45.48
593.566	45.51
593.759	45.31
593.953	45.4
594.146	45.15
594.339	45.02
594.533	45.13
594.726	45.28
594.92	45.46
595.113	45.59
595.306	45.85
595.499	46.09
595.693	45.91
595.886	46.24
596.079	46.13
596.272	46.28
596.466	46.31
596.659	46.06
596.852	45.86
597.045	45.94
597.238	45.8
597.431	45.72
597.624	45.67
597.818	45.65
598.011	45.7
598.204	46.01
598.397	45.85
598.59	46.02
598.783	46.28
598.976	46.42
599.169	46.28
599.362	46.53
599.555	46.42
599.748	46.37
599.941	46.66
600.134	46.82
600.326	46.57
600.519	46.56
600.712	46.57
600.905	46.47
601.098	46.54
601.291	46.62
601.483	46.65
601.676	46.57
601.869	46.87
602.062	46.98
602.255	46.88
602.447	47.13
602.64	47.23
602.833	47.03
603.025	46.98
603.218	47.02
603.411	47.09
603.603	47
603.796	47.04
603.989	46.97
604.181	46.88
604.374	46.75
604.566	46.55
604.759	46.48
604.951	46.69
605.144	46.65
605.336	46.48
605.529	46.37
605.721	46.39
605.914	46.38
606.106	46.28
606.299	46.18
606.491	46.18
606.683	46.47
606.876	46.67
607.068	46.55
607.26	46.59
607.453	46.52
607.645	46.64
607.837	46.73
608.03	46.61
608.222	46.5
608.414	46.67
608.606	46.83
608.799	46.57
608.991	46.36
609.183	46.24
609.375	46.26
609.567	46.27
609.759	46.3
609.952	46.1
610.144	46.11
610.336	46.32
610.528	46.16
610.72	45.98
610.912	46.03
611.104	46.04
611.296	46.27
611.488	46.13
611.68	46.29
611.872	46.32
612.064	46.46
612.256	46.52
612.448	46.41
612.64	46.48
612.832	46.33
613.023	46.27
613.215	46.27
613.407	45.98
613.599	46.04
613.791	46.34
613.983	46.27
614.174	46.01
614.366	45.96
614.558	45.88
614.75	45.88
614.941	46.01
615.133	46.01
615.325	46
615.516	46.27
615.708	46.27
615.9	46.13
616.091	46.11
616.283	46.28
616.475	46.68
616.666	46.83
616.858	46.75
617.049	46.99
617.241	46.98
617.432	47.17
617.624	47.02
617.815	47.16
618.007	47.01
618.198	47.23
618.39	47.16
618.581	47
618.773	47.04
618.964	47.27
619.155	47.14
619.347	47.48
619.538	47.47
619.729	47.54
619.921	47.46
620.112	47.32
620.303	47.12
620.494	47.34
620.686	47.45
620.877	47.7
621.068	47.41
621.259	47.61
621.451	47.37
621.642	47.44
621.833	47.24
622.024	47.52
622.215	47.61
622.406	47.71
622.597	47.72
622.788	47.52
622.98	47.3
623.171	47.44
623.362	47.38
623.553	47.63
623.744	47.54
623.935	47.58
624.126	47.56
624.317	47.72
624.508	47.48
624.698	47.43
624.889	47.23
625.08	47.65
625.271	47.51
625.462	47.52
625.653	46.96
625.844	47.34
626.034	47.46
626.225	47.25
626.416	47.1
626.607	47.5
626.798	47.47
626.988	47.86
627.179	47.46
627.37	47.7
627.56	47.64
627.751	47.94
627.942	47.69
628.132	47.56
628.323	47.92
628.514	48.2
628.704	48.22
628.895	48.25
629.085	48.18
629.276	48.44
629.466	48.21
629.657	48.53
629.847	48.18
630.038	48
630.228	48.19
630.419	47.6
630.609	47.53
630.8	47.46
630.99	47.45
631.181	47.26
631.371	47
631.561	47.09
631.752	47.01
631.942	47.41
632.132	47.62
632.323	47.44
632.513	47.87
632.703	47.93
632.893	47.78
633.084	47.9
633.274	47.64
633.464	47.46
633.654	47.53
633.844	47.23
634.034	46.85
634.225	46.71
634.415	46.8
634.605	46.75
634.795	46.48
634.985	46.75
635.175	46.89
635.365	47.19
635.555	47.24
635.745	47.1
635.935	47.03
636.125	47.55
636.315	47.67
636.505	47.93
636.695	47.8
636.885	48.02
637.075	47.44
637.265	47.17
637.455	47.11
637.644	47.41
637.834	47.55
638.024	47.61
638.214	47.23
638.404	47.14
638.593	47.15
638.783	47.07
638.973	46.92
639.163	47.04
639.352	47.17
639.542	47.26
639.732	47.41
639.921	47.66
640.111	48.04
640.301	48.11
640.49	48.16
640.68	48.2
640.87	48.27
641.059	48.11
641.249	47.99
641.438	47.95
641.628	48.05
641.817	47.53
642.007	47.04
642.196	46.99
642.386	47.08
642.575	46.92
642.764	46.63
642.954	46.91
643.143	47.64
643.333	47.94
643.522	47.89
643.711	47.53
643.901	47.74
644.09	47.82
644.279	47.56
644.469	47.43
644.658	47.74
644.847	47.36
645.036	47.5
645.226	47.1
645.415	46.66
645.604	46.76
645.793	46.98
645.982	46.61
646.171	47.13
646.361	46.76
646.55	47.14
646.739	46.9
646.928	47.49
647.117	47.13
647.306	47.13
647.495	47.3
647.684	46.93
647.873	46.9
648.062	47.34
648.251	47.27
648.44	47.51
648.629	47.52
648.818	47.33
649.007	46.6
649.196	46.51
649.384	46.56
649.573	46.85
649.762	47.01
649.951	46.92
650.14	46.79
650.328	46.34
650.517	46.15
650.706	45.99
650.895	46.25
651.083	46.5
651.272	46.85
651.461	46.08
651.65	46.07
651.838	45.84
652.027	46.17
652.216	46.06
652.404	46.37
652.593	46.33
652.781	46.25
652.97	46.35
653.158	46.38
653.347	46.36
653.535	47.09
653.724	47
653.912	46.89
654.101	46.98
654.289	46.91
654.478	46.75
654.666	46.82
654.855	46.6
655.043	46.22
655.231	46.05
655.42	45.75
655.608	45.78
655.796	45.98
655.985	46.25
656.173	45.66
656.361	45.8
656.55	45.65
656.738	45.73
656.926	45.69
657.114	45.99
657.302	46.14
657.491	46.17
657.679	46.28
657.867	45.99
658.055	46.08
658.243	46.09
658.431	45.93
658.619	46.43
658.807	46.82
658.996	46.9
659.184	46.58
659.372	46.76
659.56	46.88
659.748	46.48
659.936	46.58
660.124	46.41
660.311	46.84
660.499	47.08
660.687	46.6
660.875	46.2
661.063	46.18
661.251	46.12
661.439	46.25
661.627	46.13
661.814	46.11
662.002	45.93
662.19	45.72
662.378	45.58
662.565	45.04
662.753	44.93
662.941	44.79
663.129	44.72
663.316	45.1
663.504	44.94
663.692	45.13
663.879	45.38
664.067	45.13
664.254	44.95
664.442	44.66
664.63	45.36
664.817	45.13
665.005	45.33
665.192	45.4
665.38	45.41
665.567	45.3
665.755	44.88
665.942	44.6
666.13	44.93
666.317	45.2
666.504	44.75
666.692	44.65
666.879	45.08
667.067	45.3
667.254	45.24
667.441	45.14
667.629	45.06
667.816	45.2
668.003	45.28
668.19	45.31
668.378	45.01
668.565	45.57
668.752	45.18
668.939	45.02
669.127	44.83
669.314	44.7
669.501	44.37
669.688	44.24
669.875	44.18
670.062	44.06
670.249	44.14
670.436	44.58
670.623	44.16
670.81	44.36
670.997	44.48
671.184	44.4
671.371	44.73
671.558	44.72
671.745	44.97
671.932	45.13
672.119	45.03
672.306	45.22
672.493	45.59
672.68	45.81
672.867	45.48
673.054	45.17
673.24	45.04
673.427	45.04
673.614	45.17
673.801	45.06
673.988	44.78
674.174	44.93
674.361	44.44
674.548	43.49
674.734	43.59
674.921	43.61
675.108	43.65
675.294	44.06
675.481	44.11
675.668	43.86
675.854	43.86
676.041	43.79
676.227	43.95
676.414	44.11
676.601	44.06
676.787	43.9
676.974	43.88
677.16	44.04
677.347	44.07
677.533	43.47
677.719	43.69
677.906	43
678.092	42.96
678.279	42.94
678.465	43.14
678.651	44.08
678.838	44.13
679.024	44.44
679.21	44.76
679.397	44.14
679.583	44.08
679.769	44.35
679.955	44.77
680.142	45.02
680.328	45.01
680.514	44.66
680.7	44.33
680.886	44.11
681.073	43.8
681.259	43.52
681.445	43.92
681.631	44.3
681.817	43.93
682.003	43.99
682.189	43.73
682.375	43.67
682.561	43.78
682.747	43.86
682.933	44.06
683.119	44.06
683.305	43.82
683.491	44.05
683.677	43.89
683.863	43.99
684.049	44.03
684.235	44.37
684.42	43.99
684.606	43.57
684.792	43.48
684.978	43.23
685.164	43.73
685.349	43.87
685.535	43.46
685.721	43.4
685.907	43.49
686.092	43.1
686.278	42.55
686.464	42.49
686.649	42.84
686.835	43.05
687.021	43.18
687.206	43.07
687.392	43.14
687.577	42.96
687.763	43.33
687.948	43.1
688.134	43.6
688.319	44.22
688.505	44.84
688.69	44.66
688.876	44.3
689.061	44.58
689.247	44.52
689.432	44.58
689.618	44.45
689.803	44.35
689.988	44.6
690.174	44.23
690.359	43.86
690.544	43.8
690.73	43.91
690.915	43.81
691.1	43.66
691.285	43.26
691.471	43.35
691.656	43.49
691.841	43.42
692.026	43.36
692.211	43.18
692.396	43.19
692.582	42.87
692.767	43.06
692.952	43.29
693.137	43.24
693.322	43.23
693.507	42.58
693.692	43.07
693.877	42.7
694.062	42.67
694.247	42.72
694.432	42.72
694.617	42.87
694.802	43.21
694.987	42.7
695.172	43.03
695.357	43.49
695.541	44.26
695.726	43.87
695.911	44.34
696.096	44.61
696.281	44.64
696.466	44.54
696.65	44.35
696.835	43.75
697.02	43.76
697.204	43.87
697.389	43.73
697.574	43.07
697.759	43.32
697.943	43.08
698.128	42.79
698.312	42.77
698.497	42.94
698.682	43.15
698.866	43.07
699.051	43.4
699.235	43.11
699.42	42.67
699.604	42.78
699.789	42.23
699.973	42.38
700.158	42.57
700.342	42.73
700.527	42.71
700.711	42.69
700.895	42.93
701.08	42.43
701.264	42.24
701.448	42.56
701.633	42.81
701.817	42.92
702.001	42.43
702.186	41.34
702.37	41.26
702.554	40.8
702.738	40.68
702.923	40.73
703.107	41.31
703.291	41.44
703.475	41.14
703.659	40.58
703.843	40.71
704.027	41.57
704.212	42.08
704.396	42.05
704.58	41.78
704.764	41.73
704.948	42.03
705.132	41.32
705.316	41.13
705.5	41.48
705.684	42.31
705.868	42.64
706.052	42.27
706.235	42.61
706.419	42.47
706.603	42.76
706.787	42.59
706.971	41.75
707.155	42.3
707.339	42.43
707.522	43
707.706	42.64
707.89	42.6
708.074	42.13
708.257	41.92
708.441	41.98
708.625	42.35
708.808	42.79
708.992	42.92
709.176	42.44
709.359	42.18
709.543	41.25
709.727	41.53
709.91	41.74
710.094	41.95
710.277	41.64
710.461	41.28
710.644	40.45
710.828	39.94
711.011	39.81
711.195	40.47
711.378	41.16
711.562	40.94
711.745	40.68
711.928	40.69
712.112	40.44
712.295	40.87
712.478	41.52
712.662	41.86
712.845	42.02
713.028	42.45
713.212	42.71
713.395	42.33
713.578	42.78
713.761	42.21
713.945	42.14
714.128	42.59
714.311	42.21
714.494	42.06
714.677	41.99
714.86	41.58
715.043	41.64
715.227	40.66
715.41	40.89
715.593	41.46
715.776	42.06
715.959	41.8
716.142	41.43
716.325	41.1
716.508	40.89
716.691	41.22
716.874	41.18
717.057	40.89
717.239	40.82
717.422	40.64
717.605	40.84
717.788	41.39
717.971	40.94
718.154	41.47
718.337	42.47
718.519	42.25
718.702	41.77
718.885	42.05
719.068	42.15
719.25	43.4
719.433	42.74
719.616	41.3
719.798	39.84
719.981	40.59
720.164	40.3
720.346	40.05
720.529	40.03
720.712	40.27
720.894	41.24
721.077	40.76
721.259	39.37
721.442	39.73
721.624	40.15
721.807	40.84
721.989	40.64
722.172	40.94
722.354	41.45
722.537	40.77
722.719	41.11
722.901	40.37
723.084	40.81
723.266	40.81
723.448	41.36
723.631	41.78
723.813	41.31
723.995	40.84
724.178	40.56
724.36	40.88
724.542	42.29
724.724	41.52
724.907	42.53
725.089	42.91
725.271	43.34
725.453	42.78
725.635	42.78
725.817	42.86
725.999	42.91
726.181	42.52
726.364	41.63
726.546	40.99
726.728	41.48
726.91	40.18
727.092	39.69
727.274	40.16
727.456	39.93
727.638	38.88
727.819	39.17
728.001	39.84
728.183	40.17
728.365	39.79
728.547	40.36
728.729	40.18
728.911	39.94
729.093	39.54
729.274	38.43
729.456	38.52
729.638	38.48
729.82	38.78
730.001	38.62
730.183	38.58
730.365	38.71
730.546	38.56
730.728	38.85
730.91	38.55
731.091	39.11
731.273	39.88
731.455	40.6
731.636	41.45
731.818	41
731.999	40.35
732.181	39.89
732.362	39.5
732.544	39.44
732.725	39.37
732.907	39.97
733.088	39.14
733.27	38.86
733.451	38.15
733.633	38.78
733.814	38.77
733.995	38.53
734.177	38.33
734.358	38.87
734.539	38.4
734.721	38.05
734.902	38.25
735.083	39.32
735.264	39.58
735.446	39.03
735.627	38.43
735.808	38.32
735.989	38.9
736.17	39.66
736.351	39.91
736.533	40.33
736.714	39.94
736.895	39.1
737.076	38.31
737.257	38.08
737.438	38.16
737.619	37.66
737.8	38.06
737.981	37.97
738.162	37.52
738.343	36.83
738.524	36.4
738.705	36.21
738.886	36.76
739.067	37.26
739.247	37.39
739.428	37.03
739.609	37.73
739.79	37.99
739.971	37.56
740.151	36.84
740.332	35.9
740.513	35.04
740.694	35.53
740.874	36.16
741.055	37.07
741.236	37.32
741.417	37.78
741.597	37.2
741.778	36.45
741.958	37.12
742.139	37.38
742.32	38.35
742.5	39.49
742.681	39.44
742.861	38.84
743.042	37.18
743.222	36.66
743.403	36.7
743.583	36.6
743.764	36.47
743.944	35.86
744.124	36.03
744.305	35.99
744.485	35.4
744.666	35.61
744.846	34.86
745.026	36.05
745.207	35.51
745.387	36.21
745.567	36.83
745.747	37.36
745.928	37.62
746.108	37.58
746.288	38.26
746.468	37.84
746.648	37.79
746.829	37.46
747.009	37.02
747.189	37.85
747.369	37.97
747.549	37.35
747.729	37.01
747.909	37.61
748.089	38.7
748.269	38.33
748.449	38.83
748.629	39.22
748.809	40.67
748.989	40.45
749.169	39.45
749.349	38.85
749.529	38.92
749.709	39.64
749.889	38.89
750.068	39.11
750.248	40.27
750.428	40.31
750.608	40.26
750.788	40.17
750.967	39.54
751.147	40.48
751.327	39.63
751.507	39.1
751.686	38.92
751.866	38.92
752.046	37.83
752.225	37.42
752.405	37.67
752.585	36.78
752.764	35.31
752.944	35.11
753.123	34.5
753.303	35.42
753.482	35.39
753.662	34.4
753.841	34.05
754.021	34.3
754.2	33.67
754.38	33.2
754.559	33.63
754.739	35.15
754.918	36.12
755.097	36.05
755.277	35.87
755.456	35.59
755.635	34.7
755.815	35.2
755.994	34.16
756.173	33.75
756.352	32.87
756.532	33.38
756.711	32.46
756.89	32.28
757.069	32.97
757.248	32.89
757.427	32.99
757.607	34.85
757.786	35.69
757.965	36.57
758.144	38.09
758.323	39.87
758.502	39.21
758.681	38.69
758.86	39.5
759.039	39.66
759.218	38.97
759.397	38.52
759.576	38.32
759.755	37.64
759.934	37.03
760.113	36.39
760.291	35.47
760.47	35.64
760.649	36.31
760.828	35.41
761.007	35.22
761.186	35.54
761.364	37.28
761.543	36.62
761.722	36.06
761.901	36.53
762.079	36.25
762.258	36.86
762.437	36.64
762.615	36.85
762.794	36.37
762.972	36.08
763.151	36.87
763.33	36.54
763.508	37.42
763.687	38.03
763.865	37.69
764.044	37.89
764.222	38.09
764.401	38.34
764.579	38.76
764.758	39.1
764.936	39.83
765.114	38.89
765.293	38.28
765.471	38.22
765.65	37.94
765.828	38.24
766.006	38.68
766.184	38.14
766.363	38.67
766.541	37.83
766.719	37.28
766.898	36.68
767.076	37.54
767.254	37.7
767.432	37.04
767.61	35.81
767.788	35.69
767.967	34.26
768.145	34.77
768.323	33.98
768.501	33.66
768.679	34.22
768.857	34.03
769.035	34.03
769.213	33.99
769.391	33.49
769.569	34.72
769.747	34.13
769.925	34.33
770.103	32.49
770.281	31.98
770.459	32.25
770.636	32.25
770.814	32.36
770.992	32.46
771.17	32.06
771.348	32.46
771.525	32.89
771.703	34.04
771.881	33.92
772.059	36.03
772.236	36.07
772.414	36.04
772.592	35.72
772.769	35.61
772.947	35.49
773.125	36.86
773.302	37.79
773.48	36.88
773.657	37.67
773.835	38.22
774.013	36.01
774.19	36.57
774.368	36.73
774.545	37.1
774.723	37.54
774.9	36.29
775.077	36.43
775.255	36.02
775.432	37.22
775.61	34.92
775.787	35.05
775.964	37.4
776.142	36.73
776.319	37.2
776.496	36.01
776.674	36.34
776.851	37.17
777.028	36.53
777.205	36.03
777.382	34.77
777.56	36.51
777.737	36.72
777.914	35.81
778.091	35.46
778.268	34.28
778.445	35.06
778.622	34
778.8	34.04
778.977	33.17
779.154	33.92
779.331	32.76
779.508	32.34
779.685	30.77
779.862	30.35
780.038	31.87
780.215	33.46
780.392	33.84
780.569	34.01
780.746	36.08
780.923	36.04
781.1	35.32
781.277	38.64
781.453	37.24
781.63	39.41
781.807	39.25
781.984	39.09
782.16	38.57
782.337	38.84
782.514	38.91
782.691	38.23
782.867	38.28
783.044	39.6
783.221	37.48
783.397	40.2
783.574	40.55
783.75	40.87
783.927	40.68
784.103	38.28
784.28	36.87
784.456	37.25
784.633	34.73
784.809	35.01
784.986	35.13
785.162	37.09
785.339	35.77
785.515	34.36
785.692	35.32
785.868	36
786.044	38.28
786.221	40.53
786.397	40.66
786.573	40.44
786.749	39.33
786.926	36.09
787.102	35.25
787.278	34.15
787.454	36.47
787.631	37.05
787.807	35.57
787.983	34.57
788.159	32.97
788.335	31.52
788.511	30.75
788.687	31.69
788.863	33.17
789.039	34.14
789.216	33.75
789.392	32.07
789.568	29.73
789.744	29.11
789.919	30.69
790.095	31.33
790.271	32
790.447	33.72
790.623	32.54
790.799	33.33
790.975	33.13
791.151	34.3
791.327	34.46
791.502	35.16
791.678	37.25
791.854	35.24
792.03	33.63
792.205	35.14
792.381	33.73
792.557	35.56
792.733	34.85
792.908	29.64
793.084	30.57
793.259	29
793.435	27.26
793.611	25.42
793.786	25.98
793.962	26.61
794.137	24.16
794.313	25.6
794.488	23.65
794.664	23.4
794.839	25.38
795.015	23.39
795.19	23.33
795.366	26.31
795.541	27.68
795.716	29.83
795.892	30.76
796.067	32.27
796.242	32.3
796.418	32.15
796.593	31.63
796.768	32.58
796.944	33.44
797.119	33.6
797.294	33
797.469	30.91
797.644	29.11
797.82	29.14
797.995	29.28
798.17	26.07
798.345	25.86
798.52	25.77
798.695	25.45
798.87	25.94
799.045	26.61
799.22	25.43
799.395	27.63
799.57	28.1
799.745	28.27
799.92	27.24
800.095	28.28
800.27	29.08
800.445	30.78
800.62	31.54
800.795	30.21
800.97	29.41
801.145	31.48
801.319	32.09
801.494	31.92
801.669	31.29
801.844	32.42
802.018	33.44
802.193	35.94
802.368	33.68
802.543	31.82
802.717	30.36
802.892	30.4
803.067	28.73
803.241	27.7
803.416	25.9
803.59	24.54
803.765	22.13
803.94	23.89
804.114	23.1
804.289	24.84
804.463	25.85
804.638	27.57
804.812	27.77
804.986	26.85
805.161	27.28
805.335	32.08
805.51	33.41
805.684	36.91
805.858	37.17
806.033	33.02
806.207	33.21
806.381	33.11
806.556	32.81
806.73	32.58
806.904	35.04
807.078	33.09
807.253	27.9
807.427	27.1
807.601	25.47
807.775	25.71
807.949	30.2
808.123	28.72
808.298	28.46
808.472	27.92
808.646	28.13
808.82	27.79
808.994	24.37
809.168	26.77
809.342	27.76
809.516	26.74
809.69	24.66
809.864	21.72
810.038	22.66
810.212	23.11
810.385	22.29
810.559	22.42
810.733	25.18
810.907	29.71
811.081	27.71
811.255	28.92
811.428	26.78
811.602	27.23
811.776	27.94
811.95	27.96
812.123	29.22
812.297	32.19
812.471	30.9
812.644	27.22
812.818	27.86
812.992	29.99
813.165	28.39
813.339	29.39
813.512	27.59
813.686	28.14
813.86	30.02
814.033	29.23
814.207	29.05
814.38	30.75
814.554	31.03
814.727	31.34
814.9	29.84
815.074	28.54
815.247	29.95
815.421	30.83
815.594	35.44
815.767	32.48
815.941	32.25
816.114	29.57
816.287	30.11
816.46	27.51
816.634	30.48
816.807	31.48
816.98	32.56
817.153	30.82
817.327	31.2
817.5	27.97
817.673	29.34
817.846	31.42
818.019	33.12
818.192	31.75
818.365	28.43
818.538	25.72
818.711	28.15
818.884	28.68
819.057	30.88
819.23	33.34
819.403	34.54
819.576	37.08
819.749	33.04
819.922	33.01
820.095	33.82
820.268	38.89
820.441	38.88
820.614	35.59
820.786	37.06
820.959	35.3
821.132	34.52
821.305	32.76
821.477	30.57
821.65	31.36
821.823	31.82
821.996	31.17
822.168	30.75
822.341	30.16
822.514	30.84
822.686	29.88
822.859	30.8
823.031	31.05
823.204	31.2
823.376	31.77
823.549	31.55
823.722	31.5
823.894	31.72
824.067	31.95
824.239	32.63
824.411	32.65
824.584	33.26
824.756	32.83
824.929	32.01
825.101	32.34
825.273	32.31
825.446	32.58
825.618	32.28
825.79	32.41
825.963	32.01
826.135	31.1
826.307	30.91
826.479	30.3
826.652	30.45
826.824	30.28
826.996	30.08
827.168	29.53
827.34	29.88
827.512	30.42
827.684	30.41
827.856	30.41
828.029	31.18
828.201	30.47
828.373	29.15
828.545	28.82
828.717	29.34
828.889	28.36
829.061	28.3
829.232	27.22
829.404	25.35
829.576	23.94
829.748	23.03
829.92	22.24
830.092	23.66
830.264	25.79
830.436	24.76
830.607	24.82
830.779	25.74
830.951	25.32
831.123	26.56
831.294	29.48
831.466	31.95
831.638	35.06
831.809	36.26
831.981	36.02
832.153	34.23
832.324	32.73
832.496	34.2
832.667	32.74
832.839	34.56
833.011	31.26
833.182	29.15
833.354	30.3
833.525	29.01
833.697	28.11
833.868	27.43
834.039	29.79
834.211	32.36
834.382	31.9
834.554	31.78
834.725	31.49
834.896	33.25
835.068	32.73
835.239	32.61
835.41	32.05
835.581	32.1
835.753	31.38
835.924	30.31
836.095	30.95
836.266	30.29
836.438	32.34
836.609	30.88
836.78	31.05
836.951	35.17
837.122	33.18
837.293	32.17
837.464	31.27
837.635	31.44
837.806	31.51
837.977	30.52
838.148	33.32
838.319	31.31
838.49	32.44
838.661	30.58
838.832	27.7
839.003	24.82
839.174	24.96
839.345	25.63
839.516	26.37
839.687	27.96
839.857	25.94
840.028	23.78
840.199	26.69
840.37	25.44
840.54	30.81
840.711	30.97
840.882	36.64
841.053	35.36
841.223	36.39
841.394	38.99
841.564	40.12
841.735	40.33
841.906	41.1
842.076	43.08
842.247	40.6
842.417	37.51
842.588	35.74
842.758	29.97
842.929	32.1
843.099	25.46
843.27	25.47
843.44	20.6
843.611	22.25
843.781	15.18
843.951	12.02
844.122	27.4
844.292	23.65
844.462	25.52
844.633	31.21
844.803	33.68
844.973	43.05
845.144	37.33
845.314	26.01
845.484	24.25
845.654	19.53
845.824	15.27
845.995	5.63
846.165	10.24
846.335	12.45
846.505	14.5
846.675	19.06
846.845	14.4
847.015	19.95
847.185	27.74
847.355	31.48
847.525	34
847.695	28.2
847.865	33.41
848.035	32.22
848.205	37.83
848.375	36.49
848.545	34.01
848.715	35.89
848.884	34.45
849.054	32.15
849.224	23.67
849.394	24.23
849.564	31.48
849.733	25.34
849.903	31.92
850.073	29.61
850.243	29.29
850.412	21.24
850.582	25.13
850.752	19.79
850.921	27.01
851.091	32.25
851.26	34.66
851.43	33.47
851.599	37.66
851.769	33.85
851.939	25.44
852.108	10.64
852.278	11.37
852.447	16.41
852.616	18.9
852.786	9.52
852.955	9.26
853.125	9.9
853.294	4.66
853.463	0.15
853.633	-11.5
853.802	-18.42
853.971	-2.15
854.141	-1.45
854.31	-16.44
854.479	-21.47
854.648	-10.51
854.818	-11.64
854.987	-14.18
855.156	-6.09
855.325	-2.51
855.494	14.55
855.663	21.88
855.832	16.97
856.001	23.04
856.171	28.45
856.34	35.81
856.509	38.98
856.678	40.27
856.847	49.09
857.016	43.5
857.185	39.95
857.353	36.97
857.522	41.84
857.691	47.25
857.86	45.26
858.029	48.13
858.198	52.01
858.367	44.57
858.535	39.93
858.704	39.37
858.873	45.02
859.042	38.32
859.21	45.55
859.379	42.42
859.548	42.99
859.717	48.88
859.885	32.74
860.054	20.49
860.222	1.33
860.391	14.31
860.56	11.51
860.728	13.86
860.897	15.66
861.065	11.42
861.234	3.55
861.402	0.45
861.571	5.89
861.739	4.52
861.908	12.24
862.076	23.68
862.244	22.84
862.413	19.09
862.581	18.43
862.749	12.83
862.918	14.15
863.086	19.31
863.254	18.71
863.423	16.36
863.591	14.14
863.759	10.91
863.927	10.45
864.096	10.22
864.264	19.92
864.432	22.88
864.6	25.24
864.768	21.29
864.936	19.22
865.104	22.82
865.272	21.57
865.44	27.75
865.608	22.44
865.776	27.55
865.944	30.62
866.112	13.05
866.28	13.34
866.448	28.91
866.616	31.54
866.784	28.52
866.952	23.67
867.12	27.85
867.288	24.49
867.455	26.39
867.623	32.59
867.791	33.15
867.959	40.79
868.127	44.99
868.294	30.97
868.462	20.91
868.63	22.37
868.797	30.44
868.965	25.66
869.133	20.42
869.3	32.55
869.468	16.23
869.636	-3.63
869.803	-2.79
869.971	-2.62
870.138	3.7
870.306	15.7
870.473	22.77
870.641	24.77
870.808	11.9
870.975	17.96
871.143	-10.88
871.31	2.34
871.478	14.97
871.645	18.55
871.812	-5.69
871.98	-0.04
872.147	6.15
872.314	0.33
872.482	-9.88
872.649	-0.84
872.816	7.36
872.983	13.61
873.15	20.93
873.318	32.11
873.485	27.52
873.652	41.3
873.819	42
873.986	43.54
874.153	43.33
874.32	40.25
874.487	34.32
874.654	37.39
874.821	45.17
874.988	29.64
875.155	25
875.322	25.31
875.489	24.74
875.656	19.83
875.823	15.81
875.99	14.16
876.157	21.62
876.324	33.13
876.49	27.13
876.657	27.66
876.824	35.57
876.991	27.64
877.157	26.7
877.324	25.65
877.491	21.62
877.658	12.78
877.824	19.62
877.991	20.77
878.157	13.46
878.324	13.72
878.491	4.31
878.657	10.62
878.824	8.92
878.99	14.41
879.157	9.75
879.323	14.86
879.49	27.62
879.656	21.03
879.823	25.31
879.989	32.09
880.156	37.61
880.322	40.67
880.488	32.1
880.655	37.9
880.821	33.87
880.987	40.16
881.154	45.33
881.32	35.01
881.486	37.75
881.652	34.37
881.819	34.15
881.985	31.75
882.151	30.89
882.317	33.21
882.483	29.11
882.649	28.68
882.816	25.82
882.982	24.69
883.148	28.19
883.314	28.23
883.48	27.56
883.646	28.38
883.812	28.97
883.978	29.04
884.144	26.86
884.31	27.57
884.476	27.82
884.642	29.98
884.807	30.69
884.973	28.88
885.139	27.07
885.305	27.35
885.471	26.98
885.637	24.48
885.802	24.87
885.968	24.83
886.134	24.67
886.3	25.67
886.465	23.34
886.631	23.35
886.797	24.89
886.962	27.36
887.128	30.83
887.293	30.78
887.459	34.59
887.625	36.02
887.79	40.49
887.956	45.82
888.121	48.01
888.287	51.18
888.452	48.62
888.618	47.6
888.783	49.08
