Data from CB_109_Reflection_2.txt Node
Date: Sat Nov 14 18:10:55 EST 2015
User: robert
Spectrometer: USB4E03001
Autoset integration time: false
Trigger mode: 4
Integration Time (sec): 1.000000E-1
Scans to average: 15
Electric dark correction enabled: true
Nonlinearity correction enabled: false
Boxcar width: 5
Stray light correction enabled: false
XAxis mode: Wavelengths
Stop averaging: false
Number of Pixels in Spectrum: 3648
>>>>>Begin Spectral Data<<<<<
177.566	225.69
177.785	-1927.59
178.005	457.67
178.225	469.19
178.445	287.37
178.665	50.41
178.885	-1179.38
179.105	154.54
179.324	152.94
179.544	69.42
179.764	68.47
179.984	54.32
180.204	77.22
180.423	51.74
180.643	58.72
180.863	42.94
181.083	35.85
181.302	48.43
181.522	61.9
181.742	71.81
181.961	83.41
182.181	126.41
182.401	395.21
182.621	206.05
182.84	300.27
183.06	137.85
183.279	101.7
183.499	172.65
183.719	105.99
183.938	43.84
184.158	93.87
184.377	108.08
184.597	67.17
184.816	59.25
185.036	51.56
185.256	51.28
185.475	69.07
185.695	58.83
185.914	54.23
186.134	65.02
186.353	68.63
186.572	49.85
186.792	52.65
187.011	71.38
187.231	68.14
187.45	78.9
187.67	77.14
187.889	76.28
188.108	84.06
188.328	103.55
188.547	116.14
188.766	138.46
188.986	121.73
189.205	123.24
189.424	103.8
189.644	109.55
189.863	104.91
190.082	124.56
190.302	99.69
190.521	76.28
190.74	67.26
190.959	34.43
191.178	35.09
191.398	23.55
191.617	37.17
191.836	60.63
192.055	42.04
192.274	34.47
192.494	53.49
192.713	90.24
192.932	151.63
193.151	145.94
193.37	146.45
193.589	83.19
193.808	197.21
194.027	272.8
194.246	-482.7
194.465	998.37
194.685	110.18
194.904	37.56
195.123	23.46
195.342	-9.59
195.561	24.74
195.78	16.2
195.999	41.71
196.218	26.61
196.436	33.26
196.655	26.72
196.874	35.77
197.093	48.44
197.312	55.09
197.531	61.39
197.75	73.54
197.969	78.53
198.188	81.51
198.407	72.66
198.625	79.82
198.844	79.86
199.063	79.49
199.282	81.96
199.501	86.72
199.719	102.53
199.938	99.36
200.157	72.22
200.376	80.06
200.594	81.72
200.813	101.51
201.032	86.28
201.251	85.64
201.469	99.61
201.688	81.21
201.907	75.63
202.125	66.54
202.344	101.94
202.563	115.82
202.781	96.71
203	118.4
203.218	92.73
203.437	69.87
203.656	67.05
203.874	39.59
204.093	51.07
204.311	79.7
204.53	105.75
204.748	75.58
204.967	93.35
205.185	101.39
205.404	102.02
205.622	77.94
205.841	104.94
206.059	100.84
206.278	99.46
206.496	97.88
206.715	106.27
206.933	74.81
207.151	83.35
207.37	79.15
207.588	76.64
207.806	75.4
208.025	95.8
208.243	95.8
208.461	130.54
208.68	138.09
208.898	119.26
209.116	104.86
209.335	113.17
209.553	135.77
209.771	137.45
209.989	133.45
210.208	116.18
210.426	95.07
210.644	87.11
210.862	56.13
211.081	58.87
211.299	82.28
211.517	83.1
211.735	87.07
211.953	88.79
212.171	88.11
212.39	81.08
212.608	98.98
212.826	109.16
213.044	111.12
213.262	127.26
213.48	126.06
213.698	112.68
213.916	125.6
214.134	108.13
214.352	106.78
214.57	91.1
214.788	106.97
215.006	102.48
215.224	99.31
215.442	109.69
215.66	92.76
215.878	82.09
216.096	107.04
216.314	93.04
216.532	112.39
216.75	97.88
216.968	126.3
217.185	123.12
217.403	156.45
217.621	218.46
217.839	154.33
218.057	194.88
218.275	192.23
218.492	201.63
218.71	238.41
218.928	263.25
219.146	396.56
219.363	272.81
219.581	252.6
219.799	256.58
220.017	207.81
220.234	222.08
220.452	230.49
220.67	258.36
220.887	348.24
221.105	418.44
221.323	6117.18
221.54	427.84
221.758	2047.5
221.976	991.49
222.193	206.65
222.411	264.13
222.629	387.73
222.846	443.18
223.064	-421.75
223.281	533.46
223.499	328.11
223.716	427.24
223.934	-328.01
224.151	-104.25
224.369	-90.19
224.586	-39.02
224.804	-16.01
225.021	-33.97
225.239	-46.58
225.456	-56.12
225.674	-50.04
225.891	-59.49
226.108	-71.71
226.326	-56.19
226.543	-30.82
226.76	-7.6
226.978	-12.15
227.195	-13.11
227.413	-15.88
227.63	-9.07
227.847	-0.3
228.064	9.38
228.282	7.66
228.499	7.45
228.716	2.66
228.934	1.86
229.151	3.07
229.368	4.24
229.585	1.53
229.802	2.99
230.02	1.37
230.237	-0.72
230.454	-1.06
230.671	-2.11
230.888	-3.5
231.105	-4.55
231.323	-7.03
231.54	-15.72
231.757	-22.64
231.974	-25.34
232.191	-25.06
232.408	-16.03
232.625	-14.22
232.842	-18.38
233.059	-16.86
233.276	-19.48
233.493	-20.13
233.71	-14.76
233.927	-4.38
234.144	-0.97
234.361	-3.35
234.578	-6.44
234.795	-8.08
235.012	-10.61
235.229	-15.99
235.446	-21.9
235.663	-15.41
235.879	-14.27
236.096	-14.26
236.313	-24.04
236.53	-22.89
236.747	-13.45
236.964	-17.77
237.181	-18.2
237.397	-14.31
237.614	-17.8
237.831	-16.49
238.048	-15.43
238.264	-22.38
238.481	-30.85
238.698	-18.38
238.915	-16.35
239.131	-15.05
239.348	-7.51
239.565	-10.9
239.781	-7.53
239.998	-2.83
240.215	-1.94
240.431	-4.79
240.648	5.66
240.865	6.95
241.081	4.92
241.298	6.1
241.514	4.84
241.731	5.82
241.947	6.99
242.164	5.81
242.38	6.96
242.597	7.51
242.814	9.15
243.03	5.55
243.246	6.45
243.463	6.45
243.679	4.62
243.896	5.13
244.112	3.01
244.329	1.81
244.545	3.31
244.762	2.89
244.978	5.32
245.194	3.04
245.411	2.12
245.627	3.49
245.843	3.22
246.06	3.12
246.276	3.14
246.492	5.48
246.709	5.57
246.925	4.41
247.141	4.55
247.357	3.89
247.574	4.29
247.79	5.27
248.006	4.9
248.222	4.76
248.439	5.41
248.655	4.98
248.871	4.64
249.087	6.54
249.303	7.07
249.519	6.68
249.736	5.66
249.952	7.45
250.168	8.31
250.384	7.27
250.6	9.61
250.816	7.92
251.032	8.82
251.248	6.52
251.464	1.43
251.68	0.65
251.896	-0.44
252.112	-1.11
252.328	-4.12
252.544	-5.77
252.76	-6.94
252.976	-9.77
253.192	-8.85
253.408	-9.19
253.624	-7.15
253.84	-6.27
254.056	-5.27
254.272	-4.22
254.487	-3.71
254.703	-0.37
254.919	-1.57
255.135	0.94
255.351	-0.74
255.567	1.48
255.782	-2.93
255.998	-3
256.214	-4.02
256.43	-1.12
256.646	-0.18
256.861	2.06
257.077	-2.85
257.293	0.49
257.508	3.6
257.724	6.62
257.94	7.85
258.155	8.71
258.371	6.99
258.587	6.06
258.802	5.47
259.018	5.91
259.234	6.53
259.449	7.62
259.665	7.54
259.88	6.66
260.096	6.17
260.312	5.13
260.527	5.65
260.743	5.68
260.958	6.51
261.174	6.13
261.389	5.63
261.605	5.39
261.82	4.64
262.036	3.36
262.251	2.5
262.466	3.15
262.682	2.96
262.897	2.31
263.113	3.06
263.328	3.82
263.543	2.67
263.759	-0.3
263.974	-2.04
264.189	-1.93
264.405	-2.94
264.62	-2
264.835	-2.83
265.051	-1.64
265.266	-1.3
265.481	-0.97
265.696	-1.92
265.912	-0.87
266.127	2.77
266.342	3.4
266.557	3.41
266.773	5.05
266.988	5
267.203	4.58
267.418	4.76
267.633	6
267.848	6.19
268.064	5.61
268.279	5.96
268.494	4.02
268.709	5.38
268.924	6.22
269.139	4.59
269.354	5.15
269.569	5.02
269.784	4.43
269.999	3
270.214	1.48
270.429	1.59
270.644	1.63
270.859	2.97
271.074	1.46
271.289	1.14
271.504	2.65
271.719	2.16
271.934	1.49
272.149	2.23
272.363	2.26
272.578	4.7
272.793	4.44
273.008	4.26
273.223	4.8
273.438	4.9
273.653	5.21
273.867	4.79
274.082	4.76
274.297	5.97
274.512	4.63
274.726	3.43
274.941	0.56
275.156	1.59
275.371	2.66
275.585	2.15
275.8	3.28
276.015	1.67
276.229	3.4
276.444	4.06
276.659	3.74
276.873	4.59
277.088	5.86
277.302	6.56
277.517	5.92
277.732	5.35
277.946	4.99
278.161	3.77
278.375	4.31
278.59	4.36
278.804	4.2
279.019	3.88
279.233	5.05
279.448	3.38
279.662	3.38
279.877	3.07
280.091	3.56
280.306	3.37
280.52	3.26
280.735	4.45
280.949	4.04
281.163	3.49
281.378	3.77
281.592	4.33
281.806	6.67
282.021	6.77
282.235	8.24
282.449	7.19
282.664	7.93
282.878	8.62
283.092	8.06
283.307	7.53
283.521	6.73
283.735	7.15
283.949	5.6
284.164	4.88
284.378	6.13
284.592	4.9
284.806	5.64
285.02	5.43
285.234	5.68
285.449	6.07
285.663	6.47
285.877	6.95
286.091	6.5
286.305	6.38
286.519	6.55
286.733	5.12
286.947	5.35
287.161	5.65
287.375	5.72
287.589	5.8
287.803	5.71
288.017	5.18
288.231	5.91
288.445	6.65
288.659	7.06
288.873	6.35
289.087	7.66
289.301	6.71
289.515	5.71
289.729	4.2
289.943	3.63
290.157	3.03
290.371	3.91
290.584	3.92
290.798	2.86
291.012	2.65
291.226	3.04
291.44	1.64
291.654	2.31
291.867	2.62
292.081	4.77
292.295	5.28
292.509	5.34
292.722	4.6
292.936	4.5
293.15	6.32
293.364	6.84
293.577	6.45
293.791	7.55
294.005	8.31
294.218	8.18
294.432	6.84
294.645	6.38
294.859	7.61
295.073	7.84
295.286	7.58
295.5	6.33
295.713	5.64
295.927	5.69
296.14	5.03
296.354	4.5
296.568	4.58
296.781	5.78
296.994	5.76
297.208	5.09
297.421	5.59
297.635	5.49
297.848	6.07
298.062	6.68
298.275	7.34
298.489	7.45
298.702	7.48
298.915	7.54
299.129	7.46
299.342	8
299.555	7.09
299.769	7.06
299.982	6.51
300.195	5.61
300.409	5.67
300.622	4.8
300.835	4.62
301.048	5.16
301.262	5.6
301.475	3.97
301.688	3.16
301.901	4.3
302.115	3.54
302.328	4.21
302.541	5.11
302.754	3.6
302.967	4.52
303.18	4.63
303.393	4.82
303.607	4.45
303.82	4.8
304.033	5.71
304.246	5.77
304.459	6.07
304.672	6.94
304.885	6.66
305.098	7.99
305.311	7.96
305.524	7.62
305.737	6.91
305.95	6.41
306.163	6.75
306.376	5.6
306.589	7.31
306.802	6.09
307.015	5.15
307.228	6.12
307.44	6.8
307.653	7.12
307.866	8.03
308.079	8.48
308.292	10.54
308.505	10.67
308.718	11.88
308.93	10.52
309.143	11.04
309.356	10.74
309.569	10.11
309.781	10.66
309.994	9.5
310.207	9.44
310.42	8.43
310.632	7.28
310.845	7.1
311.058	7.99
311.27	8.93
311.483	9.5
311.696	10.27
311.908	10.38
312.121	9.33
312.333	10.26
312.546	10.44
312.759	11.26
312.971	11.3
313.184	11.24
313.396	9.22
313.609	7.8
313.821	8.1
314.034	7.15
314.246	7.91
314.459	7.87
314.671	6.69
314.884	7.09
315.096	7.46
315.309	7.19
315.521	7.35
315.733	7.95
315.946	8.97
316.158	8.36
316.371	9.47
316.583	8.31
316.795	9.3
317.008	9.74
317.22	9.33
317.432	8.57
317.644	7.22
317.857	8.59
318.069	8.52
318.281	7.01
318.494	6.09
318.706	5.11
318.918	4.48
319.13	4.26
319.342	4.67
319.555	5
319.767	5.13
319.979	6.07
320.191	6.32
320.403	5.69
320.615	7.36
320.827	6.97
321.039	6.89
321.252	7.29
321.464	7.64
321.676	7.17
321.888	7.96
322.1	8.81
322.312	9.66
322.524	9.13
322.736	10.61
322.948	10.09
323.16	11.26
323.372	11.76
323.584	11.25
323.796	9.68
324.007	9.4
324.219	8.8
324.431	8.36
324.643	7.63
324.855	7.95
325.067	8.53
325.279	8.07
325.491	9.57
325.702	10.17
325.914	10.99
326.126	12.44
326.338	13.86
326.55	15.56
326.761	17.3
326.973	18.69
327.185	18.25
327.396	18.89
327.608	19.39
327.82	18.63
328.032	18.91
328.243	19.16
328.455	19.93
328.666	19.54
328.878	19.27
329.09	19.53
329.301	19.77
329.513	19.86
329.725	18.75
329.936	19.42
330.148	18.72
330.359	18.16
330.571	18.21
330.782	18.33
330.994	19.27
331.205	18.5
331.417	18.12
331.628	18.36
331.84	18.81
332.051	18.49
332.262	18.65
332.474	19.68
332.685	20.59
332.897	22.39
333.108	22.72
333.319	22.23
333.531	22.77
333.742	22.14
333.953	22.05
334.165	22.55
334.376	23.19
334.587	23.47
334.799	24.63
335.01	24.8
335.221	23.93
335.432	24.3
335.644	25.73
335.855	25.57
336.066	26.17
336.277	25.99
336.488	25.39
336.7	25.27
336.911	25.26
337.122	24.61
337.333	25.4
337.544	24.98
337.755	23.33
337.966	22.97
338.177	22.73
338.388	22.97
338.599	23.89
338.811	24.46
339.022	25.54
339.233	25.23
339.444	25.11
339.655	24.08
339.866	24.64
340.076	25.53
340.287	24.59
340.498	26.05
340.709	24.61
340.92	25.04
341.131	24.47
341.342	23.94
341.553	23.25
341.764	24.2
341.975	23.78
342.185	24.27
342.396	23.83
342.607	24.28
342.818	23.38
343.029	24.1
343.239	23.58
343.45	24.14
343.661	24.1
343.872	24.74
344.082	24.19
344.293	25.18
344.504	24.38
344.714	25.24
344.925	24.95
345.136	25.28
345.346	25.29
345.557	24.86
345.768	25.5
345.978	24.84
346.189	25.51
346.399	25.66
346.61	24.24
346.821	24.48
347.031	24.25
347.242	24.38
347.452	23.81
347.663	23.45
347.873	23.34
348.084	22.71
348.294	23.84
348.504	23.54
348.715	22.84
348.925	23.57
349.136	23.19
349.346	23.42
349.557	23.42
349.767	23.12
349.977	23.17
350.188	22.8
350.398	23.36
350.608	23.62
350.819	23.18
351.029	23.66
351.239	23.8
351.449	24.15
351.66	23.46
351.87	23.77
352.08	23.72
352.29	24.75
352.501	25.31
352.711	25
352.921	24.44
353.131	24.51
353.341	24.03
353.552	23.66
353.762	24.05
353.972	24.44
354.182	24.32
354.392	23.97
354.602	23.21
354.812	23.1
355.022	22.69
355.232	22.49
355.442	22.58
355.652	22.61
355.862	22.8
356.072	22.25
356.282	22.37
356.492	22.75
356.702	23.67
356.912	24.18
357.122	24.22
357.332	24.37
357.542	24.07
357.752	24.61
357.962	24.49
358.171	24.34
358.381	24.95
358.591	24.87
358.801	24.76
359.011	24.39
359.221	24.37
359.43	23.92
359.64	23.62
359.85	23.82
360.06	23.62
360.269	23.68
360.479	24.27
360.689	23.44
360.899	22.88
361.108	22.67
361.318	22.65
361.528	22.85
361.737	23.03
361.947	23.02
362.156	23.2
362.366	22.97
362.576	22.75
362.785	22.79
362.995	23.53
363.204	24.06
363.414	23.75
363.623	23.5
363.833	22.88
364.042	23.14
364.252	23.39
364.461	23.22
364.671	23.1
364.88	23.63
365.09	23.24
365.299	22.45
365.509	22.02
365.718	21.76
365.927	21.68
366.137	21.76
366.346	21.42
366.555	21.7
366.765	21.48
366.974	21.16
367.183	20.52
367.393	20.45
367.602	20.68
367.811	20.58
368.021	20.86
368.23	20.82
368.439	20.95
368.648	21.06
368.857	20.23
369.067	20.33
369.276	20
369.485	19.34
369.694	19.17
369.903	18.84
370.112	18.51
370.321	19.28
370.531	19.64
370.74	19.39
370.949	19.49
371.158	20.15
371.367	20.09
371.576	20.68
371.785	21.82
371.994	21.7
372.203	22.07
372.412	22.21
372.621	21.89
372.83	21.74
373.039	21.68
373.248	21.43
373.457	21.05
373.666	20.94
373.874	20.59
374.083	20.02
374.292	19.46
374.501	19.25
374.71	18.72
374.919	18.61
375.128	18.85
375.336	18.95
375.545	18.79
375.754	18.72
375.963	18.8
376.171	18.95
376.38	19.05
376.589	19.62
376.798	19.24
377.006	19.91
377.215	19.35
377.424	19.16
377.632	19.11
377.841	19.4
378.05	19.17
378.258	19.13
378.467	18.92
378.675	18.53
378.884	17.85
379.093	18.19
379.301	18.23
379.51	18.58
379.718	18.68
379.927	18.73
380.135	18.89
380.344	18.9
380.552	18.13
380.761	18.52
380.969	18.85
381.177	19.32
381.386	19.06
381.594	19.32
381.803	19.08
382.011	18.31
382.219	18.17
382.428	17.64
382.636	17.55
382.845	18.13
383.053	17.9
383.261	17.75
383.469	17.39
383.678	17.61
383.886	17.15
384.094	17.1
384.302	16.86
384.511	16.71
384.719	16.89
384.927	16.9
385.135	16.92
385.343	16.66
385.552	16.32
385.76	16.07
385.968	15.58
386.176	15.3
386.384	15.32
386.592	15.85
386.8	15.85
387.008	15.77
387.216	15.72
387.424	15.56
387.633	15.6
387.841	15.62
388.049	15.92
388.257	16.12
388.465	16.21
388.672	15.75
388.88	15.52
389.088	15.51
389.296	15.13
389.504	14.84
389.712	14.65
389.92	14.27
390.128	14.41
390.336	14.11
390.544	13.9
390.751	13.54
390.959	13.46
391.167	13.72
391.375	13.51
391.583	13.54
391.79	13.62
391.998	13.76
392.206	13.8
392.414	13.68
392.621	13.75
392.829	13.83
393.037	14.08
393.244	14.34
393.452	13.67
393.66	13.64
393.867	13.62
394.075	14.06
394.283	13.79
394.49	13.78
394.698	13.68
394.905	13.86
395.113	13.67
395.32	13.65
395.528	13.39
395.735	13.74
395.943	13.78
396.15	13.7
396.358	13.3
396.565	13.38
396.773	13.47
396.98	13.45
397.188	13.34
397.395	13.52
397.602	13.3
397.81	13.24
398.017	13.29
398.225	13.43
398.432	13.57
398.639	13.39
398.847	13.36
399.054	13.13
399.261	13.13
399.468	13.18
399.676	13.07
399.883	13.07
400.09	12.99
400.297	12.79
400.505	12.52
400.712	12.23
400.919	11.78
401.126	11.73
401.333	11.89
401.54	12.4
401.748	12.38
401.955	12.44
402.162	12.79
402.369	12.97
402.576	12.99
402.783	13.22
402.99	13.43
403.197	13.8
403.404	13.72
403.611	13.7
403.818	13.1
404.025	12.84
404.232	12.7
404.439	12.67
404.646	12.72
404.853	12.77
405.06	12.5
405.267	12.37
405.474	12.36
405.681	12.4
405.887	12.25
406.094	12.06
406.301	12.09
406.508	12.16
406.715	11.64
406.922	11.58
407.128	11.66
407.335	11.74
407.542	11.9
407.749	11.83
407.955	11.66
408.162	12
408.369	12.25
408.575	12.4
408.782	12.38
408.989	12.31
409.195	12.44
409.402	12.22
409.609	12.41
409.815	12.3
410.022	12.33
410.228	12.46
410.435	12.39
410.642	12.78
410.848	12.4
411.055	12.29
411.261	12.42
411.468	12.09
411.674	12.04
411.881	11.79
412.087	11.61
412.294	11.75
412.5	11.64
412.706	11.49
412.913	11.05
413.119	11.44
413.326	11.4
413.532	11.69
413.738	11.99
413.945	12.03
414.151	12.18
414.357	12.45
414.564	12.33
414.77	11.95
414.976	12.09
415.182	12.22
415.389	12.22
415.595	12.27
415.801	12.07
416.007	11.88
416.214	11.84
416.42	11.71
416.626	11.44
416.832	11.57
417.038	12.06
417.244	11.97
417.45	11.99
417.657	11.92
417.863	11.74
418.069	11.78
418.275	11.66
418.481	11.62
418.687	11.67
418.893	11.99
419.099	11.84
419.305	11.7
419.511	11.62
419.717	11.5
419.923	11.49
420.129	11.58
420.335	11.48
420.541	11.62
420.746	11.72
420.952	11.82
421.158	11.75
421.364	11.77
421.57	11.84
421.776	11.85
421.982	11.82
422.187	11.78
422.393	11.84
422.599	11.93
422.805	11.86
423.01	11.97
423.216	11.8
423.422	11.76
423.628	11.71
423.833	11.61
424.039	11.78
424.245	11.77
424.45	11.87
424.656	11.89
424.862	11.93
425.067	11.84
425.273	11.63
425.478	11.67
425.684	11.57
425.889	11.52
426.095	11.69
426.301	11.38
426.506	11.36
426.712	11.25
426.917	11.25
427.123	11.13
427.328	11.48
427.533	11.56
427.739	11.61
427.944	11.7
428.15	11.8
428.355	11.52
428.561	11.66
428.766	11.87
428.971	11.74
429.177	11.67
429.382	11.9
429.587	11.59
429.793	11.45
429.998	11.44
430.203	11.17
430.408	11.23
430.614	11.28
430.819	11.18
431.024	11.03
431.229	10.99
431.434	10.92
431.64	10.77
431.845	10.93
432.05	10.87
432.255	10.93
432.46	11.14
432.665	11.21
432.87	11.42
433.076	11.37
433.281	11.09
433.486	11.12
433.691	11.06
433.896	10.93
434.101	10.78
434.306	10.89
434.511	10.76
434.716	10.64
434.921	10.36
435.126	10.1
435.331	10.31
435.535	10.63
435.74	10.58
435.945	10.56
436.15	10.63
436.355	10.67
436.56	10.77
436.765	10.74
436.97	10.76
437.174	11.1
437.379	11.2
437.584	11.03
437.789	11.11
437.993	11.21
438.198	11.26
438.403	11.43
438.608	11.38
438.812	11.4
439.017	11.4
439.222	11.58
439.426	11.37
439.631	11.26
439.836	11.37
440.04	11.34
440.245	11.32
440.45	11.37
440.654	11.22
440.859	11.2
441.063	11.07
441.268	11.09
441.472	10.92
441.677	11.09
441.881	11.21
442.086	11.25
442.29	11.08
442.495	11.15
442.699	11.21
442.904	11.25
443.108	11.17
443.312	11.09
443.517	11.04
443.721	10.97
443.925	10.8
444.13	10.78
444.334	10.7
444.538	10.81
444.743	10.73
444.947	10.7
445.151	10.68
445.356	10.87
445.56	11.11
445.764	11.32
445.968	11.32
446.173	11.44
446.377	11.25
446.581	11.18
446.785	11.11
446.989	11.1
447.193	11.08
447.398	11.1
447.602	11.05
447.806	11.01
448.01	10.85
448.214	11.03
448.418	10.8
448.622	10.91
448.826	10.86
449.03	10.99
449.234	11.13
449.438	11.13
449.642	11
449.846	10.99
450.05	10.79
450.254	10.89
450.458	10.64
450.662	10.89
450.866	10.87
451.069	11.06
451.273	11.04
451.477	10.99
451.681	10.99
451.885	11.16
452.089	10.99
452.292	10.88
452.496	10.73
452.7	10.85
452.904	10.86
453.107	10.79
453.311	10.73
453.515	10.76
453.719	10.55
453.922	10.38
454.126	10.34
454.33	10.4
454.533	10.46
454.737	10.44
454.94	10.48
455.144	10.38
455.348	10.59
455.551	10.51
455.755	10.55
455.958	10.69
456.162	10.76
456.365	10.79
456.569	10.96
456.772	11.2
456.976	11.32
457.179	11.03
457.383	10.93
457.586	10.88
457.79	10.91
457.993	10.79
458.196	10.77
458.4	10.92
458.603	10.91
458.807	10.84
459.01	10.64
459.213	10.76
459.417	10.81
459.62	10.82
459.823	10.68
460.026	10.68
460.23	10.75
460.433	10.74
460.636	10.73
460.839	10.76
461.042	10.68
461.246	10.79
461.449	10.64
461.652	10.69
461.855	10.74
462.058	10.85
462.261	10.82
462.464	10.71
462.668	10.87
462.871	10.72
463.074	10.8
463.277	11.02
463.48	10.91
463.683	10.88
463.886	10.98
464.089	10.9
464.292	10.9
464.495	11.01
464.698	10.98
464.901	10.9
465.104	11.08
465.306	10.95
465.509	10.73
465.712	10.74
465.915	10.81
466.118	10.82
466.321	10.91
466.524	10.98
466.726	10.97
466.929	11
467.132	10.94
467.335	10.78
467.538	10.8
467.74	10.83
467.943	10.83
468.146	10.72
468.348	10.78
468.551	10.93
468.754	10.95
468.956	10.74
469.159	10.77
469.362	10.77
469.564	10.8
469.767	10.67
469.969	10.74
470.172	10.87
470.375	10.82
470.577	10.73
470.78	10.54
470.982	10.51
471.185	10.76
471.387	10.73
471.59	10.74
471.792	10.71
471.995	10.73
472.197	10.71
472.399	10.35
472.602	10.51
472.804	10.27
473.007	10.38
473.209	10.51
473.411	10.3
473.614	10.42
473.816	10.4
474.018	10.44
474.22	10.54
474.423	10.58
474.625	10.92
474.827	10.92
475.03	11.1
475.232	10.87
475.434	10.86
475.636	11
475.838	10.98
476.04	11.03
476.243	10.94
476.445	10.93
476.647	10.85
476.849	10.78
477.051	10.72
477.253	10.63
477.455	10.61
477.657	10.66
477.859	10.59
478.061	10.41
478.263	10.47
478.465	10.43
478.667	10.44
478.869	10.53
479.071	10.58
479.273	10.55
479.475	10.51
479.677	10.65
479.879	10.47
480.081	10.48
480.283	10.53
480.485	10.47
480.686	10.67
480.888	10.73
481.09	10.69
481.292	10.71
481.494	10.83
481.695	10.92
481.897	11.03
482.099	11.03
482.301	11.07
482.502	11.15
482.704	11.1
482.906	11.09
483.107	11.04
483.309	11.01
483.511	11.02
483.712	10.99
483.914	10.93
484.115	10.86
484.317	10.89
484.519	10.86
484.72	10.78
484.922	10.74
485.123	10.71
485.325	10.66
485.526	10.69
485.728	10.64
485.929	10.66
486.131	10.64
486.332	10.62
486.534	10.6
486.735	10.55
486.936	10.63
487.138	10.71
487.339	10.65
487.541	10.74
487.742	10.76
487.943	10.76
488.144	10.78
488.346	10.83
488.547	10.83
488.748	10.79
488.95	10.86
489.151	10.8
489.352	10.77
489.553	10.82
489.755	10.76
489.956	10.74
490.157	10.72
490.358	10.65
490.559	10.72
490.76	10.74
490.961	10.76
491.163	10.8
491.364	10.76
491.565	10.81
491.766	10.81
491.967	10.81
492.168	10.83
492.369	10.85
492.57	10.92
492.771	10.91
492.972	10.87
493.173	10.89
493.374	10.91
493.575	11.05
493.776	11.01
493.976	11.09
494.177	10.98
494.378	10.99
494.579	11.08
494.78	10.96
494.981	10.92
495.182	11.08
495.382	10.99
495.583	10.84
495.784	10.76
495.985	10.88
496.185	10.81
496.386	10.94
496.587	10.92
496.788	10.89
496.988	10.95
497.189	11.1
497.39	11.15
497.59	11.13
497.791	11.18
497.992	11.24
498.192	11.07
498.393	11.11
498.593	11.24
498.794	11.11
498.994	11.16
499.195	11.04
499.395	10.99
499.596	10.91
499.796	11.05
499.997	11.28
500.197	11.23
500.398	11.16
500.598	11.22
500.799	11.23
500.999	11.31
501.199	10.99
501.4	11.1
501.6	11.06
501.801	10.98
502.001	10.99
502.201	10.89
502.402	11.05
502.602	11.15
502.802	11
503.002	11.03
503.203	11.08
503.403	11.34
503.603	11.38
503.803	11.39
504.003	11.52
504.204	11.57
504.404	11.61
504.604	11.63
504.804	11.7
505.004	11.83
505.204	11.74
505.404	11.85
505.604	11.79
505.804	11.82
506.005	11.76
506.205	11.82
506.405	11.74
506.605	11.71
506.805	11.66
507.005	11.63
507.204	11.78
507.404	11.91
507.604	11.87
507.804	11.86
508.004	11.83
508.204	11.99
508.404	11.91
508.604	12.08
508.804	12.22
509.003	12.54
509.203	12.69
509.403	12.8
509.603	12.79
509.803	12.89
510.002	13.05
510.202	13.11
510.402	13.02
510.602	13.08
510.801	13.02
511.001	12.85
511.201	12.71
511.4	12.64
511.6	12.46
511.8	12.67
511.999	12.55
512.199	12.47
512.398	12.54
512.598	12.75
512.797	12.91
512.997	13.06
513.197	13.24
513.396	13.23
513.596	13.35
513.795	13.66
513.994	13.39
514.194	13.66
514.393	13.97
514.593	14.04
514.792	14.05
514.992	14.08
515.191	14.13
515.39	14.16
515.59	14.16
515.789	14.29
515.988	14.17
516.188	14.53
516.387	14.57
516.586	14.62
516.786	14.75
516.985	14.75
517.184	14.84
517.383	14.82
517.582	14.88
517.782	15.07
517.981	15.13
518.18	15.25
518.379	15.23
518.578	15.27
518.777	15.22
518.976	15.24
519.176	15.41
519.375	15.49
519.574	15.68
519.773	15.66
519.972	15.71
520.171	15.73
520.37	15.7
520.569	15.77
520.768	15.91
520.967	16.04
521.166	16.15
521.365	16.14
521.564	16.14
521.762	16.09
521.961	16.33
522.16	16.41
522.359	16.49
522.558	16.64
522.757	16.69
522.956	16.64
523.154	16.8
523.353	16.77
523.552	16.86
523.751	17.06
523.949	17.23
524.148	17.17
524.347	17.09
524.546	17.29
524.744	17.4
524.943	17.48
525.142	17.54
525.34	17.56
525.539	17.69
525.737	17.85
525.936	17.94
526.135	18.09
526.333	18.22
526.532	18.43
526.73	18.43
526.929	18.39
527.127	18.5
527.326	18.6
527.524	18.64
527.723	18.76
527.921	18.73
528.12	18.78
528.318	18.78
528.516	18.84
528.715	18.91
528.913	19.02
529.112	19.1
529.31	19.17
529.508	19.23
529.707	19.36
529.905	19.38
530.103	19.49
530.301	19.53
530.5	19.62
530.698	19.72
530.896	19.8
531.094	19.85
531.293	19.98
531.491	20.04
531.689	20.17
531.887	20.21
532.085	20.36
532.283	20.4
532.481	20.47
532.68	20.55
532.878	20.69
533.076	20.66
533.274	20.67
533.472	20.73
533.67	20.8
533.868	20.8
534.066	20.82
534.264	20.8
534.462	20.88
534.66	20.9
534.858	20.93
535.056	20.85
535.253	20.91
535.451	20.99
535.649	21.19
535.847	21.24
536.045	21.39
536.243	21.44
536.441	21.55
536.638	21.71
536.836	21.83
537.034	21.83
537.232	21.97
537.43	22.05
537.627	22.01
537.825	21.95
538.023	21.94
538.22	21.94
538.418	22.06
538.616	22.13
538.813	22.05
539.011	22.11
539.209	22.19
539.406	22.32
539.604	22.53
539.801	22.69
539.999	22.77
540.196	22.94
540.394	23.07
540.591	23.13
540.789	23.13
540.986	23.18
541.184	23.24
541.381	23.29
541.579	23.2
541.776	23.19
541.974	23.26
542.171	23.32
542.368	23.34
542.566	23.34
542.763	23.36
542.96	23.48
543.158	23.59
543.355	23.73
543.552	23.85
543.75	24.02
543.947	24.02
544.144	24.1
544.341	24.09
544.539	24.19
544.736	24.36
544.933	24.57
545.13	24.54
545.327	24.57
545.524	24.54
545.722	24.7
545.919	24.84
546.116	25.02
546.313	24.96
546.51	25.05
546.707	25.09
546.904	24.95
547.101	24.86
547.298	25.02
547.495	25.1
547.692	25.2
547.889	25.07
548.086	25.07
548.283	25.11
548.48	25.15
548.677	25.19
548.874	25.18
549.07	25.26
549.267	25.4
549.464	25.47
549.661	25.35
549.858	25.23
550.055	25.28
550.251	25.16
550.448	25.12
550.645	25.19
550.842	25.18
551.038	25.12
551.235	25.5
551.432	25.4
551.628	25.36
551.825	25.51
552.022	25.51
552.218	25.76
552.415	25.93
552.612	26.07
552.808	26.17
553.005	26.36
553.201	26.59
553.398	26.4
553.594	26.5
553.791	26.6
553.987	26.69
554.184	26.83
554.38	26.81
554.577	26.84
554.773	27.02
554.97	27.11
555.166	27.1
555.362	27.05
555.559	27.2
555.755	27.32
555.952	27.31
556.148	27.21
556.344	27.2
556.541	27.22
556.737	27.34
556.933	27.34
557.129	27.22
557.326	27.29
557.522	27.52
557.718	27.52
557.914	27.7
558.11	28
558.307	28.15
558.503	28.26
558.699	28.33
558.895	28.25
559.091	28.17
559.287	28.34
559.483	28.38
559.679	28.3
559.876	28.52
560.072	28.58
560.268	28.28
560.464	28.5
560.66	28.75
560.856	28.73
561.052	29.04
561.247	29.06
561.443	29.18
561.639	29.3
561.835	29.35
562.031	29.28
562.227	29.04
562.423	29.23
562.619	29.1
562.815	28.98
563.01	29.05
563.206	28.94
563.402	29.06
563.598	29.07
563.793	28.93
563.989	29.01
564.185	28.84
564.381	29.05
564.576	29.11
564.772	29.37
564.968	29.23
565.163	29.15
565.359	29.37
565.555	29.41
565.75	29.47
565.946	29.7
566.141	29.58
566.337	29.82
566.532	29.64
566.728	29.65
566.923	29.47
567.119	29.76
567.314	29.8
567.51	29.67
567.705	29.58
567.901	29.32
568.096	29.16
568.292	29.33
568.487	29.48
568.682	29.7
568.878	29.66
569.073	29.84
569.268	29.85
569.464	29.88
569.659	29.99
569.854	30.14
570.05	30.46
570.245	30.6
570.44	30.83
570.635	30.52
570.831	30.34
571.026	30.19
571.221	30.17
571.416	30.2
571.611	30.33
571.806	30.27
572.002	30.31
572.197	30.51
572.392	30.54
572.587	30.35
572.782	30.6
572.977	30.93
573.172	31.14
573.367	31.12
573.562	31.11
573.757	31.09
573.952	31.12
574.147	31.19
574.342	31.18
574.537	31.15
574.732	31.28
574.927	31.22
575.121	30.84
575.316	30.87
575.511	30.86
575.706	30.9
575.901	30.97
576.096	31.02
576.29	30.94
576.485	30.76
576.68	30.7
576.875	30.79
577.069	30.58
577.264	30.83
577.459	30.86
577.654	31.04
577.848	30.93
578.043	31.08
578.238	31.08
578.432	31.06
578.627	31.12
578.821	31.25
579.016	30.93
579.21	31.3
579.405	31.37
579.6	31.33
579.794	31.2
579.989	31.38
580.183	30.95
580.378	31.02
580.572	31.05
580.766	30.93
580.961	30.93
581.155	30.92
581.35	30.93
581.544	30.92
581.738	30.91
581.933	30.8
582.127	30.63
582.321	30.87
582.516	30.48
582.71	30.53
582.904	30.73
583.099	30.8
583.293	31.31
583.487	31.4
583.681	31.45
583.875	31.49
584.07	31.47
584.264	31.65
584.458	31.78
584.652	32.24
584.846	32.04
585.04	31.96
585.234	32.01
585.428	31.82
585.623	31.88
585.817	31.93
586.011	31.83
586.205	31.98
586.399	32.08
586.593	32.02
586.787	31.83
586.981	32.13
587.174	32.13
587.368	31.91
587.562	31.69
587.756	31.67
587.95	31.52
588.144	31.69
588.338	31.68
588.532	31.55
588.725	31.79
588.919	32.02
589.113	31.89
589.307	32.03
589.501	32.27
589.694	32.47
589.888	32.61
590.082	32.72
590.275	32.77
590.469	32.74
590.663	32.64
590.856	32.5
591.05	32.34
591.244	32.38
591.437	32.5
591.631	32.29
591.824	32.48
592.018	32.18
592.212	32.2
592.405	32.13
592.599	32.39
592.792	32.36
592.986	32.4
593.179	32.59
593.372	32.81
593.566	32.84
593.759	32.93
593.953	32.9
594.146	32.88
594.339	32.98
594.533	33.02
594.726	33.11
594.92	33.38
595.113	33.56
595.306	33.27
595.499	33.27
595.693	33.31
595.886	33.58
596.079	33.35
596.272	33.54
596.466	33.32
596.659	33.41
596.852	33.25
597.045	33.33
597.238	33.17
597.431	33.55
597.624	33.68
597.818	33.58
598.011	33.32
598.204	33.39
598.397	33.42
598.59	33.78
598.783	33.83
598.976	33.97
599.169	33.9
599.362	33.93
599.555	33.65
599.748	33.56
599.941	33.27
600.134	33.62
600.326	33.64
600.519	33.23
600.712	32.97
600.905	33.04
601.098	32.89
601.291	32.78
601.483	32.67
601.676	32.57
601.869	32.69
602.062	33.15
602.255	32.94
602.447	32.95
602.64	33.27
602.833	33.49
603.025	33.47
603.218	33.44
603.411	33.5
603.603	33.67
603.796	33.74
603.989	33.47
604.181	33.32
604.374	33.47
604.566	33.54
604.759	33.5
604.951	33.58
605.144	33.62
605.336	33.73
605.529	33.66
605.721	33.63
605.914	33.79
606.106	33.82
606.299	33.9
606.491	33.77
606.683	33.93
606.876	33.75
607.068	33.66
607.26	33.57
607.453	33.58
607.645	33.64
607.837	33.62
608.03	33.78
608.222	34.04
608.414	34.11
608.606	34.26
608.799	34.07
608.991	34.35
609.183	34.49
609.375	34.72
609.567	34.84
609.759	35.09
609.952	35.35
610.144	35.27
610.336	35.35
610.528	35.39
610.72	35.47
610.912	35.55
611.104	35.59
611.296	35.64
611.488	35.48
611.68	35.21
611.872	34.95
612.064	34.78
612.256	34.58
612.448	34.52
612.64	34.33
612.832	34.18
613.023	34.22
613.215	34.1
613.407	33.8
613.599	33.73
613.791	34.25
613.983	34.3
614.174	34.29
614.366	34.8
614.558	34.8
614.75	34.7
614.941	34.68
615.133	34.69
615.325	34.65
615.516	34.78
615.708	34.89
615.9	34.84
616.091	34.99
616.283	35.01
616.475	34.5
616.666	34.39
616.858	34.61
617.049	34.78
617.241	34.84
617.432	35.02
617.624	34.75
617.815	34.48
618.007	34.32
618.198	34.32
618.39	34.01
618.581	33.99
618.773	33.97
618.964	34.09
619.155	34.3
619.347	34.3
619.538	34.1
619.729	34.62
619.921	35.16
620.112	35.18
620.303	35.11
620.494	35.43
620.686	35.6
620.877	35.41
621.068	35.32
621.259	34.92
621.451	35.01
621.642	35.09
621.833	34.77
622.024	34.36
622.215	34.15
622.406	34.18
622.597	34.25
622.788	34.45
622.98	34.52
623.171	34.78
623.362	34.71
623.553	34.54
623.744	34.81
623.935	34.59
624.126	34.88
624.317	34.73
624.508	34.55
624.698	34.66
624.889	34.31
625.08	34.46
625.271	34.44
625.462	34.77
625.653	35.02
625.844	34.91
626.034	35.22
626.225	35.16
626.416	35.38
626.607	35.47
626.798	35.26
626.988	35.67
627.179	35.69
627.37	35.73
627.56	35.7
627.751	35.45
627.942	35.6
628.132	35.51
628.323	35.53
628.514	35.59
628.704	35.78
628.895	35.7
629.085	35.44
629.276	35.63
629.466	35.54
629.657	35.19
629.847	35.34
630.038	35.24
630.228	35.19
630.419	35.27
630.609	35.23
630.8	35.21
630.99	35.15
631.181	35.03
631.371	34.99
631.561	34.71
631.752	35.13
631.942	35.14
632.132	35.19
632.323	35.15
632.513	35.34
632.703	35.6
632.893	35.37
633.084	35.6
633.274	35.73
633.464	35.69
633.654	36
633.844	35.89
634.034	35.96
634.225	35.75
634.415	35.92
634.605	35.61
634.795	35.6
634.985	36.05
635.175	36.14
635.365	36.31
635.555	36.28
635.745	36.11
635.935	36.04
636.125	36.05
636.315	36.19
636.505	36.02
636.695	36.1
636.885	35.99
637.075	35.79
637.265	35.85
637.455	35.8
637.644	35.95
637.834	35.99
638.024	36.12
638.214	36.46
638.404	36.22
638.593	36.68
638.783	36.77
638.973	37.05
639.163	36.96
639.352	36.73
639.542	36.63
639.732	36.71
639.921	36.75
640.111	36.9
640.301	36.39
640.49	36.74
640.68	36.45
640.87	36.47
641.059	36.13
641.249	36.27
641.438	36.35
641.628	36.03
641.817	35.84
642.007	35.85
642.196	35.87
642.386	36.27
642.575	35.78
642.764	35.55
642.954	35.61
643.143	36.01
643.333	36.11
643.522	35.77
643.711	36.49
643.901	36.31
644.09	36.69
644.279	36.66
644.469	36.61
644.658	36.92
644.847	36.95
645.036	36.95
645.226	36.82
645.415	36.85
645.604	37.2
645.793	36.82
645.982	37.14
646.171	36.92
646.361	36.87
646.55	36.45
646.739	36.47
646.928	36.47
647.117	36.39
647.306	36.2
647.495	36.09
647.684	36.31
647.873	36.35
648.062	36.01
648.251	35.67
648.44	35.4
648.629	36.02
648.818	36.36
649.007	36.71
649.196	36.48
649.384	36.41
649.573	36.62
649.762	36.29
649.951	36.54
650.14	36.62
650.328	36.88
650.517	37.03
650.706	36.46
650.895	35.97
651.083	36.09
651.272	36.39
651.461	36.69
651.65	36.08
651.838	36.89
652.027	36.7
652.216	36.79
652.404	37.22
652.593	37.26
652.781	37.39
652.97	37.65
653.158	37.32
653.347	36.98
653.535	36.79
653.724	37.2
653.912	36.41
654.101	36.84
654.289	36.93
654.478	36.66
654.666	36.47
654.855	36.63
655.043	36.65
655.231	36.76
655.42	36.91
655.608	36.76
655.796	36.38
655.985	36.85
656.173	36.38
656.361	36.24
656.55	36.24
656.738	36.46
656.926	36.22
657.114	36.01
657.302	35.99
657.491	36.11
657.679	36.17
657.867	36.6
658.055	36.43
658.243	36.2
658.431	35.96
658.619	36
658.807	36.36
658.996	36.47
659.184	36.33
659.372	36.42
659.56	36.33
659.748	36.56
659.936	36.48
660.124	36.52
660.311	36.82
660.499	37.4
660.687	37.24
660.875	36.73
661.063	36.9
661.251	37.41
661.439	37.11
661.627	37.07
661.814	36.95
662.002	37.14
662.19	36.88
662.378	37
662.565	36.59
662.753	36.87
662.941	37.12
663.129	36.86
663.316	36.8
663.504	36.89
663.692	36.96
663.879	37.08
664.067	36.83
664.254	37.3
664.442	36.86
664.63	36.68
664.817	36
665.005	36.31
665.192	36.26
665.38	36.04
665.567	36.46
665.755	36.85
665.942	36.36
666.13	36.1
666.317	35.97
666.504	35.94
666.692	35.86
666.879	36.64
667.067	36.38
667.254	36.42
667.441	36.54
667.629	35.86
667.816	35.98
668.003	36.02
668.19	36.24
668.378	36.14
668.565	36.45
668.752	36.71
668.939	36.65
669.127	36.4
669.314	36.32
669.501	36.62
669.688	37.05
669.875	36.21
670.062	36.4
670.249	36.65
670.436	36.46
670.623	36.29
670.81	36.8
670.997	36.51
671.184	36.74
671.371	36.76
671.558	36.61
671.745	36.44
671.932	36.96
672.119	36.93
672.306	36.63
672.493	37.25
672.68	37.1
672.867	37.2
673.054	37.2
673.24	37.06
673.427	37.24
673.614	37.37
673.801	37.41
673.988	37.09
674.174	36.89
674.361	37.14
674.548	36.53
674.734	36.8
674.921	36.12
675.108	36.01
675.294	36.09
675.481	35.8
675.668	35.47
675.854	35.72
676.041	35.79
676.227	36.11
676.414	35.69
676.601	35.83
676.787	35.81
676.974	35.53
677.16	35.5
677.347	35.6
677.533	35.79
677.719	35.52
677.906	35.23
678.092	35.32
678.279	35.73
678.465	35.81
678.651	35.82
678.838	35.83
679.024	36.31
679.21	36.51
679.397	36.53
679.583	36.14
679.769	36.34
679.955	36.68
680.142	37.19
680.328	36.91
680.514	37.03
680.7	37.12
680.886	37.46
681.073	37.5
681.259	37.17
681.445	36.72
681.631	36.86
681.817	36.89
682.003	36.81
682.189	36.28
682.375	36.07
682.561	36.37
682.747	36.5
682.933	35.69
683.119	35.64
683.305	35.48
683.491	35.89
683.677	36.62
683.863	37.01
684.049	37.26
684.235	37.48
684.42	37.65
684.606	37.7
684.792	37.64
684.978	37.67
685.164	37.94
685.349	38.17
685.535	38.09
685.721	38.37
685.907	37.69
686.092	37.65
686.278	37.13
686.464	36.89
686.649	36.05
686.835	36.1
687.021	36.33
687.206	36.12
687.392	36.9
687.577	37.11
687.763	36.42
687.948	36.32
688.134	35.99
688.319	36.47
688.505	36.68
688.69	36.63
688.876	36.23
689.061	36.7
689.247	36.29
689.432	35.76
689.618	35.45
689.803	35.67
689.988	36.11
690.174	36.22
690.359	35.66
690.544	35.34
690.73	36.27
690.915	36.56
691.1	36.42
691.285	36.55
691.471	36.64
691.656	36.96
691.841	37.15
692.026	36.67
692.211	36.34
692.396	36.53
692.582	37.39
692.767	36.74
692.952	36.25
693.137	36.02
693.322	36.13
693.507	36.22
693.692	35.88
693.877	35.63
694.062	36.17
694.247	36.91
694.432	37.51
694.617	36.53
694.802	36.69
694.987	37.48
695.172	37.93
695.357	38.37
695.541	38.43
695.726	38.93
695.911	38.68
696.096	38.85
696.281	38.72
696.466	38.54
696.65	39.18
696.835	39.3
697.02	38.44
697.204	37.64
697.389	36.96
697.574	36.67
697.759	36.56
697.943	36.62
698.128	36.62
698.312	36.38
698.497	36.41
698.682	36.22
698.866	36.14
699.051	36.47
699.235	36.91
699.42	37.19
699.604	37.21
699.789	37.09
699.973	37.15
700.158	37.39
700.342	37.26
700.527	37.08
700.711	37.22
700.895	37.15
701.08	37.17
701.264	37.09
701.448	37.26
701.633	37.01
701.817	36.81
702.001	36.46
702.186	36.07
702.37	36.26
702.554	36.45
702.738	36.24
702.923	36.03
703.107	35.82
703.291	36.09
703.475	36.11
703.659	36.83
703.843	37.62
704.027	38.09
704.212	37.97
704.396	37.51
704.58	37.67
704.764	37.5
704.948	38.13
705.132	38.62
705.316	38.55
705.5	39.15
705.684	39.6
705.868	39.55
706.052	39.55
706.235	39.31
706.419	39.88
706.603	39.46
706.787	39.55
706.971	39
707.155	39.41
707.339	39.68
707.522	38.79
707.706	37.87
707.89	37.52
708.074	37.18
708.257	37.84
708.441	37.73
708.625	37.61
708.808	37.72
708.992	38.07
709.176	37.56
709.359	36.74
709.543	36.9
709.727	36.9
709.91	36.06
710.094	36.38
710.277	36.71
710.461	36.79
710.644	37.34
710.828	37.55
711.011	37.56
711.195	37.03
711.378	37.27
711.562	36.93
711.745	37.36
711.928	38.61
712.112	38.97
712.295	37.91
712.478	38.28
712.662	38.34
712.845	37.68
713.028	37.03
713.212	37.83
713.395	38.06
713.578	37.74
713.761	37.18
713.945	36.56
714.128	36.02
714.311	36.03
714.494	36.13
714.677	35.15
714.86	35.88
715.043	36.59
715.227	36.06
715.41	35.39
715.593	35.62
715.776	35.99
715.959	36.36
716.142	36.6
716.325	37.39
716.508	36.9
716.691	36.97
716.874	37.23
717.057	36.75
717.239	36.69
717.422	37.56
717.605	38.2
717.788	37.92
717.971	37.23
718.154	36.65
718.337	35.88
718.519	35.8
718.702	36.15
718.885	35.61
719.068	36.32
719.25	36.71
719.433	36.46
719.616	36.44
719.798	36.9
719.981	36.75
720.164	36.82
720.346	36.78
720.529	36.18
720.712	36.71
720.894	37.03
721.077	36.49
721.259	35.55
721.442	35
721.624	34.87
721.807	34.96
721.989	36.17
722.172	36.48
722.354	37.04
722.537	37.9
722.719	37.72
722.901	37.34
723.084	37.32
723.266	38.36
723.448	38.07
723.631	37.9
723.813	37.86
723.995	36.04
724.178	36.43
724.36	36.99
724.542	37.01
724.724	36.59
724.907	37.05
725.089	37.22
725.271	36.34
725.453	36.86
725.635	36.26
725.817	35.86
725.999	36.52
726.181	36.94
726.364	36.08
726.546	36.42
726.728	36.45
726.91	36.57
727.092	37.45
727.274	37.85
727.456	38.4
727.638	39.45
727.819	39.78
728.001	40.37
728.183	39.6
728.365	39.85
728.547	40.31
728.729	40.31
728.911	39.26
729.093	38.22
729.274	38.48
729.456	38.12
729.638	37.63
729.82	37.18
730.001	37.15
730.183	38.27
730.365	38.31
730.546	36.93
730.728	37.06
730.91	37.14
731.091	36.18
731.273	36.43
731.455	36.31
731.636	36.31
731.818	36.28
731.999	36.79
732.181	36.29
732.362	36.27
732.544	36.3
732.725	36.81
732.907	37.93
733.088	38.57
733.27	38.19
733.451	38.15
733.633	37.98
733.814	38.45
733.995	37.46
734.177	35.98
734.358	36.14
734.539	36.14
734.721	35.89
734.902	35.52
735.083	35.9
735.264	36.15
735.446	36.63
735.627	36.61
735.808	35.9
735.989	33.93
736.17	34.81
736.351	33.85
736.533	34.68
736.714	34.23
736.895	33.71
737.076	33.44
737.257	32.96
737.438	32.42
737.619	32.25
737.8	32.69
737.981	35.1
738.162	35.47
738.343	36.26
738.524	35.86
738.705	36.26
738.886	35.83
739.067	36.21
739.247	36.11
739.428	36.22
739.609	37.08
739.79	37.46
739.971	38.35
740.151	38.47
740.332	38.09
740.513	38.65
740.694	38.85
740.874	39.17
741.055	38.77
741.236	39.48
741.417	39.75
741.597	39.24
741.778	38.86
741.958	36.74
742.139	35.47
742.32	35.46
742.5	34.58
742.681	34.97
742.861	35.37
743.042	35.15
743.222	34.8
743.403	33.79
743.583	33.42
743.764	33.47
743.944	35.02
744.124	36
744.305	36.43
744.485	37.47
744.666	36.19
744.846	36.22
745.026	36.68
745.207	36.68
745.387	37.56
745.567	37.23
745.747	36.85
745.928	36.85
746.108	37.03
746.288	37.37
746.468	36.24
746.648	37.03
746.829	37.5
747.009	38.95
747.189	38.72
747.369	38.5
747.549	39.29
747.729	38.87
747.909	39.43
748.089	38.42
748.269	37.74
748.449	37.94
748.629	38.19
748.809	37.99
748.989	36.85
749.169	36.62
749.349	35.53
749.529	34.59
749.709	35.98
749.889	35.27
750.068	35.7
750.248	35.61
750.428	35.56
750.608	35.23
750.788	36.3
750.967	35.92
751.147	35.86
751.327	37.45
751.507	38.86
751.686	37.7
751.866	37.49
752.046	37.35
752.225	36.58
752.405	35.98
752.585	35.91
752.764	34.54
752.944	34.66
753.123	35.94
753.303	34.16
753.482	33.45
753.662	33.95
753.841	34.54
754.021	34.07
754.2	34.92
754.38	35.61
754.559	35.7
754.739	35.79
754.918	35.6
755.097	34.26
755.277	35.96
755.456	36.05
755.635	35.56
755.815	35.09
755.994	36.7
756.173	36.87
756.352	36.59
756.532	36.91
756.711	36.87
756.89	37.26
757.069	38.24
757.248	37.78
757.427	37.59
757.607	37.68
757.786	38.52
757.965	38.95
758.144	38.61
758.323	38.71
758.502	40.24
758.681	40.02
758.86	41.37
759.039	41.07
759.218	41.29
759.397	42.13
759.576	42.97
759.755	41.76
759.934	41.64
760.113	41.41
760.291	41.98
760.47	40.05
760.649	40.35
760.828	38.76
761.007	38.98
761.186	39.21
761.364	38.59
761.543	38.55
761.722	39.66
761.901	39.12
762.079	39.32
762.258	38.92
762.437	38.54
762.615	38.37
762.794	38.91
762.972	38.73
763.151	38.76
763.33	38.86
763.508	38.8
763.687	38.71
763.865	37.57
764.044	38.08
764.222	38.19
764.401	38.05
764.579	38.76
764.758	38.45
764.936	38.22
765.114	38.28
765.293	38.04
765.471	38.23
765.65	37.9
765.828	38.72
766.006	38.47
766.184	39.38
766.363	39.98
766.541	39.47
766.719	39.5
766.898	40.61
767.076	39.68
767.254	39.91
767.432	39.24
767.61	38.87
767.788	38.27
767.967	37.59
768.145	36.88
768.323	37.04
768.501	36.8
768.679	37.94
768.857	36.2
769.035	36.05
769.213	36.79
769.391	36.54
769.569	35.43
769.747	35.39
769.925	35.95
770.103	35
770.281	34.11
770.459	32.94
770.636	33.21
770.814	35.05
770.992	35.52
771.17	34.82
771.348	34.63
771.525	35.16
771.703	36.08
771.881	37.01
772.059	35.88
772.236	36.77
772.414	37.81
772.592	35.12
772.769	33.08
772.947	33.37
773.125	32.53
773.302	32.23
773.48	33.65
773.657	33.13
773.835	32.47
774.013	32.5
774.19	30.36
774.368	31.03
774.545	31
774.723	29
774.9	29.95
775.077	29.59
775.255	31.03
775.432	29.55
775.61	31.1
775.787	30.84
775.964	33.04
776.142	35.33
776.319	33.98
776.496	33.71
776.674	36.79
776.851	35.71
777.028	34.29
777.205	33.11
777.382	33.96
777.56	32.29
777.737	31.72
777.914	30.18
778.091	29.12
778.268	27.35
778.445	28.71
778.622	29.64
778.8	28.58
778.977	30.91
779.154	31.88
779.331	31.84
779.508	32.61
779.685	33.12
779.862	34.92
780.038	34.03
780.215	37.21
780.392	34.83
780.569	31.15
780.746	34.86
780.923	35.01
781.1	31.79
781.277	31.64
781.453	34.24
781.63	34.36
781.807	31.73
781.984	34.33
782.16	33.14
782.337	34.4
782.514	34.52
782.691	33.56
782.867	31.44
783.044	33.52
783.221	33.82
783.397	30.09
783.574	29.22
783.75	30.01
783.927	31.8
784.103	32.93
784.28	35.09
784.456	37.48
784.633	34.79
784.809	37.39
784.986	38.56
785.162	37.56
785.339	39.36
785.515	38.11
785.692	39.12
785.868	35.84
786.044	33.52
786.221	33.47
786.397	33.44
786.573	35.39
786.749	34.2
786.926	33.45
787.102	33.59
787.278	33.82
787.454	36.09
787.631	33.58
787.807	34.96
787.983	34.85
788.159	34
788.335	32
788.511	33.25
788.687	32.39
788.863	34.17
789.039	36.24
789.216	34.36
789.392	33.72
789.568	34.87
789.744	32.93
789.919	33.62
790.095	33.29
790.271	35.56
790.447	33.57
790.623	37.28
790.799	36.56
790.975	34.47
791.151	35.09
791.327	38.56
791.502	38.99
791.678	41.05
791.854	41.37
792.03	41.64
792.205	42.37
792.381	42.55
792.557	42.01
792.733	41.33
792.908	44.05
793.084	45.58
793.259	42.53
793.435	43.54
793.611	43.29
793.786	42.57
793.962	41.54
794.137	41.25
794.313	39.08
794.488	37.19
794.664	37.14
794.839	31.56
795.015	30.42
795.19	30.66
795.366	27.31
795.541	26.66
795.716	29.47
795.892	29.16
796.067	27.29
796.242	30.22
796.418	27.61
796.593	28.56
796.768	30.84
796.944	30.92
797.119	30.9
797.294	33
797.469	33.57
797.644	31.08
797.82	30.8
797.995	33.33
798.17	31.96
798.345	36.11
798.52	33.98
798.695	33.66
798.87	33.4
799.045	31.49
799.22	32.14
799.395	33.95
799.57	37.35
799.745	36.85
799.92	34.48
800.095	34.55
800.27	32.69
800.445	31.26
800.62	28.95
800.795	29.12
800.97	30.4
801.145	30.88
801.319	30.35
801.494	28.7
801.669	29.3
801.844	29.69
802.018	32.09
802.193	34.4
802.368	38.17
802.543	42.24
802.717	43.27
802.892	43.46
803.067	43.57
803.241	44.59
803.416	43.29
803.59	41.33
803.765	44.06
803.94	36.73
804.114	30.66
804.289	28.18
804.463	26.91
804.638	26.23
804.812	25.03
804.986	26.25
805.161	25.22
805.335	27.48
805.51	30.58
805.684	27.68
805.858	33.11
806.033	37.77
806.207	38.06
806.381	37.7
806.556	36.1
806.73	37.02
806.904	36.24
807.078	32.12
807.253	26.9
807.427	27.53
807.601	26.15
807.775	22.97
807.949	22.87
808.123	22.66
808.298	23.64
808.472	24.93
808.646	23.14
808.82	22.79
808.994	25.85
809.168	28.14
809.342	28.15
809.516	32.09
809.69	33.49
809.864	32.2
810.038	35.78
810.212	34.08
810.385	35.18
810.559	34.47
810.733	34.91
810.907	34.63
811.081	36.92
811.255	36.05
811.428	32.8
811.602	34.45
811.776	36.9
811.95	39.94
812.123	43.42
812.297	43.73
812.471	47.63
812.644	46.84
812.818	48.65
812.992	47.17
813.165	49.93
813.339	49.57
813.512	48.1
813.686	51.17
813.86	43.48
814.033	39.23
814.207	38.38
814.38	37.09
814.554	35.66
814.727	34.25
814.9	30.78
815.074	30.95
815.247	30.75
815.421	32.27
815.594	25.91
815.767	25.13
815.941	23.88
816.114	19.64
816.287	19.3
816.46	16.92
816.634	13.24
816.807	16.87
816.98	12.35
817.153	20.95
817.327	20.58
817.5	19.53
817.673	21.31
817.846	23.07
818.019	26.77
818.192	27.24
818.365	32.33
818.538	37.24
818.711	33.93
818.884	35.34
819.057	28.76
819.23	26.12
819.403	27.05
819.576	26.69
819.749	27.94
819.922	29.68
820.095	26.6
820.268	26.03
820.441	24.52
820.614	28.8
820.786	27.54
820.959	30.2
821.132	32.55
821.305	34.43
821.477	35.21
821.65	35.65
821.823	34.04
821.996	35.3
822.168	35.36
822.341	35.57
822.514	35.32
822.686	36.26
822.859	36.8
823.031	37.42
823.204	37.19
823.376	37.62
823.549	37.9
823.722	38.49
823.894	38.37
824.067	38.99
824.239	38.75
824.411	39.32
824.584	38.55
824.756	37.66
824.929	37.29
825.101	37.57
825.273	36.94
825.446	36.34
825.618	36.38
825.79	36.7
825.963	35.17
826.135	35.82
826.307	35.3
826.479	36.3
826.652	36.85
826.824	36.51
826.996	35.75
827.168	36.27
827.34	36.39
827.512	37.2
827.684	37.15
827.856	38.98
828.029	39.19
828.201	40.59
828.373	40.81
828.545	40.4
828.717	39.65
828.889	39.91
829.061	40.46
829.232	40.41
829.404	39.3
829.576	39.28
829.748	38.6
829.92	38.25
830.092	36.7
830.264	34.84
830.436	35.77
830.607	36.44
830.779	36.9
830.951	35.02
831.123	35.64
831.294	34.42
831.466	32.04
831.638	30.48
831.809	30.45
831.981	31.19
832.153	30.13
832.324	27.71
832.496	26.03
832.667	25.06
832.839	24.17
833.011	26.99
833.182	28.21
833.354	29.68
833.525	31.03
833.697	30.92
833.868	31.97
834.039	35.52
834.211	36.69
834.382	38.49
834.554	38.84
834.725	41.11
834.896	37.53
835.068	36.7
835.239	37.45
835.41	37.57
835.581	37.25
835.753	34.99
835.924	32.26
836.095	32.07
836.266	31.65
836.438	30.73
836.609	29.66
836.78	32.06
836.951	32.25
837.122	32.15
837.293	29.63
837.464	29.07
837.635	27.56
837.806	27.99
837.977	26.86
838.148	23.88
838.319	22.05
838.49	20.7
838.661	16.5
838.832	18.97
839.003	16.87
839.174	13.74
839.345	11.52
839.516	6.07
839.687	-6.6
839.857	0.86
840.028	8.29
840.199	9.36
840.37	10.56
840.54	18.83
840.711	17.02
840.882	21.47
841.053	26.25
841.223	30.01
841.394	39.45
841.564	49.91
841.735	46.61
841.906	47.22
842.076	49.75
842.247	54.6
842.417	52.87
842.588	52.2
842.758	49.88
842.929	41.73
843.099	34.38
843.27	25.48
843.44	25.12
843.611	23.12
843.781	6.3
843.951	11.59
844.122	9.83
844.292	2.8
844.462	-1.9
844.633	7.94
844.803	22.82
844.973	32.27
845.144	35.9
845.314	30.87
845.484	43.24
845.654	70.9
845.824	66.63
845.995	56.59
846.165	58.59
846.335	63.72
846.505	53.2
846.675	44.29
846.845	37.54
847.015	44.69
847.185	40.71
847.355	10.67
847.525	5.84
847.695	-1.49
847.865	-12.71
848.035	-7.8
848.205	-23.99
848.375	-9.4
848.545	-16.73
848.715	-13.68
848.884	-35.49
849.054	-51.34
849.224	-25.56
849.394	-43.73
849.564	-22.15
849.733	1.08
849.903	-8.41
850.073	11.86
850.243	-1.92
850.412	11.13
850.582	-8.48
850.752	-17.26
850.921	11.43
851.091	1.67
851.26	7.68
851.43	11.08
851.599	-8.51
851.769	-19.02
851.939	-28.81
852.108	-62.9
852.278	-82.23
852.447	-53.71
852.616	-23.36
852.786	-33.1
852.955	-19.48
853.125	-40.73
853.294	-40.78
853.463	-39.8
853.633	-40.27
853.802	-38.31
853.971	-16.55
854.141	-40.03
854.31	-53.43
854.479	-104.7
854.648	-144.96
854.818	-150.07
854.987	-115.23
855.156	-135.83
855.325	-82.94
855.494	-93.26
855.663	-106.38
855.832	-157.61
856.001	-146.14
856.171	-84.21
856.34	-31.09
856.509	-28.37
856.678	-42.52
856.847	7.71
857.016	32.14
857.185	22.7
857.353	18.59
857.522	24.53
857.691	39.84
857.86	53.75
858.029	44.79
858.198	25.15
858.367	27.85
858.535	27.69
858.704	21.35
858.873	23.21
859.042	28.13
859.21	24.32
859.379	21.97
859.548	6.25
859.717	-9.18
859.885	-17.17
860.054	-16.14
860.222	-20.44
860.391	-7.73
860.56	-4.51
860.728	-6.12
860.897	-0.18
861.065	3.22
861.234	-3.53
861.402	6.95
861.571	16.65
861.739	23.84
861.908	32.45
862.076	25.76
862.244	26.89
862.413	13.52
862.581	-2.92
862.749	-51.75
862.918	-48.31
863.086	-48.46
863.254	-72.85
863.423	-130
863.591	-60.38
863.759	-81.92
863.927	-87.48
864.096	-640.15
864.264	194.66
864.432	-11.18
864.6	192.2
864.768	93.75
864.936	130.84
865.104	74.12
865.272	41.35
865.44	-32.47
865.608	-38.65
865.776	-80.27
865.944	-52.21
866.112	-15.1
866.28	-49.66
866.448	-49.62
866.616	-43.71
866.784	-50.19
866.952	-52.2
867.12	-41.99
867.288	-5.54
867.455	2.38
867.623	23.55
867.791	10.52
867.959	0.3
868.127	12.12
868.294	18.01
868.462	-8.97
868.63	-26.55
868.797	-78.82
868.965	-218.87
869.133	-228.47
869.3	-279.47
869.468	-175.83
869.636	-126.56
869.803	-163.35
869.971	-116.13
870.138	-80.13
870.306	-84.57
870.473	-53.82
870.641	-28.14
870.808	-0.16
870.975	-11.34
871.143	-0.64
871.31	-13.37
871.478	-87.96
871.645	-25.73
871.812	-61.81
871.98	-115.39
872.147	-127.63
872.314	-107.89
872.482	-137.98
872.649	-239.37
872.816	-97.37
872.983	-244.07
873.15	-52.27
873.318	-11.39
873.485	-35.75
873.652	37.44
873.819	22.49
873.986	9.23
874.153	-9.03
874.32	7.07
874.487	2.41
874.654	1.71
874.821	4.27
874.988	4.14
875.155	3.96
875.322	22.37
875.489	16.61
875.656	34.02
875.823	42.29
875.99	33.95
876.157	24.66
876.324	42.3
876.49	38.1
876.657	29.55
876.824	28.97
876.991	24.15
877.157	7.55
877.324	6.77
877.491	11.09
877.658	4.49
877.824	7.26
877.991	16.28
878.157	0.84
878.324	2.81
878.491	5.59
878.657	-15.25
878.824	-15.82
878.99	-12.95
879.157	-33.92
879.323	-58.06
879.49	-31.41
879.656	-21.43
879.823	-17.28
879.989	-22.73
880.156	-34.16
880.322	-26.32
880.488	0.94
880.655	18.78
880.821	7.19
880.987	32.81
881.154	50.67
881.32	34.22
881.486	29.06
881.652	31.13
881.819	36.28
881.985	36.59
882.151	35.24
882.317	28.05
882.483	25.98
882.649	29.02
882.816	23.94
882.982	26.32
883.148	28.05
883.314	30.13
883.48	29.74
883.646	31.05
883.812	31.96
883.978	31.78
884.144	32.67
884.31	33.55
884.476	34.09
884.642	35.93
884.807	35.91
884.973	36.61
885.139	37.01
885.305	36.74
885.471	36.58
885.637	35.05
885.802	34.46
885.968	35.22
886.134	34.42
886.3	35.41
886.465	34.18
886.631	32.09
886.797	32.91
886.962	32.56
887.128	33.55
887.293	26.13
887.459	26.04
887.625	27.11
887.79	23.71
887.956	26.05
888.121	21.37
888.287	21.7
888.452	20.49
888.618	8.29
888.783	-7.64
