Data from CB_112_Reflection_6.txt Node
Date: Sat Nov 14 18:20:57 EST 2015
User: robert
Spectrometer: USB4E03001
Autoset integration time: false
Trigger mode: 4
Integration Time (sec): 1.000000E-1
Scans to average: 15
Electric dark correction enabled: true
Nonlinearity correction enabled: false
Boxcar width: 5
Stray light correction enabled: false
XAxis mode: Wavelengths
Stop averaging: false
Number of Pixels in Spectrum: 3648
>>>>>Begin Spectral Data<<<<<
177.566	159.48
177.785	58.62
178.005	189.73
178.225	302.71
178.445	-2297.89
178.665	268.27
178.885	-98.97
179.105	103.96
179.324	126.55
179.544	57.37
179.764	67.26
179.984	68.75
180.204	50.51
180.423	68.28
180.643	101.79
180.863	192.35
181.083	127.59
181.302	130.6
181.522	148.88
181.742	133.8
181.961	197.21
182.181	206.99
182.401	544.88
182.621	384.19
182.84	536.97
183.06	232.24
183.279	151.5
183.499	313.77
183.719	252.71
183.938	144.78
184.158	170.85
184.377	159.19
184.597	222.6
184.816	144.1
185.036	122.03
185.256	134.25
185.475	130.27
185.695	115.91
185.914	95.91
186.134	96.9
186.353	99.7
186.572	86.07
186.792	85.21
187.011	84.03
187.231	93.07
187.45	94.05
187.67	77.68
187.889	90.5
188.108	102.65
188.328	105.52
188.547	98.05
188.766	105.19
188.986	108.86
189.205	116.68
189.424	101.22
189.644	112.64
189.863	117.39
190.082	132.33
190.302	109.5
190.521	83.58
190.74	79.95
190.959	116.12
191.178	118.71
191.398	141.39
191.617	134.23
191.836	138.99
192.055	110.36
192.274	104.42
192.494	108.08
192.713	167.92
192.932	225.46
193.151	404.65
193.37	167.93
193.589	149.86
193.808	291.16
194.027	451.44
194.246	-1377.85
194.465	2716.34
194.685	246.05
194.904	251.87
195.123	132.23
195.342	118.66
195.561	87.68
195.78	102.57
195.999	123.92
196.218	80.18
196.436	76.87
196.655	75.78
196.874	75.29
197.093	78.26
197.312	82.39
197.531	106
197.75	112.8
197.969	127.4
198.188	134.17
198.407	108.77
198.625	120.11
198.844	139.46
199.063	128.57
199.282	130.51
199.501	150.98
199.719	159.55
199.938	118.17
200.157	109.46
200.376	90.48
200.594	86.17
200.813	110.6
201.032	102.79
201.251	98.43
201.469	101.86
201.688	91.85
201.907	98.37
202.125	91.6
202.344	144.64
202.563	138.12
202.781	177.97
203	235.31
203.218	239.31
203.437	197.51
203.656	215.62
203.874	160.46
204.093	197.41
204.311	174.13
204.53	210.11
204.748	158.26
204.967	193.98
205.185	196.67
205.404	171.22
205.622	121.88
205.841	122.07
206.059	100.11
206.278	120.14
206.496	116.39
206.715	153.05
206.933	125.22
207.151	136.19
207.37	134.17
207.588	132.76
207.806	132.6
208.025	151.2
208.243	146.62
208.461	186.68
208.68	171.19
208.898	166.1
209.116	133.81
209.335	138.75
209.553	154.95
209.771	152.23
209.989	135.2
210.208	131.26
210.426	132.24
210.644	133.13
210.862	102.42
211.081	106.6
211.299	110.74
211.517	121.67
211.735	108.46
211.953	107.67
212.171	101.3
212.39	104.07
212.608	114.15
212.826	116.17
213.044	105.78
213.262	116.67
213.48	115.89
213.698	103.72
213.916	116.55
214.134	110.52
214.352	112.9
214.57	103.27
214.788	117.31
215.006	115.48
215.224	113.88
215.442	174.05
215.66	144.8
215.878	163.53
216.096	211.83
216.314	167.7
216.532	180.06
216.75	156.49
216.968	207.77
217.185	172.13
217.403	191.7
217.621	217.19
217.839	141.64
218.057	165.91
218.275	159.02
218.492	150.49
218.71	204.34
218.928	230.12
219.146	359.4
219.363	226.15
219.581	283.72
219.799	327.77
220.017	290.75
220.234	282.56
220.452	314.77
220.67	355.92
220.887	563.58
221.105	745.42
221.323	11104.91
221.54	966.32
221.758	5898.21
221.976	2323.28
222.193	353.34
222.411	453.28
222.629	740.97
222.846	884.77
223.064	-805.35
223.281	1044.2
223.499	710.7
223.716	1395.88
223.934	-972.41
224.151	-272
224.369	-185.81
224.586	-129.65
224.804	-83.41
225.021	-98.03
225.239	-107.47
225.456	-124.46
225.674	-91.88
225.891	-114.75
226.108	-158.78
226.326	-169.68
226.543	-140.86
226.76	-81.05
226.978	-57.65
227.195	-52.58
227.413	-37.28
227.63	-21.04
227.847	-11.77
228.064	-2.38
228.282	4.16
228.499	9.14
228.716	6.55
228.934	4.82
229.151	0.65
229.368	1.22
229.585	0.01
229.802	-1.39
230.02	-2.4
230.237	-5.42
230.454	-4.12
230.671	-8.52
230.888	-8.72
231.105	-12.8
231.323	-11.55
231.54	-17.14
231.757	-20.36
231.974	-28.13
232.191	-31.27
232.408	-24.17
232.625	-24.53
232.842	-27.48
233.059	-16.07
233.276	-16.44
233.493	-6.57
233.71	-2.26
233.927	10.66
234.144	8.1
234.361	3.37
234.578	6.05
234.795	2.91
235.012	0.95
235.229	-5.03
235.446	-9.28
235.663	-9.8
235.879	-11.44
236.096	-17.05
236.313	-28.02
236.53	-24.31
236.747	-18.27
236.964	-21.74
237.181	-27.64
237.397	-17.42
237.614	-20.43
237.831	-24.65
238.048	-19.82
238.264	-22.68
238.481	-27.29
238.698	-17.63
238.915	-18.04
239.131	-17.13
239.348	-19.54
239.565	-22.5
239.781	-22.97
239.998	-15.67
240.215	-15.05
240.431	-17.87
240.648	-9.54
240.865	-5.27
241.081	-5.05
241.298	-3.63
241.514	-1.18
241.731	2.87
241.947	4.65
242.164	4.94
242.38	6.53
242.597	7.62
242.814	8.09
243.03	6.76
243.246	7.4
243.463	7.96
243.679	5.29
243.896	4.73
244.112	1.21
244.329	0.87
244.545	0.52
244.762	-0.06
244.978	0.55
245.194	-0.38
245.411	-1.37
245.627	-1.09
245.843	-1.31
246.06	1.08
246.276	2.33
246.492	5.87
246.709	5.79
246.925	6.24
247.141	6.35
247.357	7.27
247.574	8.3
247.79	8.92
248.006	8.78
248.222	9.12
248.439	9.61
248.655	8.72
248.871	7.94
249.087	9.29
249.303	9.1
249.519	8.87
249.736	7.7
249.952	7.16
250.168	8.2
250.384	7.67
250.6	7.37
250.816	6.58
251.032	7.97
251.248	5.27
251.464	0.99
251.68	-0.61
251.896	-1.02
252.112	-3.81
252.328	-5.65
252.544	-7.65
252.76	-7.87
252.976	-10.48
253.192	-10.91
253.408	-12.26
253.624	-9.91
253.84	-6.46
254.056	-5.44
254.272	-8.85
254.487	-5.29
254.703	-0.91
254.919	-4.18
255.135	-4.01
255.351	-2.47
255.567	-0.44
255.782	0.68
255.998	1.49
256.214	-2.95
256.43	-0.73
256.646	1.9
256.861	4.66
257.077	1.9
257.293	6.3
257.508	7.16
257.724	7.07
257.94	7.45
258.155	6.96
258.371	6.5
258.587	6.39
258.802	5.38
259.018	5.5
259.234	5.04
259.449	5.31
259.665	4.46
259.88	4.12
260.096	4.91
260.312	5.08
260.527	5.42
260.743	5.07
260.958	6.06
261.174	6.33
261.389	5.76
261.605	5.1
261.82	4.08
262.036	3.78
262.251	3.55
262.466	2.94
262.682	2.67
262.897	1.38
263.113	1.65
263.328	1.1
263.543	0.19
263.759	-0.77
263.974	-2.3
264.189	-2.88
264.405	-2.98
264.62	-2.77
264.835	-3.57
265.051	-3.11
265.266	-2.51
265.481	-3.23
265.696	-3
265.912	-0.62
266.127	1.4
266.342	2.5
266.557	3.55
266.773	4.4
266.988	3.99
267.203	4.71
267.418	3.84
267.633	4.83
267.848	4.35
268.064	3.85
268.279	3.07
268.494	2.03
268.709	3.54
268.924	4.53
269.139	2.55
269.354	5.39
269.569	3.56
269.784	2.83
269.999	0.05
270.214	-0.13
270.429	0.21
270.644	-0.22
270.859	-0.12
271.074	-1.23
271.289	-1.81
271.504	1.4
271.719	0.73
271.934	0.52
272.149	1.64
272.363	2.82
272.578	4.82
272.793	4.2
273.008	4.09
273.223	4.63
273.438	4.57
273.653	6.21
273.867	4.75
274.082	4.34
274.297	6.08
274.512	4.45
274.726	3.08
274.941	1.76
275.156	2.53
275.371	3.89
275.585	4.64
275.8	5.43
276.015	4.59
276.229	4.55
276.444	3.81
276.659	2.32
276.873	4.71
277.088	6.53
277.302	5.95
277.517	5.64
277.732	4.25
277.946	5.5
278.161	3.97
278.375	4.89
278.59	6.85
278.804	5.52
279.019	5.49
279.233	5.09
279.448	3.19
279.662	3.15
279.877	4.17
280.091	4.13
280.306	3.84
280.52	5.69
280.735	3.88
280.949	2.53
281.163	4.17
281.378	4.89
281.592	5.83
281.806	7.82
282.021	8.32
282.235	7.13
282.449	7.47
282.664	6.64
282.878	5.57
283.092	4.82
283.307	4
283.521	3.5
283.735	3.93
283.949	3.09
284.164	3.27
284.378	3.76
284.592	5.01
284.806	5.07
285.02	5.5
285.234	5.61
285.449	6.56
285.663	7.33
285.877	7.05
286.091	6.14
286.305	4.97
286.519	4.07
286.733	3.39
286.947	2.76
287.161	3.21
287.375	2.07
287.589	2.42
287.803	2.65
288.017	2.32
288.231	2.58
288.445	3.76
288.659	5.04
288.873	5.68
289.087	5.46
289.301	5.02
289.515	4.44
289.729	3.83
289.943	3.23
290.157	1.7
290.371	1.22
290.584	1.16
290.798	-0.35
291.012	-0.62
291.226	-0.78
291.44	-1.38
291.654	-2.14
291.867	-2.01
292.081	0.41
292.295	1.33
292.509	2.39
292.722	2.95
292.936	3.18
293.15	4.72
293.364	5.36
293.577	5.4
293.791	7.02
294.005	8.1
294.218	7.6
294.432	6.3
294.645	5.64
294.859	6.33
295.073	6.88
295.286	7.12
295.5	7.06
295.713	7.28
295.927	7.38
296.14	7.05
296.354	7.29
296.568	7.16
296.781	7.83
296.994	8.58
297.208	7
297.421	7.33
297.635	6.89
297.848	6.79
298.062	6.45
298.275	6.23
298.489	6.93
298.702	7.2
298.915	7.51
299.129	7.51
299.342	7.19
299.555	6.95
299.769	6.05
299.982	6.26
300.195	5.96
300.409	6.77
300.622	6.8
300.835	5.42
301.048	4.4
301.262	4.24
301.475	3.25
301.688	1.69
301.901	3.29
302.115	3.78
302.328	4.27
302.541	6.3
302.754	4.75
302.967	4.52
303.18	5.34
303.393	6.04
303.607	6.1
303.82	6.77
304.033	8.28
304.246	7.48
304.459	7.82
304.672	7.77
304.885	5.54
305.098	6.46
305.311	7.13
305.524	6.8
305.737	5.99
305.95	6.5
306.163	5.78
306.376	5.61
306.589	6.88
306.802	4.76
307.015	2.98
307.228	3.54
307.44	3.79
307.653	4.29
307.866	3.89
308.079	3.6
308.292	4.29
308.505	4.7
308.718	4.72
308.93	4.53
309.143	6.11
309.356	7.07
309.569	7.69
309.781	8.53
309.994	8.02
310.207	8.24
310.42	8.17
310.632	7.39
310.845	6.76
311.058	7.49
311.27	8.03
311.483	7.5
311.696	8.61
311.908	8.57
312.121	7.08
312.333	6.96
312.546	7.14
312.759	7.39
312.971	7.24
313.184	7.37
313.396	6.62
313.609	5.68
313.821	5.83
314.034	3.68
314.246	3.81
314.459	4.9
314.671	4.41
314.884	4.2
315.096	4.26
315.309	3.19
315.521	4.54
315.733	3.91
315.946	3.72
316.158	4.91
316.371	7.18
316.583	6.27
316.795	5.82
317.008	6.85
317.22	7.97
317.432	8.75
317.644	8.06
317.857	7.97
318.069	7.73
318.281	7.87
318.494	6.52
318.706	4.9
318.918	5.26
319.13	5.63
319.342	5.59
319.555	4.05
319.767	3.12
319.979	4.73
320.191	5.16
320.403	5.75
320.615	6.2
320.827	4.94
321.039	5.02
321.252	5.74
321.464	5.01
321.676	3.68
321.888	5.05
322.1	5.83
322.312	6.78
322.524	5.71
322.736	7.1
322.948	6.63
323.16	8.7
323.372	8.49
323.584	7.91
323.796	7.05
324.007	7.95
324.219	8.81
324.431	8.21
324.643	6.97
324.855	6.97
325.067	6.78
325.279	6.17
325.491	7.32
325.702	7.72
325.914	7.98
326.126	9.13
326.338	10.46
326.55	10.57
326.761	11.46
326.973	13.11
327.185	13.98
327.396	13.99
327.608	14.91
327.82	13.38
328.032	14.31
328.243	14.51
328.455	15.21
328.666	14.68
328.878	14.51
329.09	15.48
329.301	15.58
329.513	15.59
329.725	15.07
329.936	15.31
330.148	15.24
330.359	14.62
330.571	14.26
330.782	14.61
330.994	15.03
331.205	14.68
331.417	13.81
331.628	12.7
331.84	11.38
332.051	10.67
332.262	11.59
332.474	12.24
332.685	12.65
332.897	14.18
333.108	13.6
333.319	12.79
333.531	12.91
333.742	13.89
333.953	14.93
334.165	16.35
334.376	17.26
334.587	17.66
334.799	19.13
335.01	19.07
335.221	18.75
335.432	19.07
335.644	19.68
335.855	19.85
336.066	18.87
336.277	19.27
336.488	19.23
336.7	19.2
336.911	18.31
337.122	17.66
337.333	17.65
337.544	16.86
337.755	16.15
337.966	15.67
338.177	15.44
338.388	15.53
338.599	14.54
338.811	14.63
339.022	14.65
339.233	14.25
339.444	12.86
339.655	13.25
339.866	13.15
340.076	13.14
340.287	13.42
340.498	13.73
340.709	14.22
340.92	14.71
341.131	14.56
341.342	14.55
341.553	14.66
341.764	16.4
341.975	15.47
342.185	16.88
342.396	16.23
342.607	15.61
342.818	16.01
343.029	15.84
343.239	15.71
343.45	14.62
343.661	14.34
343.872	14.91
344.082	14.15
344.293	15.75
344.504	15.24
344.714	16.8
344.925	16.99
345.136	16.87
345.346	16.41
345.557	16.28
345.768	17.43
345.978	17.65
346.189	17.99
346.399	18.19
346.61	17.13
346.821	17.39
347.031	17.1
347.242	17.63
347.452	16.48
347.663	16.9
347.873	16.88
348.084	17
348.294	17.45
348.504	16.16
348.715	15.67
348.925	15.99
349.136	15.88
349.346	15.37
349.557	15.89
349.767	16.29
349.977	16.98
350.188	16.67
350.398	16.56
350.608	16.86
350.819	17.76
351.029	18.68
351.239	18.43
351.449	18.1
351.66	17.85
351.87	17.88
352.08	18.24
352.29	17.67
352.501	18.57
352.711	18.94
352.921	18.76
353.131	19.26
353.341	18.69
353.552	18.72
353.762	18.46
353.972	19.45
354.182	18.53
354.392	18.73
354.602	18.74
354.812	18.96
355.022	18.66
355.232	18.55
355.442	18.35
355.652	18.49
355.862	18.25
356.072	17.95
356.282	17.71
356.492	18.1
356.702	17.82
356.912	17.64
357.122	17.05
357.332	17.22
357.542	16.87
357.752	16.72
357.962	16.94
358.171	16.93
358.381	17.67
358.591	17.51
358.801	16.93
359.011	17.29
359.221	18.14
359.43	18.07
359.64	17.54
359.85	18.15
360.06	18.11
360.269	17.76
360.479	17.95
360.689	17.35
360.899	17.22
361.108	17.96
361.318	17.67
361.528	17.08
361.737	17.31
361.947	17.34
362.156	17.17
362.366	17.07
362.576	17.11
362.785	17.22
362.995	17.89
363.204	18.02
363.414	17.83
363.623	18.08
363.833	18.21
364.042	17.87
364.252	17.88
364.461	17.57
364.671	17.5
364.88	17.66
365.09	17.52
365.299	16.32
365.509	16.48
365.718	16.48
365.927	16.31
366.137	16.45
366.346	16.71
366.555	16.85
366.765	16.86
366.974	16.82
367.183	16.08
367.393	16.37
367.602	16.68
367.811	16.7
368.021	16.39
368.23	16.06
368.439	15.97
368.648	16.49
368.857	16.43
369.067	16.07
369.276	15.95
369.485	15.87
369.694	15.88
369.903	16.14
370.112	15.75
370.321	15.92
370.531	16.59
370.74	16.04
370.949	15.5
371.158	15.92
371.367	16.49
371.576	16.57
371.785	16.92
371.994	16.23
372.203	16.22
372.412	16.39
372.621	16.48
372.83	16.02
373.039	15.92
373.248	16.34
373.457	15.64
373.666	15.05
373.874	14.78
374.083	14.54
374.292	14.58
374.501	14.62
374.71	14.16
374.919	13.81
375.128	14.04
375.336	14.53
375.545	13.91
375.754	14.24
375.963	14.56
376.171	14.95
376.38	15.42
376.589	15.78
376.798	15.74
377.006	15.68
377.215	15.38
377.424	14.91
377.632	14.49
377.841	14.43
378.05	13.98
378.258	13.88
378.467	13.62
378.675	13.19
378.884	12.62
379.093	12.38
379.301	12.35
379.51	12.71
379.718	12.74
379.927	13.24
380.135	13.79
380.344	14.01
380.552	13.91
380.761	13.65
380.969	13.71
381.177	14.67
381.386	14.45
381.594	14.81
381.803	14.58
382.011	14.64
382.219	14.2
382.428	13.6
382.636	13.57
382.845	13.31
383.053	13.63
383.261	13.76
383.469	12.84
383.678	12.97
383.886	12.68
384.094	12.54
384.302	12.13
384.511	12.28
384.719	12.39
384.927	12.08
385.135	12.31
385.343	12.17
385.552	11.72
385.76	11.73
385.968	11.46
386.176	11.07
386.384	11.25
386.592	11.61
386.8	11.07
387.008	10.95
387.216	11.24
387.424	10.91
387.633	11.03
387.841	11.48
388.049	11.72
388.257	11.8
388.465	11.82
388.672	11.32
388.88	11.21
389.088	11.43
389.296	11.25
389.504	10.78
389.712	11.06
389.92	10.98
390.128	10.59
390.336	10.33
390.544	10.28
390.751	10.58
390.959	10.6
391.167	10.55
391.375	10.36
391.583	10.19
391.79	10.41
391.998	10.13
392.206	10.08
392.414	9.96
392.621	9.52
392.829	9.37
393.037	9.26
393.244	9.49
393.452	9.19
393.66	9.41
393.867	9.44
394.075	9.72
394.283	9.52
394.49	9.21
394.698	9.14
394.905	9.5
395.113	9.47
395.32	9.58
395.528	9.25
395.735	9.52
395.943	9.19
396.15	9.13
396.358	9
396.565	9.28
396.773	9.29
396.98	9.18
397.188	9.1
397.395	9.37
397.602	9
397.81	9.06
398.017	8.68
398.225	8.82
398.432	8.73
398.639	8.5
398.847	8.63
399.054	8.98
399.261	9.13
399.468	9.25
399.676	9.41
399.883	9.62
400.09	9.63
400.297	9.69
400.505	9.45
400.712	9.57
400.919	9.24
401.126	8.68
401.333	8.88
401.54	8.93
401.748	8.75
401.955	8.17
402.162	8.25
402.369	8.21
402.576	8.53
402.783	8.92
402.99	9.02
403.197	9.17
403.404	9.39
403.611	8.62
403.818	8.56
404.025	8.59
404.232	8.59
404.439	8.53
404.646	8.51
404.853	8.28
405.06	8.09
405.267	7.96
405.474	7.89
405.681	7.83
405.887	7.79
406.094	7.58
406.301	7.63
406.508	7.9
406.715	7.54
406.922	7.41
407.128	7.64
407.335	7.64
407.542	7.55
407.749	7.69
407.955	7.48
408.162	8.24
408.369	8.29
408.575	8.24
408.782	8.1
408.989	8.26
409.195	8.58
409.402	8.42
409.609	8.66
409.815	8.59
410.022	8.39
410.228	8.67
410.435	8.1
410.642	8.34
410.848	8.14
411.055	8.03
411.261	7.97
411.468	7.72
411.674	7.77
411.881	7.24
412.087	7.14
412.294	7.4
412.5	7.46
412.706	7.47
412.913	7.09
413.119	7.26
413.326	7.46
413.532	7.69
413.738	7.72
413.945	7.5
414.151	7.68
414.357	8.13
414.564	7.69
414.77	7.35
414.976	7.51
415.182	7.65
415.389	7.62
415.595	7.62
415.801	7.38
416.007	7.47
416.214	7.33
416.42	7.46
416.626	7.3
416.832	7.44
417.038	7.8
417.244	7.8
417.45	7.92
417.657	7.96
417.863	7.7
418.069	7.74
418.275	7.4
418.481	7.56
418.687	7.51
418.893	7.48
419.099	7.52
419.305	7.35
419.511	7.25
419.717	7.13
419.923	6.93
420.129	7.09
420.335	7.1
420.541	7.33
420.746	7.33
420.952	7.27
421.158	7.33
421.364	7.24
421.57	7.09
421.776	7.01
421.982	6.95
422.187	7.02
422.393	6.98
422.599	6.95
422.805	6.94
423.01	7.05
423.216	7.18
423.422	7.08
423.628	7.01
423.833	7.16
424.039	7.32
424.245	7.49
424.45	7.6
424.656	7.65
424.862	7.63
425.067	7.51
425.273	7.36
425.478	7.26
425.684	7.27
425.889	7.24
426.095	7.41
426.301	7.21
426.506	7.06
426.712	6.98
426.917	7.04
427.123	6.98
427.328	7.26
427.533	7.34
427.739	7.27
427.944	7.32
428.15	7.39
428.355	6.99
428.561	7.15
428.766	7.27
428.971	7.07
429.177	7
429.382	7.15
429.587	6.9
429.793	6.65
429.998	6.65
430.203	6.44
430.408	6.88
430.614	6.86
430.819	6.8
431.024	6.54
431.229	6.54
431.434	6.15
431.64	6.17
431.845	6.14
432.05	6.21
432.255	6.21
432.46	6.47
432.665	6.04
432.87	6.18
433.076	6.22
433.281	6.38
433.486	6.4
433.691	6.53
433.896	6.42
434.101	6.56
434.306	6.58
434.511	6.67
434.716	6.49
434.921	6.56
435.126	6.49
435.331	6.48
435.535	6.43
435.74	6.53
435.945	6.67
436.15	6.7
436.355	6.6
436.56	6.59
436.765	6.5
436.97	6.65
437.174	6.62
437.379	6.72
437.584	6.66
437.789	6.69
437.993	6.62
438.198	6.47
438.403	6.65
438.608	6.63
438.812	6.67
439.017	6.65
439.222	6.75
439.426	6.85
439.631	6.85
439.836	6.94
440.04	7.02
440.245	7.05
440.45	7.12
440.654	6.92
440.859	6.89
441.063	6.81
441.268	6.79
441.472	6.51
441.677	6.56
441.881	6.48
442.086	6.45
442.29	6.35
442.495	6.3
442.699	6.23
442.904	6.35
443.108	6.14
443.312	6.18
443.517	6.04
443.721	6.04
443.925	5.93
444.13	5.97
444.334	6.1
444.538	6.11
444.743	6.24
444.947	6.31
445.151	6.26
445.356	6.52
445.56	6.66
445.764	6.86
445.968	6.95
446.173	7.05
446.377	6.92
446.581	6.71
446.785	6.66
446.989	6.51
447.193	6.42
447.398	6.5
447.602	6.57
447.806	6.35
448.01	6.25
448.214	6.3
448.418	6.11
448.622	6.2
448.826	6.26
449.03	6.34
449.234	6.38
449.438	6.52
449.642	6.35
449.846	6.05
450.05	6.08
450.254	6.11
450.458	6.06
450.662	6.11
450.866	6.09
451.069	6.2
451.273	6.09
451.477	6.25
451.681	6.09
451.885	6.2
452.089	6.29
452.292	6.42
452.496	6.31
452.7	6.34
452.904	6.34
453.107	6.37
453.311	6.29
453.515	6.22
453.719	6.08
453.922	6.06
454.126	6.02
454.33	6.02
454.533	5.81
454.737	5.74
454.94	5.8
455.144	5.84
455.348	5.8
455.551	5.8
455.755	5.9
455.958	6.06
456.162	6.11
456.365	5.95
456.569	6.1
456.772	6.34
456.976	6.46
457.179	6.29
457.383	6.28
457.586	6.37
457.79	6.34
457.993	6.28
458.196	6.14
458.4	6.21
458.603	6.17
458.807	6.23
459.01	6.18
459.213	6.28
459.417	6.33
459.62	6.25
459.823	6.24
460.026	6.3
460.23	6.24
460.433	6.21
460.636	6.36
460.839	6.51
461.042	6.32
461.246	6.32
461.449	6.27
461.652	6.27
461.855	6.37
462.058	6.27
462.261	6.07
462.464	6.38
462.668	6.42
462.871	6.2
463.074	6.16
463.277	6.33
463.48	6.21
463.683	6.03
463.886	6.14
464.089	5.94
464.292	5.94
464.495	6.09
464.698	5.86
464.901	5.98
465.104	5.88
465.306	5.91
465.509	5.81
465.712	5.76
465.915	5.84
466.118	5.67
466.321	5.78
466.524	5.77
466.726	5.85
466.929	5.68
467.132	5.59
467.335	5.5
467.538	5.43
467.74	5.25
467.943	5.27
468.146	5.43
468.348	5.62
468.551	5.67
468.754	5.81
468.956	5.69
469.159	5.88
469.362	6.02
469.564	6.25
469.767	6.24
469.969	6.44
470.172	6.63
470.375	6.52
470.577	6.35
470.78	6.08
470.982	6.1
471.185	6.25
471.387	6.34
471.59	6.27
471.792	6.06
471.995	6.09
472.197	6.03
472.399	5.84
472.602	5.78
472.804	5.64
473.007	5.84
473.209	5.72
473.411	5.44
473.614	5.46
473.816	5.5
474.018	5.74
474.22	5.8
474.423	5.96
474.625	6.09
474.827	6.08
475.03	6.21
475.232	6.31
475.434	6.49
475.636	6.69
475.838	6.62
476.04	6.53
476.243	6.32
476.445	6.25
476.647	6.2
476.849	6.16
477.051	6.23
477.253	6.27
477.455	6.17
477.657	5.99
477.859	5.85
478.061	5.86
478.263	5.81
478.465	5.92
478.667	5.97
478.869	5.82
479.071	5.85
479.273	5.87
479.475	5.95
479.677	5.94
479.879	5.95
480.081	5.98
480.283	5.88
480.485	5.97
480.686	6.02
480.888	6.01
481.09	6.15
481.292	6.19
481.494	6.13
481.695	6.04
481.897	6.16
482.099	6.25
482.301	6.29
482.502	6.33
482.704	6.4
482.906	6.4
483.107	6.43
483.309	6.43
483.511	6.46
483.712	6.49
483.914	6.52
484.115	6.5
484.317	6.51
484.519	6.56
484.72	6.53
484.922	6.49
485.123	6.51
485.325	6.47
485.526	6.46
485.728	6.47
485.929	6.47
486.131	6.39
486.332	6.35
486.534	6.33
486.735	6.25
486.936	6.26
487.138	6.33
487.339	6.28
487.541	6.36
487.742	6.38
487.943	6.34
488.144	6.36
488.346	6.37
488.547	6.39
488.748	6.39
488.95	6.42
489.151	6.44
489.352	6.35
489.553	6.37
489.755	6.35
489.956	6.3
490.157	6.34
490.358	6.2
490.559	6.32
490.76	6.27
490.961	6.24
491.163	6.32
491.364	6.35
491.565	6.38
491.766	6.44
491.967	6.41
492.168	6.46
492.369	6.44
492.57	6.57
492.771	6.46
492.972	6.56
493.173	6.56
493.374	6.51
493.575	6.48
493.776	6.45
493.976	6.28
494.177	6.18
494.378	6.1
494.579	6.15
494.78	6.15
494.981	6.28
495.182	6.24
495.382	6.31
495.583	6.31
495.784	6.26
495.985	6.3
496.185	6.36
496.386	6.32
496.587	6.42
496.788	6.37
496.988	6.35
497.189	6.45
497.39	6.55
497.59	6.51
497.791	6.39
497.992	6.5
498.192	6.52
498.393	6.57
498.593	6.65
498.794	6.39
498.994	6.52
499.195	6.4
499.395	6.39
499.596	6.36
499.796	6.38
499.997	6.6
500.197	6.53
500.398	6.69
500.598	6.74
500.799	6.85
500.999	7.07
501.199	6.88
501.4	7.13
501.6	7.02
501.801	7.06
502.001	7.05
502.201	7.17
502.402	7.18
502.602	6.99
502.802	6.78
503.002	6.87
503.203	6.92
503.403	6.93
503.603	6.83
503.803	6.88
504.003	6.8
504.204	6.92
504.404	6.65
504.604	6.86
504.804	6.78
505.004	6.97
505.204	6.94
505.404	7.09
505.604	7.2
505.804	7.35
506.005	7.38
506.205	7.54
506.405	7.43
506.605	7.58
506.805	7.57
507.005	7.69
507.204	7.7
507.404	7.67
507.604	7.52
507.804	7.56
508.004	7.54
508.204	7.62
508.404	7.53
508.604	7.71
508.804	7.81
509.003	7.93
509.203	8.02
509.403	8.16
509.603	8.2
509.803	8.32
510.002	8.23
510.202	8.3
510.402	8.22
510.602	8.17
510.801	8.2
511.001	8.15
511.201	8.05
511.4	8.06
511.6	8.13
511.8	8.32
511.999	8.29
512.199	8.43
512.398	8.35
512.598	8.54
512.797	8.77
512.997	8.78
513.197	8.94
513.396	9
513.596	9.18
513.795	9.22
513.994	9.05
514.194	9.31
514.393	9.45
514.593	9.66
514.792	9.58
514.992	9.61
515.191	9.54
515.39	9.64
515.59	9.77
515.789	9.82
515.988	9.9
516.188	10.18
516.387	10.31
516.586	10.34
516.786	10.23
516.985	10.4
517.184	10.49
517.383	10.67
517.582	10.62
517.782	10.81
517.981	10.76
518.18	10.87
518.379	10.84
518.578	10.7
518.777	10.64
518.976	10.8
519.176	10.85
519.375	10.88
519.574	11.04
519.773	11.08
519.972	11.05
520.171	11.24
520.37	11.23
520.569	11.3
520.768	11.49
520.967	11.73
521.166	11.85
521.365	11.89
521.564	11.93
521.762	11.88
521.961	11.98
522.16	12.1
522.359	12.08
522.558	12.13
522.757	12.25
522.956	12.27
523.154	12.39
523.353	12.38
523.552	12.68
523.751	12.79
523.949	12.85
524.148	12.96
524.347	13.01
524.546	13.16
524.744	13.28
524.943	13.33
525.142	13.45
525.34	13.4
525.539	13.49
525.737	13.5
525.936	13.66
526.135	13.87
526.333	13.98
526.532	14.04
526.73	14.18
526.929	14.21
527.127	14.37
527.326	14.43
527.524	14.56
527.723	14.72
527.921	14.73
528.12	14.85
528.318	14.79
528.516	14.86
528.715	14.98
528.913	15.02
529.112	15.13
529.31	15.23
529.508	15.28
529.707	15.35
529.905	15.37
530.103	15.48
530.301	15.44
530.5	15.61
530.698	15.63
530.896	15.57
531.094	15.58
531.293	15.63
531.491	15.47
531.689	15.53
531.887	15.57
532.085	15.66
532.283	15.68
532.481	15.82
532.68	15.89
532.878	15.99
533.076	16.15
533.274	16.28
533.472	16.27
533.67	16.49
533.868	16.53
534.066	16.57
534.264	16.6
534.462	16.71
534.66	16.74
534.858	16.74
535.056	16.83
535.253	16.82
535.451	16.85
535.649	17.09
535.847	17.06
536.045	17.23
536.243	17.37
536.441	17.5
536.638	17.55
536.836	17.57
537.034	17.67
537.232	17.68
537.43	17.82
537.627	17.92
537.825	17.86
538.023	18.04
538.22	18.16
538.418	18.21
538.616	18.16
538.813	18.24
539.011	18.45
539.209	18.44
539.406	18.6
539.604	18.66
539.801	18.73
539.999	18.9
540.196	18.98
540.394	18.97
540.591	19.03
540.789	19.11
540.986	19.19
541.184	19.23
541.381	19.35
541.579	19.34
541.776	19.48
541.974	19.49
542.171	19.59
542.368	19.6
542.566	19.67
542.763	19.79
542.96	19.83
543.158	19.87
543.355	19.97
543.552	20.09
543.75	20.25
543.947	20.2
544.144	20.38
544.341	20.27
544.539	20.36
544.736	20.58
544.933	20.66
545.13	20.75
545.327	20.84
545.524	20.83
545.722	20.85
545.919	21.01
546.116	21.23
546.313	21.07
546.51	21.15
546.707	21.19
546.904	21.1
547.101	21.14
547.298	21.3
547.495	21.32
547.692	21.57
547.889	21.75
548.086	21.7
548.283	21.73
548.48	22.02
548.677	22.1
548.874	22.18
549.07	22.26
549.267	22.42
549.464	22.55
549.661	22.78
549.858	22.63
550.055	22.66
550.251	22.83
550.448	22.81
550.645	22.9
550.842	22.97
551.038	23.24
551.235	23.52
551.432	23.24
551.628	23.22
551.825	23.3
552.022	23.46
552.218	23.44
552.415	23.43
552.612	23.65
552.808	23.66
553.005	23.87
553.201	23.84
553.398	23.77
553.594	24.19
553.791	24.29
553.987	24.27
554.184	24.29
554.38	24.45
554.577	24.61
554.773	24.75
554.97	24.86
555.166	24.88
555.362	25.07
555.559	25.21
555.755	25.31
555.952	25.45
556.148	25.56
556.344	25.77
556.541	25.89
556.737	25.96
556.933	25.94
557.129	25.84
557.326	25.92
557.522	26.05
557.718	26.11
557.914	26.26
558.11	26.41
558.307	26.59
558.503	26.57
558.699	26.61
558.895	26.67
559.091	26.76
559.287	27.05
559.483	27.38
559.679	27.34
559.876	27.46
560.072	27.3
560.268	27.22
560.464	27.53
560.66	27.75
560.856	27.86
561.052	28.19
561.247	28.3
561.443	28.51
561.639	28.62
561.835	28.43
562.031	28.62
562.227	28.66
562.423	28.89
562.619	28.91
562.815	28.88
563.01	28.95
563.206	28.96
563.402	29.01
563.598	28.75
563.793	28.65
563.989	28.98
564.185	29.02
564.381	29.22
564.576	29.43
564.772	29.43
564.968	29.52
565.163	29.57
565.359	29.87
565.555	29.99
565.75	30.21
565.946	30.35
566.141	30.47
566.337	30.53
566.532	30.5
566.728	30.47
566.923	30.51
567.119	30.59
567.314	30.51
567.51	30.36
567.705	30.3
567.901	30.38
568.096	30.33
568.292	30.47
568.487	30.54
568.682	30.61
568.878	30.81
569.073	30.93
569.268	31.16
569.464	31.28
569.659	31.35
569.854	31.57
570.05	31.74
570.245	32.13
570.44	32.06
570.635	32.12
570.831	32.33
571.026	32.11
571.221	32.06
571.416	32.02
571.611	32.21
571.806	32.38
572.002	32.63
572.197	32.83
572.392	32.67
572.587	32.77
572.782	32.74
572.977	32.81
573.172	32.91
573.367	33.01
573.562	33.08
573.757	33.03
573.952	32.9
574.147	32.81
574.342	32.84
574.537	32.95
574.732	33.01
574.927	33.14
575.121	33.02
575.316	33.14
575.511	33.32
575.706	33.28
575.901	33.42
576.096	33.49
576.29	33.48
576.485	33.48
576.68	33.39
576.875	33.55
577.069	33.41
577.264	33.63
577.459	33.84
577.654	33.9
577.848	33.99
578.043	34.16
578.238	34.41
578.432	34.09
578.627	33.95
578.821	33.95
579.016	33.74
579.21	34.11
579.405	34.03
579.6	33.87
579.794	33.64
579.989	33.87
580.183	33.56
580.378	33.43
580.572	33.76
580.766	33.89
580.961	34.13
581.155	34.14
581.35	34.04
581.544	34.09
581.738	34.14
581.933	34.46
582.127	34.4
582.321	34.74
582.516	34.65
582.71	34.84
582.904	35.13
583.099	35.21
583.293	35.54
583.487	35.77
583.681	35.8
583.875	35.76
584.07	35.53
584.264	35.55
584.458	35.59
584.652	35.9
584.846	35.88
585.04	35.64
585.234	35.48
585.428	35.27
585.623	35.26
585.817	35.41
586.011	35.5
586.205	35.76
586.399	35.8
586.593	35.61
586.787	35.85
586.981	36.11
587.174	36.19
587.368	36.11
587.562	36.06
587.756	35.92
587.95	36.13
588.144	36.41
588.338	36.34
588.532	36.27
588.725	36.48
588.919	36.44
589.113	36.35
589.307	36.39
589.501	36.59
589.694	36.89
589.888	37.24
590.082	37.08
590.275	36.95
590.469	36.92
590.663	37.04
590.856	36.99
591.05	36.9
591.244	37
591.437	37
591.631	36.94
591.824	37.02
592.018	36.81
592.212	36.76
592.405	36.95
592.599	36.97
592.792	36.62
592.986	36.57
593.179	36.52
593.372	36.28
593.566	36.5
593.759	36.42
593.953	36.57
594.146	36.49
594.339	36.64
594.533	36.65
594.726	36.74
594.92	37.04
595.113	37.13
595.306	37.03
595.499	37.34
595.693	37.25
595.886	37.63
596.079	37.56
596.272	37.81
596.466	37.72
596.659	37.54
596.852	37.6
597.045	37.85
597.238	37.85
597.431	38.02
597.624	37.85
597.818	37.91
598.011	37.66
598.204	37.91
598.397	38.03
598.59	38.13
598.783	38.27
598.976	38.32
599.169	38.21
599.362	38.31
599.555	38.09
599.748	38.4
599.941	38.5
600.134	38.83
600.326	38.35
600.519	38.07
600.712	38.28
600.905	38.18
601.098	38.17
601.291	38.19
601.483	38.18
601.676	38.46
601.869	38.6
602.062	38.48
602.255	38.28
602.447	38.53
602.64	38.51
602.833	38.37
603.025	38.71
603.218	38.64
603.411	38.56
603.603	38.65
603.796	38.76
603.989	38.6
604.181	38.61
604.374	38.82
604.566	38.85
604.759	38.82
604.951	38.98
605.144	39.02
605.336	39.07
605.529	39.13
605.721	39.19
605.914	39.19
606.106	39.25
606.299	39.16
606.491	39.18
606.683	39.1
606.876	39.41
607.068	39.22
607.26	39.1
607.453	39.45
607.645	39.56
607.837	39.47
608.03	39.79
608.222	39.69
608.414	39.87
608.606	39.78
608.799	39.7
608.991	39.79
609.183	39.83
609.375	39.88
609.567	39.76
609.759	39.55
609.952	39.72
610.144	39.58
610.336	39.84
610.528	39.77
610.72	39.8
610.912	39.86
611.104	39.6
611.296	39.52
611.488	39.42
611.68	39.29
611.872	39.38
612.064	39.38
612.256	39.01
612.448	38.73
612.64	38.59
612.832	38.7
613.023	38.89
613.215	39.01
613.407	39.01
613.599	39.01
613.791	38.9
613.983	39.13
614.174	39.31
614.366	39.61
614.558	39.53
614.75	39.83
614.941	39.51
615.133	39.48
615.325	39.41
615.516	39.58
615.708	39.62
615.9	39.9
616.091	40.01
616.283	39.75
616.475	39.84
616.666	40.07
616.858	39.91
617.049	40.38
617.241	40.35
617.432	40.54
617.624	40.31
617.815	40.56
618.007	40.42
618.198	40.22
618.39	40.16
618.581	39.97
618.773	39.79
618.964	39.94
619.155	40.1
619.347	40.1
619.538	40.03
619.729	40.34
619.921	40.16
620.112	40.12
620.303	40.09
620.494	39.92
620.686	40.2
620.877	40.2
621.068	40.04
621.259	39.74
621.451	39.53
621.642	39.53
621.833	39.33
622.024	39.26
622.215	39.72
622.406	39.75
622.597	40.14
622.788	40.07
622.98	40.25
623.171	40.62
623.362	40.52
623.553	40.64
623.744	40.55
623.935	40.75
624.126	40.91
624.317	40.37
624.508	40.82
624.698	40.64
624.889	40.36
625.08	40.27
625.271	40.34
625.462	40.46
625.653	40.79
625.844	41
626.034	41.01
626.225	40.82
626.416	41.01
626.607	40.74
626.798	40.75
626.988	41.25
627.179	41.39
627.37	41.49
627.56	41.58
627.751	41.4
627.942	41.34
628.132	41.2
628.323	41.8
628.514	41.93
628.704	41.89
628.895	41.84
629.085	41.57
629.276	41.55
629.466	41.45
629.657	41.3
629.847	41.37
630.038	41.26
630.228	41.53
630.419	41.05
630.609	41.09
630.8	41.1
630.99	41.37
631.181	41.2
631.371	41.13
631.561	41.12
631.752	41.41
631.942	41.42
632.132	41.59
632.323	41.39
632.513	41.64
632.703	41.67
632.893	41.77
633.084	41.65
633.274	41.98
633.464	41.77
633.654	41.66
633.844	41.54
634.034	41.39
634.225	41.09
634.415	40.97
634.605	40.81
634.795	40.76
634.985	40.66
635.175	40.71
635.365	40.65
635.555	40.88
635.745	40.51
635.935	40.3
636.125	40.81
636.315	40.98
636.505	41.16
636.695	40.98
636.885	41.07
637.075	41.04
637.265	41.2
637.455	41.2
637.644	41.17
637.834	41.35
638.024	41.4
638.214	40.93
638.404	41.03
638.593	41.1
638.783	41.23
638.973	41.18
639.163	41.19
639.352	41
639.542	40.92
639.732	41.11
639.921	41.28
640.111	41.2
640.301	41.01
640.49	40.97
640.68	40.91
640.87	40.91
641.059	41.09
641.249	41.21
641.438	41.19
641.628	41.16
641.817	40.93
642.007	41.02
642.196	41.28
642.386	41.3
642.575	40.69
642.764	40.68
642.954	40.87
643.143	40.53
643.333	40.67
643.522	40.39
643.711	40.64
643.901	40.57
644.09	40.5
644.279	40.37
644.469	40.69
644.658	40.96
644.847	40.69
645.036	40.49
645.226	40.7
645.415	40.6
645.604	41
645.793	41.03
645.982	41.3
646.171	41.35
646.361	41.26
646.55	41.19
646.739	41.53
646.928	41.82
647.117	42.02
647.306	41.75
647.495	41.56
647.684	41.34
647.873	41.04
648.062	41.15
648.251	41.22
648.44	41.08
648.629	41.26
648.818	41.27
649.007	41.71
649.196	41.57
649.384	41.66
649.573	42.09
649.762	42.54
649.951	42.61
650.14	42.52
650.328	42.46
650.517	42.75
650.706	42.6
650.895	42.33
651.083	42.08
651.272	41.94
651.461	42.24
651.65	41.71
651.838	41.5
652.027	41.2
652.216	41.37
652.404	41.59
652.593	41.69
652.781	41.87
652.97	42.28
653.158	42.03
653.347	42.1
653.535	41.98
653.724	42.49
653.912	42.51
654.101	43.03
654.289	42.61
654.478	42.54
654.666	42.83
654.855	42.63
655.043	42.53
655.231	42.69
655.42	42.37
655.608	42.05
655.796	41.5
655.985	41.34
656.173	40.97
656.361	41.01
656.55	41.06
656.738	40.73
656.926	41.03
657.114	41.1
657.302	41.21
657.491	41.2
657.679	41.34
657.867	42.11
658.055	42.14
658.243	42.27
658.431	42.55
658.619	42.62
658.807	42.66
658.996	42.48
659.184	42.37
659.372	42.28
659.56	42.71
659.748	43.18
659.936	43.04
660.124	43.16
660.311	43.35
660.499	43.29
660.687	43.14
660.875	43.45
661.063	43.72
661.251	43.74
661.439	43.61
661.627	43.62
661.814	43.61
662.002	43.18
662.19	43.3
662.378	43.5
662.565	43.42
662.753	43.34
662.941	43.08
663.129	42.76
663.316	42.84
663.504	43.11
663.692	42.83
663.879	42.77
664.067	43.27
664.254	43.15
664.442	42.75
664.63	43.1
664.817	43.04
665.005	43.01
665.192	42.74
665.38	42.91
665.567	43.32
665.755	43.68
665.942	43.43
666.13	43.12
666.317	43.19
666.504	42.87
666.692	42.46
666.879	42.82
667.067	42.83
667.254	43.44
667.441	43.57
667.629	43.38
667.816	43.17
668.003	43.17
668.19	43.24
668.378	43.59
668.565	43.57
668.752	43.88
668.939	43.85
669.127	43.67
669.314	43.26
669.501	43.25
669.688	43.26
669.875	43.43
670.062	43.21
670.249	43.41
670.436	42.91
670.623	42.98
670.81	42.81
670.997	42.51
671.184	42.72
671.371	43.05
671.558	42.87
671.745	42.82
671.932	42.94
672.119	42.7
672.306	42.58
672.493	43.06
672.68	43.7
672.867	43.72
673.054	43.64
673.24	43.75
673.427	43.24
673.614	43.8
673.801	43.66
673.988	43.58
674.174	44.1
674.361	44.08
674.548	43.5
674.734	43.38
674.921	43.22
675.108	43.24
675.294	42.81
675.481	42.46
675.668	42.21
675.854	42.29
676.041	42.12
676.227	42.06
676.414	41.78
676.601	41.92
676.787	42.03
676.974	41.77
677.16	41.94
677.347	42.57
677.533	43.2
677.719	43.08
677.906	43.2
678.092	43.21
678.279	43.19
678.465	43.22
678.651	43.43
678.838	43.21
679.024	43.48
679.21	43.76
679.397	43.66
679.583	43.33
679.769	43.58
679.955	43.41
680.142	43.41
680.328	43.37
680.514	43.58
680.7	43.45
680.886	43.77
681.073	44.04
681.259	43.22
681.445	42.64
681.631	42.65
681.817	42.08
682.003	42.07
682.189	41.96
682.375	41.87
682.561	41.66
682.747	41.91
682.933	41.29
683.119	41.24
683.305	41.87
683.491	42.17
683.677	42.56
683.863	43.14
684.049	42.91
684.235	43.43
684.42	43.12
684.606	43.38
684.792	43.22
684.978	43.33
685.164	43.36
685.349	43.38
685.535	43.65
685.721	44.21
685.907	43.74
686.092	44.29
686.278	44.01
686.464	44.55
686.649	43.86
686.835	44.21
687.021	44.11
687.206	44.07
687.392	44.07
687.577	44.21
687.763	43.84
687.948	43.99
688.134	43.52
688.319	43.63
688.505	43.45
688.69	43.92
688.876	43.37
689.061	44.05
689.247	43.95
689.432	44
689.618	43.37
689.803	43.3
689.988	42.92
690.174	43.41
690.359	43.23
690.544	43.18
690.73	43.19
690.915	43.37
691.1	43.03
691.285	43.3
691.471	43.23
691.656	43.71
691.841	43.83
692.026	43.89
692.211	43.09
692.396	42.62
692.582	43.01
692.767	43.2
692.952	42.59
693.137	42.47
693.322	42.17
693.507	42.51
693.692	42.07
693.877	41.71
694.062	41.82
694.247	42.6
694.432	42.99
694.617	42.55
694.802	42.87
694.987	43.44
695.172	43.63
695.357	44.34
695.541	44.52
695.726	44.66
695.911	44.46
696.096	44.85
696.281	44.5
696.466	44.36
696.65	44.65
696.835	43.92
697.02	43.85
697.204	43.47
697.389	42.49
697.574	42.14
697.759	42.38
697.943	42.62
698.128	42.85
698.312	42.98
698.497	43.34
698.682	43.46
698.866	43.64
699.051	43.67
699.235	43.74
699.42	44
699.604	44.05
699.789	44.13
699.973	44.28
700.158	44.4
700.342	44.45
700.527	44.29
700.711	44.19
700.895	44.35
701.08	44.36
701.264	44.23
701.448	44.25
701.633	44.06
701.817	43.35
702.001	43.29
702.186	42.69
702.37	42.49
702.554	42.32
702.738	42.38
702.923	42.56
703.107	42.87
703.291	43.18
703.475	43.11
703.659	43.64
703.843	44.65
704.027	44.68
704.212	44.53
704.396	44.51
704.58	44.33
704.764	43.73
704.948	43.55
705.132	42.72
705.316	43.15
705.5	43.72
705.684	43.4
705.868	43.05
706.052	43.35
706.235	42.36
706.419	42.87
706.603	43.6
706.787	44.16
706.971	44.48
707.155	45.8
707.339	46.09
707.522	45.82
707.706	45.6
707.89	45.72
708.074	44.62
708.257	46.3
708.441	45.97
708.625	45.69
708.808	45.52
708.992	45.1
709.176	44.77
709.359	43.8
709.543	43.58
709.727	43.64
709.91	43.66
710.094	43.77
710.277	43.25
710.461	43.02
710.644	43.29
710.828	43.03
711.011	42.75
711.195	42.53
711.378	42.33
711.562	42.37
711.745	42.37
711.928	42.83
712.112	44.14
712.295	44.32
712.478	45.25
712.662	45.32
712.845	45.06
713.028	45.04
713.212	44.64
713.395	45.42
713.578	44.95
713.761	45.29
713.945	44.8
714.128	44.03
714.311	43.6
714.494	43.07
714.677	42.29
714.86	43.54
715.043	43.48
715.227	43.83
715.41	43.4
715.593	43.87
715.776	43.66
715.959	43.5
716.142	43.51
716.325	43.87
716.508	43.26
716.691	43.46
716.874	42.73
717.057	42.81
717.239	42.4
717.422	42.62
717.605	42.99
717.788	43.34
717.971	43.1
718.154	42.63
718.337	42.26
718.519	43.46
718.702	43.96
718.885	44.26
719.068	44.4
719.25	44.3
719.433	44.02
719.616	43.55
719.798	43.41
719.981	43.57
720.164	43.61
720.346	43.88
720.529	42.62
720.712	42.01
720.894	41.33
721.077	41.47
721.259	41.15
721.442	41
721.624	41.55
721.807	41.34
721.989	41.77
722.172	42.06
722.354	42.27
722.537	42.98
722.719	43.51
722.901	44.51
723.084	44.76
723.266	46.24
723.448	46.17
723.631	46.16
723.813	45.67
723.995	44.3
724.178	44
724.36	44.23
724.542	43.62
724.724	43.7
724.907	43.03
725.089	43.04
725.271	42.93
725.453	43.77
725.635	42.71
725.817	42.34
725.999	43.65
726.181	44.58
726.364	43.78
726.546	44.93
726.728	44.51
726.91	44.2
727.092	44.32
727.274	43.4
727.456	42.99
727.638	43.17
727.819	43.94
728.001	43.9
728.183	43.16
728.365	43.35
728.547	43.26
728.729	42.97
728.911	43.22
729.093	43.49
729.274	44.39
729.456	43.61
729.638	44.24
729.82	44.15
730.001	43.83
730.183	44.28
730.365	44.34
730.546	44.23
730.728	44.71
730.91	44.77
731.091	43.33
731.273	43.14
731.455	43.65
731.636	43.35
731.818	43.8
731.999	44.49
732.181	45
732.362	45.23
732.544	43.84
732.725	43.06
732.907	43.1
733.088	42.81
733.27	41.88
733.451	42.2
733.633	41.25
733.814	40.58
733.995	40.24
734.177	39.39
734.358	40.05
734.539	40.72
734.721	40.76
734.902	41.01
735.083	42.55
735.264	42.88
735.446	43
735.627	44.48
735.808	44.86
735.989	43.67
736.17	43.75
736.351	43.48
736.533	43.51
736.714	44.32
736.895	43.05
737.076	43.05
737.257	44.03
737.438	43.85
737.619	42.44
737.8	42.84
737.981	44.02
738.162	43.82
738.343	43.45
738.524	44.31
738.705	44.08
738.886	44.79
739.067	44.72
739.247	44.44
739.428	43.5
739.609	44.68
739.79	44.49
739.971	44.4
740.151	44.14
740.332	43.61
740.513	43.14
740.694	43.36
740.874	43.17
741.055	42.44
741.236	42.02
741.417	42.53
741.597	41.88
741.778	41.42
741.958	41.06
742.139	40.77
742.32	40.39
742.5	40.84
742.681	41.18
742.861	41.3
743.042	41.92
743.222	41.82
743.403	42
743.583	42.38
743.764	41.63
743.944	42.7
744.124	44.18
744.305	44.61
744.485	44.64
744.666	43.7
744.846	42.93
745.026	42.02
745.207	41.01
745.387	40.88
745.567	41.12
745.747	41.69
745.928	40.43
746.108	39.76
746.288	40.73
746.468	40.31
746.648	40.48
746.829	41.06
747.009	41.73
747.189	43.01
747.369	42.52
747.549	42.42
747.729	41.44
747.909	42.06
748.089	42.5
748.269	41.78
748.449	41.92
748.629	42.2
748.809	42.17
748.989	42.77
749.169	42.35
749.349	42.55
749.529	42.71
749.709	42.36
749.889	42.05
750.068	41.07
750.248	41.29
750.428	41.16
750.608	40.91
750.788	41.92
750.967	40.53
751.147	40.97
751.327	42.24
751.507	41.44
751.686	42.41
751.866	43.31
752.046	44.1
752.225	43.41
752.405	43.4
752.585	44.25
752.764	44.1
752.944	44.84
753.123	44.56
753.303	42.84
753.482	43.96
753.662	43.94
753.841	43.37
754.021	42.05
754.2	41.45
754.38	40.88
754.559	40.07
754.739	40.2
754.918	40.55
755.097	40.18
755.277	40.19
755.456	39.81
755.635	40.66
755.815	40.04
755.994	41.77
756.173	41.92
756.352	42.57
756.532	44.06
756.711	43.66
756.89	43.36
757.069	42.59
757.248	43.95
757.427	44.11
757.607	43.28
757.786	43.71
757.965	44.37
758.144	44.77
758.323	43.92
758.502	43.92
758.681	43.99
758.86	44.42
759.039	46.07
759.218	46.19
759.397	45.99
759.576	46.53
759.755	46.15
759.934	44.26
760.113	44.25
760.291	45.59
760.47	44.64
760.649	44.93
760.828	43.86
761.007	42.71
761.186	43.36
761.364	42.94
761.543	43.63
761.722	44.3
761.901	44.79
762.079	44.39
762.258	42.88
762.437	43
762.615	41.78
762.794	42.13
762.972	43.07
763.151	43.02
763.33	42.99
763.508	42.28
763.687	42.17
763.865	41.96
764.044	42.99
764.222	43.5
764.401	42.95
764.579	44.12
764.758	44.38
764.936	43.46
765.114	43.38
765.293	43.8
765.471	44.53
765.65	43.86
765.828	44.04
766.006	43.38
766.184	42.99
766.363	43.63
766.541	42.86
766.719	42.96
766.898	43.58
767.076	41.83
767.254	41.25
767.432	40.16
767.61	41.61
767.788	41.61
767.967	42.27
768.145	42.49
768.323	41.96
768.501	42.11
768.679	42.46
768.857	42.5
769.035	42.41
769.213	43.16
769.391	43.22
769.569	42.56
769.747	41.03
769.925	40.47
770.103	40.03
770.281	38.06
770.459	37.92
770.636	38.92
770.814	39.71
770.992	41.15
771.17	40.6
771.348	40.68
771.525	40.06
771.703	41.76
771.881	42.73
772.059	43.29
772.236	44.04
772.414	42.11
772.592	39.99
772.769	37.6
772.947	36.32
773.125	36.36
773.302	37.41
773.48	37.77
773.657	37.35
773.835	37.26
774.013	36.06
774.19	36.35
774.368	39.63
774.545	37.78
774.723	36.21
774.9	36.11
775.077	34.81
775.255	34.09
775.432	33.9
775.61	34.98
775.787	32.01
775.964	32.83
776.142	34.93
776.319	33.38
776.496	34.89
776.674	39.77
776.851	40.64
777.028	39.77
777.205	38.91
777.382	38.52
777.56	37.03
777.737	36.75
777.914	36.54
778.091	35.08
778.268	35.03
778.445	35.47
778.622	33.31
778.8	33.33
778.977	36.47
779.154	36.12
779.331	36.01
779.508	36.89
779.685	37.96
779.862	38.73
780.038	38.44
780.215	37.92
780.392	37.24
780.569	35.99
780.746	37.94
780.923	36.21
781.1	36.53
781.277	35.71
781.453	37.72
781.63	39.73
781.807	37.94
781.984	39.45
782.16	40.81
782.337	41.9
782.514	41.64
782.691	39.49
782.867	39.74
783.044	38.28
783.221	37.51
783.397	33.96
783.574	31.74
783.75	32.43
783.927	32.98
784.103	34.5
784.28	33.37
784.456	35.25
784.633	34.81
784.809	36.11
784.986	38.33
785.162	38.34
785.339	39.66
785.515	40.11
785.692	41.46
785.868	40.93
786.044	38.78
786.221	38.02
786.397	35.21
786.573	36.06
786.749	35.04
786.926	34.33
787.102	35.92
787.278	37.17
787.454	36.14
787.631	35.42
787.807	33.86
787.983	33.23
788.159	35.23
788.335	35.77
788.511	35.22
788.687	34.67
788.863	36.32
789.039	38.49
789.216	35.91
789.392	36.28
789.568	37.09
789.744	37.91
789.919	36.67
790.095	38.41
790.271	40.19
790.447	40.92
790.623	43.07
790.799	42.41
790.975	38.67
791.151	39.51
791.327	43
791.502	41.27
791.678	40.33
791.854	42.07
792.03	38.34
792.205	38.95
792.381	39.17
792.557	38.05
792.733	37.46
792.908	39.85
793.084	39.94
793.259	37.03
793.435	37.8
793.611	39.09
793.786	37.78
793.962	39.96
794.137	38.39
794.313	37.75
794.488	38.67
794.664	37.68
794.839	36.81
795.015	39.42
795.19	39.73
795.366	39.34
795.541	38.41
795.716	41.09
795.892	40.15
796.067	40.42
796.242	43.17
796.418	40.06
796.593	40.9
796.768	41.15
796.944	38.74
797.119	39.01
797.294	37.67
797.469	39.29
797.644	37.25
797.82	34.33
797.995	35.74
798.17	33.06
798.345	34.93
798.52	36.98
798.695	38.43
798.87	38.54
799.045	39.1
799.22	42.05
799.395	40.78
799.57	41.49
799.745	45.15
799.92	42.92
800.095	44.31
800.27	43.23
800.445	40.92
800.62	37.87
800.795	38.9
800.97	38.61
801.145	40.28
801.319	39.52
801.494	38.34
801.669	37.58
801.844	38.22
802.018	41.13
802.193	44.88
802.368	45.34
802.543	45.81
802.717	46.6
802.892	45.74
803.067	40.95
803.241	42.76
803.416	43.71
803.59	44.17
803.765	43.73
803.94	35.94
804.114	32.46
804.289	29.52
804.463	28.7
804.638	28.15
804.812	28.26
804.986	32.91
805.161	33.4
805.335	32.63
805.51	31.65
805.684	31.98
805.858	32.9
806.033	33.08
806.207	34.93
806.381	38.98
806.556	38.78
806.73	38.15
806.904	36.96
807.078	35.41
807.253	37.34
807.427	37.99
807.601	38.16
807.775	40.13
807.949	40.71
808.123	42.57
808.298	39.14
808.472	37.59
808.646	37.42
808.82	37.11
808.994	35.33
809.168	33.47
809.342	33.78
809.516	34.59
809.69	36.67
809.864	33.42
810.038	32.48
810.212	32.57
810.385	31.42
810.559	32.11
810.733	28.38
810.907	29
811.081	30.64
811.255	28.22
811.428	24.42
811.602	20.92
811.776	27.5
811.95	29.82
812.123	33.06
812.297	35.85
812.471	36.69
812.644	38.75
812.818	37.28
812.992	34.1
813.165	36.6
813.339	40.75
813.512	44.14
813.686	43.21
813.86	39.05
814.033	34.4
814.207	32.24
814.38	30.68
814.554	32.49
814.727	35.18
814.9	36.55
815.074	41.34
815.247	36.59
815.421	35.6
815.594	28.9
815.767	29.08
815.941	25.89
816.114	23.62
816.287	21.82
816.46	19.13
816.634	16.25
816.807	13.7
816.98	6.65
817.153	13.4
817.327	13.42
817.5	16.32
817.673	16.21
817.846	18.01
818.019	24.09
818.192	27.7
818.365	30.9
818.538	33.27
818.711	35.49
818.884	35.27
819.057	33.66
819.23	28.58
819.403	26.05
819.576	25.77
819.749	28.78
819.922	28.83
820.095	31.14
820.268	30.84
820.441	31.19
820.614	34.79
820.786	36.47
820.959	38.91
821.132	40.21
821.305	42.67
821.477	43.73
821.65	43.7
821.823	43.17
821.996	42.48
822.168	42.48
822.341	42.89
822.514	42.31
822.686	42.83
822.859	43.31
823.031	44.12
823.204	43.59
823.376	43.05
823.549	43.34
823.722	43.22
823.894	43.58
824.067	43.59
824.239	43.04
824.411	43.43
824.584	43.06
824.756	41.95
824.929	41.73
825.101	41.81
825.273	41.29
825.446	40.79
825.618	41.09
825.79	40.82
825.963	39.68
826.135	39.85
826.307	39
826.479	38.25
826.652	39.05
826.824	38.07
826.996	38.28
827.168	38.75
827.34	38.84
827.512	39.17
827.684	38.32
827.856	39.14
828.029	38.78
828.201	39.31
828.373	39.71
828.545	38.63
828.717	38.49
828.889	38.34
829.061	39.35
829.232	39
829.404	38.6
829.576	38.1
829.748	37.56
829.92	37.83
830.092	37.17
830.264	34.95
830.436	34.33
830.607	34.59
830.779	32.53
830.951	30.76
831.123	31.16
831.294	28.66
831.466	26.76
831.638	27.76
831.809	26.96
831.981	26.03
832.153	29.3
832.324	30.13
832.496	29.42
832.667	28.3
832.839	30.43
833.011	30.02
833.182	31.48
833.354	33.89
833.525	34.68
833.697	36.82
833.868	36.37
834.039	37.42
834.211	36.88
834.382	36.12
834.554	40.61
834.725	40.56
834.896	39.15
835.068	39.93
835.239	40.99
835.41	42.24
835.581	41.53
835.753	42.06
835.924	39.2
836.095	38.7
836.266	40.44
836.438	38.29
836.609	36.74
836.78	38.51
836.951	37.54
837.122	36.22
837.293	34.88
837.464	34.79
837.635	32.34
837.806	34.43
837.977	33.26
838.148	33.87
838.319	29.82
838.49	31.81
838.661	32.43
838.832	33.9
839.003	33.01
839.174	26.45
839.345	25.96
839.516	27.98
839.687	18.8
839.857	22.9
840.028	23.45
840.199	30.59
840.37	29.23
840.54	26.79
840.711	26.61
840.882	24.29
841.053	27.71
841.223	23.32
841.394	27.29
841.564	30.2
841.735	30.96
841.906	24.91
842.076	21.76
842.247	22.94
842.417	21.36
842.588	20.35
842.758	16.89
842.929	15.53
843.099	14.65
843.27	6.95
843.44	2.89
843.611	-1.68
843.781	-6.08
843.951	-4.86
844.122	-6.78
844.292	-4.13
844.462	-14.43
844.633	-4.73
844.803	6.57
844.973	13.02
845.144	16.33
845.314	23.79
845.484	32.14
845.654	33.12
845.824	43
845.995	44.13
846.165	37.32
846.335	44.64
846.505	35.68
846.675	17.13
846.845	12.04
847.015	14.67
847.185	8.47
847.355	-7.48
847.525	16.71
847.695	7.19
847.865	-8.88
848.035	-19.73
848.205	-30.04
848.375	-11.53
848.545	-15.55
848.715	-26.72
848.884	-38.79
849.054	-58.39
849.224	-54.36
849.394	-102.14
849.564	-72.72
849.733	-39.47
849.903	-30.23
850.073	-20.16
850.243	-13.45
850.412	-19.08
850.582	-27.81
850.752	-30.86
850.921	-10.98
851.091	-21.77
851.26	-20.15
851.43	-38.07
851.599	-43.63
851.769	-37.51
851.939	-38.77
852.108	-101.17
852.278	-57.72
852.447	-27.37
852.616	1.13
852.786	29.1
852.955	45.79
853.125	57.31
853.294	71.28
853.463	38.28
853.633	54.39
853.802	47.44
853.971	15.72
854.141	-22.94
854.31	-44.19
854.479	-111.77
854.648	-176.18
854.818	-169.07
854.987	-153.72
855.156	-160.13
855.325	-98.49
855.494	-128.47
855.663	-163.88
855.832	-178.17
856.001	-171.43
856.171	-152.78
856.34	-105.45
856.509	-105.77
856.678	-104.32
856.847	-70.05
857.016	-80.85
857.185	-95.84
857.353	-40.16
857.522	-41.88
857.691	-17.28
857.86	-21.14
858.029	0.84
858.198	-19.29
858.367	-10.92
858.535	-31.96
858.704	-52.47
858.873	-21.68
859.042	-5.69
859.21	-17.93
859.379	-1.22
859.548	3.98
859.717	8.39
859.885	0.99
860.054	8.16
860.222	-11.85
860.391	7.16
860.56	22.68
860.728	12.29
860.897	0.22
861.065	5.74
861.234	4.9
861.402	4.28
861.571	11.16
861.739	14.56
861.908	33.55
862.076	57.97
862.244	61.63
862.413	46.03
862.581	41.48
862.749	37.21
862.918	14.85
863.086	-5.49
863.254	9.31
863.423	-89.27
863.591	-16.59
863.759	-185.43
863.927	-462.82
864.096	-2345.2
864.264	634.07
864.432	1209.68
864.6	-1632.03
864.768	-339.63
864.936	-2.83
865.104	5.83
865.272	37.56
865.44	-12.24
865.608	-8.18
865.776	-80.11
865.944	-58.26
866.112	-0.6
866.28	11.62
866.448	5.3
866.616	5.72
866.784	-21.06
866.952	-38.02
867.12	-61.93
867.288	-29.6
867.455	-25.05
867.623	-2.45
867.791	0.94
867.959	-7.02
868.127	20.54
868.294	11.66
868.462	-24.14
868.63	-26.85
868.797	-47.5
868.965	-90.06
869.133	-111.78
869.3	-172.97
869.468	-53.76
869.636	-17.26
869.803	-54.89
869.971	-105.12
870.138	-53.22
870.306	-43.61
870.473	-52.14
870.641	-38.06
870.808	-34.17
870.975	-46.17
871.143	-7.93
871.31	-51.77
871.478	-146.87
871.645	-15.01
871.812	-16.64
871.98	-69.23
872.147	-75.51
872.314	-37.82
872.482	-88.14
872.649	-170.48
872.816	-91.73
872.983	-351.06
873.15	-118.15
873.318	-144.69
873.485	-297.05
873.652	-244.68
873.819	-122.47
873.986	-74.62
874.153	-68.99
874.32	-66.86
874.487	-29.98
874.654	-32.75
874.821	-8.82
874.988	-16.35
875.155	22.51
875.322	11.83
875.489	-8.54
875.656	-0.51
875.823	-18.65
875.99	-15.78
876.157	-3.83
876.324	2.46
876.49	13.8
876.657	-0.52
876.824	6.03
876.991	-1.27
877.157	5.23
877.324	13.51
877.491	6.62
877.658	4.9
877.824	-13.08
877.991	-9.25
878.157	-30.88
878.324	-53.63
878.491	-19.36
878.657	-43.35
878.824	-50.44
878.99	-48.3
879.157	-91.63
879.323	-88.41
879.49	-71.23
879.656	-65.44
879.823	-61.37
879.989	-37.32
880.156	-39.95
880.322	-48.93
880.488	-19.5
880.655	-2.36
880.821	-13.29
880.987	18.61
881.154	20.19
881.32	10.25
881.486	7.71
881.652	21.91
881.819	18.93
881.985	23.06
882.151	19.83
882.317	20.3
882.483	17.58
882.649	21.54
882.816	18.22
882.982	21.36
883.148	25.58
883.314	30.04
883.48	28.55
883.646	31.05
883.812	32.62
883.978	33.74
884.144	32.59
884.31	32.74
884.476	33.64
884.642	34.09
884.807	35.37
884.973	36.57
885.139	35.91
885.305	37.89
885.471	36.34
885.637	36.9
885.802	37.99
885.968	39.82
886.134	42.35
886.3	41.53
886.465	43.87
886.631	44.5
886.797	43.92
886.962	43.91
887.128	42.17
887.293	41.54
887.459	32.58
887.625	29.18
887.79	28.4
887.956	29.93
888.121	28.87
888.287	24.73
888.452	18.3
888.618	10.89
888.783	1.3
