Data from 2938495_Reflection_1.txt Node
Date: Wed Jun 17 00:33:26 EDT 2015
User: robert
Spectrometer: USB4E03002
Autoset integration time: false
Trigger mode: 4
Integration Time (sec): 1.000000E-1
Scans to average: 10
Electric dark correction enabled: true
Nonlinearity correction enabled: false
Boxcar width: 5
Stray light correction enabled: false
XAxis mode: Wavelengths
Stop averaging: false
Number of Pixels in Spectrum: 3648
>>>>>Begin Spectral Data<<<<<
177.575	180.37
177.794	145.4
178.014	65.11
178.233	10.21
178.452	46.75
178.672	-21.23
178.891	22.76
179.11	-60
179.33	-16.4
179.549	-85.94
179.768	-275.46
179.987	973.81
180.207	259.66
180.426	-2409.15
180.645	304.72
180.864	-205.65
181.084	1.9
181.303	-63.65
181.522	-51.84
181.741	-76.94
181.96	-53.39
182.179	13.18
182.398	6.66
182.618	-22.39
182.837	-1.11
183.056	56.95
183.275	20.25
183.494	3.74
183.713	-6.89
183.932	33.13
184.151	7.63
184.37	-21.15
184.589	-79.43
184.808	-112.61
185.027	-155.47
185.246	-737.28
185.465	-667.7
185.684	-2579.74
185.903	2228.13
186.122	-1402.74
186.341	-759.52
186.56	-1153.65
186.779	-1069.53
186.998	-743.92
187.216	-2227.71
187.435	-455.6
187.654	-133.65
187.873	-196.55
188.092	-434.92
188.311	-532.41
188.53	-3030.47
188.748	-1003.93
188.967	329.11
189.186	539.93
189.405	185.6
189.623	280.84
189.842	150.78
190.061	150.61
190.28	128.38
190.498	163.83
190.717	123.84
190.936	132.02
191.154	138.09
191.373	199.04
191.592	187.61
191.81	260.26
192.029	233.01
192.248	1423.03
192.466	-205.15
192.685	-353.14
192.904	-99.09
193.122	-127.74
193.341	-72.19
193.559	-92.27
193.778	-208.95
193.996	-245.41
194.215	-223.37
194.433	-459.02
194.652	-429.61
194.87	-1279.9
195.089	-420.52
195.307	-1204.16
195.526	-730.92
195.744	4199.24
195.963	-239.23
196.181	-27.32
196.399	-26.95
196.618	-186.6
196.836	-134.82
197.055	-57.4
197.273	-209.29
197.491	-445.68
197.71	-539.7
197.928	-294.95
198.146	-468.76
198.365	908.41
198.583	310.59
198.801	329.72
199.019	346.09
199.238	841.57
199.456	342.66
199.674	952.54
199.892	-2093.82
200.111	-186.74
200.329	-135.18
200.547	-112.39
200.765	-67.54
200.983	-15.71
201.202	-8.08
201.42	-0.4
201.638	-5.09
201.856	-12.8
202.074	1.48
202.292	-26.78
202.51	-74.37
202.728	-137.25
202.946	-206.08
203.165	-490.76
203.383	23567.5
203.601	1822.8
203.819	3341.67
204.037	2386.23
204.255	1133.25
204.473	635.36
204.691	257.98
204.909	242.38
205.127	154.65
205.345	192.17
205.562	164.1
205.78	236.28
205.998	234.84
206.216	167.13
206.434	1375.34
206.652	304.29
206.87	685.44
207.088	-430.3
207.306	-245.86
207.523	-130.54
207.741	-77.38
207.959	-16.94
208.177	-37.41
208.395	-30.2
208.612	-10.85
208.83	-10.95
209.048	-7.65
209.266	-9.26
209.483	0.47
209.701	10.8
209.919	18.75
210.136	-8.37
210.354	-50.71
210.572	4.72
210.79	-51.06
211.007	-18.04
211.225	-37.78
211.442	0.56
211.66	17.41
211.878	-5.67
212.095	-6.17
212.313	8.32
212.53	22.08
212.748	17.13
212.966	9.73
213.183	13.04
213.401	-16.71
213.618	-37.23
213.836	-59.84
214.053	-60.89
214.271	-23.75
214.488	-46.76
214.705	-103.88
214.923	-110.27
215.14	-35.36
215.358	-14.9
215.575	-12.08
215.793	3.24
216.01	22.8
216.227	23.63
216.445	29.78
216.662	15.75
216.879	22.15
217.097	7.08
217.314	-4.17
217.531	-15.1
217.749	-30.5
217.966	-19.07
218.183	-15.72
218.4	-19.08
218.618	-25.88
218.835	-47.51
219.052	-22.2
219.269	-14.06
219.487	5.5
219.704	-1.23
219.921	-10.47
220.138	-19.7
220.355	-15.12
220.572	-27.3
220.79	-15.42
221.007	-21.88
221.224	-9.73
221.441	-16.95
221.658	-16.68
221.875	-17.34
222.092	-15.43
222.309	-5.78
222.526	3.13
222.743	2.4
222.96	7.57
223.177	5.25
223.394	15.29
223.611	15.29
223.828	14.47
224.045	15.46
224.262	17.77
224.479	17.85
224.696	17.61
224.913	13.46
225.13	12.05
225.347	14.27
225.564	15.27
225.781	11.02
225.997	10.5
226.214	12.45
226.431	8.97
226.648	9.15
226.865	9.28
227.082	7.86
227.298	8.16
227.515	10.14
227.732	9.88
227.949	8.52
228.165	8.95
228.382	9.64
228.599	9.41
228.816	12.04
229.032	11.35
229.249	11.76
229.466	12.05
229.682	11.75
229.899	9.7
230.116	12.05
230.332	14.1
230.549	11.69
230.765	9.51
230.982	7.79
231.199	7.08
231.415	7.6
231.632	6.32
231.848	6.09
232.065	6.38
232.281	4.49
232.498	0.38
232.714	2.14
232.931	5.82
233.147	8.12
233.364	7.65
233.58	7.05
233.797	4.68
234.013	5.38
234.23	4.07
234.446	6.7
234.662	7.48
234.879	9.5
235.095	8.81
235.312	7.77
235.528	5.92
235.744	7.05
235.961	8.16
236.177	9.91
236.393	9.61
236.61	11.38
236.826	12.31
237.042	13.35
237.258	11.41
237.475	9.76
237.691	10.34
237.907	11.24
238.123	11.79
238.339	11.5
238.556	13.13
238.772	12.31
238.988	12.68
239.204	12.92
239.42	12.42
239.636	12.61
239.853	12.81
240.069	13.09
240.285	13.57
240.501	12.59
240.717	12.62
240.933	11.81
241.149	12.14
241.365	11.71
241.581	10.29
241.797	10.36
242.013	9.77
242.229	9.03
242.445	8.47
242.661	7.7
242.877	7.76
243.093	6.66
243.309	6.72
243.525	7.71
243.741	8.02
243.957	8.23
244.173	8.61
244.388	8.85
244.604	9.18
244.82	9.27
245.036	8.74
245.252	9.12
245.468	9.3
245.683	9.17
245.899	8.87
246.115	8.48
246.331	8.79
246.547	8.67
246.762	8.89
246.978	9
247.194	8.49
247.409	9.09
247.625	8.82
247.841	8.01
248.057	8.38
248.272	7.89
248.488	8.44
248.703	8.39
248.919	7.45
249.135	6.58
249.35	5.6
249.566	5.84
249.782	4.69
249.997	4.14
250.213	4.75
250.428	4.07
250.644	4.48
250.859	4.32
251.075	3.69
251.29	4.34
251.506	4.51
251.721	5.14
251.937	6.4
252.152	6.31
252.368	7.23
252.583	8.42
252.798	7.91
253.014	7.08
253.229	7.49
253.445	7.6
253.66	8.36
253.875	8.66
254.091	8.07
254.306	6.57
254.521	6.71
254.737	6.31
254.952	4.71
255.167	4.89
255.383	6.06
255.598	5.08
255.813	5.02
256.028	3.97
256.244	4.3
256.459	4.88
256.674	5.13
256.889	5.31
257.104	5
257.32	5.76
257.535	6.04
257.75	5.91
257.965	6.07
258.18	6.21
258.395	6.56
258.61	6.32
258.826	5.95
259.041	5.67
259.256	5.84
259.471	5.96
259.686	5.64
259.901	5.66
260.116	5.42
260.331	5.13
260.546	4.57
260.761	4.32
260.976	4.13
261.191	3.8
261.406	3.71
261.621	3.34
261.836	3.77
262.05	3.81
262.265	3.73
262.48	3.73
262.695	3.96
262.91	4
263.125	3.56
263.34	3.48
263.555	4.14
263.769	4.22
263.984	4.27
264.199	3.2
264.414	4.13
264.629	3.75
264.843	3.73
265.058	4.38
265.273	5.03
265.488	5.14
265.702	5.92
265.917	6.27
266.132	6.48
266.346	6.83
266.561	6.73
266.776	5.93
266.99	6.49
267.205	6.72
267.42	6.26
267.634	5.62
267.849	5.66
268.063	5.4
268.278	5.04
268.492	4.82
268.707	4.65
268.922	5.54
269.136	5.53
269.351	4.84
269.565	5.12
269.78	5.24
269.994	5.43
270.209	5.53
270.423	5.69
270.637	5.71
270.852	5.91
271.066	5.81
271.281	5.71
271.495	5.74
271.709	6.15
271.924	5.98
272.138	6.1
272.353	6.52
272.567	6.09
272.781	5.77
272.996	5.92
273.21	5.43
273.424	5.15
273.638	4.9
273.853	4.68
274.067	3.89
274.281	4.06
274.495	3.85
274.71	3.52
274.924	3.7
275.138	3.35
275.352	3.09
275.566	3.58
275.781	4.24
275.995	3.16
276.209	3.92
276.423	4.22
276.637	3.9
276.851	3.86
277.065	4.64
277.279	4.16
277.493	4.46
277.707	4.64
277.921	4.67
278.135	3.89
278.349	4.99
278.563	4.72
278.777	5.06
278.991	4.87
279.205	4.52
279.419	4.1
279.633	4.96
279.847	4.88
280.061	4.88
280.275	5.19
280.489	5.63
280.703	6.05
280.917	6.25
281.131	5.95
281.344	6.23
281.558	6.61
281.772	6.93
281.986	6.65
282.2	6.61
282.414	6.7
282.627	6.49
282.841	6.51
283.055	6.27
283.269	5.83
283.482	6.08
283.696	5.79
283.91	6.06
284.123	5.34
284.337	5.92
284.551	5.71
284.764	5.6
284.978	5.61
285.192	5.37
285.405	5.45
285.619	5.61
285.833	5.97
286.046	6.04
286.26	5.66
286.473	6.29
286.687	5.89
286.9	6.19
287.114	6.24
287.327	6.07
287.541	5.98
287.754	6.07
287.968	6.08
288.181	5.97
288.395	5.97
288.608	6.31
288.822	5.78
289.035	5.7
289.248	5.97
289.462	6.2
289.675	6.66
289.889	6.65
290.102	6.73
290.315	6.53
290.529	6.18
290.742	5.99
290.955	5.53
291.169	5.89
291.382	5.91
291.595	5.52
291.808	5.69
292.022	5.07
292.235	5.72
292.448	5.34
292.661	5.95
292.875	5.99
293.088	6.45
293.301	6.64
293.514	6.85
293.727	6.8
293.94	7.4
294.153	7.2
294.367	7.44
294.58	7.49
294.793	7.2
295.006	6.98
295.219	6.83
295.432	6.81
295.645	7.26
295.858	7.13
296.071	7.14
296.284	6.77
296.497	6.63
296.71	6.64
296.923	6.54
297.136	7.04
297.349	6.96
297.562	7.27
297.775	7.38
297.988	7.01
298.201	7.16
298.414	7.15
298.626	6.9
298.839	7.06
299.052	7.15
299.265	6.88
299.478	6.4
299.691	6.16
299.903	6.13
300.116	5.8
300.329	5.8
300.542	5.69
300.755	5.85
300.967	6.04
301.18	6.04
301.393	6.13
301.605	6.29
301.818	6.7
302.031	6.7
302.243	6.82
302.456	7.14
302.669	7.05
302.881	6.64
303.094	6.39
303.307	6.38
303.519	6.08
303.732	5.92
303.944	5.91
304.157	5.43
304.37	5.52
304.582	5.21
304.795	4.87
305.007	4.99
305.22	5.49
305.432	5.48
305.645	5.66
305.857	5.64
306.069	6.02
306.282	5.87
306.494	6.63
306.707	6.8
306.919	6.93
307.132	6.92
307.344	6.74
307.556	6.53
307.769	6.96
307.981	6.89
308.193	7.08
308.406	7.1
308.618	7.61
308.83	7.48
309.043	7.85
309.255	7.98
309.467	8.06
309.679	8.27
309.892	8.35
310.104	8.14
310.316	8.37
310.528	8.58
310.74	8.14
310.953	7.99
311.165	8.05
311.377	7.85
311.589	7.25
311.801	7.05
312.013	7.47
312.225	7.81
312.437	7.83
312.649	8.23
312.862	8.1
313.074	8.38
313.286	8.02
313.498	7.95
313.71	8.06
313.922	8.75
314.134	9.64
314.346	8.69
314.558	8.85
314.77	8.81
314.982	8.3
315.193	7.89
315.405	7.91
315.617	8.22
315.829	8.38
316.041	7.89
316.253	8.04
316.465	7.69
316.677	7.87
316.888	7.63
317.1	7.67
317.312	7.46
317.524	8.31
317.736	8.47
317.947	8.13
318.159	7.85
318.371	8.21
318.583	7.83
318.794	7.41
319.006	7.44
319.218	7.36
319.43	7.11
319.641	7.02
319.853	7
320.064	6.73
320.276	6.9
320.488	6.9
320.699	7.15
320.911	7.1
321.123	7.59
321.334	7.67
321.546	7.5
321.757	7.34
321.969	7.5
322.18	7.27
322.392	7.6
322.603	7.38
322.815	7.14
323.026	7.04
323.238	7.26
323.449	6.76
323.661	6.89
323.872	7.04
324.083	7.49
324.295	7.6
324.506	7.7
324.718	7.63
324.929	7.45
325.14	7.4
325.352	7.25
325.563	7.14
325.774	7.58
325.986	7.21
326.197	7.34
326.408	7.17
326.62	7.18
326.831	6.93
327.042	7.03
327.253	7.35
327.464	7.4
327.676	7.46
327.887	7.39
328.098	7
328.309	7.39
328.52	6.73
328.732	6.89
328.943	6.59
329.154	6.64
329.365	6.35
329.576	6.49
329.787	6.94
329.998	7.25
330.209	7.61
330.42	7.66
330.631	7.77
330.842	7.79
331.053	8.19
331.264	8.15
331.475	8.12
331.686	7.79
331.897	7.71
332.108	7.14
332.319	6.86
332.53	6.65
332.741	6.65
332.952	6.75
333.163	7.17
333.374	6.73
333.585	6.63
333.795	6.76
334.006	6.66
334.217	6.59
334.428	6.59
334.639	6.69
334.849	6.76
335.06	6.93
335.271	6.62
335.482	6.64
335.692	6.58
335.903	7.26
336.114	6.95
336.325	7.2
336.535	7.14
336.746	7.54
336.957	7.51
337.167	7.4
337.378	7.23
337.589	7.34
337.799	7.27
338.01	7.24
338.22	6.86
338.431	7.01
338.642	6.89
338.852	7.02
339.063	7.27
339.273	7.1
339.484	7.09
339.694	7.26
339.905	7.4
340.115	7.2
340.326	7.37
340.536	7.7
340.746	7.31
340.957	7.72
341.167	7.53
341.378	7.04
341.588	7.16
341.799	6.93
342.009	6.83
342.219	6.55
342.43	6.5
342.64	6.77
342.85	6.57
343.061	6.8
343.271	6.38
343.481	6.44
343.691	6.31
343.902	5.83
344.112	5.61
344.322	5.27
344.532	5.45
344.743	5.55
344.953	5.19
345.163	5.03
345.373	5.16
345.583	4.86
345.793	4.9
346.004	5.36
346.214	5.9
346.424	6.28
346.634	6.68
346.844	6.21
347.054	6.1
347.264	6.23
347.474	5.97
347.684	5.89
347.894	6.42
348.104	6.35
348.314	5.82
348.524	5.62
348.734	5.73
348.944	5.58
349.154	5.88
349.364	6.04
349.574	6.15
349.784	6.6
349.994	6.95
350.204	6.66
350.413	6.68
350.623	7.1
350.833	7.2
351.043	6.88
351.253	6.99
351.463	6.97
351.672	7.02
351.882	6.92
352.092	6.57
352.302	6.23
352.511	6.52
352.721	6.37
352.931	6.13
353.141	6.09
353.35	6.45
353.56	6.36
353.77	6.35
353.979	6.26
354.189	5.88
354.399	5.98
354.608	5.94
354.818	5.97
355.027	6.1
355.237	6.25
355.447	6.15
355.656	6.05
355.866	5.82
356.075	5.88
356.285	6.16
356.494	6.22
356.704	6.34
356.913	6.11
357.123	6.07
357.332	5.9
357.542	5.74
357.751	5.66
357.96	5.56
358.17	5.69
358.379	5.79
358.589	5.52
358.798	5.42
359.007	5.17
359.217	5.37
359.426	5.15
359.635	5.29
359.845	5.18
360.054	5.32
360.263	5.23
360.472	5.35
360.682	5.16
360.891	5.22
361.1	5.35
361.309	5.44
361.519	5.46
361.728	5.63
361.937	5.68
362.146	5.85
362.355	5.86
362.564	5.98
362.774	5.72
362.983	6.01
363.192	5.99
363.401	6.1
363.61	6.12
363.819	6.11
364.028	6.05
364.237	6
364.446	5.82
364.655	5.76
364.864	5.77
365.073	5.97
365.282	5.82
365.491	6.15
365.7	6.08
365.909	6.13
366.118	5.91
366.327	5.87
366.536	5.92
366.745	6.06
366.954	5.97
367.162	5.97
367.371	5.85
367.58	5.53
367.789	5.15
367.998	4.92
368.207	4.65
368.415	4.58
368.624	4.72
368.833	4.51
369.042	4.49
369.25	4.45
369.459	4.63
369.668	4.65
369.877	4.75
370.085	4.72
370.294	4.93
370.503	5.04
370.711	5.22
370.92	5.13
371.129	5.08
371.337	5.21
371.546	5.34
371.754	5.43
371.963	5.42
372.171	5.3
372.38	5.26
372.589	5.28
372.797	5.04
373.006	5.06
373.214	5.05
373.423	5.14
373.631	4.6
373.84	4.71
374.048	4.44
374.256	4.2
374.465	4.63
374.673	4.65
374.882	4.67
375.09	5.12
375.298	5.02
375.507	5.07
375.715	5.41
375.923	5.46
376.132	5.37
376.34	5.31
376.548	5.52
376.757	5.2
376.965	5.23
377.173	5.19
377.381	4.9
377.59	4.74
377.798	4.66
378.006	4.3
378.214	4.52
378.423	4.5
378.631	4.3
378.839	4.08
379.047	4.24
379.255	4.06
379.463	4.03
379.671	4.18
379.879	4.42
380.088	4.66
380.296	4.56
380.504	4.33
380.712	4.2
380.92	4.37
381.128	4.62
381.336	4.56
381.544	4.59
381.752	4.61
381.96	4.41
382.168	4.44
382.376	4.39
382.584	4.44
382.791	4.64
382.999	4.74
383.207	4.75
383.415	4.79
383.623	4.7
383.831	4.75
384.039	4.72
384.247	4.57
384.454	4.54
384.662	4.45
384.87	4.41
385.078	4.51
385.285	4.15
385.493	4.09
385.701	3.98
385.909	4.06
386.116	4.03
386.324	4.19
386.532	4.32
386.739	4.34
386.947	4.1
387.155	4.29
387.362	3.96
387.57	4.37
387.778	4.35
387.985	4.48
388.193	4.5
388.4	4.65
388.608	4.46
388.816	4.46
389.023	4.41
389.231	4.57
389.438	4.38
389.646	4.64
389.853	4.6
390.061	4.62
390.268	4.4
390.475	4.41
390.683	4.49
390.89	4.35
391.098	4.44
391.305	4.63
391.512	4.51
391.72	4.6
391.927	4.54
392.135	4.46
392.342	4.57
392.549	4.78
392.756	4.68
392.964	4.53
393.171	4.71
393.378	4.61
393.586	4.4
393.793	4.59
394	4.71
394.207	4.88
394.414	4.83
394.622	4.7
394.829	4.8
395.036	4.72
395.243	4.57
395.45	4.38
395.657	4.35
395.864	4.35
396.072	4.23
396.279	3.94
396.486	3.82
396.693	3.79
396.9	3.83
397.107	3.69
397.314	3.91
397.521	4.1
397.728	4.21
397.935	4.46
398.142	4.3
398.349	4.29
398.556	4.59
398.763	4.47
398.97	4.6
399.177	4.43
399.383	4.35
399.59	4.28
399.797	4.23
400.004	4.16
400.211	4
400.418	4.33
400.625	4.49
400.831	4.34
401.038	4.4
401.245	4.25
401.452	4.4
401.658	4.53
401.865	4.46
402.072	4.42
402.279	4.39
402.485	4.43
402.692	4.19
402.899	4.01
403.105	4.03
403.312	3.99
403.519	4.19
403.725	4.31
403.932	4.27
404.138	4.31
404.345	4.23
404.552	4.41
404.758	4.33
404.965	4.4
405.171	4.4
405.378	4.34
405.584	4.49
405.791	4.32
405.997	4.21
406.204	4.12
406.41	4.05
406.617	4.05
406.823	3.91
407.029	3.9
407.236	3.94
407.442	3.87
407.649	3.81
407.855	3.7
408.061	3.78
408.268	3.82
408.474	3.83
408.68	3.88
408.887	3.92
409.093	3.89
409.299	3.81
409.505	3.75
409.712	3.88
409.918	3.89
410.124	3.91
410.33	3.78
410.537	3.66
410.743	3.67
410.949	3.5
411.155	3.34
411.361	3.28
411.567	3.54
411.773	3.53
411.98	3.59
412.186	3.62
412.392	3.41
412.598	3.56
412.804	3.59
413.01	3.71
413.216	3.89
413.422	3.99
413.628	4.03
413.834	3.98
414.04	3.92
414.246	3.9
414.452	3.73
414.658	3.83
414.864	3.74
415.07	3.71
415.275	3.57
415.481	3.57
415.687	3.55
415.893	3.57
416.099	3.48
416.305	3.48
416.511	3.44
416.716	3.64
416.922	3.72
417.128	3.72
417.334	3.78
417.539	3.8
417.745	3.85
417.951	3.9
418.157	3.93
418.362	3.97
418.568	4.07
418.774	4.12
418.979	4.1
419.185	4.09
419.391	4.14
419.596	4.16
419.802	4.15
420.008	4.18
420.213	3.54
420.419	3.51
420.624	3.49
420.83	3.4
421.035	3.33
421.241	3.3
421.446	3.35
421.652	3.29
421.857	3.34
422.063	3.36
422.268	3.26
422.474	3.98
422.679	3.99
422.885	4.02
423.09	4.11
423.295	4.2
423.501	4.18
423.706	4.09
423.911	4.15
424.117	4.07
424.322	4.08
424.527	4.11
424.733	4.02
424.938	4.02
425.143	3.9
425.349	3.87
425.554	3.8
425.759	3.75
425.964	3.8
426.169	3.79
426.375	3.75
426.58	3.77
426.785	3.76
426.99	3.83
427.195	3.86
427.4	3.97
427.605	3.94
427.811	3.93
428.016	4.06
428.221	4.04
428.426	4.01
428.631	4.18
428.836	4.1
429.041	3.96
429.246	3.93
429.451	3.82
429.656	3.7
429.861	3.59
430.066	3.6
430.271	3.67
430.476	3.61
430.681	3.61
430.886	3.44
431.09	3.48
431.295	3.58
431.5	3.54
431.705	3.64
431.91	3.63
432.115	3.63
432.32	3.65
432.524	3.47
432.729	3.51
432.934	3.36
433.139	3.41
433.343	3.34
433.548	3.35
433.753	3.3
433.958	3.29
434.162	3.39
434.367	3.49
434.572	3.41
434.776	3.41
434.981	3.39
435.186	3.5
435.39	3.54
435.595	3.51
435.799	3.46
436.004	3.53
436.209	3.44
436.413	3.38
436.618	3.37
436.822	3.38
437.027	3.32
437.231	3.28
437.436	3.37
437.64	3.29
437.845	3.31
438.049	3.33
438.253	3.36
438.458	3.43
438.662	3.47
438.867	3.51
439.071	3.46
439.275	3.54
439.48	3.53
439.684	3.47
439.888	3.44
440.093	3.47
440.297	3.48
440.501	3.45
440.706	3.43
440.91	3.44
441.114	3.38
441.318	3.35
441.523	3.4
441.727	3.43
441.931	3.42
442.135	3.48
442.339	3.52
442.543	3.53
442.748	3.46
442.952	3.53
443.156	3.58
443.36	3.55
443.564	3.67
443.768	3.62
443.972	3.59
444.176	3.5
444.38	3.54
444.584	3.55
444.788	3.55
444.992	3.53
445.196	3.51
445.4	3.45
445.604	3.47
445.808	3.47
446.012	3.52
446.216	3.51
446.42	3.58
446.624	3.56
446.828	3.52
447.032	3.49
447.235	3.53
447.439	3.44
447.643	3.42
447.847	3.44
448.051	3.35
448.254	3.3
448.458	3.41
448.662	3.41
448.866	3.37
449.069	3.42
449.273	3.43
449.477	3.47
449.681	3.55
449.884	3.65
450.088	3.67
450.292	3.58
450.495	3.55
450.699	3.39
450.902	3.41
451.106	3.41
451.31	3.45
451.513	3.42
451.717	3.44
451.92	3.43
452.124	3.42
452.327	3.34
452.531	3.48
452.734	3.43
452.938	3.59
453.141	3.54
453.345	3.61
453.548	3.66
453.752	3.71
453.955	3.62
454.158	3.5
454.362	3.35
454.565	3.37
454.769	3.48
454.972	3.47
455.175	3.41
455.379	3.52
455.582	3.49
455.785	3.35
455.988	3.24
456.192	3.22
456.395	3.32
456.598	3.42
456.801	3.44
457.005	3.26
457.208	3.34
457.411	3.34
457.614	3.36
457.817	3.38
458.021	3.37
458.224	3.42
458.427	3.46
458.63	3.41
458.833	3.37
459.036	3.35
459.239	3.41
459.442	3.41
459.645	3.38
459.848	3.3
460.051	3.3
460.254	3.21
460.457	3.26
460.66	3.27
460.863	3.22
461.066	3.26
461.269	3.26
461.472	3.33
461.675	3.34
461.878	3.32
462.081	3.38
462.284	3.32
462.486	3.41
462.689	3.37
462.892	3.32
463.095	3.33
463.298	3.29
463.5	3.38
463.703	3.23
463.906	3.22
464.109	3.18
464.311	3.24
464.514	3.27
464.717	3.35
464.92	3.35
465.122	3.33
465.325	3.42
465.528	3.53
465.73	3.41
465.933	3.39
466.135	3.34
466.338	3.33
466.541	3.25
466.743	3.21
466.946	3.22
467.148	3.17
467.351	3.2
467.553	3.07
467.756	2.99
467.958	3.06
468.161	3.14
468.363	3.18
468.566	3.2
468.768	3.09
468.971	3.22
469.173	3.15
469.375	3.18
469.578	3.11
469.78	3.28
469.983	3.16
470.185	3.07
470.387	3.01
470.59	3.01
470.792	3
470.994	2.99
471.196	2.79
471.399	2.86
471.601	2.85
471.803	2.91
472.005	2.84
472.208	2.86
472.41	2.99
472.612	3
472.814	2.97
473.016	3.1
473.218	3.23
473.421	3.3
473.623	3.31
473.825	3.37
474.027	3.34
474.229	3.46
474.431	3.67
474.633	3.62
474.835	3.64
475.037	3.78
475.239	3.67
475.441	3.71
475.643	3.66
475.845	3.62
476.047	3.54
476.249	3.6
476.451	3.5
476.653	3.41
476.855	3.4
477.057	3.43
477.258	3.34
477.46	3.39
477.662	3.39
477.864	3.39
478.066	3.36
478.268	3.34
478.469	3.31
478.671	3.35
478.873	3.29
479.075	3.32
479.276	3.28
479.478	3.32
479.68	3.28
479.882	3.24
480.083	3.27
480.285	3.31
480.487	3.32
480.688	3.31
480.89	3.34
481.091	3.33
481.293	3.36
481.495	3.37
481.696	3.4
481.898	3.4
482.099	3.41
482.301	3.4
482.502	3.4
482.704	3.43
482.905	3.44
483.107	3.43
483.308	3.47
483.51	3.46
483.711	3.49
483.913	3.48
484.114	3.53
484.315	3.55
484.517	3.57
484.718	3.53
484.92	3.53
485.121	3.54
485.322	3.58
485.524	3.57
485.725	3.57
485.926	3.57
486.127	3.58
486.329	3.56
486.53	3.55
486.731	3.55
486.932	3.6
487.134	3.6
487.335	3.64
487.536	3.64
487.737	3.61
487.938	3.59
488.139	3.59
488.341	3.57
488.542	3.58
488.743	3.54
488.944	3.54
489.145	3.54
489.346	3.53
489.547	3.48
489.748	3.44
489.949	3.47
490.15	3.51
490.351	3.55
490.552	3.55
490.753	3.52
490.954	3.57
491.155	3.55
491.356	3.54
491.557	3.54
491.758	3.53
491.959	3.55
492.159	3.6
492.36	3.58
492.561	3.45
492.762	3.45
492.963	3.48
493.164	3.44
493.364	3.41
493.565	3.43
493.766	3.41
493.967	3.39
494.167	3.41
494.368	3.32
494.569	3.36
494.769	3.41
494.97	3.4
495.171	3.39
495.371	3.32
495.572	3.41
495.773	3.44
495.973	3.46
496.174	3.45
496.375	3.45
496.575	3.45
496.776	3.45
496.976	3.38
497.177	3.4
497.377	3.43
497.578	3.55
497.778	3.48
497.979	3.38
498.179	3.43
498.38	3.5
498.58	3.5
498.78	3.49
498.981	3.45
499.181	3.57
499.382	3.58
499.582	3.56
499.782	3.54
499.983	3.54
500.183	3.61
500.383	3.51
500.584	3.42
500.784	3.39
500.984	3.36
501.184	3.37
501.385	3.38
501.585	3.35
501.785	3.31
501.985	3.33
502.185	3.43
502.386	3.4
502.586	3.58
502.786	3.69
502.986	3.74
503.186	3.84
503.386	3.84
503.586	3.84
503.786	3.89
503.987	3.89
504.187	3.81
504.387	3.77
504.587	3.77
504.787	3.62
504.987	3.59
505.187	3.55
505.387	3.45
505.587	3.49
505.786	3.48
505.986	3.41
506.186	3.45
506.386	3.51
506.586	3.56
506.786	3.61
506.986	3.66
507.186	3.66
507.386	3.62
507.585	3.61
507.785	3.68
507.985	3.67
508.185	3.74
508.384	3.78
508.584	3.81
508.784	3.8
508.984	3.78
509.183	3.74
509.383	3.75
509.583	3.78
509.782	3.87
509.982	3.77
510.182	3.74
510.381	3.66
510.581	3.62
510.781	3.54
510.98	3.58
511.18	3.6
511.379	3.64
511.579	3.61
511.778	3.68
511.978	3.68
512.177	3.69
512.377	3.73
512.576	3.8
512.776	3.83
512.975	3.92
513.175	3.84
513.374	3.79
513.573	3.83
513.773	3.86
513.972	3.84
514.172	3.87
514.371	3.84
514.57	3.86
514.77	3.77
514.969	3.79
515.168	3.76
515.367	3.83
515.567	3.88
515.766	3.81
515.965	3.8
516.164	3.84
516.364	3.86
516.563	3.93
516.762	3.9
516.961	3.95
517.16	3.93
517.359	3.9
517.559	3.9
517.758	3.95
517.957	3.95
518.156	4.04
518.355	4.03
518.554	3.98
518.753	3.89
518.952	3.9
519.151	3.95
519.35	3.99
519.549	4.04
519.748	4.02
519.947	4.08
520.146	4.09
520.345	4.07
520.544	4.07
520.743	4.11
520.942	4.18
521.141	4.16
521.339	4.12
521.538	4.06
521.737	4.07
521.936	4.17
522.135	4.03
522.333	4.04
522.532	4.01
522.731	4
522.93	4.11
523.129	4.15
523.327	4.26
523.526	4.29
523.725	4.37
523.923	4.35
524.122	4.33
524.321	4.37
524.519	4.43
524.718	4.4
524.917	4.37
525.115	4.28
525.314	4.28
525.512	4.21
525.711	4.19
525.909	4.21
526.108	4.22
526.306	4.22
526.505	4.22
526.703	4.21
526.902	4.23
527.1	4.27
527.299	4.27
527.497	4.3
527.696	4.37
527.894	4.4
528.092	4.36
528.291	4.37
528.489	4.37
528.688	4.4
528.886	4.37
529.084	4.37
529.283	4.36
529.481	4.38
529.679	4.36
529.877	4.36
530.076	4.34
530.274	4.38
530.472	4.36
530.67	4.4
530.869	4.4
531.067	4.47
531.265	4.48
531.463	4.57
531.661	4.62
531.859	4.65
532.057	4.58
532.255	4.6
532.454	4.66
532.652	4.7
532.85	4.69
533.048	4.7
533.246	4.72
533.444	4.74
533.642	4.79
533.84	4.72
534.038	4.72
534.236	4.81
534.434	4.83
534.632	4.8
534.83	4.88
535.027	4.93
535.225	4.98
535.423	5.03
535.621	5.05
535.819	4.98
536.017	5.1
536.215	5.07
536.412	5.07
536.61	5.1
536.808	5.11
537.006	5.08
537.203	5.08
537.401	4.96
537.599	4.95
537.797	5.01
537.994	4.98
538.192	4.96
538.39	5.05
538.587	5.11
538.785	5.13
538.983	5.12
539.18	5.19
539.378	5.25
539.575	5.36
539.773	5.41
539.97	5.39
540.168	5.47
540.366	5.49
540.563	5.51
540.761	5.5
540.958	5.5
541.155	5.53
541.353	5.49
541.55	5.49
541.748	5.49
541.945	5.45
542.143	5.5
542.34	5.43
542.537	5.46
542.735	5.44
542.932	5.46
543.129	5.46
543.327	5.5
543.524	5.55
543.721	5.52
543.919	5.54
544.116	5.59
544.313	5.58
544.51	5.67
544.708	5.7
544.905	5.76
545.102	5.83
545.299	5.87
545.496	5.92
545.693	5.93
545.891	6.01
546.088	6.05
546.285	6.05
546.482	6.06
546.679	6.15
546.876	6.11
547.073	6.1
547.27	6.03
547.467	6.04
547.664	6.03
547.861	6.06
548.058	6.16
548.255	6.23
548.452	6.36
548.649	6.5
548.846	6.44
549.043	6.48
549.24	6.48
549.437	6.54
549.633	6.61
549.83	6.62
550.027	6.63
550.224	6.62
550.421	6.58
550.618	6.56
550.814	6.59
551.011	6.62
551.208	6.7
551.405	6.9
551.601	6.93
551.798	7.01
551.995	7.12
552.191	7.2
552.388	7.18
552.585	7.27
552.781	7.24
552.978	7.33
553.175	7.42
553.371	7.46
553.568	7.33
553.764	7.35
553.961	7.31
554.157	7.26
554.354	7.32
554.55	7.46
554.747	7.49
554.943	7.6
555.14	7.48
555.336	7.37
555.533	7.52
555.729	7.58
555.926	7.7
556.122	7.69
556.318	7.8
556.515	7.8
556.711	7.78
556.907	7.72
557.104	7.83
557.3	7.94
557.496	8.01
557.693	7.95
557.889	7.97
558.085	8
558.281	8.26
558.478	8.23
558.674	8.21
558.87	8.3
559.066	8.36
559.262	8.35
559.459	8.38
559.655	8.48
559.851	8.54
560.047	8.59
560.243	8.71
560.439	8.67
560.635	8.73
560.831	8.98
561.027	8.97
561.223	9.04
561.419	9.05
561.615	9.12
561.811	9.25
562.007	9.36
562.203	9.52
562.399	9.52
562.595	9.59
562.791	9.72
562.987	9.64
563.183	9.73
563.379	9.85
563.575	9.92
563.771	9.95
563.966	9.86
564.162	9.89
564.358	9.86
564.554	9.87
564.75	9.93
564.945	9.99
565.141	9.98
565.337	10.03
565.533	10.01
565.728	10.08
565.924	10.16
566.12	10.27
566.315	10.25
566.511	10.43
566.707	10.43
566.902	10.41
567.098	10.41
567.293	10.54
567.489	10.5
567.684	10.62
567.88	10.65
568.076	10.72
568.271	10.76
568.467	10.77
568.662	10.74
568.858	10.96
569.053	11.07
569.248	11.17
569.444	11.28
569.639	11.36
569.835	11.39
570.03	11.47
570.225	11.48
570.421	11.56
570.616	11.72
570.812	11.81
571.007	11.85
571.202	11.8
571.397	11.79
571.593	11.88
571.788	12.01
571.983	12.01
572.178	12.12
572.374	12.22
572.569	12.31
572.764	12.27
572.959	12.29
573.154	12.24
573.35	12.35
573.545	12.43
573.74	12.33
573.935	12.41
574.13	12.48
574.325	12.52
574.52	12.52
574.715	12.56
574.91	12.63
575.105	12.63
575.3	12.67
575.495	12.77
575.69	12.87
575.885	12.87
576.08	12.71
576.275	12.77
576.47	12.69
576.665	12.73
576.86	12.69
577.055	12.77
577.25	12.78
577.444	12.84
577.639	12.77
577.834	12.77
578.029	12.87
578.224	12.96
578.418	13
578.613	13.04
578.808	13.09
579.003	13.18
579.197	13.32
579.392	13.45
579.587	13.52
579.781	13.61
579.976	13.57
580.171	13.67
580.365	13.75
580.56	13.75
580.755	13.85
580.949	13.82
581.144	13.75
581.338	13.76
581.533	13.69
581.727	13.69
581.922	13.85
582.116	13.83
582.311	13.82
582.505	13.92
582.7	14.02
582.894	13.96
583.089	13.99
583.283	13.98
583.478	13.96
583.672	14.12
583.866	14.14
584.061	14.23
584.255	14.39
584.449	14.57
584.644	14.47
584.838	14.4
585.032	14.43
585.226	14.39
585.421	14.59
585.615	14.45
585.809	14.42
586.003	14.46
586.198	14.24
586.392	14.23
586.586	14.14
586.78	14.31
586.974	14.56
587.168	14.64
587.363	14.83
587.557	14.76
587.751	14.93
587.945	14.98
588.139	15.02
588.333	15.24
588.527	15.28
588.721	15.32
588.915	15.35
589.109	15.22
589.303	15.37
589.497	15.5
589.691	15.56
589.885	15.63
590.079	15.65
590.273	15.71
590.466	15.64
590.66	15.67
590.854	15.7
591.048	15.68
591.242	15.76
591.436	15.75
591.629	15.74
591.823	15.8
592.017	15.76
592.211	15.9
592.404	15.85
592.598	15.96
592.792	16.05
592.986	16.04
593.179	16.09
593.373	16.1
593.567	16.18
593.76	16.06
593.954	16
594.147	16.02
594.341	15.91
594.535	16.09
594.728	16.02
594.922	15.98
595.115	16.04
595.309	16.07
595.502	16.09
595.696	16.1
595.889	16.21
596.083	16.42
596.276	16.45
596.47	16.56
596.663	16.41
596.856	16.42
597.05	16.38
597.243	16.42
597.437	16.4
597.63	16.43
597.823	16.31
598.017	16.22
598.21	16.11
598.403	16.27
598.596	16.21
598.79	16.27
598.983	16.09
599.176	16.22
599.369	16.22
599.563	16.31
599.756	16.35
599.949	16.41
600.142	16.49
600.335	16.41
600.528	16.24
600.722	16.38
600.915	16.56
601.108	16.86
601.301	16.88
601.494	16.91
601.687	16.93
601.88	16.95
602.073	17.01
602.266	16.88
602.459	17.06
602.652	17.23
602.845	17.16
603.038	17.13
603.231	17.15
603.424	17.23
603.617	17.16
603.809	17.06
604.002	17.06
604.195	17.07
604.388	17.23
604.581	17.19
604.774	17.11
604.966	17.07
605.159	17.12
605.352	17.06
605.545	17.01
605.737	17.04
605.93	17.17
606.123	17.21
606.316	17.17
606.508	17.22
606.701	17.27
606.894	17.36
607.086	17.41
607.279	17.43
607.471	17.54
607.664	17.44
607.857	17.45
608.049	17.5
608.242	17.55
608.434	17.72
608.627	17.72
608.819	17.65
609.012	17.67
609.204	17.91
609.397	18.01
609.589	18.17
609.782	18.25
609.974	18.39
610.166	18.47
610.359	18.47
610.551	18.41
610.743	18.44
610.936	18.53
611.128	18.46
611.32	18.32
611.513	18.14
611.705	17.91
611.897	18.09
612.09	18.09
612.282	17.97
612.474	18.25
612.666	18.45
612.858	18.39
613.051	18.36
613.243	18.41
613.435	18.46
613.627	18.61
613.819	18.61
614.011	18.55
614.203	18.48
614.395	18.61
614.588	18.2
614.78	18.12
614.972	18.17
615.164	18.3
615.356	18.3
615.548	18.12
615.74	18.03
615.932	18.05
616.124	18.06
616.315	18.27
616.507	18.22
616.699	18.25
616.891	18.04
617.083	18.1
617.275	17.92
617.467	18.05
617.659	18.16
617.85	18.21
618.042	18.39
618.234	18.34
618.426	18.22
618.618	18.24
618.809	18.34
619.001	18.45
619.193	18.39
619.384	18.73
619.576	18.73
619.768	18.66
619.959	18.54
620.151	18.41
620.343	18.31
620.534	18.38
620.726	18.38
620.917	18.49
621.109	18.75
621.301	18.72
621.492	18.41
621.684	18.32
621.875	18.3
622.067	18.32
622.258	18.35
622.45	18.43
622.641	18.43
622.832	18.55
623.024	18.63
623.215	18.32
623.407	18.34
623.598	18.42
623.789	18.33
623.981	18.56
624.172	18.7
624.363	18.6
624.555	18.8
624.746	18.84
624.937	18.74
625.129	18.67
625.32	18.84
625.511	18.79
625.702	18.88
625.893	19.01
626.085	18.95
626.276	18.85
626.467	18.94
626.658	18.89
626.849	18.95
627.04	18.95
627.231	18.97
627.422	18.95
627.614	19.18
627.805	19.17
627.996	19.2
628.187	19.33
628.378	19.42
628.569	19.46
628.76	19.34
628.951	19.21
629.142	19.3
629.332	19.26
629.523	19.24
629.714	19.13
629.905	19.26
630.096	19.25
630.287	19.11
630.478	19.1
630.669	19.1
630.859	19.18
631.05	19.15
631.241	19.12
631.432	19.08
631.623	19.18
631.813	19.37
632.004	19.16
632.195	19
632.385	19.18
632.576	19.16
632.767	19.33
632.957	19.47
633.148	19.55
633.339	19.5
633.529	19.64
633.72	19.69
633.91	19.48
634.101	19.54
634.292	19.68
634.482	19.65
634.673	19.88
634.863	19.63
635.054	19.48
635.244	19.48
635.435	19.64
635.625	19.52
635.815	19.37
636.006	19.54
636.196	19.66
636.387	19.71
636.577	19.78
636.767	19.7
636.958	19.86
637.148	19.85
637.338	20.01
637.529	19.96
637.719	20.15
637.909	20.26
638.099	20.12
638.29	20.1
638.48	19.92
638.67	19.69
638.86	19.77
639.05	19.84
639.241	19.94
639.431	19.94
639.621	20.04
639.811	20.08
640.001	20.05
640.191	19.98
640.381	19.86
640.571	20.07
640.761	20.06
640.951	20.01
641.141	19.93
641.331	19.65
641.521	19.62
641.711	19.64
641.901	19.59
642.091	19.65
642.281	19.77
642.471	19.83
642.661	19.87
642.851	20.04
643.041	19.91
643.231	19.74
643.42	19.95
643.61	20.07
643.8	19.96
643.99	19.88
644.18	19.74
644.369	19.84
644.559	19.93
644.749	19.9
644.939	19.73
645.128	19.88
645.318	20.07
645.508	20.3
645.697	20.35
645.887	20.29
646.076	20.33
646.266	20.17
646.456	20.03
646.645	20.06
646.835	20.33
647.024	20.52
647.214	20.2
647.403	20.17
647.593	20
647.782	19.68
647.972	19.72
648.161	19.67
648.351	19.94
648.54	20.12
648.73	20.13
648.919	19.72
649.108	19.61
649.298	20
649.487	20.04
649.677	20.04
649.866	20.1
650.055	20.26
650.244	20.48
650.434	20.43
650.623	20.33
650.812	20.4
651.002	20.63
651.191	20.77
651.38	20.75
651.569	20.71
651.758	20.79
651.947	21.01
652.137	20.86
652.326	20.72
652.515	20.56
652.704	20.6
652.893	20.7
653.082	20.7
653.271	20.63
653.46	20.64
653.649	20.66
653.838	20.69
654.027	20.47
654.216	20.52
654.405	20.69
654.594	20.8
654.783	20.71
654.972	20.57
655.161	20.51
655.35	20.39
655.539	20.29
655.728	20.24
655.916	20.27
656.105	20.39
656.294	20.44
656.483	20.31
656.672	20.37
656.86	20.42
657.049	20.58
657.238	20.56
657.427	20.65
657.615	20.87
657.804	21.11
657.993	21.17
658.181	21.19
658.37	21.24
658.559	21.44
658.747	21.62
658.936	21.77
659.125	21.51
659.313	21.56
659.502	21.61
659.69	21.52
659.879	21.51
660.067	21.47
660.256	21.45
660.444	21.59
660.633	21.45
660.821	21.32
661.01	21.35
661.198	21.58
661.387	21.7
661.575	21.94
661.763	22.05
661.952	21.89
662.14	21.98
662.328	22.04
662.517	21.85
662.705	21.8
662.893	22.08
663.082	21.98
663.27	22.04
663.458	21.73
663.646	21.57
663.834	21.41
664.023	21.41
664.211	21.59
664.399	21.35
664.587	21.3
664.775	21.27
664.963	21.1
665.152	21.34
665.34	21.28
665.528	21.54
665.716	21.53
665.904	21.59
666.092	21.79
666.28	21.44
666.468	21.66
666.656	21.82
666.844	22.01
667.032	22.03
667.22	21.61
667.408	21.67
667.596	21.74
667.784	21.87
667.971	21.93
668.159	21.97
668.347	21.92
668.535	22.1
668.723	21.83
668.911	21.75
669.098	21.77
669.286	21.87
669.474	21.83
669.662	21.71
669.849	21.36
670.037	21.17
670.225	20.89
670.413	21.01
670.6	20.86
670.788	21.25
670.976	21.37
671.163	21.38
671.351	21.39
671.538	21.6
671.726	21.7
671.913	21.86
672.101	21.98
672.289	22.25
672.476	22.17
672.664	22.09
672.851	22
673.039	22.14
673.226	22.04
673.413	22.04
673.601	21.78
673.788	21.91
673.976	21.88
674.163	21.68
674.35	21.74
674.538	21.87
674.725	21.92
674.912	22
675.1	21.65
675.287	21.9
675.474	21.91
675.662	21.96
675.849	21.95
676.036	21.94
676.223	22.3
676.411	21.96
676.598	21.96
676.785	22.1
676.972	22.18
677.159	22.21
677.346	22.08
677.533	22.06
677.721	22
677.908	21.9
678.095	22
678.282	22.1
678.469	22.32
678.656	22.31
678.843	22.24
679.03	22.23
679.217	22.46
679.404	22.5
679.591	22.87
679.778	23.01
679.964	22.97
680.151	23.07
680.338	22.81
680.525	22.94
680.712	23.14
680.899	23.11
681.086	22.91
681.272	22.7
681.459	22.64
681.646	22.44
681.833	22.4
682.02	22.37
682.206	22.36
682.393	22.4
682.58	22.24
682.766	22.01
682.953	22.16
683.14	22.2
683.326	22.44
683.513	22.32
683.7	22.43
683.886	22.61
684.073	22.44
684.259	22.27
684.446	22.43
684.632	22.5
684.819	22.41
685.005	22.22
685.192	22.25
685.378	22.39
685.565	22.41
685.751	22.22
685.938	21.88
686.124	21.99
686.31	22.15
686.497	22.12
686.683	22.01
686.87	22.17
687.056	22.16
687.242	22.13
687.429	22.1
687.615	22.22
687.801	22.12
687.987	22.43
688.174	22.75
688.36	22.84
688.546	22.83
688.732	22.81
688.918	22.78
689.105	22.92
689.291	23.02
689.477	22.83
689.663	22.86
689.849	23.21
690.035	23.06
690.221	23.13
690.407	23.1
690.593	23.29
690.779	23.6
690.965	23.49
691.151	23.53
691.337	23.51
691.523	23.53
691.709	23.37
691.895	23.18
692.081	23.12
692.267	23.08
692.453	23.23
692.639	22.95
692.825	22.75
693.011	23.07
693.196	23.3
693.382	23.26
693.568	23.1
693.754	23.12
693.94	22.99
694.125	23.32
694.311	23.15
694.497	22.76
694.682	23.12
694.868	22.89
695.054	23.32
695.239	23.04
695.425	22.93
695.611	23.22
695.796	23.34
695.982	23.47
696.168	23.26
696.353	23.4
696.539	23.7
696.724	23.45
696.91	23.9
697.095	23.62
697.281	23.59
697.466	23.94
697.652	23.81
697.837	23.92
698.023	23.96
698.208	24.11
698.393	24
698.579	23.86
698.764	23.98
698.949	23.63
699.135	23.45
699.32	23.39
699.505	23.03
699.691	22.85
699.876	22.77
700.061	22.7
700.246	22.58
700.432	22.62
700.617	22.44
700.802	22.14
700.987	22.39
701.172	22.58
701.358	22.79
701.543	22.89
701.728	22.86
701.913	22.75
702.098	22.82
702.283	22.55
702.468	22.51
702.653	22.48
702.838	22.5
703.023	22.59
703.208	22.41
703.393	22.29
703.578	22.63
703.763	22.75
703.948	22.7
704.133	22.53
704.318	22.82
704.503	23.08
704.688	23.74
704.873	24.11
705.057	24
705.242	24.07
705.427	24.28
705.612	24.05
705.797	24.27
705.981	24.36
706.166	24.73
706.351	24.7
706.536	24.34
706.72	24.08
706.905	24.03
707.09	24.35
707.274	24.54
707.459	24.43
707.644	24.38
707.828	24.11
708.013	24.12
708.197	23.8
708.382	23.74
708.567	23.93
708.751	23.85
708.936	23.71
709.12	23.19
709.305	22.94
709.489	23.08
709.673	22.91
709.858	22.89
710.042	22.83
710.227	22.99
710.411	23.15
710.596	23.03
710.78	22.72
710.964	22.93
711.149	23.12
711.333	23.29
711.517	23.07
711.702	23.2
711.886	23.46
712.07	23.51
712.254	23.5
712.438	23.41
712.623	23.74
712.807	24.04
712.991	23.88
713.175	23.58
713.359	23.53
713.544	23.54
713.728	23.67
713.912	23.57
714.096	23.64
714.28	23.53
714.464	23.3
714.648	23.13
714.832	23.06
715.016	22.96
715.2	23.37
715.384	23.08
715.568	23.42
715.752	23.23
715.936	23.13
716.12	22.5
716.304	22.51
716.488	22.53
716.671	22.47
716.855	22.45
717.039	22.31
717.223	22.34
717.407	22.48
717.59	22.15
717.774	21.96
717.958	22.51
718.142	23.04
718.325	22.9
718.509	22.93
718.693	22.84
718.877	22.95
719.06	23.16
719.244	22.9
719.428	22.92
719.611	23.17
719.795	23.68
719.978	23.14
720.162	23.38
720.345	23.99
720.529	24.18
720.713	24.12
720.896	24.35
721.08	24.75
721.263	24.74
721.446	24.82
721.63	24.39
721.813	24.05
721.997	24.06
722.18	23.44
722.364	22.94
722.547	23.05
722.73	22.97
722.914	22.69
723.097	22.53
723.28	22.84
723.464	22.85
723.647	23.45
723.83	24.16
724.013	24.17
724.197	24.84
724.38	25.08
724.563	25.19
724.746	25.15
724.929	25.21
725.112	25.61
725.296	25.2
725.479	24.65
725.662	23.85
725.845	23.43
726.028	23.75
726.211	23.73
726.394	23.29
726.577	23.3
726.76	23.32
726.943	23.42
727.126	22.82
727.309	23.13
727.492	23.9
727.675	24.07
727.858	24.2
728.041	24.05
728.224	23.85
728.407	24.32
728.589	24.45
728.772	24.53
728.955	24.43
729.138	24.95
729.321	24.64
729.503	24.07
729.686	24.66
729.869	24.36
730.052	24.49
730.234	24.56
730.417	24.59
730.6	24.24
730.782	24.1
730.965	23.85
731.148	23.81
731.33	23.89
731.513	24.07
731.695	23.52
731.878	23.83
732.061	23.86
732.243	23.92
732.426	23.8
732.608	23.57
732.791	23.58
732.973	23.75
733.156	23.21
733.338	23.46
733.52	23.58
733.703	23.46
733.885	23.06
734.068	22.91
734.25	22.86
734.432	22.71
734.615	23.21
734.797	23.2
734.979	23.36
735.162	23.34
735.344	23.33
735.526	23.31
735.708	23.68
735.891	23.61
736.073	23.31
736.255	22.98
736.437	23.13
736.619	23.14
736.802	23.18
736.984	22.83
737.166	22.71
737.348	22.63
737.53	22.52
737.712	22.41
737.894	23.15
738.076	23.32
738.258	23.56
738.44	23.31
738.622	23.07
738.804	23.26
738.986	23.44
739.168	24.03
739.35	23.52
739.532	23.9
739.714	24.18
739.896	23.85
740.078	24.13
740.259	24.44
740.441	25.04
740.623	25.23
740.805	25.4
740.987	25.6
741.168	25.16
741.35	25.91
741.532	25.95
741.714	25.88
741.895	26.11
742.077	25.68
742.259	25.28
742.44	24.63
742.622	24.55
742.804	24.45
742.985	24.59
743.167	24.46
743.348	23.83
743.53	23.39
743.711	23.45
743.893	22.86
744.075	23.14
744.256	23.92
744.438	23.74
744.619	23.36
744.8	23.64
744.982	23.34
745.163	23.66
745.345	23.9
745.526	23.48
745.707	22.76
745.889	22.54
746.07	22.39
746.252	21.99
746.433	22.51
746.614	22.47
746.795	22.55
746.977	23.18
747.158	22.99
747.339	22.53
747.52	23.03
747.702	23.22
747.883	23.32
748.064	23.72
748.245	23.17
748.426	22.9
748.607	23.23
748.788	22.67
748.97	22.4
749.151	22.89
749.332	23.14
749.513	23.39
749.694	23.51
749.875	23.87
750.056	23.27
750.237	23.49
750.418	23.25
750.599	23.07
750.78	23.44
750.96	23.09
751.141	22.94
751.322	23.31
751.503	22.84
751.684	23.36
751.865	23.43
752.046	23.31
752.226	23.68
752.407	23.62
752.588	23.61
752.769	23.09
752.949	23.2
753.13	22.62
753.311	22.58
753.492	22.72
753.672	22.91
753.853	22.65
754.034	23
754.214	23.43
754.395	23.74
754.575	23.84
754.756	24
754.937	24.13
755.117	24.3
755.298	24.37
755.478	24.23
755.659	23.87
755.839	23.58
756.02	23.77
756.2	23.46
756.381	23.19
756.561	23.47
756.741	23.84
756.922	24.57
757.102	24.72
757.283	24.78
757.463	24.88
757.643	24.47
757.823	24.89
758.004	24.74
758.184	24.14
758.364	24.49
758.545	24.23
758.725	24.14
758.905	23.33
759.085	23.22
759.265	23.15
759.446	22.86
759.626	23.27
759.806	22.92
759.986	22.81
760.166	22.88
760.346	22.58
760.526	22.77
760.706	22.32
760.886	22.4
761.066	22.7
761.246	22.69
761.426	23.03
761.606	22.66
761.786	23.28
761.966	23.2
762.146	23.64
762.326	23.83
762.506	23.82
762.686	24.37
762.866	24.62
763.046	24.84
763.225	24.52
763.405	24.63
763.585	24.97
763.765	24.38
763.945	24.67
764.124	24.34
764.304	24.48
764.484	24.29
764.664	24.36
764.843	24.18
765.023	23.99
765.203	24.37
765.382	24.42
765.562	24.38
765.741	24.86
765.921	24.92
766.101	25.01
766.28	25.26
766.46	25.71
766.639	25.06
766.819	24.88
766.998	24.45
767.178	24.19
767.357	24.29
767.537	23.92
767.716	23.99
767.896	23.69
768.075	23.89
768.254	23.66
768.434	23.35
768.613	23.25
768.792	22.84
768.972	23.21
769.151	23.56
769.33	23.43
769.51	23.71
769.689	24.11
769.868	24.45
770.047	24.03
770.226	24.34
770.406	24.67
770.585	26.16
770.764	27.06
770.943	26.18
771.122	25.31
771.301	25.28
771.48	25.69
771.66	25.67
771.839	25.89
772.018	26.39
772.197	25.62
772.376	25.47
772.555	24.32
772.734	24
772.913	24.97
773.092	25.52
773.271	25.41
773.449	24.35
773.628	23.94
773.807	23.37
773.986	23.4
774.165	23.85
774.344	23.85
774.523	23.75
774.701	23.43
774.88	23.85
775.059	24.21
775.238	24.22
775.417	25.06
775.595	24.24
775.774	24.73
775.953	24.18
776.131	23.86
776.31	24.26
776.489	24.32
776.667	24.67
776.846	23.97
777.025	23.63
777.203	23.42
777.382	23.03
777.56	23.29
777.739	23.67
777.917	23.57
778.096	23.5
778.274	23.41
778.453	23.14
778.631	23.28
778.81	23.62
778.988	24.1
779.166	23.95
779.345	24.2
779.523	23.97
779.702	22.97
779.88	23.29
780.058	23.82
780.237	23.73
780.415	23.97
780.593	24.34
780.771	24.56
780.95	24.37
781.128	23.3
781.306	22.59
781.484	23.14
781.662	23.46
781.841	23.47
782.019	23.75
782.197	23.53
782.375	23.93
782.553	22.63
782.731	22.39
782.909	22.41
783.087	24.37
783.265	24.44
783.443	25.23
783.621	25.12
783.799	25.07
783.977	23.97
784.155	23.53
784.333	23.4
784.511	23.49
784.689	23.29
784.867	22.97
785.045	22.93
785.223	24.54
785.4	24.16
785.578	24.25
785.756	24.64
785.934	24.5
786.112	24.8
786.289	23.54
786.467	24.12
786.645	23.2
786.823	23.32
787	22.49
787.178	20.98
787.356	20.55
787.533	20.26
787.711	20.13
787.889	20.56
788.066	20.88
788.244	21.76
788.421	21
788.599	21.79
788.776	21.85
788.954	22.66
789.131	23.36
789.309	23.35
789.486	23.99
789.664	23.57
789.841	22.15
790.019	22.2
790.196	22.08
790.373	22.57
790.551	23.26
790.728	23.92
790.906	22.86
791.083	22.58
791.26	23.23
791.437	23.08
791.615	23.93
791.792	26.13
791.969	24.9
792.146	24.82
792.324	24.63
792.501	24.12
792.678	23.35
792.855	23.72
793.032	23.56
793.209	22.41
793.387	23.03
793.564	21.53
793.741	20.93
793.918	22.22
794.095	22.74
794.272	23.53
794.449	22.85
794.626	23.43
794.803	23.5
794.98	23.36
795.157	23.67
795.334	22.98
795.511	23.62
795.688	24.09
795.864	23.61
796.041	22.71
796.218	22.04
796.395	23.04
796.572	21.13
796.749	21.82
796.925	22.83
797.102	23.02
797.279	22.87
797.456	23.49
797.632	22.71
797.809	22.86
797.986	24.08
798.162	24.98
798.339	24.38
798.516	25.65
798.692	24.55
798.869	23.77
799.046	24.1
799.222	23.57
799.399	22.21
799.575	22.34
799.752	22.63
799.928	23.29
800.105	21.8
800.281	22.45
800.458	22.43
800.634	23.44
800.811	24.52
800.987	25.19
801.163	24.74
801.34	26.57
801.516	26.99
801.692	26.9
801.869	25.7
802.045	25.76
802.221	24.53
802.398	24.59
802.574	24.69
802.75	23.46
802.926	21.93
803.103	22.71
803.279	21.22
803.455	19.8
803.631	19.96
803.807	19.47
803.983	20.75
804.16	21.22
804.336	20.69
804.512	21.63
804.688	22
804.864	23.03
805.04	24.27
805.216	24.33
805.392	25.16
805.568	25.17
805.744	26.13
805.92	25.18
806.096	25.69
806.272	25.21
806.448	23.93
806.623	22.92
806.799	21.39
806.975	20.64
807.151	20.35
807.327	21.14
807.503	20.55
807.678	20
807.854	21.21
808.03	21.07
808.206	21.8
808.381	21.46
808.557	22.2
808.733	22.5
808.908	22.67
809.084	24.05
809.26	22.58
809.435	21.96
809.611	22.41
809.787	22.2
809.962	22.61
810.138	22.49
810.313	23.06
810.489	22.88
810.664	22.39
810.84	21.73
811.015	20.9
811.191	21.7
811.366	22.75
811.542	21.94
811.717	21.53
811.892	21.47
812.068	22
812.243	22.49
812.419	23.11
812.594	23.66
812.769	23.63
812.944	22.73
813.12	22.67
813.295	22.92
813.47	24.55
813.645	24.37
813.821	23.27
813.996	23.2
814.171	22.75
814.346	20.74
814.521	21.24
814.697	21.37
814.872	23.19
815.047	22.32
815.222	20.8
815.397	19.53
815.572	20
815.747	20.77
815.922	20.55
816.097	21.07
816.272	22.98
816.447	23.23
816.622	22.99
816.797	21.55
816.972	22.64
817.147	23.09
817.322	22.3
817.496	21.68
817.671	21.91
817.846	21.53
818.021	21.7
818.196	22.11
818.371	21.84
818.545	22.1
818.72	23.07
818.895	23.35
819.069	23.17
819.244	24.34
819.419	25.34
819.594	24.73
819.768	25.55
819.943	25.21
820.117	25.29
820.292	25.55
820.467	26.29
820.641	26.82
820.816	26.98
820.99	27.36
821.165	26.95
821.339	26.91
821.514	27.14
821.688	26.92
821.863	26.91
822.037	27
822.212	27.05
822.386	26.75
822.56	26.41
822.735	26.17
822.909	25.79
823.084	25.92
823.258	25.73
823.432	25.69
823.606	25.77
823.781	25.71
823.955	25.7
824.129	25.54
824.303	25.37
824.478	25.32
824.652	25.41
824.826	25.46
825	25.26
825.174	25.04
825.348	24.88
825.523	24.91
825.697	24.86
825.871	24.61
826.045	25.21
826.219	25.7
826.393	25.65
826.567	25.65
826.741	25.98
826.915	26.2
827.089	26.41
827.263	26.37
827.437	26.13
827.611	26.13
827.784	25.71
827.958	25.31
828.132	24.82
828.306	25.19
828.48	24.79
828.654	25.05
828.827	24.94
829.001	24.82
829.175	24.45
829.349	25.12
829.522	25.23
829.696	25.18
829.87	25.2
830.044	25.59
830.217	25.09
830.391	25.64
830.565	24.82
830.738	24.27
830.912	23.57
831.085	24.28
831.259	24.07
831.432	24.05
831.606	24.48
831.779	23.31
831.953	23.22
832.126	23.92
832.3	23.94
832.473	24.76
832.647	25.23
832.82	25.91
832.994	26.15
833.167	25.66
833.34	25.89
833.514	26.21
833.687	26.99
833.86	27.39
834.034	26.36
834.207	26.17
834.38	25.71
834.553	25.84
834.727	25.97
834.9	25.44
835.073	25.31
835.246	25.02
835.419	24.33
835.593	24.68
835.766	23.98
835.939	25.02
836.112	25.47
836.285	26.05
836.458	26.47
836.631	26.67
836.804	26.97
836.977	27.83
837.15	27.68
837.323	28.54
837.496	27.88
837.669	27.44
837.842	26.91
838.015	26.63
838.188	25.78
838.361	24.43
838.533	23.08
838.706	23.28
838.879	23.26
839.052	22.71
839.225	22.89
839.398	23.15
839.57	25.15
839.743	25.46
839.916	25.35
840.088	24.03
840.261	24.44
840.434	25.09
840.607	24.06
840.779	23.26
840.952	23.08
841.124	23.1
841.297	21.61
841.47	18.01
841.642	18.05
841.815	19.49
841.987	21.98
842.16	20.89
842.332	21.32
842.505	19.72
842.677	19.32
842.85	19.98
843.022	19.54
843.194	20.55
843.367	22.73
843.539	21.33
843.712	16.97
843.884	14.37
844.056	16.25
844.229	15.55
844.401	17.39
844.573	18.77
844.745	21.48
844.918	19.96
845.09	16.91
845.262	15.96
845.434	15.73
845.606	17.9
845.779	20.37
845.951	21.68
846.123	22.71
846.295	24.97
846.467	22.4
846.639	19.42
846.811	19.76
846.983	21.23
847.155	19.97
847.327	20.56
847.499	20.43
847.671	19.55
847.843	16.12
848.015	15.38
848.187	12.4
848.359	13.54
848.531	10.85
848.703	10.71
848.875	10.67
849.047	10.05
849.218	9.66
849.39	12.8
849.562	12.72
849.734	8.95
849.905	3.74
850.077	8.22
850.249	10.17
850.421	13.73
850.592	12.5
850.764	13.54
850.936	19.16
851.107	20.33
851.279	15.74
851.451	16.34
851.622	19
851.794	19.43
851.965	13.75
852.137	9.31
852.308	8.54
852.48	11.72
852.651	10.23
852.823	4.51
852.994	3.86
853.166	5.81
853.337	5.78
853.509	5.22
853.68	10.38
853.851	11.87
854.023	15.15
854.194	16.51
854.365	13.77
854.537	16.12
854.708	16.26
854.879	17.03
855.05	17.38
855.222	14.9
855.393	12.78
855.564	9.06
855.735	6.23
855.906	6.02
856.078	3.79
856.249	8.94
856.42	3.12
856.591	7.36
856.762	8.3
856.933	6.87
857.104	6.82
857.275	9.86
857.446	14.37
857.617	19.81
857.788	17.39
857.959	13.09
858.13	11
858.301	15.58
858.472	15.23
858.643	12.43
858.814	14.17
858.985	11.21
859.155	14.25
859.326	14.04
859.497	12.28
859.668	13.09
859.839	16.42
860.009	12.5
860.18	12.59
860.351	11.35
860.522	15.98
860.692	15.16
860.863	19.91
861.034	14.62
861.204	12.21
861.375	14.22
861.546	16.16
861.716	12.88
861.887	19.65
862.057	20.98
862.228	23.95
862.398	21.77
862.569	26.62
862.739	30.54
862.91	34.79
863.08	35.77
863.251	33.61
863.421	32.92
863.592	31.87
863.762	27.5
863.932	27.42
864.103	21.92
864.273	16.41
864.443	13.82
864.614	5.66
864.784	2.32
864.954	4.95
865.125	7.55
865.295	3.46
865.465	0.48
865.635	4.63
865.805	-0.33
865.976	-2.27
866.146	2.98
866.316	2.7
866.486	2.95
866.656	4.79
866.826	3.05
866.996	0.31
867.166	2.51
867.336	10.4
867.506	9.07
867.676	11.64
867.846	14.91
868.016	14.98
868.186	15.42
868.356	19.84
868.526	15.86
868.696	18.31
868.866	17.12
869.036	15.05
869.206	12.98
869.376	14.86
869.545	19.49
869.715	21.47
869.885	18.99
870.055	16.7
870.224	17.1
870.394	16.2
870.564	16.76
870.734	21.57
870.903	23.96
871.073	23.96
871.243	23.28
871.412	19.18
871.582	18.96
871.751	19.57
871.921	21.72
872.091	16
872.26	18.63
872.43	18.39
872.599	12.66
872.769	10.78
872.938	12.82
873.108	14.42
873.277	12.84
873.446	13.95
873.616	19.8
873.785	18.03
873.955	21.11
874.124	21.68
874.293	20.61
874.463	23.52
874.632	26.83
874.801	27.19
874.971	28.76
875.14	32.17
875.309	26.95
875.478	21.3
875.647	23.41
875.817	18.76
875.986	20.96
876.155	18.93
876.324	15.5
876.493	16.58
876.662	14.7
876.831	9.19
877	8.72
877.17	11.4
877.339	12.85
877.508	11.69
877.677	12.97
877.846	14.41
878.015	15.43
878.184	15.22
878.352	14.97
878.521	15.79
878.69	16.13
878.859	14.69
879.028	16.9
879.197	14.54
879.366	16.9
879.534	22.31
879.703	22.33
879.872	22.13
880.041	22.95
880.21	22.2
880.378	23.47
880.547	25.28
880.716	25.96
880.884	25.48
881.053	27.19
881.222	26.98
881.39	25.9
881.559	26.07
881.727	26.19
881.896	27.77
882.065	28.58
882.233	28.61
882.402	27.74
882.57	27.71
882.739	27.41
882.907	27.4
883.076	27.19
883.244	27.53
883.412	27.57
883.581	27.51
883.749	26.67
883.918	26.07
884.086	26.25
884.254	26.34
884.423	26.25
884.591	26.71
884.759	26.53
884.927	25.41
885.096	24.25
885.264	24.16
885.432	23.34
885.6	22.63
885.769	22.54
885.937	22.91
886.105	22.42
886.273	22.63
886.441	21.54
886.609	21.37
886.777	23.66
886.945	25.86
887.113	23.65
887.281	24
887.449	23.75
887.617	26.8
887.785	21.26
887.953	23.54
888.121	24.41
888.289	28.98
888.457	29.04
888.625	30.51
888.793	30.63
888.961	32.92
889.129	34.35
889.296	32.09
889.464	28.5
889.632	31.39
889.8	31.37
889.967	29.8
890.135	25.98
