Data from 2938459_Reflection_2.txt Node
Date: Wed Jun 17 14:07:21 EDT 2015
User: robert
Spectrometer: USB4E03002
Autoset integration time: false
Trigger mode: 4
Integration Time (sec): 1.000000E-1
Scans to average: 10
Electric dark correction enabled: true
Nonlinearity correction enabled: false
Boxcar width: 5
Stray light correction enabled: false
XAxis mode: Wavelengths
Stop averaging: false
Number of Pixels in Spectrum: 3648
>>>>>Begin Spectral Data<<<<<
177.575	-126.29
177.794	-191.52
178.014	-80.61
178.233	-229.66
178.452	266.87
178.672	290.63
178.891	44.69
179.11	-88.36
179.33	1523.96
179.549	-5650.62
179.768	-597.16
179.987	-171.52
180.207	-921.23
180.426	-244.34
180.645	213
180.864	198.69
181.084	210.47
181.303	235.02
181.522	249.72
181.741	442.13
181.96	292.58
182.179	339.63
182.398	291.92
182.618	217.58
182.837	231.18
183.056	803.42
183.275	470.95
183.494	489.76
183.713	411.07
183.932	3007.76
184.151	1192.72
184.37	481.77
184.589	243.17
184.808	229.2
185.027	720.16
185.246	425.9
185.465	316.56
185.684	345.96
185.903	446.47
186.122	356.46
186.341	213.17
186.56	202.86
186.779	320.8
186.998	384.39
187.216	213.77
187.435	188.22
187.654	174.61
187.873	137.73
188.092	161.39
188.311	128.56
188.53	143.76
188.748	162.31
188.967	169.61
189.186	178.51
189.405	256.5
189.623	242.12
189.842	327.97
190.061	-2460
190.28	-244.25
190.498	-220.34
190.717	-1370.03
190.936	-503.1
191.154	-269.74
191.373	-245.25
191.592	-1468.96
191.81	225.62
192.029	-566.83
192.248	1250.95
192.466	492.7
192.685	166.22
192.904	177.23
193.122	176.36
193.341	189.33
193.559	223.21
193.778	189.44
193.996	206.53
194.215	249.63
194.433	186.94
194.652	173.85
194.87	158.97
195.089	148.01
195.307	121.93
195.526	240.22
195.744	232.74
195.963	172.12
196.181	177.36
196.399	149.9
196.618	152.97
196.836	183.4
197.055	170.64
197.273	192.66
197.491	196.84
197.71	189.18
197.928	172.21
198.146	151.28
198.365	193.26
198.583	186.89
198.801	174.91
199.019	162.63
199.238	154.97
199.456	137.5
199.674	121.36
199.892	108
200.111	99.33
200.329	138.89
200.547	160.39
200.765	163.11
200.983	174.22
201.202	182.98
201.42	213.28
201.638	231.73
201.856	221.57
202.074	173.41
202.292	175.03
202.51	174.82
202.728	153.29
202.946	146.37
203.165	110.71
203.383	93.53
203.601	118.07
203.819	96.22
204.037	76.08
204.255	84.42
204.473	98.15
204.691	114.9
204.909	125.76
205.127	96.86
205.345	99.93
205.562	111.58
205.78	130.51
205.998	120.42
206.216	128.68
206.434	124.07
206.652	130.96
206.87	134.81
207.088	128.66
207.306	121.39
207.523	134.25
207.741	133.66
207.959	153.16
208.177	145.64
208.395	124.77
208.612	123.25
208.83	131.88
209.048	104
209.266	100.15
209.483	93.6
209.701	97.01
209.919	103.9
210.136	113.1
210.354	82.43
210.572	81.38
210.79	78.14
211.007	85.72
211.225	72.84
211.442	98.86
211.66	113.99
211.878	121.64
212.095	124.66
212.313	115.81
212.53	106.04
212.748	111.19
212.966	113.73
213.183	123.25
213.401	97.96
213.618	99.41
213.836	87.31
214.053	74.03
214.271	68.03
214.488	55.72
214.705	60.15
214.923	63.4
215.14	75.93
215.358	74.68
215.575	72.8
215.793	73.35
216.01	69.72
216.227	77.98
216.445	82.57
216.662	89.45
216.879	100.86
217.097	91.91
217.314	92.49
217.531	99.74
217.749	105.49
217.966	105.58
218.183	108.4
218.4	99.91
218.618	79.24
218.835	42.03
219.052	38.93
219.269	-5.77
219.487	0.9
219.704	4.91
219.921	-5.92
220.138	-7.37
220.355	-8.69
220.572	10.46
220.79	15.75
221.007	24.49
221.224	34.6
221.441	33.14
221.658	45.47
221.875	48.29
222.092	46.53
222.309	53.57
222.526	58.14
222.743	59.27
222.96	54.54
223.177	54.32
223.394	48.3
223.611	47.56
223.828	46.43
224.045	41.24
224.262	34.44
224.479	38.51
224.696	37.88
224.913	36.36
225.13	32.88
225.347	28.21
225.564	25.67
225.781	24.62
225.997	23.41
226.214	22.79
226.431	21.14
226.648	22
226.865	20.31
227.082	20.19
227.298	19.95
227.515	20.04
227.732	20.5
227.949	20.78
228.165	19.66
228.382	18.93
228.599	18.19
228.816	18.46
229.032	18.35
229.249	17.16
229.466	16.36
229.682	16.42
229.899	18.34
230.116	18.75
230.332	17.3
230.549	18.51
230.765	19.42
230.982	20.92
231.199	23.49
231.415	22.94
231.632	25.34
231.848	25.02
232.065	22.66
232.281	19.96
232.498	19.94
232.714	21
232.931	21.74
233.147	22.98
233.364	19.85
233.58	18.2
233.797	18.18
234.013	16.23
234.23	14.35
234.446	15.77
234.662	15.05
234.879	12.53
235.095	13.6
235.312	15.52
235.528	15.81
235.744	16.54
235.961	15.7
236.177	14.55
236.393	16.94
236.61	19.38
236.826	19.03
237.042	19.39
237.258	23.4
237.475	23.87
237.691	23.25
237.907	20.94
238.123	22.02
238.339	24.51
238.556	25.93
238.772	23.84
238.988	22.24
239.204	20.14
239.42	19.65
239.636	18.52
239.853	17.74
240.069	17.76
240.285	17.11
240.501	16.37
240.717	15.2
240.933	14.36
241.149	14.33
241.365	14.87
241.581	16.18
241.797	17.34
242.013	16.74
242.229	17.06
242.445	16.51
242.661	16.35
242.877	17.14
243.093	16.48
243.309	17.1
243.525	16.45
243.741	15.54
243.957	14.8
244.173	12.91
244.388	13.1
244.604	12.44
244.82	12.15
245.036	12.56
245.252	12.11
245.468	12.06
245.683	12.39
245.899	12.63
246.115	12.63
246.331	12.69
246.547	12.93
246.762	12.96
246.978	13.1
247.194	13.38
247.409	13.15
247.625	12.96
247.841	13.69
248.057	13.14
248.272	13.1
248.488	13.04
248.703	12.22
248.919	11.74
249.135	10.65
249.35	11.36
249.566	11.18
249.782	11.53
249.997	12.02
250.213	10.9
250.428	10.28
250.644	10.87
250.859	11.52
251.075	12.35
251.29	12.78
251.506	13.66
251.721	13.26
251.937	13.41
252.152	13.79
252.368	14.52
252.583	15.95
252.798	16.32
253.014	15.84
253.229	15.72
253.445	15.26
253.66	16.04
253.875	15.66
254.091	16.16
254.306	15.51
254.521	15.04
254.737	14.01
254.952	12.44
255.167	12.66
255.383	12.82
255.598	11.89
255.813	11.46
256.028	10.28
256.244	10.29
256.459	8.99
256.674	8.82
256.889	8.56
257.104	8.22
257.32	8.84
257.535	8.72
257.75	8.89
257.965	8.73
258.18	8.55
258.395	8.85
258.61	8.89
258.826	9.2
259.041	9.47
259.256	9.39
259.471	9.83
259.686	9.34
259.901	9.53
260.116	9.23
260.331	9.91
260.546	9.86
260.761	9.54
260.976	9.3
261.191	9.31
261.406	9.46
261.621	9.68
261.836	9.59
262.05	10.18
262.265	10.3
262.48	10.27
262.695	8.67
262.91	9.87
263.125	9.96
263.34	10.49
263.555	10.69
263.769	10.03
263.984	10.14
264.199	10.59
264.414	10.74
264.629	10.51
264.843	10.41
265.058	10.89
265.273	10.3
265.488	10.27
265.702	9.64
265.917	9.35
266.132	9.75
266.346	9.95
266.561	9.73
266.776	9.55
266.99	9.27
267.205	9.42
267.42	9.25
267.634	9.82
267.849	10.08
268.063	10.67
268.278	11.13
268.492	11.13
268.707	10.72
268.922	10.18
269.136	9.82
269.351	9.93
269.565	9.94
269.78	9.5
269.994	9.21
270.209	8.91
270.423	8.83
270.637	8.64
270.852	8.37
271.066	8.95
271.281	9.15
271.495	8.8
271.709	8.62
271.924	8.51
272.138	8.84
272.353	9.26
272.567	9.88
272.781	9.73
272.996	9.64
273.21	9.95
273.424	9.06
273.638	9.19
273.853	10.15
274.067	10.34
274.281	10.51
274.495	10.79
274.71	10.27
274.924	9.35
275.138	9.17
275.352	8.45
275.566	8.59
275.781	9.08
275.995	9.31
276.209	9.22
276.423	9.31
276.637	9.08
276.851	9.2
277.065	9.15
277.279	9.78
277.493	10
277.707	10.65
277.921	10.34
278.135	9.87
278.349	9.25
278.563	9.21
278.777	9.05
278.991	8.75
279.205	8.71
279.419	8.36
279.633	8.68
279.847	8.84
280.061	8.68
280.275	8.7
280.489	9.05
280.703	9.5
280.917	9.32
281.131	9.78
281.344	10.01
281.558	9.88
281.772	10.31
281.986	10.12
282.2	9.97
282.414	9.84
282.627	9.82
282.841	9.66
283.055	9.26
283.269	9.5
283.482	9.28
283.696	9.17
283.91	9
284.123	8.8
284.337	8.49
284.551	8.62
284.764	8.96
284.978	9.06
285.192	9.17
285.405	9.07
285.619	9.2
285.833	8.94
286.046	8.62
286.26	9.08
286.473	9.06
286.687	9.13
286.9	9.07
287.114	8.47
287.327	8.14
287.541	7.91
287.754	8.16
287.968	7.48
288.181	7.63
288.395	8.36
288.608	8.2
288.822	8.06
289.035	7.87
289.248	7.59
289.462	7.95
289.675	7.83
289.889	7.89
290.102	7.49
290.315	7.4
290.529	7.89
290.742	7.38
290.955	7.51
291.169	7.24
291.382	7.88
291.595	8.13
291.808	8.33
292.022	8.71
292.235	8.68
292.448	9.4
292.661	9.82
292.875	9.23
293.088	9.21
293.301	9.23
293.514	9.64
293.727	9.46
293.94	9.44
294.153	9.28
294.367	9.02
294.58	8.67
294.793	8.12
295.006	8.45
295.219	8.7
295.432	9.02
295.645	9.06
295.858	8.96
296.071	8.6
296.284	8.56
296.497	8.54
296.71	8.71
296.923	9.14
297.136	9.3
297.349	9.35
297.562	9.38
297.775	9.04
297.988	9.08
298.201	9.32
298.414	9.74
298.626	9.93
298.839	9.88
299.052	9.69
299.265	9.2
299.478	9.44
299.691	9.35
299.903	9.14
300.116	9.49
300.329	8.68
300.542	8.69
300.755	8.66
300.967	8.78
301.18	9.08
301.393	9.22
301.605	9.25
301.818	8.8
302.031	8.65
302.243	8.63
302.456	8.7
302.669	9.11
302.881	9.09
303.094	8.79
303.307	9.16
303.519	9.42
303.732	9.66
303.944	10.17
304.157	10.44
304.37	10.53
304.582	10.59
304.795	10.58
305.007	10.65
305.22	10.92
305.432	10.8
305.645	9.9
305.857	9.35
306.069	9.6
306.282	9.57
306.494	9.64
306.707	9.79
306.919	9.35
307.132	9.05
307.344	9.05
307.556	8.98
307.769	9.3
307.981	9.54
308.193	9.57
308.406	8.69
308.618	9.01
308.83	8.98
309.043	8.21
309.255	8.75
309.467	8.73
309.679	8.51
309.892	8.48
310.104	8.25
310.316	8.25
310.528	8.47
310.74	8.63
310.953	8.44
311.165	8.11
311.377	8.15
311.589	8.08
311.801	8.22
312.013	8.59
312.225	8.47
312.437	8.81
312.649	9
312.862	8.98
313.074	9.48
313.286	9.33
313.498	9.9
313.71	10.73
313.922	10.54
314.134	10.42
314.346	10.29
314.558	10.52
314.77	10.57
314.982	10.78
315.193	10.86
315.405	10.72
315.617	10.62
315.829	11.13
316.041	10.97
316.253	11.45
316.465	11.74
316.677	11.9
316.888	11.67
317.1	11.96
317.312	11.67
317.524	11.35
317.736	11.85
317.947	12.33
318.159	11.86
318.371	11.74
318.583	11.43
318.794	11.28
319.006	11.41
319.218	11.1
319.43	10.87
319.641	11
319.853	11.05
320.064	10.85
320.276	10.6
320.488	10.58
320.699	10.81
320.911	10.86
321.123	10.96
321.334	11.33
321.546	11.77
321.757	11.66
321.969	12.02
322.18	11.64
322.392	11.36
322.603	11.35
322.815	11.19
323.026	11.19
323.238	11.3
323.449	11.05
323.661	10.4
323.872	10.25
324.083	10.52
324.295	10.22
324.506	10.79
324.718	11.07
324.929	11.32
325.14	11.43
325.352	11.04
325.563	10.94
325.774	11.39
325.986	12.11
326.197	11.96
326.408	11.9
326.62	11.45
326.831	11.96
327.042	11.71
327.253	11.48
327.464	11.67
327.676	12.5
327.887	12.68
328.098	12.39
328.309	12
328.52	11.88
328.732	12.16
328.943	12.76
329.154	11.64
329.365	11.84
329.576	11.45
329.787	11.6
329.998	11.34
330.209	11.04
330.42	11.23
330.631	11.55
330.842	12.2
331.053	11.91
331.264	11.69
331.475	12.04
331.686	12.5
331.897	12.47
332.108	12.75
332.319	12.91
332.53	12.98
332.741	13.06
332.952	12.94
333.163	12.96
333.374	12.83
333.585	12.64
333.795	12.97
334.006	12.87
334.217	13.23
334.428	13.18
334.639	12.86
334.849	12.8
335.06	12.45
335.271	12.04
335.482	11.71
335.692	11.56
335.903	11.81
336.114	11.51
336.325	11.09
336.535	11
336.746	10.87
336.957	10.77
337.167	11.11
337.378	11.44
337.589	11.72
337.799	11.99
338.01	12.98
338.22	13.22
338.431	13.4
338.642	13.34
338.852	13.52
339.063	13.32
339.273	13.57
339.484	13.88
339.694	13.49
339.905	13.38
340.115	13.9
340.326	13.56
340.536	13.54
340.746	13.44
340.957	13.61
341.167	13.38
341.378	13.24
341.588	12.91
341.799	12.77
342.009	12.71
342.219	12.66
342.43	12.11
342.64	11.77
342.85	11.61
343.061	11.34
343.271	11.35
343.481	11.48
343.691	11.34
343.902	11.12
344.112	10.37
344.322	10.69
344.532	10.75
344.743	10.64
344.953	10.73
345.163	10.51
345.373	10.71
345.583	10.25
345.793	10.49
346.004	11.01
346.214	11.32
346.424	11.96
346.634	11.78
346.844	11.91
347.054	11.93
347.264	11.79
347.474	12.12
347.684	12.04
347.894	12.22
348.104	12.03
348.314	11.62
348.524	11.66
348.734	11.61
348.944	11.92
349.154	11.85
349.364	11.5
349.574	11.15
349.784	10.71
349.994	10.71
350.204	10.99
350.413	11.21
350.623	11.43
350.833	11.5
351.043	11.13
351.253	10.59
351.463	10.36
351.672	10.25
351.882	10.91
352.092	10.86
352.302	10.96
352.511	10.84
352.721	10.57
352.931	10.38
353.141	10.42
353.35	10.68
353.56	10.68
353.77	10.45
353.979	10.69
354.189	10.02
354.399	9.96
354.608	9.72
354.818	9.78
355.027	9.85
355.237	9.89
355.447	9.8
355.656	9.68
355.866	9.88
356.075	10.28
356.285	10.46
356.494	10.5
356.704	10.78
356.913	10.79
357.123	10.61
357.332	10.3
357.542	10.15
357.751	10.02
357.96	9.78
358.17	9.8
358.379	9.68
358.589	9.62
358.798	9.83
359.007	9.81
359.217	9.86
359.426	9.88
359.635	10.07
359.845	10.02
360.054	10.05
360.263	10.12
360.472	10.09
360.682	9.92
360.891	9.92
361.1	9.94
361.309	9.98
361.519	10.13
361.728	10.16
361.937	10.31
362.146	10.49
362.355	10.38
362.564	10.56
362.774	10.3
362.983	10.47
363.192	10.43
363.401	10.22
363.61	9.83
363.819	9.97
364.028	9.76
364.237	9.52
364.446	9.43
364.655	9.4
364.864	9.39
365.073	9.41
365.282	9.54
365.491	9.38
365.7	9.35
365.909	9.28
366.118	9.11
366.327	9.05
366.536	9.17
366.745	9.15
366.954	9.08
367.162	8.85
367.371	9.02
367.58	8.9
367.789	8.99
367.998	8.95
368.207	9.15
368.415	8.91
368.624	8.97
368.833	8.77
369.042	8.42
369.25	8.92
369.459	9.32
369.668	9.3
369.877	9.13
370.085	9.1
370.294	9.23
370.503	8.98
370.711	9.45
370.92	9.54
371.129	9.43
371.337	9.52
371.546	8.95
371.754	8.91
371.963	9
372.171	8.85
372.38	8.77
372.589	9.06
372.797	9.36
373.006	8.87
373.214	9.03
373.423	9.03
373.631	9.05
373.84	9.16
374.048	8.96
374.256	8.9
374.465	9.33
374.673	9.36
374.882	9.13
375.09	8.99
375.298	8.8
375.507	8.67
375.715	8.81
375.923	8.83
376.132	9.1
376.34	8.89
376.548	8.92
376.757	8.69
376.965	8.85
377.173	8.57
377.381	8.62
377.59	8.9
377.798	8.99
378.006	8.92
378.214	9.04
378.423	8.73
378.631	8.62
378.839	8.46
379.047	8.36
379.255	8.36
379.463	8.3
379.671	8.08
379.879	8
380.088	8.12
380.296	8.08
380.504	7.97
380.712	8.18
380.92	8.41
381.128	8.65
381.336	8.65
381.544	8.39
381.752	8.51
381.96	8.38
382.168	8.52
382.376	8.25
382.584	8.18
382.791	8.21
382.999	8.14
383.207	7.91
383.415	7.9
383.623	8
383.831	8.11
384.039	8.13
384.247	8.56
384.454	8.29
384.662	8.26
384.87	8.26
385.078	8.33
385.285	7.99
385.493	8.27
385.701	7.98
385.909	7.99
386.116	7.87
386.324	7.77
386.532	7.38
386.739	7.23
386.947	7.37
387.155	7.42
387.362	7.29
387.57	7.48
387.778	7.41
387.985	7.36
388.193	7.23
388.4	7.16
388.608	7.45
388.816	7.48
389.023	7.69
389.231	7.59
389.438	7.59
389.646	7.79
389.853	7.77
390.061	7.6
390.268	7.61
390.475	7.62
390.683	7.79
390.89	7.73
391.098	7.82
391.305	7.86
391.512	7.76
391.72	7.74
391.927	7.64
392.135	7.48
392.342	7.61
392.549	7.69
392.756	7.69
392.964	7.64
393.171	7.58
393.378	7.49
393.586	7.42
393.793	7.51
394	7.26
394.207	7.2
394.414	7.45
394.622	7.46
394.829	7.52
395.036	7.46
395.243	7.52
395.45	7.57
395.657	7.64
395.864	7.71
396.072	7.75
396.279	7.76
396.486	7.53
396.693	7.53
396.9	7.4
397.107	7.23
397.314	7.58
397.521	7.41
397.728	7.38
397.935	7.61
398.142	7.57
398.349	7.32
398.556	7.54
398.763	7.64
398.97	7.69
399.177	7.82
399.383	7.85
399.59	7.42
399.797	7.36
400.004	7.27
400.211	7.06
400.418	7.01
400.625	7.17
400.831	6.98
401.038	6.93
401.245	6.94
401.452	6.88
401.658	6.96
401.865	6.97
402.072	7.01
402.279	7.01
402.485	6.94
402.692	7.02
402.899	7.12
403.105	7.2
403.312	7.34
403.519	7.35
403.725	7.33
403.932	7.31
404.138	7.28
404.345	7.28
404.552	7.31
404.758	7.61
404.965	7.45
405.171	7.37
405.378	7.36
405.584	7.17
405.791	6.93
405.997	7.06
406.204	6.98
406.41	6.97
406.617	6.85
406.823	7
407.029	6.82
407.236	6.95
407.442	6.96
407.649	7.13
407.855	7
408.061	7.07
408.268	6.86
408.474	6.74
408.68	6.75
408.887	6.88
409.093	6.63
409.299	6.65
409.505	6.57
409.712	6.54
409.918	6.33
410.124	6.53
410.33	6.6
410.537	6.71
410.743	6.92
410.949	6.94
411.155	6.92
411.361	6.85
411.567	6.77
411.773	6.68
411.98	6.75
412.186	6.85
412.392	6.87
412.598	6.82
412.804	6.6
413.01	6.53
413.216	6.46
413.422	6.69
413.628	6.78
413.834	6.71
414.04	6.68
414.246	6.47
414.452	6.57
414.658	6.61
414.864	6.57
415.07	6.71
415.275	6.75
415.481	6.82
415.687	6.48
415.893	6.56
416.099	6.47
416.305	6.53
416.511	6.72
416.716	6.66
416.922	6.61
417.128	6.65
417.334	6.58
417.539	6.48
417.745	6.47
417.951	6.54
418.157	6.5
418.362	6.53
418.568	6.55
418.774	6.42
418.979	6.47
419.185	6.45
419.391	6.31
419.596	6.26
419.802	6.25
420.008	6.29
420.213	6.92
420.419	6.93
420.624	6.92
420.83	6.86
421.035	6.83
421.241	6.8
421.446	6.8
421.652	6.89
421.857	6.94
422.063	6.93
422.268	6.86
422.474	6.3
422.679	6.3
422.885	6.23
423.09	6.22
423.295	6.19
423.501	6.14
423.706	6.15
423.911	6.14
424.117	6.23
424.322	6.32
424.527	6.32
424.733	6.24
424.938	6.2
425.143	6.36
425.349	6.46
425.554	6.49
425.759	6.5
425.964	6.45
426.169	6.46
426.375	6.39
426.58	6.48
426.785	6.66
426.99	6.78
427.195	6.87
427.4	6.73
427.605	6.84
427.811	6.86
428.016	6.92
428.221	6.94
428.426	6.91
428.631	6.94
428.836	6.89
429.041	6.71
429.246	6.62
429.451	6.6
429.656	6.7
429.861	6.62
430.066	6.74
430.271	6.7
430.476	6.74
430.681	6.86
430.886	6.78
431.09	6.69
431.295	6.66
431.5	6.6
431.705	6.59
431.91	6.64
432.115	6.47
432.32	6.41
432.524	6.42
432.729	6.49
432.934	6.43
433.139	6.47
433.343	6.52
433.548	6.54
433.753	6.61
433.958	6.55
434.162	6.43
434.367	6.47
434.572	6.54
434.776	6.46
434.981	6.39
435.186	6.21
435.39	6.02
435.595	6.01
435.799	6.08
436.004	6.08
436.209	6.06
436.413	6.15
436.618	6.17
436.822	6.13
437.027	6.19
437.231	6.17
437.436	6.29
437.64	6.45
437.845	6.38
438.049	6.43
438.253	6.45
438.458	6.5
438.662	6.55
438.867	6.65
439.071	6.79
439.275	6.78
439.48	6.75
439.684	6.73
439.888	6.67
440.093	6.77
440.297	6.63
440.501	6.6
440.706	6.62
440.91	6.65
441.114	6.59
441.318	6.38
441.523	6.36
441.727	6.4
441.931	6.58
442.135	6.62
442.339	6.54
442.543	6.6
442.748	6.61
442.952	6.62
443.156	6.56
443.36	6.55
443.564	6.67
443.768	6.68
443.972	6.68
444.176	6.57
444.38	6.49
444.584	6.49
444.788	6.48
444.992	6.4
445.196	6.45
445.4	6.46
445.604	6.38
445.808	6.32
446.012	6.36
446.216	6.31
446.42	6.24
446.624	6.34
446.828	6.33
447.032	6.3
447.235	6.32
447.439	6.21
447.643	6.21
447.847	6.37
448.051	6.46
448.254	6.41
448.458	6.46
448.662	6.56
448.866	6.47
449.069	6.47
449.273	6.49
449.477	6.51
449.681	6.54
449.884	6.52
450.088	6.55
450.292	6.5
450.495	6.5
450.699	6.62
450.902	6.59
451.106	6.61
451.31	6.62
451.513	6.61
451.717	6.68
451.92	6.7
452.124	6.61
452.327	6.54
452.531	6.57
452.734	6.61
452.938	6.45
453.141	6.47
453.345	6.45
453.548	6.36
453.752	6.4
453.955	6.42
454.158	6.39
454.362	6.43
454.565	6.48
454.769	6.49
454.972	6.59
455.175	6.71
455.379	6.63
455.582	6.62
455.785	6.77
455.988	6.76
456.192	6.68
456.395	6.7
456.598	6.78
456.801	6.75
457.005	6.71
457.208	6.61
457.411	6.47
457.614	6.45
457.817	6.51
458.021	6.44
458.224	6.53
458.427	6.54
458.63	6.6
458.833	6.53
459.036	6.5
459.239	6.45
459.442	6.44
459.645	6.48
459.848	6.49
460.051	6.46
460.254	6.57
460.457	6.45
460.66	6.5
460.863	6.45
461.066	6.49
461.269	6.47
461.472	6.47
461.675	6.42
461.878	6.32
462.081	6.44
462.284	6.44
462.486	6.37
462.689	6.37
462.892	6.39
463.095	6.48
463.298	6.48
463.5	6.44
463.703	6.43
463.906	6.54
464.109	6.59
464.311	6.58
464.514	6.63
464.717	6.7
464.92	6.79
465.122	6.76
465.325	6.65
465.528	6.7
465.73	6.81
465.933	6.78
466.135	6.78
466.338	6.88
466.541	6.85
466.743	6.79
466.946	6.7
467.148	6.64
467.351	6.58
467.553	6.59
467.756	6.57
467.958	6.55
468.161	6.62
468.363	6.61
468.566	6.6
468.768	6.56
468.971	6.65
469.173	6.73
469.375	6.65
469.578	6.63
469.78	6.65
469.983	6.61
470.185	6.64
470.387	6.71
470.59	6.78
470.792	6.71
470.994	6.75
471.196	6.65
471.399	6.65
471.601	6.7
471.803	6.81
472.005	6.82
472.208	6.79
472.41	6.68
472.612	6.6
472.814	6.45
473.016	6.58
473.218	6.67
473.421	6.71
473.623	6.68
473.825	6.67
474.027	6.55
474.229	6.45
474.431	6.42
474.633	6.53
474.835	6.53
475.037	6.56
475.239	6.49
475.441	6.44
475.643	6.41
475.845	6.41
476.047	6.47
476.249	6.57
476.451	6.58
476.653	6.57
476.855	6.61
477.057	6.55
477.258	6.51
477.46	6.48
477.662	6.47
477.864	6.48
478.066	6.44
478.268	6.41
478.469	6.42
478.671	6.47
478.873	6.53
479.075	6.45
479.276	6.44
479.478	6.49
479.68	6.53
479.882	6.49
480.083	6.47
480.285	6.52
480.487	6.52
480.688	6.46
480.89	6.44
481.091	6.47
481.293	6.44
481.495	6.46
481.696	6.44
481.898	6.46
482.099	6.41
482.301	6.41
482.502	6.38
482.704	6.35
482.905	6.31
483.107	6.28
483.308	6.22
483.51	6.21
483.711	6.2
483.913	6.19
484.114	6.17
484.315	6.18
484.517	6.17
484.718	6.15
484.92	6.12
485.121	6.18
485.322	6.21
485.524	6.25
485.725	6.29
485.926	6.22
486.127	6.23
486.329	6.22
486.53	6.25
486.731	6.24
486.932	6.25
487.134	6.28
487.335	6.23
487.536	6.24
487.737	6.24
487.938	6.26
488.139	6.3
488.341	6.31
488.542	6.3
488.743	6.29
488.944	6.33
489.145	6.33
489.346	6.38
489.547	6.48
489.748	6.43
489.949	6.41
490.15	6.34
490.351	6.42
490.552	6.42
490.753	6.43
490.954	6.43
491.155	6.36
491.356	6.37
491.557	6.37
491.758	6.35
491.959	6.39
492.159	6.4
492.36	6.47
492.561	6.43
492.762	6.4
492.963	6.41
493.164	6.39
493.364	6.53
493.565	6.58
493.766	6.6
493.967	6.57
494.167	6.51
494.368	6.46
494.569	6.46
494.769	6.39
494.97	6.45
495.171	6.5
495.371	6.6
495.572	6.64
495.773	6.58
495.973	6.66
496.174	6.66
496.375	6.76
496.575	6.82
496.776	6.86
496.976	6.96
497.177	6.95
497.377	6.94
497.578	6.92
497.778	6.85
497.979	6.88
498.179	6.75
498.38	6.79
498.58	6.73
498.78	6.79
498.981	6.81
499.181	6.78
499.382	6.82
499.582	6.79
499.782	6.83
499.983	6.88
500.183	6.92
500.383	7.01
500.584	6.86
500.784	6.91
500.984	6.88
501.184	6.75
501.385	6.77
501.585	6.78
501.785	6.84
501.985	6.84
502.185	6.89
502.386	6.95
502.586	6.86
502.786	7.08
502.986	7.09
503.186	7.12
503.386	7.23
503.586	7.34
503.786	7.36
503.987	7.36
504.187	7.36
504.387	7.33
504.587	7.39
504.787	7.38
504.987	7.24
505.187	7.3
505.387	7.31
505.587	7.34
505.786	7.24
505.986	7.28
506.186	7.21
506.386	7.2
506.586	7.22
506.786	7.17
506.986	7.33
507.186	7.44
507.386	7.51
507.585	7.53
507.785	7.56
507.985	7.58
508.185	7.61
508.384	7.68
508.584	7.69
508.784	7.66
508.984	7.72
509.183	7.71
509.383	7.78
509.583	7.78
509.782	7.79
509.982	7.76
510.182	7.87
510.381	7.94
510.581	7.98
510.781	8.02
510.98	8.09
511.18	8.14
511.379	8.12
511.579	8.09
511.778	8.03
511.978	7.94
512.177	7.98
512.377	7.94
512.576	7.88
512.776	7.84
512.975	7.91
513.175	7.9
513.374	7.91
513.573	7.97
513.773	8.02
513.972	8.02
514.172	8.15
514.371	8.27
514.57	8.32
514.77	8.43
514.969	8.48
515.168	8.46
515.367	8.51
515.567	8.49
515.766	8.45
515.965	8.5
516.164	8.55
516.364	8.57
516.563	8.51
516.762	8.46
516.961	8.45
517.16	8.48
517.359	8.43
517.559	8.47
517.758	8.42
517.957	8.51
518.156	8.48
518.355	8.5
518.554	8.53
518.753	8.52
518.952	8.57
519.151	8.6
519.35	8.64
519.549	8.64
519.748	8.64
519.947	8.77
520.146	8.71
520.345	8.79
520.544	8.76
520.743	8.83
520.942	8.85
521.141	8.86
521.339	8.92
521.538	8.93
521.737	8.98
521.936	9.04
522.135	8.99
522.333	9.05
522.532	9.05
522.731	9.1
522.93	9.07
523.129	9.1
523.327	9.11
523.526	9.1
523.725	9.15
523.923	9.14
524.122	9.18
524.321	9.23
524.519	9.26
524.718	9.23
524.917	9.3
525.115	9.36
525.314	9.37
525.512	9.37
525.711	9.38
525.909	9.44
526.108	9.53
526.306	9.49
526.505	9.47
526.703	9.47
526.902	9.43
527.1	9.37
527.299	9.32
527.497	9.33
527.696	9.32
527.894	9.29
528.092	9.25
528.291	9.2
528.489	9.22
528.688	9.25
528.886	9.24
529.084	9.23
529.283	9.28
529.481	9.33
529.679	9.41
529.877	9.48
530.076	9.54
530.274	9.63
530.472	9.7
530.67	9.72
530.869	9.71
531.067	9.72
531.265	9.79
531.463	9.81
531.661	9.83
531.859	9.79
532.057	9.76
532.255	9.72
532.454	9.65
532.652	9.65
532.85	9.67
533.048	9.67
533.246	9.68
533.444	9.69
533.642	9.72
533.84	9.72
534.038	9.78
534.236	9.75
534.434	9.84
534.632	9.86
534.83	9.87
535.027	9.92
535.225	9.94
535.423	10.02
535.621	10.07
535.819	10.07
536.017	10.05
536.215	10.07
536.412	10.18
536.61	10.18
536.808	10.2
537.006	10.24
537.203	10.24
537.401	10.28
537.599	10.31
537.797	10.43
537.994	10.4
538.192	10.56
538.39	10.58
538.587	10.61
538.785	10.71
538.983	10.76
539.18	10.79
539.378	10.76
539.575	10.78
539.773	10.79
539.97	10.74
540.168	10.82
540.366	10.74
540.563	10.72
540.761	10.72
540.958	10.72
541.155	10.72
541.353	10.71
541.55	10.72
541.748	10.77
541.945	10.73
542.143	10.74
542.34	10.73
542.537	10.82
542.735	10.85
542.932	10.91
543.129	10.91
543.327	10.99
543.524	11.1
543.721	11.17
543.919	11.19
544.116	11.3
544.313	11.44
544.51	11.52
544.708	11.51
544.905	11.55
545.102	11.56
545.299	11.61
545.496	11.66
545.693	11.61
545.891	11.68
546.088	11.62
546.285	11.66
546.482	11.59
546.679	11.55
546.876	11.64
547.073	11.71
547.27	11.69
547.467	11.73
547.664	11.74
547.861	11.95
548.058	11.94
548.255	12.04
548.452	12.04
548.649	12.17
548.846	12.15
549.043	12.16
549.24	12.18
549.437	12.31
549.633	12.39
549.83	12.45
550.027	12.34
550.224	12.46
550.421	12.62
550.618	12.68
550.814	12.76
551.011	12.87
551.208	12.87
551.405	12.87
551.601	12.91
551.798	12.93
551.995	12.88
552.191	12.93
552.388	12.76
552.585	12.76
552.781	12.81
552.978	12.73
553.175	12.75
553.371	12.93
553.568	12.95
553.764	13.15
553.961	13.06
554.157	13.22
554.354	13.34
554.55	13.51
554.747	13.57
554.943	13.56
555.14	13.63
555.336	13.75
555.533	13.77
555.729	13.88
555.926	13.77
556.122	13.94
556.318	13.94
556.515	13.97
556.711	14.15
556.907	14.22
557.104	14.43
557.3	14.44
557.496	14.5
557.693	14.48
557.889	14.61
558.085	14.59
558.281	14.66
558.478	14.76
558.674	14.87
558.87	14.85
559.066	14.85
559.262	14.88
559.459	14.96
559.655	15.11
559.851	15.21
560.047	15.31
560.243	15.48
560.439	15.54
560.635	15.57
560.831	15.61
561.027	15.63
561.223	15.65
561.419	15.7
561.615	15.81
561.811	15.82
562.007	15.92
562.203	15.98
562.399	15.97
562.595	15.92
562.791	16.09
562.987	16.18
563.183	16.44
563.379	16.49
563.575	16.47
563.771	16.53
563.966	16.58
564.162	16.75
564.358	16.76
564.554	16.84
564.75	16.96
564.945	16.98
565.141	16.91
565.337	16.86
565.533	17
565.728	17.09
565.924	17.18
566.12	17.21
566.315	17.2
566.511	17.14
566.707	17.19
566.902	17.27
567.098	17.27
567.293	17.45
567.489	17.47
567.684	17.43
567.88	17.5
568.076	17.61
568.271	17.7
568.467	17.67
568.662	17.97
568.858	18.07
569.053	18.18
569.248	18.31
569.444	18.36
569.639	18.47
569.835	18.64
570.03	18.79
570.225	18.76
570.421	18.82
570.616	18.93
570.812	18.91
571.007	18.95
571.202	19.09
571.397	19.12
571.593	19.19
571.788	19.25
571.983	19.26
572.178	19.3
572.374	19.4
572.569	19.5
572.764	19.58
572.959	19.62
573.154	19.63
573.35	19.62
573.545	19.7
573.74	19.71
573.935	19.76
574.13	19.87
574.325	19.87
574.52	20.06
574.715	20.06
574.91	20.1
575.105	20.17
575.3	20.32
575.495	20.31
575.69	20.34
575.885	20.52
576.08	20.62
576.275	20.75
576.47	20.74
576.665	20.71
576.86	20.77
577.055	20.79
577.25	21
577.444	21.13
577.639	21.19
577.834	21.33
578.029	21.38
578.224	21.31
578.418	21.4
578.613	21.66
578.808	21.7
579.003	21.88
579.197	21.99
579.392	21.86
579.587	21.86
579.781	21.94
579.976	21.92
580.171	21.91
580.365	22.05
580.56	21.89
580.755	21.88
580.949	21.95
581.144	21.79
581.338	21.66
581.533	21.76
581.727	21.92
581.922	22.02
582.116	22.05
582.311	22.18
582.505	22.35
582.7	22.45
582.894	22.59
583.089	22.45
583.283	22.65
583.478	23
583.672	22.93
583.866	23.04
584.061	23.05
584.255	23.17
584.449	23.14
584.644	23.12
584.838	23.24
585.032	23.16
585.226	23.42
585.421	23.41
585.615	23.28
585.809	23.41
586.003	23.4
586.198	23.45
586.392	23.56
586.586	23.65
586.78	23.63
586.974	23.69
587.168	23.71
587.363	23.62
587.557	23.63
587.751	23.79
587.945	23.86
588.139	23.86
588.333	23.98
588.527	23.93
588.721	24.01
588.915	24.09
589.109	24.04
589.303	24.21
589.497	24.26
589.691	24.38
589.885	24.3
590.079	24.24
590.273	24.13
590.466	24.07
590.66	24.12
590.854	24.16
591.048	24.22
591.242	24.2
591.436	24.12
591.629	24.24
591.823	24.23
592.017	24.36
592.211	24.58
592.404	24.75
592.598	24.74
592.792	24.77
592.986	24.75
593.179	24.7
593.373	24.85
593.567	24.93
593.76	24.87
593.954	25
594.147	25.18
594.341	25.12
594.535	25.26
594.728	25.31
594.922	25.37
595.115	25.45
595.309	25.58
595.502	25.72
595.696	25.76
595.889	25.9
596.083	25.93
596.276	25.86
596.47	25.96
596.663	25.92
596.856	25.99
597.05	26.04
597.243	25.99
597.437	25.98
597.63	25.86
597.823	25.77
598.017	25.75
598.21	25.63
598.403	25.58
598.596	25.6
598.79	25.71
598.983	25.8
599.176	25.69
599.369	25.88
599.563	25.87
599.756	25.89
599.949	25.88
600.142	26.01
600.335	26.15
600.528	26.14
600.722	26.11
600.915	26.05
601.108	26.15
601.301	26.28
601.494	26.27
601.687	26.3
601.88	26.36
602.073	26.42
602.266	26.44
602.459	26.44
602.652	26.46
602.845	26.49
603.038	26.45
603.231	26.42
603.424	26.45
603.617	26.49
603.809	26.55
604.002	26.52
604.195	26.65
604.388	26.58
604.581	26.71
604.774	26.84
604.966	26.88
605.159	26.89
605.352	26.87
605.545	26.9
605.737	26.97
605.93	27.08
606.123	27.2
606.316	27.24
606.508	27.38
606.701	27.36
606.894	27.37
607.086	27.45
607.279	27.5
607.471	27.57
607.664	27.62
607.857	27.65
608.049	27.64
608.242	27.52
608.434	27.5
608.627	27.36
608.819	27.38
609.012	27.32
609.204	27.33
609.397	27.51
609.589	27.48
609.782	27.41
609.974	27.39
610.166	27.37
610.359	27.52
610.551	27.66
610.743	27.86
610.936	27.86
611.128	28.02
611.32	28.02
611.513	27.93
611.705	28.03
611.897	28.03
612.09	28.01
612.282	27.99
612.474	28.21
612.666	28.22
612.858	28.23
613.051	28.28
613.243	28.22
613.435	28.27
613.627	28.13
613.819	28.07
614.011	28.63
614.203	28.68
614.395	28.73
614.588	28.57
614.78	28.44
614.972	28.28
615.164	28.22
615.356	28.09
615.548	27.92
615.74	28.01
615.932	28.13
616.124	27.58
616.315	27.76
616.507	27.91
616.699	27.73
616.891	27.83
617.083	27.94
617.275	27.96
617.467	28.14
617.659	28.44
617.85	28.55
618.042	28.54
618.234	28.52
618.426	28.39
618.618	28.21
618.809	28.38
619.001	28.42
619.193	28.55
619.384	28.58
619.576	28.54
619.768	28.25
619.959	28.3
620.151	28.46
620.343	28.58
620.534	28.63
620.726	28.54
620.917	28.58
621.109	28.46
621.301	28.35
621.492	28.44
621.684	28.42
621.875	28.55
622.067	28.43
622.258	28.17
622.45	28.21
622.641	28.03
622.832	28.27
623.024	28.28
623.215	28.41
623.407	28.39
623.598	28.38
623.789	28.49
623.981	28.43
624.172	28.67
624.363	28.82
624.555	28.94
624.746	29.06
624.937	29.04
625.129	29.13
625.32	28.98
625.511	29.23
625.702	29.02
625.893	29.12
626.085	29.29
626.276	29.14
626.467	29.08
626.658	28.95
626.849	28.93
627.04	28.98
627.231	29.07
627.422	29.25
627.614	29.06
627.805	29.27
627.996	29.21
628.187	29.08
628.378	29.09
628.569	29.27
628.76	29.37
628.951	29.32
629.142	29.19
629.332	28.93
629.523	28.79
629.714	28.75
629.905	28.7
630.096	28.52
630.287	28.65
630.478	28.63
630.669	28.58
630.859	28.8
631.05	28.94
631.241	29
631.432	29.11
631.623	29.31
631.813	29.19
632.004	29.3
632.195	29.35
632.385	29.35
632.576	29.53
632.767	29.4
632.957	29.32
633.148	29.49
633.339	29.42
633.529	29.29
633.72	29.36
633.91	29.56
634.101	29.44
634.292	29.61
634.482	29.56
634.673	29.45
634.863	29.56
635.054	29.5
635.244	29.31
635.435	29.42
635.625	29.43
635.815	29.29
636.006	29.53
636.196	29.62
636.387	29.48
636.577	29.58
636.767	29.56
636.958	29.54
637.148	29.56
637.338	29.64
637.529	29.65
637.719	29.83
637.909	29.93
638.099	29.75
638.29	29.89
638.48	30.22
638.67	30.24
638.86	30.3
639.05	30.21
639.241	30.17
639.431	30.06
639.621	30.11
639.811	30.24
640.001	30.09
640.191	29.95
640.381	29.79
640.571	29.76
640.761	29.65
640.951	29.71
641.141	29.79
641.331	29.63
641.521	29.75
641.711	29.76
641.901	29.63
642.091	29.74
642.281	29.66
642.471	29.53
642.661	29.29
642.851	29.59
643.041	29.61
643.231	29.62
643.42	29.66
643.61	29.45
643.8	29.35
643.99	29.32
644.18	29.55
644.369	29.96
644.559	30.29
644.749	30.42
644.939	30.3
645.128	30.22
645.318	30.29
645.508	30.48
645.697	30.67
645.887	30.71
646.076	30.73
646.266	30.84
646.456	30.72
646.645	30.76
646.835	30.64
647.024	30.5
647.214	30.6
647.403	30.61
647.593	30.58
647.782	30.44
647.972	30.39
648.161	30.55
648.351	30.37
648.54	30.22
648.73	30.01
648.919	29.95
649.108	29.9
649.298	29.93
649.487	30.06
649.677	29.96
649.866	30.03
650.055	30.19
650.244	30.18
650.434	30.3
650.623	30.6
650.812	30.73
651.002	30.97
651.191	31.07
651.38	31.02
651.569	30.84
651.758	30.72
651.947	30.9
652.137	31
652.326	31.11
652.515	30.93
652.704	30.89
652.893	31.06
653.082	31.07
653.271	31.14
653.46	30.98
653.649	31.15
653.838	31.33
654.027	31.29
654.216	31.13
654.405	31
654.594	31.06
654.783	30.73
654.972	30.47
655.161	30.57
655.35	30.71
655.539	30.91
655.728	30.69
655.916	30.8
656.105	30.65
656.294	30.84
656.483	30.83
656.672	30.83
656.86	30.89
657.049	30.97
657.238	30.74
657.427	30.49
657.615	30.46
657.804	30.68
657.993	30.82
658.181	30.96
658.37	31
658.559	31.1
658.747	31.04
658.936	31.26
659.125	30.87
659.313	30.88
659.502	31.05
659.69	30.98
659.879	30.98
660.067	30.86
660.256	30.79
660.444	30.63
660.633	30.6
660.821	30.64
661.01	30.52
661.198	31.03
661.387	31.31
661.575	31.45
661.763	31.72
661.952	31.48
662.14	31.27
662.328	31.25
662.517	31.37
662.705	31
662.893	30.99
663.082	31.03
663.27	30.98
663.458	30.81
663.646	30.81
663.834	30.63
664.023	30.84
664.211	31.04
664.399	31.18
664.587	31.14
664.775	31.53
664.963	31.66
665.152	31.52
665.34	31.74
665.528	31.75
665.716	31.75
665.904	31.94
666.092	31.85
666.28	31.81
666.468	31.98
666.656	31.84
666.844	31.88
667.032	32.18
667.22	32.3
667.408	32.15
667.596	32.24
667.784	32.36
667.971	32.16
668.159	32.18
668.347	32.11
668.535	32.02
668.723	32.17
668.911	32.11
669.098	31.77
669.286	31.99
669.474	32.09
669.662	32.07
669.849	31.94
670.037	32.16
670.225	32.43
670.413	32.65
670.6	32.41
670.788	32.46
670.976	32.54
671.163	32.55
671.351	32.29
671.538	32.19
671.726	32.34
671.913	32.1
672.101	32.06
672.289	31.81
672.476	31.73
672.664	32.06
672.851	31.83
673.039	31.73
673.226	31.66
673.413	31.7
673.601	31.99
673.788	31.82
673.976	32.15
674.163	32.1
674.35	32.26
674.538	32.3
674.725	32.2
674.912	32.3
675.1	32.57
675.287	32.69
675.474	32.57
675.662	32.57
675.849	32.62
676.036	32.49
676.223	32.68
676.411	32.65
676.598	32.55
676.785	32.62
676.972	32.83
677.159	32.89
677.346	33
677.533	33.15
677.721	32.87
677.908	32.9
678.095	32.86
678.282	32.61
678.469	32.52
678.656	32.74
678.843	32.73
679.03	32.52
679.217	32.47
679.404	32.58
679.591	32.49
679.778	32.56
679.964	32.71
680.151	32.65
680.338	32.63
680.525	32.79
680.712	32.76
680.899	32.88
681.086	32.73
681.272	32.5
681.459	32.28
681.646	32.35
681.833	32.39
682.02	31.97
682.206	31.92
682.393	31.83
682.58	31.65
682.766	31.54
682.953	31.51
683.14	31.75
683.326	32.28
683.513	32.44
683.7	32.67
683.886	32.57
684.073	32.48
684.259	32.76
684.446	33.35
684.632	33.59
684.819	33.56
685.005	33.44
685.192	33.42
685.378	33.18
685.565	33.06
685.751	32.98
685.938	33.14
686.124	33.55
686.31	33.57
686.497	33.41
686.683	33.19
686.87	33.12
687.056	33.15
687.242	33.39
687.429	33.36
687.615	33.48
687.801	33.4
687.987	33.55
688.174	33.43
688.36	33.44
688.546	33.4
688.732	33.56
688.918	33.35
689.105	33.45
689.291	33.29
689.477	33.17
689.663	33.21
689.849	33.21
690.035	32.97
690.221	32.95
690.407	33.44
690.593	33.13
690.779	33.13
690.965	33.25
691.151	33.26
691.337	33.39
691.523	33.36
691.709	33.4
691.895	33.6
692.081	33.65
692.267	33.64
692.453	33.31
692.639	33.57
692.825	33.48
693.011	33.9
693.196	33.86
693.382	33.58
693.568	33.18
693.754	33.11
693.94	32.98
694.125	33.12
694.311	33.38
694.497	33.15
694.682	33.2
694.868	33.33
695.054	33.29
695.239	33.3
695.425	33.38
695.611	33.82
695.796	33.89
695.982	33.75
696.168	33.61
696.353	33.59
696.539	33.63
696.724	33.77
696.91	33.7
697.095	33.74
697.281	33.6
697.466	33.72
697.652	33.72
697.837	33.76
698.023	33.77
698.208	33.59
698.393	33.51
698.579	33.33
698.764	33.13
698.949	33.14
699.135	33.03
699.32	32.98
699.505	32.8
699.691	32.91
699.876	32.55
700.061	32.55
700.246	32.77
700.432	32.77
700.617	32.83
700.802	32.83
700.987	32.81
701.172	33.36
701.358	33.52
701.543	33.71
701.728	33.48
701.913	33.71
702.098	33.82
702.283	34.02
702.468	34.26
702.653	34.4
702.838	34.48
703.023	34.4
703.208	33.83
703.393	33.85
703.578	34.18
703.763	34.39
703.948	34.36
704.133	34.33
704.318	33.91
704.503	34.12
704.688	34.29
704.873	33.91
705.057	34.15
705.242	34.42
705.427	34.25
705.612	33.88
705.797	33.54
705.981	33.63
706.166	33.41
706.351	34.11
706.536	33.48
706.72	33.02
706.905	33.72
707.09	33.65
707.274	33.36
707.459	33.34
707.644	33.4
707.828	33.71
708.013	33.45
708.197	33.89
708.382	33.69
708.567	33.91
708.751	34.06
708.936	33.72
709.12	33.7
709.305	33.75
709.489	34.06
709.673	33.56
709.858	33.3
710.042	33.32
710.227	33.39
710.411	33.17
710.596	33.16
710.78	33.45
710.964	33.49
711.149	33.83
711.333	33.65
711.517	33.2
711.702	33.68
711.886	33.84
712.07	33.89
712.254	33.49
712.438	33.36
712.623	33.25
712.807	33.33
712.991	33.42
713.175	33.26
713.359	33.62
713.544	33.85
713.728	33.62
713.912	33.4
714.096	33.56
714.28	33.71
714.464	33.86
714.648	33.78
714.832	33.68
715.016	33.33
715.2	33.15
715.384	33.27
715.568	33.43
715.752	33.41
715.936	33.82
716.12	33.83
716.304	34.06
716.488	33.99
716.671	34.05
716.855	34.29
717.039	34.51
717.223	34.35
717.407	34.06
717.59	34.32
717.774	34.53
717.958	34.48
718.142	34.28
718.325	34.07
718.509	34.61
718.693	34.74
718.877	34.02
719.06	34.17
719.244	34.89
719.428	35.07
719.611	35.07
719.795	35.48
719.978	35.37
720.162	35.44
720.345	35.86
720.529	35.19
720.713	35.29
720.896	35.67
721.08	34.94
721.263	34.69
721.446	34.37
721.63	34.27
721.813	33.71
721.997	33.78
722.18	34.14
722.364	33.63
722.547	33.78
722.73	33.77
722.914	33.97
723.097	34.44
723.28	34.23
723.464	34.39
723.647	33.94
723.83	34
724.013	33.77
724.197	33.7
724.38	33.64
724.563	33.77
724.746	33.78
724.929	33.86
725.112	34.11
725.296	34.24
725.479	34.46
725.662	34.67
725.845	34.81
726.028	34.69
726.211	34.6
726.394	34.84
726.577	34.86
726.76	34.9
726.943	34.74
727.126	34.54
727.309	34.87
727.492	34.9
727.675	34.59
727.858	34.85
728.041	35.09
728.224	35.14
728.407	34.63
728.589	34.52
728.772	34.34
728.955	34.93
729.138	34.64
729.321	34.26
729.503	33.88
729.686	34.87
729.869	34.61
730.052	34.9
730.234	35.29
730.417	35.67
730.6	35.8
730.782	36.02
730.965	35.1
731.148	35.83
731.33	35.83
731.513	35.8
731.695	34.99
731.878	35.36
732.061	35.15
732.243	35.1
732.426	35.29
732.608	35.6
732.791	35.48
732.973	35.81
733.156	35.62
733.338	35.52
733.52	35.44
733.703	35.82
733.885	35.08
734.068	35.07
734.25	34.76
734.432	34.48
734.615	33.8
734.797	34.03
734.979	33.66
735.162	33.59
735.344	33.61
735.526	33.31
735.708	32.9
735.891	33.63
736.073	33.19
736.255	32.8
736.437	32.81
736.619	32.61
736.802	32.23
736.984	32.9
737.166	32.98
737.348	32.86
737.53	33.58
737.712	34.12
737.894	34.27
738.076	34.23
738.258	34.53
738.44	34.22
738.622	34.7
738.804	35.19
738.986	34.64
739.168	34.39
739.35	34.22
739.532	34.41
739.714	33.77
739.896	32.93
740.078	33.53
740.259	33.43
740.441	33.87
740.623	33.53
740.805	33.73
740.987	33.9
741.168	34.02
741.35	34.49
741.532	34.23
741.714	34.84
741.895	35.14
742.077	34.89
742.259	34.33
742.44	34.5
742.622	35.07
742.804	34.48
742.985	34.42
743.167	34.35
743.348	34.24
743.53	34.43
743.711	34.16
743.893	34.31
744.075	34.26
744.256	34.8
744.438	35.09
744.619	35.05
744.8	35.09
744.982	34.87
745.163	35.03
745.345	35.14
745.526	35.41
745.707	35.26
745.889	35.2
746.07	35.63
746.252	35.58
746.433	34.56
746.614	34.59
746.795	34.84
746.977	35.58
747.158	35.83
747.339	35.75
747.52	35.32
747.702	35.36
747.883	35.59
748.064	35.3
748.245	36.3
748.426	37.49
748.607	37.24
748.788	37.41
748.97	37.31
749.151	37.21
749.332	37.87
749.513	38.08
749.694	38.08
749.875	37.69
750.056	37.82
750.237	36.72
750.418	35.82
750.599	35.61
750.78	34.99
750.96	34.71
751.141	34.66
751.322	33.97
751.503	33.72
751.684	34.05
751.865	34.15
752.046	34.89
752.226	35.1
752.407	35.16
752.588	35.3
752.769	35.49
752.949	35.76
753.13	36.07
753.311	36.27
753.492	36.51
753.672	36.48
753.853	36.77
754.034	36.02
754.214	36.4
754.395	36.16
754.575	36.08
754.756	35.81
754.937	35.69
755.117	35.13
755.298	34.3
755.478	34.21
755.659	34.14
755.839	34.21
756.02	34.73
756.2	34.53
756.381	34.52
756.561	35.03
756.741	35.7
756.922	35.17
757.102	34.79
757.283	35.09
757.463	35.29
757.643	34.75
757.823	34.37
758.004	33.62
758.184	32.63
758.364	33.04
758.545	33.59
758.725	33.05
758.905	33.78
759.085	33.8
759.265	34.08
759.446	33.6
759.626	34.21
759.806	35.28
759.986	34.9
760.166	35.45
760.346	35.34
760.526	35.06
760.706	35.35
760.886	35.29
761.066	35.85
761.246	36.08
761.426	36.39
761.606	35.58
761.786	34.77
761.966	35.47
762.146	35.85
762.326	36.1
762.506	36.34
762.686	36.21
762.866	36.26
763.046	35.89
763.225	35.99
763.405	35.66
763.585	36.06
763.765	35.92
763.945	35.67
764.124	35.69
764.304	35.44
764.484	35.16
764.664	35.07
764.843	35.14
765.023	35.67
765.203	35.47
765.382	35.53
765.562	35.39
765.741	36.04
765.921	36.8
766.101	36.36
766.28	36.55
766.46	36.43
766.639	36.94
766.819	37.26
766.998	37.07
767.178	37.19
767.357	36.87
767.537	37.15
767.716	36.28
767.896	35.18
768.075	35.92
768.254	36.06
768.434	35.64
768.613	35.68
768.792	34.79
768.972	34.77
769.151	34.33
769.33	35.04
769.51	35.98
769.689	37.09
769.868	37.79
770.047	37.36
770.226	36.64
770.406	37.39
770.585	37.31
770.764	38.1
770.943	37.7
771.122	37.13
771.301	36.96
771.48	36.44
771.66	35.94
771.839	35.84
772.018	35.76
772.197	35.82
772.376	35.21
772.555	34.6
772.734	34.62
772.913	34.58
773.092	35.48
773.271	35.92
773.449	35.5
773.628	35.17
773.807	35.22
773.986	35.07
774.165	35.11
774.344	35.62
774.523	35.22
774.701	34.64
774.88	35.12
775.059	35.03
775.238	34.54
775.417	34.95
775.595	35.35
775.774	35.98
775.953	36.04
776.131	36.4
776.31	35.71
776.489	36.68
776.667	36.51
776.846	36.88
777.025	36.41
777.203	36.92
777.382	37.33
777.56	37.44
777.739	36.5
777.917	36.78
778.096	37
778.274	37.73
778.453	37.58
778.631	37.69
778.81	36.7
778.988	38.32
779.166	38.53
779.345	37.31
779.523	37.12
779.702	37.21
779.88	37.42
780.058	37.24
780.237	36.73
780.415	36.94
780.593	36.73
780.771	37.12
780.95	36.05
781.128	35.56
781.306	35.68
781.484	35.92
781.662	35.1
781.841	33.88
782.019	33.62
782.197	33.4
782.375	32.28
782.553	32.36
782.731	32.32
782.909	31.75
783.087	32.34
783.265	33.09
783.443	32.86
783.621	33.21
783.799	34.28
783.977	35.64
784.155	35.62
784.333	36.5
784.511	37.06
784.689	36.88
784.867	37.74
785.045	37.1
785.223	36.75
785.4	36.3
785.578	37.31
785.756	36.31
785.934	36.2
786.112	37.58
786.289	36.46
786.467	36.16
786.645	36.46
786.823	35.34
787	34.71
787.178	34.65
787.356	35
787.533	34.82
787.711	35.45
787.889	34.79
788.066	33.8
788.244	35.15
788.421	34.63
788.599	34.49
788.776	35.13
788.954	35.16
789.131	35.3
789.309	34.73
789.486	35.72
789.664	36.24
789.841	36.23
790.019	36.83
790.196	36.03
790.373	36.56
790.551	37.02
790.728	36.34
790.906	37.66
791.083	38.32
791.26	38.81
791.437	36.78
791.615	35.28
791.792	35.4
791.969	34.62
792.146	35.26
792.324	35.04
792.501	34.44
792.678	35.53
792.855	34.49
793.032	33.68
793.209	34.65
793.387	36.26
793.564	38
793.741	38.04
793.918	37.99
794.095	38.58
794.272	37.89
794.449	38.87
794.626	37.87
794.803	38.26
794.98	38.47
795.157	37.74
795.334	37.03
795.511	36.29
795.688	35.46
795.864	35.43
796.041	34.9
796.218	36.71
796.395	36.43
796.572	37.57
796.749	37.56
796.925	37.22
797.102	37.21
797.279	36.74
797.456	36.89
797.632	37.73
797.809	37.94
797.986	37.93
798.162	37.4
798.339	36.38
798.516	36.43
798.692	36.07
798.869	36.67
799.046	37.53
799.222	38.47
799.399	38.23
799.575	38.41
799.752	38.47
799.928	38.59
800.105	38.43
800.281	38.94
800.458	37.54
800.634	37.4
800.811	37.29
800.987	36.44
801.163	35.82
801.34	35.78
801.516	35.59
801.692	36.12
801.869	36.28
802.045	36.93
802.221	37.03
802.398	38
802.574	37.65
802.75	36.78
802.926	36.01
803.103	36.89
803.279	37.5
803.455	37.46
803.631	37.19
803.807	37.01
803.983	35.88
804.16	36.61
804.336	37.22
804.512	37.71
804.688	38.98
804.864	40.13
805.04	39.65
805.216	39.04
805.392	39.15
805.568	39.88
805.744	39.89
805.92	39.6
806.096	39.2
806.272	39.16
806.448	40.19
806.623	39.43
806.799	38.92
806.975	38.07
807.151	38.64
807.327	37.65
807.503	36.73
807.678	36.75
807.854	37.88
808.03	36.79
808.206	35.75
808.381	35.16
808.557	35.64
808.733	36.11
808.908	36.86
809.084	36.28
809.26	36.2
809.435	35.36
809.611	36.52
809.787	35.31
809.962	37.92
810.138	37.29
810.313	37.51
810.489	36.76
810.664	36
810.84	35.72
811.015	36.43
811.191	37.4
811.366	38.22
811.542	37.4
811.717	37.74
811.892	37.72
812.068	40.2
812.243	39.83
812.419	41.3
812.594	41.76
812.769	42.22
812.944	42.23
813.12	41.38
813.295	42.75
813.47	42.03
813.645	43.22
813.821	41.72
813.996	41.36
814.171	41.06
814.346	39.92
814.521	40.5
814.697	40.33
814.872	40.12
815.047	40.65
815.222	39.78
815.397	39.79
815.572	38.99
815.747	38.92
815.922	38.77
816.097	39.66
816.272	38.46
816.447	37.4
816.622	36.93
816.797	38.61
816.972	39.88
817.147	38.87
817.322	38.43
817.496	38.02
817.671	38.83
817.846	37.59
818.021	36.33
818.196	36.81
818.371	36.85
818.545	36.39
818.72	35.66
818.895	35.4
819.069	35.4
819.244	36.36
819.419	36.4
819.594	36.48
819.768	36.52
819.943	37.78
820.117	37.65
820.292	37.41
820.467	37.79
820.641	37.22
820.816	36.65
820.99	36.61
821.165	36.13
821.339	35.89
821.514	35.42
821.688	35.29
821.863	34.69
822.037	34.74
822.212	35.04
822.386	34.77
822.56	34.67
822.735	34.38
822.909	34.4
823.084	34.63
823.258	34.73
823.432	35.07
823.606	34.93
823.781	35.19
823.955	35.26
824.129	34.99
824.303	35.01
824.478	35.01
824.652	35.6
824.826	35.39
825	34.9
825.174	34.89
825.348	34
825.523	34.25
825.697	34.03
825.871	34.07
826.045	34.28
826.219	34.77
826.393	34.89
826.567	34.95
826.741	35.71
826.915	36.19
827.089	36.7
827.263	36.94
827.437	36.6
827.611	36.72
827.784	36.49
827.958	36.6
828.132	36.41
828.306	36.32
828.48	35.99
828.654	35.33
828.827	34.57
829.001	33.68
829.175	34.63
829.349	35.71
829.522	35.66
829.696	36.31
829.87	35.81
830.044	36.24
830.217	37.08
830.391	37.95
830.565	38.05
830.738	39.32
830.912	40.09
831.085	39.49
831.259	40.17
831.432	40.43
831.606	39.74
831.779	39.81
831.953	38.02
832.126	37.69
832.3	37.7
832.473	37.46
832.647	36.8
832.82	36.52
832.994	36.15
833.167	36.04
833.34	35.78
833.514	35.65
833.687	35.3
833.86	36.3
834.034	35.84
834.207	35.06
834.38	35.21
834.553	35.66
834.727	35.34
834.9	35.98
835.073	36.21
835.246	36.53
835.419	36.8
835.593	38.03
835.766	37.59
835.939	38.51
836.112	40.2
836.285	40.35
836.458	39.99
836.631	40.28
836.804	39.56
836.977	38.4
837.15	38.74
837.323	38.21
837.496	37.48
837.669	37.57
837.842	37.41
838.015	36.86
838.188	36.47
838.361	36.25
838.533	36.03
838.706	37.32
838.879	35.38
839.052	34.79
839.225	35.95
839.398	34.95
839.57	36.19
839.743	36.38
839.916	35.29
840.088	38.13
840.261	38.22
840.434	37.7
840.607	36.22
840.779	37.94
840.952	37.95
841.124	38.31
841.297	38.28
841.47	38.4
841.642	37.37
841.815	39.04
841.987	34.89
842.16	34.5
842.332	35.96
842.505	35.83
842.677	36.39
842.85	38.8
843.022	36.74
843.194	38.06
843.367	37.81
843.539	38.61
843.712	36.45
843.884	37.3
844.056	38.75
844.229	40.09
844.401	43.84
844.573	44.04
844.745	42.76
844.918	42.75
845.09	44
845.262	44.58
845.434	45.25
845.606	44.25
845.779	47.54
845.951	47.33
846.123	44.63
846.295	41.5
846.467	40.7
846.639	42.71
846.811	47.04
846.983	45.43
847.155	44.63
847.327	43.88
847.499	46.69
847.671	44.84
847.843	43.32
848.015	40.95
848.187	41.62
848.359	44.58
848.531	43.69
848.703	41.75
848.875	42.67
849.047	41.88
849.218	39.77
849.39	40.09
849.562	38.55
849.734	41.4
849.905	43.91
850.077	46.05
850.249	45.85
850.421	43.08
850.592	39.1
850.764	39.7
850.936	42.5
851.107	48.51
851.279	47.62
851.451	51.05
851.622	50.86
851.794	56.26
851.965	54.49
852.137	50.93
852.308	53.02
852.48	60.67
852.651	58.17
852.823	52.94
852.994	48.2
853.166	47.23
853.337	43.38
853.509	40.67
853.68	38.15
853.851	42.12
854.023	44.21
854.194	46.16
854.365	44.56
854.537	43.51
854.708	49.5
854.879	52.61
855.05	54.39
855.222	58.54
855.393	62.18
855.564	65.42
855.735	66.84
855.906	65.27
856.078	60.95
856.249	64.63
856.42	66.83
856.591	61.67
856.762	60.52
856.933	58.55
857.104	55.27
857.275	56.17
857.446	50.92
857.617	48.53
857.788	49.81
857.959	50.73
858.13	44.08
858.301	43.24
858.472	41.68
858.643	41.18
858.814	43.28
858.985	41.8
859.155	40.59
859.326	42.85
859.497	40.46
859.668	40.14
859.839	43.17
860.009	46.01
860.18	47.54
860.351	47.95
860.522	47.62
860.692	47.14
860.863	48.57
861.034	47.6
861.204	49.62
861.375	48.74
861.546	48.39
861.716	48.39
861.887	50.27
862.057	49.49
862.228	47.47
862.398	50.27
862.569	48.56
862.739	51.97
862.91	49.98
863.08	45.68
863.251	46.78
863.421	46.56
863.592	43.91
863.762	42.96
863.932	42.79
864.103	47.69
864.273	47.78
864.443	47.96
864.614	45.88
864.784	48.64
864.954	49.93
865.125	54.19
865.295	52.43
865.465	52.1
865.635	46.69
865.805	49.85
865.976	46.53
866.146	44.14
866.316	41.95
866.486	44.02
866.656	45.5
866.826	45.52
866.996	42.38
867.166	46.44
867.336	50.86
867.506	57.25
867.676	53.28
867.846	52.58
868.016	50.41
868.186	52.62
868.356	47.92
868.526	41.6
868.696	43.53
868.866	44.78
869.036	39.12
869.206	33.72
869.376	33.42
869.545	34.04
869.715	36.6
869.885	39.21
870.055	39.37
870.224	44.81
870.394	45.8
870.564	47.42
870.734	45.64
870.903	48.13
871.073	47.09
871.243	48.14
871.412	48.2
871.582	50.85
871.751	54.07
871.921	55.17
872.091	54.29
872.26	53.3
872.43	48.45
872.599	48.22
872.769	50.73
872.938	49.16
873.108	50.14
873.277	52.59
873.446	50.63
873.616	52.16
873.785	55.67
873.955	53.93
874.124	55.94
874.293	55.01
874.463	55.78
874.632	55.73
874.801	58.65
874.971	57.14
875.14	54.6
875.309	51.86
875.478	50.24
875.647	44.77
875.817	45.98
875.986	50.01
876.155	52.04
876.324	49.86
876.493	46.78
876.662	41.99
876.831	41.58
877	42.91
877.17	45.12
877.339	43.92
877.508	46.68
877.677	47.78
877.846	45.56
878.015	47.71
878.184	47.54
878.352	48.5
878.521	49.41
878.69	51.24
878.859	50.68
879.028	49.33
879.197	47.72
879.366	45.61
879.534	43.76
879.703	41.8
879.872	40.83
880.041	40.5
880.21	40.33
880.378	42.46
880.547	41.18
880.716	39.88
880.884	38.81
881.053	38.16
881.222	37.63
881.39	37.37
881.559	37.45
881.727	37.2
881.896	36.46
882.065	36.19
882.233	36.17
882.402	35.6
882.57	36.07
882.739	36.73
882.907	37.28
883.076	37.27
883.244	37.09
883.412	37.74
883.581	37.75
883.749	38.32
883.918	38.3
884.086	38.14
884.254	39.54
884.423	39.08
884.591	39.23
884.759	38.17
884.927	38.74
885.096	38.81
885.264	38.96
885.432	37.95
885.6	39.78
885.769	40.03
885.937	39.1
886.105	38.99
886.273	39.54
886.441	38.76
886.609	41.07
886.777	40.14
886.945	41.31
887.113	39.64
887.281	39.52
887.449	37.35
887.617	37.39
887.785	40.67
887.953	39.62
888.121	39.56
888.289	40.6
888.457	40.12
888.625	39.04
888.793	39.9
888.961	40.12
889.129	46.8
889.296	45.22
889.464	46.53
889.632	43.53
889.8	41.64
889.967	42
890.135	42.01
