Data from 2938435_Reflection_3.txt Node
Date: Fri Jun 19 18:39:19 EDT 2015
User: robert
Spectrometer: USB4E03002
Autoset integration time: false
Trigger mode: 4
Integration Time (sec): 1.000000E-1
Scans to average: 10
Electric dark correction enabled: true
Nonlinearity correction enabled: false
Boxcar width: 5
Stray light correction enabled: false
XAxis mode: Wavelengths
Stop averaging: false
Number of Pixels in Spectrum: 3648
>>>>>Begin Spectral Data<<<<<
177.575	-129.78
177.794	97.03
178.014	447.92
178.233	-62633.33
178.452	289.9
178.672	409.68
178.891	136.83
179.11	178.6
179.33	619.95
179.549	114.12
179.768	78.33
179.987	365.96
180.207	-137.46
180.426	-277.16
180.645	-100.47
180.864	-364.55
181.084	-62.42
181.303	-41.99
181.522	21.86
181.741	-40.5
181.96	16.05
182.179	98.58
182.398	167.43
182.618	212.17
182.837	511.58
183.056	697.71
183.275	260.43
183.494	-2736.61
183.713	-178.15
183.932	-114.21
184.151	30.59
184.37	362.01
184.589	261.33
184.808	150.64
185.027	74.56
185.246	86.43
185.465	-177
185.684	-237.76
185.903	104.25
186.122	157.27
186.341	248.01
186.56	-19147.06
186.779	-133212.5
186.998	-1502.82
187.216	-1959.28
187.435	-1692.08
187.654	-1319.72
187.873	-147.73
188.092	-122.5
188.311	-60.25
188.53	-97.44
188.748	-152.42
188.967	-87.86
189.186	-100.65
189.405	-245.99
189.623	-275.84
189.842	-144.96
190.061	-25.38
190.28	-79.04
190.498	-142.65
190.717	-28.91
190.936	-73.25
191.154	23.28
191.373	-7.99
191.592	-28.89
191.81	12.43
192.029	17.8
192.248	24.71
192.466	-51.28
192.685	-64.48
192.904	-11.68
193.122	-98.64
193.341	-60.67
193.559	-98.28
193.778	-45.64
193.996	-17.59
194.215	-53.94
194.433	-71.17
194.652	-64.03
194.87	-45.19
195.089	-41.27
195.307	-81.16
195.526	-43.13
195.744	-53.1
195.963	-80.33
196.181	-187.57
196.399	-136.95
196.618	-157.4
196.836	-116.5
197.055	-361.83
197.273	-1434.39
197.491	1046.69
197.71	-262.62
197.928	2044.53
198.146	-164.46
198.365	-39.64
198.583	-25.21
198.801	-9.35
199.019	-31
199.238	-7.66
199.456	-5.93
199.674	13.8
199.892	40.61
200.111	95.08
200.329	82.51
200.547	11.49
200.765	806.08
200.983	-311.38
201.202	-157.68
201.42	-7.8
201.638	-17.75
201.856	1.18
202.074	-34.33
202.292	-41.67
202.51	-16.95
202.728	-7.45
202.946	-6.07
203.165	19.38
203.383	48.57
203.601	46.94
203.819	69.88
204.037	117.14
204.255	338.74
204.473	-3.47
204.691	129.81
204.909	345.89
205.127	123.17
205.345	-54.22
205.562	-12.68
205.78	-2.03
205.998	-84.03
206.216	-23.09
206.434	2060.55
206.652	64.54
206.87	45.47
207.088	23.68
207.306	-43.14
207.523	-51.47
207.741	-92.2
207.959	-653.97
208.177	161.04
208.395	597.49
208.612	-396.37
208.83	-63.61
209.048	-125.71
209.266	5030.28
209.483	-525.78
209.701	-217.07
209.919	-124.06
210.136	-251.75
210.354	-79.58
210.572	-51.72
210.79	-50.26
211.007	-138.46
211.225	-372.29
211.442	1372.55
211.66	-367.17
211.878	-132.18
212.095	161.66
212.313	168.54
212.53	151.27
212.748	188.65
212.966	161.71
213.183	188.66
213.401	232.93
213.618	208.44
213.836	239.85
214.053	274.08
214.271	228.7
214.488	17.18
214.705	32.21
214.923	29.82
215.14	11.37
215.358	-26.54
215.575	-95.59
215.793	-210.6
216.01	-108.23
216.227	-68.01
216.445	-39.94
216.662	-161.34
216.879	-141.84
217.097	-123.83
217.314	-75.08
217.531	-21.59
217.749	-6.68
217.966	20.02
218.183	44.44
218.4	25.65
218.618	27.7
218.835	31.77
219.052	51.82
219.269	43.84
219.487	27.78
219.704	10.71
219.921	6.33
220.138	-9.73
220.355	2.21
220.572	-10.08
220.79	6.2
221.007	10.05
221.224	12.59
221.441	-3.93
221.658	-31.54
221.875	-29.79
222.092	-36.45
222.309	-45.93
222.526	-43.23
222.743	-62.36
222.96	-39.47
223.177	-38.2
223.394	-33.01
223.611	-21.89
223.828	-5.42
224.045	3.44
224.262	4.2
224.479	9.43
224.696	14.2
224.913	19.82
225.13	24.28
225.347	25.92
225.564	26.21
225.781	21.48
225.997	14.27
226.214	12.81
226.431	13.7
226.648	15.29
226.865	15.71
227.082	17.59
227.298	15.31
227.515	14.29
227.732	12.38
227.949	11.49
228.165	13.12
228.382	14.32
228.599	13.95
228.816	12.23
229.032	12.31
229.249	11.12
229.466	8.27
229.682	8.74
229.899	7.34
230.116	6.13
230.332	4.62
230.549	3.12
230.765	3.74
230.982	2.84
231.199	7.74
231.415	8.73
231.632	9.01
231.848	10.59
232.065	12.75
232.281	14.94
232.498	15.57
232.714	16.09
232.931	16.73
233.147	14.67
233.364	17.24
233.58	15.88
233.797	12.5
234.013	15.76
234.23	17.27
234.446	14.52
234.662	13.54
234.879	11.7
235.095	12.58
235.312	10.22
235.528	10.97
235.744	8.02
235.961	6.77
236.177	8.06
236.393	6.16
236.61	5.39
236.826	4.22
237.042	5.96
237.258	8.42
237.475	6.94
237.691	9.85
237.907	11.84
238.123	11.93
238.339	9.84
238.556	10.32
238.772	12.26
238.988	11.43
239.204	14.6
239.42	15.06
239.636	13.96
239.853	14.17
240.069	13.72
240.285	14.01
240.501	14.28
240.717	15.92
240.933	16.56
241.149	14.96
241.365	15.33
241.581	14.72
241.797	14.22
242.013	15.33
242.229	16.76
242.445	17.46
242.661	16.42
242.877	15.92
243.093	15.24
243.309	14.38
243.525	16.52
243.741	15.8
243.957	15.48
244.173	14.76
244.388	15.08
244.604	14.34
244.82	15.15
245.036	15.52
245.252	15.34
245.468	15.24
245.683	14.94
245.899	14.69
246.115	15.23
246.331	15
246.547	15.06
246.762	14.99
246.978	14.82
247.194	13.77
247.409	13.67
247.625	14.19
247.841	14.8
248.057	16.01
248.272	15.11
248.488	13.95
248.703	14.82
248.919	14.84
249.135	13.12
249.35	13.03
249.566	13.59
249.782	12.7
249.997	12.42
250.213	12.12
250.428	10.58
250.644	11.67
250.859	12.44
251.075	10.95
251.29	9.84
251.506	11.09
251.721	11.07
251.937	12.34
252.152	13.41
252.368	12.65
252.583	12.38
252.798	11.87
253.014	10.99
253.229	11.56
253.445	12.78
253.66	15.85
253.875	14.96
254.091	15.64
254.306	12.8
254.521	13.32
254.737	15.21
254.952	14.29
255.167	14.35
255.383	14.93
255.598	13.9
255.813	13.48
256.028	12.73
256.244	12.77
256.459	12.34
256.674	13.06
256.889	12.05
257.104	11.86
257.32	11.97
257.535	12.29
257.75	11.59
257.965	11.83
258.18	12.22
258.395	12.35
258.61	12.23
258.826	12.24
259.041	12.19
259.256	12.57
259.471	12.69
259.686	12.43
259.901	12.29
260.116	11.65
260.331	11.79
260.546	11.45
260.761	11.17
260.976	11.21
261.191	11.48
261.406	11.83
261.621	12.07
261.836	10.25
262.05	10.86
262.265	11.18
262.48	13.16
262.695	12.81
262.91	12.42
263.125	11.28
263.34	10.56
263.555	10.22
263.769	9.15
263.984	8.64
264.199	9.69
264.414	7.86
264.629	8.47
264.843	8.76
265.058	9.76
265.273	10.05
265.488	11.06
265.702	11.22
265.917	11.72
266.132	11.11
266.346	10.36
266.561	10.8
266.776	11.91
266.99	11.23
267.205	10.97
267.42	10.31
267.634	11.2
267.849	11.37
268.063	11.81
268.278	11.23
268.492	11.69
268.707	12.3
268.922	11.48
269.136	11.35
269.351	11.79
269.565	12.48
269.78	11.62
269.994	11.26
270.209	11.37
270.423	11.57
270.637	11.64
270.852	11.77
271.066	11.58
271.281	12.11
271.495	12.67
271.709	11.71
271.924	11.24
272.138	11.3
272.353	10.97
272.567	10.55
272.781	10.78
272.996	10.77
273.21	10.01
273.424	10.58
273.638	11.1
273.853	10.15
274.067	10.98
274.281	9.98
274.495	9.54
274.71	9.1
274.924	9.1
275.138	8.51
275.352	9.18
275.566	10.26
275.781	9.36
275.995	8.79
276.209	9.28
276.423	9.9
276.637	10.07
276.851	10.78
277.065	10.73
277.279	10.93
277.493	10.97
277.707	10.38
277.921	9.76
278.135	10.09
278.349	9.8
278.563	10.39
278.777	9.43
278.991	9.91
279.205	10.04
279.419	11.58
279.633	11.6
279.847	11.24
280.061	11.53
280.275	12.21
280.489	12.23
280.703	12.37
280.917	12.32
281.131	12.53
281.344	12.65
281.558	12.91
281.772	12.11
281.986	12.15
282.2	12.35
282.414	11.76
282.627	11.45
282.841	11.25
283.055	10.48
283.269	9.97
283.482	9.99
283.696	9.98
283.91	10.35
284.123	10.82
284.337	10.71
284.551	10.65
284.764	10.76
284.978	10.77
285.192	11.11
285.405	11.51
285.619	11.57
285.833	11.68
286.046	11.82
286.26	11.09
286.473	10.38
286.687	10.25
286.9	10.35
287.114	10.81
287.327	10.97
287.541	10.82
287.754	11.26
287.968	11.18
288.181	11.3
288.395	11.54
288.608	12.05
288.822	12.54
289.035	13.19
289.248	12.7
289.462	11.9
289.675	11.34
289.889	12.07
290.102	12.14
290.315	12.31
290.529	12.52
290.742	11.76
290.955	12.62
291.169	12.21
291.382	12.15
291.595	12.78
291.808	13.55
292.022	14.25
292.235	14.13
292.448	13.97
292.661	14.64
292.875	14.4
293.088	14.31
293.301	12.52
293.514	12.56
293.727	12.34
293.94	12.91
294.153	13.25
294.367	12.78
294.58	12.19
294.793	12.01
295.006	11.85
295.219	12.84
295.432	13.13
295.645	13.83
295.858	13.68
296.071	14.31
296.284	14.21
296.497	13.69
296.71	14.06
296.923	13.79
297.136	14.29
297.349	14.05
297.562	13.36
297.775	14.43
297.988	14.29
298.201	14.12
298.414	12.36
298.626	12.83
298.839	13.17
299.052	13.73
299.265	14.24
299.478	13.59
299.691	13.81
299.903	14.08
300.116	12.4
300.329	12.07
300.542	13.15
300.755	14.23
300.967	13.17
301.18	13.32
301.393	12.17
301.605	12.9
301.818	13.46
302.031	14.09
302.243	13.47
302.456	14.22
302.669	15.05
302.881	14.03
303.094	14.58
303.307	14.36
303.519	14.88
303.732	15.91
303.944	15.66
304.157	16
304.37	15.82
304.582	16.14
304.795	16.16
305.007	16.77
305.22	16.88
305.432	15.46
305.645	15.66
305.857	15.24
306.069	15.72
306.282	16.08
306.494	15.4
306.707	15.24
306.919	14.8
307.132	14.15
307.344	13.14
307.556	12.62
307.769	13.62
307.981	14.28
308.193	13.57
308.406	12.24
308.618	11.62
308.83	12.03
309.043	12.29
309.255	12.51
309.467	12.77
309.679	13.91
309.892	14.16
310.104	14.02
310.316	14
310.528	14.75
310.74	15.08
310.953	15.2
311.165	15.36
311.377	15.5
311.589	15.69
311.801	15.71
312.013	14.62
312.225	15.75
312.437	15.8
312.649	15.63
312.862	16.21
313.074	16.67
313.286	17.07
313.498	16.47
313.71	16.22
313.922	16.94
314.134	17.24
314.346	17.59
314.558	17.43
314.77	17.17
314.982	17.25
315.193	16.26
315.405	17
315.617	16.88
315.829	17.17
316.041	17.02
316.253	16.46
316.465	17.28
316.677	17.34
316.888	16.48
317.1	16.69
317.312	16.34
317.524	17.22
317.736	16.73
317.947	17.26
318.159	17.92
318.371	18.45
318.583	18.51
318.794	17.64
319.006	17.3
319.218	18.54
319.43	17.98
319.641	18.81
319.853	17.83
320.064	18.38
320.276	17.72
320.488	16.96
320.699	16.09
320.911	16.2
321.123	16.77
321.334	16.8
321.546	16.85
321.757	17.58
321.969	17.11
322.18	17.96
322.392	16.83
322.603	18.01
322.815	18.67
323.026	19.35
323.238	18.36
323.449	18.15
323.661	18.18
323.872	17.39
324.083	17.62
324.295	17.93
324.506	17.99
324.718	18.4
324.929	17.46
325.14	17.43
325.352	17.66
325.563	18.28
325.774	18.32
325.986	18.3
326.197	19.37
326.408	19.24
326.62	19.23
326.831	19.03
327.042	19.61
327.253	19.06
327.464	18.7
327.676	18.84
327.887	20.09
328.098	20.14
328.309	20.41
328.52	20.05
328.732	20.48
328.943	20.72
329.154	21.25
329.365	21.4
329.576	22.09
329.787	21.67
329.998	21
330.209	20.9
330.42	21.41
330.631	21.32
330.842	21.81
331.053	21.05
331.264	21.43
331.475	21.85
331.686	21.3
331.897	21.89
332.108	22.57
332.319	21.82
332.53	20.94
332.741	21.22
332.952	21.56
333.163	20.35
333.374	20.84
333.585	20.84
333.795	20.46
334.006	19.7
334.217	19.26
334.428	19.28
334.639	20.03
334.849	20.22
335.06	20.03
335.271	20.49
335.482	20.83
335.692	20.87
335.903	20.53
336.114	20.4
336.325	22.22
336.535	21.99
336.746	22.06
336.957	21.65
337.167	22.01
337.378	21.69
337.589	21.55
337.799	21.71
338.01	21.22
338.22	21.18
338.431	20.91
338.642	19.62
338.852	19.94
339.063	20.1
339.273	20.6
339.484	20.47
339.694	21.12
339.905	20.51
340.115	20.85
340.326	21.74
340.536	21.68
340.746	21.03
340.957	21.11
341.167	20.87
341.378	20.79
341.588	21.88
341.799	22.06
342.009	21.73
342.219	21.67
342.43	21.33
342.64	20.71
342.85	20.2
343.061	20.2
343.271	20.87
343.481	21.18
343.691	21.15
343.902	20.05
344.112	19.5
344.322	19.3
344.532	19.36
344.743	19.44
344.953	19.62
345.163	20.45
345.373	21.13
345.583	21.52
345.793	21.43
346.004	22.05
346.214	22.32
346.424	22.45
346.634	23
346.844	23.53
347.054	23.12
347.264	22.97
347.474	23.01
347.684	23.17
347.894	22.96
348.104	23.58
348.314	22.73
348.524	22.63
348.734	22.65
348.944	22.35
349.154	22.21
349.364	22.67
349.574	22.65
349.784	22.25
349.994	22
350.204	21.42
350.413	21
350.623	20.85
350.833	20.75
351.043	21
351.253	20.11
351.463	20.14
351.672	20.06
351.882	20.41
352.092	20.33
352.302	20.65
352.511	20.49
352.721	19.97
352.931	19.81
353.141	20.07
353.35	20.11
353.56	20.95
353.77	20.34
353.979	19.85
354.189	19.95
354.399	19.66
354.608	19.68
354.818	19.13
355.027	19.05
355.237	19.19
355.447	18.83
355.656	18.82
355.866	18.69
356.075	19.17
356.285	19.62
356.494	19.06
356.704	20.09
356.913	19.44
357.123	20.42
357.332	20.94
357.542	21.37
357.751	21.89
357.96	21.73
358.17	21.63
358.379	21.38
358.589	21.13
358.798	21.41
359.007	20.81
359.217	21.24
359.426	21.15
359.635	21.15
359.845	20.78
360.054	20.05
360.263	19.55
360.472	19.34
360.682	19.23
360.891	19.34
361.1	19.3
361.309	19.56
361.519	19.2
361.728	18.93
361.937	18.77
362.146	18.71
362.355	18.55
362.564	19.05
362.774	18.78
362.983	18.88
363.192	18.83
363.401	18.26
363.61	17.29
363.819	17.21
364.028	17.33
364.237	16.98
364.446	17.18
364.655	17.52
364.864	17.32
365.073	17.33
365.282	17.75
365.491	17.91
365.7	18.43
365.909	19.04
366.118	19.27
366.327	19.18
366.536	18.89
366.745	18.73
366.954	18.76
367.162	18.42
367.371	18.58
367.58	17.9
367.789	17.79
367.998	17.56
368.207	17.61
368.415	17.16
368.624	16.63
368.833	16.61
369.042	16.16
369.25	16.02
369.459	16.55
369.668	16.43
369.877	16.49
370.085	15.86
370.294	15.62
370.503	15.2
370.711	15.29
370.92	15.83
371.129	16.23
371.337	16.24
371.546	16.11
371.754	16.01
371.963	16.3
372.171	16.16
372.38	16.18
372.589	16.33
372.797	16.39
373.006	16.8
373.214	16.29
373.423	16.22
373.631	16.16
373.84	16.38
374.048	16.28
374.256	15.93
374.465	15.8
374.673	15.75
374.882	15.75
375.09	15.76
375.298	15.23
375.507	15.52
375.715	15.55
375.923	15.9
376.132	15.44
376.34	15.15
376.548	15.31
376.757	15.25
376.965	15.21
377.173	14.95
377.381	14.79
377.59	14.57
377.798	14
378.006	13.56
378.214	13.53
378.423	13.83
378.631	13.61
378.839	13.48
379.047	13.43
379.255	13.39
379.463	13.21
379.671	13.29
379.879	13.7
380.088	14.16
380.296	14.35
380.504	14.05
380.712	13.8
380.92	14.04
381.128	13.65
381.336	13.42
381.544	13.41
381.752	13.2
381.96	13.05
382.168	12.84
382.376	12.47
382.584	12.61
382.791	12.64
382.999	12.78
383.207	12.67
383.415	12.62
383.623	12.76
383.831	12.58
384.039	12.57
384.247	12.18
384.454	12.17
384.662	11.91
384.87	11.79
385.078	11.43
385.285	11.54
385.493	11.51
385.701	11.34
385.909	11.15
386.116	10.93
386.324	10.93
386.532	11.01
386.739	10.86
386.947	11.11
387.155	10.69
387.362	10.93
387.57	10.46
387.778	10.37
387.985	10.45
388.193	10.36
388.4	10.58
388.608	10.44
388.816	10.5
389.023	10.32
389.231	10.04
389.438	9.88
389.646	9.76
389.853	9.76
390.061	9.65
390.268	9.6
390.475	9.64
390.683	9.79
390.89	9.74
391.098	9.57
391.305	9.63
391.512	9.69
391.72	9.83
391.927	9.62
392.135	9.4
392.342	9.37
392.549	9.52
392.756	9.49
392.964	9.09
393.171	9.05
393.378	9.09
393.586	9.03
393.793	8.97
394	8.96
394.207	8.96
394.414	8.8
394.622	8.52
394.829	8.58
395.036	8.6
395.243	8.77
395.45	8.89
395.657	8.85
395.864	8.71
396.072	8.66
396.279	8.56
396.486	8.52
396.693	8.78
396.9	8.93
397.107	8.62
397.314	8.58
397.521	8.6
397.728	8.57
397.935	8.59
398.142	8.81
398.349	8.69
398.556	8.65
398.763	8.47
398.97	8.55
399.177	8.72
399.383	8.8
399.59	8.6
399.797	8.32
400.004	8.38
400.211	8.27
400.418	8.27
400.625	8.46
400.831	8.48
401.038	8.64
401.245	8.56
401.452	8.11
401.658	8.03
401.865	8.3
402.072	8.45
402.279	8.4
402.485	8.42
402.692	8.3
402.899	8.26
403.105	8.23
403.312	8.28
403.519	8.36
403.725	8.49
403.932	8.43
404.138	8.2
404.345	8.14
404.552	8
404.758	7.9
404.965	7.83
405.171	7.77
405.378	7.91
405.584	7.85
405.791	7.61
405.997	7.67
406.204	7.63
406.41	7.76
406.617	7.83
406.823	7.88
407.029	7.8
407.236	7.7
407.442	7.59
407.649	7.52
407.855	7.42
408.061	7.55
408.268	7.64
408.474	7.74
408.68	7.63
408.887	7.6
409.093	7.63
409.299	7.76
409.505	7.85
409.712	7.93
409.918	7.93
410.124	8.01
410.33	7.98
410.537	7.95
410.743	7.88
410.949	7.85
411.155	7.93
411.361	7.93
411.567	7.78
411.773	7.8
411.98	7.72
412.186	7.61
412.392	7.43
412.598	7.35
412.804	7.46
413.01	7.51
413.216	7.49
413.422	7.49
413.628	7.31
413.834	7.5
414.04	7.24
414.246	7.12
414.452	7.09
414.658	7.18
414.864	7.14
415.07	6.88
415.275	6.76
415.481	6.83
415.687	6.71
415.893	6.67
416.099	6.61
416.305	6.8
416.511	6.84
416.716	6.94
416.922	6.88
417.128	7.03
417.334	7.01
417.539	7.05
417.745	6.95
417.951	6.91
418.157	7.05
418.362	7.08
418.568	7.08
418.774	7.05
418.979	7.03
419.185	7.04
419.391	6.98
419.596	7.04
419.802	7.09
420.008	7.16
420.213	7.18
420.419	7.1
420.624	6.95
420.83	6.94
421.035	6.96
421.241	6.83
421.446	6.79
421.652	6.86
421.857	6.76
422.063	6.62
422.268	6.58
422.474	6.49
422.679	6.45
422.885	6.57
423.09	6.53
423.295	6.48
423.501	6.51
423.706	6.46
423.911	6.41
424.117	6.54
424.322	6.57
424.527	6.48
424.733	6.61
424.938	6.68
425.143	6.7
425.349	6.64
425.554	6.75
425.759	6.75
425.964	6.82
426.169	6.75
426.375	6.68
426.58	6.7
426.785	6.82
426.99	6.78
427.195	6.74
427.4	6.65
427.605	6.75
427.811	6.62
428.016	6.68
428.221	6.73
428.426	6.6
428.631	6.71
428.836	6.73
429.041	6.69
429.246	6.59
429.451	6.71
429.656	6.72
429.861	6.71
430.066	6.81
430.271	6.83
430.476	6.81
430.681	6.79
430.886	6.79
431.09	6.71
431.295	6.68
431.5	6.68
431.705	6.54
431.91	6.54
432.115	6.51
432.32	6.43
432.524	6.33
432.729	6.33
432.934	6.38
433.139	6.38
433.343	6.47
433.548	6.43
433.753	6.49
433.958	6.44
434.162	6.43
434.367	6.4
434.572	6.44
434.776	6.51
434.981	6.6
435.186	6.64
435.39	6.58
435.595	6.51
435.799	6.59
436.004	6.64
436.209	6.69
436.413	6.72
436.618	6.69
436.822	6.68
437.027	6.65
437.231	6.56
437.436	6.51
437.64	6.45
437.845	6.51
438.049	6.53
438.253	6.47
438.458	6.49
438.662	6.59
438.867	6.61
439.071	6.59
439.275	6.61
439.48	6.57
439.684	6.59
439.888	6.64
440.093	6.6
440.297	6.53
440.501	6.56
440.706	6.52
440.91	6.4
441.114	6.4
441.318	6.39
441.523	6.4
441.727	6.41
441.931	6.39
442.135	6.46
442.339	6.49
442.543	6.51
442.748	6.41
442.952	6.37
443.156	6.35
443.36	6.36
443.564	6.46
443.768	6.43
443.972	6.5
444.176	6.44
444.38	6.37
444.584	6.34
444.788	6.37
444.992	6.44
445.196	6.49
445.4	6.41
445.604	6.4
445.808	6.33
446.012	6.28
446.216	6.27
446.42	6.33
446.624	6.32
446.828	6.35
447.032	6.33
447.235	6.3
447.439	6.25
447.643	6.37
447.847	6.36
448.051	6.36
448.254	6.37
448.458	6.35
448.662	6.3
448.866	6.27
449.069	6.22
449.273	6.23
449.477	6.18
449.681	6.3
449.884	6.28
450.088	6.32
450.292	6.3
450.495	6.38
450.699	6.44
450.902	6.51
451.106	6.64
451.31	6.65
451.513	6.61
451.717	6.66
451.92	6.53
452.124	6.6
452.327	6.55
452.531	6.59
452.734	6.52
452.938	6.34
453.141	6.31
453.345	6.09
453.548	6.05
453.752	6.01
453.955	5.94
454.158	5.98
454.362	5.95
454.565	5.91
454.769	5.8
454.972	5.77
455.175	5.82
455.379	5.83
455.582	5.89
455.785	5.95
455.988	5.92
456.192	5.92
456.395	5.87
456.598	5.89
456.801	6
457.005	6.04
457.208	6.15
457.411	6.21
457.614	6.16
457.817	6.17
458.021	6.21
458.224	6.24
458.427	6.3
458.63	6.31
458.833	6.29
459.036	6.28
459.239	6.35
459.442	6.27
459.645	6.25
459.848	6.26
460.051	6.34
460.254	6.29
460.457	6.27
460.66	6.27
460.863	6.23
461.066	6.1
461.269	6.06
461.472	5.91
461.675	5.94
461.878	5.96
462.081	5.97
462.284	5.94
462.486	5.99
462.689	5.97
462.892	5.88
463.095	6.07
463.298	6.23
463.5	6.27
463.703	6.43
463.906	6.35
464.109	6.38
464.311	6.45
464.514	6.38
464.717	6.35
464.92	6.45
465.122	6.58
465.325	6.48
465.528	6.41
465.73	6.47
465.933	6.41
466.135	6.47
466.338	6.39
466.541	6.44
466.743	6.58
466.946	6.49
467.148	6.52
467.351	6.39
467.553	6.4
467.756	6.56
467.958	6.59
468.161	6.61
468.363	6.66
468.566	6.78
468.768	6.7
468.971	6.56
469.173	6.66
469.375	6.62
469.578	6.68
469.78	6.71
469.983	6.55
470.185	6.43
470.387	6.51
470.59	6.44
470.792	6.4
470.994	6.37
471.196	6.33
471.399	6.36
471.601	6.38
471.803	6.4
472.005	6.38
472.208	6.46
472.41	6.43
472.612	6.33
472.814	6.36
473.016	6.42
473.218	6.41
473.421	6.55
473.623	6.46
473.825	6.42
474.027	6.43
474.229	6.45
474.431	6.34
474.633	6.41
474.835	6.51
475.037	6.61
475.239	6.48
475.441	6.5
475.643	6.46
475.845	6.42
476.047	6.45
476.249	6.39
476.451	6.41
476.653	6.38
476.855	6.37
477.057	6.3
477.258	6.24
477.46	6.3
477.662	6.36
477.864	6.3
478.066	6.41
478.268	6.42
478.469	6.41
478.671	6.32
478.873	6.44
479.075	6.43
479.276	6.39
479.478	6.39
479.68	6.38
479.882	6.26
480.083	6.3
480.285	6.29
480.487	6.21
480.688	6.23
480.89	6.28
481.091	6.27
481.293	6.24
481.495	6.26
481.696	6.24
481.898	6.21
482.099	6.24
482.301	6.22
482.502	6.2
482.704	6.23
482.905	6.24
483.107	6.21
483.308	6.19
483.51	6.23
483.711	6.21
483.913	6.22
484.114	6.26
484.315	6.26
484.517	6.27
484.718	6.27
484.92	6.3
485.121	6.3
485.322	6.32
485.524	6.36
485.725	6.33
485.926	6.34
486.127	6.33
486.329	6.29
486.53	6.29
486.731	6.26
486.932	6.28
487.134	6.25
487.335	6.23
487.536	6.24
487.737	6.22
487.938	6.21
488.139	6.28
488.341	6.29
488.542	6.35
488.743	6.38
488.944	6.44
489.145	6.42
489.346	6.43
489.547	6.49
489.748	6.45
489.949	6.46
490.15	6.45
490.351	6.39
490.552	6.38
490.753	6.41
490.954	6.37
491.155	6.36
491.356	6.39
491.557	6.41
491.758	6.37
491.959	6.4
492.159	6.45
492.36	6.51
492.561	6.52
492.762	6.57
492.963	6.54
493.164	6.58
493.364	6.65
493.565	6.69
493.766	6.69
493.967	6.71
494.167	6.77
494.368	6.77
494.569	6.72
494.769	6.76
494.97	6.75
495.171	6.8
495.371	6.86
495.572	6.91
495.773	6.9
495.973	6.96
496.174	6.99
496.375	6.98
496.575	6.95
496.776	6.98
496.976	6.9
497.177	6.91
497.377	6.89
497.578	6.85
497.778	6.79
497.979	6.83
498.179	6.83
498.38	6.83
498.58	6.83
498.78	6.86
498.981	6.9
499.181	6.98
499.382	6.98
499.582	7.05
499.782	7.24
499.983	7.24
500.183	7.16
500.383	7.17
500.584	7.22
500.784	7.33
500.984	7.41
501.184	7.43
501.385	7.53
501.585	7.55
501.785	7.55
501.985	7.44
502.185	7.54
502.386	7.61
502.586	7.63
502.786	7.62
502.986	7.58
503.186	7.63
503.386	7.58
503.586	7.55
503.786	7.69
503.987	7.73
504.187	7.74
504.387	7.73
504.587	7.78
504.787	7.91
504.987	8.01
505.187	8
505.387	8.04
505.587	8.15
505.786	8.16
505.986	8.11
506.186	8.15
506.386	8.15
506.586	8.2
506.786	8.25
506.986	8.2
507.186	8.22
507.386	8.35
507.585	8.3
507.785	8.32
507.985	8.4
508.185	8.42
508.384	8.4
508.584	8.43
508.784	8.4
508.984	8.41
509.183	8.51
509.383	8.46
509.583	8.42
509.782	8.43
509.982	8.48
510.182	8.48
510.381	8.56
510.581	8.6
510.781	8.67
510.98	8.7
511.18	8.71
511.379	8.65
511.579	8.74
511.778	8.78
511.978	8.77
512.177	8.83
512.377	8.87
512.576	8.9
512.776	9.01
512.975	9.01
513.175	9.09
513.374	9.17
513.573	9.18
513.773	9.12
513.972	9.2
514.172	9.27
514.371	9.28
514.57	9.24
514.77	9.31
514.969	9.34
515.168	9.34
515.367	9.35
515.567	9.3
515.766	9.43
515.965	9.55
516.164	9.51
516.364	9.67
516.563	9.65
516.762	9.75
516.961	9.78
517.16	9.81
517.359	9.94
517.559	10.04
517.758	10.16
517.957	10.19
518.156	10.24
518.355	10.35
518.554	10.34
518.753	10.44
518.952	10.5
519.151	10.6
519.35	10.65
519.549	10.63
519.748	10.67
519.947	10.71
520.146	10.74
520.345	10.81
520.544	10.87
520.743	10.89
520.942	10.92
521.141	10.93
521.339	10.84
521.538	10.85
521.737	10.87
521.936	10.87
522.135	10.92
522.333	11.01
522.532	11.04
522.731	11.07
522.93	11.08
523.129	11.21
523.327	11.23
523.526	11.29
523.725	11.32
523.923	11.37
524.122	11.41
524.321	11.4
524.519	11.41
524.718	11.47
524.917	11.49
525.115	11.58
525.314	11.57
525.512	11.64
525.711	11.64
525.909	11.68
526.108	11.7
526.306	11.68
526.505	11.68
526.703	11.7
526.902	11.69
527.1	11.68
527.299	11.72
527.497	11.74
527.696	11.76
527.894	11.83
528.092	11.88
528.291	11.95
528.489	12.04
528.688	12.18
528.886	12.24
529.084	12.34
529.283	12.46
529.481	12.48
529.679	12.53
529.877	12.61
530.076	12.64
530.274	12.65
530.472	12.64
530.67	12.62
530.869	12.6
531.067	12.59
531.265	12.57
531.463	12.59
531.661	12.59
531.859	12.7
532.057	12.68
532.255	12.76
532.454	12.83
532.652	12.86
532.85	12.93
533.048	13
533.246	13.12
533.444	13.21
533.642	13.29
533.84	13.36
534.038	13.33
534.236	13.42
534.434	13.39
534.632	13.39
534.83	13.41
535.027	13.45
535.225	13.46
535.423	13.42
535.621	13.38
535.819	13.33
536.017	13.43
536.215	13.52
536.412	13.54
536.61	13.64
536.808	13.74
537.006	13.76
537.203	13.79
537.401	13.77
537.599	13.88
537.797	13.95
537.994	14.01
538.192	13.96
538.39	13.86
538.587	13.91
538.785	13.82
538.983	13.83
539.18	13.93
539.378	13.91
539.575	13.97
539.773	13.89
539.97	13.88
540.168	13.91
540.366	13.95
540.563	14.02
540.761	14
540.958	14.08
541.155	14.09
541.353	14.12
541.55	14.18
541.748	14.19
541.945	14.33
542.143	14.45
542.34	14.55
542.537	14.6
542.735	14.62
542.932	14.69
543.129	14.76
543.327	14.83
543.524	14.87
543.721	14.92
543.919	14.96
544.116	14.93
544.313	14.96
544.51	14.92
544.708	14.89
544.905	14.99
545.102	15.04
545.299	15.06
545.496	15.03
545.693	15.02
545.891	15.03
546.088	15.07
546.285	15.14
546.482	15.15
546.679	15.24
546.876	15.33
547.073	15.35
547.27	15.4
547.467	15.49
547.664	15.6
547.861	15.7
548.058	15.8
548.255	15.87
548.452	15.94
548.649	16
548.846	16.02
549.043	16.07
549.24	16.09
549.437	16.16
549.633	16.06
549.83	16.12
550.027	15.97
550.224	15.93
550.421	15.96
550.618	15.93
550.814	15.99
551.011	16.07
551.208	16.09
551.405	16.16
551.601	16.08
551.798	16.25
551.995	16.29
552.191	16.45
552.388	16.54
552.585	16.57
552.781	16.61
552.978	16.66
553.175	16.64
553.371	16.66
553.568	16.69
553.764	16.71
553.961	16.68
554.157	16.66
554.354	16.82
554.55	16.92
554.747	17.05
554.943	17.15
555.14	17.2
555.336	17.3
555.533	17.38
555.729	17.43
555.926	17.73
556.122	17.79
556.318	17.8
556.515	17.76
556.711	17.77
556.907	17.73
557.104	17.63
557.3	17.66
557.496	17.69
557.693	17.76
557.889	17.65
558.085	17.54
558.281	17.6
558.478	17.69
558.674	17.77
558.87	17.76
559.066	17.85
559.262	18.01
559.459	18.03
559.655	18.04
559.851	18.1
560.047	18.3
560.243	18.34
560.439	18.39
560.635	18.49
560.831	18.46
561.027	18.52
561.223	18.57
561.419	18.65
561.615	18.66
561.811	18.8
562.007	18.79
562.203	18.93
562.399	18.95
562.595	18.98
562.791	19.01
562.987	19.1
563.183	19.03
563.379	19.02
563.575	19.03
563.771	19.2
563.966	19.15
564.162	19.16
564.358	19.09
564.554	19.23
564.75	19.31
564.945	19.37
565.141	19.36
565.337	19.53
565.533	19.63
565.728	19.6
565.924	19.45
566.12	19.48
566.315	19.58
566.511	19.68
566.707	19.7
566.902	19.67
567.098	19.64
567.293	19.75
567.489	19.8
567.684	19.8
567.88	19.93
568.076	20.06
568.271	20.15
568.467	20.24
568.662	20.26
568.858	20.23
569.053	20.23
569.248	20.33
569.444	20.45
569.639	20.44
569.835	20.54
570.03	20.54
570.225	20.57
570.421	20.62
570.616	20.69
570.812	20.77
571.007	20.86
571.202	20.92
571.397	21.03
571.593	21.02
571.788	21.15
571.983	21.15
572.178	21.15
572.374	21.23
572.569	21.33
572.764	21.27
572.959	21.34
573.154	21.36
573.35	21.46
573.545	21.44
573.74	21.45
573.935	21.39
574.13	21.49
574.325	21.65
574.52	21.67
574.715	21.67
574.91	21.74
575.105	21.67
575.3	21.67
575.495	21.77
575.69	21.69
575.885	21.7
576.08	21.72
576.275	21.77
576.47	21.73
576.665	21.8
576.86	21.78
577.055	21.87
577.25	22
577.444	22.14
577.639	22.15
577.834	22.36
578.029	22.44
578.224	22.48
578.418	22.5
578.613	22.6
578.808	22.74
579.003	22.72
579.197	22.75
579.392	22.81
579.587	22.77
579.781	22.81
579.976	22.8
580.171	22.86
580.365	23.01
580.56	23.11
580.755	23.1
580.949	23.12
581.144	23.32
581.338	23.29
581.533	23.25
581.727	23.35
581.922	23.32
582.116	23.43
582.311	23.5
582.505	23.47
582.7	23.43
582.894	23.52
583.089	23.6
583.283	23.68
583.478	23.74
583.672	23.86
583.866	23.92
584.061	24.04
584.255	23.95
584.449	23.95
584.644	24
584.838	24.01
585.032	24.2
585.226	24.17
585.421	24.07
585.615	24.01
585.809	23.96
586.003	23.95
586.198	24.02
586.392	24.23
586.586	24.2
586.78	24.25
586.974	24.26
587.168	24.14
587.363	24.1
587.557	24.12
587.751	24.31
587.945	24.38
588.139	24.42
588.333	24.37
588.527	24.33
588.721	24.47
588.915	24.61
589.109	24.63
589.303	24.59
589.497	24.62
589.691	24.63
589.885	24.55
590.079	24.65
590.273	24.69
590.466	24.71
590.66	24.57
590.854	24.55
591.048	24.46
591.242	24.38
591.436	24.4
591.629	24.33
591.823	24.35
592.017	24.48
592.211	24.39
592.404	24.43
592.598	24.61
592.792	24.71
592.986	24.64
593.179	24.75
593.373	24.92
593.567	24.97
593.76	24.96
593.954	25.15
594.147	25.14
594.341	25.13
594.535	25.11
594.728	24.92
594.922	24.89
595.115	24.93
595.309	24.84
595.502	24.74
595.696	24.78
595.889	24.91
596.083	24.86
596.276	24.84
596.47	24.83
596.663	24.98
596.856	25.13
597.05	25.24
597.243	25.31
597.437	25.47
597.63	25.68
597.823	25.73
598.017	25.81
598.21	25.81
598.403	26.02
598.596	26.11
598.79	25.9
598.983	25.77
599.176	25.67
599.369	25.83
599.563	25.72
599.756	25.68
599.949	25.66
600.142	25.6
600.335	25.51
600.528	25.5
600.722	25.55
600.915	25.67
601.108	25.74
601.301	25.89
601.494	25.77
601.687	25.88
601.88	25.94
602.073	26.04
602.266	26.11
602.459	26.04
602.652	26
602.845	25.91
603.038	25.91
603.231	26
603.424	25.96
603.617	26.01
603.809	26.02
604.002	25.96
604.195	25.92
604.388	25.95
604.581	26.28
604.774	26.37
604.966	26.45
605.159	26.59
605.352	26.51
605.545	26.45
605.737	26.43
605.93	26.45
606.123	26.52
606.316	26.47
606.508	26.44
606.701	26.29
606.894	26.25
607.086	26.33
607.279	26.24
607.471	26.42
607.664	26.57
607.857	26.59
608.049	26.6
608.242	26.68
608.434	26.83
608.627	26.82
608.819	26.91
609.012	26.85
609.204	26.99
609.397	27.04
609.589	26.97
609.782	27.08
609.974	27.03
610.166	27.06
610.359	27.05
610.551	27.01
610.743	27.19
610.936	27.03
611.128	27.12
611.32	26.95
611.513	26.89
611.705	27.11
611.897	27.1
612.09	27.28
612.282	27.24
612.474	27.36
612.666	27.29
612.858	27.16
613.051	27.27
613.243	27.33
613.435	27.38
613.627	27.45
613.819	27.49
614.011	27.44
614.203	27.41
614.395	27.33
614.588	27.36
614.78	27.47
614.972	27.58
615.164	27.48
615.356	27.71
615.548	27.84
615.74	27.95
615.932	27.75
616.124	27.9
616.315	27.75
616.507	27.94
616.699	27.83
616.891	27.78
617.083	27.69
617.275	27.79
617.467	27.46
617.659	27.46
617.85	27.52
618.042	27.49
618.234	27.17
618.426	27.42
618.618	27.34
618.809	27.31
619.001	27.35
619.193	27.37
619.384	27.48
619.576	27.43
619.768	27.44
619.959	27.31
620.151	27.32
620.343	27.52
620.534	27.49
620.726	27.48
620.917	27.58
621.109	27.55
621.301	27.49
621.492	27.47
621.684	27.71
621.875	27.59
622.067	27.76
622.258	27.62
622.45	27.62
622.641	27.55
622.832	27.57
623.024	27.66
623.215	27.77
623.407	27.87
623.598	27.66
623.789	27.62
623.981	27.66
624.172	27.6
624.363	27.85
624.555	27.73
624.746	27.85
624.937	27.84
625.129	27.68
625.32	27.65
625.511	27.65
625.702	27.83
625.893	27.91
626.085	28.01
626.276	27.8
626.467	27.79
626.658	27.88
626.849	27.8
627.04	27.76
627.231	27.83
627.422	27.88
627.614	27.71
627.805	27.71
627.996	27.56
628.187	27.5
628.378	27.57
628.569	27.46
628.76	27.7
628.951	27.81
629.142	27.96
629.332	27.98
629.523	28.09
629.714	28.29
629.905	28.38
630.096	28.54
630.287	28.44
630.478	28.49
630.669	28.58
630.859	28.56
631.05	28.52
631.241	28.49
631.432	28.45
631.623	28.32
631.813	28.24
632.004	28.12
632.195	28.03
632.385	28.01
632.576	28.03
632.767	28.03
632.957	27.82
633.148	27.85
633.339	27.87
633.529	28.07
633.72	28.35
633.91	28.53
634.101	28.65
634.292	28.75
634.482	28.81
634.673	28.95
634.863	28.91
635.054	28.95
635.244	28.87
635.435	28.99
635.625	28.97
635.815	28.73
636.006	28.85
636.196	28.8
636.387	28.72
636.577	28.81
636.767	28.67
636.958	28.61
637.148	28.76
637.338	28.88
637.529	28.72
637.719	28.56
637.909	28.67
638.099	28.56
638.29	28.69
638.48	28.74
638.67	28.89
638.86	29
639.05	29.13
639.241	29.19
639.431	29.21
639.621	29.33
639.811	29.42
640.001	29.22
640.191	29.23
640.381	29.15
640.571	29.17
640.761	28.95
640.951	29.11
641.141	29.22
641.331	29.08
641.521	29.22
641.711	29.14
641.901	29.18
642.091	29.21
642.281	29.07
642.471	28.98
642.661	28.79
642.851	29.16
643.041	29.1
643.231	29.02
643.42	29.19
643.61	29.03
643.8	29.09
643.99	29.23
644.18	29.22
644.369	29.18
644.559	29.21
644.749	29.38
644.939	29.14
645.128	29.21
645.318	29.27
645.508	29.18
645.697	29.21
645.887	29.29
646.076	29.18
646.266	29
646.456	29.17
646.645	29.31
646.835	29.28
647.024	29.37
647.214	29.17
647.403	29.12
647.593	29.2
647.782	29.1
647.972	28.94
648.161	28.96
648.351	29.21
648.54	29.1
648.73	29.34
648.919	29.47
649.108	29.54
649.298	29.75
649.487	29.88
649.677	29.7
649.866	29.8
650.055	29.72
650.244	29.46
650.434	29.44
650.623	29.54
650.812	29.35
651.002	29.42
651.191	29.52
651.38	29.44
651.569	29.52
651.758	29.54
651.947	29.36
652.137	29.63
652.326	29.95
652.515	30
652.704	29.91
652.893	29.91
653.082	29.85
653.271	29.6
653.46	29.5
653.649	29.32
653.838	29.59
654.027	29.73
654.216	29.59
654.405	29.44
654.594	29.52
654.783	29.72
654.972	29.61
655.161	29.63
655.35	29.65
655.539	29.92
655.728	29.97
655.916	29.76
656.105	29.69
656.294	29.84
656.483	29.76
656.672	29.64
656.86	29.52
657.049	29.52
657.238	29.48
657.427	29.64
657.615	29.48
657.804	29.52
657.993	29.59
658.181	29.77
658.37	29.74
658.559	29.79
658.747	29.66
658.936	29.94
659.125	29.84
659.313	29.8
659.502	29.76
659.69	29.72
659.879	29.64
660.067	29.74
660.256	29.71
660.444	29.84
660.633	30.12
660.821	30.63
661.01	30.45
661.198	30.66
661.387	30.89
661.575	31.08
661.763	31.19
661.952	31.25
662.14	31.06
662.328	31.06
662.517	30.95
662.705	30.88
662.893	30.67
663.082	30.53
663.27	30.51
663.458	30.47
663.646	30.14
663.834	30.09
664.023	30.14
664.211	30.21
664.399	30.45
664.587	30.11
664.775	30.05
664.963	30
665.152	30.2
665.34	30.14
665.528	29.89
665.716	29.82
665.904	29.94
666.092	29.9
666.28	30.14
666.468	29.93
666.656	30.35
666.844	30.26
667.032	30.42
667.22	30.36
667.408	30.45
667.596	30.6
667.784	30.76
667.971	30.73
668.159	30.78
668.347	30.71
668.535	30.68
668.723	30.69
668.911	30.82
669.098	30.59
669.286	30.56
669.474	30.5
669.662	30.61
669.849	30.71
670.037	30.69
670.225	30.8
670.413	30.78
670.6	30.97
670.788	30.85
670.976	30.87
671.163	31.09
671.351	31.22
671.538	31.33
671.726	31.18
671.913	31.13
672.101	31.05
672.289	31.11
672.476	31.02
672.664	30.89
672.851	31.08
673.039	31.04
673.226	30.53
673.413	30.44
673.601	30.47
673.788	30.44
673.976	30.37
674.163	30.42
674.35	30.21
674.538	30.47
674.725	30.37
674.912	30.31
675.1	30.57
675.287	30.98
675.474	31.04
675.662	31.04
675.849	31.1
676.036	31.22
676.223	31.43
676.411	31.75
676.598	31.41
676.785	31.7
676.972	31.79
677.159	31.59
677.346	31.55
677.533	31.34
677.721	31.27
677.908	31.32
678.095	31.23
678.282	31.17
678.469	30.92
678.656	31.17
678.843	31.02
679.03	30.82
679.217	30.73
679.404	30.66
679.591	31
679.778	30.98
679.964	30.85
680.151	30.78
680.338	30.76
680.525	31.02
680.712	30.9
680.899	30.74
681.086	30.86
681.272	30.73
681.459	30.76
681.646	30.61
681.833	30.87
682.02	30.81
682.206	30.76
682.393	30.89
682.58	30.51
682.766	30.47
682.953	30.63
683.14	30.84
683.326	30.89
683.513	31.03
683.7	30.91
683.886	31.01
684.073	31.39
684.259	31.71
684.446	31.53
684.632	31.96
684.819	32.07
685.005	32.05
685.192	31.87
685.378	32.17
685.565	32.17
685.751	32.26
685.938	32.2
686.124	31.9
686.31	31.81
686.497	31.87
686.683	31.7
686.87	31.4
687.056	31.47
687.242	31.33
687.429	31.12
687.615	31.14
687.801	31.08
687.987	30.83
688.174	31
688.36	30.84
688.546	30.96
688.732	30.8
688.918	31.44
689.105	31.54
689.291	31.66
689.477	31.96
689.663	31.83
689.849	31.89
690.035	31.88
690.221	32.02
690.407	32.18
690.593	31.95
690.779	32.25
690.965	32.08
691.151	32.24
691.337	32.1
691.523	31.94
691.709	32.02
691.895	32.17
692.081	32.15
692.267	32.02
692.453	31.86
692.639	32.05
692.825	31.8
693.011	31.63
693.196	30.86
693.382	30.92
693.568	30.77
693.754	30.86
693.94	30.71
694.125	30.7
694.311	30.85
694.497	30.87
694.682	30.81
694.868	30.9
695.054	30.85
695.239	31.17
695.425	31.03
695.611	30.9
695.796	30.9
695.982	31.01
696.168	31.12
696.353	31.19
696.539	31.28
696.724	31.45
696.91	31.26
697.095	31.46
697.281	31.52
697.466	31.59
697.652	31.76
697.837	31.83
698.023	31.68
698.208	31.78
698.393	31.62
698.579	31.59
698.764	31.58
698.949	31.78
699.135	31.83
699.32	31.89
699.505	32.09
699.691	31.99
699.876	31.79
700.061	31.86
700.246	31.59
700.432	31.56
700.617	31.69
700.802	31.63
700.987	31.35
701.172	30.8
701.358	30.44
701.543	30.19
701.728	30.43
701.913	30.26
702.098	30.55
702.283	30.8
702.468	31.01
702.653	30.66
702.838	30.52
703.023	30.91
703.208	31.2
703.393	31.74
703.578	31.88
703.763	31.72
703.948	32.08
704.133	31.92
704.318	31.86
704.503	31.79
704.688	31.88
704.873	31.7
705.057	31.49
705.242	31.46
705.427	31.52
705.612	31.29
705.797	31.44
705.981	31.53
706.166	31.9
706.351	31.86
706.536	31.91
706.72	31.81
706.905	31.72
707.09	31.79
707.274	32.11
707.459	31.95
707.644	32.15
707.828	32.18
708.013	32.05
708.197	31.69
708.382	31.45
708.567	31.71
708.751	31.79
708.936	32.18
709.12	32.13
709.305	32.05
709.489	32.08
709.673	32.34
709.858	32.07
710.042	32.03
710.227	31.88
710.411	32.23
710.596	32.03
710.78	32.25
710.964	32.14
711.149	32.33
711.333	32.12
711.517	32.2
711.702	32.33
711.886	32.32
712.07	32.44
712.254	32.37
712.438	32.47
712.623	32.1
712.807	31.98
712.991	32.26
713.175	31.97
713.359	31.86
713.544	32.02
713.728	31.5
713.912	31.48
714.096	31.21
714.28	31.07
714.464	30.99
714.648	31.4
714.832	31.59
715.016	31.41
715.2	31.98
715.384	32.18
715.568	32.24
715.752	32.75
715.936	32.84
716.12	33.01
716.304	33.45
716.488	33.43
716.671	32.93
716.855	32.91
717.039	32.71
717.223	32.09
717.407	32.19
717.59	31.83
717.774	31.2
717.958	31.49
718.142	31.36
718.325	31.31
718.509	31.14
718.693	31.46
718.877	31
719.06	31.21
719.244	31.73
719.428	31.86
719.611	31.88
719.795	31.98
719.978	31.91
720.162	32.35
720.345	32.21
720.529	32.34
720.713	32.73
720.896	33.29
721.08	33.11
721.263	33
721.446	33
721.63	33.28
721.813	33.49
721.997	33.27
722.18	32.51
722.364	32.16
722.547	32.12
722.73	32.13
722.914	31.78
723.097	31.49
723.28	31.35
723.464	30.91
723.647	30.54
723.83	30.51
724.013	30.69
724.197	31.18
724.38	31.64
724.563	31.48
724.746	31.68
724.929	32.02
725.112	32.54
725.296	32.7
725.479	32.94
725.662	33.36
725.845	33.12
726.028	32.83
726.211	33.16
726.394	32.9
726.577	33.16
726.76	32.7
726.943	32.44
727.126	32.09
727.309	32.09
727.492	32.02
727.675	31.54
727.858	31.53
728.041	32.18
728.224	31.93
728.407	32.32
728.589	32.47
728.772	32.69
728.955	32.55
729.138	32.99
729.321	32.9
729.503	32.48
729.686	32.62
729.869	32.54
730.052	31.89
730.234	32.15
730.417	31.88
730.6	31.48
730.782	31.04
730.965	31.34
731.148	30.87
731.33	30.64
731.513	30.95
731.695	30.94
731.878	31.5
732.061	31.77
732.243	31.64
732.426	31.93
732.608	32.53
732.791	32.98
732.973	32.77
733.156	32.98
733.338	33.26
733.52	33.15
733.703	32.99
733.885	32.44
734.068	32.41
734.25	32.44
734.432	32.61
734.615	32.4
734.797	32.44
734.979	32.53
735.162	32.67
735.344	32.52
735.526	33.06
735.708	33.59
735.891	34.26
736.073	34.31
736.255	34.06
736.437	33.73
736.619	33.02
736.802	32.55
736.984	32.38
737.166	32.14
737.348	31.94
737.53	31.48
737.712	30.88
737.894	30.63
738.076	30.39
738.258	30.2
738.44	30.15
738.622	30.66
738.804	30.79
738.986	30.96
739.168	30.84
739.35	30.95
739.532	30.66
739.714	30.98
739.896	30.81
740.078	30.88
740.259	30.83
740.441	30.76
740.623	30.41
740.805	30.57
740.987	30.47
741.168	30.7
741.35	30.58
741.532	31.32
741.714	31.6
741.895	31.55
742.077	31.21
742.259	31.42
742.44	31.68
742.622	31.76
742.804	32.13
742.985	32.04
743.167	32.08
743.348	32.35
743.53	32.64
743.711	32.29
743.893	33.07
744.075	33.74
744.256	33.89
744.438	33.83
744.619	33.94
744.8	33.41
744.982	33.65
745.163	33.54
745.345	33.57
745.526	33.33
745.707	33.26
745.889	32.37
746.07	32.19
746.252	32.06
746.433	32.15
746.614	32.67
746.795	32.75
746.977	32.71
747.158	32.51
747.339	32.79
747.52	32.68
747.702	32.88
747.883	33.34
748.064	33.18
748.245	33.52
748.426	33.28
748.607	33.01
748.788	33.16
748.97	33.77
749.151	34.09
749.332	33.33
749.513	33.32
749.694	33.58
749.875	33.35
750.056	32.88
750.237	31.91
750.418	32.67
750.599	32.29
750.78	32.71
750.96	32.25
751.141	32.55
751.322	33.62
751.503	33.46
751.684	33.37
751.865	33.47
752.046	33.76
752.226	34.33
752.407	33.51
752.588	34.09
752.769	33.29
752.949	33.36
753.13	33.06
753.311	32.21
753.492	32.6
753.672	32.57
753.853	32.46
754.034	32.66
754.214	33.04
754.395	32.83
754.575	32.17
754.756	32.57
754.937	32.85
755.117	32.9
755.298	33.01
755.478	32.68
755.659	32.82
755.839	32.75
756.02	32.67
756.2	32.23
756.381	32.49
756.561	32.84
756.741	33.17
756.922	33.03
757.102	32.79
757.283	33.44
757.463	33.61
757.643	32.98
757.823	33.32
758.004	33.44
758.184	33.83
758.364	33.95
758.545	34.03
758.725	33.49
758.905	33.73
759.085	33.8
759.265	33.43
759.446	33.47
759.626	33.97
759.806	34.4
759.986	34.18
760.166	34.16
760.346	34.01
760.526	33.94
760.706	34.05
760.886	33.43
761.066	33.53
761.246	33.5
761.426	33.25
761.606	32.77
761.786	32.46
761.966	32.8
762.146	32.86
762.326	32.76
762.506	32.73
762.686	32.66
762.866	32.81
763.046	32.96
763.225	32.86
763.405	32.76
763.585	33.5
763.765	33.48
763.945	33.59
764.124	33.47
764.304	34.13
764.484	34.34
764.664	34.18
764.843	34.41
765.023	34.18
765.203	34.36
765.382	35.1
765.562	34.68
765.741	34.49
765.921	34.23
766.101	34.83
766.28	34.67
766.46	34.54
766.639	34.97
766.819	34.39
766.998	34.26
767.178	34.29
767.357	33.48
767.537	33.1
767.716	33.45
767.896	32.95
768.075	32.11
768.254	31.55
768.434	31.98
768.613	31.74
768.792	32.78
768.972	33.22
769.151	33.15
769.33	33.34
769.51	33.97
769.689	34.27
769.868	34.01
770.047	34.53
770.226	34.39
770.406	34.08
770.585	34.48
770.764	33.51
770.943	33.62
771.122	33.76
771.301	34.37
771.48	33.68
771.66	32.99
771.839	33.95
772.018	33.47
772.197	32.7
772.376	32.44
772.555	31.96
772.734	31.83
772.913	30.67
773.092	31.31
773.271	30.4
773.449	30.23
773.628	30.49
773.807	30.31
773.986	30.23
774.165	31.22
774.344	31.61
774.523	31.56
774.701	32.08
774.88	33.96
775.059	33.23
775.238	33.06
775.417	33.76
775.595	34.03
775.774	34.12
775.953	34.68
776.131	34.85
776.31	34.29
776.489	34.71
776.667	35.07
776.846	34.59
777.025	34.54
777.203	35.43
777.382	34.83
777.56	35.21
777.739	35.18
777.917	34.94
778.096	35.79
778.274	36.01
778.453	36.34
778.631	36.04
778.81	35.99
778.988	35.52
779.166	34.45
779.345	34.68
779.523	34.02
779.702	34.43
779.88	34.22
780.058	32.71
780.237	33.22
780.415	32.94
780.593	33.46
780.771	33.46
780.95	34.27
781.128	34.89
781.306	34.5
781.484	34.25
781.662	34.43
781.841	34.4
782.019	34.58
782.197	34.1
782.375	34.17
782.553	33.41
782.731	32.54
782.909	31.84
783.087	31.54
783.265	32.05
783.443	30.91
783.621	30.57
783.799	30.34
783.977	30.73
784.155	31.05
784.333	29.78
784.511	30.12
784.689	30.33
784.867	30.44
785.045	30.89
785.223	31.16
785.4	32.35
785.578	32.47
785.756	33.26
785.934	33.84
786.112	33.86
786.289	34.5
786.467	34.78
786.645	35.16
786.823	35.09
787	34.55
787.178	33.69
787.356	33.24
787.533	33.19
787.711	33.05
787.889	32.25
788.066	31.72
788.244	31.79
788.421	31.61
788.599	32.03
788.776	32.29
788.954	32.95
789.131	33.94
789.309	34.11
789.486	35.19
789.664	35.13
789.841	35.13
790.019	34.66
790.196	35.39
790.373	35.16
790.551	34.31
790.728	33.78
790.906	33.07
791.083	30.8
791.26	31.21
791.437	30
791.615	30.55
791.792	30.61
791.969	31.73
792.146	31.74
792.324	32.23
792.501	32.6
792.678	32.62
792.855	33.31
793.032	35.75
793.209	36.03
793.387	35.05
793.564	34.71
793.741	35
793.918	35.01
794.095	34.86
794.272	34.15
794.449	34.03
794.626	33.92
794.803	33.84
794.98	33.45
795.157	32.68
795.334	33.13
795.511	32.61
795.688	32.41
795.864	32.57
796.041	33.28
796.218	33.22
796.395	32.95
796.572	33.32
796.749	33.1
796.925	33.14
797.102	33.28
797.279	33.8
797.456	33.98
797.632	33.77
797.809	32.05
797.986	29.41
798.162	30.24
798.339	30.31
798.516	29.63
798.692	29.17
798.869	28.86
799.046	29.45
799.222	28.94
799.399	28.53
799.575	28.46
799.752	29.4
799.928	30.81
800.105	29.92
800.281	30.18
800.458	30.97
800.634	31.05
800.811	31.5
800.987	31.79
801.163	31.9
801.34	32.15
801.516	32.46
801.692	32.75
801.869	32.48
802.045	32.58
802.221	31.72
802.398	31.96
802.574	31.65
802.75	32.03
802.926	31.46
803.103	32.02
803.279	32.23
803.455	32.27
803.631	32.18
803.807	32.04
803.983	31.44
804.16	32.73
804.336	31.25
804.512	31.95
804.688	32.07
804.864	31.92
805.04	31.34
805.216	31.43
805.392	31.33
805.568	32.45
805.744	31.82
805.92	32.61
806.096	32.2
806.272	33.82
806.448	33.64
806.623	33.53
806.799	33.27
806.975	33.22
807.151	32.61
807.327	31.99
807.503	30.76
807.678	32.31
807.854	31.44
808.03	31.15
808.206	30.59
808.381	29.71
808.557	29.83
808.733	30.43
808.908	31.1
809.084	30.62
809.26	31.64
809.435	32.95
809.611	32.9
809.787	32.9
809.962	32.39
810.138	32.73
810.313	33.01
810.489	32.39
810.664	31.76
810.84	32.11
811.015	33.46
811.191	32.28
811.366	31.63
811.542	31.08
811.717	31.6
811.892	32.03
812.068	31.08
812.243	31.46
812.419	30.32
812.594	30.5
812.769	29.72
812.944	29.88
813.12	28.96
813.295	29.22
813.47	29.82
813.645	30.47
813.821	30.1
813.996	31.01
814.171	31.26
814.346	32.33
814.521	32.99
814.697	32.72
814.872	33.01
815.047	35.64
815.222	35.05
815.397	34.63
815.572	34.84
815.747	35.53
815.922	34.25
816.097	34.13
816.272	34.27
816.447	34.83
816.622	35.09
816.797	34.34
816.972	33.31
817.147	32.8
817.322	33.68
817.496	33.08
817.671	32.64
817.846	33.09
818.021	33.44
818.196	33.34
818.371	32.03
818.545	33.32
818.72	33.71
818.895	34.09
819.069	35.12
819.244	33.68
819.419	34.22
819.594	34.36
819.768	34.21
819.943	33.93
820.117	33.81
820.292	34.26
820.467	33.99
820.641	33.92
820.816	34.12
820.99	33.91
821.165	34.34
821.339	34.1
821.514	34.18
821.688	34.22
821.863	34.2
822.037	34.17
822.212	34.14
822.386	34.07
822.56	34.02
822.735	33.85
822.909	33.41
823.084	33.33
823.258	33.4
823.432	33.33
823.606	33.53
823.781	33.62
823.955	33.57
824.129	33.38
824.303	33.26
824.478	33.54
824.652	33.63
824.826	34.39
825	34.35
825.174	34.49
825.348	34.15
825.523	34.04
825.697	34.06
825.871	34.49
826.045	34.44
826.219	34.57
826.393	34.31
826.567	34.27
826.741	34.1
826.915	33.81
827.089	33.78
827.263	34.31
827.437	34.61
827.611	34.8
827.784	34.8
827.958	35.21
828.132	35.05
828.306	35.31
828.48	35.37
828.654	35.5
828.827	35.25
829.001	35.41
829.175	35.32
829.349	35.02
829.522	34.09
829.696	33.54
829.87	32.9
830.044	32.99
830.217	31.82
830.391	31.54
830.565	31.75
830.738	31.42
830.912	30.94
831.085	30.21
831.259	29.86
831.432	30.19
831.606	30.38
831.779	30.99
831.953	30.87
832.126	31.08
832.3	31.66
832.473	31.29
832.647	32.52
832.82	32.67
832.994	32.84
833.167	32.5
833.34	33.17
833.514	32.66
833.687	33.24
833.86	33.27
834.034	33.2
834.207	32.5
834.38	32.93
834.553	33.12
834.727	32.46
834.9	33.01
835.073	33.68
835.246	33.53
835.419	33.91
835.593	33.78
835.766	33.76
835.939	35.45
836.112	35.73
836.285	35.97
836.458	35.27
836.631	36.55
836.804	35.53
836.977	35.7
837.15	35.52
837.323	35.72
837.496	33.99
837.669	33.65
837.842	31.63
838.015	32.16
838.188	32.16
838.361	33.67
838.533	32.62
838.706	34.79
838.879	33.05
839.052	33.12
839.225	32.87
839.398	33.99
839.57	35.79
839.743	36.41
839.916	37.24
840.088	36.92
840.261	35.55
840.434	35.07
840.607	35.36
840.779	36.91
840.952	36.17
841.124	36.53
841.297	36.23
841.47	34.07
841.642	31.81
841.815	30.87
841.987	31.1
842.16	31.78
842.332	33.87
842.505	32.93
842.677	33.88
842.85	35.63
843.022	36.13
843.194	35.46
843.367	35.89
843.539	38.55
843.712	38.99
843.884	36.56
844.056	34.56
844.229	34.08
844.401	32.51
844.573	28.14
844.745	26.86
844.918	27.12
845.09	27.16
845.262	32.02
845.434	30.76
845.606	28.2
845.779	29.98
845.951	31.39
846.123	32.23
846.295	34.38
846.467	36.84
846.639	35.11
846.811	33.04
846.983	31.8
847.155	26.28
847.327	28.09
847.499	29.19
847.671	28.11
847.843	27.14
848.015	27.44
848.187	23.24
848.359	23.65
848.531	26.3
848.703	26.72
848.875	31.22
849.047	33.8
849.218	30.43
849.39	29.29
849.562	27.72
849.734	30.04
849.905	26.61
850.077	29.53
850.249	28.71
850.421	26.45
850.592	27.43
850.764	24.98
850.936	24.54
851.107	29.62
851.279	30.03
851.451	31.84
851.622	32.86
851.794	31.65
851.965	31.63
852.137	34.25
852.308	35.62
852.48	33.28
852.651	34.25
852.823	34.85
852.994	29.7
853.166	28.51
853.337	27.48
853.509	25.84
853.68	29.77
853.851	29.73
854.023	26.79
854.194	25.19
854.365	23.72
854.537	25.22
854.708	22.9
854.879	26.54
855.05	33
855.222	33.43
855.393	32.66
855.564	32.96
855.735	34.21
855.906	36.91
856.078	39.22
856.249	44.63
856.42	42.52
856.591	44.58
856.762	43.45
856.933	41.3
857.104	39.43
857.275	38.51
857.446	33.26
857.617	31.9
857.788	29.95
857.959	32.17
858.13	31.21
858.301	32.24
858.472	32.74
858.643	36.38
858.814	35.65
858.985	38.58
859.155	42.13
859.326	47.18
859.497	46.1
859.668	41.98
859.839	38.41
860.009	40.41
860.18	38.89
860.351	37.11
860.522	31.29
860.692	29.41
860.863	27.21
861.034	25.89
861.204	27.85
861.375	29.73
861.546	34.58
861.716	30.39
861.887	28.94
862.057	28.85
862.228	23.97
862.398	26.1
862.569	31.55
862.739	31.88
862.91	29.53
863.08	25.69
863.251	25.12
863.421	23.04
863.592	29.99
863.762	29.37
863.932	29.91
864.103	32.8
864.273	34.8
864.443	30.43
864.614	34.49
864.784	36.74
864.954	36.06
865.125	39.85
865.295	44.75
865.465	42.21
865.635	40.41
865.805	40.72
865.976	42.61
866.146	41.14
866.316	42.21
866.486	38.07
866.656	37.61
866.826	37.36
866.996	35.15
867.166	31.74
867.336	26.57
867.506	26.85
867.676	24.95
867.846	26.64
868.016	25.05
868.186	24.25
868.356	22.25
868.526	22.74
868.696	24.64
868.866	26.65
869.036	30.04
869.206	34.21
869.376	36.32
869.545	40.67
869.715	39.41
869.885	42.84
870.055	39.57
870.224	44.6
870.394	46.27
870.564	45.95
870.734	47.09
870.903	43.81
871.073	40.59
871.243	39.13
871.412	35.33
871.582	37.43
871.751	35.45
871.921	35.59
872.091	34.65
872.26	31.24
872.43	30.44
872.599	29.25
872.769	28.13
872.938	29.31
873.108	29.67
873.277	31.22
873.446	26.51
873.616	25.24
873.785	30.81
873.955	29.33
874.124	29.86
874.293	32.76
874.463	31.04
874.632	33.75
874.801	36.9
874.971	37.38
875.14	34.9
875.309	30.75
875.478	30.92
875.647	26.7
875.817	26.64
875.986	27.57
876.155	25.47
876.324	24.61
876.493	23.41
876.662	22.81
876.831	19.5
877	19.62
877.17	23.91
877.339	26.84
877.508	25.86
877.677	27.28
877.846	27.98
878.015	27.12
878.184	25.43
878.352	29.24
878.521	26.39
878.69	28.52
878.859	30.75
879.028	33.53
879.197	31.08
879.366	32.59
879.534	30.73
879.703	31.01
879.872	31.41
880.041	35.13
880.21	34.17
880.378	34.72
880.547	34.3
880.716	33.69
880.884	33.31
881.053	33.99
881.222	34.37
881.39	34.88
881.559	35.22
881.727	35.38
881.896	35.29
882.065	34.66
882.233	34.73
882.402	34.91
882.57	35.06
882.739	35.21
882.907	34.94
883.076	34.97
883.244	34.89
883.412	34.64
883.581	35.19
883.749	34.62
883.918	35.02
884.086	35.04
884.254	36.04
884.423	35.27
884.591	36.26
884.759	36.38
884.927	37.16
885.096	36.65
885.264	36.96
885.432	36.34
885.6	35.54
885.769	35.17
885.937	35.75
886.105	33.94
886.273	35.3
886.441	31.27
886.609	31.09
886.777	27.44
886.945	28.74
887.113	29.45
887.281	27.71
887.449	29.64
887.617	30.35
887.785	31.57
887.953	30.06
888.121	29.75
888.289	30.9
888.457	30.31
888.625	33.98
888.793	32.51
888.961	31.95
889.129	32.69
889.296	31.3
889.464	31.61
889.632	28.41
889.8	30.17
889.967	32.41
890.135	34.53
