Data from 2938457_Reflection_3.txt Node
Date: Fri Jun 19 17:42:58 EDT 2015
User: robert
Spectrometer: USB4E03002
Autoset integration time: false
Trigger mode: 4
Integration Time (sec): 1.000000E-1
Scans to average: 10
Electric dark correction enabled: true
Nonlinearity correction enabled: false
Boxcar width: 5
Stray light correction enabled: false
XAxis mode: Wavelengths
Stop averaging: false
Number of Pixels in Spectrum: 3648
>>>>>Begin Spectral Data<<<<<
177.575	162.78
177.794	-776.04
178.014	-56.47
178.233	37.49
178.452	-107.1
178.672	120.42
178.891	-84.64
179.11	61.17
179.33	70.46
179.549	65.09
179.768	124.2
179.987	-60.3
180.207	-253.33
180.426	69.7
180.645	-66.18
180.864	385.31
181.084	-275
181.303	-47.45
181.522	-49.98
181.741	-20.64
181.96	16.67
182.179	-46.77
182.398	-68.01
182.618	-97.3
182.837	4.55
183.056	72.34
183.275	89.05
183.494	60.8
183.713	114.34
183.932	257.02
184.151	869.57
184.37	239.43
184.589	205.35
184.808	238.05
185.027	393.15
185.246	-3558.41
185.465	-360.28
185.684	-143.89
185.903	-60.14
186.122	-102.15
186.341	-64.24
186.56	-22.7
186.779	-10.67
186.998	44.56
187.216	55.24
187.435	37.34
187.654	31.22
187.873	-104.05
188.092	5702.17
188.311	949.05
188.53	-827.38
188.748	-245.28
188.967	-230.67
189.186	-822.86
189.405	667.76
189.623	2545.73
189.842	-267.32
190.061	-258.92
190.28	-58.54
190.498	-7.36
190.717	5.16
190.936	-29.41
191.154	-50.31
191.373	-60.37
191.592	-34.1
191.81	-33.77
192.029	-16.27
192.248	-25.79
192.466	-13.2
192.685	-26.21
192.904	-43.48
193.122	-39.45
193.341	-19.73
193.559	-10.94
193.778	9.05
193.996	-0.1
194.215	20.35
194.433	1.15
194.652	13.75
194.87	14.68
195.089	25.98
195.307	47.35
195.526	57.51
195.744	77.92
195.963	122.09
196.181	81.65
196.399	106.61
196.618	114.63
196.836	122.77
197.055	89.63
197.273	95.39
197.491	106.12
197.71	96.18
197.928	87.04
198.146	68.71
198.365	39.89
198.583	49.73
198.801	34.23
199.019	29.25
199.238	13.65
199.456	3.22
199.674	-4.31
199.892	-1.32
200.111	-10.26
200.329	-11.59
200.547	-20.37
200.765	-4.16
200.983	-20.01
201.202	-4.37
201.42	14.17
201.638	-89.41
201.856	-120.91
202.074	-163.65
202.292	-478.36
202.51	-173.83
202.728	-395.96
202.946	-93.57
203.165	35.42
203.383	-48.78
203.601	-45.61
203.819	-104.94
204.037	-61.72
204.255	-41.92
204.473	-66.34
204.691	-60.63
204.909	-17
205.127	-5.74
205.345	-43.2
205.562	-130.97
205.78	-31.84
205.998	-50.69
206.216	-25.2
206.434	-26.68
206.652	-127.27
206.87	-35.2
207.088	-81.69
207.306	1331.43
207.523	-172.86
207.741	31.34
207.959	-16.68
208.177	-681.71
208.395	737.14
208.612	262.33
208.83	-10.34
209.048	57.52
209.266	46.59
209.483	30.62
209.701	25.51
209.919	3.69
210.136	-53.24
210.354	-14.28
210.572	-13.56
210.79	9.32
211.007	4.7
211.225	-40.55
211.442	-147.09
211.66	-118.19
211.878	-64.97
212.095	262.58
212.313	238.05
212.53	223.81
212.748	217.41
212.966	205.28
213.183	817.18
213.401	512.92
213.618	4021.17
213.836	-581.1
214.053	-238.1
214.271	536.69
214.488	-67.28
214.705	-73.24
214.923	-34.87
215.14	-26.69
215.358	-9.07
215.575	39.5
215.793	-0.18
216.01	53.33
216.227	12.85
216.445	58.04
216.662	35.23
216.879	50.12
217.097	21.91
217.314	-3.1
217.531	-17.6
217.749	-36.19
217.966	-51.92
218.183	-74.18
218.4	-106.02
218.618	-67.47
218.835	-65.81
219.052	-39.2
219.269	-43.63
219.487	-26.44
219.704	-15.46
219.921	-21.8
220.138	-12.39
220.355	-27.62
220.572	-12.22
220.79	5.49
221.007	-6.26
221.224	-16.31
221.441	-25.39
221.658	-21.6
221.875	-29.07
222.092	-29.99
222.309	-25.45
222.526	-5.04
222.743	2.87
222.96	-9.86
223.177	-9.66
223.394	5.36
223.611	22.19
223.828	18.43
224.045	16.41
224.262	16.87
224.479	22.68
224.696	25.8
224.913	14.67
225.13	9.8
225.347	15.82
225.564	11.6
225.781	10.85
225.997	9.66
226.214	11.88
226.431	14.62
226.648	17.29
226.865	16.7
227.082	16.28
227.298	15.89
227.515	17.2
227.732	15.28
227.949	16.37
228.165	16.32
228.382	13.96
228.599	14.19
228.816	11.62
229.032	9.85
229.249	7.99
229.466	7.77
229.682	7.85
229.899	8.2
230.116	6.9
230.332	6.1
230.549	-0.26
230.765	5.35
230.982	2.63
231.199	3.58
231.415	3.33
231.632	2.34
231.848	1.66
232.065	5.47
232.281	5.29
232.498	8.89
232.714	6.69
232.931	12.49
233.147	7.03
233.364	8.32
233.58	6.96
233.797	8.46
234.013	6.34
234.23	5.99
234.446	4.76
234.662	2.54
234.879	1.97
235.095	3.67
235.312	1.99
235.528	3.79
235.744	2.11
235.961	5.96
236.177	2.84
236.393	6.97
236.61	8.77
236.826	9.18
237.042	8.89
237.258	9.81
237.475	11.01
237.691	10.37
237.907	9.07
238.123	8.89
238.339	10.78
238.556	12.67
238.772	13.55
238.988	13.28
239.204	11.92
239.42	11.94
239.636	13.59
239.853	14.18
240.069	14.7
240.285	15.71
240.501	17.08
240.717	16.33
240.933	17.04
241.149	16.69
241.365	16.73
241.581	17.08
241.797	17.98
242.013	16.93
242.229	17.16
242.445	16.67
242.661	15.49
242.877	14.95
243.093	13.02
243.309	10.93
243.525	11.14
243.741	11.1
243.957	11.32
244.173	10.92
244.388	11.08
244.604	10.43
244.82	11.24
245.036	12.13
245.252	11.77
245.468	12.7
245.683	13.43
245.899	12.5
246.115	12.71
246.331	12.45
246.547	12.27
246.762	12.18
246.978	12.48
247.194	12.04
247.409	11.66
247.625	11.43
247.841	10.86
248.057	10.5
248.272	10.85
248.488	9.39
248.703	8.55
248.919	8.72
249.135	8.4
249.35	8.3
249.566	8.86
249.782	9.42
249.997	9.72
250.213	9.82
250.428	8.12
250.644	8.88
250.859	9.38
251.075	9.71
251.29	9.99
251.506	10.62
251.721	10.56
251.937	9.73
252.152	10.05
252.368	10.71
252.583	11.03
252.798	12.93
253.014	11.32
253.229	10.6
253.445	11.04
253.66	10.25
253.875	8.32
254.091	6.37
254.306	5.01
254.521	4.15
254.737	2.03
254.952	0.19
255.167	0.37
255.383	2.65
255.598	3.62
255.813	3.06
256.028	2.27
256.244	3.67
256.459	4.84
256.674	6.66
256.889	7.01
257.104	7.62
257.32	9.04
257.535	8.12
257.75	8.34
257.965	8.28
258.18	8.37
258.395	8.79
258.61	8.73
258.826	8.77
259.041	8.16
259.256	8.02
259.471	7.96
259.686	7.37
259.901	7.88
260.116	7.62
260.331	7.05
260.546	7.33
260.761	6.08
260.976	6.09
261.191	5.71
261.406	5.63
261.621	5.69
261.836	6.15
262.05	5.4
262.265	3.85
262.48	4.3
262.695	5.14
262.91	5
263.125	6.43
263.34	5.77
263.555	5.85
263.769	6.18
263.984	5.07
264.199	4.92
264.414	5.88
264.629	7.08
264.843	5.73
265.058	4.75
265.273	4.69
265.488	5.39
265.702	5.9
265.917	5.84
266.132	5.85
266.346	6.92
266.561	6.72
266.776	6.95
266.99	6.54
267.205	7.15
267.42	7.24
267.634	7.18
267.849	6.02
268.063	6.42
268.278	5.68
268.492	5.13
268.707	5.24
268.922	5.26
269.136	4.95
269.351	5.14
269.565	5.43
269.78	6.39
269.994	6.08
270.209	6.79
270.423	6.54
270.637	7.13
270.852	7.7
271.066	7.59
271.281	7.82
271.495	7.54
271.709	8.16
271.924	7.71
272.138	7.37
272.353	7.11
272.567	7.36
272.781	7.98
272.996	7.4
273.21	7.72
273.424	7.68
273.638	8.1
273.853	8.62
274.067	8.36
274.281	9.45
274.495	9.62
274.71	10.62
274.924	9.69
275.138	9.41
275.352	9.89
275.566	9.85
275.781	9.36
275.995	9.48
276.209	9.39
276.423	9.05
276.637	7.7
276.851	7.94
277.065	7.31
277.279	8.62
277.493	7.41
277.707	7.62
277.921	6.99
278.135	7.2
278.349	6.45
278.563	6.92
278.777	6.83
278.991	6.2
279.205	6.14
279.419	6.44
279.633	5.72
279.847	5.96
280.061	6.54
280.275	6.21
280.489	6.11
280.703	6.35
280.917	5.92
281.131	6.02
281.344	6.98
281.558	7.48
281.772	7.29
281.986	7.49
282.2	6.77
282.414	6.52
282.627	6.71
282.841	6.97
283.055	6.68
283.269	6.66
283.482	6.82
283.696	6.54
283.91	5.72
284.123	5.87
284.337	6.13
284.551	6.6
284.764	6.28
284.978	6.88
285.192	6.33
285.405	6.76
285.619	6.44
285.833	6.52
286.046	6.68
286.26	7.33
286.473	8.01
286.687	7.5
286.9	7.78
287.114	8.1
287.327	7.65
287.541	8.18
287.754	7.54
287.968	8.26
288.181	7.85
288.395	7.84
288.608	8.34
288.822	7.71
289.035	8.14
289.248	8.21
289.462	8.08
289.675	8.32
289.889	7.86
290.102	8.36
290.315	8.72
290.529	9.24
290.742	10.04
290.955	8.78
291.169	9.02
291.382	9.14
291.595	9.47
291.808	9.72
292.022	9.89
292.235	10.22
292.448	9.96
292.661	9.3
292.875	9.22
293.088	8.18
293.301	9.32
293.514	9.61
293.727	8.58
293.94	8.12
294.153	7.81
294.367	7.1
294.58	6.91
294.793	6.86
295.006	7.38
295.219	7.27
295.432	7.5
295.645	6.99
295.858	7.01
296.071	7.46
296.284	7.66
296.497	7.61
296.71	7.73
296.923	8.01
297.136	8.32
297.349	8.22
297.562	7.65
297.775	8.02
297.988	8.17
298.201	8.25
298.414	8.38
298.626	8.8
298.839	9.35
299.052	8.96
299.265	9.37
299.478	8.44
299.691	8.19
299.903	8.91
300.116	7.98
300.329	8.18
300.542	8.19
300.755	8.16
300.967	7.95
301.18	7.45
301.393	7.88
301.605	7.3
301.818	7.94
302.031	7.77
302.243	7.7
302.456	8.26
302.669	8.07
302.881	7.52
303.094	8.36
303.307	7.65
303.519	6.97
303.732	7.24
303.944	6.98
304.157	6.19
304.37	6.41
304.582	6.74
304.795	6.51
305.007	5.88
305.22	5.61
305.432	4.81
305.645	5.82
305.857	6.61
306.069	6.67
306.282	7.05
306.494	7.82
306.707	7.86
306.919	7.74
307.132	8
307.344	8.92
307.556	9.52
307.769	9.29
307.981	8.79
308.193	8.83
308.406	9.17
308.618	9.51
308.83	9.29
309.043	9.05
309.255	9.02
309.467	9.24
309.679	8.15
309.892	7.56
310.104	7.93
310.316	7.76
310.528	7.58
310.74	7.33
310.953	6.68
311.165	7.22
311.377	6.86
311.589	6.76
311.801	7.08
312.013	7.9
312.225	8.62
312.437	8.26
312.649	7.96
312.862	8.37
313.074	8.64
313.286	9.33
313.498	8.26
313.71	8.8
313.922	8.84
314.134	7.95
314.346	7.64
314.558	7.37
314.77	6.99
314.982	8.06
315.193	8.07
315.405	7.76
315.617	7.67
315.829	9.38
316.041	10.07
316.253	10.74
316.465	10.88
316.677	11.07
316.888	11.61
317.1	12.56
317.312	11.94
317.524	11.46
317.736	11.1
317.947	11.34
318.159	11.19
318.371	9.82
318.583	9.97
318.794	9.62
319.006	10.06
319.218	8.84
319.43	8.08
319.641	7.58
319.853	7.92
320.064	8.59
320.276	8.17
320.488	7.82
320.699	8.49
320.911	7.31
321.123	8.81
321.334	7.26
321.546	8.27
321.757	8.99
321.969	10.11
322.18	9.87
322.392	9.38
322.603	9.54
322.815	9.16
323.026	9.3
323.238	9.32
323.449	8.09
323.661	9.51
323.872	9.65
324.083	9.85
324.295	9.51
324.506	10.48
324.718	11.17
324.929	10.73
325.14	11.04
325.352	10.7
325.563	11.28
325.774	11.58
325.986	12.11
326.197	11.95
326.408	11.32
326.62	11
326.831	9.92
327.042	9.61
327.253	10.24
327.464	9.93
327.676	9.9
327.887	10.12
328.098	10.41
328.309	9.32
328.52	8.87
328.732	9.92
328.943	10.65
329.154	10.48
329.365	10.33
329.576	10.39
329.787	10.16
329.998	10.83
330.209	10.85
330.42	10.41
330.631	11.1
330.842	11.08
331.053	10.28
331.264	9.38
331.475	10.21
331.686	10.85
331.897	11.07
332.108	11.92
332.319	11.47
332.53	11.38
332.741	10.94
332.952	10.42
333.163	10.45
333.374	9.96
333.585	10.35
333.795	9.61
334.006	9.66
334.217	9.42
334.428	8.63
334.639	8.67
334.849	8.32
335.06	9.29
335.271	9.2
335.482	9
335.692	8.92
335.903	9.71
336.114	9.98
336.325	9.76
336.535	9.04
336.746	9.08
336.957	9.23
337.167	10.14
337.378	9.94
337.589	10.12
337.799	10.23
338.01	10.59
338.22	10.2
338.431	10.58
338.642	10.16
338.852	10.87
339.063	10.51
339.273	10.53
339.484	9.43
339.694	9.7
339.905	10.03
340.115	9.9
340.326	9.97
340.536	9.67
340.746	8.4
340.957	8.53
341.167	7.72
341.378	8.16
341.588	7.89
341.799	8.49
342.009	8.39
342.219	8.07
342.43	8.65
342.64	9.03
342.85	9.39
343.061	10.31
343.271	10.43
343.481	11.08
343.691	10.94
343.902	11.29
344.112	10.79
344.322	9.86
344.532	9.62
344.743	9.28
344.953	8.66
345.163	7.69
345.373	7.15
345.583	6.97
345.793	6.2
346.004	6.52
346.214	5.42
346.424	5.99
346.634	6.63
346.844	7.19
347.054	6.79
347.264	7.13
347.474	8.29
347.684	9.13
347.894	9.41
348.104	9.4
348.314	9.18
348.524	9.62
348.734	9.67
348.944	10.05
349.154	9.5
349.364	9.74
349.574	9.58
349.784	9.15
349.994	8.85
350.204	8.69
350.413	9.41
350.623	9.78
350.833	10.31
351.043	9.39
351.253	9.27
351.463	9.19
351.672	9.28
351.882	9.54
352.092	9.07
352.302	9.45
352.511	9.46
352.721	9.4
352.931	8.72
353.141	8.08
353.35	8.6
353.56	8.14
353.77	8.1
353.979	8.25
354.189	8.18
354.399	8.22
354.608	8.33
354.818	8.39
355.027	8.36
355.237	8.69
355.447	9.25
355.656	9.35
355.866	10.25
356.075	10.79
356.285	10.38
356.494	10.16
356.704	10.27
356.913	10.04
357.123	9.9
357.332	9.84
357.542	9.84
357.751	9.58
357.96	9.82
358.17	8.79
358.379	8.55
358.589	8.67
358.798	8.7
359.007	8.99
359.217	8.66
359.426	8.48
359.635	8.56
359.845	8.57
360.054	8.71
360.263	8.16
360.472	8.44
360.682	8.15
360.891	8.18
361.1	8.04
361.309	8.07
361.519	8.41
361.728	8.24
361.937	8.02
362.146	7.82
362.355	8.03
362.564	8.2
362.774	7.84
362.983	8.14
363.192	8.34
363.401	8.13
363.61	8.07
363.819	7.48
364.028	7.39
364.237	7.43
364.446	6.83
364.655	6.45
364.864	6.54
365.073	6.67
365.282	6.83
365.491	6.66
365.7	7.5
365.909	7.01
366.118	6.87
366.327	7.07
366.536	6.56
366.745	7.35
366.954	6.8
367.162	6.72
367.371	6.85
367.58	6.53
367.789	6.66
367.998	6.01
368.207	5.81
368.415	5.75
368.624	5.85
368.833	6.66
369.042	6.88
369.25	7.62
369.459	7.51
369.668	7.31
369.877	7.35
370.085	6.76
370.294	6.82
370.503	7.18
370.711	7.37
370.92	6.95
371.129	6.45
371.337	6.22
371.546	5.8
371.754	5.85
371.963	5.81
372.171	5.69
372.38	6.28
372.589	6.29
372.797	6.26
373.006	6.26
373.214	6.6
373.423	6.54
373.631	6.28
373.84	6.12
374.048	6.24
374.256	6.43
374.465	6.56
374.673	6.38
374.882	6.08
375.09	6.16
375.298	6.56
375.507	6.46
375.715	6.7
375.923	6.79
376.132	6.86
376.34	6.62
376.548	6.54
376.757	6.47
376.965	6.35
377.173	6.48
377.381	5.98
377.59	5.75
377.798	5.63
378.006	5.45
378.214	5.34
378.423	5.16
378.631	4.77
378.839	4.72
379.047	4.68
379.255	5.27
379.463	5.35
379.671	5.62
379.879	5.44
380.088	5.41
380.296	5.43
380.504	5.59
380.712	5.78
380.92	5.97
381.128	5.83
381.336	5.52
381.544	4.84
381.752	4.88
381.96	4.75
382.168	4.71
382.376	4.99
382.584	4.79
382.791	4.54
382.999	4.47
383.207	4.54
383.415	4.51
383.623	4.46
383.831	4.57
384.039	4.4
384.247	4.53
384.454	4.62
384.662	4.19
384.87	4.18
385.078	4.29
385.285	4.06
385.493	4.27
385.701	3.96
385.909	3.97
386.116	3.8
386.324	4.05
386.532	3.79
386.739	3.8
386.947	4.13
387.155	4.38
387.362	4.46
387.57	4.4
387.778	4.38
387.985	4.68
388.193	4.73
388.4	4.73
388.608	4.53
388.816	4.74
389.023	4.63
389.231	4.47
389.438	4.33
389.646	4.15
389.853	4.39
390.061	4.01
390.268	3.87
390.475	3.86
390.683	4
390.89	3.76
391.098	3.58
391.305	3.6
391.512	3.47
391.72	3.12
391.927	2.98
392.135	3.01
392.342	3.32
392.549	3.26
392.756	3.08
392.964	2.97
393.171	3.15
393.378	3.25
393.586	2.98
393.793	2.92
394	3.31
394.207	3.47
394.414	3.31
394.622	2.93
394.829	3.1
395.036	3.18
395.243	3.03
395.45	2.98
395.657	2.87
395.864	3.1
396.072	3.33
396.279	3.12
396.486	3.23
396.693	3.18
396.9	3.36
397.107	3.26
397.314	3.35
397.521	3.4
397.728	3.46
397.935	3.48
398.142	3.46
398.349	3.3
398.556	3.36
398.763	3.19
398.97	3.12
399.177	3.18
399.383	3.05
399.59	2.93
399.797	2.8
400.004	2.67
400.211	2.73
400.418	2.82
400.625	2.86
400.831	2.85
401.038	2.78
401.245	2.94
401.452	2.68
401.658	2.61
401.865	2.52
402.072	2.53
402.279	2.6
402.485	2.41
402.692	2.13
402.899	2.12
403.105	2.11
403.312	2.18
403.519	1.96
403.725	2.12
403.932	2.24
404.138	2.41
404.345	2.54
404.552	2.42
404.758	2.49
404.965	2.67
405.171	2.54
405.378	2.64
405.584	2.43
405.791	2.57
405.997	2.55
406.204	2.57
406.41	2.63
406.617	2.57
406.823	2.45
407.029	2.42
407.236	2.29
407.442	2.48
407.649	2.33
407.855	2.57
408.061	2.57
408.268	2.62
408.474	2.72
408.68	2.44
408.887	2.36
409.093	2.34
409.299	2.32
409.505	2.31
409.712	2.2
409.918	2.05
410.124	1.87
410.33	1.89
410.537	1.67
410.743	1.6
410.949	1.8
411.155	1.88
411.361	2.04
411.567	1.86
411.773	1.81
411.98	1.69
412.186	1.85
412.392	2
412.598	1.98
412.804	2.02
413.01	1.94
413.216	1.81
413.422	2.01
413.628	1.99
413.834	2.16
414.04	2.38
414.246	2.47
414.452	2.45
414.658	2.37
414.864	2.3
415.07	2.39
415.275	2.44
415.481	2.47
415.687	2.09
415.893	2.2
416.099	2.13
416.305	2.04
416.511	2.01
416.716	1.98
416.922	1.93
417.128	1.89
417.334	1.87
417.539	1.85
417.745	1.86
417.951	2.05
418.157	1.89
418.362	2
418.568	1.98
418.774	1.91
418.979	1.93
419.185	2.01
419.391	2.05
419.596	2.01
419.802	1.96
420.008	1.92
420.213	1.9
420.419	1.95
420.624	1.9
420.83	1.86
421.035	1.89
421.241	1.92
421.446	1.82
421.652	1.89
421.857	1.98
422.063	2.06
422.268	2.07
422.474	2.05
422.679	1.99
422.885	1.93
423.09	1.97
423.295	2.12
423.501	2.09
423.706	2.13
423.911	1.98
424.117	1.89
424.322	1.86
424.527	1.84
424.733	1.84
424.938	1.85
425.143	1.9
425.349	1.86
425.554	1.79
425.759	1.79
425.964	1.7
426.169	1.82
426.375	1.77
426.58	1.73
426.785	1.91
426.99	1.86
427.195	2.09
427.4	2.17
427.605	2.22
427.811	2.2
428.016	2.25
428.221	2.32
428.426	2.23
428.631	2.34
428.836	2.35
429.041	2.19
429.246	2.25
429.451	2.13
429.656	1.93
429.861	1.97
430.066	1.84
430.271	1.79
430.476	1.91
430.681	1.97
430.886	1.88
431.09	1.79
431.295	1.85
431.5	1.73
431.705	1.75
431.91	1.88
432.115	1.81
432.32	1.92
432.524	1.89
432.729	1.83
432.934	1.78
433.139	1.8
433.343	1.88
433.548	1.81
433.753	1.93
433.958	1.94
434.162	1.9
434.367	1.92
434.572	1.89
434.776	1.83
434.981	1.76
435.186	1.76
435.39	1.84
435.595	1.89
435.799	1.89
436.004	1.91
436.209	1.86
436.413	1.94
436.618	1.95
436.822	1.9
437.027	1.97
437.231	1.98
437.436	2.01
437.64	1.93
437.845	1.91
438.049	1.92
438.253	1.87
438.458	1.95
438.662	1.84
438.867	1.8
439.071	1.84
439.275	1.76
439.48	1.79
439.684	1.74
439.888	1.77
440.093	1.68
440.297	1.63
440.501	1.67
440.706	1.63
440.91	1.64
441.114	1.65
441.318	1.6
441.523	1.68
441.727	1.69
441.931	1.74
442.135	1.74
442.339	1.87
442.543	1.87
442.748	1.76
442.952	1.8
443.156	1.74
443.36	1.68
443.564	1.73
443.768	1.71
443.972	1.73
444.176	1.72
444.38	1.77
444.584	1.66
444.788	1.7
444.992	1.71
445.196	1.64
445.4	1.62
445.604	1.67
445.808	1.64
446.012	1.58
446.216	1.51
446.42	1.55
446.624	1.44
446.828	1.48
447.032	1.47
447.235	1.44
447.439	1.4
447.643	1.52
447.847	1.52
448.051	1.53
448.254	1.54
448.458	1.56
448.662	1.53
448.866	1.63
449.069	1.56
449.273	1.63
449.477	1.69
449.681	1.69
449.884	1.72
450.088	1.71
450.292	1.62
450.495	1.58
450.699	1.63
450.902	1.61
451.106	1.59
451.31	1.67
451.513	1.59
451.717	1.6
451.92	1.69
452.124	1.71
452.327	1.78
452.531	1.94
452.734	2.04
452.938	2.12
453.141	2.2
453.345	2.21
453.548	2.14
453.752	2.2
453.955	2.19
454.158	2.09
454.362	1.94
454.565	1.94
454.769	1.88
454.972	1.86
455.175	1.6
455.379	1.48
455.582	1.46
455.785	1.53
455.988	1.51
456.192	1.51
456.395	1.65
456.598	1.64
456.801	1.58
457.005	1.65
457.208	1.59
457.411	1.63
457.614	1.72
457.817	1.73
458.021	1.77
458.224	1.73
458.427	1.77
458.63	1.68
458.833	1.73
459.036	1.75
459.239	1.74
459.442	1.81
459.645	1.87
459.848	1.8
460.051	1.73
460.254	1.64
460.457	1.59
460.66	1.52
460.863	1.57
461.066	1.55
461.269	1.5
461.472	1.55
461.675	1.63
461.878	1.61
462.081	1.62
462.284	1.67
462.486	1.86
462.689	1.9
462.892	1.84
463.095	1.86
463.298	1.81
463.5	1.98
463.703	1.82
463.906	1.77
464.109	1.78
464.311	1.86
464.514	1.94
464.717	1.89
464.92	1.82
465.122	1.9
465.325	1.87
465.528	1.99
465.73	1.84
465.933	1.82
466.135	1.8
466.338	1.85
466.541	1.86
466.743	1.85
466.946	1.79
467.148	1.91
467.351	1.93
467.553	1.97
467.756	1.87
467.958	1.85
468.161	1.86
468.363	1.92
468.566	1.85
468.768	1.63
468.971	1.56
469.173	1.58
469.375	1.49
469.578	1.53
469.78	1.45
469.983	1.34
470.185	1.25
470.387	1.29
470.59	1.28
470.792	1.3
470.994	1.42
471.196	1.48
471.399	1.41
471.601	1.45
471.803	1.35
472.005	1.34
472.208	1.51
472.41	1.61
472.612	1.62
472.814	1.59
473.016	1.55
473.218	1.53
473.421	1.49
473.623	1.54
473.825	1.56
474.027	1.62
474.229	1.74
474.431	1.81
474.633	1.79
474.835	1.72
475.037	1.68
475.239	1.73
475.441	1.69
475.643	1.69
475.845	1.66
476.047	1.66
476.249	1.65
476.451	1.63
476.653	1.52
476.855	1.5
477.057	1.44
477.258	1.49
477.46	1.49
477.662	1.53
477.864	1.54
478.066	1.57
478.268	1.56
478.469	1.58
478.671	1.52
478.873	1.53
479.075	1.55
479.276	1.58
479.478	1.53
479.68	1.63
479.882	1.56
480.083	1.6
480.285	1.62
480.487	1.67
480.688	1.65
480.89	1.7
481.091	1.67
481.293	1.69
481.495	1.73
481.696	1.75
481.898	1.68
482.099	1.74
482.301	1.75
482.502	1.73
482.704	1.73
482.905	1.73
483.107	1.72
483.308	1.74
483.51	1.79
483.711	1.8
483.913	1.78
484.114	1.82
484.315	1.79
484.517	1.78
484.718	1.8
484.92	1.78
485.121	1.78
485.322	1.8
485.524	1.83
485.725	1.78
485.926	1.72
486.127	1.73
486.329	1.73
486.53	1.71
486.731	1.68
486.932	1.68
487.134	1.7
487.335	1.7
487.536	1.68
487.737	1.65
487.938	1.62
488.139	1.68
488.341	1.66
488.542	1.67
488.743	1.71
488.944	1.77
489.145	1.77
489.346	1.74
489.547	1.76
489.748	1.76
489.949	1.76
490.15	1.82
490.351	1.8
490.552	1.84
490.753	1.81
490.954	1.83
491.155	1.84
491.356	1.85
491.557	1.9
491.758	1.9
491.959	1.96
492.159	1.96
492.36	1.98
492.561	1.95
492.762	1.9
492.963	1.92
493.164	1.91
493.364	1.84
493.565	1.78
493.766	1.71
493.967	1.65
494.167	1.54
494.368	1.46
494.569	1.5
494.769	1.55
494.97	1.55
495.171	1.55
495.371	1.55
495.572	1.57
495.773	1.62
495.973	1.7
496.174	1.74
496.375	1.79
496.575	1.87
496.776	1.83
496.976	1.81
497.177	1.9
497.377	1.89
497.578	1.9
497.778	1.9
497.979	2.02
498.179	1.95
498.38	1.95
498.58	1.94
498.78	1.95
498.981	1.94
499.181	2.01
499.382	1.89
499.582	1.97
499.782	2.01
499.983	2.02
500.183	1.95
500.383	2.05
500.584	2.05
500.784	2.05
500.984	2.04
501.184	2.1
501.385	2.06
501.585	2.08
501.785	2.05
501.985	1.99
502.185	1.99
502.386	1.95
502.586	1.85
502.786	1.86
502.986	1.89
503.186	2
503.386	2.05
503.586	2.03
503.786	2.1
503.987	2.06
504.187	2.05
504.387	2.05
504.587	2.03
504.787	2.14
504.987	2.08
505.187	2
505.387	1.94
505.587	1.77
505.786	1.88
505.986	1.86
506.186	1.87
506.386	1.97
506.586	1.97
506.786	2.02
506.986	1.94
507.186	2.04
507.386	2.16
507.585	2.11
507.785	2.24
507.985	2.18
508.185	2.24
508.384	2.28
508.584	2.25
508.784	2.33
508.984	2.4
509.183	2.49
509.383	2.45
509.583	2.41
509.782	2.51
509.982	2.53
510.182	2.52
510.381	2.5
510.581	2.51
510.781	2.5
510.98	2.52
511.18	2.56
511.379	2.49
511.579	2.55
511.778	2.51
511.978	2.44
512.177	2.46
512.377	2.5
512.576	2.43
512.776	2.47
512.975	2.5
513.175	2.46
513.374	2.41
513.573	2.58
513.773	2.55
513.972	2.54
514.172	2.52
514.371	2.5
514.57	2.52
514.77	2.55
514.969	2.45
515.168	2.45
515.367	2.48
515.567	2.46
515.766	2.35
515.965	2.38
516.164	2.53
516.364	2.54
516.563	2.51
516.762	2.52
516.961	2.53
517.16	2.63
517.359	2.65
517.559	2.59
517.758	2.61
517.957	2.68
518.156	2.67
518.355	2.59
518.554	2.58
518.753	2.62
518.952	2.66
519.151	2.68
519.35	2.61
519.549	2.63
519.748	2.66
519.947	2.69
520.146	2.67
520.345	2.7
520.544	2.79
520.743	2.92
520.942	2.91
521.141	2.9
521.339	2.95
521.538	3.01
521.737	2.93
521.936	2.94
522.135	2.87
522.333	2.82
522.532	2.86
522.731	2.73
522.93	2.7
523.129	2.73
523.327	2.75
523.526	2.72
523.725	2.7
523.923	2.81
524.122	2.81
524.321	2.86
524.519	2.94
524.718	2.93
524.917	3.07
525.115	3.05
525.314	3.02
525.512	3.04
525.711	3.08
525.909	3.09
526.108	3.06
526.306	3.07
526.505	3.07
526.703	3.07
526.902	3.06
527.1	3.05
527.299	3.05
527.497	3.06
527.696	3.04
527.894	3.06
528.092	3.09
528.291	3.13
528.489	3.2
528.688	3.24
528.886	3.21
529.084	3.28
529.283	3.25
529.481	3.27
529.679	3.34
529.877	3.36
530.076	3.35
530.274	3.34
530.472	3.33
530.67	3.27
530.869	3.23
531.067	3.28
531.265	3.29
531.463	3.34
531.661	3.35
531.859	3.34
532.057	3.37
532.255	3.4
532.454	3.43
532.652	3.44
532.85	3.46
533.048	3.54
533.246	3.56
533.444	3.57
533.642	3.63
533.84	3.69
534.038	3.75
534.236	3.79
534.434	3.79
534.632	3.83
534.83	3.82
535.027	3.87
535.225	3.9
535.423	3.92
535.621	3.96
535.819	3.92
536.017	3.91
536.215	3.93
536.412	3.89
536.61	3.88
536.808	3.85
537.006	3.88
537.203	3.93
537.401	3.81
537.599	3.79
537.797	3.78
537.994	3.83
538.192	3.82
538.39	3.81
538.587	3.89
538.785	3.99
538.983	4.04
539.18	4.1
539.378	4.07
539.575	4.12
539.773	4.17
539.97	4.21
540.168	4.24
540.366	4.32
540.563	4.37
540.761	4.38
540.958	4.4
541.155	4.42
541.353	4.45
541.55	4.48
541.748	4.54
541.945	4.58
542.143	4.6
542.34	4.62
542.537	4.56
542.735	4.59
542.932	4.65
543.129	4.73
543.327	4.8
543.524	4.78
543.721	4.79
543.919	4.8
544.116	4.86
544.313	4.9
544.51	4.91
544.708	5.02
544.905	5.01
545.102	5.07
545.299	5.07
545.496	5.1
545.693	5.17
545.891	5.27
546.088	5.37
546.285	5.39
546.482	5.38
546.679	5.41
546.876	5.43
547.073	5.55
547.27	5.59
547.467	5.63
547.664	5.65
547.861	5.67
548.058	5.67
548.255	5.58
548.452	5.64
548.649	5.76
548.846	5.79
549.043	5.85
549.24	5.86
549.437	5.85
549.633	5.77
549.83	5.89
550.027	5.95
550.224	6.03
550.421	6.17
550.618	6.22
550.814	6.3
551.011	6.37
551.208	6.37
551.405	6.36
551.601	6.48
551.798	6.59
551.995	6.53
552.191	6.51
552.388	6.51
552.585	6.54
552.781	6.56
552.978	6.59
553.175	6.64
553.371	6.81
553.568	6.86
553.764	6.82
553.961	6.88
554.157	6.92
554.354	7.02
554.55	7.24
554.747	7.26
554.943	7.33
555.14	7.32
555.336	7.41
555.533	7.31
555.729	7.38
555.926	7.48
556.122	7.61
556.318	7.77
556.515	7.84
556.711	7.72
556.907	7.77
557.104	7.72
557.3	7.82
557.496	7.95
557.693	7.98
557.889	8.1
558.085	8.07
558.281	8.07
558.478	8.1
558.674	8.11
558.87	8.28
559.066	8.31
559.262	8.44
559.459	8.46
559.655	8.38
559.851	8.45
560.047	8.51
560.243	8.59
560.439	8.67
560.635	8.62
560.831	8.77
561.027	8.76
561.223	8.82
561.419	8.92
561.615	9.02
561.811	9.2
562.007	9.28
562.203	9.29
562.399	9.41
562.595	9.4
562.791	9.66
562.987	9.77
563.183	9.92
563.379	10.09
563.575	10.1
563.771	10
563.966	9.94
564.162	10.07
564.358	10.05
564.554	10.06
564.75	10.17
564.945	10.13
565.141	10.21
565.337	10.26
565.533	10.21
565.728	10.28
565.924	10.39
566.12	10.57
566.315	10.54
566.511	10.75
566.707	10.95
566.902	11.06
567.098	11.16
567.293	11.22
567.489	11.24
567.684	11.46
567.88	11.52
568.076	11.61
568.271	11.72
568.467	11.82
568.662	11.84
568.858	11.88
569.053	11.89
569.248	11.94
569.444	12.03
569.639	12.01
569.835	12.03
570.03	12.15
570.225	12.19
570.421	12.19
570.616	12.22
570.812	12.24
571.007	12.18
571.202	12.25
571.397	12.29
571.593	12.25
571.788	12.49
571.983	12.49
572.178	12.61
572.374	12.8
572.569	12.88
572.764	13.02
572.959	13.1
573.154	13.22
573.35	13.22
573.545	13.36
573.74	13.45
573.935	13.5
574.13	13.57
574.325	13.62
574.52	13.57
574.715	13.66
574.91	13.67
575.105	13.83
575.3	13.89
575.495	13.99
575.69	14.07
575.885	14.2
576.08	14.2
576.275	14.35
576.47	14.32
576.665	14.43
576.86	14.45
577.055	14.56
577.25	14.47
577.444	14.53
577.639	14.62
577.834	14.7
578.029	14.63
578.224	14.65
578.418	14.64
578.613	14.69
578.808	14.77
579.003	14.7
579.197	14.84
579.392	14.94
579.587	15.11
579.781	15.13
579.976	15.15
580.171	15.26
580.365	15.39
580.56	15.61
580.755	15.65
580.949	15.64
581.144	15.85
581.338	15.85
581.533	15.93
581.727	15.99
581.922	16.04
582.116	16.17
582.311	16.24
582.505	16.23
582.7	16.2
582.894	16.26
583.089	16.32
583.283	16.35
583.478	16.47
583.672	16.68
583.866	16.73
584.061	16.88
584.255	16.79
584.449	16.82
584.644	16.92
584.838	16.81
585.032	16.84
585.226	16.79
585.421	16.71
585.615	16.71
585.809	16.58
586.003	16.54
586.198	16.51
586.392	16.65
586.586	16.77
586.78	16.79
586.974	17.03
587.168	17.11
587.363	17.15
587.557	17.42
587.751	17.4
587.945	17.37
588.139	17.53
588.333	17.54
588.527	17.52
588.721	17.65
588.915	17.81
589.109	17.71
589.303	17.77
589.497	17.91
589.691	17.72
589.885	17.8
590.079	17.98
590.273	17.98
590.466	17.97
590.66	18.05
590.854	17.9
591.048	17.83
591.242	17.8
591.436	17.74
591.629	17.74
591.823	17.9
592.017	17.89
592.211	17.9
592.404	17.95
592.598	18.12
592.792	18.15
592.986	18.21
593.179	18.26
593.373	18.31
593.567	18.47
593.76	18.44
593.954	18.47
594.147	18.61
594.341	18.71
594.535	18.66
594.728	18.76
594.922	18.68
595.115	18.72
595.309	18.65
595.502	18.7
595.696	18.7
595.889	18.78
596.083	18.75
596.276	18.64
596.47	18.62
596.663	18.65
596.856	18.48
597.05	18.56
597.243	18.53
597.437	18.67
597.63	18.61
597.823	18.48
598.017	18.54
598.21	18.52
598.403	18.67
598.596	18.57
598.79	18.78
598.983	18.91
599.176	18.94
599.369	19.06
599.563	18.96
599.756	19.14
599.949	19.25
600.142	19.24
600.335	19.29
600.528	19.28
600.722	19.38
600.915	19.3
601.108	19.33
601.301	19.33
601.494	19.31
601.687	19.42
601.88	19.34
602.073	19.39
602.266	19.57
602.459	19.58
602.652	19.47
602.845	19.54
603.038	19.52
603.231	19.59
603.424	19.61
603.617	19.65
603.809	19.71
604.002	19.82
604.195	19.82
604.388	19.61
604.581	19.62
604.774	19.83
604.966	19.76
605.159	19.85
605.352	19.82
605.545	19.8
605.737	19.82
605.93	19.86
606.123	19.73
606.316	19.8
606.508	20
606.701	20.24
606.894	20.07
607.086	20.18
607.279	20.2
607.471	20.18
607.664	20.25
607.857	20.34
608.049	20.19
608.242	20.21
608.434	20.23
608.627	20.17
608.819	19.9
609.012	20.02
609.204	19.94
609.397	19.89
609.589	19.93
609.782	19.98
609.974	20.01
610.166	20.05
610.359	20.15
610.551	20.23
610.743	20.37
610.936	20.58
611.128	20.57
611.32	20.57
611.513	20.49
611.705	20.55
611.897	20.39
612.09	20.21
612.282	20.26
612.474	20.36
612.666	20.31
612.858	20.15
613.051	20.16
613.243	20.22
613.435	20.37
613.627	20.57
613.819	20.6
614.011	20.84
614.203	20.86
614.395	20.95
614.588	20.9
614.78	20.95
614.972	21.08
615.164	21.09
615.356	20.99
615.548	20.84
615.74	20.78
615.932	20.7
616.124	20.63
616.315	20.8
616.507	20.9
616.699	20.84
616.891	20.81
617.083	20.93
617.275	20.9
617.467	20.85
617.659	20.96
617.85	20.92
618.042	20.98
618.234	21.07
618.426	20.97
618.618	20.91
618.809	20.95
619.001	20.87
619.193	20.78
619.384	20.89
619.576	21.02
619.768	21.04
619.959	21
620.151	21.03
620.343	20.89
620.534	20.74
620.726	20.59
620.917	20.7
621.109	20.67
621.301	20.64
621.492	20.41
621.684	20.42
621.875	20.37
622.067	20.6
622.258	20.49
622.45	20.5
622.641	20.67
622.832	20.81
623.024	20.7
623.215	20.85
623.407	20.83
623.598	21.05
623.789	21
623.981	21.14
624.172	21.05
624.363	21.21
624.555	21.38
624.746	21.34
624.937	21.45
625.129	21.59
625.32	21.58
625.511	21.6
625.702	21.57
625.893	21.58
626.085	21.44
626.276	21.38
626.467	21.38
626.658	21.19
626.849	21.18
627.04	20.96
627.231	20.93
627.422	20.95
627.614	20.98
627.805	20.81
627.996	20.7
628.187	20.84
628.378	20.68
628.569	20.6
628.76	20.72
628.951	20.81
629.142	20.86
629.332	20.75
629.523	20.7
629.714	20.75
629.905	21.02
630.096	21.28
630.287	21.12
630.478	21.47
630.669	21.58
630.859	21.46
631.05	21.38
631.241	21.45
631.432	21.43
631.623	21.31
631.813	21.35
632.004	21.28
632.195	21.25
632.385	21.49
632.576	21.4
632.767	21.21
632.957	21.36
633.148	21.43
633.339	21.51
633.529	21.52
633.72	21.62
633.91	21.48
634.101	21.43
634.292	21.38
634.482	21.12
634.673	21.14
634.863	21.25
635.054	21.22
635.244	21.1
635.435	21.19
635.625	21.11
635.815	21.12
636.006	21.21
636.196	21.51
636.387	21.21
636.577	21.35
636.767	21.45
636.958	21.49
637.148	21.53
637.338	21.79
637.529	21.62
637.719	21.75
637.909	21.79
638.099	21.83
638.29	21.62
638.48	22.21
638.67	22.25
638.86	22.07
639.05	21.97
639.241	22.02
639.431	22
639.621	21.93
639.811	22.12
640.001	22.1
640.191	22.03
640.381	22.17
640.571	21.85
640.761	21.96
640.951	22.11
641.141	22.25
641.331	22.17
641.521	22.14
641.711	22.05
641.901	21.77
642.091	21.8
642.281	22.05
642.471	21.92
642.661	21.98
642.851	21.82
643.041	21.74
643.231	21.72
643.42	21.61
643.61	21.69
643.8	21.78
643.99	22.01
644.18	21.91
644.369	21.62
644.559	21.57
644.749	21.55
644.939	21.44
645.128	21.46
645.318	21.33
645.508	21.54
645.697	21.37
645.887	21.39
646.076	21.29
646.266	21.43
646.456	21.57
646.645	21.44
646.835	21.29
647.024	21.48
647.214	21.37
647.403	21.35
647.593	21.29
647.782	21.24
647.972	21.18
648.161	21.28
648.351	21.09
648.54	21.02
648.73	20.92
648.919	20.99
649.108	21.03
649.298	21.09
649.487	21.24
649.677	21.29
649.866	21.45
650.055	21.67
650.244	21.55
650.434	21.76
650.623	21.73
650.812	21.86
651.002	22.05
651.191	22.01
651.38	22.22
651.569	22.13
651.758	22.05
651.947	22.07
652.137	22
652.326	21.99
652.515	22.02
652.704	22.24
652.893	22.38
653.082	22.36
653.271	22.5
653.46	22.29
653.649	22.53
653.838	22.72
654.027	22.77
654.216	23
654.405	23.3
654.594	23.09
654.783	22.79
654.972	22.86
655.161	23.08
655.35	22.97
655.539	22.9
655.728	22.87
655.916	22.8
656.105	22.64
656.294	22.53
656.483	22.29
656.672	22.54
656.86	22.54
657.049	22.55
657.238	22.42
657.427	22.43
657.615	22.57
657.804	22.6
657.993	22.62
658.181	22.72
658.37	22.64
658.559	22.7
658.747	22.62
658.936	22.71
659.125	22.69
659.313	22.73
659.502	22.8
659.69	22.8
659.879	22.63
660.067	22.67
660.256	22.69
660.444	22.86
660.633	22.92
660.821	22.97
661.01	23.09
661.198	23.16
661.387	22.9
661.575	22.73
661.763	22.66
661.952	22.73
662.14	22.7
662.328	22.55
662.517	22.56
662.705	22.42
662.893	22.39
663.082	22.16
663.27	21.83
663.458	22.04
663.646	22.16
663.834	22.14
664.023	22.12
664.211	22.08
664.399	22.04
664.587	21.84
664.775	22.19
664.963	22.19
665.152	22.37
665.34	22.55
665.528	22.29
665.716	22.34
665.904	22.48
666.092	22.53
666.28	22.38
666.468	22.37
666.656	22.42
666.844	22.37
667.032	22.51
667.22	22.51
667.408	22.64
667.596	22.9
667.784	22.63
667.971	22.78
668.159	22.9
668.347	22.77
668.535	22.81
668.723	22.79
668.911	22.51
669.098	22.24
669.286	22.1
669.474	22.03
669.662	22.09
669.849	22.32
670.037	21.97
670.225	21.9
670.413	22.2
670.6	22.13
670.788	22.17
670.976	22.36
671.163	22.63
671.351	22.63
671.538	22.69
671.726	22.51
671.913	22.31
672.101	22.42
672.289	22.6
672.476	22.41
672.664	22.59
672.851	22.6
673.039	22.41
673.226	22.6
673.413	22.79
673.601	22.71
673.788	22.77
673.976	22.87
674.163	22.72
674.35	22.67
674.538	22.89
674.725	22.99
674.912	22.88
675.1	23.01
675.287	22.69
675.474	22.69
675.662	22.95
675.849	23.04
676.036	23.19
676.223	23.53
676.411	23.3
676.598	23.36
676.785	23.27
676.972	23.2
677.159	23.26
677.346	23.28
677.533	23.26
677.721	23.2
677.908	23.11
678.095	22.99
678.282	23.08
678.469	22.94
678.656	22.93
678.843	23.04
679.03	23.32
679.217	23.54
679.404	23.56
679.591	23.51
679.778	23.31
679.964	23.41
680.151	23.56
680.338	23.36
680.525	23.33
680.712	23.19
680.899	22.93
681.086	22.98
681.272	22.6
681.459	22.74
681.646	22.95
681.833	23.02
682.02	23.14
682.206	22.98
682.393	22.89
682.58	23.18
682.766	23.31
682.953	23.77
683.14	23.45
683.326	23.72
683.513	23.91
683.7	23.81
683.886	23.78
684.073	23.66
684.259	23.73
684.446	24.2
684.632	24.14
684.819	23.98
685.005	23.73
685.192	23.73
685.378	23.71
685.565	23.42
685.751	23.36
685.938	23.45
686.124	23.4
686.31	23.29
686.497	22.87
686.683	22.98
686.87	22.9
687.056	22.64
687.242	22.76
687.429	22.56
687.615	22.4
687.801	22.46
687.987	22.35
688.174	22.32
688.36	22.26
688.546	22.4
688.732	22.22
688.918	22.31
689.105	22.29
689.291	21.76
689.477	21.92
689.663	21.83
689.849	21.86
690.035	22.07
690.221	21.96
690.407	22.09
690.593	22.15
690.779	22.11
690.965	22.1
691.151	22.41
691.337	23.06
691.523	22.92
691.709	23.14
691.895	23.07
692.081	23.07
692.267	23.1
692.453	23.38
692.639	23.28
692.825	23.17
693.011	23.36
693.196	23.02
693.382	22.92
693.568	22.75
693.754	22.63
693.94	22.57
694.125	22.66
694.311	22.62
694.497	22.37
694.682	22.04
694.868	22.4
695.054	22.31
695.239	22.55
695.425	22.4
695.611	22.76
695.796	22.74
695.982	22.7
696.168	22.49
696.353	22.61
696.539	22.91
696.724	22.79
696.91	22.81
697.095	23.03
697.281	23.08
697.466	23.36
697.652	23.21
697.837	23.47
698.023	23.71
698.208	23.73
698.393	23.73
698.579	23.5
698.764	23.84
698.949	23.77
699.135	23.65
699.32	23.7
699.505	23.65
699.691	23.46
699.876	23.36
700.061	23
700.246	23.12
700.432	23.31
700.617	23.18
700.802	23.17
700.987	23.12
701.172	23.17
701.358	23.15
701.543	23.34
701.728	23.84
701.913	23.69
702.098	24.1
702.283	23.65
702.468	23.35
702.653	23.2
702.838	23.28
703.023	23.65
703.208	23.3
703.393	22.95
703.578	22.13
703.763	22.1
703.948	22.22
704.133	22.05
704.318	22.23
704.503	22.27
704.688	22.69
704.873	22.71
705.057	22.67
705.242	22.95
705.427	23.28
705.612	23.78
705.797	24.17
705.981	24.17
706.166	24.03
706.351	24.34
706.536	24.32
706.72	24.46
706.905	24.63
707.09	24.37
707.274	24.4
707.459	24.69
707.644	24.83
707.828	24.59
708.013	24.23
708.197	24.13
708.382	23.98
708.567	24.06
708.751	23.95
708.936	23.7
709.12	23.69
709.305	23.18
709.489	22.86
709.673	22.67
709.858	22.31
710.042	22.13
710.227	22.51
710.411	22.24
710.596	22.63
710.78	22.71
710.964	22.47
711.149	22.66
711.333	23.07
711.517	22.89
711.702	23.19
711.886	23.26
712.07	23.74
712.254	23.52
712.438	23.61
712.623	23.44
712.807	23.35
712.991	23.53
713.175	23.36
713.359	23.51
713.544	23.65
713.728	23.38
713.912	23.19
714.096	23.26
714.28	23.47
714.464	23.63
714.648	23.82
714.832	23.7
715.016	23.6
715.2	23.7
715.384	23.51
715.568	23.62
715.752	23.63
715.936	23.82
716.12	23.67
716.304	23.52
716.488	23.29
716.671	22.92
716.855	23.22
717.039	23.48
717.223	23.45
717.407	23.36
717.59	23.32
717.774	23.28
717.958	23.04
718.142	23.31
718.325	23.48
718.509	23.71
718.693	23.46
718.877	23.3
719.06	23.5
719.244	23.55
719.428	23.57
719.611	23.64
719.795	23.69
719.978	24.15
720.162	23.8
720.345	23.77
720.529	23.79
720.713	24.16
720.896	24.01
721.08	23.38
721.263	22.98
721.446	23.41
721.63	23.03
721.813	22.58
721.997	21.62
722.18	21.52
722.364	21.11
722.547	20.89
722.73	20.19
722.914	20.01
723.097	20.75
723.28	20.94
723.464	20.54
723.647	21.15
723.83	21.61
724.013	22.53
724.197	22.34
724.38	22.48
724.563	22.59
724.746	23.33
724.929	23.44
725.112	23.29
725.296	23.31
725.479	23.31
725.662	23.02
725.845	22.81
726.028	22.69
726.211	22.93
726.394	23.16
726.577	23.57
726.76	23.34
726.943	23.54
727.126	23.22
727.309	23.52
727.492	23.59
727.675	23.4
727.858	23.4
728.041	23.26
728.224	23.62
728.407	23.4
728.589	23.14
728.772	22.99
728.955	23.05
729.138	23
729.321	23.01
729.503	23.23
729.686	23.67
729.869	23.92
730.052	23.85
730.234	23.82
730.417	23.98
730.6	24.21
730.782	24.2
730.965	23.98
731.148	23.93
731.33	24.02
731.513	23.89
731.695	23.83
731.878	23.74
732.061	23.92
732.243	23.82
732.426	23.83
732.608	23.21
732.791	23.05
732.973	23.21
733.156	23.38
733.338	22.92
733.52	23.1
733.703	23.02
733.885	22.64
734.068	22.39
734.25	22.43
734.432	21.81
734.615	22.34
734.797	22.67
734.979	22.09
735.162	22.04
735.344	22.7
735.526	22.41
735.708	22.35
735.891	22.7
736.073	23.32
736.255	22.6
736.437	23.01
736.619	23.1
736.802	23.37
736.984	23.47
737.166	23.42
737.348	23.18
737.53	23.26
737.712	23.46
737.894	23.67
738.076	23.54
738.258	24.17
738.44	24.18
738.622	24.27
738.804	23.9
738.986	23.6
739.168	23.74
739.35	23.5
739.532	23.53
739.714	23.19
739.896	22.19
740.078	22.22
740.259	21.82
740.441	21.77
740.623	21.76
740.805	21.75
740.987	22.47
741.168	22.42
741.35	22.67
741.532	22.35
741.714	22.85
741.895	23.62
742.077	23.33
742.259	23.82
742.44	23.8
742.622	23.41
742.804	23.67
742.985	23.41
743.167	23.29
743.348	23.78
743.53	23.75
743.711	23.52
743.893	23.2
744.075	23.04
744.256	22.33
744.438	23.19
744.619	22.88
744.8	22.48
744.982	23.31
745.163	23.31
745.345	23.01
745.526	23.08
745.707	23.01
745.889	22.93
746.07	23.18
746.252	23.64
746.433	22.9
746.614	23.2
746.795	23.34
746.977	22.46
747.158	22.74
747.339	22.1
747.52	22.77
747.702	22.34
747.883	23
748.064	22.88
748.245	23.27
748.426	22.87
748.607	22.47
748.788	22.22
748.97	22.81
749.151	22.62
749.332	22.47
749.513	21.91
749.694	22.03
749.875	21.65
750.056	21.94
750.237	21.73
750.418	21.58
750.599	21.85
750.78	21.99
750.96	21.27
751.141	21.7
751.322	22.3
751.503	22.92
751.684	23.16
751.865	23.19
752.046	23.15
752.226	22.69
752.407	24.29
752.588	24.25
752.769	24.83
752.949	25.58
753.13	25.25
753.311	24.66
753.492	23.51
753.672	22.88
753.853	23.13
754.034	22.86
754.214	23.04
754.395	21.83
754.575	22.55
754.756	21.82
754.937	21.31
755.117	20.18
755.298	19.93
755.478	20.55
755.659	20.86
755.839	21.31
756.02	20.67
756.2	20.64
756.381	20.45
756.561	19.75
756.741	20.34
756.922	20.88
757.102	21.5
757.283	22.44
757.463	22.4
757.643	22.38
757.823	22.01
758.004	22.22
758.184	22.61
758.364	23.02
758.545	22.76
758.725	22.52
758.905	22.69
759.085	22.88
759.265	22.07
759.446	21.64
759.626	21.81
759.806	21.96
759.986	21.9
760.166	21.15
760.346	21.31
760.526	21.73
760.706	21.66
760.886	21.73
761.066	21.9
761.246	22.84
761.426	22.78
761.606	22.88
761.786	22.78
761.966	23.2
762.146	23.69
762.326	23.87
762.506	24.04
762.686	24.08
762.866	23.66
763.046	24.19
763.225	23.54
763.405	23.98
763.585	23.75
763.765	23.87
763.945	23.79
764.124	23.37
764.304	23.03
764.484	23.11
764.664	22.92
764.843	22.98
765.023	22.5
765.203	22.35
765.382	22.2
765.562	22.81
765.741	22.65
765.921	22.66
766.101	23.21
766.28	23.27
766.46	23.19
766.639	23.34
766.819	23.78
766.998	24.14
767.178	24.49
767.357	24.78
767.537	24.71
767.716	24.68
767.896	24.66
768.075	24.9
768.254	24.29
768.434	24.5
768.613	25.08
768.792	24.23
768.972	23.93
769.151	23.97
769.33	23.91
769.51	23.57
769.689	24.1
769.868	23.83
770.047	23.97
770.226	23.59
770.406	22.76
770.585	21.85
770.764	21.87
770.943	21.92
771.122	22.42
771.301	22.32
771.48	21.94
771.66	21.18
771.839	20.94
772.018	19.43
772.197	20.36
772.376	20.62
772.555	20.77
772.734	21.16
772.913	20.55
773.092	20.75
773.271	20.15
773.449	19.56
773.628	19.21
773.807	20.06
773.986	20.77
774.165	20.64
774.344	20.95
774.523	21.9
774.701	21.99
774.88	22.18
775.059	20.78
775.238	21
775.417	22.3
775.595	22.36
775.774	22.19
775.953	22.4
776.131	22.8
776.31	22.24
776.489	21.29
776.667	21.1
776.846	21.42
777.025	23.13
777.203	22.01
777.382	21.23
777.56	21.48
777.739	21.5
777.917	21.66
778.096	21.26
778.274	21.31
778.453	21.63
778.631	22.01
778.81	21.48
778.988	20.76
779.166	21.53
779.345	20.97
779.523	21.13
779.702	20.94
779.88	21.2
780.058	21.4
780.237	22.77
780.415	22.09
780.593	20.8
780.771	20.69
780.95	20.33
781.128	20.7
781.306	21.75
781.484	20.84
781.662	20.08
781.841	19.41
782.019	19.43
782.197	18.3
782.375	19.28
782.553	20.19
782.731	20.9
782.909	21.34
783.087	22.6
783.265	21.98
783.443	23.59
783.621	24.39
783.799	24.41
783.977	24.73
784.155	24.53
784.333	24
784.511	24.28
784.689	23.25
784.867	22.55
785.045	20.99
785.223	21.19
785.4	20.29
785.578	20.15
785.756	20.68
785.934	20.03
786.112	19.67
786.289	19.6
786.467	19.26
786.645	20.08
786.823	20.68
787	22.42
787.178	22.73
787.356	23.03
787.533	22.47
787.711	22.68
787.889	23.01
788.066	23.61
788.244	23.19
788.421	23.05
788.599	23.01
788.776	22.26
788.954	20.54
789.131	20.8
789.309	20.85
789.486	21.1
789.664	20.64
789.841	20.92
790.019	20.75
790.196	21.11
790.373	21.11
790.551	20.96
790.728	21.5
790.906	23.22
791.083	22.92
791.26	21.37
791.437	21.7
791.615	22.49
791.792	21.06
791.969	21.58
792.146	21.65
792.324	21.44
792.501	21.49
792.678	21.4
792.855	19.57
793.032	18.55
793.209	20.28
793.387	19.98
793.564	18.49
793.741	19.44
793.918	19.06
794.095	19.8
794.272	20.49
794.449	20.67
794.626	20.85
794.803	21.39
794.98	22.91
795.157	22.3
795.334	22.51
795.511	23.21
795.688	22.61
795.864	22.96
796.041	22.64
796.218	22.97
796.395	22.97
796.572	22.81
796.749	22.31
796.925	21.63
797.102	22.72
797.279	23.68
797.456	24.06
797.632	25.1
797.809	24.31
797.986	24.15
798.162	22.59
798.339	22.31
798.516	22.94
798.692	24.47
798.869	23.76
799.046	22.18
799.222	20.61
799.399	20.72
799.575	20.66
799.752	21.31
799.928	21.5
800.105	21.76
800.281	21.69
800.458	21.32
800.634	19.59
800.811	19.78
800.987	20.1
801.163	21.56
801.34	20.24
801.516	20.26
801.692	19.53
801.869	19.91
802.045	21.48
802.221	21.68
802.398	21.31
802.574	21.49
802.75	21.09
802.926	21.38
803.103	19.53
803.279	19.73
803.455	19.49
803.631	19.83
803.807	19.85
803.983	19.52
804.16	19.66
804.336	20.4
804.512	20.24
804.688	22.41
804.864	22.32
805.04	23.17
805.216	23.32
805.392	23.69
805.568	23.45
805.744	24.03
805.92	23.7
806.096	24.58
806.272	24.72
806.448	24.93
806.623	23.71
806.799	23.95
806.975	24.4
807.151	23.83
807.327	23.2
807.503	24.3
807.678	24.31
807.854	26.1
808.03	24.22
808.206	23.87
808.381	23.07
808.557	23.54
808.733	22.01
808.908	21.24
809.084	22.11
809.26	22.61
809.435	22.1
809.611	21.13
809.787	20.04
809.962	21
810.138	20.6
810.313	21.64
810.489	20.68
810.664	23.19
810.84	24
811.015	23.97
811.191	23.38
811.366	23.23
811.542	21.65
811.717	20.36
811.892	21.88
812.068	21.65
812.243	22.88
812.419	22.55
812.594	21.05
812.769	21.01
812.944	20.36
813.12	19.72
813.295	21.18
813.47	21.56
813.645	23.41
813.821	21.97
813.996	22.22
814.171	22.3
814.346	22.79
814.521	22.8
814.697	24.42
814.872	24.79
815.047	26.94
815.222	26.34
815.397	26.74
815.572	24.71
815.747	24.53
815.922	24
816.097	23.37
816.272	24.08
816.447	24.05
816.622	21.53
816.797	22.27
816.972	21.37
817.147	20.92
817.322	20.5
817.496	21.59
817.671	22.38
817.846	21.92
818.021	20.94
818.196	20.31
818.371	20.61
818.545	22.23
818.72	22.7
818.895	22.23
819.069	22.1
819.244	24.08
819.419	24.07
819.594	23.42
819.768	23.76
819.943	24.1
820.117	24.28
820.292	24.44
820.467	24.54
820.641	24.23
820.816	24.28
820.99	24.64
821.165	24.17
821.339	24.38
821.514	24.64
821.688	25.17
821.863	25.2
822.037	25.05
822.212	25.14
822.386	24.91
822.56	24.73
822.735	24.65
822.909	24.57
823.084	24.85
823.258	24.68
823.432	24.54
823.606	24.08
823.781	24.08
823.955	24.17
824.129	23.9
824.303	24.21
824.478	24.49
824.652	24.61
824.826	24.46
825	24.12
825.174	23.98
825.348	24.27
825.523	24.13
825.697	24.1
825.871	24.67
826.045	24.67
826.219	24.64
826.393	24.69
826.567	25.18
826.741	24.82
826.915	24.78
827.089	25.01
827.263	24.6
827.437	24.81
827.611	25.05
827.784	24.72
827.958	25
828.132	24.73
828.306	24.72
828.48	24.13
828.654	24.55
828.827	25.1
829.001	25.83
829.175	25.82
829.349	25.99
829.522	25.25
829.696	24.73
829.87	25.12
830.044	24.94
830.217	24.86
830.391	24.55
830.565	25.33
830.738	25.36
830.912	23.5
831.085	22.97
831.259	22.55
831.432	23.35
831.606	23.67
831.779	22.67
831.953	23.17
832.126	22.78
832.3	22.8
832.473	20.84
832.647	20.02
832.82	20.37
832.994	20.62
833.167	20.88
833.34	21.69
833.514	21.16
833.687	21.07
833.86	20.58
834.034	20.08
834.207	20.58
834.38	22.05
834.553	22.02
834.727	21.84
834.9	22
835.073	21.98
835.246	20.7
835.419	21.63
835.593	21.84
835.766	22.27
835.939	22.3
836.112	21.94
836.285	21
836.458	21.06
836.631	20.17
836.804	19.95
836.977	19.72
837.15	19.21
837.323	18.1
837.496	17.71
837.669	17.97
837.842	18.89
838.015	17.11
838.188	17.09
838.361	15.84
838.533	17.78
838.706	18.13
838.879	19.14
839.052	20.54
839.225	20.67
839.398	20.75
839.57	19.28
839.743	19.94
839.916	22.76
840.088	21.81
840.261	22.84
840.434	23.53
840.607	23.1
840.779	20.82
840.952	19.21
841.124	17.48
841.297	18.96
841.47	18.92
841.642	17.06
841.815	15.71
841.987	18.62
842.16	18.78
842.332	16.02
842.505	15.88
842.677	18.28
842.85	18.22
843.022	19.26
843.194	18.72
843.367	17.77
843.539	19.2
843.712	19.71
843.884	16.05
844.056	17.2
844.229	19.56
844.401	19.73
844.573	18.58
844.745	19.59
844.918	22.04
845.09	22.97
845.262	23.26
845.434	23.5
845.606	22.52
845.779	23.84
845.951	20.18
846.123	18.55
846.295	16.94
846.467	18.07
846.639	18.91
846.811	16.6
846.983	11.48
847.155	9.95
847.327	11.16
847.499	15.18
847.671	12.77
847.843	16.4
848.015	15.71
848.187	17.38
848.359	16.35
848.531	18.64
848.703	23.48
848.875	22.63
849.047	23.88
849.218	19.48
849.39	14.97
849.562	17.23
849.734	15.41
849.905	19.99
850.077	19.68
850.249	20.41
850.421	19.05
850.592	11.51
850.764	13.72
850.936	11.04
851.107	13.2
851.279	12.53
851.451	13.74
851.622	10.94
851.794	2.09
851.965	6.29
852.137	4.43
852.308	1.18
852.48	6.85
852.651	9.07
852.823	13.91
852.994	16.57
853.166	19.24
853.337	17.14
853.509	22.74
853.68	27.18
853.851	22.89
854.023	20.68
854.194	23.7
854.365	23.61
854.537	21.43
854.708	20.48
854.879	20.04
855.05	15.45
855.222	14.66
855.393	14.14
855.564	15.83
855.735	18.6
855.906	19.86
856.078	14.9
856.249	11.9
856.42	11.05
856.591	11.08
856.762	5.3
856.933	8
857.104	6.97
857.275	2.14
857.446	2.28
857.617	-0.85
857.788	-2.91
857.959	2.12
858.13	10
858.301	10.74
858.472	10.94
858.643	12.92
858.814	14.56
858.985	16.04
859.155	15.58
859.326	13.65
859.497	13.53
859.668	13.88
859.839	13.68
860.009	4.73
860.18	4.9
860.351	9.95
860.522	8.62
860.692	9.22
860.863	8.51
861.034	13.37
861.204	12.13
861.375	9.51
861.546	14.36
861.716	12.18
861.887	8.83
862.057	7.1
862.228	-0.05
862.398	1.68
862.569	-0.69
862.739	-2.58
862.91	-3.49
863.08	-0.19
863.251	1.39
863.421	-3.7
863.592	-5.92
863.762	0.4
863.932	3.86
864.103	6.92
864.273	10.82
864.443	11.27
864.614	12.89
864.784	12.56
864.954	13.42
865.125	10.36
865.295	16.95
865.465	20.66
865.635	23.04
865.805	21.42
865.976	23.55
866.146	24.61
866.316	24.71
866.486	26.96
866.656	27.7
866.826	23.44
866.996	27.6
867.166	24.69
867.336	23.78
867.506	14.69
867.676	9.68
867.846	4.96
868.016	0.68
868.186	5.33
868.356	8.16
868.526	9.45
868.696	15.57
868.866	17.25
869.036	12.51
869.206	14.22
869.376	21.91
869.545	29
869.715	31.04
869.885	29.91
870.055	29.42
870.224	29.83
870.394	31.47
870.564	30.41
870.734	30.91
870.903	31.13
871.073	31.81
871.243	28.06
871.412	22.6
871.582	21.8
871.751	26.36
871.921	22.42
872.091	15.15
872.26	9.7
872.43	7.23
872.599	3.01
872.769	5.99
872.938	2.29
873.108	2.77
873.277	7.72
873.446	11.37
873.616	11.62
873.785	15.59
873.955	15.74
874.124	17.32
874.293	17.54
874.463	19.16
874.632	16.2
874.801	16.07
874.971	17.56
875.14	16.51
875.309	10.24
875.478	4.43
875.647	1.87
875.817	4.11
875.986	5.89
876.155	6.11
876.324	9.6
876.493	9.32
876.662	6
876.831	3.44
877	4.97
877.17	5.73
877.339	8.23
877.508	10.24
877.677	10.01
877.846	11.68
878.015	8.18
878.184	7.43
878.352	10.36
878.521	15.64
878.69	17.7
878.859	15.7
879.028	17.99
879.197	19
879.366	16.36
879.534	19.04
879.703	17.77
879.872	19.37
880.041	20.1
880.21	19.94
880.378	19.32
880.547	20.43
880.716	20.84
880.884	20.2
881.053	21.29
881.222	22.85
881.39	22.6
881.559	22.83
881.727	23.68
881.896	23.52
882.065	23.66
882.233	24.1
882.402	23.23
882.57	23.98
882.739	24.08
882.907	23.14
883.076	23.21
883.244	22.2
883.412	21.75
883.581	21.82
883.749	21.76
883.918	21.39
884.086	21.02
884.254	21.47
884.423	21.28
884.591	20.9
884.759	22.15
884.927	22.14
885.096	24.37
885.264	24.77
885.432	23.22
885.6	23.73
885.769	24.15
885.937	23.52
886.105	22.9
886.273	19.56
886.441	19.4
886.609	18.71
886.777	17.16
886.945	16.23
887.113	16.62
887.281	17.91
887.449	15.75
887.617	18.08
887.785	20.34
887.953	19.33
888.121	20.88
888.289	23.02
888.457	20.66
888.625	20.89
888.793	15.65
888.961	17.56
889.129	15.47
889.296	14.21
889.464	10.88
889.632	10.46
889.8	11.77
889.967	14.28
890.135	14.17
