Data from 2938450_Reflection_1.txt Node
Date: Fri Jun 19 18:00:20 EDT 2015
User: robert
Spectrometer: USB4E03002
Autoset integration time: false
Trigger mode: 4
Integration Time (sec): 1.000000E-1
Scans to average: 10
Electric dark correction enabled: true
Nonlinearity correction enabled: false
Boxcar width: 5
Stray light correction enabled: false
XAxis mode: Wavelengths
Stop averaging: false
Number of Pixels in Spectrum: 3648
>>>>>Begin Spectral Data<<<<<
177.575	-615.47
177.794	-231.21
178.014	-313.34
178.233	-148.78
178.452	-31.84
178.672	-66.35
178.891	126.84
179.11	-699.61
179.33	-695.5
179.549	-306.13
179.768	-171.8
179.987	-177.87
180.207	-201.63
180.426	-345.77
180.645	-210.49
180.864	-283.82
181.084	456.67
181.303	269.49
181.522	136.26
181.741	148.32
181.96	71.97
182.179	92.81
182.398	69.16
182.618	82.53
182.837	109.09
183.056	105.79
183.275	86.14
183.494	72
183.713	82.8
183.932	94.79
184.151	135.95
184.37	255.23
184.589	385.96
184.808	421.71
185.027	440.4
185.246	342.58
185.465	925.1
185.684	598500
185.903	-371.09
186.122	-334.05
186.341	-314.37
186.56	-278.85
186.779	-255.25
186.998	-250.22
187.216	-97.05
187.435	-59.87
187.654	-58.05
187.873	-51.93
188.092	-112.61
188.311	-53.29
188.53	-38.3
188.748	-99.96
188.967	5.79
189.186	-95.49
189.405	-450.97
189.623	-13861.9
189.842	-1445.08
190.061	-289.96
190.28	-566.2
190.498	-513.93
190.717	727.73
190.936	538.73
191.154	480.68
191.373	297.33
191.592	304.72
191.81	764.36
192.029	1356.88
192.248	366.62
192.466	360.23
192.685	397.66
192.904	255.35
193.122	539.86
193.341	-1561.57
193.559	3903.47
193.778	-9263.83
193.996	-1703.16
194.215	937.6
194.433	465.44
194.652	-975.91
194.87	-145.29
195.089	-302.01
195.307	-257.98
195.526	-858.18
195.744	424.71
195.963	442500
196.181	1451.88
196.399	536.23
196.618	365.78
196.836	371.57
197.055	273.21
197.273	244.59
197.491	256.93
197.71	195.04
197.928	213.94
198.146	233.01
198.365	148.85
198.583	154.04
198.801	254.37
199.019	559.64
199.238	370.76
199.456	418.21
199.674	387.87
199.892	-1621.32
200.111	-161.38
200.329	-155.56
200.547	-73.34
200.765	-34.23
200.983	-39.18
201.202	-1.92
201.42	4.65
201.638	13.96
201.856	16.54
202.074	-13.52
202.292	-61.67
202.51	-97.89
202.728	-84.17
202.946	-759.5
203.165	-8753.95
203.383	800.94
203.601	345.31
203.819	994.05
204.037	-912.26
204.255	-494.08
204.473	-260.33
204.691	-470.83
204.909	-284
205.127	-184.31
205.345	-131.52
205.562	-89.48
205.78	-107.8
205.998	-112.38
206.216	-248.64
206.434	-1410.1
206.652	636.5
206.87	376.63
207.088	2122.43
207.306	372.18
207.523	141.44
207.741	103.87
207.959	121.42
208.177	107.16
208.395	93.01
208.612	108.92
208.83	92.47
209.048	96.43
209.266	69.54
209.483	86.35
209.701	76.29
209.919	74.14
210.136	111.72
210.354	128.88
210.572	118.65
210.79	165.49
211.007	117.57
211.225	127.23
211.442	76.73
211.66	92.65
211.878	68.03
212.095	98.3
212.313	104.59
212.53	94.29
212.748	83
212.966	88.51
213.183	77.81
213.401	94.57
213.618	120.7
213.836	145.03
214.053	177.24
214.271	307.93
214.488	214.29
214.705	211.72
214.923	200.71
215.14	148.7
215.358	148.36
215.575	202.45
215.793	180.16
216.01	66.96
216.227	45.83
216.445	38.87
216.662	47.69
216.879	59.48
217.097	69.45
217.314	59.76
217.531	89.31
217.749	77.75
217.966	92.47
218.183	102
218.4	102.84
218.618	113.86
218.835	91.65
219.052	104.08
219.269	96.08
219.487	82.81
219.704	71.63
219.921	63.85
220.138	77.1
220.355	73.42
220.572	44.26
220.79	33.53
221.007	41.17
221.224	47.15
221.441	48.76
221.658	44.31
221.875	43.02
222.092	38.88
222.309	44.52
222.526	39.27
222.743	29.28
222.96	37.33
223.177	32.11
223.394	22.03
223.611	20.33
223.828	23.63
224.045	28.03
224.262	29.3
224.479	34.1
224.696	32.02
224.913	34.58
225.13	36.88
225.347	35.16
225.564	32.28
225.781	32.72
225.997	31.09
226.214	27.5
226.431	26.3
226.648	24.18
226.865	21.84
227.082	22.1
227.298	20.59
227.515	19.85
227.732	19.22
227.949	20.72
228.165	19.87
228.382	19.5
228.599	18.73
228.816	17
229.032	15.88
229.249	17.75
229.466	15.63
229.682	14.33
229.899	12.1
230.116	11.43
230.332	11.57
230.549	12.04
230.765	11.89
230.982	10.79
231.199	11.54
231.415	13.67
231.632	11.29
231.848	14.93
232.065	16.05
232.281	19.1
232.498	19.53
232.714	20.43
232.931	19.06
233.147	20.12
233.364	22.55
233.58	22.43
233.797	25.74
234.013	27.34
234.23	23.21
234.446	24.11
234.662	24.15
234.879	22.57
235.095	18.36
235.312	18.12
235.528	19.76
235.744	19.79
235.961	18.64
236.177	14.14
236.393	13.83
236.61	19.01
236.826	20.52
237.042	21.15
237.258	20.79
237.475	21.94
237.691	21.5
237.907	20.62
238.123	20.52
238.339	20.86
238.556	20.8
238.772	19.81
238.988	18.48
239.204	18.02
239.42	17.15
239.636	18.48
239.853	17.28
240.069	17.26
240.285	16.84
240.501	16.15
240.717	16.17
240.933	16.37
241.149	16.53
241.365	15.95
241.581	15.33
241.797	15.59
242.013	14.92
242.229	15.44
242.445	15.69
242.661	15.39
242.877	15.85
243.093	14.71
243.309	14.27
243.525	13.85
243.741	13.72
243.957	13.72
244.173	13.25
244.388	12.33
244.604	12.29
244.82	12.05
245.036	11.36
245.252	10.94
245.468	11.33
245.683	10.93
245.899	10.89
246.115	10.61
246.331	10.37
246.547	10
246.762	10.06
246.978	10.31
247.194	10.2
247.409	10.4
247.625	10.3
247.841	10.23
248.057	10.69
248.272	10.27
248.488	10.17
248.703	9.48
248.919	9.73
249.135	10.19
249.35	9.55
249.566	9.32
249.782	9.6
249.997	10.11
250.213	10.51
250.428	10.38
250.644	11.39
250.859	12.26
251.075	13.31
251.29	13.31
251.506	13.22
251.721	13.73
251.937	13.58
252.152	14.44
252.368	13.73
252.583	14.35
252.798	14.65
253.014	15
253.229	14.43
253.445	13.42
253.66	11.86
253.875	10.96
254.091	8.69
254.306	9.19
254.521	8.63
254.737	9.61
254.952	8
255.167	7.62
255.383	6.67
255.598	7.55
255.813	7.73
256.028	8.61
256.244	9.63
256.459	10.38
256.674	10.38
256.889	9.29
257.104	8.7
257.32	8.76
257.535	8.33
257.75	8.35
257.965	7.9
258.18	7.94
258.395	8.18
258.61	8.21
258.826	7.74
259.041	7.46
259.256	7.61
259.471	7.58
259.686	7.83
259.901	8.44
260.116	7.93
260.331	8.09
260.546	8.51
260.761	8.41
260.976	7.69
261.191	8.82
261.406	9.32
261.621	9.66
261.836	9.63
262.05	9.95
262.265	9.97
262.48	11.14
262.695	11.31
262.91	11.37
263.125	10.9
263.34	11.76
263.555	10.37
263.769	9.41
263.984	9.76
264.199	10.27
264.414	9.71
264.629	9.06
264.843	8.16
265.058	7.97
265.273	7.29
265.488	7.47
265.702	6.67
265.917	7.51
266.132	8.05
266.346	8.21
266.561	8.3
266.776	8.05
266.99	7.59
267.205	8.21
267.42	8.5
267.634	8.36
267.849	8.71
268.063	9.51
268.278	9.15
268.492	9.18
268.707	8.76
268.922	8.25
269.136	8.21
269.351	8.22
269.565	8.26
269.78	7.51
269.994	7.58
270.209	7.86
270.423	7.67
270.637	8
270.852	8.24
271.066	8.39
271.281	9.11
271.495	9.39
271.709	9.59
271.924	9.28
272.138	9.9
272.353	9.86
272.567	9.57
272.781	10.12
272.996	9.98
273.21	9.73
273.424	9.57
273.638	8.97
273.853	8.75
274.067	8.58
274.281	9.12
274.495	8.22
274.71	8.63
274.924	8.44
275.138	8.09
275.352	7.85
275.566	8.02
275.781	7.89
275.995	7.78
276.209	8.44
276.423	8.97
276.637	8.77
276.851	9.05
277.065	8.67
277.279	8.98
277.493	8.97
277.707	8.59
277.921	8.3
278.135	8.71
278.349	8.26
278.563	8.03
278.777	8.03
278.991	7.72
279.205	8.13
279.419	8.18
279.633	8.88
279.847	8.56
280.061	9.06
280.275	9.2
280.489	8.93
280.703	9.43
280.917	8.99
281.131	8.58
281.344	8.61
281.558	8.09
281.772	8.38
281.986	7.79
282.2	7.79
282.414	7.41
282.627	7.24
282.841	7.33
283.055	7.07
283.269	7.27
283.482	7.5
283.696	7.65
283.91	8.03
284.123	7.83
284.337	7.67
284.551	7.71
284.764	7.96
284.978	8.07
285.192	8.22
285.405	8.84
285.619	8.75
285.833	9.27
286.046	9.59
286.26	9.66
286.473	9.95
286.687	10.26
286.9	10.49
287.114	10.83
287.327	11.25
287.541	10.47
287.754	10.07
287.968	10.15
288.181	9.76
288.395	9.53
288.608	9.77
288.822	10.02
289.035	9.91
289.248	9.13
289.462	8.94
289.675	8.66
289.889	9.53
290.102	9.23
290.315	9.09
290.529	9.15
290.742	9.43
290.955	9.23
291.169	8.82
291.382	8.94
291.595	9.59
291.808	9.53
292.022	9.21
292.235	8.64
292.448	8.94
292.661	9.04
292.875	9.08
293.088	8.43
293.301	9.16
293.514	8.92
293.727	8.6
293.94	8.97
294.153	8.81
294.367	8.99
294.58	9.21
294.793	9.11
295.006	9.35
295.219	9.29
295.432	9.62
295.645	8.88
295.858	9.46
296.071	9.77
296.284	9.62
296.497	10.12
296.71	10.4
296.923	10.67
297.136	10.89
297.349	10.46
297.562	10.52
297.775	10.14
297.988	10.38
298.201	10.16
298.414	9.92
298.626	10.3
298.839	9.22
299.052	8.53
299.265	8.53
299.478	8.44
299.691	8.93
299.903	8.95
300.116	9.61
300.329	9.85
300.542	9.89
300.755	10.23
300.967	10.03
301.18	10.6
301.393	11.15
301.605	11.11
301.818	11.55
302.031	11.53
302.243	11.79
302.456	11.44
302.669	11.42
302.881	11.54
303.094	11.21
303.307	11.03
303.519	10.98
303.732	10.93
303.944	11.1
304.157	11.34
304.37	11.44
304.582	11.21
304.795	11.36
305.007	11.55
305.22	11.02
305.432	11.17
305.645	11.25
305.857	11.98
306.069	11.71
306.282	11.31
306.494	10.82
306.707	10.43
306.919	10.65
307.132	10.59
307.344	10.46
307.556	11.06
307.769	11.53
307.981	11.64
308.193	11.05
308.406	10.69
308.618	10.61
308.83	10.33
309.043	10.48
309.255	10.21
309.467	10.27
309.679	10.07
309.892	9.78
310.104	9.22
310.316	9.14
310.528	9.53
310.74	10.18
310.953	10.31
311.165	10.75
311.377	11.17
311.589	11.54
311.801	11.99
312.013	12.93
312.225	12.79
312.437	13.19
312.649	13.77
312.862	13.4
313.074	12.73
313.286	12.93
313.498	12.67
313.71	13.03
313.922	12.87
314.134	13.24
314.346	11.73
314.558	11.97
314.77	11.41
314.982	11.17
315.193	11.54
315.405	12.19
315.617	12.26
315.829	12.54
316.041	12.56
316.253	12.61
316.465	11.87
316.677	12.39
316.888	12.59
317.1	12.63
317.312	12.37
317.524	11.8
317.736	12.08
317.947	13.16
318.159	12.73
318.371	12.02
318.583	11.95
318.794	11.86
319.006	11.69
319.218	11.23
319.43	11.73
319.641	11.18
319.853	11.21
320.064	11.79
320.276	10.65
320.488	10.61
320.699	9.9
320.911	9.84
321.123	9.07
321.334	9.82
321.546	10.26
321.757	10.21
321.969	10.66
322.18	11.35
322.392	10.36
322.603	9.43
322.815	9.84
323.026	9.99
323.238	9.88
323.449	10.57
323.661	10.14
323.872	10.05
324.083	9.92
324.295	9.71
324.506	9.28
324.718	9.65
324.929	10.35
325.14	9.96
325.352	10.82
325.563	10.65
325.774	10.75
325.986	10.94
326.197	10.93
326.408	11.05
326.62	11.57
326.831	11.96
327.042	11.34
327.253	11.21
327.464	11.87
327.676	10.85
327.887	10.78
328.098	10.7
328.309	10.44
328.52	10.79
328.732	10.71
328.943	10.92
329.154	10.71
329.365	11.04
329.576	11.21
329.787	10.95
329.998	11.82
330.209	11.97
330.42	12.54
330.631	12.7
330.842	12.41
331.053	12.02
331.264	11.66
331.475	11.47
331.686	11.83
331.897	12.21
332.108	11.76
332.319	11.46
332.53	11.67
332.741	11.31
332.952	11.56
333.163	11.47
333.374	11.68
333.585	11.08
333.795	11.5
334.006	11.5
334.217	11.2
334.428	11.39
334.639	11.43
334.849	11.58
335.06	11.38
335.271	11.03
335.482	10.64
335.692	10.52
335.903	11.08
336.114	10.87
336.325	10.57
336.535	10.72
336.746	10.86
336.957	10.86
337.167	10.87
337.378	10.84
337.589	11.33
337.799	11.37
338.01	11.66
338.22	11.5
338.431	11.51
338.642	11.64
338.852	11.67
339.063	11.39
339.273	11.24
339.484	10.93
339.694	10.93
339.905	10.95
340.115	11.3
340.326	10.93
340.536	10.96
340.746	11.12
340.957	11.19
341.167	11.08
341.378	11.3
341.588	11.48
341.799	11.46
342.009	10.98
342.219	10.03
342.43	9.77
342.64	9.92
342.85	9.48
343.061	8.9
343.271	8.82
343.481	8.79
343.691	8.88
343.902	8.69
344.112	8.59
344.322	9.07
344.532	9.82
344.743	9.91
344.953	9.76
345.163	9.89
345.373	10.12
345.583	10.27
345.793	10.09
346.004	10.11
346.214	9.92
346.424	10.55
346.634	10.68
346.844	10.39
347.054	10.04
347.264	10.31
347.474	10.4
347.684	10.63
347.894	10.08
348.104	10.99
348.314	10.6
348.524	10.62
348.734	10.01
348.944	9.5
349.154	9.56
349.364	10.07
349.574	9.81
349.784	9.96
349.994	10.13
350.204	10.31
350.413	9.08
350.623	9.49
350.833	9.38
351.043	9.29
351.253	9.09
351.463	8.96
351.672	8.95
351.882	9.74
352.092	9.88
352.302	10.23
352.511	10.54
352.721	10.42
352.931	10.45
353.141	10.4
353.35	10.48
353.56	10.55
353.77	10.52
353.979	9.8
354.189	9.52
354.399	9.29
354.608	8.85
354.818	8.74
355.027	9.26
355.237	9.1
355.447	9.51
355.656	9.53
355.866	9.53
356.075	9.95
356.285	10.73
356.494	10.89
356.704	10.87
356.913	10.76
357.123	10.45
357.332	10.05
357.542	9.64
357.751	9.5
357.96	9.79
358.17	9.84
358.379	9.85
358.589	9.6
358.798	9.28
359.007	9.2
359.217	8.95
359.426	8.7
359.635	8.77
359.845	9.11
360.054	9.01
360.263	8.61
360.472	8.99
360.682	8.59
360.891	8.19
361.1	8.03
361.309	8.27
361.519	8.26
361.728	8.71
361.937	8.87
362.146	8.67
362.355	8.67
362.564	8.71
362.774	8.61
362.983	8.68
363.192	8.86
363.401	9.03
363.61	8.82
363.819	9.23
364.028	9.06
364.237	8.74
364.446	8.36
364.655	8.01
364.864	8.3
365.073	8.36
365.282	8.05
365.491	8.1
365.7	8.23
365.909	8.16
366.118	7.69
366.327	7.71
366.536	8.24
366.745	8.67
366.954	8.98
367.162	8.64
367.371	8.47
367.58	8.6
367.789	8.59
367.998	8.03
368.207	7.86
368.415	7.79
368.624	7.81
368.833	7.57
369.042	7.19
369.25	7.28
369.459	7.6
369.668	7.55
369.877	7.72
370.085	7.72
370.294	7.95
370.503	7.83
370.711	8.05
370.92	8.01
371.129	8.1
371.337	8.14
371.546	8.11
371.754	7.76
371.963	7.36
372.171	7.17
372.38	7.13
372.589	7.4
372.797	7.8
373.006	7.88
373.214	7.88
373.423	7.48
373.631	7.97
373.84	7.93
374.048	8.09
374.256	8.41
374.465	8.54
374.673	8.34
374.882	7.98
375.09	7.86
375.298	7.38
375.507	7.68
375.715	7.78
375.923	7.49
376.132	7.34
376.34	6.98
376.548	6.7
376.757	6.48
376.965	6.69
377.173	6.78
377.381	6.75
377.59	7.01
377.798	6.85
378.006	6.69
378.214	6.77
378.423	6.84
378.631	6.93
378.839	7.25
379.047	7.37
379.255	7.05
379.463	6.82
379.671	6.91
379.879	6.79
380.088	6.56
380.296	6.65
380.504	6.52
380.712	6.77
380.92	6.93
381.128	6.73
381.336	6.49
381.544	6.42
381.752	6.26
381.96	6.04
382.168	6.28
382.376	6.42
382.584	6.24
382.791	6.43
382.999	6.37
383.207	6.18
383.415	6.13
383.623	6.31
383.831	6.68
384.039	7
384.247	7.04
384.454	6.66
384.662	6.28
384.87	6.29
385.078	6.01
385.285	5.83
385.493	5.97
385.701	6
385.909	6.06
386.116	5.99
386.324	5.95
386.532	5.88
386.739	6.16
386.947	6.11
387.155	6.14
387.362	6.37
387.57	6.4
387.778	6.3
387.985	6.07
388.193	5.82
388.4	5.62
388.608	5.46
388.816	5.41
389.023	5.11
389.231	5.23
389.438	5.16
389.646	5.13
389.853	5.11
390.061	4.81
390.268	4.91
390.475	4.81
390.683	4.97
390.89	4.9
391.098	4.87
391.305	5.08
391.512	4.97
391.72	4.86
391.927	4.7
392.135	4.53
392.342	4.88
392.549	4.96
392.756	5.13
392.964	4.93
393.171	5.2
393.378	5.35
393.586	5.28
393.793	5.29
394	5.34
394.207	5.27
394.414	5.5
394.622	5.47
394.829	5.44
395.036	5.53
395.243	5.52
395.45	5.28
395.657	4.94
395.864	4.85
396.072	5
396.279	5.01
396.486	4.97
396.693	4.9
396.9	4.72
397.107	4.58
397.314	4.42
397.521	4.42
397.728	4.37
397.935	4.55
398.142	4.45
398.349	4.54
398.556	4.62
398.763	4.67
398.97	4.65
399.177	4.77
399.383	4.83
399.59	4.95
399.797	5
400.004	5.02
400.211	4.95
400.418	5.05
400.625	4.84
400.831	4.6
401.038	4.68
401.245	4.62
401.452	4.37
401.658	4.26
401.865	4.13
402.072	4.2
402.279	4.16
402.485	3.97
402.692	3.97
402.899	3.97
403.105	4.17
403.312	4.06
403.519	4.13
403.725	4.21
403.932	4.35
404.138	4.41
404.345	4.3
404.552	4.31
404.758	4.51
404.965	4.43
405.171	4.16
405.378	4.13
405.584	4.04
405.791	3.9
405.997	3.86
406.204	3.68
406.41	3.57
406.617	3.56
406.823	3.4
407.029	3.21
407.236	3.35
407.442	3.56
407.649	3.55
407.855	3.63
408.061	3.7
408.268	3.75
408.474	3.77
408.68	3.69
408.887	3.76
409.093	3.93
409.299	4.09
409.505	4.05
409.712	4.11
409.918	3.99
410.124	3.94
410.33	3.87
410.537	3.82
410.743	3.77
410.949	3.95
411.155	3.95
411.361	3.87
411.567	3.87
411.773	3.88
411.98	3.92
412.186	4.12
412.392	4.07
412.598	4.08
412.804	4.15
413.01	4.17
413.216	4.17
413.422	4.01
413.628	4.06
413.834	4.07
414.04	4.12
414.246	4
414.452	3.94
414.658	3.93
414.864	3.96
415.07	3.91
415.275	4.01
415.481	4.06
415.687	4
415.893	3.93
416.099	3.84
416.305	3.8
416.511	3.97
416.716	3.95
416.922	3.9
417.128	3.89
417.334	3.85
417.539	3.7
417.745	3.62
417.951	3.69
418.157	3.69
418.362	3.69
418.568	3.57
418.774	3.42
418.979	3.37
419.185	3.44
419.391	3.46
419.596	3.49
419.802	3.56
420.008	3.57
420.213	3.66
420.419	3.76
420.624	3.86
420.83	3.85
421.035	3.81
421.241	3.86
421.446	3.85
421.652	3.78
421.857	3.77
422.063	3.81
422.268	3.76
422.474	3.65
422.679	3.55
422.885	3.5
423.09	3.57
423.295	3.63
423.501	3.61
423.706	3.54
423.911	3.53
424.117	3.54
424.322	3.49
424.527	3.47
424.733	3.47
424.938	3.43
425.143	3.42
425.349	3.4
425.554	3.39
425.759	3.44
425.964	3.5
426.169	3.56
426.375	3.55
426.58	3.58
426.785	3.74
426.99	3.89
427.195	3.95
427.4	3.82
427.605	3.77
427.811	3.75
428.016	3.65
428.221	3.63
428.426	3.66
428.631	3.7
428.836	3.61
429.041	3.43
429.246	3.26
429.451	3.35
429.656	3.42
429.861	3.47
430.066	3.47
430.271	3.53
430.476	3.62
430.681	3.6
430.886	3.44
431.09	3.51
431.295	3.65
431.5	3.71
431.705	3.62
431.91	3.67
432.115	3.68
432.32	3.73
432.524	3.81
432.729	3.76
432.934	3.74
433.139	3.86
433.343	3.8
433.548	3.72
433.753	3.7
433.958	3.73
434.162	3.74
434.367	3.77
434.572	3.68
434.776	3.56
434.981	3.53
435.186	3.5
435.39	3.51
435.595	3.58
435.799	3.55
436.004	3.65
436.209	3.55
436.413	3.47
436.618	3.36
436.822	3.42
437.027	3.39
437.231	3.34
437.436	3.38
437.64	3.34
437.845	3.31
438.049	3.27
438.253	3.1
438.458	3.25
438.662	3.21
438.867	3.23
439.071	3.26
439.275	3.26
439.48	3.23
439.684	3.22
439.888	3.17
440.093	3.18
440.297	3.22
440.501	3.3
440.706	3.29
440.91	3.29
441.114	3.24
441.318	3.24
441.523	3.24
441.727	3.18
441.931	3.12
442.135	3.22
442.339	3.23
442.543	3.35
442.748	3.28
442.952	3.2
443.156	3.24
443.36	3.3
443.564	3.3
443.768	3.28
443.972	3.38
444.176	3.47
444.38	3.36
444.584	3.27
444.788	3.13
444.992	3.14
445.196	3.12
445.4	3.08
445.604	3.11
445.808	3.2
446.012	3.2
446.216	3.2
446.42	3.17
446.624	3.28
446.828	3.35
447.032	3.45
447.235	3.47
447.439	3.46
447.643	3.47
447.847	3.47
448.051	3.31
448.254	3.42
448.458	3.4
448.662	3.41
448.866	3.29
449.069	3.31
449.273	3.18
449.477	3.17
449.681	3.19
449.884	3.23
450.088	3.19
450.292	3.16
450.495	3.01
450.699	3.06
450.902	3.05
451.106	3.08
451.31	2.98
451.513	3.03
451.717	3
451.92	3.07
452.124	3.04
452.327	3.06
452.531	3.08
452.734	3.07
452.938	2.96
453.141	2.95
453.345	2.99
453.548	3.08
453.752	3.11
453.955	3.18
454.158	3.14
454.362	3.15
454.565	3.21
454.769	3.18
454.972	3.33
455.175	3.39
455.379	3.39
455.582	3.28
455.785	3.21
455.988	3.23
456.192	3.09
456.395	3.02
456.598	3
456.801	2.94
457.005	2.99
457.208	3
457.411	3.05
457.614	3.04
457.817	3.15
458.021	3.18
458.224	3.24
458.427	3.32
458.63	3.31
458.833	3.38
459.036	3.31
459.239	3.28
459.442	3.24
459.645	3.21
459.848	3.21
460.051	3.16
460.254	3.13
460.457	3.12
460.66	3.06
460.863	3.21
461.066	3.13
461.269	3.25
461.472	3.16
461.675	3.17
461.878	3.16
462.081	3.14
462.284	3.06
462.486	2.99
462.689	2.8
462.892	2.89
463.095	2.82
463.298	2.8
463.5	2.78
463.703	2.87
463.906	2.9
464.109	2.83
464.311	2.85
464.514	3
464.717	3.15
464.92	3.19
465.122	3.06
465.325	3.09
465.528	3.13
465.73	3.08
465.933	3.1
466.135	3.03
466.338	3.17
466.541	3.25
466.743	3.24
466.946	3.24
467.148	3.33
467.351	3.38
467.553	3.27
467.756	3.42
467.958	3.46
468.161	3.48
468.363	3.48
468.566	3.42
468.768	3.29
468.971	3.28
469.173	3.26
469.375	3.19
469.578	3.18
469.78	3.19
469.983	3.06
470.185	3.03
470.387	3.1
470.59	3.07
470.792	3.13
470.994	3.17
471.196	3.22
471.399	3.19
471.601	3.29
471.803	3.36
472.005	3.37
472.208	3.37
472.41	3.36
472.612	3.39
472.814	3.43
473.016	3.25
473.218	3.21
473.421	3.13
473.623	3.07
473.825	3
474.027	2.84
474.229	2.87
474.431	2.91
474.633	2.95
474.835	2.88
475.037	2.89
475.239	3.04
475.441	3.04
475.643	3.05
475.845	3.11
476.047	3.11
476.249	3.19
476.451	3.21
476.653	3.17
476.855	3.16
477.057	3.16
477.258	3.15
477.46	3.09
477.662	3.1
477.864	3.14
478.066	3.11
478.268	3.13
478.469	3.22
478.671	3.23
478.873	3.21
479.075	3.17
479.276	3.24
479.478	3.22
479.68	3.24
479.882	3.22
480.083	3.17
480.285	3.14
480.487	3.06
480.688	3.07
480.89	3.04
481.091	3.08
481.293	3.09
481.495	3.06
481.696	3.11
481.898	3.1
482.099	3.11
482.301	3.11
482.502	3.16
482.704	3.16
482.905	3.13
483.107	3.13
483.308	3.14
483.51	3.13
483.711	3.13
483.913	3.11
484.114	3.1
484.315	3.1
484.517	3.12
484.718	3.09
484.92	3.12
485.121	3.1
485.322	3.1
485.524	3.11
485.725	3.15
485.926	3.16
486.127	3.14
486.329	3.17
486.53	3.15
486.731	3.15
486.932	3.19
487.134	3.22
487.335	3.27
487.536	3.28
487.737	3.25
487.938	3.21
488.139	3.19
488.341	3.24
488.542	3.21
488.743	3.21
488.944	3.17
489.145	3.18
489.346	3.13
489.547	3.13
489.748	3.17
489.949	3.16
490.15	3.19
490.351	3.18
490.552	3.17
490.753	3.2
490.954	3.24
491.155	3.27
491.356	3.24
491.557	3.28
491.758	3.3
491.959	3.24
492.159	3.28
492.36	3.35
492.561	3.41
492.762	3.4
492.963	3.35
493.164	3.37
493.364	3.39
493.565	3.4
493.766	3.25
493.967	3.27
494.167	3.29
494.368	3.25
494.569	3.11
494.769	3.07
494.97	3.17
495.171	3.24
495.371	3.18
495.572	3.15
495.773	3.16
495.973	3.26
496.174	3.21
496.375	3.18
496.575	3.22
496.776	3.28
496.976	3.31
497.177	3.23
497.377	3.22
497.578	3.25
497.778	3.28
497.979	3.24
498.179	3.27
498.38	3.3
498.58	3.38
498.78	3.41
498.981	3.45
499.181	3.46
499.382	3.46
499.582	3.49
499.782	3.55
499.983	3.5
500.183	3.59
500.383	3.64
500.584	3.65
500.784	3.57
500.984	3.56
501.184	3.53
501.385	3.47
501.585	3.52
501.785	3.45
501.985	3.47
502.185	3.49
502.386	3.45
502.586	3.38
502.786	3.43
502.986	3.4
503.186	3.34
503.386	3.27
503.586	3.3
503.786	3.33
503.987	3.44
504.187	3.47
504.387	3.44
504.587	3.46
504.787	3.43
504.987	3.4
505.187	3.45
505.387	3.55
505.587	3.61
505.786	3.64
505.986	3.52
506.186	3.5
506.386	3.44
506.586	3.57
506.786	3.6
506.986	3.68
507.186	3.69
507.386	3.73
507.585	3.71
507.785	3.64
507.985	3.66
508.185	3.81
508.384	3.8
508.584	3.83
508.784	3.72
508.984	3.6
509.183	3.59
509.383	3.61
509.583	3.63
509.782	3.68
509.982	3.72
510.182	3.82
510.381	3.84
510.581	3.89
510.781	3.91
510.98	4
511.18	4.12
511.379	4.15
511.579	4.16
511.778	4.16
511.978	4.09
512.177	4.24
512.377	4.29
512.576	4.19
512.776	4.18
512.975	4.17
513.175	4.17
513.374	4.16
513.573	4.21
513.773	4.28
513.972	4.31
514.172	4.36
514.371	4.33
514.57	4.16
514.77	4.26
514.969	4.22
515.168	4.19
515.367	4.15
515.567	4.18
515.766	4.08
515.965	4
516.164	3.99
516.364	4
516.563	3.92
516.762	3.91
516.961	3.85
517.16	3.89
517.359	3.97
517.559	4.01
517.758	3.98
517.957	4
518.156	4.06
518.355	4.09
518.554	4.12
518.753	4.17
518.952	4.28
519.151	4.36
519.35	4.37
519.549	4.37
519.748	4.43
519.947	4.52
520.146	4.56
520.345	4.53
520.544	4.5
520.743	4.47
520.942	4.49
521.141	4.43
521.339	4.46
521.538	4.47
521.737	4.42
521.936	4.43
522.135	4.44
522.333	4.49
522.532	4.49
522.731	4.51
522.93	4.53
523.129	4.53
523.327	4.54
523.526	4.46
523.725	4.47
523.923	4.4
524.122	4.37
524.321	4.31
524.519	4.24
524.718	4.31
524.917	4.33
525.115	4.33
525.314	4.34
525.512	4.4
525.711	4.4
525.909	4.39
526.108	4.42
526.306	4.48
526.505	4.49
526.703	4.5
526.902	4.51
527.1	4.55
527.299	4.54
527.497	4.55
527.696	4.58
527.894	4.62
528.092	4.64
528.291	4.68
528.489	4.67
528.688	4.72
528.886	4.75
529.084	4.77
529.283	4.73
529.481	4.8
529.679	4.83
529.877	4.78
530.076	4.79
530.274	4.83
530.472	4.82
530.67	4.85
530.869	4.81
531.067	4.84
531.265	4.85
531.463	4.85
531.661	4.83
531.859	4.81
532.057	4.82
532.255	4.83
532.454	4.86
532.652	4.91
532.85	4.89
533.048	4.92
533.246	4.91
533.444	4.92
533.642	4.97
533.84	4.98
534.038	5.07
534.236	5.08
534.434	5.09
534.632	5.12
534.83	5.15
535.027	5.19
535.225	5.22
535.423	5.31
535.621	5.34
535.819	5.35
536.017	5.36
536.215	5.29
536.412	5.42
536.61	5.43
536.808	5.37
537.006	5.37
537.203	5.34
537.401	5.33
537.599	5.36
537.797	5.34
537.994	5.4
538.192	5.39
538.39	5.38
538.587	5.32
538.785	5.36
538.983	5.41
539.18	5.39
539.378	5.45
539.575	5.51
539.773	5.46
539.97	5.51
540.168	5.49
540.366	5.6
540.563	5.68
540.761	5.7
540.958	5.74
541.155	5.76
541.353	5.85
541.55	5.88
541.748	5.88
541.945	5.93
542.143	5.94
542.34	6.03
542.537	5.98
542.735	6.05
542.932	6.12
543.129	6.05
543.327	6.11
543.524	6.13
543.721	6.13
543.919	6.17
544.116	6.21
544.313	6.31
544.51	6.28
544.708	6.31
544.905	6.29
545.102	6.29
545.299	6.37
545.496	6.37
545.693	6.35
545.891	6.44
546.088	6.42
546.285	6.44
546.482	6.39
546.679	6.42
546.876	6.5
547.073	6.48
547.27	6.42
547.467	6.4
547.664	6.48
547.861	6.48
548.058	6.45
548.255	6.53
548.452	6.58
548.649	6.7
548.846	6.84
549.043	6.71
549.24	6.8
549.437	7.04
549.633	7.16
549.83	7.2
550.027	7.38
550.224	7.52
550.421	7.64
550.618	7.63
550.814	7.66
551.011	7.57
551.208	7.78
551.405	7.84
551.601	7.85
551.798	7.88
551.995	7.86
552.191	7.84
552.388	7.77
552.585	7.76
552.781	7.85
552.978	7.88
553.175	7.99
553.371	7.99
553.568	8.02
553.764	7.99
553.961	7.98
554.157	8.06
554.354	8.08
554.55	8.25
554.747	8.26
554.943	8.23
555.14	8.2
555.336	8.25
555.533	8.23
555.729	8.32
555.926	8.37
556.122	8.49
556.318	8.48
556.515	8.47
556.711	8.33
556.907	8.43
557.104	8.48
557.3	8.51
557.496	8.39
557.693	8.51
557.889	8.49
558.085	8.52
558.281	8.64
558.478	8.74
558.674	8.86
558.87	9.01
559.066	9.15
559.262	9.29
559.459	9.31
559.655	9.57
559.851	9.58
560.047	9.62
560.243	9.69
560.439	9.65
560.635	9.61
560.831	9.61
561.027	9.62
561.223	9.57
561.419	9.61
561.615	9.69
561.811	9.65
562.007	9.68
562.203	9.78
562.399	9.77
562.595	9.91
562.791	10.23
562.987	10.26
563.183	10.43
563.379	10.43
563.575	10.4
563.771	10.52
563.966	10.52
564.162	10.62
564.358	10.6
564.554	10.66
564.75	10.62
564.945	10.39
565.141	10.41
565.337	10.48
565.533	10.54
565.728	10.69
565.924	10.65
566.12	10.79
566.315	10.83
566.511	10.96
566.707	11.08
566.902	11.2
567.098	11.38
567.293	11.47
567.489	11.46
567.684	11.5
567.88	11.45
568.076	11.54
568.271	11.59
568.467	11.64
568.662	11.65
568.858	11.64
569.053	11.66
569.248	11.63
569.444	11.77
569.639	11.74
569.835	11.87
570.03	11.93
570.225	12.03
570.421	12.02
570.616	11.98
570.812	11.98
571.007	12.05
571.202	12.12
571.397	12.23
571.593	12.19
571.788	12.31
571.983	12.32
572.178	12.4
572.374	12.46
572.569	12.48
572.764	12.52
572.959	12.63
573.154	12.58
573.35	12.53
573.545	12.62
573.74	12.58
573.935	12.55
574.13	12.47
574.325	12.51
574.52	12.54
574.715	12.59
574.91	12.69
575.105	12.72
575.3	12.69
575.495	12.82
575.69	12.79
575.885	12.87
576.08	12.97
576.275	13.08
576.47	13.03
576.665	13.01
576.86	13
577.055	13.01
577.25	13.01
577.444	13.14
577.639	13.22
577.834	13.23
578.029	13.36
578.224	13.45
578.418	13.49
578.613	13.55
578.808	13.51
579.003	13.67
579.197	13.86
579.392	13.9
579.587	14.12
579.781	14.09
579.976	14.16
580.171	14.1
580.365	13.96
580.56	14
580.755	14.07
580.949	14.19
581.144	14.15
581.338	13.93
581.533	13.96
581.727	13.86
581.922	13.84
582.116	13.76
582.311	13.94
582.505	14.08
582.7	14.18
582.894	14.17
583.089	14.19
583.283	14.21
583.478	14.44
583.672	14.4
583.866	14.44
584.061	14.45
584.255	14.44
584.449	14.4
584.644	14.37
584.838	14.38
585.032	14.39
585.226	14.32
585.421	14.37
585.615	14.35
585.809	14.39
586.003	14.38
586.198	14.42
586.392	14.57
586.586	14.66
586.78	14.64
586.974	14.58
587.168	14.61
587.363	14.6
587.557	14.58
587.751	14.5
587.945	14.6
588.139	14.66
588.333	14.66
588.527	14.67
588.721	14.58
588.915	14.64
589.109	14.59
589.303	14.55
589.497	14.62
589.691	14.79
589.885	14.9
590.079	14.95
590.273	14.9
590.466	15
590.66	14.95
590.854	14.94
591.048	14.85
591.242	14.99
591.436	15.04
591.629	14.92
591.823	14.83
592.017	14.88
592.211	14.75
592.404	14.78
592.598	14.66
592.792	14.63
592.986	14.65
593.179	14.74
593.373	14.64
593.567	14.75
593.76	14.88
593.954	14.8
594.147	14.73
594.341	14.72
594.535	14.72
594.728	14.68
594.922	14.71
595.115	14.68
595.309	14.69
595.502	14.75
595.696	14.74
595.889	14.77
596.083	14.84
596.276	14.96
596.47	15.06
596.663	15.1
596.856	15.19
597.05	15.31
597.243	15.43
597.437	15.46
597.63	15.45
597.823	15.52
598.017	15.43
598.21	15.47
598.403	15.45
598.596	15.5
598.79	15.46
598.983	15.48
599.176	15.48
599.369	15.45
599.563	15.57
599.756	15.66
599.949	15.58
600.142	15.62
600.335	15.72
600.528	15.57
600.722	15.53
600.915	15.51
601.108	15.63
601.301	15.55
601.494	15.54
601.687	15.46
601.88	15.45
602.073	15.44
602.266	15.5
602.459	15.41
602.652	15.39
602.845	15.5
603.038	15.55
603.231	15.48
603.424	15.58
603.617	15.64
603.809	15.53
604.002	15.61
604.195	15.68
604.388	15.73
604.581	15.79
604.774	15.94
604.966	15.77
605.159	15.74
605.352	15.76
605.545	15.74
605.737	15.71
605.93	15.86
606.123	15.81
606.316	15.76
606.508	15.83
606.701	15.8
606.894	15.56
607.086	15.61
607.279	15.57
607.471	15.5
607.664	15.53
607.857	15.6
608.049	15.53
608.242	15.47
608.434	15.47
608.627	15.46
608.819	15.44
609.012	15.56
609.204	15.62
609.397	15.67
609.589	15.75
609.782	15.79
609.974	15.7
610.166	15.85
610.359	15.94
610.551	15.92
610.743	15.81
610.936	15.98
611.128	16.08
611.32	16.12
611.513	16.14
611.705	16.15
611.897	16.15
612.09	16.31
612.282	16.39
612.474	16.34
612.666	16.48
612.858	16.41
613.051	16.25
613.243	16.37
613.435	16.39
613.627	16.45
613.819	16.27
614.011	16.61
614.203	16.57
614.395	16.48
614.588	16.41
614.78	16.36
614.972	16.53
615.164	16.48
615.356	16.2
615.548	15.98
615.74	16.13
615.932	16.16
616.124	15.7
616.315	15.89
616.507	15.96
616.699	16.09
616.891	16.04
617.083	16.07
617.275	16.21
617.467	16.44
617.659	16.55
617.85	16.51
618.042	16.67
618.234	16.75
618.426	16.61
618.618	16.58
618.809	16.55
619.001	16.51
619.193	16.48
619.384	16.47
619.576	16.39
619.768	16.3
619.959	16.17
620.151	16.06
620.343	15.94
620.534	15.86
620.726	15.86
620.917	16.08
621.109	15.99
621.301	16.02
621.492	15.96
621.684	16
621.875	16.11
622.067	16.23
622.258	16.27
622.45	16.42
622.641	16.56
622.832	16.46
623.024	16.18
623.215	16.52
623.407	16.4
623.598	16.4
623.789	16.35
623.981	16.39
624.172	16.32
624.363	16.41
624.555	16.41
624.746	16.34
624.937	16.45
625.129	16.54
625.32	16.39
625.511	16.47
625.702	16.48
625.893	16.37
626.085	16.4
626.276	16.48
626.467	16.54
626.658	16.46
626.849	16.48
627.04	16.43
627.231	16.47
627.422	16.5
627.614	16.47
627.805	16.48
627.996	16.48
628.187	16.41
628.378	16.32
628.569	16.47
628.76	16.54
628.951	16.4
629.142	16.4
629.332	16.32
629.523	16.38
629.714	16.36
629.905	16.32
630.096	16.53
630.287	16.51
630.478	16.7
630.669	16.39
630.859	16.42
631.05	16.49
631.241	16.42
631.432	16.43
631.623	16.39
631.813	16.51
632.004	16.52
632.195	16.45
632.385	16.5
632.576	16.3
632.767	16.5
632.957	16.6
633.148	16.55
633.339	16.8
633.529	16.8
633.72	16.74
633.91	16.58
634.101	16.42
634.292	16.54
634.482	16.54
634.673	16.67
634.863	16.52
635.054	16.44
635.244	16.64
635.435	16.34
635.625	16.4
635.815	16.44
636.006	16.4
636.196	16.37
636.387	16.11
636.577	16.13
636.767	16.01
636.958	15.96
637.148	15.86
637.338	15.65
637.529	15.71
637.719	15.68
637.909	15.74
638.099	15.92
638.29	16.25
638.48	16.46
638.67	16.56
638.86	16.7
639.05	16.52
639.241	16.66
639.431	16.83
639.621	16.98
639.811	16.98
640.001	16.99
640.191	17.07
640.381	16.91
640.571	17.01
640.761	16.85
640.951	16.64
641.141	16.76
641.331	16.63
641.521	16.48
641.711	16.53
641.901	16.46
642.091	16.3
642.281	16.25
642.471	16.16
642.661	16.18
642.851	16.28
643.041	16.3
643.231	16.51
643.42	16.53
643.61	16.83
643.8	16.62
643.99	16.96
644.18	16.89
644.369	16.71
644.559	17.01
644.749	16.87
644.939	16.76
645.128	16.91
645.318	16.92
645.508	16.87
645.697	16.67
645.887	16.81
646.076	16.43
646.266	16.64
646.456	16.83
646.645	16.86
646.835	16.75
647.024	16.92
647.214	17.02
647.403	17.02
647.593	17.23
647.782	17.26
647.972	17.21
648.161	17.28
648.351	17.23
648.54	17.1
648.73	16.97
648.919	16.83
649.108	16.8
649.298	16.84
649.487	16.9
649.677	16.82
649.866	16.81
650.055	16.72
650.244	16.83
650.434	16.71
650.623	16.8
650.812	16.81
651.002	17.24
651.191	17.3
651.38	17.09
651.569	17.12
651.758	17.07
651.947	17.02
652.137	17.11
652.326	17.06
652.515	17.12
652.704	17.37
652.893	17.45
653.082	17.22
653.271	17.12
653.46	17.18
653.649	17.15
653.838	17.09
654.027	17.06
654.216	16.96
654.405	17.01
654.594	17.22
654.783	17.03
654.972	17.12
655.161	17.24
655.35	17.21
655.539	17.43
655.728	17.35
655.916	17.68
656.105	17.63
656.294	17.97
656.483	17.87
656.672	17.74
656.86	17.71
657.049	17.54
657.238	17.47
657.427	17.64
657.615	17.49
657.804	17.33
657.993	17.17
658.181	17.31
658.37	17.24
658.559	17.23
658.747	17.31
658.936	17.16
659.125	17.49
659.313	17.41
659.502	17.51
659.69	17.43
659.879	17.53
660.067	17.51
660.256	17.38
660.444	17.2
660.633	17.44
660.821	17.61
661.01	17.94
661.198	17.66
661.387	17.92
661.575	17.53
661.763	17.75
661.952	17.75
662.14	17.78
662.328	17.81
662.517	17.81
662.705	17.62
662.893	17.31
663.082	17.28
663.27	17.17
663.458	17.1
663.646	17.42
663.834	17.27
664.023	17.33
664.211	17.3
664.399	17.27
664.587	17.49
664.775	17.42
664.963	17.58
665.152	17.49
665.34	17.77
665.528	17.64
665.716	17.6
665.904	17.69
666.092	17.54
666.28	17.56
666.468	17.54
666.656	17.51
666.844	17.68
667.032	17.69
667.22	17.99
667.408	17.78
667.596	17.75
667.784	17.59
667.971	17.89
668.159	18.05
668.347	18.15
668.535	18.14
668.723	18.06
668.911	17.93
669.098	17.71
669.286	17.51
669.474	17.41
669.662	17.58
669.849	17.76
670.037	17.36
670.225	17.56
670.413	17.62
670.6	17.61
670.788	17.77
670.976	17.86
671.163	17.99
671.351	17.94
671.538	18.23
671.726	17.92
671.913	17.95
672.101	17.93
672.289	17.65
672.476	17.62
672.664	17.79
672.851	17.69
673.039	17.65
673.226	17.71
673.413	17.49
673.601	17.37
673.788	17.82
673.976	17.74
674.163	18
674.35	18.05
674.538	17.95
674.725	18.29
674.912	18.14
675.1	18.43
675.287	18.54
675.474	18.54
675.662	18.61
675.849	18.27
676.036	18.38
676.223	17.88
676.411	18.02
676.598	18.03
676.785	17.9
676.972	17.93
677.159	17.72
677.346	17.36
677.533	17.61
677.721	17.46
677.908	17.51
678.095	17.42
678.282	17.75
678.469	17.66
678.656	17.89
678.843	17.73
679.03	17.84
679.217	17.92
679.404	18.23
679.591	17.86
679.778	17.94
679.964	18.04
680.151	17.9
680.338	17.89
680.525	17.91
680.712	17.89
680.899	18.02
681.086	18.07
681.272	18
681.459	17.66
681.646	17.9
681.833	18.07
682.02	18.26
682.206	18.83
682.393	19.19
682.58	19.26
682.766	18.88
682.953	18.68
683.14	18.63
683.326	19.04
683.513	19.25
683.7	19
683.886	18.83
684.073	18.7
684.259	18.4
684.446	17.94
684.632	17.94
684.819	18.01
685.005	17.97
685.192	17.82
685.378	17.15
685.565	17.39
685.751	17.59
685.938	17.56
686.124	17.33
686.31	17.21
686.497	17.34
686.683	17.49
686.87	17.72
687.056	17.48
687.242	17.45
687.429	17.82
687.615	17.67
687.801	17.8
687.987	17.7
688.174	17.92
688.36	17.77
688.546	17.87
688.732	17.77
688.918	17.49
689.105	17.97
689.291	18.12
689.477	17.75
689.663	17.52
689.849	17.42
690.035	17.83
690.221	17.78
690.407	18.1
690.593	17.9
690.779	17.71
690.965	17.85
691.151	17.53
691.337	17.62
691.523	18.02
691.709	18.08
691.895	18.1
692.081	17.71
692.267	17.71
692.453	17.53
692.639	17.65
692.825	17.77
693.011	17.68
693.196	17.92
693.382	17.54
693.568	17.34
693.754	17.6
693.94	17.94
694.125	18.31
694.311	18.22
694.497	17.9
694.682	18.08
694.868	18.2
695.054	18.24
695.239	18.28
695.425	18.44
695.611	18.55
695.796	18.43
695.982	18.08
696.168	17.85
696.353	17.89
696.539	18.04
696.724	17.67
696.91	17.47
697.095	17.61
697.281	17.49
697.466	17.5
697.652	17.58
697.837	17.63
698.023	17.86
698.208	17.78
698.393	17.66
698.579	17.89
698.764	17.9
698.949	17.74
699.135	17.79
699.32	17.84
699.505	18.03
699.691	17.64
699.876	17.64
700.061	17.54
700.246	17.52
700.432	17.65
700.617	17.42
700.802	17.59
700.987	18.18
701.172	17.86
701.358	17.78
701.543	17.79
701.728	18.11
701.913	18.07
702.098	17.99
702.283	18.28
702.468	18.43
702.653	18.17
702.838	18.49
703.023	18.26
703.208	18.36
703.393	18.63
703.578	18.51
703.763	18.75
703.948	18.54
704.133	18.49
704.318	18.35
704.503	18.36
704.688	18.74
704.873	18.45
705.057	18.61
705.242	18.72
705.427	18.65
705.612	18.86
705.797	18.56
705.981	19.47
706.166	19.58
706.351	19.45
706.536	19.3
706.72	19.32
706.905	19.28
707.09	19.28
707.274	19.47
707.459	19.38
707.644	19.3
707.828	19.27
708.013	18.87
708.197	18.83
708.382	18.86
708.567	19.21
708.751	18.93
708.936	19.11
709.12	19.03
709.305	18.79
709.489	18.74
709.673	18.9
709.858	19.06
710.042	18.93
710.227	18.64
710.411	18.67
710.596	18.22
710.78	18.26
710.964	18.07
711.149	18.16
711.333	18.56
711.517	18.31
711.702	18.23
711.886	18
712.07	17.79
712.254	18.12
712.438	18.37
712.623	18.45
712.807	18.58
712.991	18.66
713.175	18.66
713.359	18.3
713.544	18.54
713.728	18.13
713.912	18.23
714.096	18.29
714.28	18.1
714.464	18.12
714.648	18.16
714.832	17.94
715.016	17.6
715.2	17.44
715.384	17.22
715.568	17.56
715.752	17.78
715.936	18.06
716.12	18.21
716.304	18.45
716.488	17.98
716.671	17.99
716.855	18.37
717.039	18.69
717.223	18.25
717.407	18.65
717.59	18.53
717.774	18.88
717.958	18.91
718.142	18.96
718.325	19
718.509	19.24
718.693	19.21
718.877	19.05
719.06	19.3
719.244	19.93
719.428	19.55
719.611	19.45
719.795	18.83
719.978	18.36
720.162	18.25
720.345	18
720.529	18.2
720.713	18.83
720.896	18.63
721.08	17.98
721.263	17.96
721.446	18.23
721.63	18.46
721.813	18.93
721.997	19.03
722.18	19.05
722.364	19.02
722.547	19.05
722.73	17.94
722.914	18.13
723.097	18.61
723.28	18.49
723.464	18.32
723.647	18.06
723.83	18.03
724.013	18.08
724.197	18.07
724.38	18.25
724.563	18.14
724.746	19.18
724.929	19.09
725.112	19.19
725.296	19.23
725.479	19.75
725.662	20.13
725.845	19.97
726.028	20.16
726.211	20.24
726.394	19.87
726.577	19.77
726.76	18.79
726.943	19.08
727.126	19.04
727.309	18.72
727.492	18.32
727.675	17.81
727.858	17.48
728.041	17.45
728.224	18
728.407	18.47
728.589	18.68
728.772	19.34
728.955	19.19
729.138	18.95
729.321	19.49
729.503	19.37
729.686	19.4
729.869	19.97
730.052	19.93
730.234	19.35
730.417	19.41
730.6	19.08
730.782	18.96
730.965	18.91
731.148	19.14
731.33	19.23
731.513	19.83
731.695	20.12
731.878	20.16
732.061	19.9
732.243	20.07
732.426	19.81
732.608	20.16
732.791	20.27
732.973	20.22
733.156	20.06
733.338	19.54
733.52	19.44
733.703	19.07
733.885	18.8
734.068	18.98
734.25	19.01
734.432	19.55
734.615	19.47
734.797	19.05
734.979	19.01
735.162	19.46
735.344	19.75
735.526	19.7
735.708	20.14
735.891	20.34
736.073	19.76
736.255	19.36
736.437	18.82
736.619	18.31
736.802	18.58
736.984	18.88
737.166	18.46
737.348	18.52
737.53	18.23
737.712	17.39
737.894	17.14
738.076	17.71
738.258	17.95
738.44	17.58
738.622	18.02
738.804	18.65
738.986	18.64
739.168	18.43
739.35	18.59
739.532	18.83
739.714	18.96
739.896	19.33
740.078	19.38
740.259	18.87
740.441	19.61
740.623	19.72
740.805	19.31
740.987	19.46
741.168	19.72
741.35	19.86
741.532	19.95
741.714	20.66
741.895	20.62
742.077	21.11
742.259	21.43
742.44	21.23
742.622	20.88
742.804	20.71
742.985	20.1
743.167	20.5
743.348	19.99
743.53	19.54
743.711	19.67
743.893	19.23
744.075	18.51
744.256	18.6
744.438	18.94
744.619	19.2
744.8	19.45
744.982	19.32
745.163	19.13
745.345	19.2
745.526	20.01
745.707	20.48
745.889	20.39
746.07	20.97
746.252	21.22
746.433	20.37
746.614	20.39
746.795	19.69
746.977	19.98
747.158	19.81
747.339	19.61
747.52	19.24
747.702	18.27
747.883	19.27
748.064	19.23
748.245	19.44
748.426	19.96
748.607	19.51
748.788	20.15
748.97	20.32
749.151	20.39
749.332	20.59
749.513	19.9
749.694	20.12
749.875	19.25
750.056	18.99
750.237	18.94
750.418	18.99
750.599	19.55
750.78	19.69
750.96	20.09
751.141	20.13
751.322	19.29
751.503	19.65
751.684	20.67
751.865	20.63
752.046	20.62
752.226	20.5
752.407	20.53
752.588	19.84
752.769	19.5
752.949	18.85
753.13	19.31
753.311	20.23
753.492	20.92
753.672	19.94
753.853	20.41
754.034	20.44
754.214	20.82
754.395	20.88
754.575	21.65
754.756	21.33
754.937	22.01
755.117	21.33
755.298	21.79
755.478	21.39
755.659	21.63
755.839	21.67
756.02	21.77
756.2	21.38
756.381	20.4
756.561	20.42
756.741	20.68
756.922	20.22
757.102	20.53
757.283	20.24
757.463	20.32
757.643	20.15
757.823	19.91
758.004	19.17
758.184	18.78
758.364	19.46
758.545	19.51
758.725	19.62
758.905	19.95
759.085	19.83
759.265	19.46
759.446	19.27
759.626	18.82
759.806	18.78
759.986	19.81
760.166	19.98
760.346	19.61
760.526	19.36
760.706	19.32
760.886	19.59
761.066	19.77
761.246	20.09
761.426	20.21
761.606	20.19
761.786	20.35
761.966	19.87
762.146	20.16
762.326	20.05
762.506	20.31
762.686	20.59
762.866	20.25
763.046	20.22
763.225	20
763.405	19.69
763.585	19.79
763.765	19.67
763.945	19.48
764.124	19.44
764.304	19.8
764.484	19.99
764.664	19.23
764.843	18.96
765.023	18.85
765.203	19.19
765.382	19.24
765.562	19.91
765.741	19.77
765.921	20.51
766.101	20.58
766.28	21.08
766.46	20.56
766.639	21.56
766.819	21.85
766.998	21.79
767.178	21.65
767.357	22.28
767.537	21.97
767.716	22.05
767.896	21.79
768.075	21.38
768.254	20.81
768.434	20.59
768.613	20.92
768.792	21.16
768.972	21.84
769.151	21.89
769.33	21.66
769.51	21.93
769.689	22.13
769.868	22.22
770.047	22.3
770.226	22.19
770.406	22.15
770.585	21.42
770.764	20.45
770.943	19.96
771.122	19.63
771.301	19.91
771.48	20.06
771.66	20.2
771.839	19.78
772.018	19.76
772.197	20.38
772.376	20.59
772.555	20
772.734	21.32
772.913	21.85
773.092	22.06
773.271	21.75
773.449	21.14
773.628	20.57
773.807	20.62
773.986	21.06
774.165	20.4
774.344	20.66
774.523	21.53
774.701	20.98
774.88	20.61
775.059	20.48
775.238	20.64
775.417	21.73
775.595	22.27
775.774	22.59
775.953	21.65
776.131	21.81
776.31	21.38
776.489	20.35
776.667	20.22
776.846	19.93
777.025	19.89
777.203	18.91
777.382	17.82
777.56	17.29
777.739	17.16
777.917	18.15
778.096	18.96
778.274	18.52
778.453	18.77
778.631	19.1
778.81	19.29
778.988	19.96
779.166	21.21
779.345	21.63
779.523	21.67
779.702	21.27
779.88	20.64
780.058	20.29
780.237	21.32
780.415	21.79
780.593	21.61
780.771	21.91
780.95	22.34
781.128	21.34
781.306	20.86
781.484	21.47
781.662	21.47
781.841	22.73
782.019	22.67
782.197	22.22
782.375	22.32
782.553	23.26
782.731	22.8
782.909	22.21
783.087	23.7
783.265	23.42
783.443	23.13
783.621	23.51
783.799	22.13
783.977	21.92
784.155	22.32
784.333	22.86
784.511	22.81
784.689	23.29
784.867	23.39
785.045	21.92
785.223	22.86
785.4	22.83
785.578	22.74
785.756	23.82
785.934	24.46
786.112	24.04
786.289	22.76
786.467	21.65
786.645	21.77
786.823	21.71
787	22.33
787.178	21.74
787.356	22.14
787.533	22.14
787.711	21.53
787.889	21.46
788.066	22.18
788.244	23.49
788.421	24.03
788.599	23.49
788.776	23.12
788.954	23.52
789.131	23.39
789.309	22.79
789.486	22.93
789.664	22.08
789.841	21.81
790.019	21.38
790.196	20.6
790.373	20.7
790.551	21.84
790.728	21.31
790.906	19.65
791.083	20.48
791.26	21.51
791.437	21.92
791.615	22.66
791.792	22.04
791.969	22.85
792.146	23.12
792.324	22.83
792.501	21.78
792.678	22.72
792.855	23.99
793.032	23.83
793.209	23.38
793.387	23.54
793.564	23.7
793.741	24.51
793.918	23.79
794.095	23.09
794.272	23.27
794.449	22.67
794.626	23.82
794.803	23.16
794.98	22.46
795.157	21.55
795.334	21.22
795.511	22.12
795.688	21.84
795.864	21.17
796.041	21.79
796.218	21.82
796.395	22.54
796.572	21.32
796.749	22.54
796.925	23.35
797.102	24.39
797.279	23.52
797.456	22.65
797.632	22.6
797.809	23.19
797.986	23.29
798.162	23
798.339	22.79
798.516	23.3
798.692	22.53
798.869	21.72
799.046	22.09
799.222	23.7
799.399	23.46
799.575	23.34
799.752	23.05
799.928	23.24
800.105	22.77
800.281	22.85
800.458	22.74
800.634	22.67
800.811	22.83
800.987	22.33
801.163	21.03
801.34	21.13
801.516	22.5
801.692	23.32
801.869	22.65
802.045	22.78
802.221	22.81
802.398	22.5
802.574	23.18
802.75	24.26
802.926	25.01
803.103	25.47
803.279	25.04
803.455	22.94
803.631	22.88
803.807	23.96
803.983	25.5
804.16	25.29
804.336	25.79
804.512	24.8
804.688	24.43
804.864	23.75
805.04	24.43
805.216	25.17
805.392	25.82
805.568	25.64
805.744	24.56
805.92	23.1
806.096	23.86
806.272	23.85
806.448	25.89
806.623	25.61
806.799	26.39
806.975	25.06
807.151	24.92
807.327	25.21
807.503	24.36
807.678	24.54
807.854	25.14
808.03	24.38
808.206	23.21
808.381	21.49
808.557	21.38
808.733	20.51
808.908	20.62
809.084	21.1
809.26	20.95
809.435	22.83
809.611	23.08
809.787	23.19
809.962	22.58
810.138	23.3
810.313	22.57
810.489	23.3
810.664	22.53
810.84	22.31
811.015	22.76
811.191	23.13
811.366	22.93
811.542	23.03
811.717	22.79
811.892	24.49
812.068	24.71
812.243	25.97
812.419	25.73
812.594	26.38
812.769	27.45
812.944	26.69
813.12	26.87
813.295	26.47
813.47	26.58
813.645	27.15
813.821	25.35
813.996	25.83
814.171	25.24
814.346	26.13
814.521	27.25
814.697	27.69
814.872	28.22
815.047	26.55
815.222	25.78
815.397	24.65
815.572	23.62
815.747	25.11
815.922	24.61
816.097	24.5
816.272	22.82
816.447	20.86
816.622	20.89
816.797	21.47
816.972	22.29
817.147	22.42
817.322	22.69
817.496	22.92
817.671	23.16
817.846	23.36
818.021	23.75
818.196	23.53
818.371	24.46
818.545	23.79
818.72	23.09
818.895	23.8
819.069	23.67
819.244	24.6
819.419	24.06
819.594	23
819.768	22.43
819.943	21.89
820.117	21.74
820.292	21.61
820.467	21.12
820.641	20.79
820.816	20.61
820.99	20.2
821.165	20.11
821.339	20.23
821.514	20.37
821.688	20.45
821.863	20.53
822.037	20.56
822.212	20.43
822.386	20.37
822.56	20.26
822.735	20.04
822.909	20.34
823.084	20.29
823.258	20.29
823.432	20.45
823.606	20.26
823.781	19.93
823.955	19.93
824.129	20.12
824.303	20.33
824.478	20.36
824.652	20.43
824.826	20.49
825	20.39
825.174	20.59
825.348	20.27
825.523	20.41
825.697	21.02
825.871	20.95
826.045	20.76
826.219	20.85
826.393	21.11
826.567	21.48
826.741	21.67
826.915	22.09
827.089	22.04
827.263	22.23
827.437	22.22
827.611	22.6
827.784	22.88
827.958	22.94
828.132	22.53
828.306	22.76
828.48	23.08
828.654	23.2
828.827	22.45
829.001	22.61
829.175	22.7
829.349	24.1
829.522	24.12
829.696	24.04
829.87	24.28
830.044	25.79
830.217	26.4
830.391	26.3
830.565	25.75
830.738	27.13
830.912	27.49
831.085	27.2
831.259	26.1
831.432	25.42
831.606	26.71
831.779	26.29
831.953	25.58
832.126	24.73
832.3	24.79
832.473	24.94
832.647	24.54
832.82	24.27
832.994	24.35
833.167	24.03
833.34	24.37
833.514	24
833.687	24.18
833.86	24.36
834.034	24.99
834.207	25.25
834.38	25.08
834.553	24.67
834.727	24.36
834.9	24.11
835.073	23.63
835.246	22.66
835.419	22.26
835.593	21.96
835.766	22.01
835.939	21.49
836.112	20.83
836.285	21.67
836.458	21.53
836.631	22.14
836.804	23.57
836.977	24.13
837.15	25.52
837.323	25.81
837.496	26.15
837.669	26.4
837.842	26.4
838.015	27.54
838.188	28.01
838.361	29.13
838.533	28.12
838.706	27.64
838.879	27.8
839.052	27.31
839.225	26.53
839.398	26.41
839.57	26.8
839.743	27.63
839.916	26.29
840.088	26.46
840.261	27.45
840.434	28.18
840.607	26.93
840.779	27.19
840.952	27.68
841.124	28.27
841.297	27.92
841.47	27.58
841.642	25.66
841.815	26.69
841.987	25.15
842.16	24.24
842.332	24.3
842.505	25.96
842.677	26.48
842.85	26.95
843.022	26
843.194	29.13
843.367	30.23
843.539	31.2
843.712	30.46
843.884	29.9
844.056	30.27
844.229	30.06
844.401	29.86
844.573	27.01
844.745	25.25
844.918	30.46
845.09	26.55
845.262	25.31
845.434	24.83
845.606	22.44
845.779	24.2
845.951	23.7
846.123	25.72
846.295	25.95
846.467	30.04
846.639	31.77
846.811	30.07
846.983	33.55
847.155	32.63
847.327	33.54
847.499	37.66
847.671	37.1
847.843	37.29
848.015	35.69
848.187	37.23
848.359	35.48
848.531	32.33
848.703	33.06
848.875	31.96
849.047	31.8
849.218	35.36
849.39	34.89
849.562	33.3
849.734	30.49
849.905	31.34
850.077	31.26
850.249	29.35
850.421	33.55
850.592	28.98
850.764	29.27
850.936	30.3
851.107	28.21
851.279	31.38
851.451	35.34
851.622	39.24
851.794	40.07
851.965	41.46
852.137	43.31
852.308	42.71
852.48	46.03
852.651	47.2
852.823	49.9
852.994	48.56
853.166	44.52
853.337	42.88
853.509	44.48
853.68	45
853.851	43.81
854.023	44.89
854.194	44.57
854.365	41.87
854.537	41.13
854.708	39.34
854.879	36.24
855.05	37.38
855.222	36.54
855.393	38.36
855.564	35.65
855.735	33.45
855.906	35.46
856.078	32.72
856.249	35.96
856.42	33.62
856.591	32.4
856.762	36.35
856.933	35.13
857.104	32.35
857.275	33.59
857.446	37.86
857.617	39.84
857.788	35.58
857.959	38.6
858.13	37.6
858.301	39.7
858.472	35.92
858.643	37.79
858.814	42.17
858.985	49.1
859.155	46.13
859.326	47.65
859.497	43.48
859.668	43.89
859.839	43.43
860.009	38.84
860.18	37.57
860.351	42.66
860.522	38.65
860.692	34.58
860.863	31.91
861.034	29.48
861.204	25.21
861.375	31.59
861.546	37.29
861.716	37.83
861.887	43.33
862.057	42.28
862.228	38.51
862.398	38.1
862.569	39.58
862.739	39.8
862.91	38.98
863.08	42.04
863.251	37.76
863.421	32.97
863.592	33.67
863.762	32.27
863.932	31.27
864.103	34.24
864.273	37.61
864.443	33.89
864.614	33.06
864.784	34.89
864.954	34.28
865.125	38.17
865.295	38.14
865.465	39.23
865.635	35.83
865.805	38.42
865.976	38.25
866.146	35.02
866.316	43.16
866.486	44.33
866.656	40.13
866.826	38.12
866.996	37.05
867.166	36.31
867.336	30.77
867.506	33.6
867.676	32.59
867.846	28.22
868.016	31.61
868.186	28.51
868.356	24.39
868.526	27.31
868.696	27.11
868.866	25.73
869.036	34.1
869.206	36.81
869.376	35.42
869.545	39.41
869.715	43.72
869.885	39.6
870.055	38.91
870.224	43.64
870.394	46.31
870.564	48.28
870.734	48.31
870.903	39.71
871.073	35.9
871.243	38.24
871.412	37.59
871.582	41.3
871.751	45.21
871.921	46.51
872.091	44.98
872.26	42.12
872.43	40.11
872.599	41.1
872.769	41.81
872.938	44.27
873.108	44.11
873.277	43.75
873.446	40.23
873.616	39.2
873.785	40.37
873.955	40.18
874.124	41.39
874.293	42.55
874.463	39.45
874.632	42.51
874.801	44.48
874.971	46.84
875.14	46.21
875.309	47.7
875.478	46.73
875.647	44.05
875.817	41.74
875.986	45.35
876.155	46.56
876.324	46.9
876.493	44.24
876.662	44.37
876.831	42.97
877	38.89
877.17	36.51
877.339	35.47
877.508	33.46
877.677	33.76
877.846	27.23
878.015	24.29
878.184	22.38
878.352	24.34
878.521	23.46
878.69	19.95
878.859	20.62
879.028	19.89
879.197	20.73
879.366	21.72
879.534	23.44
879.703	25.1
879.872	24.84
880.041	26.24
880.21	23.49
880.378	23.45
880.547	23.51
880.716	24.86
880.884	25.62
881.053	24.46
881.222	24.38
881.39	23.34
881.559	24.25
881.727	23.95
881.896	23.13
882.065	24.1
882.233	24.04
882.402	24.06
882.57	23.84
882.739	23.29
882.907	23.75
883.076	24.15
883.244	23.75
883.412	23.5
883.581	23.94
883.749	24.17
883.918	23.63
884.086	23.9
884.254	25.42
884.423	25.93
884.591	25.99
884.759	26.89
884.927	26.42
885.096	26.92
885.264	26.65
885.432	27.87
885.6	28.3
885.769	29.24
885.937	28.31
886.105	26.3
886.273	24.63
886.441	24.6
886.609	22.79
886.777	23.94
886.945	26.19
887.113	25.64
887.281	23.76
887.449	27.02
887.617	24.25
887.785	24.63
887.953	27.71
888.121	26.12
888.289	29.58
888.457	28.18
888.625	26.37
888.793	24.82
888.961	26.45
889.129	32.87
889.296	30.32
889.464	35
889.632	38.61
889.8	36.16
889.967	43.56
890.135	39.02
