Data from 2938540_Reflection_2.txt Node
Date: Mon Jun 15 23:38:27 EDT 2015
User: robert
Spectrometer: USB4E03002
Autoset integration time: false
Trigger mode: 4
Integration Time (sec): 1.000000E-1
Scans to average: 10
Electric dark correction enabled: true
Nonlinearity correction enabled: false
Boxcar width: 6
Stray light correction enabled: false
XAxis mode: Wavelengths
Stop averaging: false
Number of Pixels in Spectrum: 3648
>>>>>Begin Spectral Data<<<<<
177.575	-43.56
177.794	-47.6
178.014	-74.78
178.233	-83.59
178.452	-427.82
178.672	-215.26
178.891	-180
179.11	-226.61
179.33	-219.35
179.549	-244.05
179.768	-264.36
179.987	-399.51
180.207	-151.13
180.426	-145.39
180.645	-142.11
180.864	-102.4
181.084	-115.98
181.303	-112.7
181.522	-110.33
181.741	-111.11
181.96	-85.01
182.179	-67.55
182.398	-71.59
182.618	-83.78
182.837	-69.6
183.056	-119.29
183.275	-59.79
183.494	-67.69
183.713	-120.89
183.932	-135.01
184.151	-295.35
184.37	-331.76
184.589	-194.32
184.808	-448.13
185.027	-700
185.246	-336.36
185.465	-246.34
185.684	-373.36
185.903	-426.67
186.122	-2982.98
186.341	7465
186.56	1688.89
186.779	2892.31
186.998	-566.9
187.216	3350
187.435	411.41
187.654	1074.76
187.873	5704.76
188.092	1088.28
188.311	900.79
188.53	5341.67
188.748	-5955
188.967	-918.18
189.186	-2612.2
189.405	-1516.88
189.623	2478.85
189.842	826.71
190.061	10927.27
190.28	-987.39
190.498	-1747.37
190.717	-1243.24
190.936	-5764.29
191.154	-2532.43
191.373	7877.78
191.592	2374.07
191.81	1508.11
192.029	887.1
192.248	958.73
192.466	-2695.83
192.685	-442.47
192.904	-538.84
193.122	1385.71
193.341	2225.93
193.559	282.87
193.778	446.75
193.996	172.7
194.215	208.03
194.433	184.04
194.652	226.49
194.87	251.7
195.089	150.72
195.307	131.1
195.526	120.61
195.744	115.98
195.963	287.98
196.181	308.09
196.399	1296.97
196.618	252.67
196.836	-141.71
197.055	-103.24
197.273	-391.67
197.491	-140.5
197.71	-368.39
197.928	-112.62
198.146	-117.75
198.365	-119.61
198.583	-253.85
198.801	15175
199.019	751.58
199.238	1351.72
199.456	2503.13
199.674	473.1
199.892	553.85
200.111	2857.14
200.329	253.35
200.547	304.47
200.765	306.6
200.983	324.36
201.202	316.8
201.42	576.55
201.638	445.6
201.856	1238.33
202.074	538.26
202.292	410.06
202.51	333.48
202.728	309.02
202.946	190.31
203.165	224.21
203.383	231.43
203.601	208.7
203.819	154.56
204.037	186.49
204.255	158.75
204.473	249.21
204.691	216.89
204.909	147.07
205.127	163.36
205.345	159.52
205.562	204.57
205.78	421.29
205.998	161.41
206.216	172.99
206.434	165.75
206.652	174.68
206.87	167.43
207.088	153.34
207.306	162.04
207.523	165.59
207.741	280.92
207.959	247.21
208.177	295.81
208.395	227.13
208.612	169.12
208.83	240.65
209.048	199.77
209.266	193.26
209.483	197.53
209.701	239.88
209.919	503.08
210.136	228.38
210.354	223.66
210.572	170.32
210.79	151.62
211.007	80.56
211.225	90.63
211.442	110.75
211.66	69.27
211.878	-15.01
212.095	-10.59
212.313	-7.26
212.53	19.93
212.748	-4.4
212.966	-3.06
213.183	3.34
213.401	9.24
213.618	34.22
213.836	64.84
214.053	68.42
214.271	78.06
214.488	191.67
214.705	283.05
214.923	216.16
215.14	218.55
215.358	167.78
215.575	195.85
215.793	184.44
216.01	161.64
216.227	160.15
216.445	121.74
216.662	103.17
216.879	107.52
217.097	92.78
217.314	88.95
217.531	102.12
217.749	123.76
217.966	102.52
218.183	89.85
218.4	67.51
218.618	62.86
218.835	57.83
219.052	54.75
219.269	52.84
219.487	61.71
219.704	52.53
219.921	51.28
220.138	47.78
220.355	44.23
220.572	38.02
220.79	43.13
221.007	30.37
221.224	37.48
221.441	35.43
221.658	45.72
221.875	34.88
222.092	36.78
222.309	38.56
222.526	42.62
222.743	36.42
222.96	31.67
223.177	29.14
223.394	26.6
223.611	24.93
223.828	29.84
224.045	27.89
224.262	25.71
224.479	19.85
224.696	24.74
224.913	23.71
225.13	20.33
225.347	20.31
225.564	19.02
225.781	17.67
225.997	16.12
226.214	15
226.431	14.03
226.648	12.52
226.865	12.61
227.082	13.56
227.298	13.23
227.515	12.16
227.732	11.96
227.949	11.1
228.165	10.52
228.382	11.63
228.599	11.99
228.816	11.94
229.032	13.23
229.249	14.44
229.466	14.82
229.682	15.1
229.899	14.17
230.116	14.66
230.332	14.54
230.549	13.64
230.765	15.94
230.982	16.45
231.199	16.33
231.415	15.14
231.632	14.97
231.848	14.46
232.065	11.07
232.281	12.17
232.498	12.93
232.714	13.45
232.931	13.14
233.147	12.88
233.364	12.31
233.58	11.42
233.797	11.97
234.013	10.47
234.23	10.64
234.446	9.68
234.662	9.16
234.879	10.53
235.095	9.77
235.312	9.38
235.528	8.23
235.744	9.51
235.961	9.87
236.177	11.64
236.393	11.16
236.61	10.47
236.826	12.71
237.042	14.51
237.258	15.55
237.475	15.12
237.691	13.74
237.907	14.78
238.123	14.06
238.339	15.36
238.556	15.45
238.772	14.94
238.988	14.34
239.204	14.33
239.42	13.41
239.636	12.26
239.853	12.07
240.069	11.54
240.285	10.91
240.501	11.33
240.717	11.03
240.933	11.17
241.149	10.77
241.365	10.67
241.581	10.65
241.797	9.77
242.013	9.54
242.229	9.91
242.445	9.79
242.661	9.77
242.877	9.25
243.093	10.09
243.309	9.7
243.525	9.27
243.741	8.93
243.957	8.58
244.173	8.3
244.388	8.26
244.604	8.72
244.82	8.58
245.036	7.56
245.252	7.68
245.468	7.28
245.683	7.39
245.899	6.86
246.115	6.9
246.331	6.91
246.547	7.02
246.762	7.31
246.978	6.74
247.194	6.89
247.409	7.16
247.625	7.21
247.841	8.42
248.057	8.22
248.272	8.26
248.488	8.42
248.703	9.22
248.919	8.76
249.135	8.56
249.35	8.47
249.566	7.78
249.782	8.23
249.997	8.25
250.213	7.09
250.428	7.22
250.644	6.69
250.859	6.45
251.075	6.7
251.29	6.79
251.506	6.25
251.721	6.75
251.937	6.78
252.152	7.29
252.368	7.87
252.583	8.53
252.798	8.01
253.014	9.24
253.229	9.07
253.445	9.33
253.66	10.16
253.875	10.2
254.091	10.79
254.306	11.03
254.521	11.31
254.737	10.69
254.952	9.03
255.167	8.49
255.383	7.67
255.598	7.99
255.813	7.05
256.028	6.77
256.244	6.41
256.459	5.84
256.674	6.03
256.889	5.41
257.104	5.18
257.32	5.29
257.535	5.56
257.75	5.56
257.965	5.61
258.18	5.61
258.395	5.46
258.61	5.59
258.826	5.63
259.041	5.68
259.256	5.88
259.471	5.57
259.686	5.73
259.901	6.07
260.116	5.68
260.331	5.35
260.546	5.61
260.761	5.71
260.976	5.92
261.191	5.78
261.406	5.38
261.621	5.32
261.836	5.16
262.05	4.92
262.265	5.21
262.48	5.26
262.695	5.49
262.91	5.83
263.125	6.14
263.34	6.05
263.555	5.65
263.769	4.82
263.984	5.31
264.199	5.71
264.414	5.46
264.629	5.38
264.843	5.55
265.058	5.49
265.273	5.51
265.488	4.94
265.702	4.92
265.917	5.45
266.132	5.61
266.346	5.41
266.561	6.12
266.776	6.06
266.99	6.7
267.205	6.86
267.42	6.54
267.634	6.19
267.849	6.49
268.063	6.5
268.278	6.37
268.492	6.05
268.707	5.49
268.922	5.33
269.136	6
269.351	6.1
269.565	5.81
269.78	5.84
269.994	5.67
270.209	5.41
270.423	5.85
270.637	5.62
270.852	5.68
271.066	6.1
271.281	6.47
271.495	6.82
271.709	6.94
271.924	6.84
272.138	6.51
272.353	7.16
272.567	7
272.781	7.25
272.996	7.74
273.21	7.79
273.424	7.99
273.638	7.96
273.853	7.71
274.067	7.46
274.281	7.1
274.495	7.18
274.71	6.86
274.924	6.82
275.138	6.09
275.352	5.84
275.566	6.04
275.781	6.3
275.995	6.16
276.209	5.92
276.423	5.22
276.637	4.77
276.851	5.03
277.065	5.15
277.279	5.15
277.493	5.31
277.707	5.13
277.921	5
278.135	4.88
278.349	4.6
278.563	4.14
278.777	3.82
278.991	3.46
279.205	4.1
279.419	4.51
279.633	4.37
279.847	4.68
280.061	4.82
280.275	4.81
280.489	5.05
280.703	5.28
280.917	5.35
281.131	5.46
281.344	5.76
281.558	5.7
281.772	5.83
281.986	5.94
282.2	5.95
282.414	5.93
282.627	5.7
282.841	5.55
283.055	5.11
283.269	5.07
283.482	5.12
283.696	4.92
283.91	4.55
284.123	4.63
284.337	4.5
284.551	4.52
284.764	4.28
284.978	4.1
285.192	4.04
285.405	4.18
285.619	3.92
285.833	4.11
286.046	4.36
286.26	4.07
286.473	4.22
286.687	4.85
286.9	4.72
287.114	5.06
287.327	5.26
287.541	5.4
287.754	5.8
287.968	5.72
288.181	5.29
288.395	5.44
288.608	5.55
288.822	5.12
289.035	5.54
289.248	5.55
289.462	5.12
289.675	5.25
289.889	5.27
290.102	5.27
290.315	4.93
290.529	4.5
290.742	4.5
290.955	5.02
291.169	5.22
291.382	5.26
291.595	5.49
291.808	5.45
292.022	5.63
292.235	5.77
292.448	5.78
292.661	5.71
292.875	5.7
293.088	6.26
293.301	6.4
293.514	6.25
293.727	5.96
293.94	5.99
294.153	5.87
294.367	5.71
294.58	5.44
294.793	5.25
295.006	5.21
295.219	5.13
295.432	5.17
295.645	5.05
295.858	4.71
296.071	4.62
296.284	5.03
296.497	4.96
296.71	4.82
296.923	4.84
297.136	4.92
297.349	4.97
297.562	5.17
297.775	5.28
297.988	5.52
298.201	5.76
298.414	5.78
298.626	5.87
298.839	5.86
299.052	5.5
299.265	5.82
299.478	5.56
299.691	5.67
299.903	5.97
300.116	6.01
300.329	5.54
300.542	5.35
300.755	5.56
300.967	5.29
301.18	5.19
301.393	5.07
301.605	5.44
301.818	5.51
302.031	5.46
302.243	5.58
302.456	5.53
302.669	5.33
302.881	5.56
303.094	5.82
303.307	5.89
303.519	5.47
303.732	5.38
303.944	5.58
304.157	5.76
304.37	5.64
304.582	6
304.795	6.12
305.007	6.14
305.22	6.13
305.432	5.9
305.645	5.54
305.857	5.9
306.069	5.93
306.282	5.83
306.494	6.18
306.707	6.25
306.919	6.11
307.132	6.09
307.344	6.14
307.556	6.13
307.769	6
307.981	6.1
308.193	6
308.406	5.9
308.618	5.54
308.83	5.54
309.043	5.65
309.255	5.45
309.467	5.55
309.679	5.73
309.892	5.5
310.104	5.52
310.316	5.37
310.528	5.62
310.74	5.63
310.953	6.07
311.165	6.43
311.377	6.59
311.589	6.74
311.801	6.34
312.013	6.44
312.225	6.5
312.437	6.83
312.649	6.92
312.862	6.92
313.074	7.12
313.286	7.02
313.498	6.83
313.71	6.9
313.922	6.76
314.134	6.83
314.346	6.51
314.558	6.97
314.77	6.95
314.982	6.65
315.193	6.39
315.405	6.37
315.617	6.03
315.829	5.66
316.041	5.52
316.253	5.9
316.465	5.33
316.677	5.25
316.888	5.14
317.1	5.57
317.312	5.88
317.524	6.28
317.736	6.46
317.947	6.23
318.159	6.31
318.371	6.71
318.583	6.91
318.794	7.63
319.006	7.77
319.218	8.22
319.43	8.51
319.641	8.54
319.853	8.18
320.064	8.13
320.276	7.64
320.488	7.99
320.699	8.38
320.911	8.48
321.123	8.65
321.334	8.72
321.546	8.3
321.757	7.95
321.969	7.97
322.18	7.89
322.392	8.03
322.603	8.33
322.815	8.09
323.026	8.07
323.238	7.75
323.449	7.73
323.661	8.11
323.872	7.97
324.083	7.94
324.295	7.9
324.506	7.87
324.718	7.84
324.929	7.62
325.14	7.75
325.352	7.78
325.563	7.74
325.774	8.01
325.986	8.32
326.197	8.37
326.408	8.35
326.62	8.29
326.831	8.31
327.042	8.79
327.253	9
327.464	9.05
327.676	9.74
327.887	9.74
328.098	9.67
328.309	9.81
328.52	10.1
328.732	10.02
328.943	10.01
329.154	10.13
329.365	10.15
329.576	10.53
329.787	10.01
329.998	10.1
330.209	10.27
330.42	10.02
330.631	10.21
330.842	10.43
331.053	10.3
331.264	10.11
331.475	10.49
331.686	10.44
331.897	10.14
332.108	10.44
332.319	10.49
332.53	10.78
332.741	11.02
332.952	10.87
333.163	10.86
333.374	10.65
333.585	10.61
333.795	10.63
334.006	10.8
334.217	10.61
334.428	11.03
334.639	11.11
334.849	10.51
335.06	10
335.271	10.03
335.482	9.73
335.692	9.92
335.903	9.88
336.114	9.8
336.325	9.84
336.535	10.33
336.746	10.18
336.957	10.38
337.167	10.15
337.378	10.32
337.589	10.45
337.799	10.71
338.01	10.66
338.22	10.33
338.431	10.16
338.642	10.3
338.852	10.32
339.063	10.3
339.273	10.34
339.484	10.32
339.694	10.36
339.905	10.1
340.115	9.87
340.326	10.17
340.536	10.03
340.746	9.97
340.957	10.39
341.167	10.25
341.378	10.03
341.588	9.95
341.799	9.7
342.009	9.15
342.219	9
342.43	8.51
342.64	8.56
342.85	8.55
343.061	8.38
343.271	8.49
343.481	8.27
343.691	8.09
343.902	7.98
344.112	8.1
344.322	8.06
344.532	8.34
344.743	8.51
344.953	8.53
345.163	8.61
345.373	8.64
345.583	9.09
345.793	9.38
346.004	9.74
346.214	10.15
346.424	10.14
346.634	10.13
346.844	10.1
347.054	10.26
347.264	10.3
347.474	10.53
347.684	10.66
347.894	10.64
348.104	10.76
348.314	10.6
348.524	10.18
348.734	10.06
348.944	10.09
349.154	10.1
349.364	10.3
349.574	10.42
349.784	10.41
349.994	10
350.204	9.7
350.413	9.4
350.623	9.37
350.833	9.03
351.043	8.72
351.253	8.68
351.463	8.27
351.672	8.18
351.882	8.16
352.092	7.87
352.302	7.87
352.511	7.73
352.721	7.95
352.931	8.06
353.141	8.17
353.35	8.11
353.56	8.18
353.77	8.17
353.979	8.22
354.189	8.3
354.399	8.22
354.608	8.13
354.818	8.44
355.027	8.24
355.237	8.27
355.447	8.18
355.656	7.77
355.866	7.66
356.075	7.68
356.285	7.77
356.494	7.73
356.704	7.8
356.913	7.91
357.123	8
357.332	8.08
357.542	7.91
357.751	7.83
357.96	7.97
358.17	7.74
358.379	8.07
358.589	8.23
358.798	7.92
359.007	7.74
359.217	7.63
359.426	7.46
359.635	7.42
359.845	7.26
360.054	7.21
360.263	7.28
360.472	7.26
360.682	7.17
360.891	7.27
361.1	7.37
361.309	7.28
361.519	7.38
361.728	7.5
361.937	7.59
362.146	7.63
362.355	7.72
362.564	7.61
362.774	7.52
362.983	7.35
363.192	7.39
363.401	7.28
363.61	7.61
363.819	7.38
364.028	7.33
364.237	7.35
364.446	7.26
364.655	7.17
364.864	7.57
365.073	7.39
365.282	7.34
365.491	7.4
365.7	7.52
365.909	7.49
366.118	7.58
366.327	7.42
366.536	7.44
366.745	7.47
366.954	7.74
367.162	7.66
367.371	7.82
367.58	7.48
367.789	7.32
367.998	7.39
368.207	7.55
368.415	7.53
368.624	7.55
368.833	7.64
369.042	7.4
369.25	7.28
369.459	7.33
369.668	7
369.877	7.06
370.085	6.88
370.294	6.82
370.503	6.99
370.711	7.07
370.92	7.04
371.129	6.97
371.337	6.76
371.546	6.65
371.754	6.76
371.963	6.82
372.171	6.7
372.38	6.77
372.589	6.87
372.797	6.79
373.006	6.62
373.214	6.68
373.423	6.68
373.631	6.52
373.84	6.85
374.048	7.13
374.256	7.08
374.465	7.13
374.673	6.93
374.882	7.05
375.09	7.21
375.298	7.2
375.507	7.07
375.715	6.98
375.923	6.77
376.132	6.56
376.34	6.56
376.548	6.31
376.757	6.25
376.965	6.37
377.173	6.31
377.381	6.43
377.59	6.29
377.798	6.04
378.006	5.82
378.214	5.81
378.423	5.79
378.631	5.75
378.839	5.86
379.047	5.9
379.255	5.79
379.463	5.6
379.671	5.47
379.879	5.48
380.088	5.48
380.296	5.5
380.504	5.56
380.712	5.59
380.92	5.66
381.128	5.77
381.336	5.58
381.544	5.24
381.752	5.29
381.96	5.29
382.168	5.42
382.376	5.46
382.584	5.28
382.791	5.54
382.999	5.56
383.207	5.37
383.415	5.38
383.623	5.48
383.831	5.48
384.039	5.58
384.247	5.73
384.454	5.62
384.662	5.51
384.87	5.29
385.078	5.12
385.285	5.25
385.493	4.74
385.701	4.79
385.909	4.91
386.116	4.69
386.324	4.6
386.532	4.62
386.739	4.85
386.947	4.94
387.155	4.92
387.362	5
387.57	5.14
387.778	5.22
387.985	5.04
388.193	5.23
388.4	5.13
388.608	5.15
388.816	5.37
389.023	5.29
389.231	5.25
389.438	5.2
389.646	5.16
389.853	5.15
390.061	5.04
390.268	4.81
390.475	4.74
390.683	4.76
390.89	4.81
391.098	4.82
391.305	4.74
391.512	4.87
391.72	4.85
391.927	4.8
392.135	4.63
392.342	4.6
392.549	4.46
392.756	4.5
392.964	4.74
393.171	4.66
393.378	4.68
393.586	4.7
393.793	4.6
394	4.71
394.207	4.53
394.414	4.58
394.622	4.51
394.829	4.49
395.036	4.68
395.243	4.85
395.45	4.79
395.657	4.59
395.864	4.61
396.072	4.62
396.279	4.54
396.486	4.62
396.693	4.47
396.9	4.52
397.107	4.57
397.314	4.63
397.521	4.62
397.728	4.46
397.935	4.24
398.142	4.48
398.349	4.66
398.556	4.7
398.763	4.62
398.97	4.67
399.177	4.69
399.383	4.74
399.59	4.64
399.797	4.74
400.004	4.78
400.211	4.86
400.418	4.82
400.625	4.83
400.831	4.69
401.038	4.58
401.245	4.45
401.452	4.36
401.658	4.37
401.865	4.23
402.072	4.13
402.279	4.17
402.485	3.94
402.692	3.9
402.899	3.89
403.105	3.84
403.312	3.91
403.519	3.83
403.725	3.79
403.932	3.95
404.138	4.09
404.345	3.93
404.552	3.99
404.758	4.06
404.965	3.95
405.171	4.06
405.378	4.02
405.584	4.11
405.791	4.02
405.997	4.01
406.204	4.12
406.41	4.13
406.617	4.02
406.823	3.73
407.029	3.82
407.236	3.81
407.442	3.82
407.649	3.88
407.855	3.79
408.061	3.79
408.268	3.68
408.474	3.71
408.68	3.75
408.887	3.67
409.093	3.66
409.299	3.66
409.505	3.81
409.712	3.73
409.918	3.72
410.124	3.72
410.33	3.52
410.537	3.57
410.743	3.49
410.949	3.42
411.155	3.67
411.361	3.58
411.567	3.45
411.773	3.33
411.98	3.37
412.186	3.46
412.392	3.43
412.598	3.45
412.804	3.35
413.01	3.6
413.216	3.58
413.422	3.6
413.628	3.59
413.834	3.44
414.04	3.34
414.246	3.5
414.452	3.63
414.658	3.56
414.864	3.46
415.07	3.59
415.275	3.6
415.481	3.61
415.687	3.46
415.893	3.37
416.099	3.34
416.305	3.36
416.511	3.31
416.716	3.39
416.922	3.36
417.128	3.39
417.334	3.31
417.539	3.33
417.745	3.22
417.951	3.23
418.157	3.19
418.362	3.21
418.568	3.27
418.774	3.22
418.979	3.14
419.185	3.08
419.391	3.11
419.596	3.04
419.802	3.07
420.008	2.67
420.213	2.65
420.419	2.65
420.624	2.57
420.83	2.6
421.035	2.62
421.241	2.55
421.446	2.6
421.652	2.64
421.857	2.62
422.063	2.48
422.268	2.45
422.474	2.37
422.679	2.69
422.885	2.66
423.09	2.63
423.295	2.64
423.501	2.59
423.706	2.53
423.911	2.54
424.117	2.5
424.322	2.51
424.527	2.57
424.733	2.54
424.938	2.54
425.143	2.5
425.349	2.63
425.554	2.7
425.759	2.77
425.964	2.78
426.169	2.82
426.375	2.84
426.58	2.83
426.785	2.86
426.99	2.8
427.195	2.79
427.4	2.98
427.605	3.11
427.811	3.1
428.016	3.06
428.221	3
428.426	2.92
428.631	2.88
428.836	2.83
429.041	2.74
429.246	2.76
429.451	2.74
429.656	2.63
429.861	2.67
430.066	2.62
430.271	2.49
430.476	2.44
430.681	2.48
430.886	2.58
431.09	2.63
431.295	2.64
431.5	2.58
431.705	2.67
431.91	2.66
432.115	2.71
432.32	2.79
432.524	2.8
432.729	2.83
432.934	2.83
433.139	2.85
433.343	2.76
433.548	2.59
433.753	2.62
433.958	2.58
434.162	2.63
434.367	2.68
434.572	2.69
434.776	2.65
434.981	2.67
435.186	2.68
435.39	2.59
435.595	2.58
435.799	2.63
436.004	2.68
436.209	2.81
436.413	2.68
436.618	2.73
436.822	2.74
437.027	2.63
437.231	2.54
437.436	2.53
437.64	2.53
437.845	2.54
438.049	2.59
438.253	2.6
438.458	2.55
438.662	2.54
438.867	2.5
439.071	2.5
439.275	2.48
439.48	2.44
439.684	2.48
439.888	2.58
440.093	2.58
440.297	2.54
440.501	2.47
440.706	2.53
440.91	2.57
441.114	2.64
441.318	2.67
441.523	2.64
441.727	2.69
441.931	2.73
442.135	2.7
442.339	2.74
442.543	2.72
442.748	2.7
442.952	2.71
443.156	2.75
443.36	2.68
443.564	2.65
443.768	2.51
443.972	2.55
444.176	2.57
444.38	2.51
444.584	2.42
444.788	2.46
444.992	2.42
445.196	2.43
445.4	2.34
445.604	2.36
445.808	2.33
446.012	2.22
446.216	2.2
446.42	2.28
446.624	2.14
446.828	2.16
447.032	2.22
447.235	2.27
447.439	2.26
447.643	2.21
447.847	2.22
448.051	2.33
448.254	2.29
448.458	2.17
448.662	2.24
448.866	2.23
449.069	2.24
449.273	2.27
449.477	2.17
449.681	2.13
449.884	2.13
450.088	2.12
450.292	2.19
450.495	2.15
450.699	2.17
450.902	2.18
451.106	2.33
451.31	2.39
451.513	2.4
451.717	2.43
451.92	2.53
452.124	2.52
452.327	2.48
452.531	2.62
452.734	2.66
452.938	2.67
453.141	2.58
453.345	2.53
453.548	2.48
453.752	2.5
453.955	2.37
454.158	2.38
454.362	2.34
454.565	2.33
454.769	2.41
454.972	2.46
455.175	2.37
455.379	2.36
455.582	2.37
455.785	2.52
455.988	2.55
456.192	2.62
456.395	2.57
456.598	2.6
456.801	2.64
457.005	2.6
457.208	2.51
457.411	2.47
457.614	2.44
457.817	2.4
458.021	2.34
458.224	2.32
458.427	2.3
458.63	2.29
458.833	2.26
459.036	2.3
459.239	2.32
459.442	2.32
459.645	2.35
459.848	2.44
460.051	2.48
460.254	2.51
460.457	2.61
460.66	2.68
460.863	2.67
461.066	2.61
461.269	2.64
461.472	2.66
461.675	2.59
461.878	2.56
462.081	2.57
462.284	2.53
462.486	2.57
462.689	2.54
462.892	2.43
463.095	2.33
463.298	2.36
463.5	2.35
463.703	2.32
463.906	2.33
464.109	2.33
464.311	2.37
464.514	2.46
464.717	2.51
464.92	2.55
465.122	2.42
465.325	2.46
465.528	2.59
465.73	2.53
465.933	2.43
466.135	2.45
466.338	2.54
466.541	2.47
466.743	2.39
466.946	2.27
467.148	2.26
467.351	2.19
467.553	2.17
467.756	2.16
467.958	2.1
468.161	2.03
468.363	2.05
468.566	2.1
468.768	2.04
468.971	2.02
469.173	2.04
469.375	2.11
469.578	2.18
469.78	2.22
469.983	2.19
470.185	2.17
470.387	2.29
470.59	2.36
470.792	2.4
470.994	2.35
471.196	2.38
471.399	2.47
471.601	2.49
471.803	2.53
472.005	2.57
472.208	2.5
472.41	2.43
472.612	2.4
472.814	2.45
473.016	2.39
473.218	2.35
473.421	2.39
473.623	2.49
473.825	2.44
474.027	2.41
474.229	2.39
474.431	2.4
474.633	2.37
474.835	2.46
475.037	2.53
475.239	2.6
475.441	2.6
475.643	2.61
475.845	2.57
476.047	2.56
476.249	2.5
476.451	2.57
476.653	2.6
476.855	2.62
477.057	2.56
477.258	2.54
477.46	2.59
477.662	2.51
477.864	2.49
478.066	2.44
478.268	2.5
478.469	2.48
478.671	2.45
478.873	2.5
479.075	2.42
479.276	2.38
479.478	2.35
479.68	2.43
479.882	2.43
480.083	2.34
480.285	2.33
480.487	2.29
480.688	2.3
480.89	2.24
481.091	2.26
481.293	2.22
481.495	2.2
481.696	2.19
481.898	2.16
482.099	2.14
482.301	2.11
482.502	2.11
482.704	2.13
482.905	2.12
483.107	2.12
483.308	2.09
483.51	2.1
483.711	2.1
483.913	2.1
484.114	2.12
484.315	2.16
484.517	2.19
484.718	2.19
484.92	2.19
485.121	2.22
485.322	2.22
485.524	2.22
485.725	2.23
485.926	2.26
486.127	2.25
486.329	2.23
486.53	2.25
486.731	2.23
486.932	2.2
487.134	2.16
487.335	2.17
487.536	2.17
487.737	2.17
487.938	2.16
488.139	2.17
488.341	2.15
488.542	2.12
488.743	2.11
488.944	2.13
489.145	2.16
489.346	2.17
489.547	2.18
489.748	2.27
489.949	2.29
490.15	2.28
490.351	2.28
490.552	2.28
490.753	2.28
490.954	2.33
491.155	2.36
491.356	2.39
491.557	2.37
491.758	2.34
491.959	2.32
492.159	2.32
492.36	2.3
492.561	2.31
492.762	2.37
492.963	2.36
493.164	2.39
493.364	2.47
493.565	2.44
493.766	2.44
493.967	2.4
494.167	2.43
494.368	2.41
494.569	2.44
494.769	2.48
494.97	2.5
495.171	2.51
495.371	2.49
495.572	2.52
495.773	2.54
495.973	2.51
496.174	2.49
496.375	2.52
496.575	2.62
496.776	2.66
496.976	2.71
497.177	2.73
497.377	2.74
497.578	2.69
497.778	2.74
497.979	2.8
498.179	2.84
498.38	2.87
498.58	2.92
498.78	3
498.981	3.03
499.181	3.02
499.382	3.03
499.582	3.04
499.782	3
499.983	2.97
500.183	3
500.383	2.93
500.584	2.87
500.784	2.89
500.984	2.79
501.184	2.81
501.385	2.79
501.585	2.77
501.785	2.74
501.985	2.85
502.185	2.88
502.386	2.97
502.586	3.04
502.786	3.1
502.986	3.27
503.186	3.27
503.386	3.24
503.586	3.38
503.786	3.36
503.987	3.39
504.187	3.42
504.387	3.45
504.587	3.35
504.787	3.43
504.987	3.45
505.187	3.42
505.387	3.38
505.587	3.38
505.786	3.43
505.986	3.49
506.186	3.47
506.386	3.54
506.586	3.53
506.786	3.57
506.986	3.6
507.186	3.61
507.386	3.55
507.585	3.49
507.785	3.55
507.985	3.65
508.185	3.62
508.384	3.6
508.584	3.62
508.784	3.64
508.984	3.64
509.183	3.7
509.383	3.69
509.583	3.77
509.782	3.85
509.982	3.95
510.182	4.09
510.381	4.11
510.581	4.09
510.781	4.09
510.98	4.17
511.18	4.24
511.379	4.22
511.579	4.33
511.778	4.37
511.978	4.48
512.177	4.48
512.377	4.43
512.576	4.4
512.776	4.41
512.975	4.45
513.175	4.51
513.374	4.61
513.573	4.65
513.773	4.68
513.972	4.78
514.172	4.77
514.371	4.88
514.57	4.89
514.77	4.92
514.969	5.08
515.168	5.16
515.367	5.18
515.567	5.16
515.766	5.16
515.965	5.19
516.164	5.21
516.364	5.17
516.563	5.25
516.762	5.3
516.961	5.31
517.16	5.35
517.359	5.38
517.559	5.39
517.758	5.4
517.957	5.47
518.156	5.59
518.355	5.66
518.554	5.67
518.753	5.75
518.952	5.86
519.151	5.83
519.35	5.84
519.549	5.9
519.748	6.02
519.947	6.06
520.146	6.08
520.345	6.18
520.544	6.2
520.743	6.18
520.942	6.26
521.141	6.38
521.339	6.41
521.538	6.42
521.737	6.52
521.936	6.59
522.135	6.59
522.333	6.58
522.532	6.73
522.731	6.82
522.93	6.85
523.129	6.9
523.327	6.93
523.526	6.9
523.725	6.95
523.923	7.01
524.122	7.08
524.321	7.14
524.519	7.21
524.718	7.24
524.917	7.24
525.115	7.23
525.314	7.25
525.512	7.29
525.711	7.3
525.909	7.32
526.108	7.37
526.306	7.39
526.505	7.43
526.703	7.43
526.902	7.42
527.1	7.42
527.299	7.48
527.497	7.53
527.696	7.54
527.894	7.54
528.092	7.57
528.291	7.62
528.489	7.67
528.688	7.69
528.886	7.71
529.084	7.74
529.283	7.79
529.481	7.84
529.679	7.89
529.877	7.92
530.076	7.98
530.274	8.07
530.472	8.16
530.67	8.18
530.869	8.23
531.067	8.27
531.265	8.35
531.463	8.44
531.661	8.48
531.859	8.52
532.057	8.57
532.255	8.59
532.454	8.58
532.652	8.62
532.85	8.65
533.048	8.69
533.246	8.73
533.444	8.77
533.642	8.82
533.84	8.84
534.038	8.83
534.236	8.85
534.434	8.91
534.632	8.96
534.83	9.02
535.027	9.09
535.225	9.1
535.423	9.11
535.621	9.22
535.819	9.29
536.017	9.37
536.215	9.41
536.412	9.43
536.61	9.47
536.808	9.49
537.006	9.52
537.203	9.54
537.401	9.57
537.599	9.55
537.797	9.6
537.994	9.67
538.192	9.6
538.39	9.58
538.587	9.54
538.785	9.59
538.983	9.66
539.18	9.64
539.378	9.73
539.575	9.74
539.773	9.75
539.97	9.77
540.168	9.83
540.366	9.83
540.563	9.85
540.761	9.87
540.958	9.93
541.155	9.97
541.353	9.98
541.55	9.96
541.748	10.05
541.945	9.99
542.143	10.09
542.34	10.15
542.537	10.28
542.735	10.36
542.932	10.46
543.129	10.54
543.327	10.62
543.524	10.67
543.721	10.77
543.919	10.87
544.116	10.95
544.313	10.99
544.51	11.19
544.708	11.16
544.905	11.19
545.102	11.12
545.299	11.15
545.496	11.17
545.693	11.16
545.891	11.16
546.088	11.18
546.285	11.15
546.482	11.16
546.679	11.26
546.876	11.3
547.073	11.27
547.27	11.38
547.467	11.53
547.664	11.65
547.861	11.7
548.058	11.77
548.255	11.86
548.452	11.95
548.649	12.02
548.846	12.1
549.043	12.26
549.24	12.25
549.437	12.26
549.633	12.39
549.83	12.39
550.027	12.42
550.224	12.44
550.421	12.47
550.618	12.55
550.814	12.53
551.011	12.57
551.208	12.54
551.405	12.62
551.601	12.59
551.798	12.69
551.995	12.78
552.191	12.72
552.388	12.78
552.585	12.73
552.781	12.78
552.978	12.84
553.175	12.84
553.371	12.91
553.568	13.01
553.764	13.12
553.961	13.17
554.157	13.19
554.354	13.24
554.55	13.26
554.747	13.29
554.943	13.32
555.14	13.35
555.336	13.39
555.533	13.39
555.729	13.49
555.926	13.58
556.122	13.55
556.318	13.59
556.515	13.66
556.711	13.68
556.907	13.72
557.104	13.82
557.3	13.98
557.496	14.15
557.693	14.3
557.889	14.42
558.085	14.57
558.281	14.47
558.478	14.48
558.674	14.54
558.87	14.68
559.066	14.68
559.262	14.81
559.459	14.91
559.655	14.94
559.851	15.01
560.047	14.99
560.243	15.01
560.439	15.03
560.635	15.09
560.831	15.27
561.027	15.33
561.223	15.45
561.419	15.53
561.615	15.63
561.811	15.72
562.007	15.82
562.203	15.91
562.399	15.91
562.595	15.98
562.791	16.09
562.987	16.14
563.183	16.13
563.379	16.3
563.575	16.45
563.771	16.61
563.966	16.65
564.162	16.69
564.358	16.79
564.554	16.74
564.75	16.75
564.945	16.77
565.141	16.81
565.337	16.86
565.533	16.93
565.728	17.02
565.924	17
566.12	16.99
566.315	17.07
566.511	17.13
566.707	17.3
566.902	17.33
567.098	17.51
567.293	17.5
567.489	17.61
567.684	17.75
567.88	17.87
568.076	17.86
568.271	18.01
568.467	18.03
568.662	18.13
568.858	18.06
569.053	18.05
569.248	17.94
569.444	17.9
569.639	17.9
569.835	18.11
570.03	18.17
570.225	18.17
570.421	18.16
570.616	18.3
570.812	18.3
571.007	18.35
571.202	18.42
571.397	18.54
571.593	18.62
571.788	18.68
571.983	18.76
572.178	18.85
572.374	18.76
572.569	18.89
572.764	18.85
572.959	18.91
573.154	18.92
573.35	19
573.545	19.02
573.74	19.05
573.935	19.03
574.13	19.07
574.325	19.21
574.52	19.35
574.715	19.31
574.91	19.5
575.105	19.57
575.3	19.71
575.495	19.77
575.69	19.79
575.885	19.82
576.08	19.93
576.275	20
576.47	20.04
576.665	20.16
576.86	20.18
577.055	20.25
577.25	20.39
577.444	20.45
577.639	20.38
577.834	20.45
578.029	20.43
578.224	20.45
578.418	20.47
578.613	20.44
578.808	20.41
579.003	20.53
579.197	20.56
579.392	20.62
579.587	20.58
579.781	20.67
579.976	20.7
580.171	20.79
580.365	20.82
580.56	20.87
580.755	20.96
580.949	20.88
581.144	21.02
581.338	21.17
581.533	21.2
581.727	21.27
581.922	21.29
582.116	21.27
582.311	21.38
582.505	21.36
582.7	21.43
582.894	21.5
583.089	21.55
583.283	21.55
583.478	21.73
583.672	21.74
583.866	21.77
584.061	21.91
584.255	21.9
584.449	22.05
584.644	22.08
584.838	22.06
585.032	22.09
585.226	22.07
585.421	22.11
585.615	22.19
585.809	22.4
586.003	22.43
586.198	22.51
586.392	22.46
586.586	22.29
586.78	22.36
586.974	22.25
587.168	22.28
587.363	22.33
587.557	22.32
587.751	22.43
587.945	22.37
588.139	22.44
588.333	22.37
588.527	22.36
588.721	22.3
588.915	22.36
589.109	22.4
589.303	22.46
589.497	22.66
589.691	22.75
589.885	22.71
590.079	22.84
590.273	22.84
590.466	22.9
590.66	22.89
590.854	22.93
591.048	22.97
591.242	22.99
591.436	23.14
591.629	23.22
591.823	23.3
592.017	23.19
592.211	23.14
592.404	23.2
592.598	23.18
592.792	23.22
592.986	23.28
593.179	23.27
593.373	23.4
593.567	23.44
593.76	23.57
593.954	23.42
594.147	23.45
594.341	23.41
594.535	23.46
594.728	23.61
594.922	23.6
595.115	23.63
595.309	23.65
595.502	23.7
595.696	23.81
595.889	23.66
596.083	23.64
596.276	23.61
596.47	23.69
596.663	23.76
596.856	23.77
597.05	23.83
597.243	23.65
597.437	23.72
597.63	23.8
597.823	23.85
598.017	23.81
598.21	23.81
598.403	23.95
598.596	23.92
598.79	23.93
598.983	23.94
599.176	23.93
599.369	23.9
599.563	23.87
599.756	24.05
599.949	24.05
600.142	24.01
600.335	23.98
600.528	24.08
600.722	24.12
600.915	24.33
601.108	24.45
601.301	24.58
601.494	24.61
601.687	24.58
601.88	24.61
602.073	24.6
602.266	24.6
602.459	24.58
602.652	24.59
602.845	24.61
603.038	24.63
603.231	24.56
603.424	24.45
603.617	24.5
603.809	24.45
604.002	24.6
604.195	24.59
604.388	24.63
604.581	24.62
604.774	24.62
604.966	24.66
605.159	24.59
605.352	24.64
605.545	24.69
605.737	24.65
605.93	24.77
606.123	24.67
606.316	24.76
606.508	24.66
606.701	24.73
606.894	24.74
607.086	24.84
607.279	24.94
607.471	25.05
607.664	25.18
607.857	25.15
608.049	25.14
608.242	25.28
608.434	25.26
608.627	25.23
608.819	25.22
609.012	25.2
609.204	25.24
609.397	25.32
609.589	25.32
609.782	25.24
609.974	25.15
610.166	25.04
610.359	25.08
610.551	25.1
610.743	25.11
610.936	25.01
611.128	25.11
611.32	25.09
611.513	25.1
611.705	25.1
611.897	25.11
612.09	25.26
612.282	25.37
612.474	25.56
612.666	25.83
612.858	25.86
613.051	25.7
613.243	25.76
613.435	25.8
613.627	25.78
613.819	26.1
614.011	26.12
614.203	26.11
614.395	26
614.588	25.82
614.78	25.81
614.972	25.74
615.164	25.71
615.356	25.75
615.548	25.87
615.74	25.94
615.932	25.94
616.124	26.19
616.315	25.94
616.507	26.07
616.699	26.18
616.891	26.19
617.083	26.3
617.275	26.46
617.467	26.5
617.659	26.45
617.85	26.4
618.042	26.51
618.234	26.36
618.426	26.37
618.618	26.28
618.809	26.23
619.001	26.15
619.193	26.07
619.384	26.06
619.576	26
619.768	25.8
619.959	25.79
620.151	25.76
620.343	25.79
620.534	25.84
620.726	25.99
620.917	26.07
621.109	25.99
621.301	26.03
621.492	26.25
621.684	26.31
621.875	26.33
622.067	26.52
622.258	26.7
622.45	26.66
622.641	26.71
622.832	26.83
623.024	26.8
623.215	26.81
623.407	26.75
623.598	26.75
623.789	26.86
623.981	26.74
624.172	26.6
624.363	26.74
624.555	26.6
624.746	26.42
624.937	26.43
625.129	26.37
625.32	26.2
625.511	26.25
625.702	26.23
625.893	26.42
626.085	26.5
626.276	26.48
626.467	26.44
626.658	26.53
626.849	26.66
627.04	26.77
627.231	26.77
627.422	26.91
627.614	27
627.805	27.06
627.996	26.98
628.187	26.98
628.378	26.98
628.569	26.98
628.76	27.11
628.951	27.13
629.142	27.11
629.332	26.94
629.523	26.87
629.714	26.98
629.905	26.85
630.096	26.85
630.287	26.81
630.478	26.89
630.669	27
630.859	26.87
631.05	26.77
631.241	26.6
631.432	26.63
631.623	26.91
631.813	26.79
632.004	26.84
632.195	26.87
632.385	26.83
632.576	26.77
632.767	26.81
632.957	26.84
633.148	26.78
633.339	26.91
633.529	27.04
633.72	27.22
633.91	27.17
634.101	27.01
634.292	27.02
634.482	27.18
634.673	27.19
634.863	27.15
635.054	27.17
635.244	27.19
635.435	27.22
635.625	27.22
635.815	27.21
636.006	27.3
636.196	27.27
636.387	27.3
636.577	27.26
636.767	27.46
636.958	27.31
637.148	27.38
637.338	27.55
637.529	27.51
637.719	27.51
637.909	27.46
638.099	27.6
638.29	27.56
638.48	27.66
638.67	27.71
638.86	27.76
639.05	27.73
639.241	27.66
639.431	27.65
639.621	27.8
639.811	27.74
640.001	27.92
640.191	28.04
640.381	28.11
640.571	28.09
640.761	28.04
640.951	27.82
641.141	27.5
641.331	27.58
641.521	27.67
641.711	27.82
641.901	27.8
642.091	27.49
642.281	27.59
642.471	27.77
642.661	27.83
642.851	27.74
643.041	27.85
643.231	27.93
643.42	27.91
643.61	28.22
643.8	28.18
643.99	28.36
644.18	28.26
644.369	28.43
644.559	28.68
644.749	28.62
644.939	28.43
645.128	28.52
645.318	28.66
645.508	28.44
645.697	28.49
645.887	28.65
646.076	28.73
646.266	28.76
646.456	28.69
646.645	28.9
646.835	28.73
647.024	28.62
647.214	28.7
647.403	28.78
647.593	28.65
647.782	28.7
647.972	28.86
648.161	28.7
648.351	28.68
648.54	28.56
648.73	28.55
648.919	28.5
649.108	28.32
649.298	28.51
649.487	28.64
649.677	28.53
649.866	28.47
650.055	28.53
650.244	28.36
650.434	28.26
650.623	28.43
650.812	28.32
651.002	28.34
651.191	28.37
651.38	28.37
651.569	28.37
651.758	28.39
651.947	28.52
652.137	28.68
652.326	28.64
652.515	28.76
652.704	28.82
652.893	28.84
653.082	28.84
653.271	29.12
653.46	29.02
653.649	28.97
653.838	28.89
654.027	28.92
654.216	28.9
654.405	28.65
654.594	28.61
654.783	28.66
654.972	28.61
655.161	28.45
655.35	28.38
655.539	28.21
655.728	28.09
655.916	28.23
656.105	28.42
656.294	28.49
656.483	28.57
656.672	28.63
656.86	28.74
657.049	28.69
657.238	28.75
657.427	28.65
657.615	28.9
657.804	29
657.993	29.14
658.181	29.11
658.37	29.11
658.559	29.01
658.747	29
658.936	28.62
659.125	28.54
659.313	28.53
659.502	28.62
659.69	28.75
659.879	28.86
660.067	28.81
660.256	28.96
660.444	29
660.633	28.93
660.821	28.83
661.01	28.8
661.198	28.87
661.387	29.27
661.575	29.54
661.763	29.61
661.952	29.61
662.14	29.42
662.328	29.4
662.517	29.6
662.705	29.29
662.893	29.35
663.082	29.51
663.27	29.74
663.458	29.81
663.646	29.82
663.834	29.84
664.023	29.58
664.211	29.61
664.399	29.46
664.587	29.44
664.775	29.56
664.963	29.41
665.152	29.67
665.34	29.52
665.528	29.62
665.716	29.63
665.904	29.69
666.092	29.82
666.28	29.9
666.468	30.05
666.656	29.93
666.844	30.21
667.032	30.26
667.22	30.22
667.408	30.02
667.596	30.1
667.784	30.32
667.971	30.23
668.159	30.31
668.347	30.34
668.535	30.22
668.723	30.33
668.911	30.24
669.098	30.35
669.286	30.31
669.474	30.4
669.662	30.4
669.849	30.63
670.037	30.43
670.225	30.24
670.413	30.43
670.6	30.52
670.788	30.44
670.976	30.47
671.163	30.24
671.351	30.44
671.538	30.51
671.726	30.47
671.913	30.47
672.101	30.54
672.289	30.73
672.476	30.9
672.664	31.22
672.851	30.99
673.039	30.92
673.226	31.21
673.413	31.33
673.601	31.47
673.788	31.27
673.976	31.1
674.163	30.92
674.35	30.99
674.538	30.76
674.725	30.49
674.912	30.51
675.1	30.36
675.287	30.24
675.474	30.11
675.662	29.94
675.849	30
676.036	29.92
676.223	29.88
676.411	30.26
676.598	30.46
676.785	30.3
676.972	30.47
677.159	30.54
677.346	30.38
677.533	30.35
677.721	30.53
677.908	30.6
678.095	30.53
678.282	30.41
678.469	30.37
678.656	30.4
678.843	30.28
679.03	30.23
679.217	30.25
679.404	30.21
679.591	30.33
679.778	30.18
679.964	30.27
680.151	30.21
680.338	30.13
680.525	30.14
680.712	30.27
680.899	30.29
681.086	30.35
681.272	30.22
681.459	30.39
681.646	30.49
681.833	30.5
682.02	30.37
682.206	30.63
682.393	30.49
682.58	30.51
682.766	30.41
682.953	30.47
683.14	30.82
683.326	31.03
683.513	31.09
683.7	31.19
683.886	30.94
684.073	30.94
684.259	31.14
684.446	31.3
684.632	31.5
684.819	31.57
685.005	31.8
685.192	31.91
685.378	32.04
685.565	31.65
685.751	31.68
685.938	31.68
686.124	31.73
686.31	32.06
686.497	32.12
686.683	32.06
686.87	32.15
687.056	32
687.242	31.97
687.429	31.83
687.615	32.04
687.801	31.99
687.987	31.98
688.174	31.96
688.36	31.92
688.546	32.04
688.732	31.78
688.918	31.5
689.105	31.45
689.291	31.28
689.477	31.38
689.663	31.24
689.849	31.35
690.035	31.33
690.221	31.32
690.407	31.14
690.593	31.06
690.779	31.11
690.965	31.09
691.151	31.08
691.337	31.48
691.523	31.85
691.709	32.04
691.895	31.97
692.081	32.07
692.267	32.13
692.453	32.13
692.639	32.23
692.825	32.17
693.011	32.27
693.196	31.87
693.382	31.81
693.568	31.77
693.754	31.57
693.94	31.09
694.125	31.01
694.311	31.02
694.497	31.23
694.682	31.32
694.868	31.17
695.054	31.01
695.239	31.16
695.425	31.13
695.611	31.55
695.796	31.57
695.982	31.82
696.168	31.79
696.353	31.95
696.539	31.99
696.724	32.03
696.91	32.06
697.095	31.82
697.281	31.79
697.466	31.98
697.652	31.98
697.837	31.92
698.023	31.87
698.208	31.8
698.393	31.64
698.579	31.72
698.764	31.74
698.949	31.75
699.135	31.86
699.32	31.82
699.505	31.91
699.691	32
699.876	31.82
700.061	31.73
700.246	31.95
700.432	31.71
700.617	31.59
700.802	31.73
700.987	32.21
701.172	32.19
701.358	32.02
701.543	31.68
701.728	31.56
701.913	31.62
702.098	31.64
702.283	31.65
702.468	31.92
702.653	31.97
702.838	32.28
703.023	32.38
703.208	32.28
703.393	31.94
703.578	32.05
703.763	31.91
703.948	32.28
704.133	32.19
704.318	32.26
704.503	32.13
704.688	32.38
704.873	32.4
705.057	32.08
705.242	32.16
705.427	32.17
705.612	32.17
705.797	31.95
705.981	31.78
706.166	32.1
706.351	31.86
706.536	32.06
706.72	31.89
706.905	31.99
707.09	31.86
707.274	31.99
707.459	32.21
707.644	32.42
707.828	32.22
708.013	32.42
708.197	32.61
708.382	32.38
708.567	32.53
708.751	32.52
708.936	32.37
709.12	32.51
709.305	32.52
709.489	32.76
709.673	32.55
709.858	32.63
710.042	32.46
710.227	32.97
710.411	33.06
710.596	32.79
710.78	33.08
710.964	33.17
711.149	33.05
711.333	33.07
711.517	33.38
711.702	33.46
711.886	33.35
712.07	33.29
712.254	32.93
712.438	32.76
712.623	32.35
712.807	32.28
712.991	32.41
713.175	32.23
713.359	31.99
713.544	32.27
713.728	32.16
713.912	31.89
714.096	31.81
714.28	31.74
714.464	31.6
714.648	31.78
714.832	31.93
715.016	32.08
715.2	32.17
715.384	32.41
715.568	32.49
715.752	32.56
715.936	32.57
716.12	33.05
716.304	33.06
716.488	33.17
716.671	33.11
716.855	33.53
717.039	33.32
717.223	33.13
717.407	33.12
717.59	33.42
717.774	33.13
717.958	33.02
718.142	32.86
718.325	32.78
718.509	32.6
718.693	32.85
718.877	32.74
719.06	32.66
719.244	32.62
719.428	32.77
719.611	33.19
719.795	33.27
719.978	32.95
720.162	32.89
720.345	33.33
720.529	33.4
720.713	33.31
720.896	33.43
721.08	33.14
721.263	33.37
721.446	33.4
721.63	33.44
721.813	33.32
721.997	33.18
722.18	33.31
722.364	33.18
722.547	33.29
722.73	33.07
722.914	32.69
723.097	32.81
723.28	32.53
723.464	32.65
723.647	32.29
723.83	32.39
724.013	32.29
724.197	32.5
724.38	32.53
724.563	33.14
724.746	33.3
724.929	33.54
725.112	33.63
725.296	34.2
725.479	34.08
725.662	34.04
725.845	34
726.028	34.2
726.211	34.25
726.394	34.7
726.577	34.78
726.76	34.86
726.943	34.62
727.126	34.47
727.309	34.38
727.492	34.54
727.675	34.23
727.858	34.55
728.041	34.7
728.224	34.49
728.407	34.46
728.589	34.52
728.772	34.29
728.955	34.47
729.138	34.45
729.321	34.36
729.503	34.42
729.686	34.58
729.869	34.55
730.052	34.62
730.234	34.62
730.417	34.58
730.6	34.58
730.782	34.45
730.965	34.77
731.148	34.52
731.33	34.4
731.513	34.1
731.695	33.85
731.878	33.67
732.061	33.66
732.243	33.67
732.426	33.95
732.608	33.45
732.791	33.64
732.973	33.67
733.156	33.83
733.338	33.22
733.52	33.37
733.703	33.46
733.885	33.76
734.068	33.39
734.25	33.63
734.432	33.48
734.615	33.25
734.797	32.93
734.979	33.11
735.162	32.8
735.344	33.49
735.526	33.58
735.708	34.29
735.891	33.81
736.073	33.31
736.255	33.48
736.437	33.76
736.619	33.29
736.802	33.12
736.984	33.28
737.166	33.47
737.348	33.81
737.53	33.89
737.712	33.3
737.894	33.17
738.076	32.19
738.258	33.19
738.44	33.83
738.622	33.34
738.804	33.6
738.986	33.62
739.168	33.82
739.35	33.77
739.532	33.91
739.714	34.17
739.896	34.32
740.078	34.32
740.259	34.35
740.441	35.01
740.623	34.39
740.805	34.37
740.987	34.05
741.168	34.07
741.35	34.87
741.532	34.42
741.714	34.6
741.895	34.31
742.077	33.83
742.259	34.23
742.44	34.4
742.622	34.22
742.804	33.95
742.985	33.85
743.167	33.69
743.348	34.52
743.53	34.35
743.711	34.31
743.893	34.81
744.075	34.73
744.256	34.95
744.438	35.18
744.619	34.82
744.8	34.55
744.982	34.64
745.163	34.79
745.345	34.91
745.526	34.8
745.707	34.79
745.889	34.91
746.07	34.3
746.252	34.48
746.433	34.08
746.614	33.96
746.795	33.56
746.977	33.46
747.158	33.66
747.339	33.5
747.52	34.01
747.702	34.37
747.883	34.81
748.064	34.9
748.245	34.77
748.426	35.03
748.607	34.56
748.788	34.53
748.97	34.68
749.151	34.88
749.332	35.05
749.513	35.34
749.694	35.77
749.875	35.29
750.056	34.59
750.237	34.5
750.418	33.84
750.599	33.78
750.78	33.2
750.96	33.29
751.141	33.29
751.322	33.19
751.503	33.18
751.684	32.69
751.865	32.33
752.046	32.01
752.226	31.89
752.407	32.6
752.588	32.31
752.769	32.22
752.949	32.74
753.13	33.07
753.311	32.88
753.492	33.25
753.672	32.92
753.853	33.16
754.034	33.86
754.214	33.9
754.395	33.94
754.575	34.34
754.756	34.22
754.937	34.55
755.117	35.34
755.298	35.11
755.478	35.05
755.659	35.47
755.839	35.63
756.02	36.04
756.2	36.36
756.381	35.9
756.561	36.06
756.741	36.31
756.922	36.36
757.102	36.35
757.283	36.36
757.463	36.43
757.643	36.49
757.823	37.04
758.004	37.23
758.184	37.77
758.364	37.83
758.545	37.03
758.725	37.19
758.905	37.32
759.085	37.1
759.265	36.61
759.446	36.45
759.626	36.05
759.806	35.8
759.986	36.03
760.166	35.8
760.346	35.62
760.526	34.97
760.706	34.11
760.886	34.53
761.066	34.63
761.246	34.63
761.426	34.82
761.606	34.74
761.786	34.42
761.966	34.39
762.146	34.05
762.326	34.02
762.506	34.12
762.686	33.99
762.866	33.99
763.046	34.5
763.225	34.53
763.405	34.38
763.585	34.24
763.765	34.4
763.945	34.19
764.124	34.34
764.304	35.02
764.484	35.32
764.664	34.9
764.843	34.87
765.023	34.97
765.203	34.89
765.382	34.91
765.562	34.83
765.741	34.91
765.921	34.97
766.101	34.86
766.28	35.64
766.46	36.31
766.639	35.58
766.819	36.09
766.998	36.03
767.178	36.65
767.357	36.54
767.537	36.44
767.716	35.93
767.896	36.04
768.075	35.24
768.254	35.39
768.434	35.9
768.613	35.23
768.792	34.03
768.972	33.57
769.151	32.94
769.33	34.17
769.51	33.5
769.689	33.69
769.868	34.3
770.047	34.74
770.226	34.54
770.406	35.56
770.585	35.38
770.764	34.49
770.943	34.75
771.122	36.16
771.301	36.3
771.48	36.4
771.66	35.66
771.839	35.4
772.018	35.73
772.197	35.99
772.376	36.24
772.555	36.37
772.734	35.72
772.913	35.65
773.092	35.78
773.271	36.09
773.449	35.8
773.628	36.01
773.807	36.45
773.986	36.5
774.165	36.5
774.344	36.13
774.523	35.86
774.701	35.74
774.88	35.92
775.059	36.2
775.238	36.18
775.417	36.6
775.595	36.14
775.774	35.64
775.953	36.04
776.131	35.46
776.31	34.99
776.489	35.95
776.667	35.27
776.846	34.39
777.025	33.6
777.203	33.65
777.382	33.9
777.56	33.33
777.739	32.71
777.917	33.81
778.096	34.22
778.274	34.47
778.453	35.51
778.631	35.56
778.81	35.1
778.988	35.67
779.166	36.63
779.345	37.46
779.523	37.05
779.702	36.79
779.88	37.35
780.058	37.5
780.237	37.36
780.415	37.77
780.593	37.27
780.771	37.41
780.95	37.68
781.128	37.12
781.306	37.55
781.484	36.82
781.662	37.29
781.841	37.04
782.019	36.94
782.197	36.72
782.375	36.44
782.553	35.62
782.731	34.94
782.909	35.46
783.087	35.15
783.265	35.69
783.443	36.78
783.621	37.14
783.799	37.53
783.977	36.93
784.155	37.55
784.333	37.64
784.511	37.59
784.689	38.37
784.867	37.79
785.045	37.82
785.223	37.65
785.4	37.48
785.578	36.82
785.756	35.51
785.934	35.13
786.112	34.28
786.289	34.18
786.467	34.37
786.645	34.71
786.823	34.85
787	34.67
787.178	34.94
787.356	34.59
787.533	34.69
787.711	33.77
787.889	34.35
788.066	34.45
788.244	34.02
788.421	34.28
788.599	35.14
788.776	35.18
788.954	35.37
789.131	35.73
789.309	36.38
789.486	37.22
789.664	38.29
789.841	37.21
790.019	37.91
790.196	37.15
790.373	37.95
790.551	37.82
790.728	38.92
790.906	38.41
791.083	38.5
791.26	38.49
791.437	37.52
791.615	36.32
791.792	36.23
791.969	35.55
792.146	36.73
792.324	37.01
792.501	36.69
792.678	36.43
792.855	36.94
793.032	35.87
793.209	36.33
793.387	35.83
793.564	35.89
793.741	36.44
793.918	36.33
794.095	36.33
794.272	36.57
794.449	35.84
794.626	36.45
794.803	37.46
794.98	37.43
795.157	38.29
795.334	38.92
795.511	38.54
795.688	38.11
795.864	37.87
796.041	38.58
796.218	38.86
796.395	38.81
796.572	38.51
796.749	38.76
796.925	37.68
797.102	37.16
797.279	36.7
797.456	35.36
797.632	35.13
797.809	35.33
797.986	35.26
798.162	35.5
798.339	34.6
798.516	34.7
798.692	34.55
798.869	35.39
799.046	36.08
799.222	35.45
799.399	35.79
799.575	35.8
799.752	36.57
799.928	36.67
800.105	37.23
800.281	38.31
800.458	37.85
800.634	38.18
800.811	38.25
800.987	38.52
801.163	37.37
801.34	36.32
801.516	37.57
801.692	37.32
801.869	37.45
802.045	37.36
802.221	38.04
802.398	38.05
802.574	38.21
802.75	38.61
802.926	38.51
803.103	38.25
803.279	38
803.455	38.77
803.631	40.03
803.807	39.87
803.983	39.45
804.16	39.35
804.336	38.64
804.512	39.69
804.688	38.79
804.864	38.04
805.04	38.33
805.216	39.31
805.392	41.33
805.568	41.62
805.744	40.89
805.92	40.04
806.096	40.45
806.272	41.07
806.448	41.89
806.623	41.9
806.799	39.59
806.975	38.88
807.151	39.08
807.327	38.49
807.503	37.05
807.678	35.88
807.854	35.27
808.03	36.82
808.206	35.84
808.381	35.03
808.557	34.62
808.733	34.08
808.908	35.2
809.084	35.41
809.26	35.98
809.435	35.64
809.611	36.5
809.787	37.74
809.962	36.25
810.138	36.72
810.313	35.44
810.489	36.93
810.664	35.82
810.84	36.6
811.015	37.28
811.191	36.98
811.366	37.06
811.542	37.1
811.717	38.44
811.892	37.7
812.068	37.2
812.243	38.53
812.419	38.06
812.594	38.99
812.769	39.46
812.944	40.24
813.12	40.07
813.295	39.21
813.47	39.38
813.645	40.26
813.821	39.71
813.996	39.7
814.171	40.52
814.346	40.89
814.521	41.9
814.697	41.8
814.872	40.48
815.047	40.18
815.222	39.86
815.397	39.65
815.572	39.6
815.747	39.2
815.922	39.9
816.097	40.25
816.272	39.75
816.447	38.75
816.622	38.3
816.797	36.94
816.972	37.62
817.147	37.1
817.322	37.1
817.496	37.03
817.671	36.97
817.846	36.38
818.021	35.79
818.196	34.72
818.371	35.59
818.545	35.06
818.72	36.28
818.895	35.91
819.069	35.54
819.244	34.97
819.419	35.47
819.594	35.4
819.768	35.54
819.943	35.3
820.117	35.75
820.292	36.16
820.467	35.55
820.641	34.71
820.816	34.68
820.99	34.29
821.165	34.53
821.339	34.55
821.514	34.84
821.688	34.35
821.863	34.27
822.037	34.26
822.212	34.15
822.386	33.93
822.56	33.66
822.735	33.9
822.909	33.95
823.084	34.11
823.258	34.09
823.432	33.93
823.606	34.06
823.781	34.02
823.955	34.35
824.129	34.58
824.303	34.93
824.478	35.04
824.652	35.25
824.826	35.62
825	35.72
825.174	35.99
825.348	35.56
825.523	35.85
825.697	35.78
825.871	35.52
826.045	35.64
826.219	35.73
826.393	35.32
826.567	35.28
826.741	35.24
826.915	35.51
827.089	35.29
827.263	35.62
827.437	35.37
827.611	36.06
827.784	35.81
827.958	36.21
828.132	36.49
828.306	36.37
828.48	36.1
828.654	36.18
828.827	35.55
829.001	36.19
829.175	36
829.349	36.28
829.522	35.96
829.696	36.75
829.87	37.12
830.044	37.18
830.217	36.53
830.391	36.85
830.565	35.52
830.738	37.06
830.912	37.15
831.085	37.85
831.259	37.41
831.432	38.38
831.606	37.6
831.779	37.23
831.953	36.54
832.126	35.07
832.3	35.28
832.473	35.43
832.647	35.35
832.82	36.72
832.994	36.14
833.167	36.11
833.34	36.19
833.514	36.51
833.687	35.99
833.86	36.58
834.034	36.58
834.207	36.92
834.38	37.16
834.553	37.3
834.727	37.26
834.9	37.78
835.073	37.22
835.246	37.47
835.419	37.7
835.593	37.61
835.766	37.89
835.939	38.19
836.112	38.93
836.285	39.87
836.458	39.57
836.631	40.08
836.804	40.13
836.977	40.94
837.15	40.01
837.323	40.23
837.496	40.64
837.669	40.21
837.842	39.41
838.015	38.81
838.188	38.03
838.361	37.02
838.533	35.24
838.706	35.26
838.879	35.31
839.052	36.71
839.225	37.1
839.398	37.34
839.57	38.7
839.743	38.26
839.916	39.8
840.088	41.12
840.261	40.94
840.434	41.45
840.607	41
840.779	41.46
840.952	43.1
841.124	44.23
841.297	43.42
841.47	44.26
841.642	44.41
841.815	44.67
841.987	44.93
842.16	45.02
842.332	46.13
842.505	45.36
842.677	45.31
842.85	46.44
843.022	45.72
843.194	43.96
843.367	42.73
843.539	42.04
843.712	40.59
843.884	42.21
844.056	41.35
844.229	41.76
844.401	40.96
844.573	39.5
844.745	41.07
844.918	40.44
845.09	42.06
845.262	44.4
845.434	44.93
845.606	47.19
845.779	47.31
845.951	50.22
846.123	47.79
846.295	46.86
846.467	45.84
846.639	46.35
846.811	44.17
846.983	44.11
847.155	46.89
847.327	46.24
847.499	45.32
847.671	47.05
847.843	44.96
848.015	44.75
848.187	44.29
848.359	43.87
848.531	41.64
848.703	39.86
848.875	39.91
849.047	42.41
849.218	41.06
849.39	39.62
849.562	36.76
849.734	36.38
849.905	36.27
850.077	34.88
850.249	35.39
850.421	32.1
850.592	33.38
850.764	35.74
850.936	39.51
851.107	38.2
851.279	38.96
851.451	37.5
851.622	35.62
851.794	39.72
851.965	40.94
852.137	41.42
852.308	43.52
852.48	44.32
852.651	45.06
852.823	43.22
852.994	43.73
853.166	40.59
853.337	43.91
853.509	41.09
853.68	45.89
853.851	48.71
854.023	46.66
854.194	47.88
854.365	47.12
854.537	45.73
854.708	47.46
854.879	47.23
855.05	48.91
855.222	51.02
855.393	54.01
855.564	55.59
855.735	56.66
855.906	54.96
856.078	54.12
856.249	53.77
856.42	56.89
856.591	58.3
856.762	56.84
856.933	53.1
857.104	56.23
857.275	56.92
857.446	54.78
857.617	56.61
857.788	53.94
857.959	55.58
858.13	59.3
858.301	61.85
858.472	63.41
858.643	60.2
858.814	57.27
858.985	59.28
859.155	62.36
859.326	60.65
859.497	65.59
859.668	64.74
859.839	64.79
860.009	64.82
860.18	64.68
860.351	59.05
860.522	55.01
860.692	55.58
860.863	55.15
861.034	57.55
861.204	56.21
861.375	52.96
861.546	51.8
861.716	49.75
861.887	52.43
862.057	52.53
862.228	50.94
862.398	49.76
862.569	53.03
862.739	53.86
862.91	49.45
863.08	48.81
863.251	50.61
863.421	51.45
863.592	55.7
863.762	54.92
863.932	52.24
864.103	54.1
864.273	56.39
864.443	55.61
864.614	53.25
864.784	48.35
864.954	49.48
865.125	52.98
865.295	54.82
865.465	53.27
865.635	54.86
865.805	52.83
865.976	56.43
866.146	56.05
866.316	55.16
866.486	52.02
866.656	55
866.826	61.34
866.996	64.47
867.166	65.52
867.336	61.98
867.506	57.52
867.676	52.73
867.846	50.84
868.016	52.09
868.186	49.49
868.356	47.5
868.526	45.45
868.696	43.57
868.866	38.23
869.036	35.08
869.206	36.46
869.376	35.81
869.545	38.68
869.715	41.38
869.885	43.41
870.055	46.37
870.224	45.5
870.394	46.66
870.564	46.48
870.734	44.17
870.903	42.06
871.073	52.23
871.243	52.29
871.412	52.13
871.582	55.99
871.751	51.8
871.921	53.39
872.091	56.13
872.26	54.89
872.43	54.46
872.599	55.01
872.769	58.1
872.938	64.32
873.108	64.8
873.277	61.6
873.446	62.49
873.616	61.89
873.785	59.22
873.955	59.62
874.124	58.82
874.293	59.75
874.463	55.95
874.632	56.72
874.801	59.62
874.971	57.54
875.14	52.35
875.309	56.57
875.478	57.45
875.647	57.74
875.817	56.09
875.986	55.6
876.155	54.42
876.324	51.68
876.493	48.22
876.662	51.48
876.831	50.24
877	44.39
877.17	45.01
877.339	43.6
877.508	43.53
877.677	43.18
877.846	45.97
878.015	44.14
878.184	45.6
878.352	43.99
878.521	44.88
878.69	49.58
878.859	46.79
879.028	43.67
879.197	44.35
879.366	42.24
879.534	42.76
879.703	42.02
879.872	39.05
880.041	37.44
880.21	37.83
880.378	36.22
880.547	38.05
880.716	37.62
880.884	36.27
881.053	36.52
881.222	37.63
881.39	37.66
881.559	37.61
881.727	37.74
881.896	38.08
882.065	38.49
882.233	37.96
882.402	37.98
882.57	38.32
882.739	38.39
882.907	38.22
883.076	37.65
883.244	37.82
883.412	37.34
883.581	37.01
883.749	37.64
883.918	36.6
884.086	36.53
884.254	37.13
884.423	37.63
884.591	37.07
884.759	36.7
884.927	36.98
885.096	37.63
885.264	40.08
885.432	41.03
885.6	41.97
885.769	42.89
885.937	42.74
886.105	45.48
886.273	45.83
886.441	46.65
886.609	46.49
886.777	47.19
886.945	48.89
887.113	48.95
887.281	49.87
887.449	44.72
887.617	45.23
887.785	45.59
887.953	46.13
888.121	45.19
888.289	43.92
888.457	44
888.625	40.52
888.793	42.28
888.961	44.56
889.129	44.75
889.296	42.87
889.464	41.59
889.632	45.55
889.8	42.74
889.967	41.97
890.135	42.57
