Data from 2938490_Reflection_3.txt Node
Date: Wed Jun 17 00:46:54 EDT 2015
User: robert
Spectrometer: USB4E03002
Autoset integration time: false
Trigger mode: 4
Integration Time (sec): 1.000000E-1
Scans to average: 10
Electric dark correction enabled: true
Nonlinearity correction enabled: false
Boxcar width: 5
Stray light correction enabled: false
XAxis mode: Wavelengths
Stop averaging: false
Number of Pixels in Spectrum: 3648
>>>>>Begin Spectral Data<<<<<
177.575	49.6
177.794	318.44
178.014	-34.36
178.233	-9.6
178.452	-85.38
178.672	730.08
178.891	35.55
179.11	360.78
179.33	201.43
179.549	-10805.26
179.768	100.12
179.987	102.28
180.207	303.57
180.426	300.17
180.645	201.59
180.864	289.14
181.084	192.8
181.303	399.32
181.522	166.37
181.741	192.8
181.96	170.89
182.179	444.61
182.398	871.33
182.618	214.67
182.837	140.3
183.056	181.1
183.275	195.78
183.494	276.56
183.713	125
183.932	-19700
184.151	-990.83
184.37	117.71
184.589	70.87
184.808	86.26
185.027	124.88
185.246	250.52
185.465	-291.6
185.684	-175.87
185.903	-312.59
186.122	-408.48
186.341	818.12
186.56	459.05
186.779	343.14
186.998	430.62
187.216	216.25
187.435	373.55
187.654	163.8
187.873	93.55
188.092	84.96
188.311	67.55
188.53	84.35
188.748	99.07
188.967	89.17
189.186	87.02
189.405	35.83
189.623	43.26
189.842	56.52
190.061	86.26
190.28	140.15
190.498	59.35
190.717	61.66
190.936	54.05
191.154	61.05
191.373	104.26
191.592	1464
191.81	660.49
192.029	1411.46
192.248	-761.46
192.466	2277.74
192.685	243.26
192.904	651.98
193.122	423.53
193.341	398.7
193.559	592.66
193.778	302.09
193.996	170.98
194.215	121.55
194.433	114.29
194.652	112.78
194.87	110.78
195.089	95.09
195.307	24.84
195.526	48.14
195.744	10.24
195.963	19.22
196.181	4.32
196.399	-8.84
196.618	25.69
196.836	16.59
197.055	-41.34
197.273	7.59
197.491	30.8
197.71	59.56
197.928	97.08
198.146	96.09
198.365	70.41
198.583	61.95
198.801	63.33
199.019	55.09
199.238	69.63
199.456	110.83
199.674	468.99
199.892	353.67
200.111	3137.84
200.329	751.97
200.547	486.05
200.765	269.95
200.983	583.17
201.202	209.07
201.42	10.75
201.638	6441.3
201.856	-93.44
202.074	11.25
202.292	95.85
202.51	-9.14
202.728	-75.99
202.946	377.99
203.165	147.43
203.383	102.69
203.601	226.21
203.819	170.81
204.037	104.4
204.255	122.85
204.473	145.07
204.691	90.05
204.909	130.21
205.127	126.94
205.345	125.64
205.562	139.15
205.78	156.73
205.998	160.23
206.216	179.98
206.434	313.42
206.652	-41.65
206.87	63.26
207.088	120.78
207.306	47.33
207.523	-70.99
207.741	506.71
207.959	172.73
208.177	189.27
208.395	887.38
208.612	-327.53
208.83	6.63
209.048	37.49
209.266	179.17
209.483	-308.81
209.701	-138.67
209.919	128.85
210.136	166.91
210.354	102.63
210.572	70.77
210.79	118
211.007	188.45
211.225	174.31
211.442	7430.43
211.66	-102.27
211.878	-2177.66
212.095	-306.57
212.313	646.39
212.53	363.87
212.748	22.4
212.966	13.45
213.183	536.76
213.401	166.31
213.618	116.04
213.836	176.29
214.053	790.84
214.271	1243.82
214.488	-93.96
214.705	-192.65
214.923	-652.28
215.14	9.18
215.358	16.89
215.575	-0.84
215.793	-13.63
216.01	118.3
216.227	164.97
216.445	201.82
216.662	166.06
216.879	139.1
217.097	97.59
217.314	110.41
217.531	100.47
217.749	143.34
217.966	265
218.183	138.56
218.4	84.09
218.618	63.35
218.835	60.42
219.052	46
219.269	29.15
219.487	31.79
219.704	23.33
219.921	15.44
220.138	-4.68
220.355	-40.84
220.572	-51.79
220.79	-43.24
221.007	-67.63
221.224	-84.58
221.441	-70.58
221.658	-59.33
221.875	-107.36
222.092	-84.88
222.309	-68.05
222.526	-76.63
222.743	-53.32
222.96	-21.21
223.177	-9.73
223.394	-3.45
223.611	1.29
223.828	10.28
224.045	17.2
224.262	17.91
224.479	14.98
224.696	17.53
224.913	17.08
225.13	17.39
225.347	11.61
225.564	13
225.781	10.73
225.997	12.84
226.214	11.72
226.431	9.67
226.648	12.43
226.865	13.62
227.082	11.18
227.298	10.04
227.515	9.18
227.732	9.64
227.949	7.71
228.165	9.33
228.382	8.84
228.599	8.29
228.816	9.02
229.032	8.67
229.249	7.18
229.466	8.12
229.682	9.18
229.899	9.93
230.116	10.52
230.332	11.42
230.549	8.48
230.765	8.11
230.982	7.06
231.199	8.5
231.415	6.5
231.632	9.93
231.848	7.59
232.065	4.73
232.281	6.11
232.498	5.92
232.714	5.85
232.931	7.42
233.147	9.43
233.364	11.18
233.58	5.94
233.797	9.73
234.013	8.84
234.23	10.14
234.446	11.4
234.662	11.99
234.879	14.22
235.095	16.09
235.312	15.22
235.528	15.21
235.744	13.68
235.961	17.6
236.177	14.03
236.393	13.51
236.61	10.97
236.826	14.33
237.042	14.35
237.258	12.23
237.475	11.64
237.691	10.14
237.907	9.38
238.123	10.83
238.339	11.55
238.556	12.25
238.772	13.08
238.988	15.13
239.204	14.57
239.42	14.81
239.636	14.57
239.853	15.53
240.069	15.78
240.285	16.46
240.501	16.22
240.717	15.5
240.933	14.95
241.149	14.36
241.365	14.38
241.581	15.1
241.797	14.56
242.013	14.96
242.229	14.58
242.445	15.18
242.661	13.26
242.877	14.1
243.093	14.37
243.309	16.04
243.525	15.46
243.741	15.85
243.957	14.9
244.173	15.76
244.388	15.59
244.604	14.96
244.82	14.49
245.036	14.7
245.252	14.25
245.468	14.04
245.683	13.5
245.899	13.16
246.115	12.91
246.331	12.64
246.547	11.75
246.762	11.71
246.978	11.95
247.194	12.28
247.409	12.51
247.625	12.52
247.841	12.98
248.057	12.57
248.272	13.8
248.488	13.05
248.703	13.47
248.919	13.78
249.135	13.54
249.35	13.5
249.566	13.54
249.782	13
249.997	13.23
250.213	12.93
250.428	12.64
250.644	12.41
250.859	13.54
251.075	13.78
251.29	13.94
251.506	13.08
251.721	12.62
251.937	12.57
252.152	12.72
252.368	12.1
252.583	12.7
252.798	13.55
253.014	13.13
253.229	11.81
253.445	11.27
253.66	10.92
253.875	11.98
254.091	11.62
254.306	9.8
254.521	7.93
254.737	8.19
254.952	7.48
255.167	8.43
255.383	8.58
255.598	9.16
255.813	10.03
256.028	10.2
256.244	10.35
256.459	10.37
256.674	11.06
256.889	12.25
257.104	11.31
257.32	11.25
257.535	10.61
257.75	10.25
257.965	10.25
258.18	10.23
258.395	10.5
258.61	10.51
258.826	10.39
259.041	10.34
259.256	10.29
259.471	10.6
259.686	10.5
259.901	10.58
260.116	10.66
260.331	10.96
260.546	10.51
260.761	9.59
260.976	9.35
261.191	9.73
261.406	9.72
261.621	9.46
261.836	9.91
262.05	10.4
262.265	11.02
262.48	11.68
262.695	11
262.91	11.06
263.125	12.13
263.34	12.14
263.555	12.12
263.769	11.33
263.984	11.56
264.199	12.34
264.414	11.93
264.629	11.09
264.843	11
265.058	11.32
265.273	11.4
265.488	11.43
265.702	11.12
265.917	11.3
266.132	12
266.346	11.99
266.561	11.51
266.776	11.16
266.99	11.32
267.205	10.83
267.42	10.47
267.634	10.21
267.849	9.79
268.063	9.6
268.278	8.8
268.492	8.59
268.707	8.24
268.922	8.02
269.136	8.58
269.351	8.72
269.565	8.55
269.78	8.88
269.994	8.83
270.209	9.17
270.423	9.39
270.637	9.68
270.852	10.21
271.066	10.37
271.281	10.29
271.495	10.4
271.709	10.05
271.924	10.37
272.138	10.14
272.353	10.29
272.567	10.17
272.781	10.13
272.996	9.74
273.21	9.13
273.424	9.44
273.638	9.3
273.853	8.88
274.067	9.17
274.281	9.26
274.495	9.62
274.71	9.48
274.924	9.1
275.138	9.14
275.352	9.33
275.566	9.17
275.781	9.09
275.995	8.9
276.209	9.02
276.423	9.17
276.637	8.94
276.851	8.66
277.065	9.11
277.279	9.62
277.493	9.66
277.707	9.9
277.921	10.49
278.135	10.49
278.349	10.88
278.563	10.86
278.777	10.97
278.991	11.79
279.205	11.43
279.419	11.29
279.633	11.05
279.847	11.18
280.061	11.28
280.275	10.99
280.489	10.96
280.703	10.91
280.917	10.81
281.131	10.6
281.344	9.71
281.558	10.19
281.772	9.8
281.986	9.67
282.2	9.72
282.414	9.3
282.627	8.97
282.841	8.96
283.055	8.9
283.269	9.02
283.482	8.66
283.696	8.8
283.91	8.83
284.123	9.15
284.337	9.05
284.551	8.98
284.764	9.22
284.978	9.52
285.192	9.4
285.405	9.23
285.619	9.1
285.833	9.41
286.046	10.04
286.26	9.9
286.473	9.77
286.687	9.97
286.9	9.84
287.114	10.18
287.327	9.96
287.541	9.71
287.754	10.28
287.968	10.22
288.181	10.37
288.395	9.77
288.608	9.46
288.822	9.93
289.035	10.14
289.248	9.94
289.462	9.65
289.675	9.48
289.889	9.71
290.102	9.44
290.315	9.08
290.529	8.73
290.742	9.2
290.955	9.93
291.169	9.3
291.382	9.37
291.595	10.01
291.808	10.12
292.022	9.72
292.235	9.91
292.448	9.39
292.661	9.74
292.875	10.15
293.088	10.45
293.301	10.36
293.514	10.9
293.727	10.93
293.94	11.29
294.153	11.04
294.367	11.72
294.58	11.87
294.793	12.58
295.006	12.32
295.219	12.29
295.432	12
295.645	12.12
295.858	11.96
296.071	11.76
296.284	11.22
296.497	11.38
296.71	11.2
296.923	11.09
297.136	10.57
297.349	11.15
297.562	10.85
297.775	10.82
297.988	10.51
298.201	10.79
298.414	10.69
298.626	10.73
298.839	11.12
299.052	11.25
299.265	11.34
299.478	11.35
299.691	11.23
299.903	11.12
300.116	10.49
300.329	11.08
300.542	10.49
300.755	10.71
300.967	10.64
301.18	10.23
301.393	10.59
301.605	10.33
301.818	10.54
302.031	10.01
302.243	10.47
302.456	10.6
302.669	10.25
302.881	10.68
303.094	10.94
303.307	10.89
303.519	10.45
303.732	10.44
303.944	10.85
304.157	10.77
304.37	11.48
304.582	11.41
304.795	11.62
305.007	11.53
305.22	11.29
305.432	10.45
305.645	10.67
305.857	11.23
306.069	10.4
306.282	9.64
306.494	10.14
306.707	9.78
306.919	10.05
307.132	10.06
307.344	10.08
307.556	10.16
307.769	10.38
307.981	10.96
308.193	10.97
308.406	11.12
308.618	11.41
308.83	11.55
309.043	11.87
309.255	11.63
309.467	11.78
309.679	11.61
309.892	11.4
310.104	11.78
310.316	11.43
310.528	11.27
310.74	11.63
310.953	11.52
311.165	10.94
311.377	10.86
311.589	10.92
311.801	10.78
312.013	10.91
312.225	11.23
312.437	10.94
312.649	10.99
312.862	11.12
313.074	10.87
313.286	11
313.498	11.16
313.71	11
313.922	11.1
314.134	11.07
314.346	11.08
314.558	10.77
314.77	11.03
314.982	11.15
315.193	11.29
315.405	11.49
315.617	11.09
315.829	10.46
316.041	10.09
316.253	10.02
316.465	10.29
316.677	10.12
316.888	9.84
317.1	9.79
317.312	9.74
317.524	9.87
317.736	10.1
317.947	10.53
318.159	11.14
318.371	11.36
318.583	11.33
318.794	11.21
319.006	11.04
319.218	11.67
319.43	11.51
319.641	11.44
319.853	11.52
320.064	11.33
320.276	11.51
320.488	11.51
320.699	12
320.911	12.21
321.123	12.37
321.334	12.38
321.546	12.57
321.757	12.53
321.969	12.03
322.18	11.67
322.392	11.44
322.603	11.1
322.815	11.22
323.026	10.94
323.238	10.24
323.449	10.24
323.661	10.2
323.872	10.46
324.083	10.83
324.295	11.09
324.506	11.19
324.718	11.52
324.929	11.68
325.14	11.56
325.352	11.53
325.563	12.02
325.774	12.22
325.986	12.76
326.197	12.31
326.408	11.66
326.62	11.97
326.831	11.86
327.042	11.7
327.253	11.03
327.464	11.33
327.676	11.17
327.887	10.95
328.098	10.28
328.309	10.35
328.52	9.79
328.732	10.5
328.943	10.07
329.154	10.11
329.365	9.98
329.576	9.92
329.787	9.56
329.998	9.69
330.209	9.78
330.42	10.3
330.631	9.61
330.842	10.01
331.053	9.66
331.264	10.2
331.475	10.4
331.686	11.11
331.897	11.99
332.108	11.74
332.319	11.61
332.53	11.43
332.741	11.21
332.952	11.03
333.163	10.9
333.374	10.79
333.585	10.21
333.795	10.04
334.006	9.5
334.217	9.06
334.428	9.17
334.639	9.6
334.849	9.9
335.06	9.97
335.271	10.36
335.482	10.53
335.692	10.47
335.903	10.41
336.114	10.38
336.325	10.3
336.535	10.53
336.746	10.94
336.957	11.03
337.167	10.95
337.378	10.95
337.589	11.16
337.799	10.68
338.01	10.92
338.22	11.27
338.431	10.77
338.642	10.94
338.852	10.92
339.063	10.62
339.273	10.01
339.484	9.98
339.694	10.13
339.905	9.93
340.115	10.38
340.326	9.94
340.536	10.08
340.746	10.19
340.957	9.87
341.167	9.77
341.378	9.73
341.588	9.82
341.799	9.88
342.009	10.05
342.219	10.15
342.43	9.94
342.64	10.09
342.85	10.07
343.061	10.68
343.271	10.79
343.481	10.74
343.691	10.53
343.902	10.28
344.112	10.2
344.322	9.72
344.532	9.51
344.743	9.6
344.953	9.72
345.163	9.15
345.373	9.07
345.583	9.24
345.793	9.03
346.004	9.51
346.214	9.76
346.424	9.81
346.634	10.34
346.844	10.34
347.054	10.39
347.264	9.99
347.474	10.28
347.684	9.82
347.894	9.64
348.104	9.8
348.314	9.56
348.524	9.44
348.734	9.58
348.944	8.93
349.154	9.05
349.364	9.41
349.574	9.63
349.784	9.71
349.994	9.67
350.204	9.89
350.413	10.23
350.623	10.15
350.833	10.52
351.043	10.24
351.253	10.24
351.463	10.19
351.672	9.54
351.882	10.09
352.092	9.67
352.302	10.12
352.511	9.72
352.721	9.62
352.931	9.82
353.141	9.28
353.35	9.34
353.56	9.34
353.77	9.32
353.979	9.44
354.189	8.74
354.399	9.06
354.608	8.64
354.818	8.55
355.027	8.47
355.237	8.25
355.447	8.68
355.656	8.25
355.866	8.35
356.075	8.4
356.285	8.32
356.494	8.44
356.704	8.21
356.913	8.35
357.123	8.12
357.332	8.18
357.542	8
357.751	7.85
357.96	8.33
358.17	8.63
358.379	8.39
358.589	8.5
358.798	8.44
359.007	8.53
359.217	8.51
359.426	9.01
359.635	9
359.845	8.96
360.054	8.89
360.263	8.73
360.472	8.44
360.682	8.51
360.891	8.61
361.1	8.68
361.309	8.62
361.519	8.48
361.728	8.17
361.937	8.06
362.146	8.1
362.355	7.95
362.564	8.07
362.774	7.99
362.983	7.85
363.192	7.72
363.401	7.74
363.61	7.79
363.819	7.99
364.028	8.1
364.237	8.01
364.446	7.89
364.655	7.81
364.864	7.75
365.073	7.96
365.282	8.07
365.491	8.17
365.7	8.36
365.909	8.15
366.118	7.98
366.327	7.95
366.536	7.86
366.745	8.02
366.954	8.32
367.162	8.11
367.371	7.9
367.58	7.75
367.789	7.55
367.998	7.43
368.207	7.5
368.415	7.57
368.624	7.51
368.833	7.74
369.042	7.8
369.25	7.59
369.459	7.77
369.668	7.7
369.877	7.92
370.085	7.92
370.294	7.75
370.503	7.92
370.711	7.71
370.92	7.84
371.129	7.56
371.337	7.4
371.546	7.34
371.754	7.16
371.963	7.21
372.171	6.98
372.38	6.94
372.589	6.86
372.797	6.77
373.006	6.95
373.214	6.76
373.423	6.87
373.631	7.05
373.84	7.13
374.048	7.46
374.256	7.25
374.465	7.32
374.673	7.2
374.882	7.18
375.09	6.91
375.298	6.92
375.507	6.81
375.715	7.05
375.923	6.88
376.132	6.96
376.34	6.74
376.548	6.96
376.757	6.88
376.965	6.82
377.173	6.92
377.381	7.18
377.59	7.15
377.798	7.33
378.006	6.92
378.214	7.05
378.423	6.81
378.631	6.73
378.839	6.74
379.047	6.94
379.255	6.91
379.463	6.77
379.671	6.61
379.879	6.19
380.088	6.05
380.296	6.26
380.504	5.92
380.712	5.87
380.92	5.92
381.128	6.09
381.336	5.86
381.544	5.8
381.752	5.74
381.96	5.82
382.168	6.25
382.376	6.31
382.584	6.21
382.791	6.51
382.999	6.43
383.207	6.26
383.415	5.98
383.623	5.93
383.831	5.73
384.039	5.83
384.247	5.92
384.454	5.78
384.662	5.84
384.87	5.82
385.078	5.74
385.285	5.93
385.493	6
385.701	5.97
385.909	6.17
386.116	6.41
386.324	6.51
386.532	6.4
386.739	6.6
386.947	6.76
387.155	6.71
387.362	6.75
387.57	6.53
387.778	6.58
387.985	6.68
388.193	6.59
388.4	6.42
388.608	6.01
388.816	5.94
389.023	5.75
389.231	5.59
389.438	5.56
389.646	5.39
389.853	5.54
390.061	5.53
390.268	5.43
390.475	5.26
390.683	5.59
390.89	5.82
391.098	5.84
391.305	5.78
391.512	5.57
391.72	5.61
391.927	5.72
392.135	5.93
392.342	5.83
392.549	5.97
392.756	6.19
392.964	6.07
393.171	6.06
393.378	5.9
393.586	5.92
393.793	5.94
394	5.96
394.207	5.93
394.414	5.73
394.622	5.77
394.829	5.75
395.036	5.48
395.243	5.49
395.45	5.45
395.657	5.62
395.864	5.56
396.072	5.51
396.279	5.44
396.486	5.42
396.693	5.39
396.9	5.43
397.107	5.33
397.314	5.37
397.521	5.58
397.728	5.5
397.935	5.65
398.142	5.87
398.349	6.09
398.556	6.08
398.763	6.14
398.97	6.15
399.177	6.19
399.383	6.25
399.59	6.28
399.797	6.19
400.004	6.19
400.211	6.07
400.418	5.94
400.625	6.13
400.831	5.99
401.038	5.83
401.245	5.87
401.452	5.89
401.658	5.8
401.865	5.91
402.072	5.76
402.279	5.78
402.485	5.77
402.692	5.64
402.899	5.37
403.105	5.38
403.312	5.37
403.519	5.41
403.725	5.21
403.932	5.19
404.138	5.29
404.345	5.28
404.552	5.29
404.758	5.16
404.965	5.32
405.171	5.26
405.378	5.37
405.584	5.41
405.791	5.26
405.997	5.35
406.204	5.49
406.41	5.39
406.617	5.4
406.823	5.42
407.029	5.56
407.236	5.45
407.442	5.59
407.649	5.4
407.855	5.37
408.061	5.47
408.268	5.4
408.474	5.37
408.68	5.21
408.887	5.23
409.093	5.21
409.299	5.15
409.505	5.01
409.712	5.08
409.918	5.23
410.124	5.23
410.33	4.97
410.537	4.99
410.743	4.91
410.949	5.1
411.155	5.03
411.361	4.85
411.567	4.75
411.773	4.96
411.98	4.85
412.186	4.85
412.392	4.95
412.598	5.24
412.804	5.23
413.01	5.21
413.216	5.07
413.422	5.25
413.628	5.31
413.834	5.37
414.04	5.28
414.246	5.24
414.452	5.37
414.658	5.32
414.864	5.1
415.07	5.02
415.275	4.89
415.481	4.84
415.687	4.77
415.893	4.9
416.099	4.9
416.305	4.94
416.511	5.02
416.716	4.86
416.922	4.81
417.128	4.97
417.334	5.05
417.539	5.14
417.745	5.1
417.951	5.07
418.157	5.03
418.362	5.03
418.568	5
418.774	4.92
418.979	5
419.185	4.98
419.391	4.91
419.596	4.89
419.802	4.82
420.008	4.85
420.213	4.2
420.419	4.17
420.624	4.15
420.83	4.17
421.035	4.19
421.241	4.2
421.446	4.24
421.652	4.28
421.857	4.3
422.063	4.36
422.268	4.37
422.474	5.04
422.679	5.03
422.885	5
423.09	4.97
423.295	4.92
423.501	4.87
423.706	4.89
423.911	4.94
424.117	4.88
424.322	4.86
424.527	4.79
424.733	4.73
424.938	4.68
425.143	4.67
425.349	4.65
425.554	4.61
425.759	4.57
425.964	4.54
426.169	4.4
426.375	4.49
426.58	4.48
426.785	4.57
426.99	4.68
427.195	4.73
427.4	4.67
427.605	4.7
427.811	4.7
428.016	4.74
428.221	4.74
428.426	4.63
428.631	4.49
428.836	4.55
429.041	4.47
429.246	4.51
429.451	4.48
429.656	4.46
429.861	4.39
430.066	4.44
430.271	4.47
430.476	4.46
430.681	4.52
430.886	4.52
431.09	4.4
431.295	4.43
431.5	4.44
431.705	4.43
431.91	4.67
432.115	4.67
432.32	4.67
432.524	4.7
432.729	4.67
432.934	4.57
433.139	4.63
433.343	4.75
433.548	4.67
433.753	4.48
433.958	4.54
434.162	4.29
434.367	4.2
434.572	4.19
434.776	4.08
434.981	4.11
435.186	4.18
435.39	4.21
435.595	4.27
435.799	4.4
436.004	4.57
436.209	4.6
436.413	4.65
436.618	4.72
436.822	4.78
437.027	4.82
437.231	4.68
437.436	4.67
437.64	4.58
437.845	4.52
438.049	4.47
438.253	4.37
438.458	4.4
438.662	4.43
438.867	4.47
439.071	4.42
439.275	4.39
439.48	4.49
439.684	4.6
439.888	4.59
440.093	4.59
440.297	4.68
440.501	4.7
440.706	4.64
440.91	4.61
441.114	4.59
441.318	4.57
441.523	4.64
441.727	4.72
441.931	4.7
442.135	4.7
442.339	4.67
442.543	4.57
442.748	4.53
442.952	4.53
443.156	4.53
443.36	4.57
443.564	4.65
443.768	4.58
443.972	4.55
444.176	4.59
444.38	4.61
444.584	4.63
444.788	4.73
444.992	4.75
445.196	4.75
445.4	4.84
445.604	4.84
445.808	4.74
446.012	4.76
446.216	4.72
446.42	4.66
446.624	4.71
446.828	4.78
447.032	4.68
447.235	4.58
447.439	4.61
447.643	4.48
447.847	4.53
448.051	4.56
448.254	4.6
448.458	4.62
448.662	4.55
448.866	4.43
449.069	4.35
449.273	4.31
449.477	4.46
449.681	4.36
449.884	4.56
450.088	4.37
450.292	4.44
450.495	4.43
450.699	4.37
450.902	4.38
451.106	4.38
451.31	4.23
451.513	4.28
451.717	4.24
451.92	4.2
452.124	4.08
452.327	4.16
452.531	4.12
452.734	4.12
452.938	4.13
453.141	4.16
453.345	4.14
453.548	4.21
453.752	4.19
453.955	4.1
454.158	4.2
454.362	4.14
454.565	4.08
454.769	4.08
454.972	4.15
455.175	4.16
455.379	4.22
455.582	4.21
455.785	4.18
455.988	4.13
456.192	4.17
456.395	4.14
456.598	4.15
456.801	4.13
457.005	4.12
457.208	3.99
457.411	4.02
457.614	3.98
457.817	4
458.021	4.12
458.224	4.2
458.427	4.28
458.63	4.23
458.833	4.26
459.036	4.26
459.239	4.27
459.442	4.26
459.645	4.23
459.848	4.21
460.051	4.18
460.254	4.12
460.457	4.04
460.66	3.98
460.863	4.03
461.066	4.01
461.269	4.08
461.472	4.12
461.675	4.1
461.878	4.15
462.081	4.16
462.284	4.22
462.486	4.13
462.689	4.15
462.892	4.2
463.095	4.13
463.298	4.17
463.5	4.05
463.703	4.01
463.906	4.06
464.109	4.01
464.311	3.96
464.514	3.99
464.717	3.99
464.92	4.04
465.122	3.96
465.325	4.1
465.528	4.11
465.73	4.1
465.933	4.09
466.135	4.08
466.338	4.13
466.541	4.22
466.743	4.28
466.946	4.34
467.148	4.26
467.351	4.28
467.553	4.19
467.756	4.16
467.958	4.25
468.161	4.23
468.363	4.16
468.566	4.13
468.768	4.05
468.971	4
469.173	3.97
469.375	3.96
469.578	3.96
469.78	4
469.983	3.97
470.185	3.92
470.387	3.99
470.59	4.12
470.792	4.12
470.994	4.2
471.196	4.15
471.399	4.13
471.601	4.17
471.803	4.15
472.005	4.11
472.208	4.12
472.41	4.2
472.612	4.11
472.814	4.08
473.016	4.09
473.218	3.97
473.421	3.97
473.623	3.96
473.825	3.97
474.027	4.03
474.229	4.08
474.431	4.07
474.633	4.1
474.835	4.12
475.037	4.03
475.239	4.06
475.441	4.22
475.643	4.21
475.845	4.29
476.047	4.25
476.249	4.17
476.451	4.09
476.653	4.01
476.855	3.94
477.057	4.05
477.258	4.16
477.46	4.18
477.662	4.11
477.864	4.13
478.066	4.09
478.268	4.1
478.469	4.18
478.671	4.2
478.873	4.28
479.075	4.3
479.276	4.24
479.478	4.23
479.68	4.21
479.882	4.21
480.083	4.23
480.285	4.21
480.487	4.27
480.688	4.22
480.89	4.29
481.091	4.31
481.293	4.31
481.495	4.34
481.696	4.32
481.898	4.27
482.099	4.25
482.301	4.24
482.502	4.24
482.704	4.24
482.905	4.22
483.107	4.19
483.308	4.2
483.51	4.19
483.711	4.15
483.913	4.16
484.114	4.21
484.315	4.25
484.517	4.27
484.718	4.29
484.92	4.28
485.121	4.32
485.322	4.38
485.524	4.38
485.725	4.38
485.926	4.39
486.127	4.37
486.329	4.33
486.53	4.29
486.731	4.29
486.932	4.29
487.134	4.3
487.335	4.28
487.536	4.24
487.737	4.21
487.938	4.21
488.139	4.19
488.341	4.17
488.542	4.19
488.743	4.23
488.944	4.19
489.145	4.23
489.346	4.22
489.547	4.2
489.748	4.19
489.949	4.19
490.15	4.2
490.351	4.22
490.552	4.25
490.753	4.26
490.954	4.26
491.155	4.27
491.356	4.23
491.557	4.22
491.758	4.26
491.959	4.27
492.159	4.29
492.36	4.3
492.561	4.3
492.762	4.28
492.963	4.2
493.164	4.15
493.364	4.14
493.565	4.15
493.766	4.14
493.967	4.03
494.167	4.08
494.368	3.99
494.569	4.07
494.769	4.05
494.97	4.09
495.171	4.16
495.371	4.2
495.572	4.2
495.773	4.15
495.973	4.14
496.174	4.22
496.375	4.21
496.575	4.22
496.776	4.12
496.976	4.14
497.177	4.09
497.377	4.06
497.578	4.08
497.778	4.07
497.979	4.09
498.179	4.16
498.38	4.23
498.58	4.23
498.78	4.32
498.981	4.34
499.181	4.31
499.382	4.37
499.582	4.36
499.782	4.4
499.983	4.48
500.183	4.48
500.383	4.4
500.584	4.33
500.784	4.31
500.984	4.27
501.184	4.3
501.385	4.35
501.585	4.32
501.785	4.36
501.985	4.25
502.185	4.2
502.386	4.25
502.586	4.22
502.786	4.19
502.986	4.27
503.186	4.28
503.386	4.31
503.586	4.36
503.786	4.32
503.987	4.45
504.187	4.48
504.387	4.52
504.587	4.58
504.787	4.65
504.987	4.69
505.187	4.65
505.387	4.6
505.587	4.56
505.786	4.59
505.986	4.64
506.186	4.55
506.386	4.58
506.586	4.57
506.786	4.52
506.986	4.56
507.186	4.57
507.386	4.45
507.585	4.53
507.785	4.52
507.985	4.44
508.185	4.47
508.384	4.52
508.584	4.54
508.784	4.49
508.984	4.52
509.183	4.53
509.383	4.58
509.583	4.68
509.782	4.73
509.982	4.72
510.182	4.8
510.381	4.77
510.581	4.77
510.781	4.82
510.98	4.87
511.18	4.84
511.379	4.88
511.579	4.89
511.778	4.9
511.978	4.9
512.177	4.9
512.377	4.88
512.576	4.95
512.776	4.94
512.975	4.86
513.175	4.96
513.374	4.99
513.573	4.97
513.773	5
513.972	5.05
514.172	5.06
514.371	5.19
514.57	5.25
514.77	5.21
514.969	5.2
515.168	5.21
515.367	5.21
515.567	5.24
515.766	5.24
515.965	5.25
516.164	5.26
516.364	5.23
516.563	5.18
516.762	5.14
516.961	5.14
517.16	5.17
517.359	5.23
517.559	5.2
517.758	5.23
517.957	5.25
518.156	5.21
518.355	5.19
518.554	5.25
518.753	5.2
518.952	5.26
519.151	5.31
519.35	5.3
519.549	5.36
519.748	5.41
519.947	5.49
520.146	5.53
520.345	5.64
520.544	5.67
520.743	5.67
520.942	5.77
521.141	5.79
521.339	5.76
521.538	5.86
521.737	5.86
521.936	5.89
522.135	5.8
522.333	5.84
522.532	5.78
522.731	5.77
522.93	5.72
523.129	5.72
523.327	5.67
523.526	5.69
523.725	5.7
523.923	5.65
524.122	5.64
524.321	5.66
524.519	5.64
524.718	5.66
524.917	5.71
525.115	5.71
525.314	5.74
525.512	5.77
525.711	5.83
525.909	5.8
526.108	5.84
526.306	5.79
526.505	5.8
526.703	5.79
526.902	5.82
527.1	5.83
527.299	5.89
527.497	5.9
527.696	5.92
527.894	5.89
528.092	5.94
528.291	5.95
528.489	6
528.688	6.03
528.886	6.05
529.084	6.08
529.283	6.11
529.481	6.12
529.679	6.12
529.877	6.13
530.076	6.19
530.274	6.17
530.472	6.24
530.67	6.28
530.869	6.28
531.067	6.28
531.265	6.31
531.463	6.34
531.661	6.34
531.859	6.35
532.057	6.38
532.255	6.4
532.454	6.41
532.652	6.39
532.85	6.39
533.048	6.41
533.246	6.46
533.444	6.48
533.642	6.48
533.84	6.5
534.038	6.51
534.236	6.5
534.434	6.5
534.632	6.52
534.83	6.54
535.027	6.47
535.225	6.49
535.423	6.52
535.621	6.51
535.819	6.54
536.017	6.63
536.215	6.66
536.412	6.69
536.61	6.73
536.808	6.75
537.006	6.71
537.203	6.85
537.401	6.88
537.599	6.89
537.797	6.86
537.994	6.84
538.192	6.77
538.39	6.82
538.587	6.83
538.785	6.86
538.983	6.89
539.18	6.93
539.378	6.92
539.575	6.93
539.773	6.96
539.97	6.94
540.168	7.03
540.366	7.1
540.563	7.16
540.761	7.19
540.958	7.21
541.155	7.27
541.353	7.33
541.55	7.39
541.748	7.4
541.945	7.42
542.143	7.55
542.34	7.63
542.537	7.66
542.735	7.63
542.932	7.67
543.129	7.67
543.327	7.72
543.524	7.66
543.721	7.59
543.919	7.7
544.116	7.72
544.313	7.7
544.51	7.65
544.708	7.65
544.905	7.63
545.102	7.72
545.299	7.77
545.496	7.63
545.693	7.75
545.891	7.87
546.088	7.8
546.285	7.89
546.482	7.87
546.679	7.98
546.876	8.02
547.073	8.11
547.27	8.05
547.467	8.03
547.664	8.21
547.861	8.19
548.058	8.16
548.255	8.32
548.452	8.25
548.649	8.26
548.846	8.17
549.043	8.16
549.24	8.18
549.437	8.19
549.633	8.24
549.83	8.27
550.027	8.32
550.224	8.42
550.421	8.36
550.618	8.49
550.814	8.61
551.011	8.56
551.208	8.53
551.405	8.47
551.601	8.51
551.798	8.48
551.995	8.49
552.191	8.53
552.388	8.44
552.585	8.56
552.781	8.62
552.978	8.68
553.175	8.81
553.371	8.97
553.568	9.11
553.764	9.22
553.961	9.38
554.157	9.47
554.354	9.48
554.55	9.68
554.747	9.68
554.943	9.61
555.14	9.73
555.336	9.81
555.533	9.86
555.729	9.91
555.926	9.9
556.122	9.94
556.318	9.93
556.515	10.03
556.711	9.97
556.907	9.95
557.104	10
557.3	9.92
557.496	9.77
557.693	9.82
557.889	9.89
558.085	10.03
558.281	9.98
558.478	10.02
558.674	10.1
558.87	10.2
559.066	10.28
559.262	10.38
559.459	10.39
559.655	10.53
559.851	10.53
560.047	10.59
560.243	10.5
560.439	10.57
560.635	10.67
560.831	10.62
561.027	10.66
561.223	10.78
561.419	10.81
561.615	10.82
561.811	10.85
562.007	10.84
562.203	10.74
562.399	10.81
562.595	10.95
562.791	10.86
562.987	11.01
563.183	11
563.379	11.01
563.575	11.1
563.771	11.28
563.966	11.29
564.162	11.33
564.358	11.42
564.554	11.38
564.75	11.27
564.945	11.38
565.141	11.33
565.337	11.49
565.533	11.48
565.728	11.5
565.924	11.56
566.12	11.7
566.315	11.72
566.511	11.68
566.707	11.82
566.902	11.96
567.098	12.04
567.293	12.03
567.489	11.98
567.684	12.04
567.88	12.02
568.076	11.93
568.271	11.92
568.467	12.03
568.662	12.17
568.858	12.32
569.053	12.25
569.248	12.2
569.444	12.32
569.639	12.35
569.835	12.4
570.03	12.53
570.225	12.68
570.421	12.66
570.616	12.71
570.812	12.76
571.007	12.69
571.202	12.86
571.397	13
571.593	13.03
571.788	13.18
571.983	13.28
572.178	13.27
572.374	13.22
572.569	13.28
572.764	13.32
572.959	13.29
573.154	13.4
573.35	13.42
573.545	13.5
573.74	13.61
573.935	13.57
574.13	13.56
574.325	13.63
574.52	13.67
574.715	13.66
574.91	13.76
575.105	13.77
575.3	13.83
575.495	13.89
575.69	13.91
575.885	13.83
576.08	13.92
576.275	13.92
576.47	13.94
576.665	14.01
576.86	14.19
577.055	14.12
577.25	14.27
577.444	14.09
577.639	14.07
577.834	14.03
578.029	14.09
578.224	14.06
578.418	14.16
578.613	14.08
578.808	14.11
579.003	14.06
579.197	14.04
579.392	13.98
579.587	14.16
579.781	14.22
579.976	14.27
580.171	14.43
580.365	14.53
580.56	14.58
580.755	14.76
580.949	14.72
581.144	14.69
581.338	14.93
581.533	15.05
581.727	15.27
581.922	15.28
582.116	15.25
582.311	15.18
582.505	15.07
582.7	15.06
582.894	15.09
583.089	15.22
583.283	15.28
583.478	15.26
583.672	15.37
583.866	15.22
584.061	15.19
584.255	15.21
584.449	15.24
584.644	15.33
584.838	15.43
585.032	15.48
585.226	15.51
585.421	15.55
585.615	15.58
585.809	15.49
586.003	15.35
586.198	15.54
586.392	15.87
586.586	15.97
586.78	16.04
586.974	16.17
587.168	16.21
587.363	16.16
587.557	16.23
587.751	16.27
587.945	16.31
588.139	16.6
588.333	16.52
588.527	16.51
588.721	16.48
588.915	16.56
589.109	16.57
589.303	16.53
589.497	16.62
589.691	16.68
589.885	16.67
590.079	16.67
590.273	16.57
590.466	16.72
590.66	16.54
590.854	16.64
591.048	16.64
591.242	16.51
591.436	16.56
591.629	16.68
591.823	16.69
592.017	16.74
592.211	16.9
592.404	17.04
592.598	16.95
592.792	17.01
592.986	16.91
593.179	16.91
593.373	16.98
593.567	17.14
593.76	17.09
593.954	17.23
594.147	17.21
594.341	17.18
594.535	17.22
594.728	17.27
594.922	17.34
595.115	17.51
595.309	17.53
595.502	17.58
595.696	17.39
595.889	17.41
596.083	17.31
596.276	17.38
596.47	17.47
596.663	17.5
596.856	17.58
597.05	17.67
597.243	17.59
597.437	17.62
597.63	17.61
597.823	17.82
598.017	17.86
598.21	18.02
598.403	18.03
598.596	17.91
598.79	17.93
598.983	17.89
599.176	17.81
599.369	17.93
599.563	18.07
599.756	18.18
599.949	18.16
600.142	18.12
600.335	18.06
600.528	18.08
600.722	18.23
600.915	18.06
601.108	18.2
601.301	18.4
601.494	18.27
601.687	18.11
601.88	18.06
602.073	18
602.266	18.06
602.459	18.07
602.652	18.1
602.845	18.09
603.038	18.22
603.231	18.16
603.424	18.09
603.617	18.23
603.809	18.42
604.002	18.38
604.195	18.52
604.388	18.52
604.581	18.55
604.774	18.74
604.966	18.78
605.159	18.87
605.352	18.93
605.545	19.02
605.737	18.96
605.93	18.94
606.123	19.14
606.316	19.22
606.508	19.34
606.701	19.44
606.894	19.35
607.086	19.33
607.279	19.36
607.471	19.38
607.664	19.41
607.857	19.53
608.049	19.6
608.242	19.48
608.434	19.4
608.627	19.28
608.819	19.23
609.012	19.23
609.204	19.44
609.397	19.41
609.589	19.4
609.782	19.26
609.974	19.35
610.166	19.25
610.359	19.34
610.551	19.35
610.743	19.43
610.936	19.56
611.128	19.55
611.32	19.44
611.513	19.5
611.705	19.5
611.897	19.57
612.09	19.59
612.282	19.78
612.474	19.54
612.666	19.53
612.858	19.73
613.051	19.65
613.243	19.62
613.435	19.68
613.627	19.63
613.819	19.84
614.011	20.02
614.203	19.82
614.395	19.83
614.588	20.01
614.78	20.02
614.972	19.85
615.164	19.76
615.356	19.72
615.548	19.69
615.74	19.57
615.932	19.43
616.124	19.32
616.315	19.53
616.507	19.4
616.699	19.55
616.891	19.66
617.083	19.63
617.275	19.78
617.467	19.88
617.659	19.89
617.85	20.1
618.042	20.06
618.234	20.05
618.426	20
618.618	20.13
618.809	20.07
619.001	20.09
619.193	20.19
619.384	20.17
619.576	20.26
619.768	20.23
619.959	20.18
620.151	20.21
620.343	20.43
620.534	20.29
620.726	20.19
620.917	20.28
621.109	20.3
621.301	20.32
621.492	20.41
621.684	20.48
621.875	20.6
622.067	20.65
622.258	20.72
622.45	20.54
622.641	20.7
622.832	20.76
623.024	20.71
623.215	20.76
623.407	20.88
623.598	20.96
623.789	20.97
623.981	21.02
624.172	21.18
624.363	21.33
624.555	21.4
624.746	21.4
624.937	21.25
625.129	21.32
625.32	21.25
625.511	21.17
625.702	21.07
625.893	21.04
626.085	20.99
626.276	21.05
626.467	21.04
626.658	20.95
626.849	21.02
627.04	21.13
627.231	21.16
627.422	21.36
627.614	21.49
627.805	21.53
627.996	21.66
628.187	21.79
628.378	21.65
628.569	21.68
628.76	21.86
628.951	21.89
629.142	21.93
629.332	22
629.523	21.9
629.714	21.91
629.905	21.99
630.096	21.84
630.287	21.67
630.478	21.81
630.669	21.73
630.859	21.85
631.05	21.87
631.241	21.87
631.432	21.82
631.623	21.98
631.813	21.95
632.004	22.06
632.195	22.17
632.385	22.18
632.576	22.13
632.767	22.19
632.957	22
633.148	21.93
633.339	22.03
633.529	22.16
633.72	22.03
633.91	22.18
634.101	22.06
634.292	21.99
634.482	22.27
634.673	22.21
634.863	22.25
635.054	22.3
635.244	22.35
635.435	22.39
635.625	22.32
635.815	22.32
636.006	22.09
636.196	22.21
636.387	22.35
636.577	22.3
636.767	22.38
636.958	22.51
637.148	22.61
637.338	22.46
637.529	22.43
637.719	22.47
637.909	22.59
638.099	22.71
638.29	22.59
638.48	22.63
638.67	22.49
638.86	22.74
639.05	22.43
639.241	22.46
639.431	22.59
639.621	22.69
639.811	22.75
640.001	22.72
640.191	22.78
640.381	23.05
640.571	23.01
640.761	23.01
640.951	22.71
641.141	22.88
641.331	23.02
641.521	22.95
641.711	22.8
641.901	22.83
642.091	22.93
642.281	22.86
642.471	22.46
642.661	22.59
642.851	22.71
643.041	22.83
643.231	22.86
643.42	22.78
643.61	22.99
643.8	23.09
643.99	23.06
644.18	22.95
644.369	23.02
644.559	23.34
644.749	23.23
644.939	23.13
645.128	23.23
645.318	23.28
645.508	23.32
645.697	23.27
645.887	23.28
646.076	23.22
646.266	23.11
646.456	23.06
646.645	23
646.835	23.04
647.024	23.31
647.214	23.27
647.403	23.48
647.593	23.46
647.782	23.71
647.972	23.68
648.161	23.74
648.351	23.76
648.54	23.7
648.73	23.66
648.919	23.68
649.108	23.68
649.298	23.49
649.487	23.2
649.677	23.21
649.866	23.04
650.055	23.46
650.244	23.5
650.434	24.01
650.623	24.25
650.812	24.39
651.002	24.43
651.191	24.49
651.38	24.67
651.569	24.99
651.758	24.9
651.947	24.95
652.137	24.75
652.326	24.78
652.515	24.71
652.704	24.76
652.893	24.93
653.082	25.08
653.271	24.91
653.46	25.19
653.649	25.15
653.838	25.49
654.027	25.92
654.216	25.77
654.405	25.79
654.594	25.55
654.783	25.63
654.972	25.7
655.161	25.64
655.35	25.7
655.539	25.55
655.728	25.43
655.916	25.4
656.105	25.21
656.294	25.3
656.483	25.45
656.672	25.51
656.86	25.32
657.049	25.23
657.238	25.19
657.427	25.43
657.615	25.47
657.804	25.41
657.993	25.39
658.181	25.45
658.37	25.58
658.559	25.61
658.747	25.84
658.936	25.94
659.125	26.13
659.313	26.15
659.502	26.08
659.69	25.93
659.879	26.11
660.067	26.25
660.256	26.11
660.444	25.97
660.633	25.96
660.821	25.52
661.01	25.35
661.198	25.15
661.387	25.24
661.575	25.16
661.763	25.35
661.952	25.4
662.14	25.18
662.328	25.32
662.517	25.33
662.705	25.25
662.893	25.52
663.082	25.95
663.27	25.82
663.458	25.84
663.646	25.71
663.834	25.9
664.023	25.87
664.211	25.91
664.399	25.92
664.587	26.19
664.775	26.25
664.963	26.55
665.152	26.45
665.34	26.68
665.528	26.64
665.716	26.61
665.904	26.19
666.092	26.08
666.28	26.05
666.468	25.98
666.656	25.74
666.844	25.81
667.032	25.5
667.22	25.55
667.408	25.36
667.596	25.26
667.784	25.35
667.971	25.45
668.159	25.59
668.347	25.7
668.535	25.73
668.723	25.78
668.911	25.72
669.098	25.74
669.286	25.66
669.474	25.73
669.662	26.09
669.849	26.29
670.037	26.42
670.225	26.6
670.413	26.61
670.6	26.76
670.788	26.84
670.976	26.96
671.163	26.86
671.351	27.11
671.538	27.13
671.726	26.97
671.913	26.97
672.101	27.3
672.289	27.42
672.476	27.39
672.664	27.53
672.851	27.54
673.039	27.65
673.226	28.09
673.413	28.01
673.601	28.49
673.788	28.34
673.976	28.25
674.163	28.03
674.35	27.84
674.538	28.06
674.725	27.94
674.912	27.98
675.1	27.87
675.287	27.68
675.474	27.55
675.662	27.37
675.849	27.72
676.036	27.51
676.223	27.73
676.411	27.84
676.598	27.76
676.785	27.8
676.972	27.82
677.159	27.79
677.346	27.86
677.533	28.02
677.721	27.99
677.908	27.9
678.095	27.99
678.282	28.03
678.469	27.95
678.656	28.06
678.843	28.19
679.03	28.1
679.217	27.99
679.404	27.94
679.591	27.89
679.778	28.06
679.964	27.95
680.151	27.91
680.338	27.71
680.525	27.87
680.712	27.81
680.899	27.76
681.086	27.96
681.272	27.9
681.459	27.94
681.646	27.72
681.833	27.58
682.02	27.8
682.206	28.01
682.393	28.03
682.58	27.97
682.766	27.73
682.953	27.77
683.14	27.7
683.326	28.15
683.513	28.08
683.7	28.37
683.886	28.44
684.073	28.43
684.259	28.55
684.446	28.51
684.632	28.42
684.819	28.7
685.005	28.5
685.192	28.41
685.378	28.3
685.565	28.34
685.751	28.11
685.938	27.94
686.124	27.67
686.31	27.67
686.497	27.75
686.683	27.78
686.87	27.61
687.056	27.7
687.242	27.93
687.429	27.87
687.615	28.11
687.801	28.4
687.987	28.35
688.174	28.58
688.36	28.67
688.546	28.73
688.732	28.59
688.918	29
689.105	28.76
689.291	28.83
689.477	28.79
689.663	28.61
689.849	28.54
690.035	28.46
690.221	28.75
690.407	28.85
690.593	28.83
690.779	28.85
690.965	28.57
691.151	28.82
691.337	28.82
691.523	29.04
691.709	29.36
691.895	29.48
692.081	29.72
692.267	29.52
692.453	29.46
692.639	29.55
692.825	29.88
693.011	29.84
693.196	29.7
693.382	29.49
693.568	29.35
693.754	29.41
693.94	29.4
694.125	29.22
694.311	29.35
694.497	29.24
694.682	29.28
694.868	29.34
695.054	29.53
695.239	29.86
695.425	29.94
695.611	29.73
695.796	29.57
695.982	29.88
696.168	30.11
696.353	30.14
696.539	30.22
696.724	30.47
696.91	30.46
697.095	30.55
697.281	30.52
697.466	30.61
697.652	30.85
697.837	30.74
698.023	30.67
698.208	30.71
698.393	30.59
698.579	30.68
698.764	30.52
698.949	30.61
699.135	30.47
699.32	30.34
699.505	30.36
699.691	30.52
699.876	30.69
700.061	30.51
700.246	30.52
700.432	30.62
700.617	30.38
700.802	30.43
700.987	30.23
701.172	30.27
701.358	30.53
701.543	30.84
701.728	30.48
701.913	30.23
702.098	30.41
702.283	30.59
702.468	30.6
702.653	30.85
702.838	30.81
703.023	30.81
703.208	30.7
703.393	30.47
703.578	30.09
703.763	30.09
703.948	30.51
704.133	30.37
704.318	30.05
704.503	29.9
704.688	29.87
704.873	30.06
705.057	30.02
705.242	30.22
705.427	30.18
705.612	30.3
705.797	30.58
705.981	30.36
706.166	30.55
706.351	30.91
706.536	31.15
706.72	31.27
706.905	30.81
707.09	30.98
707.274	30.97
707.459	31.25
707.644	31.19
707.828	30.92
708.013	31
708.197	30.96
708.382	30.22
708.567	29.97
708.751	29.99
708.936	30.09
709.12	30.34
709.305	30.63
709.489	30.72
709.673	30.88
709.858	31.22
710.042	31
710.227	30.8
710.411	31.33
710.596	31.68
710.78	31.3
710.964	31.91
711.149	31.32
711.333	31.09
711.517	31.24
711.702	30.97
711.886	30.97
712.07	30.83
712.254	31.09
712.438	31.06
712.623	31.05
712.807	31.28
712.991	31.11
713.175	31.58
713.359	31.69
713.544	31.48
713.728	31.17
713.912	31
714.096	31.38
714.28	31.4
714.464	31.29
714.648	31.17
714.832	31.15
715.016	30.76
715.2	30.54
715.384	30.46
715.568	30.45
715.752	30.88
715.936	30.69
716.12	30.64
716.304	30.59
716.488	30.7
716.671	30.45
716.855	30.46
717.039	30.51
717.223	30.75
717.407	30.65
717.59	30.76
717.774	30.71
717.958	31.31
718.142	31.3
718.325	31.09
718.509	31.05
718.693	31.2
718.877	31.58
719.06	31.85
719.244	31.58
719.428	31.5
719.611	31.64
719.795	31.94
719.978	32.12
720.162	32.52
720.345	32.81
720.529	33.09
720.713	33.38
720.896	33.35
721.08	33.05
721.263	33.05
721.446	33.31
721.63	32.91
721.813	32.94
721.997	32.47
722.18	31.88
722.364	31.8
722.547	31.36
722.73	31.16
722.914	30.76
723.097	30.68
723.28	30.95
723.464	30.63
723.647	31
723.83	30.71
724.013	31.14
724.197	30.96
724.38	30.93
724.563	30.99
724.746	30.94
724.929	31.75
725.112	32.52
725.296	32.9
725.479	33.45
725.662	33.22
725.845	33.45
726.028	33.3
726.211	33.79
726.394	33.93
726.577	34.14
726.76	34.37
726.943	33.29
727.126	32.82
727.309	32.61
727.492	32.25
727.675	32.17
727.858	32.06
728.041	32.18
728.224	32.28
728.407	32.2
728.589	32.13
728.772	32.19
728.955	32.12
729.138	31.68
729.321	31.68
729.503	31.91
729.686	32.24
729.869	32.34
730.052	32.19
730.234	32.12
730.417	32.4
730.6	32.72
730.782	32.65
730.965	33.43
731.148	33.69
731.33	33.39
731.513	33.12
731.695	32.94
731.878	32.83
732.061	32.68
732.243	32.57
732.426	31.89
732.608	31.71
732.791	31.73
732.973	31.83
733.156	31.73
733.338	31.69
733.52	31.9
733.703	31.72
733.885	31.41
734.068	31.58
734.25	31.49
734.432	31.77
734.615	31.68
734.797	31.47
734.979	30.87
735.162	31.07
735.344	30.68
735.526	30.85
735.708	31.05
735.891	31.57
736.073	31.67
736.255	31.75
736.437	31.76
736.619	31.6
736.802	31.84
736.984	31.92
737.166	32.28
737.348	32.51
737.53	32.44
737.712	31.86
737.894	31.62
738.076	31.51
738.258	31.97
738.44	32.39
738.622	32.83
738.804	32.39
738.986	32.58
739.168	32.17
739.35	32.59
739.532	32.18
739.714	32.59
739.896	32.83
740.078	32.44
740.259	32.18
740.441	32.35
740.623	31.97
740.805	32.54
740.987	32.42
741.168	32.67
741.35	32.3
741.532	32.65
741.714	32.31
741.895	32.08
742.077	32.59
742.259	32.41
742.44	32.57
742.622	32.62
742.804	32.25
742.985	31.84
743.167	31.99
743.348	32.61
743.53	32.74
743.711	33.7
743.893	33.55
744.075	33.2
744.256	32.74
744.438	32.37
744.619	32.68
744.8	32.71
744.982	33.47
745.163	32.8
745.345	32.2
745.526	32.66
745.707	32.09
745.889	32.63
746.07	32.71
746.252	32.95
746.433	33.32
746.614	33.71
746.795	34.16
746.977	33.54
747.158	34.21
747.339	34.17
747.52	33.89
747.702	33.86
747.883	33.63
748.064	33.46
748.245	33.88
748.426	33.94
748.607	33.82
748.788	33.27
748.97	33.71
749.151	33.95
749.332	34.31
749.513	33.94
749.694	34.16
749.875	34.33
750.056	34.35
750.237	34.66
750.418	33.7
750.599	33.5
750.78	33.8
750.96	34.07
751.141	33.67
751.322	33.58
751.503	33.59
751.684	33.66
751.865	33.69
752.046	33.72
752.226	33.13
752.407	33.81
752.588	32.93
752.769	32.92
752.949	32.92
753.13	33.58
753.311	33.42
753.492	33.78
753.672	33.95
753.853	33.12
754.034	32.93
754.214	32.89
754.395	32.24
754.575	33.32
754.756	33.12
754.937	33.58
755.117	33
755.298	33.51
755.478	32.96
755.659	32.73
755.839	33.68
756.02	34.24
756.2	35.12
756.381	35.47
756.561	35.6
756.741	35.94
756.922	35.56
757.102	35.94
757.283	35.88
757.463	36
757.643	35.77
757.823	35.87
758.004	35.63
758.184	35.16
758.364	34.79
758.545	33.92
758.725	33.75
758.905	33.01
759.085	32.48
759.265	31.74
759.446	31.54
759.626	31.69
759.806	31.37
759.986	31.61
760.166	31.22
760.346	31.59
760.526	32.17
760.706	32.06
760.886	32.84
761.066	33.07
761.246	34.19
761.426	34.79
761.606	35.03
761.786	35.11
761.966	34.86
762.146	35.28
762.326	35.29
762.506	35.27
762.686	35.62
762.866	35.44
763.046	35.92
763.225	35.55
763.405	35.43
763.585	35.49
763.765	35.56
763.945	36.1
764.124	35.97
764.304	35.96
764.484	36.41
764.664	36.48
764.843	36.59
765.023	35.7
765.203	35.11
765.382	34.97
765.562	34.9
765.741	34.8
765.921	34.21
766.101	33.93
766.28	33.91
766.46	33.05
766.639	32.94
766.819	32.91
766.998	33.55
767.178	33.81
767.357	33.63
767.537	33.47
767.716	33.26
767.896	32.96
768.075	33.21
768.254	33.2
768.434	33.17
768.613	32.68
768.792	32.42
768.972	32.22
769.151	32.41
769.33	32.5
769.51	32.55
769.689	32.13
769.868	32.67
770.047	33.46
770.226	33.26
770.406	33.34
770.585	33.22
770.764	32.95
770.943	32.52
771.122	32.46
771.301	32.85
771.48	32.89
771.66	32.48
771.839	32.09
772.018	31.34
772.197	31.68
772.376	32.4
772.555	33.03
772.734	33.49
772.913	33.64
773.092	34
773.271	33.3
773.449	31.93
773.628	32.83
773.807	33.01
773.986	32.71
774.165	32.97
774.344	32.66
774.523	32.15
774.701	32.2
774.88	32.22
775.059	32.47
775.238	33.52
775.417	34.77
775.595	35.12
775.774	34.21
775.953	35.05
776.131	34.78
776.31	34.09
776.489	35.11
776.667	34.95
776.846	34.65
777.025	34.67
777.203	34.09
777.382	33.87
777.56	33.69
777.739	33.93
777.917	32.97
778.096	32.71
778.274	33.14
778.453	32.23
778.631	31.54
778.81	31.92
778.988	30.74
779.166	31.01
779.345	30.82
779.523	30.38
779.702	31.41
779.88	32.06
780.058	31.46
780.237	31.4
780.415	31.1
780.593	32.42
780.771	31.79
780.95	33.57
781.128	33.53
781.306	33.81
781.484	34.84
781.662	34.36
781.841	34.48
782.019	35.52
782.197	35.24
782.375	34.68
782.553	33.77
782.731	33.61
782.909	32.47
783.087	33.01
783.265	32.95
783.443	32.06
783.621	32.4
783.799	32.1
783.977	32.48
784.155	33.55
784.333	35.41
784.511	36.42
784.689	37.9
784.867	38.03
785.045	36.85
785.223	36.59
785.4	36.58
785.578	36.76
785.756	36.29
785.934	35.03
786.112	34.52
786.289	33.52
786.467	32.42
786.645	32.67
786.823	31.97
787	32.56
787.178	32.51
787.356	33
787.533	32.2
787.711	32.36
787.889	33.38
788.066	33.62
788.244	33.55
788.421	33.68
788.599	32.38
788.776	32.88
788.954	32.63
789.131	32.86
789.309	31.94
789.486	32.16
789.664	32.27
789.841	32.3
790.019	32.06
790.196	32.34
790.373	32.42
790.551	32.98
790.728	33.2
790.906	32.61
791.083	32.3
791.26	33.84
791.437	34.57
791.615	34.17
791.792	33.42
791.969	32.94
792.146	31.71
792.324	31.87
792.501	32.56
792.678	32.73
792.855	33.04
793.032	33.84
793.209	32.77
793.387	31.57
793.564	32.41
793.741	32.85
793.918	33.11
794.095	35.15
794.272	35.01
794.449	33.75
794.626	33.29
794.803	34.23
794.98	33.92
795.157	34.25
795.334	35.85
795.511	35.2
795.688	35.66
795.864	34.79
796.041	34.61
796.218	35.21
796.395	36.06
796.572	36.3
796.749	35.01
796.925	34.57
797.102	34.56
797.279	33.77
797.456	34.59
797.632	34.26
797.809	34.02
797.986	33.63
798.162	34.34
798.339	33.6
798.516	34.21
798.692	35.46
798.869	35.81
799.046	35.46
799.222	35.72
799.399	34.88
799.575	33.79
799.752	34.68
799.928	34.43
800.105	32.37
800.281	32.71
800.458	32.02
800.634	31.6
800.811	32.52
800.987	32.69
801.163	32.27
801.34	33.06
801.516	32.77
801.692	33.08
801.869	33.37
802.045	35.01
802.221	35.16
802.398	35.34
802.574	35.26
802.75	34.57
802.926	33.76
803.103	34.47
803.279	32.9
803.455	33.78
803.631	34
803.807	35.16
803.983	35.6
804.16	35.62
804.336	35.7
804.512	36.3
804.688	37.84
804.864	38.82
805.04	38.25
805.216	39.35
805.392	39.66
805.568	39.65
805.744	37.82
805.92	37.34
806.096	37.08
806.272	37.44
806.448	38.58
806.623	37.38
806.799	36.89
806.975	37.02
807.151	36.7
807.327	36.69
807.503	36.76
807.678	38.32
807.854	38.82
808.03	39.02
808.206	39.78
808.381	37.83
808.557	37.24
808.733	38.26
808.908	38.17
809.084	39.94
809.26	39.96
809.435	39.33
809.611	37.2
809.787	35.11
809.962	35.62
810.138	34.43
810.313	34.1
810.489	34.88
810.664	34.78
810.84	34.17
811.015	32.89
811.191	33.74
811.366	35.68
811.542	36.02
811.717	36.62
811.892	36.98
812.068	37.87
812.243	38.84
812.419	38.13
812.594	37.91
812.769	38.49
812.944	37.69
813.12	37.46
813.295	35.89
813.47	36.73
813.645	37.59
813.821	36.75
813.996	36.4
814.171	36.39
814.346	36.18
814.521	36.01
814.697	36.63
814.872	36.37
815.047	36.05
815.222	36.21
815.397	35.59
815.572	35.25
815.747	36.41
815.922	35.77
816.097	36.33
816.272	36.71
816.447	36.6
816.622	35.05
816.797	34.27
816.972	33.41
817.147	33.11
817.322	33.6
817.496	34.76
817.671	35.33
817.846	35.85
818.021	34.93
818.196	34.82
818.371	35.94
818.545	37.3
818.72	38.53
818.895	39.14
819.069	40.74
819.244	42.06
819.419	41.59
819.594	39.63
819.768	39.26
819.943	40.13
820.117	39.83
820.292	39.14
820.467	38.81
820.641	38.6
820.816	37.87
820.99	37.35
821.165	37.02
821.339	36.7
821.514	36.9
821.688	36.74
821.863	36.43
822.037	36.38
822.212	36.23
822.386	36.03
822.56	35.98
822.735	36.48
822.909	36.23
823.084	35.76
823.258	35.7
823.432	35.69
823.606	35.97
823.781	35.97
823.955	36.02
824.129	36.07
824.303	36.22
824.478	36.56
824.652	36.22
824.826	36.44
825	36.5
825.174	36.31
825.348	36.14
825.523	35.97
825.697	35.76
825.871	35.54
826.045	35.53
826.219	35.31
826.393	35.26
826.567	34.81
826.741	34.62
826.915	35.04
827.089	35.38
827.263	35.36
827.437	35.36
827.611	35.34
827.784	35.66
827.958	35.91
828.132	35.92
828.306	35.65
828.48	35.86
828.654	36.15
828.827	36.19
829.001	35.81
829.175	36.49
829.349	36.1
829.522	36.41
829.696	35.97
829.87	35.84
830.044	37.09
830.217	36.91
830.391	36.96
830.565	37.06
830.738	37.58
830.912	37.55
831.085	37.12
831.259	37.4
831.432	37.59
831.606	37.17
831.779	36.03
831.953	35.29
832.126	35.02
832.3	35.72
832.473	35.29
832.647	34.66
832.82	35.59
832.994	34.97
833.167	35.68
833.34	35.39
833.514	35.9
833.687	36.01
833.86	35.55
834.034	35.8
834.207	35.88
834.38	36.37
834.553	36.64
834.727	36.11
834.9	37.15
835.073	36.02
835.246	35.13
835.419	34.27
835.593	34.81
835.766	35.58
835.939	36.68
836.112	35.92
836.285	34.56
836.458	33.37
836.631	33.57
836.804	32.25
836.977	34.22
837.15	35.58
837.323	37.36
837.496	36.9
837.669	36.2
837.842	34.25
838.015	34.06
838.188	34.03
838.361	36.35
838.533	36.4
838.706	36.29
838.879	35.35
839.052	36.7
839.225	36.19
839.398	36.71
839.57	38.23
839.743	38.25
839.916	38.81
840.088	40.47
840.261	40.92
840.434	38.78
840.607	41.35
840.779	41.12
840.952	41.62
841.124	41.69
841.297	42.51
841.47	40.46
841.642	39.87
841.815	41.47
841.987	42.4
842.16	39.88
842.332	41.18
842.505	37
842.677	36.61
842.85	35.84
843.022	36.15
843.194	35.84
843.367	39.14
843.539	38.33
843.712	37.02
843.884	32.14
844.056	31.41
844.229	30.55
844.401	33.43
844.573	32.23
844.745	28.24
844.918	27.89
845.09	24.73
845.262	19.96
845.434	21.69
845.606	20.8
845.779	24.7
845.951	27.66
846.123	29.28
846.295	27.42
846.467	29.54
846.639	34.24
846.811	36.07
846.983	34.94
847.155	37
847.327	39.02
847.499	38.56
847.671	38.65
847.843	35.2
848.015	35.44
848.187	39.26
848.359	37.35
848.531	34.37
848.703	29.71
848.875	32.56
849.047	28.84
849.218	24.7
849.39	23.01
849.562	23.24
849.734	28.09
849.905	26.29
850.077	22.39
850.249	17.44
850.421	17.15
850.592	18.67
850.764	17.72
850.936	21.1
851.107	23.17
851.279	25.11
851.451	22.01
851.622	16.27
851.794	21.96
851.965	28.02
852.137	31.29
852.308	31.13
852.48	34.16
852.651	33.83
852.823	32.86
852.994	31.02
853.166	30.65
853.337	33.69
853.509	39.07
853.68	38.36
853.851	32.6
854.023	32.98
854.194	36.45
854.365	37.32
854.537	37.84
854.708	40.05
854.879	41.79
855.05	38.87
855.222	40.82
855.393	38.19
855.564	39.64
855.735	38.94
855.906	38.29
856.078	34.77
856.249	34.07
856.42	34.99
856.591	34.32
856.762	34.58
856.933	36.22
857.104	32.01
857.275	32.73
857.446	28.96
857.617	29.22
857.788	35.6
857.959	38.29
858.13	36.48
858.301	34.35
858.472	34.29
858.643	38.73
858.814	39.51
858.985	40.54
859.155	40.04
859.326	40.28
859.497	43.07
859.668	36.76
859.839	33.62
860.009	31.53
860.18	35.7
860.351	35.76
860.522	28.84
860.692	31.59
860.863	32.07
861.034	30.84
861.204	31.83
861.375	29.97
861.546	34.37
861.716	38.59
861.887	41.76
862.057	40.27
862.228	37.96
862.398	41.74
862.569	42.64
862.739	42.43
862.91	43.08
863.08	42.41
863.251	45.8
863.421	44.67
863.592	41.21
863.762	44.03
863.932	42.71
864.103	47.5
864.273	45.5
864.443	43.99
864.614	41.85
864.784	43.31
864.954	45.66
865.125	43.18
865.295	40.78
865.465	40.81
865.635	39.62
865.805	41.52
865.976	38.4
866.146	34.39
866.316	31.14
866.486	32.62
866.656	27.53
866.826	25.33
866.996	25.11
867.166	23.15
867.336	24.71
867.506	16.09
867.676	12.26
867.846	10.84
868.016	15.47
868.186	19.7
868.356	22.17
868.526	26.07
868.696	26.41
868.866	33.29
869.036	33.73
869.206	34.3
869.376	40.78
869.545	43.07
869.715	46.29
869.885	49.25
870.055	48.27
870.224	42.8
870.394	47.09
870.564	51.48
870.734	47.98
870.903	47.67
871.073	51.25
871.243	48.38
871.412	52.71
871.582	52
871.751	51.48
871.921	53.8
872.091	58.45
872.26	55.37
872.43	48.95
872.599	49.06
872.769	51.57
872.938	48.33
873.108	48.5
873.277	45.99
873.446	43.82
873.616	45.9
873.785	45.05
873.955	40.39
874.124	41.94
874.293	45.39
874.463	42.06
874.632	45.31
874.801	41.72
874.971	40.07
875.14	41.75
875.309	44.73
875.478	38.96
875.647	36.92
875.817	37.61
875.986	37.14
876.155	37.44
876.324	40.31
876.493	38.23
876.662	42.47
876.831	44.03
877	38.98
877.17	37.92
877.339	39.44
877.508	42.15
877.677	45.09
877.846	46.8
878.015	45.62
878.184	44.94
878.352	43.16
878.521	38.99
878.69	35.88
878.859	38.58
879.028	37.06
879.197	34.45
879.366	35.85
879.534	33.93
879.703	28.64
879.872	29.6
880.041	30.44
880.21	33.43
880.378	35.56
880.547	36.38
880.716	36.51
880.884	37.61
881.053	39.21
881.222	38.27
881.39	38.67
881.559	39.04
881.727	39.25
881.896	38.92
882.065	38.58
882.233	37.73
882.402	38.45
882.57	37.98
882.739	38.4
882.907	38.29
883.076	38.22
883.244	38.15
883.412	39.46
883.581	39.75
883.749	39.26
883.918	38.12
884.086	38.32
884.254	37.75
884.423	38.85
884.591	38.45
884.759	37.65
884.927	38.89
885.096	38.11
885.264	36.51
885.432	36.1
885.6	36.4
885.769	35.85
885.937	35.33
886.105	36.21
886.273	34.46
886.441	34.02
886.609	36.02
886.777	34.44
886.945	37.06
887.113	37.44
887.281	37.9
887.449	39.37
887.617	43.57
887.785	44.11
887.953	40.48
888.121	42.3
888.289	40.14
888.457	40.07
888.625	39.32
888.793	42.68
888.961	42.94
889.129	42.54
889.296	43.29
889.464	42.96
889.632	46.58
889.8	52.44
889.967	52.38
890.135	57.93
