Data from 2938442_Reflection_3.txt Node
Date: Fri Jun 19 18:18:04 EDT 2015
User: robert
Spectrometer: USB4E03002
Autoset integration time: false
Trigger mode: 4
Integration Time (sec): 1.000000E-1
Scans to average: 10
Electric dark correction enabled: true
Nonlinearity correction enabled: false
Boxcar width: 5
Stray light correction enabled: false
XAxis mode: Wavelengths
Stop averaging: false
Number of Pixels in Spectrum: 3648
>>>>>Begin Spectral Data<<<<<
177.575	38.8
177.794	187.94
178.014	186.59
178.233	294.69
178.452	861.47
178.672	283.45
178.891	94.21
179.11	-37.5
179.33	-160.15
179.549	84.59
179.768	-470.48
179.987	-77.53
180.207	1565.09
180.426	-1289.52
180.645	-132.27
180.864	57.71
181.084	42.19
181.303	-33.31
181.522	-57.02
181.741	-34.21
181.96	-67.25
182.179	-13.31
182.398	-87.87
182.618	-5.13
182.837	-45.6
183.056	-80.18
183.275	7756
183.494	278.89
183.713	-858.74
183.932	831.81
184.151	176.51
184.37	510.31
184.589	136.78
184.808	128.21
185.027	98.15
185.246	82.23
185.465	96.44
185.684	458.72
185.903	432.36
186.122	64.37
186.341	46.85
186.56	62.34
186.779	1.98
186.998	-16.49
187.216	314.91
187.435	94.93
187.654	57.84
187.873	-214.94
188.092	526.47
188.311	641.55
188.53	-1002.47
188.748	-171.57
188.967	-109.11
189.186	-306.81
189.405	-380.63
189.623	-2752.49
189.842	817.52
190.061	2114.24
190.28	-198.89
190.498	-430.8
190.717	-34260
190.936	-858.8
191.154	-904.26
191.373	-1050.66
191.592	-13.8
191.81	-14.72
192.029	-34.94
192.248	-48.92
192.466	-45.45
192.685	-70.43
192.904	-59.54
193.122	-23.84
193.341	-24.22
193.559	-71.2
193.778	-47.23
193.996	-145.14
194.215	-24.25
194.433	0.45
194.652	-4.95
194.87	20.08
195.089	17
195.307	47.02
195.526	35.24
195.744	53.52
195.963	42.62
196.181	51.31
196.399	65.14
196.618	132.48
196.836	125.47
197.055	-262.7
197.273	-206.4
197.491	39.43
197.71	83.01
197.928	44.58
198.146	21.33
198.365	-97.37
198.583	23.22
198.801	-8.08
199.019	-388.1
199.238	-669.02
199.456	-1897.22
199.674	-529.61
199.892	343.83
200.111	-145.81
200.329	364.75
200.547	24.07
200.765	-213.68
200.983	83.22
201.202	33.49
201.42	-38.18
201.638	-113.38
201.856	-52
202.074	-123.95
202.292	-299.16
202.51	-61.25
202.728	47.62
202.946	74.43
203.165	111.75
203.383	21.79
203.601	-93.23
203.819	-244.5
204.037	-94.94
204.255	-345.13
204.473	1070.93
204.691	565.78
204.909	-3009.87
205.127	-499.65
205.345	-354.1
205.562	-213.94
205.78	-457.57
205.998	-195.39
206.216	-67.1
206.434	-218.45
206.652	-69.17
206.87	-5.36
207.088	5.56
207.306	41.81
207.523	94.83
207.741	68.32
207.959	163.02
208.177	103.49
208.395	-147.3
208.612	-104.61
208.83	-91.01
209.048	-50.54
209.266	22.37
209.483	59.81
209.701	-63.22
209.919	10.12
210.136	49.01
210.354	46.22
210.572	102.61
210.79	89.29
211.007	109.79
211.225	115.97
211.442	87.63
211.66	33.76
211.878	-72.68
212.095	-132.4
212.313	-179.33
212.53	-214.48
212.748	-127.54
212.966	-123.07
213.183	-129.2
213.401	-73.99
213.618	-84.23
213.836	-88.34
214.053	-52.11
214.271	-29.59
214.488	19.89
214.705	29.62
214.923	38.53
215.14	23.8
215.358	26.21
215.575	26.78
215.793	6.14
216.01	1.67
216.227	5.71
216.445	-23.28
216.662	-36.47
216.879	-47.28
217.097	-31
217.314	-46.94
217.531	-35.25
217.749	-258.38
217.966	-225.82
218.183	-336.84
218.4	-125.44
218.618	-105.13
218.835	-201.79
219.052	-225.97
219.269	-88.63
219.487	-79.83
219.704	-77.18
219.921	-52.8
220.138	5.41
220.355	-14.4
220.572	-1.58
220.79	-3.82
221.007	-6.09
221.224	-1.23
221.441	-0.43
221.658	-9.03
221.875	-21.94
222.092	-16.39
222.309	-14.78
222.526	-34.02
222.743	-15.72
222.96	-17.38
223.177	-22.76
223.394	-12.38
223.611	-3.88
223.828	-1.29
224.045	1.73
224.262	10.1
224.479	7.88
224.696	8.96
224.913	5.38
225.13	5.81
225.347	11.61
225.564	15.41
225.781	14.62
225.997	16.34
226.214	14.24
226.431	14.03
226.648	12.99
226.865	12.13
227.082	10.58
227.298	14.06
227.515	12.47
227.732	12.98
227.949	12.6
228.165	11.35
228.382	8.57
228.599	9.48
228.816	8.29
229.032	7.6
229.249	7.79
229.466	10.88
229.682	9.56
229.899	10.59
230.116	6.12
230.332	4.3
230.549	5.88
230.765	9.63
230.982	10.26
231.199	12.24
231.415	14.62
231.632	17.8
231.848	13.66
232.065	13.16
232.281	12.58
232.498	11.37
232.714	11.78
232.931	10.36
233.147	10.77
233.364	9.25
233.58	9.92
233.797	7.97
234.013	5.44
234.23	4.74
234.446	7.78
234.662	8.89
234.879	13.66
235.095	12.6
235.312	17.06
235.528	17.7
235.744	17.75
235.961	16.52
236.177	13.36
236.393	12.4
236.61	13.53
236.826	9.63
237.042	8.52
237.258	9.39
237.475	8.08
237.691	5.34
237.907	4.97
238.123	4.52
238.339	4.66
238.556	8.99
238.772	9.77
238.988	9.77
239.204	9.35
239.42	10.38
239.636	9.77
239.853	10.37
240.069	10.17
240.285	10.07
240.501	10.56
240.717	11.07
240.933	8.74
241.149	9.42
241.365	8.1
241.581	9.01
241.797	8.62
242.013	8.44
242.229	8.96
242.445	8.54
242.661	8.07
242.877	7.41
243.093	7.37
243.309	8.05
243.525	7.72
243.741	8.48
243.957	8.27
244.173	9.44
244.388	9
244.604	8.79
244.82	9.19
245.036	9.26
245.252	9.7
245.468	10.05
245.683	10.35
245.899	10.3
246.115	10.61
246.331	10.78
246.547	9.93
246.762	9.85
246.978	9.81
247.194	9.72
247.409	9.21
247.625	8.3
247.841	7.34
248.057	6.99
248.272	6.69
248.488	6.59
248.703	7.43
248.919	8.38
249.135	8.5
249.35	9.06
249.566	9.65
249.782	10.05
249.997	12.06
250.213	12.27
250.428	12.32
250.644	12.54
250.859	11.44
251.075	9.59
251.29	8.64
251.506	8.95
251.721	8.04
251.937	8.58
252.152	8.7
252.368	7.22
252.583	8.83
252.798	9.84
253.014	8.41
253.229	8.32
253.445	9.01
253.66	9.86
253.875	7.59
254.091	6.53
254.306	5.38
254.521	5.67
254.737	6.03
254.952	4.48
255.167	4.74
255.383	6.17
255.598	8.62
255.813	7.67
256.028	6.88
256.244	7.09
256.459	7.89
256.674	7.9
256.889	8.33
257.104	8.36
257.32	8
257.535	7.66
257.75	7.32
257.965	7.18
258.18	7.9
258.395	7.99
258.61	8.65
258.826	8.62
259.041	8.38
259.256	7.98
259.471	7.26
259.686	7.4
259.901	7.47
260.116	7.68
260.331	7.08
260.546	6.99
260.761	6.37
260.976	5.54
261.191	5.54
261.406	4.99
261.621	4.98
261.836	5.87
262.05	5.24
262.265	3.85
262.48	2.27
262.695	1.61
262.91	1.28
263.125	2.97
263.34	3.9
263.555	4.36
263.769	4.61
263.984	5.19
264.199	5.75
264.414	6.42
264.629	7.17
264.843	9
265.058	9.98
265.273	9.2
265.488	7.78
265.702	6.79
265.917	7.19
266.132	7.9
266.346	6.72
266.561	6.46
266.776	6.68
266.99	6.72
267.205	5.83
267.42	5.12
267.634	5.44
267.849	6.32
268.063	6.82
268.278	5.89
268.492	5.06
268.707	6.25
268.922	6.94
269.136	7.01
269.351	7.01
269.565	6.55
269.78	6.18
269.994	6.12
270.209	6.43
270.423	6.28
270.637	6.13
270.852	6.31
271.066	6.5
271.281	5.33
271.495	5.04
271.709	4.95
271.924	5.51
272.138	6.43
272.353	6.57
272.567	5.88
272.781	5.8
272.996	5.53
273.21	6.06
273.424	5.77
273.638	6.99
273.853	6.72
274.067	7.27
274.281	6.29
274.495	6.25
274.71	6.7
274.924	6.7
275.138	6.41
275.352	5.71
275.566	5.27
275.781	4.69
275.995	4.38
276.209	5.27
276.423	4.96
276.637	5.76
276.851	5.42
277.065	4.65
277.279	4.76
277.493	5.01
277.707	6.27
277.921	6.85
278.135	7.56
278.349	7.33
278.563	6.25
278.777	5.16
278.991	5.19
279.205	4.45
279.419	3.76
279.633	3.85
279.847	4.04
280.061	5.01
280.275	4.92
280.489	5.04
280.703	5.34
280.917	6
281.131	7.36
281.344	6.94
281.558	7.63
281.772	8.43
281.986	8.63
282.2	9
282.414	7.78
282.627	7.32
282.841	7.56
283.055	7.52
283.269	7.33
283.482	7.58
283.696	8.51
283.91	8.36
284.123	8.64
284.337	9.12
284.551	8.55
284.764	9.09
284.978	8.55
285.192	8.06
285.405	7.92
285.619	7.87
285.833	7.42
286.046	6.67
286.26	7.19
286.473	7.37
286.687	6.25
286.9	6.66
287.114	6.27
287.327	7.08
287.541	7.13
287.754	7.84
287.968	7.73
288.181	7.39
288.395	7.78
288.608	7.58
288.822	7.15
289.035	7.48
289.248	7.67
289.462	8.16
289.675	8.76
289.889	9.12
290.102	8.08
290.315	8.76
290.529	9.29
290.742	9.94
290.955	9.56
291.169	10.21
291.382	10.21
291.595	10.1
291.808	10.84
292.022	9.53
292.235	8.8
292.448	9.75
292.661	9.29
292.875	9.15
293.088	8.47
293.301	8.24
293.514	7.32
293.727	8.19
293.94	7.57
294.153	7.11
294.367	7.3
294.58	7.75
294.793	7.48
295.006	7.56
295.219	7.86
295.432	7.92
295.645	8.49
295.858	7.99
296.071	7.39
296.284	8.03
296.497	7.93
296.71	8.6
296.923	9.02
297.136	9.36
297.349	9.59
297.562	9.61
297.775	9.98
297.988	9.63
298.201	10.84
298.414	11.2
298.626	11.24
298.839	11.61
299.052	10.98
299.265	10.44
299.478	9.73
299.691	9.67
299.903	9.75
300.116	8.81
300.329	9.71
300.542	9.24
300.755	9.07
300.967	9.23
301.18	9.19
301.393	9.33
301.605	9.4
301.818	9.96
302.031	9.9
302.243	9.97
302.456	10.52
302.669	11.21
302.881	11.15
303.094	11.5
303.307	11.36
303.519	10.68
303.732	11.43
303.944	11.56
304.157	11.71
304.37	11.6
304.582	11.16
304.795	11.5
305.007	10.2
305.22	10.81
305.432	11.19
305.645	10.67
305.857	10.75
306.069	10.36
306.282	10
306.494	9.72
306.707	10.35
306.919	11.04
307.132	10.92
307.344	10.26
307.556	9.84
307.769	10.1
307.981	10.74
308.193	11.04
308.406	10.4
308.618	10.81
308.83	10.72
309.043	9.55
309.255	8.71
309.467	8.87
309.679	8.86
309.892	9.12
310.104	8.08
310.316	7.82
310.528	7.75
310.74	8.58
310.953	8.43
311.165	8.8
311.377	9.01
311.589	9.8
311.801	9.85
312.013	10.73
312.225	11.21
312.437	12.46
312.649	12.85
312.862	11.87
313.074	11.83
313.286	11.96
313.498	11.04
313.71	11.77
313.922	10.58
314.134	11.32
314.346	10.28
314.558	9.37
314.77	8.96
314.982	8.39
315.193	9.06
315.405	8.55
315.617	8.82
315.829	9.08
316.041	9.2
316.253	9.94
316.465	9.21
316.677	10.58
316.888	10.55
317.1	11.04
317.312	11.91
317.524	12.18
317.736	12.58
317.947	12.61
318.159	13.34
318.371	13.31
318.583	13.39
318.794	12.66
319.006	12.29
319.218	13.08
319.43	11.48
319.641	10.78
319.853	10.76
320.064	11.1
320.276	10.9
320.488	10.36
320.699	10.04
320.911	10.4
321.123	11.31
321.334	12.14
321.546	12.21
321.757	13.48
321.969	13.81
322.18	13.84
322.392	13.16
322.603	13.52
322.815	13.98
323.026	13.53
323.238	12.98
323.449	13.83
323.661	13.23
323.872	13.8
324.083	13.71
324.295	14.27
324.506	14.57
324.718	15.17
324.929	15.04
325.14	15.37
325.352	16.52
325.563	17.1
325.774	16.37
325.986	16.84
326.197	16.21
326.408	16.47
326.62	16.34
326.831	16.45
327.042	15.77
327.253	16.45
327.464	17.23
327.676	17.62
327.887	18.02
328.098	18.03
328.309	17.95
328.52	18.69
328.732	19.78
328.943	20.32
329.154	21.13
329.365	23.04
329.576	22.7
329.787	21.54
329.998	21.44
330.209	21.42
330.42	21.98
330.631	22.16
330.842	22.24
331.053	20.88
331.264	20.65
331.475	20.34
331.686	20.07
331.897	20.42
332.108	21.04
332.319	20.34
332.53	20.73
332.741	20.8
332.952	20.62
333.163	20.39
333.374	20.98
333.585	20.57
333.795	20.29
334.006	20.37
334.217	20.83
334.428	20.95
334.639	22.08
334.849	22.02
335.06	21.55
335.271	22.13
335.482	21.87
335.692	21.61
335.903	22.08
336.114	22.45
336.325	22.19
336.535	21.81
336.746	21.42
336.957	20.88
337.167	20.49
337.378	21.37
337.589	21.93
337.799	22.03
338.01	22.01
338.22	22.25
338.431	21.84
338.642	21.5
338.852	20.76
339.063	21.06
339.273	20.4
339.484	20.89
339.694	20.03
339.905	18.28
340.115	18.45
340.326	18.76
340.536	19.18
340.746	19.5
340.957	20.16
341.167	20.8
341.378	20.5
341.588	21.51
341.799	21.85
342.009	22.09
342.219	23.27
342.43	24.04
342.64	24.24
342.85	23.71
343.061	22.97
343.271	23.12
343.481	23.01
343.691	23.04
343.902	22.74
344.112	22.29
344.322	22.4
344.532	22
344.743	21.54
344.953	21.05
345.163	20.72
345.373	21.04
345.583	20.93
345.793	20.71
346.004	20.73
346.214	20.21
346.424	21.04
346.634	20.73
346.844	21.32
347.054	20.06
347.264	20.18
347.474	20.13
347.684	20.95
347.894	20.45
348.104	20.24
348.314	20.61
348.524	20.53
348.734	19.71
348.944	20.4
349.154	19.6
349.364	21.16
349.574	21.33
349.784	21.81
349.994	21.98
350.204	21.84
350.413	22.2
350.623	22.3
350.833	22.75
351.043	22.81
351.253	22.6
351.463	22.9
351.672	22.15
351.882	22.7
352.092	22.48
352.302	22.21
352.511	22.77
352.721	22.68
352.931	22.61
353.141	22.84
353.35	22.53
353.56	22.57
353.77	23.26
353.979	23.82
354.189	22.72
354.399	22.82
354.608	22.58
354.818	21.81
355.027	21.72
355.237	21.28
355.447	21.44
355.656	22.42
355.866	21.97
356.075	21.32
356.285	20.83
356.494	21.03
356.704	20.92
356.913	21.17
357.123	21.77
357.332	21.89
357.542	22.4
357.751	22.17
357.96	21.47
358.17	21.18
358.379	21.41
358.589	21.56
358.798	21.78
359.007	21.33
359.217	21.21
359.426	20.97
359.635	21.09
359.845	21.04
360.054	20.81
360.263	20.62
360.472	20.83
360.682	20.46
360.891	20.17
361.1	20.47
361.309	20.47
361.519	19.88
361.728	19.86
361.937	19.89
362.146	19.62
362.355	19.51
362.564	19.58
362.774	19.73
362.983	19.5
363.192	19.47
363.401	18.75
363.61	18.77
363.819	19.15
364.028	18.7
364.237	18.48
364.446	18.08
364.655	18.15
364.864	17.99
365.073	18.25
365.282	18.16
365.491	17.86
365.7	18.15
365.909	18.09
366.118	17.87
366.327	18.16
366.536	18.27
366.745	18.74
366.954	18.76
367.162	18.63
367.371	18.23
367.58	18.34
367.789	18.68
367.998	18.84
368.207	18.92
368.415	18.71
368.624	18.19
368.833	18.06
369.042	17.48
369.25	17.36
369.459	17.51
369.668	17.26
369.877	17.31
370.085	17.29
370.294	16.83
370.503	16.65
370.711	16.9
370.92	17.32
371.129	16.94
371.337	16.76
371.546	16.65
371.754	16.6
371.963	16.72
372.171	16.92
372.38	16.94
372.589	16.85
372.797	17.03
373.006	16.77
373.214	16.53
373.423	16.7
373.631	16.59
373.84	16.02
374.048	16.01
374.256	15.8
374.465	15.59
374.673	14.96
374.882	15.1
375.09	14.77
375.298	14.57
375.507	14.49
375.715	14.45
375.923	14.4
376.132	14.67
376.34	14.22
376.548	14.31
376.757	14.18
376.965	14.16
377.173	14.11
377.381	14.28
377.59	14.17
377.798	14.24
378.006	13.97
378.214	14.17
378.423	14.02
378.631	13.94
378.839	13.7
379.047	13.6
379.255	14.07
379.463	14.01
379.671	13.76
379.879	14.08
380.088	13.94
380.296	13.96
380.504	14
380.712	14.27
380.92	14.15
381.128	14.12
381.336	13.98
381.544	13.39
381.752	13.02
381.96	12.97
382.168	12.81
382.376	12.68
382.584	12.43
382.791	12.35
382.999	12.12
383.207	11.95
383.415	11.64
383.623	11.31
383.831	11.75
384.039	11.8
384.247	11.7
384.454	11.32
384.662	10.96
384.87	11.05
385.078	10.71
385.285	10.71
385.493	11.19
385.701	11.35
385.909	11.28
386.116	10.73
386.324	10.41
386.532	10.46
386.739	10.75
386.947	10.79
387.155	10.25
387.362	9.95
387.57	9.68
387.778	9.31
387.985	8.93
388.193	9.13
388.4	9.12
388.608	9.27
388.816	8.95
389.023	8.81
389.231	8.8
389.438	9.14
389.646	9.53
389.853	9.31
390.061	9.26
390.268	9.25
390.475	8.95
390.683	8.96
390.89	8.78
391.098	8.81
391.305	8.52
391.512	8.33
391.72	8.11
391.927	7.75
392.135	7.81
392.342	7.61
392.549	7.51
392.756	7.62
392.964	7.51
393.171	7.69
393.378	7.78
393.586	7.81
393.793	7.89
394	7.87
394.207	7.89
394.414	7.96
394.622	7.93
394.829	7.88
395.036	7.63
395.243	7.49
395.45	7.24
395.657	7.08
395.864	7.23
396.072	7.21
396.279	7.23
396.486	7.24
396.693	7.07
396.9	7.21
397.107	7.13
397.314	7.39
397.521	7.43
397.728	7.4
397.935	7.39
398.142	7.2
398.349	6.91
398.556	6.77
398.763	6.62
398.97	6.6
399.177	6.51
399.383	6.57
399.59	6.4
399.797	6.37
400.004	6.44
400.211	6.51
400.418	6.68
400.625	6.87
400.831	6.97
401.038	7.16
401.245	7.36
401.452	7.2
401.658	7.37
401.865	7.4
402.072	7.35
402.279	7.16
402.485	7.05
402.692	6.9
402.899	6.85
403.105	6.71
403.312	6.54
403.519	6.38
403.725	6.36
403.932	6.27
404.138	6.24
404.345	6.23
404.552	6.36
404.758	6.25
404.965	6.1
405.171	6.13
405.378	6.03
405.584	6.15
405.791	6.14
405.997	6.22
406.204	6.09
406.41	6.02
406.617	6.21
406.823	6.19
407.029	6.29
407.236	6.29
407.442	6.32
407.649	6.45
407.855	6.43
408.061	6.41
408.268	6.37
408.474	6.41
408.68	6.36
408.887	6.35
409.093	6.25
409.299	6.23
409.505	6.18
409.712	5.98
409.918	6.08
410.124	5.99
410.33	5.88
410.537	5.87
410.743	5.91
410.949	6
411.155	5.89
411.361	5.79
411.567	5.81
411.773	6.06
411.98	6.15
412.186	6.07
412.392	5.95
412.598	6.05
412.804	5.88
413.01	5.92
413.216	5.81
413.422	5.78
413.628	5.86
413.834	5.88
414.04	5.73
414.246	5.8
414.452	5.94
414.658	6.07
414.864	5.91
415.07	5.96
415.275	5.95
415.481	5.86
415.687	5.76
415.893	5.72
416.099	5.6
416.305	5.66
416.511	5.55
416.716	5.33
416.922	5.3
417.128	5.43
417.334	5.41
417.539	5.28
417.745	5.29
417.951	5.35
418.157	5.35
418.362	5.38
418.568	5.28
418.774	5.26
418.979	5.35
419.185	5.28
419.391	5.18
419.596	5.1
419.802	5.15
420.008	5.17
420.213	5.79
420.419	5.79
420.624	5.78
420.83	5.81
421.035	5.86
421.241	5.75
421.446	5.8
421.652	5.81
421.857	5.95
422.063	5.89
422.268	5.92
422.474	5.22
422.679	5.16
422.885	5.17
423.09	5.14
423.295	5.06
423.501	5.09
423.706	5.09
423.911	5.12
424.117	5.03
424.322	5.01
424.527	4.93
424.733	4.98
424.938	5.04
425.143	4.93
425.349	4.89
425.554	4.84
425.759	4.88
425.964	4.8
426.169	4.7
426.375	4.73
426.58	4.86
426.785	4.9
426.99	4.91
427.195	4.91
427.4	4.94
427.605	4.89
427.811	5.03
428.016	4.84
428.221	4.88
428.426	4.83
428.631	4.79
428.836	4.71
429.041	4.76
429.246	4.72
429.451	4.68
429.656	4.73
429.861	4.81
430.066	4.8
430.271	4.88
430.476	4.79
430.681	4.82
430.886	4.83
431.09	4.74
431.295	4.64
431.5	4.55
431.705	4.55
431.91	4.48
432.115	4.49
432.32	4.43
432.524	4.41
432.729	4.35
432.934	4.5
433.139	4.51
433.343	4.62
433.548	4.65
433.753	4.7
433.958	4.71
434.162	4.76
434.367	4.84
434.572	4.93
434.776	4.98
434.981	5.16
435.186	5.08
435.39	4.99
435.595	4.89
435.799	4.88
436.004	4.94
436.209	4.87
436.413	4.93
436.618	4.82
436.822	4.81
437.027	4.79
437.231	4.72
437.436	4.7
437.64	4.65
437.845	4.71
438.049	4.71
438.253	4.73
438.458	4.82
438.662	4.76
438.867	4.74
439.071	4.74
439.275	4.76
439.48	4.77
439.684	4.8
439.888	4.83
440.093	4.83
440.297	4.81
440.501	4.74
440.706	4.63
440.91	4.7
441.114	4.74
441.318	4.81
441.523	4.73
441.727	4.82
441.931	4.77
442.135	4.96
442.339	4.89
442.543	4.9
442.748	4.93
442.952	4.96
443.156	4.86
443.36	4.82
443.564	4.64
443.768	4.65
443.972	4.51
444.176	4.49
444.38	4.34
444.584	4.38
444.788	4.43
444.992	4.44
445.196	4.43
445.4	4.41
445.604	4.35
445.808	4.38
446.012	4.36
446.216	4.35
446.42	4.3
446.624	4.31
446.828	4.32
447.032	4.28
447.235	4.2
447.439	4.2
447.643	4.22
447.847	4.29
448.051	4.25
448.254	4.3
448.458	4.35
448.662	4.44
448.866	4.46
449.069	4.42
449.273	4.34
449.477	4.34
449.681	4.33
449.884	4.27
450.088	4.26
450.292	4.35
450.495	4.26
450.699	4.33
450.902	4.28
451.106	4.19
451.31	4.18
451.513	4.23
451.717	4.25
451.92	4.28
452.124	4.32
452.327	4.35
452.531	4.31
452.734	4.41
452.938	4.35
453.141	4.27
453.345	4.32
453.548	4.39
453.752	4.45
453.955	4.53
454.158	4.43
454.362	4.49
454.565	4.51
454.769	4.54
454.972	4.58
455.175	4.61
455.379	4.71
455.582	4.74
455.785	4.61
455.988	4.48
456.192	4.51
456.395	4.59
456.598	4.52
456.801	4.44
457.005	4.32
457.208	4.32
457.411	4.31
457.614	4.29
457.817	4.26
458.021	4.3
458.224	4.37
458.427	4.31
458.63	4.32
458.833	4.37
459.036	4.37
459.239	4.41
459.442	4.35
459.645	4.4
459.848	4.46
460.051	4.59
460.254	4.65
460.457	4.7
460.66	4.7
460.863	4.75
461.066	4.73
461.269	4.71
461.472	4.88
461.675	4.91
461.878	4.86
462.081	4.81
462.284	4.74
462.486	4.65
462.689	4.63
462.892	4.69
463.095	4.63
463.298	4.68
463.5	4.66
463.703	4.56
463.906	4.54
464.109	4.52
464.311	4.56
464.514	4.56
464.717	4.58
464.92	4.5
465.122	4.49
465.325	4.54
465.528	4.55
465.73	4.66
465.933	4.71
466.135	4.74
466.338	4.76
466.541	4.7
466.743	4.69
466.946	4.76
467.148	4.88
467.351	4.86
467.553	4.84
467.756	4.76
467.958	4.82
468.161	4.84
468.363	4.82
468.566	4.74
468.768	4.78
468.971	4.74
469.173	4.67
469.375	4.61
469.578	4.53
469.78	4.51
469.983	4.56
470.185	4.48
470.387	4.43
470.59	4.42
470.792	4.61
470.994	4.66
471.196	4.7
471.399	4.83
471.601	4.86
471.803	5.03
472.005	5.1
472.208	5.1
472.41	5.07
472.612	5.09
472.814	4.99
473.016	4.89
473.218	4.84
473.421	4.75
473.623	4.7
473.825	4.69
474.027	4.61
474.229	4.61
474.431	4.6
474.633	4.62
474.835	4.61
475.037	4.74
475.239	4.66
475.441	4.75
475.643	4.78
475.845	4.7
476.047	4.65
476.249	4.75
476.451	4.7
476.653	4.69
476.855	4.72
477.057	4.76
477.258	4.84
477.46	4.97
477.662	4.94
477.864	5
478.066	5
478.268	5.01
478.469	4.91
478.671	4.88
478.873	4.91
479.075	5
479.276	4.93
479.478	4.85
479.68	4.8
479.882	4.82
480.083	4.82
480.285	4.87
480.487	4.83
480.688	4.84
480.89	4.83
481.091	4.82
481.293	4.74
481.495	4.75
481.696	4.71
481.898	4.69
482.099	4.67
482.301	4.67
482.502	4.62
482.704	4.61
482.905	4.58
483.107	4.54
483.308	4.55
483.51	4.56
483.711	4.55
483.913	4.56
484.114	4.55
484.315	4.53
484.517	4.53
484.718	4.53
484.92	4.56
485.121	4.61
485.322	4.66
485.524	4.64
485.725	4.64
485.926	4.66
486.127	4.65
486.329	4.71
486.53	4.7
486.731	4.67
486.932	4.68
487.134	4.68
487.335	4.69
487.536	4.72
487.737	4.74
487.938	4.73
488.139	4.72
488.341	4.77
488.542	4.77
488.743	4.82
488.944	4.82
489.145	4.84
489.346	4.88
489.547	4.83
489.748	4.84
489.949	4.83
490.15	4.87
490.351	4.87
490.552	4.86
490.753	4.85
490.954	4.83
491.155	4.87
491.356	4.88
491.557	4.89
491.758	4.95
491.959	4.89
492.159	4.9
492.36	4.9
492.561	4.91
492.762	4.91
492.963	4.9
493.164	5
493.364	4.97
493.565	4.97
493.766	4.9
493.967	4.93
494.167	5.05
494.368	5.03
494.569	5.05
494.769	5.1
494.97	5.09
495.171	5.11
495.371	5
495.572	5.03
495.773	5.11
495.973	5.16
496.174	5.17
496.375	5.17
496.575	5.17
496.776	5.18
496.976	5.22
497.177	5.28
497.377	5.29
497.578	5.3
497.778	5.37
497.979	5.39
498.179	5.43
498.38	5.41
498.58	5.44
498.78	5.58
498.981	5.59
499.181	5.61
499.382	5.57
499.582	5.6
499.782	5.69
499.983	5.72
500.183	5.67
500.383	5.74
500.584	5.71
500.784	5.67
500.984	5.7
501.184	5.76
501.385	5.75
501.585	5.9
501.785	5.89
501.985	5.96
502.185	5.93
502.386	5.97
502.586	5.91
502.786	6.03
502.986	6.14
503.186	6.03
503.386	5.99
503.586	5.91
503.786	5.86
503.987	5.94
504.187	5.86
504.387	5.91
504.587	5.94
504.787	5.97
504.987	5.95
505.187	5.94
505.387	6.02
505.587	6.04
505.786	6.16
505.986	6.2
506.186	6.19
506.386	6.27
506.586	6.23
506.786	6.26
506.986	6.27
507.186	6.24
507.386	6.2
507.585	6.23
507.785	6.24
507.985	6.17
508.185	6.11
508.384	6.17
508.584	6.23
508.784	6.25
508.984	6.35
509.183	6.39
509.383	6.42
509.583	6.46
509.782	6.49
509.982	6.6
510.182	6.65
510.381	6.78
510.581	6.82
510.781	6.86
510.98	6.93
511.18	6.92
511.379	7.01
511.579	7.15
511.778	7.18
511.978	7.2
512.177	7.21
512.377	7.32
512.576	7.3
512.776	7.27
512.975	7.25
513.175	7.25
513.374	7.32
513.573	7.29
513.773	7.16
513.972	7.21
514.172	7.24
514.371	7.3
514.57	7.31
514.77	7.44
514.969	7.49
515.168	7.58
515.367	7.65
515.567	7.65
515.766	7.66
515.965	7.74
516.164	7.75
516.364	7.8
516.563	7.78
516.762	7.79
516.961	7.72
517.16	7.77
517.359	7.68
517.559	7.72
517.758	7.75
517.957	7.82
518.156	7.93
518.355	7.93
518.554	7.97
518.753	8.02
518.952	8.06
519.151	8.13
519.35	8.13
519.549	8.21
519.748	8.19
519.947	8.22
520.146	8.27
520.345	8.18
520.544	8.32
520.743	8.35
520.942	8.43
521.141	8.5
521.339	8.53
521.538	8.58
521.737	8.67
521.936	8.78
522.135	8.8
522.333	8.79
522.532	8.84
522.731	8.82
522.93	8.73
523.129	8.7
523.327	8.69
523.526	8.67
523.725	8.7
523.923	8.74
524.122	8.72
524.321	8.71
524.519	8.71
524.718	8.73
524.917	8.71
525.115	8.83
525.314	8.91
525.512	8.91
525.711	8.91
525.909	8.87
526.108	8.84
526.306	8.82
526.505	8.82
526.703	8.86
526.902	8.88
527.1	8.9
527.299	8.92
527.497	8.93
527.696	8.96
527.894	9.05
528.092	9.08
528.291	9.15
528.489	9.19
528.688	9.24
528.886	9.29
529.084	9.33
529.283	9.41
529.481	9.41
529.679	9.42
529.877	9.49
530.076	9.43
530.274	9.47
530.472	9.45
530.67	9.51
530.869	9.52
531.067	9.48
531.265	9.53
531.463	9.52
531.661	9.56
531.859	9.57
532.057	9.58
532.255	9.64
532.454	9.75
532.652	9.74
532.85	9.78
533.048	9.86
533.246	9.94
533.444	9.96
533.642	10.03
533.84	10.08
534.038	10.13
534.236	10.17
534.434	10.18
534.632	10.14
534.83	10.27
535.027	10.25
535.225	10.24
535.423	10.2
535.621	10.22
535.819	10.22
536.017	10.27
536.215	10.3
536.412	10.28
536.61	10.39
536.808	10.45
537.006	10.45
537.203	10.5
537.401	10.55
537.599	10.62
537.797	10.67
537.994	10.74
538.192	10.7
538.39	10.72
538.587	10.73
538.785	10.71
538.983	10.69
539.18	10.68
539.378	10.71
539.575	10.69
539.773	10.7
539.97	10.7
540.168	10.66
540.366	10.7
540.563	10.72
540.761	10.76
540.958	10.76
541.155	10.8
541.353	10.85
541.55	10.89
541.748	10.96
541.945	11.05
542.143	11.08
542.34	11.16
542.537	11.19
542.735	11.24
542.932	11.31
543.129	11.38
543.327	11.42
543.524	11.44
543.721	11.46
543.919	11.51
544.116	11.51
544.313	11.63
544.51	11.69
544.708	11.79
544.905	11.79
545.102	11.73
545.299	11.75
545.496	11.76
545.693	11.83
545.891	11.85
546.088	11.94
546.285	11.97
546.482	11.98
546.679	12.02
546.876	12.09
547.073	12.18
547.27	12.29
547.467	12.38
547.664	12.47
547.861	12.5
548.058	12.59
548.255	12.58
548.452	12.69
548.649	12.73
548.846	12.89
549.043	12.8
549.24	12.87
549.437	12.87
549.633	12.93
549.83	12.94
550.027	12.99
550.224	13.04
550.421	13.17
550.618	13.14
550.814	13.13
551.011	13.07
551.208	13.18
551.405	13.29
551.601	13.43
551.798	13.53
551.995	13.6
552.191	13.76
552.388	13.86
552.585	13.9
552.781	13.94
552.978	14.03
553.175	14.1
553.371	14.17
553.568	14.22
553.764	14.27
553.961	14.22
554.157	14.32
554.354	14.23
554.55	14.22
554.747	14.25
554.943	14.29
555.14	14.47
555.336	14.51
555.533	14.52
555.729	14.46
555.926	14.51
556.122	14.62
556.318	14.64
556.515	14.81
556.711	14.82
556.907	14.85
557.104	15.07
557.3	15.09
557.496	15.19
557.693	15.35
557.889	15.37
558.085	15.37
558.281	15.5
558.478	15.65
558.674	15.66
558.87	15.74
559.066	15.71
559.262	15.77
559.459	15.76
559.655	15.85
559.851	15.79
560.047	15.92
560.243	15.9
560.439	15.89
560.635	15.75
560.831	15.8
561.027	15.92
561.223	15.99
561.419	15.84
561.615	15.79
561.811	15.78
562.007	15.97
562.203	16.01
562.399	16.14
562.595	16.17
562.791	16.33
562.987	16.46
563.183	16.52
563.379	16.53
563.575	16.64
563.771	16.81
563.966	16.86
564.162	16.82
564.358	16.94
564.554	16.99
564.75	17.08
564.945	17.18
565.141	17.15
565.337	17.2
565.533	17.29
565.728	17.43
565.924	17.51
566.12	17.54
566.315	17.67
566.511	17.71
566.707	17.7
566.902	17.75
567.098	17.77
567.293	17.92
567.489	18.03
567.684	18.02
567.88	18.03
568.076	17.93
568.271	18.05
568.467	18.08
568.662	18.25
568.858	18.48
569.053	18.63
569.248	18.63
569.444	18.65
569.639	18.61
569.835	18.69
570.03	18.78
570.225	18.89
570.421	18.89
570.616	18.96
570.812	18.96
571.007	18.99
571.202	18.99
571.397	19.12
571.593	19.18
571.788	19.26
571.983	19.44
572.178	19.44
572.374	19.63
572.569	19.78
572.764	19.88
572.959	19.9
573.154	19.92
573.35	19.92
573.545	19.94
573.74	19.94
573.935	20.02
574.13	20.04
574.325	20.13
574.52	20.15
574.715	20.15
574.91	20.11
575.105	20.25
575.3	20.33
575.495	20.52
575.69	20.59
575.885	20.66
576.08	20.64
576.275	20.73
576.47	20.74
576.665	20.77
576.86	20.82
577.055	20.98
577.25	21
577.444	21.15
577.639	21.28
577.834	21.27
578.029	21.27
578.224	21.32
578.418	21.54
578.613	21.72
578.808	21.76
579.003	21.82
579.197	21.84
579.392	21.86
579.587	21.83
579.781	21.7
579.976	21.83
580.171	22.17
580.365	22.29
580.56	22.08
580.755	22.09
580.949	22.09
581.144	22.17
581.338	22.22
581.533	22.34
581.727	22.4
581.922	22.43
582.116	22.42
582.311	22.3
582.505	22.33
582.7	22.5
582.894	22.51
583.089	22.53
583.283	22.4
583.478	22.41
583.672	22.43
583.866	22.53
584.061	22.51
584.255	22.62
584.449	22.7
584.644	22.83
584.838	22.88
585.032	23.14
585.226	23.4
585.421	23.58
585.615	23.53
585.809	23.59
586.003	23.59
586.198	23.65
586.392	23.73
586.586	23.76
586.78	23.87
586.974	23.98
587.168	23.81
587.363	23.63
587.557	23.67
587.751	23.66
587.945	23.62
588.139	23.57
588.333	23.72
588.527	23.65
588.721	23.65
588.915	23.48
589.109	23.23
589.303	23.25
589.497	23.3
589.691	23.23
589.885	23.38
590.079	23.37
590.273	23.36
590.466	23.38
590.66	23.46
590.854	23.67
591.048	23.89
591.242	23.99
591.436	24.12
591.629	24.12
591.823	24.32
592.017	24.47
592.211	24.6
592.404	24.68
592.598	24.57
592.792	24.68
592.986	24.55
593.179	24.47
593.373	24.5
593.567	24.4
593.76	24.46
593.954	24.31
594.147	24.36
594.341	24.31
594.535	24.29
594.728	24.53
594.922	24.47
595.115	24.5
595.309	24.56
595.502	24.59
595.696	24.69
595.889	24.89
596.083	25.04
596.276	24.95
596.47	25.05
596.663	25.1
596.856	25.16
597.05	25.23
597.243	25.23
597.437	25.33
597.63	25.37
597.823	25.37
598.017	25.25
598.21	25.26
598.403	25.34
598.596	25.33
598.79	25.4
598.983	25.24
599.176	25.23
599.369	25.17
599.563	25.14
599.756	25.18
599.949	25.21
600.142	25.19
600.335	25.23
600.528	25.42
600.722	25.47
600.915	25.42
601.108	25.54
601.301	25.59
601.494	25.75
601.687	25.87
601.88	25.84
602.073	25.76
602.266	25.85
602.459	25.89
602.652	25.71
602.845	25.71
603.038	25.91
603.231	25.89
603.424	25.86
603.617	25.8
603.809	25.7
604.002	25.7
604.195	25.93
604.388	25.91
604.581	25.81
604.774	25.89
604.966	25.81
605.159	25.63
605.352	25.57
605.545	25.55
605.737	25.63
605.93	25.66
606.123	25.83
606.316	25.82
606.508	25.71
606.701	25.93
606.894	26.06
607.086	26.3
607.279	26.32
607.471	26.41
607.664	26.63
607.857	26.69
608.049	26.73
608.242	26.7
608.434	26.75
608.627	26.86
608.819	26.78
609.012	26.75
609.204	26.65
609.397	26.7
609.589	26.79
609.782	26.7
609.974	26.66
610.166	26.67
610.359	26.78
610.551	26.69
610.743	26.63
610.936	26.69
611.128	26.59
611.32	26.65
611.513	26.54
611.705	26.54
611.897	26.62
612.09	26.62
612.282	26.6
612.474	26.58
612.666	26.49
612.858	26.73
613.051	26.72
613.243	26.9
613.435	26.94
613.627	27.14
613.819	26.98
614.011	27.21
614.203	27.19
614.395	27.4
614.588	27.38
614.78	27.4
614.972	27.32
615.164	27.21
615.356	27.11
615.548	27.14
615.74	27.21
615.932	27.25
616.124	26.74
616.315	26.92
616.507	26.77
616.699	26.75
616.891	26.94
617.083	26.97
617.275	27.22
617.467	27.23
617.659	27.15
617.85	27.13
618.042	27.26
618.234	27.4
618.426	27.32
618.618	27.32
618.809	27.45
619.001	27.39
619.193	27.19
619.384	27.11
619.576	27.01
619.768	27.19
619.959	27.34
620.151	27.31
620.343	27.35
620.534	27.33
620.726	27.34
620.917	27.15
621.109	26.9
621.301	27.1
621.492	26.95
621.684	27.15
621.875	27.08
622.067	27.04
622.258	27.13
622.45	27.38
622.641	27.35
622.832	27.36
623.024	27.45
623.215	27.83
623.407	27.86
623.598	27.98
623.789	27.77
623.981	27.71
624.172	27.75
624.363	27.7
624.555	27.51
624.746	27.49
624.937	27.57
625.129	27.61
625.32	27.44
625.511	27.51
625.702	27.54
625.893	27.69
626.085	27.56
626.276	27.63
626.467	27.64
626.658	27.71
626.849	27.87
627.04	27.88
627.231	27.92
627.422	27.94
627.614	27.91
627.805	27.89
627.996	27.81
628.187	28.13
628.378	27.84
628.569	27.9
628.76	27.92
628.951	27.83
629.142	27.86
629.332	27.81
629.523	27.81
629.714	27.86
629.905	27.9
630.096	28.02
630.287	27.92
630.478	27.94
630.669	27.85
630.859	28.04
631.05	28.23
631.241	28.29
631.432	28.17
631.623	28.36
631.813	28.15
632.004	28.01
632.195	27.97
632.385	28.06
632.576	28.24
632.767	28.11
632.957	28.09
633.148	27.97
633.339	27.86
633.529	28.02
633.72	27.87
633.91	27.97
634.101	28.04
634.292	28.18
634.482	28.14
634.673	28.2
634.863	28.36
635.054	28.17
635.244	28.05
635.435	28.09
635.625	28.15
635.815	28.29
636.006	28.43
636.196	28.54
636.387	28.46
636.577	28.46
636.767	28.3
636.958	28.36
637.148	28.55
637.338	28.83
637.529	28.87
637.719	28.77
637.909	28.64
638.099	28.67
638.29	28.67
638.48	28.76
638.67	28.6
638.86	28.77
639.05	28.92
639.241	28.91
639.431	28.83
639.621	28.7
639.811	28.75
640.001	28.71
640.191	28.55
640.381	28.78
640.571	28.73
640.761	28.86
640.951	28.62
641.141	28.43
641.331	28.4
641.521	28.26
641.711	28.34
641.901	28.26
642.091	28.45
642.281	28.52
642.471	28.26
642.661	28.35
642.851	28.49
643.041	28.65
643.231	28.64
643.42	28.63
643.61	28.42
643.8	28.5
643.99	28.67
644.18	28.75
644.369	28.83
644.559	28.99
644.749	29.14
644.939	28.89
645.128	29.04
645.318	29.02
645.508	29.09
645.697	29.1
645.887	29.03
646.076	29.06
646.266	28.9
646.456	29.02
646.645	28.87
646.835	28.74
647.024	28.9
647.214	28.78
647.403	28.77
647.593	28.79
647.782	29.17
647.972	29.17
648.161	29.23
648.351	29.3
648.54	29.14
648.73	29.37
648.919	29.31
649.108	29.21
649.298	29.15
649.487	29.29
649.677	29.15
649.866	29.14
650.055	29.22
650.244	29.11
650.434	29.25
650.623	29.29
650.812	29.27
651.002	29.45
651.191	29.66
651.38	29.91
651.569	29.86
651.758	29.95
651.947	30.04
652.137	30.18
652.326	30.17
652.515	29.94
652.704	29.88
652.893	29.87
653.082	29.69
653.271	29.7
653.46	29.42
653.649	29.35
653.838	29.49
654.027	29.25
654.216	29.1
654.405	29.02
654.594	29.14
654.783	29.21
654.972	29.19
655.161	29.22
655.35	29.26
655.539	29.4
655.728	29.51
655.916	29.24
656.105	29.24
656.294	29.4
656.483	29.51
656.672	29.47
656.86	29.41
657.049	29.43
657.238	29.34
657.427	29.35
657.615	29.41
657.804	29.41
657.993	29.49
658.181	29.68
658.37	29.45
658.559	29.4
658.747	29.54
658.936	29.64
659.125	30.01
659.313	30.06
659.502	29.85
659.69	29.95
659.879	29.92
660.067	30.05
660.256	29.88
660.444	30.1
660.633	30.18
660.821	30.14
661.01	29.97
661.198	29.59
661.387	29.54
661.575	29.59
661.763	29.41
661.952	29.54
662.14	29.53
662.328	29.6
662.517	29.71
662.705	29.71
662.893	29.7
663.082	29.91
663.27	29.85
663.458	30.17
663.646	30.36
663.834	30.5
664.023	30.51
664.211	30.53
664.399	30.77
664.587	30.63
664.775	30.68
664.963	30.61
665.152	30.65
665.34	30.72
665.528	30.45
665.716	30.5
665.904	30.49
666.092	30.33
666.28	30.24
666.468	30.22
666.656	30.27
666.844	30.16
667.032	30.26
667.22	30.21
667.408	30.21
667.596	30.42
667.784	30.2
667.971	30.16
668.159	30.06
668.347	30.12
668.535	30.03
668.723	29.74
668.911	29.89
669.098	29.66
669.286	29.72
669.474	29.61
669.662	29.56
669.849	29.42
670.037	29.48
670.225	29.93
670.413	29.98
670.6	30.08
670.788	30.41
670.976	30.13
671.163	30.31
671.351	30.09
671.538	30.12
671.726	30
671.913	30.17
672.101	30.07
672.289	29.63
672.476	29.59
672.664	29.62
672.851	29.37
673.039	29.66
673.226	29.7
673.413	29.79
673.601	29.87
673.788	30.16
673.976	30.52
674.163	30.75
674.35	30.93
674.538	30.73
674.725	30.53
674.912	30.59
675.1	30.52
675.287	30.71
675.474	30.93
675.662	30.62
675.849	30.43
676.036	30.31
676.223	30.37
676.411	30.37
676.598	30.44
676.785	30.49
676.972	31.01
677.159	31.14
677.346	31.05
677.533	30.91
677.721	31.22
677.908	31.15
678.095	31.03
678.282	30.99
678.469	31.08
678.656	31.39
678.843	31.55
679.03	31.18
679.217	31.17
679.404	31.28
679.591	31.28
679.778	31.17
679.964	31.14
680.151	31.12
680.338	31.11
680.525	30.96
680.712	30.63
680.899	30.43
681.086	30.66
681.272	30.57
681.459	30.5
681.646	30.41
681.833	30.57
682.02	30.83
682.206	30.73
682.393	30.5
682.58	30.59
682.766	30.84
682.953	30.83
683.14	30.57
683.326	31.01
683.513	31.09
683.7	31.61
683.886	31.44
684.073	31.34
684.259	31.47
684.446	31.56
684.632	31.66
684.819	31.5
685.005	31.53
685.192	31.91
685.378	31.51
685.565	31.31
685.751	30.75
685.938	30.83
686.124	30.72
686.31	31
686.497	31.15
686.683	30.92
686.87	30.77
687.056	30.77
687.242	30.44
687.429	30.29
687.615	30.18
687.801	30.3
687.987	30.31
688.174	30.4
688.36	30.35
688.546	30.21
688.732	30.38
688.918	30.82
689.105	30.74
689.291	30.88
689.477	31.21
689.663	31.33
689.849	31.37
690.035	31.34
690.221	31.43
690.407	31.62
690.593	31.79
690.779	32.13
690.965	31.95
691.151	32.23
691.337	31.98
691.523	31.98
691.709	32.46
691.895	32.66
692.081	32.68
692.267	32.4
692.453	32.01
692.639	31.78
692.825	31.43
693.011	31.27
693.196	31.1
693.382	31.01
693.568	30.8
693.754	30.53
693.94	30.49
694.125	30.71
694.311	30.83
694.497	30.88
694.682	30.99
694.868	31.22
695.054	31.46
695.239	31.51
695.425	31.79
695.611	31.69
695.796	31.42
695.982	31.06
696.168	30.73
696.353	30.81
696.539	30.69
696.724	30.53
696.91	30.55
697.095	30.55
697.281	30.48
697.466	30.44
697.652	30.6
697.837	30.64
698.023	30.77
698.208	30.88
698.393	31.04
698.579	31.19
698.764	31.33
698.949	31.32
699.135	31.33
699.32	31.58
699.505	31.55
699.691	31.54
699.876	31.48
700.061	31.61
700.246	31.46
700.432	31.17
700.617	31.11
700.802	30.97
700.987	31.06
701.172	30.92
701.358	30.72
701.543	30.62
701.728	30.06
701.913	30.18
702.098	29.82
702.283	30.46
702.468	30.73
702.653	30.64
702.838	30.83
703.023	30.43
703.208	30.51
703.393	30.72
703.578	31.22
703.763	31.8
703.948	31.83
704.133	31.98
704.318	31.75
704.503	31.57
704.688	31.27
704.873	31.2
705.057	31.43
705.242	31.49
705.427	31.15
705.612	30.99
705.797	31.08
705.981	31.28
706.166	31.32
706.351	31.24
706.536	31.44
706.72	31.92
706.905	31.93
707.09	31.85
707.274	31.91
707.459	32.06
707.644	31.93
707.828	32.01
708.013	31.8
708.197	31.89
708.382	31.65
708.567	31.62
708.751	31.44
708.936	31.5
709.12	31.65
709.305	31.42
709.489	31.44
709.673	31.62
709.858	31.43
710.042	31.71
710.227	31.77
710.411	32.01
710.596	31.89
710.78	31.79
710.964	31.76
711.149	31.86
711.333	31.61
711.517	31.58
711.702	31.27
711.886	31.32
712.07	31.37
712.254	31.38
712.438	31.15
712.623	30.91
712.807	31.31
712.991	31.6
713.175	31.36
713.359	31.7
713.544	32.02
713.728	32.43
713.912	32.47
714.096	32.27
714.28	32.15
714.464	32.19
714.648	32.57
714.832	31.92
715.016	31.26
715.2	31.47
715.384	31.35
715.568	30.97
715.752	30.72
715.936	30.59
716.12	30.74
716.304	30.77
716.488	30.87
716.671	30.72
716.855	31.46
717.039	31.77
717.223	31.73
717.407	31.86
717.59	32.1
717.774	32.33
717.958	32.48
718.142	32.22
718.325	32.16
718.509	32
718.693	31.92
718.877	31.46
719.06	31.79
719.244	31.79
719.428	31.82
719.611	31.75
719.795	31.39
719.978	31.58
720.162	31.6
720.345	31.87
720.529	32.35
720.713	32.46
720.896	32.47
721.08	32.45
721.263	32.39
721.446	32.31
721.63	32.07
721.813	32.27
721.997	32.3
722.18	32.17
722.364	31.96
722.547	31.37
722.73	31.29
722.914	31.24
723.097	31.03
723.28	30.72
723.464	31.18
723.647	31.2
723.83	31.07
724.013	30.81
724.197	30.57
724.38	30.24
724.563	30.17
724.746	30.21
724.929	30.72
725.112	30.36
725.296	30.29
725.479	29.94
725.662	30.17
725.845	30.49
726.028	30.83
726.211	31.2
726.394	31.58
726.577	31.99
726.76	31.9
726.943	31.67
727.126	31.44
727.309	32.04
727.492	32.5
727.675	32.54
727.858	32.64
728.041	32.41
728.224	32.41
728.407	32.12
728.589	32.21
728.772	32.14
728.955	32.32
729.138	32.91
729.321	32.87
729.503	32.54
729.686	32.45
729.869	32.18
730.052	31.93
730.234	31.74
730.417	32.12
730.6	32.09
730.782	31.79
730.965	31.66
731.148	31.95
731.33	31.71
731.513	31.47
731.695	31.35
731.878	31.19
732.061	31.22
732.243	31.13
732.426	31.13
732.608	31.56
732.791	31.75
732.973	31.89
733.156	31.66
733.338	31.84
733.52	31.92
733.703	31.65
733.885	31.97
734.068	32.16
734.25	32.22
734.432	31.89
734.615	31.87
734.797	32.09
734.979	31.84
735.162	31.66
735.344	31.5
735.526	31.46
735.708	32.19
735.891	32.07
736.073	31.97
736.255	32.37
736.437	32.5
736.619	32.08
736.802	32.32
736.984	32.4
737.166	32.85
737.348	32.43
737.53	32.35
737.712	32.01
737.894	31.87
738.076	32.03
738.258	31.6
738.44	32.08
738.622	32.07
738.804	31.84
738.986	31.39
739.168	30.84
739.35	30.77
739.532	31.2
739.714	31.09
739.896	31.11
740.078	31.03
740.259	31.51
740.441	31.33
740.623	31.16
740.805	30.77
740.987	31.3
741.168	31.34
741.35	31.78
741.532	31.61
741.714	31.38
741.895	31.27
742.077	31.35
742.259	31.45
742.44	31.88
742.622	32.36
742.804	32.7
742.985	32.76
743.167	32.44
743.348	32.11
743.53	31.73
743.711	31.79
743.893	31.97
744.075	31.55
744.256	31.46
744.438	31.21
744.619	30.76
744.8	30.69
744.982	30.11
745.163	31.06
745.345	31.41
745.526	32.11
745.707	32.92
745.889	33.24
746.07	33.89
746.252	33.68
746.433	33.27
746.614	33.08
746.795	33.51
746.977	33.9
747.158	33.61
747.339	33.86
747.52	33.77
747.702	33.62
747.883	33.34
748.064	33.17
748.245	33.39
748.426	33.57
748.607	34.02
748.788	34.12
748.97	34.29
749.151	34.4
749.332	34.19
749.513	33.89
749.694	33.1
749.875	33.66
750.056	33.64
750.237	33.86
750.418	32.82
750.599	32.31
750.78	32.11
750.96	32.19
751.141	32.25
751.322	31.99
751.503	31.91
751.684	32.79
751.865	32.12
752.046	32.19
752.226	31.61
752.407	32.92
752.588	33.11
752.769	32.68
752.949	33.21
753.13	33.13
753.311	34.15
753.492	34.52
753.672	34
753.853	34.19
754.034	34.02
754.214	34.03
754.395	33.27
754.575	33.72
754.756	33.97
754.937	33.53
755.117	32.66
755.298	31.76
755.478	31.15
755.659	31.62
755.839	31.92
756.02	31.57
756.2	31.8
756.381	31.26
756.561	30.54
756.741	30.55
756.922	30.55
757.102	31.16
757.283	31.6
757.463	31.77
757.643	31.11
757.823	30.92
758.004	30.75
758.184	30.31
758.364	31.23
758.545	31.81
758.725	32.12
758.905	31.81
759.085	31.65
759.265	31.24
759.446	31.32
759.626	32.06
759.806	32.01
759.986	32.53
760.166	32.69
760.346	32.89
760.526	33
760.706	32.89
760.886	32.61
761.066	32.9
761.246	33.28
761.426	33.15
761.606	32.74
761.786	33
761.966	33.11
762.146	33.29
762.326	32.85
762.506	32.84
762.686	32.88
762.866	33.03
763.046	32.99
763.225	32.55
763.405	32.52
763.585	32.64
763.765	32.43
763.945	32.3
764.124	32.4
764.304	32.91
764.484	32.81
764.664	32.71
764.843	33.04
765.023	32.87
765.203	32.87
765.382	33.23
765.562	33.08
765.741	33.24
765.921	33.26
766.101	33.36
766.28	32.79
766.46	32.91
766.639	32.43
766.819	32.02
766.998	32.5
767.178	33.07
767.357	32.76
767.537	33.33
767.716	33.35
767.896	33.2
768.075	32.83
768.254	33.03
768.434	32.58
768.613	33.67
768.792	33.8
768.972	33.54
769.151	33.53
769.33	33.96
769.51	33.52
769.689	33.36
769.868	33.78
770.047	34.34
770.226	34.14
770.406	33.88
770.585	33.16
770.764	32.56
770.943	32.23
771.122	31.57
771.301	30.85
771.48	30.76
771.66	29.74
771.839	29.28
772.018	28.69
772.197	29.01
772.376	30.43
772.555	30.3
772.734	30.05
772.913	30.49
773.092	31.45
773.271	31.8
773.449	31.4
773.628	32.64
773.807	33.35
773.986	33.3
774.165	33.29
774.344	31.58
774.523	31.43
774.701	32.45
774.88	31.34
775.059	31.35
775.238	31.88
775.417	32.3
775.595	31.5
775.774	30.41
775.953	29.87
776.131	29.58
776.31	29.93
776.489	30.03
776.667	29.71
776.846	30.48
777.025	29.86
777.203	29.45
777.382	29.26
777.56	29.7
777.739	29.99
777.917	31.1
778.096	31.82
778.274	32.15
778.453	32.2
778.631	32.58
778.81	32.65
778.988	32.47
779.166	31.25
779.345	31.55
779.523	32.35
779.702	32.81
779.88	32.45
780.058	31.42
780.237	31
780.415	31.66
780.593	31.16
780.771	31.21
780.95	31.28
781.128	32.54
781.306	32.93
781.484	31.97
781.662	31.23
781.841	30.99
782.019	31.35
782.197	30.77
782.375	30.37
782.553	31.22
782.731	30.58
782.909	30.59
783.087	30.48
783.265	30.31
783.443	30.7
783.621	31.76
783.799	33.19
783.977	33.12
784.155	34.09
784.333	34.47
784.511	34.09
784.689	34.85
784.867	35.76
785.045	35.84
785.223	34.98
785.4	34.8
785.578	33.88
785.756	31.67
785.934	31.73
786.112	32.51
786.289	32.14
786.467	31.38
786.645	31.19
786.823	30.54
787	30.64
787.178	30.61
787.356	29.88
787.533	30.39
787.711	30.55
787.889	30.73
788.066	30.2
788.244	30.8
788.421	31.09
788.599	31.47
788.776	31.53
788.954	31.12
789.131	31.94
789.309	33.11
789.486	33.43
789.664	33.03
789.841	33.59
790.019	33.51
790.196	33
790.373	32.44
790.551	32.2
790.728	31.43
790.906	31.39
791.083	32.04
791.26	32.14
791.437	30.71
791.615	31.82
791.792	30.35
791.969	30.09
792.146	29.74
792.324	30.89
792.501	32.88
792.678	33.03
792.855	33.24
793.032	31.75
793.209	31.39
793.387	31.88
793.564	31.64
793.741	32.33
793.918	33.01
794.095	33.32
794.272	33.75
794.449	31.18
794.626	32.27
794.803	32.47
794.98	32.73
795.157	33.17
795.334	32.6
795.511	33.06
795.688	32.57
795.864	32.15
796.041	31.81
796.218	31.33
796.395	32.07
796.572	31.62
796.749	31.49
796.925	31.35
797.102	31
797.279	32.51
797.456	32.02
797.632	32.52
797.809	32.38
797.986	32.01
798.162	31.29
798.339	30.91
798.516	30.36
798.692	30.08
798.869	30.73
799.046	30.61
799.222	30.47
799.399	30.84
799.575	30.53
799.752	31.32
799.928	31.56
800.105	31.98
800.281	31.88
800.458	33.12
800.634	34.21
800.811	33.41
800.987	33.87
801.163	34.44
801.34	34.93
801.516	34.8
801.692	34.39
801.869	34.23
802.045	34.76
802.221	34.78
802.398	34.04
802.574	32.91
802.75	32.58
802.926	32.1
803.103	30.99
803.279	30.07
803.455	31.32
803.631	30.78
803.807	30.11
803.983	30.76
804.16	31.79
804.336	32.34
804.512	33.64
804.688	34.25
804.864	34.91
805.04	35.66
805.216	35.31
805.392	34.63
805.568	34.65
805.744	35.61
805.92	34.47
806.096	34.04
806.272	33.59
806.448	33.75
806.623	33.39
806.799	32.96
806.975	32.52
807.151	33.11
807.327	33.4
807.503	33.43
807.678	33.54
807.854	34.85
808.03	34.17
808.206	33.93
808.381	32.83
808.557	32.83
808.733	33.23
808.908	31.35
809.084	31.58
809.26	30.55
809.435	30.78
809.611	30.84
809.787	30.23
809.962	31.16
810.138	31.58
810.313	31.49
810.489	32.72
810.664	31.61
810.84	33.25
811.015	32.58
811.191	32.81
811.366	33.01
811.542	32.54
811.717	32.33
811.892	32.49
812.068	32.6
812.243	31.9
812.419	30.26
812.594	30.15
812.769	30.43
812.944	30.84
813.12	30.89
813.295	32.82
813.47	33.62
813.645	34.63
813.821	33.64
813.996	34.16
814.171	36.52
814.346	37.11
814.521	37.57
814.697	37.03
814.872	36.92
815.047	36.15
815.222	35.44
815.397	35.17
815.572	33.81
815.747	34.28
815.922	32.38
816.097	31.5
816.272	31.57
816.447	31.42
816.622	30.84
816.797	31.37
816.972	32.86
817.147	31.75
817.322	31.32
817.496	31.77
817.671	32.05
817.846	32.4
818.021	31.35
818.196	31.62
818.371	31.94
818.545	33.01
818.72	33.01
818.895	32.94
819.069	32.09
819.244	32.24
819.419	32.58
819.594	32.53
819.768	32.83
819.943	32.99
820.117	32.71
820.292	32.29
820.467	32.34
820.641	32.58
820.816	32.32
820.99	32.84
821.165	32.66
821.339	32.53
821.514	32.32
821.688	32.69
821.863	32.81
822.037	32.89
822.212	33.01
822.386	33
822.56	33.05
822.735	33.22
822.909	33.49
823.084	34.09
823.258	34.18
823.432	34.44
823.606	34.48
823.781	34.56
823.955	34.67
824.129	34.78
824.303	34.93
824.478	34.97
824.652	35.12
824.826	34.37
825	33.57
825.174	33.52
825.348	33.66
825.523	33.01
825.697	33.04
825.871	32.76
826.045	32.84
826.219	32.8
826.393	32.58
826.567	32.55
826.741	33.05
826.915	33.02
827.089	32.79
827.263	32.4
827.437	32.82
827.611	32.6
827.784	33.25
827.958	33.64
828.132	33.61
828.306	34.14
828.48	34.32
828.654	34.22
828.827	34.75
829.001	34.53
829.175	35.09
829.349	34.55
829.522	34.05
829.696	33.11
829.87	32.65
830.044	32.9
830.217	31.99
830.391	32.25
830.565	30.91
830.738	30.75
830.912	31.27
831.085	31.12
831.259	30.59
831.432	31.29
831.606	31.51
831.779	30.84
831.953	30.12
832.126	30.27
832.3	29.66
832.473	31.38
832.647	31.69
832.82	31.78
832.994	31.52
833.167	32.54
833.34	32.79
833.514	32.98
833.687	33.78
833.86	34.25
834.034	34.57
834.207	34.29
834.38	34.02
834.553	34.04
834.727	34.06
834.9	33.59
835.073	33.33
835.246	33.92
835.419	33.86
835.593	32.93
835.766	32.54
835.939	31.8
836.112	31.08
836.285	30.44
836.458	29.75
836.631	29.76
836.804	30.37
836.977	30.36
837.15	30.39
837.323	30.89
837.496	31.24
837.669	30.19
837.842	31.08
838.015	32.36
838.188	32.07
838.361	32.98
838.533	32.36
838.706	33.79
838.879	33.55
839.052	32.72
839.225	31.51
839.398	29.99
839.57	31.3
839.743	30.05
839.916	30.85
840.088	32.91
840.261	31.45
840.434	32.02
840.607	29.72
840.779	30.45
840.952	29.72
841.124	30.55
841.297	33.01
841.47	32.76
841.642	34.01
841.815	32.1
841.987	31.16
842.16	31.12
842.332	29.7
842.505	30.08
842.677	28.45
842.85	28.97
843.022	28.48
843.194	25.13
843.367	25.72
843.539	24.84
843.712	25.38
843.884	25.98
844.056	27.59
844.229	31.43
844.401	32.93
844.573	32.7
844.745	34.3
844.918	32.03
845.09	31.51
845.262	30.58
845.434	28.81
845.606	29.59
845.779	29.09
845.951	27.44
846.123	23.03
846.295	23.99
846.467	26.29
846.639	23.79
846.811	26.58
846.983	30.78
847.155	30.86
847.327	34.66
847.499	36.3
847.671	36.71
847.843	36.96
848.015	42.01
848.187	38.44
848.359	36.18
848.531	37.8
848.703	39.26
848.875	38.93
849.047	40.89
849.218	38.76
849.39	38.25
849.562	36.55
849.734	37.93
849.905	37.81
850.077	39.69
850.249	42.1
850.421	41.51
850.592	40.11
850.764	40.92
850.936	37.05
851.107	37.66
851.279	33.29
851.451	33.86
851.622	33.43
851.794	30.84
851.965	33.95
852.137	29.71
852.308	26.08
852.48	20.29
852.651	18
852.823	23.34
852.994	24.32
853.166	25.91
853.337	27.42
853.509	24.67
853.68	22.62
853.851	18.29
854.023	20.98
854.194	24.89
854.365	30.44
854.537	31.67
854.708	28.11
854.879	26.14
855.05	32.61
855.222	29.48
855.393	33.64
855.564	32.99
855.735	37.03
855.906	39.15
856.078	35.92
856.249	37.18
856.42	37.59
856.591	38.81
856.762	40.95
856.933	38.98
857.104	33.25
857.275	31.04
857.446	35.07
857.617	34.84
857.788	32.63
857.959	32.32
858.13	27.68
858.301	27.86
858.472	26.96
858.643	24.14
858.814	19.46
858.985	24.36
859.155	23.86
859.326	19.86
859.497	19.28
859.668	21.94
859.839	22.9
860.009	27.41
860.18	24.14
860.351	25.23
860.522	26.72
860.692	29.26
860.863	30.45
861.034	30.33
861.204	33.44
861.375	31.6
861.546	34
861.716	35.78
861.887	31.64
862.057	32.13
862.228	34.24
862.398	33.5
862.569	35.28
862.739	35.53
862.91	37.2
863.08	34.82
863.251	32.05
863.421	26.21
863.592	24.76
863.762	27.74
863.932	29.02
864.103	26.36
864.273	26.64
864.443	20.81
864.614	21.14
864.784	20.83
864.954	20.28
865.125	24.25
865.295	27.46
865.465	27.3
865.635	28.96
865.805	30.01
865.976	29.12
866.146	32.3
866.316	37.02
866.486	34.95
866.656	35.47
866.826	34.93
866.996	31.06
867.166	29.53
867.336	29.18
867.506	26.13
867.676	25.59
867.846	23.57
868.016	17.57
868.186	14.47
868.356	11.69
868.526	12.84
868.696	13.02
868.866	18.83
869.036	22.53
869.206	24.42
869.376	22.43
869.545	19.25
869.715	20.76
869.885	23.35
870.055	26.86
870.224	33.53
870.394	33.74
870.564	34.56
870.734	32.83
870.903	29.74
871.073	29.41
871.243	32.3
871.412	33.32
871.582	35.65
871.751	40.55
871.921	44.51
872.091	38.92
872.26	34.83
872.43	38.29
872.599	35.42
872.769	32.06
872.938	32.17
873.108	32.3
873.277	34.43
873.446	33.42
873.616	31.74
873.785	29.55
873.955	34.38
874.124	35.88
874.293	33.95
874.463	37.66
874.632	41.53
874.801	44.67
874.971	42.92
875.14	39.3
875.309	38.99
875.478	36.85
875.647	33.64
875.817	30.74
875.986	33.23
876.155	35.28
876.324	31.52
876.493	29.73
876.662	25.8
876.831	29.21
877	31.95
877.17	33.15
877.339	35.31
877.508	38.65
877.677	34.65
877.846	31.72
878.015	30.73
878.184	31.37
878.352	31.07
878.521	34.44
878.69	31.17
878.859	30.9
879.028	30.28
879.197	29.32
879.366	28.77
879.534	29.42
879.703	30.05
879.872	31.09
880.041	32.2
880.21	32.33
880.378	30.09
880.547	32.01
880.716	31.85
880.884	32.85
881.053	33.08
881.222	33.42
881.39	33.9
881.559	33.97
881.727	33.87
881.896	33.98
882.065	34.06
882.233	34.33
882.402	33.81
882.57	34.91
882.739	34.97
882.907	35.07
883.076	35.12
883.244	35.68
883.412	35.8
883.581	35.35
883.749	34.98
883.918	34.84
884.086	35.33
884.254	35.11
884.423	34.09
884.591	34.03
884.759	33.31
884.927	32.75
885.096	30.36
885.264	30.1
885.432	30.8
885.6	30.8
885.769	30.41
885.937	29.96
886.105	29.99
886.273	29.49
886.441	27.45
886.609	28.56
886.777	26.75
886.945	29.65
887.113	28.79
887.281	27.59
887.449	26.49
887.617	25.55
887.785	25.99
887.953	26.77
888.121	27.42
888.289	27.04
888.457	25.21
888.625	25.08
888.793	21.66
888.961	21.65
889.129	21.38
889.296	21.61
889.464	23.22
889.632	20.34
889.8	17.5
889.967	15.11
890.135	14.64
