Data from 2938528_Reflection_1.txt Node
Date: Tue Jun 16 21:55:44 EDT 2015
User: robert
Spectrometer: USB4E03002
Autoset integration time: false
Trigger mode: 4
Integration Time (sec): 1.000000E-1
Scans to average: 10
Electric dark correction enabled: true
Nonlinearity correction enabled: false
Boxcar width: 5
Stray light correction enabled: false
XAxis mode: Wavelengths
Stop averaging: false
Number of Pixels in Spectrum: 3648
>>>>>Begin Spectral Data<<<<<
177.575	-76.72
177.794	-30.06
178.014	7.88
178.233	8.53
178.452	30.03
178.672	40.69
178.891	129.19
179.11	1301.65
179.33	2646.33
179.549	730.34
179.768	347.87
179.987	427.39
180.207	376.66
180.426	138.33
180.645	103.25
180.864	77.03
181.084	59.22
181.303	39.55
181.522	38.18
181.741	41.83
181.96	25.34
182.179	8.92
182.398	19.6
182.618	12.38
182.837	7.4
183.056	5.61
183.275	18.36
183.494	33.63
183.713	38.85
183.932	45.25
184.151	36.87
184.37	40.97
184.589	42.07
184.808	33.83
185.027	42.39
185.246	51.08
185.465	51.91
185.684	36.34
185.903	21.64
186.122	2.86
186.341	4.85
186.56	27.69
186.779	-17.44
186.998	6.1
187.216	48.93
187.435	22.04
187.654	47.56
187.873	-1.07
188.092	50.4
188.311	63.81
188.53	-15.78
188.748	-87.86
188.967	347.92
189.186	29.61
189.405	10.52
189.623	-2.73
189.842	25.64
190.061	23.54
190.28	41.88
190.498	48.72
190.717	45.15
190.936	39.24
191.154	26.62
191.373	35.39
191.592	47.74
191.81	43.16
192.029	45.5
192.248	39.7
192.466	40.45
192.685	42.82
192.904	21.55
193.122	24.5
193.341	30.84
193.559	43.71
193.778	44.34
193.996	46.82
194.215	76.18
194.433	73.72
194.652	67.64
194.87	70.37
195.089	72.11
195.307	70.71
195.526	79.45
195.744	56.32
195.963	64.12
196.181	56.51
196.399	59.23
196.618	56.79
196.836	33.38
197.055	39.67
197.273	33.03
197.491	23.41
197.71	45.73
197.928	43.6
198.146	65.89
198.365	62.58
198.583	66.3
198.801	68.63
199.019	72.46
199.238	98.72
199.456	94.79
199.674	83.82
199.892	82.42
200.111	49.73
200.329	35.89
200.547	17.74
200.765	-2.43
200.983	8.25
201.202	-3.87
201.42	-10.89
201.638	-17.54
201.856	-11.79
202.074	-3.69
202.292	-50.37
202.51	-19.28
202.728	-10.32
202.946	-1.13
203.165	-7.47
203.383	-24.26
203.601	9.12
203.819	-17.57
204.037	-14.56
204.255	-6.88
204.473	7.21
204.691	31.07
204.909	15.68
205.127	11.72
205.345	12.12
205.562	26.96
205.78	19.43
205.998	9.46
206.216	18.61
206.434	30.53
206.652	30.84
206.87	18.02
207.088	16.58
207.306	24.41
207.523	32.17
207.741	36.75
207.959	36.1
208.177	39.3
208.395	38.87
208.612	40.58
208.83	38.41
209.048	32.75
209.266	37.82
209.483	28.79
209.701	24.31
209.919	18.83
210.136	10.32
210.354	-1.77
210.572	0.86
210.79	4.23
211.007	3.17
211.225	-3.39
211.442	2.07
211.66	4.3
211.878	11.38
212.095	12.81
212.313	3.64
212.53	3.67
212.748	20.05
212.966	11.83
213.183	8.15
213.401	2.32
213.618	9.59
213.836	11.43
214.053	10.82
214.271	23.78
214.488	13.81
214.705	19.69
214.923	26.91
215.14	22.27
215.358	33.88
215.575	30.45
215.793	33.48
216.01	34.2
216.227	32.76
216.445	29.98
216.662	22.97
216.879	27.58
217.097	30.78
217.314	32.14
217.531	30.92
217.749	26.73
217.966	35.74
218.183	37.72
218.4	34.49
218.618	40.6
218.835	46.08
219.052	40.59
219.269	49.01
219.487	54.74
219.704	51.76
219.921	53.13
220.138	50.41
220.355	42.2
220.572	42.73
220.79	41.63
221.007	35.2
221.224	31.26
221.441	36.33
221.658	26.22
221.875	21.68
222.092	15.29
222.309	16.75
222.526	10.72
222.743	9.37
222.96	3.6
223.177	6.49
223.394	3.92
223.611	5.09
223.828	2.41
224.045	7.15
224.262	11.32
224.479	9.11
224.696	8.27
224.913	11.95
225.13	10.24
225.347	11.96
225.564	9.73
225.781	9.22
225.997	8.72
226.214	9.74
226.431	7.83
226.648	6.98
226.865	9.32
227.082	9.1
227.298	7.24
227.515	8.9
227.732	8.98
227.949	9.45
228.165	10.28
228.382	11.03
228.599	11.3
228.816	12.45
229.032	12.38
229.249	9.96
229.466	10.35
229.682	12.39
229.899	11.45
230.116	10.34
230.332	11.92
230.549	10.26
230.765	9.12
230.982	9.47
231.199	7.9
231.415	8.6
231.632	10.87
231.848	10.44
232.065	8.78
232.281	10.84
232.498	11.87
232.714	8.7
232.931	10.79
233.147	11.77
233.364	8.94
233.58	9.88
233.797	9.77
234.013	10.92
234.23	11.9
234.446	12.25
234.662	8.96
234.879	8.53
235.095	9.72
235.312	9.25
235.528	10.27
235.744	11.8
235.961	11.11
236.177	11.62
236.393	10.96
236.61	10.29
236.826	11.72
237.042	15.01
237.258	15.5
237.475	15.89
237.691	16.12
237.907	16
238.123	15.94
238.339	15.28
238.556	13.34
238.772	13.6
238.988	14.28
239.204	13.91
239.42	12.83
239.636	12.35
239.853	12.09
240.069	11.17
240.285	10.49
240.501	10.2
240.717	10.05
240.933	10.05
241.149	9.34
241.365	9.1
241.581	8.87
241.797	8.89
242.013	8.74
242.229	8.98
242.445	9.1
242.661	8.66
242.877	8.83
243.093	9.02
243.309	9.53
243.525	9.76
243.741	9.36
243.957	9.53
244.173	9.02
244.388	9.28
244.604	8.99
244.82	8.81
245.036	8.94
245.252	8.84
245.468	8.81
245.683	8.73
245.899	8.4
246.115	8.67
246.331	8.37
246.547	8.75
246.762	8.98
246.978	9.05
247.194	9.12
247.409	8.97
247.625	9.28
247.841	9.03
248.057	8.81
248.272	9.3
248.488	8.72
248.703	8.5
248.919	7.97
249.135	7.25
249.35	6.82
249.566	6.86
249.782	7.61
249.997	7.57
250.213	8.42
250.428	8.3
250.644	7.67
250.859	8.01
251.075	8.48
251.29	7.97
251.506	7.6
251.721	7.61
251.937	7.41
252.152	7.23
252.368	6.02
252.583	6.11
252.798	6.75
253.014	7.7
253.229	7.15
253.445	7.24
253.66	6.97
253.875	7.55
254.091	8.05
254.306	7.87
254.521	7.94
254.737	7.38
254.952	6.87
255.167	6.09
255.383	5.43
255.598	4.67
255.813	4.05
256.028	5.09
256.244	5.67
256.459	5.71
256.674	6.15
256.889	5.71
257.104	6.31
257.32	6.35
257.535	6.37
257.75	6.69
257.965	6.93
258.18	7.15
258.395	6.92
258.61	6.33
258.826	6.31
259.041	6.18
259.256	6.49
259.471	6.44
259.686	6.37
259.901	6.32
260.116	6.11
260.331	6.06
260.546	6.1
260.761	5.98
260.976	6.41
261.191	6.38
261.406	6.75
261.621	5.85
261.836	5.44
262.05	5.52
262.265	5.69
262.48	5.66
262.695	5.56
262.91	5.24
263.125	5.86
263.34	5.12
263.555	4.8
263.769	4.61
263.984	5.7
264.199	6.02
264.414	5.5
264.629	6.08
264.843	6.38
265.058	6.35
265.273	6.31
265.488	6.39
265.702	6.85
265.917	7.18
266.132	7.4
266.346	6.91
266.561	7.08
266.776	7.28
266.99	6.93
267.205	7.04
267.42	7.25
267.634	7.57
267.849	7.54
268.063	7.89
268.278	7.31
268.492	7.02
268.707	7.43
268.922	7.26
269.136	7.07
269.351	6.85
269.565	6.23
269.78	6.31
269.994	5.9
270.209	5.61
270.423	5.5
270.637	5.9
270.852	5.5
271.066	5.32
271.281	5.3
271.495	5.6
271.709	5.85
271.924	5.89
272.138	5.77
272.353	6.05
272.567	5.88
272.781	5.52
272.996	5.61
273.21	6.07
273.424	6.22
273.638	6.18
273.853	6.28
274.067	6.25
274.281	6.69
274.495	6.68
274.71	6.66
274.924	6.84
275.138	6.82
275.352	6.36
275.566	6.2
275.781	6.04
275.995	5.91
276.209	5.7
276.423	5.15
276.637	5.75
276.851	5.7
277.065	5.68
277.279	5.67
277.493	6.13
277.707	6.65
277.921	6.23
278.135	6.28
278.349	6.8
278.563	6.75
278.777	7.23
278.991	6.39
279.205	6.49
279.419	6.4
279.633	6.9
279.847	6.45
280.061	6.06
280.275	6.66
280.489	6.68
280.703	6.52
280.917	6.66
281.131	6.74
281.344	6.97
281.558	6.99
281.772	7.21
281.986	6.56
282.2	7
282.414	7.06
282.627	7.03
282.841	7.03
283.055	7.09
283.269	7.09
283.482	6.91
283.696	6.94
283.91	6.95
284.123	6.39
284.337	6.62
284.551	6.55
284.764	6.5
284.978	6.37
285.192	6.06
285.405	5.98
285.619	5.68
285.833	5.8
286.046	5.36
286.26	5.03
286.473	5.3
286.687	5.63
286.9	5.27
287.114	5.08
287.327	5.28
287.541	5.35
287.754	5.43
287.968	5.84
288.181	5.34
288.395	5.63
288.608	6.1
288.822	6.18
289.035	5.82
289.248	5.7
289.462	6
289.675	5.75
289.889	6.04
290.102	5.94
290.315	6.14
290.529	6.53
290.742	6.26
290.955	6.39
291.169	6.76
291.382	7.58
291.595	7.82
291.808	8.14
292.022	8.22
292.235	8.09
292.448	8.41
292.661	7.92
292.875	8.17
293.088	8.5
293.301	7.88
293.514	7.61
293.727	7.29
293.94	7.5
294.153	6.93
294.367	7.12
294.58	7.06
294.793	6.7
295.006	6.6
295.219	6.49
295.432	6.63
295.645	6.69
295.858	6.61
296.071	6.28
296.284	6.48
296.497	6.79
296.71	6.58
296.923	6.69
297.136	6.78
297.349	7.17
297.562	7.28
297.775	7.31
297.988	7.56
298.201	7.78
298.414	7.89
298.626	7.68
298.839	7.54
299.052	7.46
299.265	7.82
299.478	8.26
299.691	8.22
299.903	8.16
300.116	7.88
300.329	8.19
300.542	8.23
300.755	8.34
300.967	8.15
301.18	8.21
301.393	8.65
301.605	7.91
301.818	7.67
302.031	7.85
302.243	7.6
302.456	7.7
302.669	7.49
302.881	7.54
303.094	7.74
303.307	7.95
303.519	7.79
303.732	8.13
303.944	8.34
304.157	8.32
304.37	7.9
304.582	8.28
304.795	8.07
305.007	7.9
305.22	7.76
305.432	7.7
305.645	7.58
305.857	8.19
306.069	8.01
306.282	8.03
306.494	8.04
306.707	8.37
306.919	8.46
307.132	8.54
307.344	8.56
307.556	8.81
307.769	8.87
307.981	8.99
308.193	9.04
308.406	8.48
308.618	8.76
308.83	8.51
309.043	8.17
309.255	7.77
309.467	7.99
309.679	8.25
309.892	8.2
310.104	8.22
310.316	8.31
310.528	8.09
310.74	8.52
310.953	8.08
311.165	8.25
311.377	8.37
311.589	8.62
311.801	8.3
312.013	8.27
312.225	8.06
312.437	7.83
312.649	8.14
312.862	8.13
313.074	7.73
313.286	7.85
313.498	7.72
313.71	8.02
313.922	8.5
314.134	8.3
314.346	8.13
314.558	8.21
314.77	8.21
314.982	7.71
315.193	7.75
315.405	8.12
315.617	8.27
315.829	8.49
316.041	8.17
316.253	8.11
316.465	8.6
316.677	8.29
316.888	8.33
317.1	8.6
317.312	8.91
317.524	9.02
317.736	9.24
317.947	9.77
318.159	9.79
318.371	9.56
318.583	9.34
318.794	9.21
319.006	9.74
319.218	9.54
319.43	9.49
319.641	9.03
319.853	9.11
320.064	8.37
320.276	8.18
320.488	8.57
320.699	8.92
320.911	8.85
321.123	8.5
321.334	8.45
321.546	8.95
321.757	8.57
321.969	8.82
322.18	8.38
322.392	8.44
322.603	7.78
322.815	7.31
323.026	7.6
323.238	7.47
323.449	8.08
323.661	8.01
323.872	7.79
324.083	8.13
324.295	8.14
324.506	8.26
324.718	8.58
324.929	9.26
325.14	9.77
325.352	9.74
325.563	10.07
325.774	9.89
325.986	9.88
326.197	9.84
326.408	9.69
326.62	9.73
326.831	9.63
327.042	9.76
327.253	9.76
327.464	9.53
327.676	9.12
327.887	9.03
328.098	9.13
328.309	9
328.52	9.33
328.732	9.65
328.943	9.51
329.154	9.76
329.365	9.74
329.576	9.6
329.787	9.36
329.998	9.46
330.209	9.49
330.42	9.44
330.631	9.3
330.842	8.81
331.053	8.93
331.264	9
331.475	8.75
331.686	9.07
331.897	9.11
332.108	9.28
332.319	9.71
332.53	9.1
332.741	9.04
332.952	9.56
333.163	9.62
333.374	9.22
333.585	9
333.795	9.13
334.006	8.94
334.217	8.7
334.428	8.79
334.639	8.29
334.849	8.62
335.06	8.66
335.271	8.67
335.482	8.5
335.692	8.32
335.903	8.54
336.114	8.04
336.325	7.77
336.535	8.21
336.746	8.13
336.957	8.49
337.167	9.09
337.378	9.24
337.589	8.84
337.799	8.99
338.01	9.41
338.22	9.67
338.431	10.4
338.642	10.73
338.852	10.34
339.063	10.05
339.273	10.08
339.484	9.48
339.694	9.35
339.905	9.13
340.115	8.94
340.326	8.5
340.536	8.39
340.746	8.17
340.957	8.06
341.167	7.86
341.378	7.71
341.588	7.37
341.799	7.45
342.009	7.63
342.219	7.76
342.43	7.92
342.64	7.94
342.85	7.72
343.061	7.88
343.271	7.66
343.481	7.64
343.691	8.14
343.902	8.54
344.112	8.59
344.322	8.3
344.532	8.31
344.743	8.31
344.953	8.3
345.163	8.07
345.373	7.69
345.583	7.84
345.793	7.83
346.004	7.49
346.214	7.09
346.424	6.9
346.634	7.04
346.844	7.52
347.054	7.65
347.264	7.88
347.474	8.07
347.684	8.24
347.894	8.06
348.104	8.1
348.314	8.25
348.524	8
348.734	7.76
348.944	7.78
349.154	7.34
349.364	7.18
349.574	6.95
349.784	6.69
349.994	6.78
350.204	6.66
350.413	6.76
350.623	6.6
350.833	6.87
351.043	6.84
351.253	6.57
351.463	6.43
351.672	6.72
351.882	6.97
352.092	7.18
352.302	7.06
352.511	7.17
352.721	7.16
352.931	7.49
353.141	7.47
353.35	7.93
353.56	7.92
353.77	7.85
353.979	7.88
354.189	7.64
354.399	7.78
354.608	8.01
354.818	8.11
355.027	8.29
355.237	8.07
355.447	7.94
355.656	7.88
355.866	8.13
356.075	8.3
356.285	8.15
356.494	8.55
356.704	8.46
356.913	8.42
357.123	8.31
357.332	8.06
357.542	7.91
357.751	8.1
357.96	7.82
358.17	7.65
358.379	7.47
358.589	7.67
358.798	7.32
359.007	7.29
359.217	7.18
359.426	7.17
359.635	7.36
359.845	7.46
360.054	7.33
360.263	7.27
360.472	7.25
360.682	7.3
360.891	6.95
361.1	7.03
361.309	7.02
361.519	6.99
361.728	7.01
361.937	6.7
362.146	6.69
362.355	6.66
362.564	6.62
362.774	6.54
362.983	6.74
363.192	6.89
363.401	6.96
363.61	6.99
363.819	7
364.028	6.85
364.237	6.91
364.446	6.85
364.655	6.69
364.864	6.86
365.073	6.98
365.282	6.97
365.491	6.75
365.7	6.51
365.909	6.5
366.118	6.29
366.327	6.24
366.536	6.2
366.745	6.32
366.954	6.15
367.162	6.35
367.371	6.46
367.58	6.43
367.789	6.4
367.998	6.58
368.207	6.65
368.415	6.74
368.624	6.6
368.833	6.56
369.042	6.49
369.25	6.73
369.459	6.48
369.668	6.06
369.877	5.85
370.085	6.04
370.294	6.06
370.503	6.03
370.711	6.17
370.92	6.07
371.129	6.14
371.337	5.97
371.546	5.93
371.754	5.93
371.963	5.96
372.171	5.91
372.38	5.87
372.589	5.67
372.797	5.49
373.006	5.35
373.214	5.64
373.423	5.57
373.631	5.63
373.84	5.91
374.048	5.83
374.256	5.96
374.465	6.05
374.673	6.07
374.882	6.14
375.09	6.11
375.298	6.17
375.507	6.24
375.715	6.52
375.923	6.83
376.132	6.52
376.34	6.85
376.548	6.74
376.757	6.73
376.965	6.72
377.173	6.67
377.381	6.85
377.59	6.82
377.798	6.68
378.006	6.45
378.214	6.22
378.423	6.35
378.631	6.03
378.839	6.22
379.047	6.11
379.255	5.79
379.463	5.91
379.671	5.72
379.879	5.78
380.088	5.74
380.296	5.74
380.504	5.77
380.712	5.85
380.92	5.91
381.128	5.93
381.336	6.04
381.544	6.14
381.752	5.96
381.96	5.97
382.168	5.69
382.376	5.69
382.584	5.9
382.791	5.6
382.999	5.58
383.207	5.6
383.415	5.41
383.623	5.41
383.831	5.43
384.039	5.35
384.247	5.41
384.454	5.37
384.662	5.43
384.87	5.25
385.078	5.57
385.285	5.54
385.493	5.35
385.701	5.27
385.909	4.99
386.116	4.84
386.324	5.02
386.532	5.01
386.739	5.22
386.947	5.22
387.155	5
387.362	4.8
387.57	4.79
387.778	4.72
387.985	4.9
388.193	5.12
388.4	5.08
388.608	4.98
388.816	4.87
389.023	4.82
389.231	4.74
389.438	4.83
389.646	4.95
389.853	4.88
390.061	5.02
390.268	4.95
390.475	4.97
390.683	5.14
390.89	5.03
391.098	5.07
391.305	5.12
391.512	5.22
391.72	5.13
391.927	5.01
392.135	4.84
392.342	4.75
392.549	4.81
392.756	4.65
392.964	4.54
393.171	4.65
393.378	4.69
393.586	4.6
393.793	4.42
394	4.61
394.207	4.69
394.414	4.86
394.622	4.95
394.829	4.87
395.036	5.12
395.243	5.24
395.45	5.19
395.657	5.02
395.864	5.05
396.072	5.34
396.279	5.33
396.486	5.32
396.693	5.14
396.9	5.14
397.107	5.03
397.314	4.87
397.521	4.88
397.728	4.93
397.935	5.15
398.142	5.19
398.349	4.95
398.556	4.85
398.763	4.93
398.97	5.02
399.177	4.88
399.383	5.01
399.59	5
399.797	5.06
400.004	4.96
400.211	4.76
400.418	4.51
400.625	4.57
400.831	4.73
401.038	4.55
401.245	4.56
401.452	4.71
401.658	4.71
401.865	4.84
402.072	4.85
402.279	4.94
402.485	4.95
402.692	5.13
402.899	5.08
403.105	4.84
403.312	4.87
403.519	4.84
403.725	4.58
403.932	4.54
404.138	4.48
404.345	4.35
404.552	4.24
404.758	4.27
404.965	4.06
405.171	4.03
405.378	4.13
405.584	4.03
405.791	4.1
405.997	4.36
406.204	4.45
406.41	4.51
406.617	4.48
406.823	4.51
407.029	4.34
407.236	4.46
407.442	4.51
407.649	4.46
407.855	4.53
408.061	4.61
408.268	4.44
408.474	4.29
408.68	4.19
408.887	4.24
409.093	4.31
409.299	4.5
409.505	4.56
409.712	4.51
409.918	4.65
410.124	4.68
410.33	4.66
410.537	4.66
410.743	4.66
410.949	4.47
411.155	4.46
411.361	4.28
411.567	4.2
411.773	4.01
411.98	4.07
412.186	4.02
412.392	3.91
412.598	3.56
412.804	3.63
413.01	3.57
413.216	3.58
413.422	3.65
413.628	3.73
413.834	3.61
414.04	3.7
414.246	3.68
414.452	3.59
414.658	3.66
414.864	3.85
415.07	3.89
415.275	4.02
415.481	4.05
415.687	4.02
415.893	4.08
416.099	4.14
416.305	4.14
416.511	3.93
416.716	3.95
416.922	3.99
417.128	4.12
417.334	4.11
417.539	3.93
417.745	3.98
417.951	4.08
418.157	4.09
418.362	4.15
418.568	4.07
418.774	4.18
418.979	4.22
419.185	4.09
419.391	4.02
419.596	4.03
419.802	4.11
420.008	4.06
420.213	4.63
420.419	4.58
420.624	4.51
420.83	4.51
421.035	4.59
421.241	4.6
421.446	4.63
421.652	4.64
421.857	4.6
422.063	4.58
422.268	4.59
422.474	3.92
422.679	3.96
422.885	3.92
423.09	3.93
423.295	3.85
423.501	3.8
423.706	3.84
423.911	3.75
424.117	3.74
424.322	3.74
424.527	3.79
424.733	3.78
424.938	3.73
425.143	3.83
425.349	3.91
425.554	3.91
425.759	3.88
425.964	3.79
426.169	3.99
426.375	4.03
426.58	4.05
426.785	3.92
426.99	3.91
427.195	3.94
427.4	3.99
427.605	3.93
427.811	3.94
428.016	3.89
428.221	4
428.426	3.82
428.631	3.8
428.836	3.76
429.041	3.9
429.246	3.87
429.451	3.78
429.656	3.61
429.861	3.61
430.066	3.63
430.271	3.67
430.476	3.74
430.681	3.79
430.886	3.75
431.09	3.75
431.295	3.61
431.5	3.6
431.705	3.61
431.91	3.67
432.115	3.72
432.32	3.74
432.524	3.67
432.729	3.6
432.934	3.54
433.139	3.57
433.343	3.6
433.548	3.81
433.753	3.86
433.958	3.86
434.162	3.85
434.367	3.81
434.572	3.8
434.776	3.73
434.981	3.83
435.186	3.87
435.39	3.85
435.595	3.82
435.799	3.64
436.004	3.61
436.209	3.57
436.413	3.56
436.618	3.59
436.822	3.63
437.027	3.82
437.231	3.62
437.436	3.6
437.64	3.59
437.845	3.62
438.049	3.57
438.253	3.56
438.458	3.59
438.662	3.59
438.867	3.59
439.071	3.44
439.275	3.39
439.48	3.52
439.684	3.52
439.888	3.61
440.093	3.58
440.297	3.51
440.501	3.53
440.706	3.52
440.91	3.54
441.114	3.48
441.318	3.55
441.523	3.56
441.727	3.54
441.931	3.51
442.135	3.47
442.339	3.46
442.543	3.61
442.748	3.53
442.952	3.56
443.156	3.52
443.36	3.5
443.564	3.5
443.768	3.46
443.972	3.36
444.176	3.41
444.38	3.39
444.584	3.34
444.788	3.34
444.992	3.39
445.196	3.29
445.4	3.26
445.604	3.29
445.808	3.34
446.012	3.38
446.216	3.35
446.42	3.33
446.624	3.24
446.828	3.35
447.032	3.32
447.235	3.31
447.439	3.42
447.643	3.47
447.847	3.45
448.051	3.34
448.254	3.24
448.458	3.32
448.662	3.35
448.866	3.41
449.069	3.37
449.273	3.44
449.477	3.38
449.681	3.4
449.884	3.45
450.088	3.4
450.292	3.51
450.495	3.69
450.699	3.73
450.902	3.72
451.106	3.63
451.31	3.58
451.513	3.57
451.717	3.67
451.92	3.62
452.124	3.56
452.327	3.64
452.531	3.63
452.734	3.64
452.938	3.62
453.141	3.59
453.345	3.66
453.548	3.57
453.752	3.52
453.955	3.5
454.158	3.41
454.362	3.35
454.565	3.36
454.769	3.32
454.972	3.24
455.175	3.31
455.379	3.32
455.582	3.38
455.785	3.46
455.988	3.43
456.192	3.36
456.395	3.48
456.598	3.54
456.801	3.42
457.005	3.44
457.208	3.44
457.411	3.4
457.614	3.38
457.817	3.33
458.021	3.35
458.224	3.37
458.427	3.37
458.63	3.32
458.833	3.3
459.036	3.34
459.239	3.3
459.442	3.29
459.645	3.28
459.848	3.31
460.051	3.38
460.254	3.32
460.457	3.34
460.66	3.33
460.863	3.41
461.066	3.57
461.269	3.52
461.472	3.61
461.675	3.57
461.878	3.64
462.081	3.52
462.284	3.54
462.486	3.6
462.689	3.6
462.892	3.65
463.095	3.63
463.298	3.37
463.5	3.54
463.703	3.49
463.906	3.55
464.109	3.52
464.311	3.56
464.514	3.55
464.717	3.49
464.92	3.47
465.122	3.51
465.325	3.54
465.528	3.74
465.73	3.67
465.933	3.62
466.135	3.5
466.338	3.4
466.541	3.47
466.743	3.43
466.946	3.45
467.148	3.42
467.351	3.28
467.553	3.19
467.756	3.14
467.958	3.14
468.161	3.15
468.363	3.24
468.566	3.31
468.768	3.34
468.971	3.29
469.173	3.33
469.375	3.29
469.578	3.42
469.78	3.45
469.983	3.3
470.185	3.3
470.387	3.28
470.59	3.2
470.792	3.14
470.994	3.15
471.196	3.18
471.399	3.31
471.601	3.36
471.803	3.25
472.005	3.27
472.208	3.36
472.41	3.39
472.612	3.4
472.814	3.48
473.016	3.6
473.218	3.54
473.421	3.5
473.623	3.33
473.825	3.38
474.027	3.41
474.229	3.37
474.431	3.42
474.633	3.29
474.835	3.36
475.037	3.44
475.239	3.27
475.441	3.3
475.643	3.28
475.845	3.35
476.047	3.35
476.249	3.28
476.451	3.34
476.653	3.36
476.855	3.39
477.057	3.36
477.258	3.34
477.46	3.41
477.662	3.34
477.864	3.36
478.066	3.35
478.268	3.27
478.469	3.34
478.671	3.36
478.873	3.28
479.075	3.34
479.276	3.31
479.478	3.27
479.68	3.3
479.882	3.36
480.083	3.34
480.285	3.3
480.487	3.35
480.688	3.35
480.89	3.32
481.091	3.26
481.293	3.26
481.495	3.24
481.696	3.21
481.898	3.2
482.099	3.18
482.301	3.16
482.502	3.16
482.704	3.15
482.905	3.15
483.107	3.17
483.308	3.18
483.51	3.16
483.711	3.15
483.913	3.16
484.114	3.14
484.315	3.12
484.517	3.16
484.718	3.12
484.92	3.14
485.121	3.15
485.322	3.11
485.524	3.1
485.725	3.09
485.926	3.09
486.127	3.08
486.329	3.08
486.53	3.12
486.731	3.1
486.932	3.13
487.134	3.12
487.335	3.09
487.536	3.09
487.737	3.11
487.938	3.1
488.139	3.13
488.341	3.17
488.542	3.16
488.743	3.15
488.944	3.19
489.145	3.21
489.346	3.18
489.547	3.2
489.748	3.22
489.949	3.25
490.15	3.26
490.351	3.24
490.552	3.22
490.753	3.23
490.954	3.23
491.155	3.18
491.356	3.15
491.557	3.15
491.758	3.14
491.959	3.12
492.159	3.1
492.36	3.1
492.561	3.09
492.762	3.12
492.963	3.18
493.164	3.18
493.364	3.22
493.565	3.23
493.766	3.32
493.967	3.36
494.167	3.39
494.368	3.43
494.569	3.46
494.769	3.49
494.97	3.44
495.171	3.41
495.371	3.37
495.572	3.42
495.773	3.44
495.973	3.47
496.174	3.43
496.375	3.4
496.575	3.42
496.776	3.49
496.976	3.48
497.177	3.49
497.377	3.57
497.578	3.68
497.778	3.64
497.979	3.62
498.179	3.53
498.38	3.57
498.58	3.62
498.78	3.6
498.981	3.57
499.181	3.58
499.382	3.61
499.582	3.56
499.782	3.54
499.983	3.55
500.183	3.62
500.383	3.7
500.584	3.62
500.784	3.66
500.984	3.65
501.184	3.61
501.385	3.67
501.585	3.72
501.785	3.62
501.985	3.57
502.185	3.58
502.386	3.57
502.586	3.53
502.786	3.58
502.986	3.61
503.186	3.62
503.386	3.62
503.586	3.66
503.786	3.71
503.987	3.79
504.187	3.79
504.387	3.81
504.587	3.81
504.787	3.84
504.987	3.92
505.187	3.89
505.387	3.95
505.587	4.04
505.786	4.04
505.986	4
506.186	4.03
506.386	4.07
506.586	4.13
506.786	4.17
506.986	4.22
507.186	4.18
507.386	4.17
507.585	4.09
507.785	4.09
507.985	4.1
508.185	4.17
508.384	4.12
508.584	4.06
508.784	4.08
508.984	4.13
509.183	4.07
509.383	4.16
509.583	4.19
509.782	4.23
509.982	4.22
510.182	4.21
510.381	4.13
510.581	4.19
510.781	4.28
510.98	4.25
511.18	4.25
511.379	4.38
511.579	4.36
511.778	4.36
511.978	4.4
512.177	4.4
512.377	4.44
512.576	4.47
512.776	4.54
512.975	4.61
513.175	4.58
513.374	4.52
513.573	4.41
513.773	4.41
513.972	4.39
514.172	4.42
514.371	4.51
514.57	4.59
514.77	4.68
514.969	4.76
515.168	4.75
515.367	4.9
515.567	4.96
515.766	5.03
515.965	5.04
516.164	5.15
516.364	5.18
516.563	5.14
516.762	5.15
516.961	5.09
517.16	5.01
517.359	5.04
517.559	5.04
517.758	5.04
517.957	5.08
518.156	5.12
518.355	5.09
518.554	5.06
518.753	5.08
518.952	5.12
519.151	5.19
519.35	5.22
519.549	5.22
519.748	5.21
519.947	5.27
520.146	5.26
520.345	5.32
520.544	5.36
520.743	5.44
520.942	5.43
521.141	5.35
521.339	5.41
521.538	5.41
521.737	5.44
521.936	5.5
522.135	5.51
522.333	5.57
522.532	5.5
522.731	5.5
522.93	5.53
523.129	5.62
523.327	5.72
523.526	5.72
523.725	5.83
523.923	5.91
524.122	5.95
524.321	5.97
524.519	5.96
524.718	6.04
524.917	6.13
525.115	6.11
525.314	6.15
525.512	6.12
525.711	6.16
525.909	6.22
526.108	6.22
526.306	6.26
526.505	6.3
526.703	6.33
526.902	6.34
527.1	6.34
527.299	6.36
527.497	6.35
527.696	6.39
527.894	6.42
528.092	6.37
528.291	6.33
528.489	6.29
528.688	6.27
528.886	6.3
529.084	6.29
529.283	6.27
529.481	6.33
529.679	6.36
529.877	6.38
530.076	6.35
530.274	6.41
530.472	6.51
530.67	6.58
530.869	6.67
531.067	6.72
531.265	6.78
531.463	6.82
531.661	6.82
531.859	6.82
532.057	6.82
532.255	6.88
532.454	6.93
532.652	6.92
532.85	6.94
533.048	6.96
533.246	6.95
533.444	6.93
533.642	6.99
533.84	7.02
534.038	7.11
534.236	7.14
534.434	7.15
534.632	7.14
534.83	7.23
535.027	7.27
535.225	7.27
535.423	7.34
535.621	7.39
535.819	7.36
536.017	7.37
536.215	7.34
536.412	7.32
536.61	7.37
536.808	7.39
537.006	7.36
537.203	7.4
537.401	7.45
537.599	7.44
537.797	7.48
537.994	7.53
538.192	7.6
538.39	7.74
538.587	7.86
538.785	7.94
538.983	8.03
539.18	8.07
539.378	8.11
539.575	8.12
539.773	8.13
539.97	8.13
540.168	8.19
540.366	8.24
540.563	8.2
540.761	8.17
540.958	8.13
541.155	8.09
541.353	8.12
541.55	8.11
541.748	8.14
541.945	8.2
542.143	8.22
542.34	8.24
542.537	8.23
542.735	8.25
542.932	8.26
543.129	8.41
543.327	8.52
543.524	8.56
543.721	8.55
543.919	8.62
544.116	8.65
544.313	8.82
544.51	8.77
544.708	8.81
544.905	8.88
545.102	9
545.299	8.96
545.496	8.97
545.693	8.96
545.891	9.03
546.088	8.99
546.285	9.01
546.482	8.94
546.679	9.05
546.876	9.11
547.073	9.22
547.27	9.27
547.467	9.26
547.664	9.28
547.861	9.33
548.058	9.45
548.255	9.54
548.452	9.52
548.649	9.59
548.846	9.62
549.043	9.62
549.24	9.59
549.437	9.53
549.633	9.67
549.83	9.74
550.027	9.83
550.224	9.84
550.421	9.96
550.618	10.05
550.814	10.14
551.011	10.21
551.208	10.27
551.405	10.29
551.601	10.41
551.798	10.4
551.995	10.33
552.191	10.45
552.388	10.45
552.585	10.42
552.781	10.43
552.978	10.3
553.175	10.31
553.371	10.4
553.568	10.4
553.764	10.4
553.961	10.52
554.157	10.76
554.354	10.7
554.55	10.7
554.747	10.68
554.943	10.75
555.14	10.97
555.336	11.09
555.533	10.89
555.729	11.04
555.926	11.15
556.122	11.24
556.318	11.18
556.515	11.24
556.711	11.34
556.907	11.53
557.104	11.66
557.3	11.82
557.496	11.91
557.693	12.1
557.889	12.13
558.085	12.2
558.281	12.2
558.478	12.24
558.674	12.34
558.87	12.26
559.066	12.13
559.262	12.12
559.459	11.99
559.655	11.96
559.851	12.07
560.047	12.08
560.243	12.07
560.439	12.11
560.635	12.16
560.831	12.13
561.027	12.2
561.223	12.34
561.419	12.38
561.615	12.36
561.811	12.44
562.007	12.43
562.203	12.51
562.399	12.59
562.595	12.67
562.791	12.77
562.987	12.95
563.183	13.17
563.379	13.22
563.575	13.19
563.771	13.4
563.966	13.42
564.162	13.48
564.358	13.6
564.554	13.69
564.75	13.65
564.945	13.72
565.141	13.69
565.337	13.73
565.533	13.76
565.728	13.79
565.924	13.74
566.12	13.79
566.315	13.74
566.511	13.67
566.707	13.58
566.902	13.72
567.098	13.75
567.293	13.79
567.489	13.82
567.684	13.81
567.88	13.93
568.076	14.07
568.271	14.09
568.467	14.19
568.662	14.35
568.858	14.49
569.053	14.48
569.248	14.47
569.444	14.45
569.639	14.49
569.835	14.57
570.03	14.62
570.225	14.66
570.421	14.77
570.616	14.82
570.812	14.88
571.007	14.87
571.202	14.97
571.397	15.02
571.593	15.15
571.788	15.21
571.983	15.34
572.178	15.31
572.374	15.27
572.569	15.33
572.764	15.41
572.959	15.34
573.154	15.4
573.35	15.38
573.545	15.45
573.74	15.35
573.935	15.36
574.13	15.31
574.325	15.44
574.52	15.58
574.715	15.57
574.91	15.52
575.105	15.63
575.3	15.69
575.495	15.7
575.69	15.71
575.885	15.93
576.08	15.94
576.275	15.95
576.47	15.99
576.665	15.9
576.86	15.81
577.055	15.92
577.25	15.93
577.444	15.84
577.639	15.97
577.834	16.05
578.029	15.97
578.224	16.05
578.418	16.08
578.613	16.15
578.808	16.24
579.003	16.4
579.197	16.44
579.392	16.45
579.587	16.62
579.781	16.53
579.976	16.52
580.171	16.58
580.365	16.59
580.56	16.73
580.755	16.66
580.949	16.66
581.144	16.7
581.338	16.78
581.533	16.76
581.727	16.79
581.922	16.71
582.116	16.74
582.311	16.7
582.505	16.66
582.7	16.62
582.894	16.65
583.089	16.6
583.283	16.57
583.478	16.5
583.672	16.56
583.866	16.56
584.061	16.74
584.255	16.71
584.449	16.85
584.644	16.81
584.838	16.94
585.032	16.97
585.226	17.05
585.421	17.16
585.615	17.23
585.809	17.21
586.003	17.26
586.198	17.35
586.392	17.38
586.586	17.28
586.78	17.52
586.974	17.5
587.168	17.61
587.363	17.62
587.557	17.61
587.751	17.57
587.945	17.58
588.139	17.37
588.333	17.29
588.527	17.36
588.721	17.34
588.915	17.27
589.109	17.26
589.303	17.22
589.497	17.17
589.691	16.99
589.885	16.9
590.079	17.08
590.273	17.25
590.466	17.3
590.66	17.24
590.854	17.4
591.048	17.32
591.242	17.41
591.436	17.35
591.629	17.51
591.823	17.65
592.017	17.9
592.211	17.8
592.404	17.69
592.598	17.78
592.792	17.91
592.986	17.95
593.179	17.94
593.373	17.91
593.567	18.07
593.76	18
593.954	18.25
594.147	18.19
594.341	18.26
594.535	18.56
594.728	18.46
594.922	18.36
595.115	18.34
595.309	18.36
595.502	18.32
595.696	18.28
595.889	18.35
596.083	18.11
596.276	18.11
596.47	18.11
596.663	17.97
596.856	17.99
597.05	18.03
597.243	17.93
597.437	17.93
597.63	17.86
597.823	17.98
598.017	17.9
598.21	18.22
598.403	18.23
598.596	18.28
598.79	18.23
598.983	18.27
599.176	18.3
599.369	18.44
599.563	18.58
599.756	18.61
599.949	18.36
600.142	18.3
600.335	18.08
600.528	18.15
600.722	18.22
600.915	18.41
601.108	18.48
601.301	18.48
601.494	18.58
601.687	18.68
601.88	18.69
602.073	18.79
602.266	18.99
602.459	19.01
602.652	19.04
602.845	19.04
603.038	19.02
603.231	19.07
603.424	19.08
603.617	18.99
603.809	18.88
604.002	18.89
604.195	19.03
604.388	19.04
604.581	18.99
604.774	19.14
604.966	18.99
605.159	18.93
605.352	18.98
605.545	18.96
605.737	19.06
605.93	19.21
606.123	19.38
606.316	19.37
606.508	19.46
606.701	19.6
606.894	19.39
607.086	19.46
607.279	19.46
607.471	19.36
607.664	19.42
607.857	19.26
608.049	19.27
608.242	19.22
608.434	19.15
608.627	19.02
608.819	18.96
609.012	19.04
609.204	19.13
609.397	19.2
609.589	19.21
609.782	19.09
609.974	19.3
610.166	19.21
610.359	19.19
610.551	19.04
610.743	19.19
610.936	19.14
611.128	19.2
611.32	19.1
611.513	19.13
611.705	19.11
611.897	19.17
612.09	19.22
612.282	19.33
612.474	19.15
612.666	19.42
612.858	19.32
613.051	19.46
613.243	19.28
613.435	19.38
613.627	19.24
613.819	19.28
614.011	19.57
614.203	19.49
614.395	19.49
614.588	19.66
614.78	19.58
614.972	19.61
615.164	19.54
615.356	19.4
615.548	19.5
615.74	19.72
615.932	19.69
616.124	19.58
616.315	19.59
616.507	19.62
616.699	19.85
616.891	19.78
617.083	19.8
617.275	19.82
617.467	20.01
617.659	19.84
617.85	19.98
618.042	19.91
618.234	19.89
618.426	19.95
618.618	19.97
618.809	19.74
619.001	19.78
619.193	19.68
619.384	19.72
619.576	19.82
619.768	19.95
619.959	19.71
620.151	20.04
620.343	19.93
620.534	19.95
620.726	19.88
620.917	20.08
621.109	20.05
621.301	20.07
621.492	19.97
621.684	19.9
621.875	19.89
622.067	19.88
622.258	19.73
622.45	19.9
622.641	19.94
622.832	20.03
623.024	20.17
623.215	20.36
623.407	20.44
623.598	20.49
623.789	20.46
623.981	20.55
624.172	20.72
624.363	20.68
624.555	20.67
624.746	20.58
624.937	20.42
625.129	20.36
625.32	20.23
625.511	20.2
625.702	20.22
625.893	20.18
626.085	20.13
626.276	20.03
626.467	20.06
626.658	19.88
626.849	19.72
627.04	19.62
627.231	19.52
627.422	19.61
627.614	19.79
627.805	19.75
627.996	19.73
628.187	19.75
628.378	19.78
628.569	19.82
628.76	20.16
628.951	20.38
629.142	20.59
629.332	20.48
629.523	20.49
629.714	20.35
629.905	20.6
630.096	20.74
630.287	20.8
630.478	20.61
630.669	20.61
630.859	20.38
631.05	20.34
631.241	20.24
631.432	20.38
631.623	20.42
631.813	20.32
632.004	20.29
632.195	20.21
632.385	19.92
632.576	20.02
632.767	19.95
632.957	20.08
633.148	20.06
633.339	20.19
633.529	20.15
633.72	20.15
633.91	20.3
634.101	20.31
634.292	20.5
634.482	20.66
634.673	20.74
634.863	20.82
635.054	20.81
635.244	20.97
635.435	21.08
635.625	21.15
635.815	21.1
636.006	21
636.196	20.86
636.387	20.73
636.577	20.67
636.767	20.78
636.958	20.84
637.148	20.83
637.338	20.61
637.529	20.51
637.719	20.46
637.909	20.42
638.099	20.43
638.29	20.57
638.48	20.63
638.67	20.78
638.86	20.72
639.05	20.64
639.241	20.73
639.431	20.64
639.621	20.68
639.811	20.78
640.001	20.95
640.191	20.95
640.381	20.61
640.571	20.66
640.761	20.54
640.951	20.36
641.141	20.23
641.331	20.09
641.521	20.26
641.711	20.29
641.901	20.3
642.091	20.38
642.281	20.46
642.471	20.8
642.661	20.88
642.851	21.12
643.041	21.39
643.231	21.47
643.42	21.53
643.61	21.7
643.8	21.8
643.99	21.73
644.18	21.43
644.369	21.51
644.559	21.32
644.749	21.29
644.939	21.05
645.128	21.01
645.318	21.04
645.508	21
645.697	20.99
645.887	20.82
646.076	20.62
646.266	20.82
646.456	20.84
646.645	21.03
646.835	20.82
647.024	21.09
647.214	21.08
647.403	21.14
647.593	21.18
647.782	21.12
647.972	21.27
648.161	21.65
648.351	21.67
648.54	21.54
648.73	21.63
648.919	21.76
649.108	21.63
649.298	21.59
649.487	21.58
649.677	21.43
649.866	21.56
650.055	21.42
650.244	21.28
650.434	21.3
650.623	21.43
650.812	21.37
651.002	21.28
651.191	21.41
651.38	21.49
651.569	21.31
651.758	21.32
651.947	21.46
652.137	21.34
652.326	21.49
652.515	21.41
652.704	21.33
652.893	21.28
653.082	21.45
653.271	21.6
653.46	21.52
653.649	21.84
653.838	22.23
654.027	22.04
654.216	22.03
654.405	21.85
654.594	21.75
654.783	21.59
654.972	21.63
655.161	21.61
655.35	21.36
655.539	21.71
655.728	21.6
655.916	21.39
656.105	21.44
656.294	21.7
656.483	21.59
656.672	21.78
656.86	22
657.049	21.89
657.238	21.82
657.427	21.91
657.615	21.78
657.804	21.92
657.993	21.93
658.181	21.97
658.37	21.84
658.559	22.09
658.747	22.01
658.936	22.05
659.125	22.22
659.313	22.19
659.502	22.25
659.69	22.21
659.879	22.06
660.067	22.01
660.256	21.76
660.444	21.73
660.633	21.56
660.821	21.63
661.01	21.49
661.198	21.23
661.387	21.4
661.575	21.41
661.763	21.25
661.952	21.49
662.14	21.7
662.328	21.85
662.517	21.97
662.705	21.99
662.893	21.76
663.082	21.94
663.27	22.15
663.458	22.15
663.646	21.73
663.834	21.78
664.023	21.59
664.211	21.46
664.399	21.6
664.587	21.72
664.775	21.63
664.963	21.87
665.152	21.86
665.34	21.93
665.528	21.85
665.716	21.95
665.904	21.77
666.092	21.81
666.28	21.69
666.468	21.82
666.656	21.84
666.844	22.08
667.032	22.05
667.22	21.9
667.408	21.89
667.596	22.15
667.784	22.32
667.971	22.51
668.159	22.41
668.347	22.56
668.535	22.3
668.723	22.4
668.911	22.19
669.098	22.4
669.286	22.63
669.474	22.46
669.662	22.4
669.849	22.23
670.037	22.26
670.225	22.53
670.413	22.43
670.6	22.58
670.788	22.42
670.976	22.6
671.163	22.4
671.351	22.33
671.538	22.65
671.726	22.43
671.913	22.54
672.101	22.52
672.289	22.41
672.476	22.64
672.664	22.59
672.851	22.62
673.039	22.48
673.226	22.3
673.413	22.17
673.601	22.09
673.788	21.94
673.976	22.07
674.163	22.06
674.35	22.01
674.538	21.98
674.725	21.75
674.912	21.37
675.1	21.41
675.287	21.61
675.474	21.6
675.662	21.67
675.849	22.12
676.036	22.13
676.223	22.24
676.411	22.08
676.598	21.89
676.785	22.14
676.972	22.46
677.159	22.43
677.346	22.15
677.533	22.15
677.721	21.85
677.908	21.87
678.095	21.93
678.282	22.04
678.469	22.36
678.656	22.23
678.843	22.19
679.03	22.25
679.217	22.44
679.404	22.67
679.591	22.73
679.778	22.95
679.964	22.87
680.151	22.8
680.338	22.63
680.525	22.52
680.712	22.94
680.899	23.16
681.086	22.89
681.272	22.99
681.459	23.01
681.646	22.97
681.833	22.9
682.02	22.75
682.206	22.61
682.393	22.86
682.58	22.88
682.766	22.8
682.953	22.78
683.14	23.21
683.326	23.16
683.513	23.31
683.7	23.5
683.886	23.59
684.073	23.66
684.259	23.7
684.446	23.75
684.632	23.82
684.819	23.43
685.005	23.16
685.192	23.13
685.378	23.04
685.565	22.63
685.751	22.46
685.938	22.52
686.124	22.27
686.31	22.52
686.497	22.23
686.683	22.25
686.87	22.25
687.056	22.47
687.242	22.57
687.429	22.69
687.615	23.19
687.801	23.25
687.987	23.07
688.174	23.35
688.36	23.68
688.546	23.91
688.732	23.53
688.918	23.65
689.105	23.49
689.291	23.33
689.477	23.04
689.663	22.89
689.849	22.86
690.035	22.83
690.221	22.47
690.407	22.33
690.593	22.15
690.779	22.41
690.965	22.66
691.151	22.84
691.337	22.81
691.523	22.95
691.709	23.01
691.895	23.22
692.081	23.37
692.267	23.66
692.453	23.38
692.639	23.26
692.825	23.22
693.011	23.3
693.196	23.24
693.382	23.19
693.568	23.01
693.754	23.09
693.94	23.1
694.125	23.35
694.311	23.16
694.497	22.98
694.682	23.31
694.868	23.66
695.054	23.58
695.239	23.63
695.425	23.78
695.611	24.11
695.796	23.98
695.982	23.84
696.168	23.64
696.353	24.07
696.539	24.33
696.724	24.27
696.91	23.94
697.095	24.02
697.281	23.92
697.466	23.8
697.652	23.77
697.837	23.94
698.023	23.91
698.208	23.98
698.393	23.89
698.579	23.77
698.764	23.86
698.949	24
699.135	23.96
699.32	24.2
699.505	24.32
699.691	24.22
699.876	23.92
700.061	24.15
700.246	24.22
700.432	24.18
700.617	24.28
700.802	23.64
700.987	23.55
701.172	23.71
701.358	23.33
701.543	23.47
701.728	23.9
701.913	24.35
702.098	24.3
702.283	24.19
702.468	24.35
702.653	24.15
702.838	24.71
703.023	24.49
703.208	23.85
703.393	23.84
703.578	23.75
703.763	23.39
703.948	23.09
704.133	23.4
704.318	23
704.503	23.13
704.688	23.33
704.873	23.1
705.057	23.4
705.242	23.91
705.427	24.18
705.612	24.4
705.797	24.41
705.981	24.31
706.166	23.9
706.351	24.2
706.536	23.7
706.72	23.66
706.905	23.68
707.09	23.53
707.274	23.29
707.459	23.55
707.644	23.27
707.828	23.3
708.013	23.15
708.197	23.1
708.382	23.25
708.567	23.39
708.751	22.95
708.936	23.3
709.12	23.68
709.305	24.22
709.489	23.78
709.673	23.63
709.858	23.84
710.042	24.32
710.227	24.38
710.411	24.26
710.596	24.24
710.78	24.39
710.964	24.5
711.149	24.68
711.333	24.67
711.517	25.05
711.702	25.07
711.886	24.83
712.07	24.54
712.254	24.27
712.438	24.38
712.623	24.68
712.807	24.98
712.991	24.82
713.175	24.5
713.359	24.29
713.544	23.87
713.728	23.98
713.912	23.77
714.096	23.61
714.28	23.84
714.464	23.86
714.648	23.82
714.832	23.78
715.016	23.89
715.2	23.86
715.384	23.58
715.568	24.01
715.752	23.85
715.936	23.97
716.12	24.18
716.304	24.46
716.488	24.48
716.671	24.43
716.855	24.59
717.039	24.47
717.223	24.34
717.407	24.48
717.59	24.19
717.774	24.3
717.958	24.13
718.142	23.98
718.325	23.84
718.509	23.48
718.693	23.03
718.877	22.97
719.06	22.64
719.244	23.21
719.428	23.29
719.611	23.32
719.795	23.39
719.978	23.93
720.162	23.88
720.345	23.92
720.529	24.17
720.713	24.41
720.896	24.5
721.08	25.12
721.263	24.47
721.446	24.68
721.63	24.88
721.813	24.97
721.997	24.77
722.18	25.05
722.364	24.74
722.547	24.61
722.73	24.88
722.914	24.81
723.097	24.63
723.28	24.79
723.464	24.52
723.647	24.34
723.83	23.99
724.013	24.4
724.197	24.58
724.38	24.87
724.563	24.83
724.746	24.88
724.929	24.69
725.112	24.85
725.296	24.89
725.479	24.63
725.662	24.46
725.845	24.67
726.028	24.15
726.211	23.81
726.394	23.63
726.577	24.03
726.76	23.72
726.943	23.56
727.126	23.59
727.309	23.33
727.492	23.62
727.675	23.53
727.858	23.56
728.041	23.75
728.224	23.98
728.407	24.15
728.589	23.84
728.772	23.95
728.955	24.51
729.138	24.27
729.321	24.75
729.503	24.66
729.686	24.98
729.869	25.02
730.052	24.85
730.234	24.92
730.417	24.84
730.6	24.88
730.782	25.13
730.965	24.56
731.148	24.42
731.33	24.08
731.513	24.33
731.695	24.31
731.878	24.35
732.061	24.5
732.243	24.63
732.426	24.56
732.608	24.6
732.791	24.91
732.973	25.18
733.156	25.09
733.338	25.01
733.52	24.7
733.703	24.46
733.885	24.48
734.068	24.39
734.25	24.49
734.432	24.59
734.615	24.97
734.797	24.5
734.979	24.42
735.162	24.62
735.344	24.97
735.526	25.18
735.708	25.35
735.891	25.86
736.073	25.8
736.255	25.77
736.437	25.58
736.619	25.18
736.802	25.23
736.984	25.67
737.166	25.94
737.348	25.96
737.53	26.06
737.712	26.38
737.894	26.15
738.076	26.11
738.258	26.05
738.44	26.32
738.622	26.71
738.804	26.23
738.986	26.05
739.168	25.39
739.35	25.3
739.532	24.88
739.714	24.67
739.896	24.21
740.078	24.41
740.259	23.82
740.441	23.98
740.623	23.24
740.805	22.94
740.987	23.06
741.168	23.57
741.35	23.82
741.532	24.11
741.714	23.91
741.895	23.69
742.077	23.78
742.259	23.64
742.44	23.43
742.622	24.29
742.804	24.9
742.985	24.73
743.167	24.84
743.348	25
743.53	25.39
743.711	25.79
743.893	26.12
744.075	26.15
744.256	26.1
744.438	26
744.619	25.67
744.8	25.59
744.982	25.9
745.163	25.8
745.345	25.58
745.526	25.01
745.707	24.54
745.889	24.49
746.07	24.1
746.252	24.34
746.433	24.51
746.614	24.63
746.795	24.81
746.977	24.4
747.158	24.55
747.339	24.42
747.52	25.07
747.702	25.15
747.883	25.34
748.064	25.74
748.245	26.02
748.426	25.75
748.607	25.79
748.788	25.89
748.97	26.17
749.151	25.97
749.332	26.54
749.513	26.26
749.694	26.67
749.875	27.19
750.056	27.36
750.237	28.33
750.418	28.33
750.599	27.98
750.78	27.25
750.96	27.21
751.141	27.22
751.322	26.05
751.503	26.48
751.684	25.73
751.865	25.08
752.046	24.47
752.226	24.17
752.407	23.68
752.588	23.87
752.769	25.27
752.949	25.27
753.13	25.78
753.311	26.37
753.492	26.63
753.672	26.45
753.853	26.5
754.034	26.96
754.214	25.9
754.395	26.57
754.575	26.54
754.756	25.98
754.937	26.15
755.117	25.82
755.298	26.08
755.478	25.62
755.659	26.09
755.839	25.64
756.02	26.42
756.2	26.72
756.381	26.92
756.561	27.59
756.741	27.62
756.922	27.59
757.102	27.08
757.283	26.75
757.463	26.08
757.643	26.5
757.823	27.25
758.004	26.48
758.184	26.44
758.364	25.85
758.545	24.57
758.725	23.86
758.905	23.64
759.085	24.1
759.265	23.98
759.446	23.5
759.626	23.39
759.806	22.89
759.986	23.32
760.166	23.23
760.346	23.66
760.526	24.19
760.706	24.55
760.886	24.53
761.066	24.86
761.246	25.03
761.426	25.92
761.606	25.9
761.786	26.44
761.966	26.37
762.146	27.05
762.326	27.69
762.506	27.45
762.686	27.71
762.866	27.84
763.046	27.5
763.225	27.56
763.405	26.94
763.585	26.82
763.765	26.98
763.945	26.45
764.124	25.99
764.304	25.49
764.484	26.1
764.664	26.11
764.843	25.87
765.023	26.29
765.203	25.93
765.382	26.24
765.562	26
765.741	25.49
765.921	25.57
766.101	26.45
766.28	26.47
766.46	25.95
766.639	25.1
766.819	25.17
766.998	24.16
767.178	24.23
767.357	24.55
767.537	25.4
767.716	25.37
767.896	25.62
768.075	24.66
768.254	23.92
768.434	23.5
768.613	24.36
768.792	24.23
768.972	24.66
769.151	25.08
769.33	24.92
769.51	24.74
769.689	25.23
769.868	24.91
770.047	25.07
770.226	24.93
770.406	26.3
770.585	26.23
770.764	26.3
770.943	26.7
771.122	26.99
771.301	27.24
771.48	26.78
771.66	26.19
771.839	26.81
772.018	26.32
772.197	27.14
772.376	26.63
772.555	26.72
772.734	27.09
772.913	26.67
773.092	26.33
773.271	26.74
773.449	26.9
773.628	27.21
773.807	27.31
773.986	27.79
774.165	28.22
774.344	28.37
774.523	28.3
774.701	28.11
774.88	28.75
775.059	29.23
775.238	28.91
775.417	29.56
775.595	29.74
775.774	28.8
775.953	28.62
776.131	28.02
776.31	27.68
776.489	27.52
776.667	27.99
776.846	27.81
777.025	27.85
777.203	26.91
777.382	27.03
777.56	27.69
777.739	28.24
777.917	29.03
778.096	29.26
778.274	28.18
778.453	28.55
778.631	27.86
778.81	27.68
778.988	27.26
779.166	27.28
779.345	26.88
779.523	25.87
779.702	26.45
779.88	26
780.058	25.97
780.237	27.35
780.415	27.25
780.593	28.23
780.771	28.36
780.95	28.98
781.128	30.33
781.306	29.78
781.484	30.01
781.662	29.55
781.841	29.4
782.019	29.02
782.197	28.71
782.375	28.5
782.553	27.91
782.731	27.67
782.909	26.66
783.087	26.1
783.265	26.83
783.443	26.38
783.621	26.45
783.799	26.62
783.977	26.86
784.155	26.17
784.333	26.47
784.511	25.77
784.689	26.14
784.867	25.94
785.045	26.09
785.223	26.46
785.4	27.47
785.578	27.65
785.756	27.77
785.934	27.9
786.112	28.81
786.289	28.09
786.467	28.77
786.645	28.61
786.823	29.54
787	30.2
787.178	29.65
787.356	29.03
787.533	28.35
787.711	28.25
787.889	28.64
788.066	28.3
788.244	29.07
788.421	28.99
788.599	28.93
788.776	27.75
788.954	27.23
789.131	27.94
789.309	28.58
789.486	29.71
789.664	29.73
789.841	30.02
790.019	30.09
790.196	30.09
790.373	29.97
790.551	30.06
790.728	31.47
790.906	31.56
791.083	31.28
791.26	30.97
791.437	30.75
791.615	31.01
791.792	30.1
791.969	29.95
792.146	29.63
792.324	29.71
792.501	31.12
792.678	29.96
792.855	29.54
793.032	28.83
793.209	28.21
793.387	28.3
793.564	28.14
793.741	28.38
793.918	28.61
794.095	29.21
794.272	28.61
794.449	27.5
794.626	28.1
794.803	27.78
794.98	28.34
795.157	28.94
795.334	29.28
795.511	28.19
795.688	27.86
795.864	27.87
796.041	27.7
796.218	28.31
796.395	27.96
796.572	27.43
796.749	27.6
796.925	25.99
797.102	24.76
797.279	23.36
797.456	24.22
797.632	24.92
797.809	24.45
797.986	23.85
798.162	24.19
798.339	24.75
798.516	24.91
798.692	24.74
798.869	26.39
799.046	27.17
799.222	27.91
799.399	28.05
799.575	28.03
799.752	27.83
799.928	28.43
800.105	26.89
800.281	27.24
800.458	27.67
800.634	29.11
800.811	28.61
800.987	27.7
801.163	27.42
801.34	28.01
801.516	27.7
801.692	28.8
801.869	28
802.045	28.62
802.221	27.13
802.398	27.53
802.574	26.69
802.75	26.65
802.926	26.28
803.103	26.45
803.279	25.63
803.455	24.51
803.631	24.91
803.807	26.69
803.983	27
804.16	27.07
804.336	25.28
804.512	24.2
804.688	25.26
804.864	26.51
805.04	25.47
805.216	25.83
805.392	26.71
805.568	26.03
805.744	25.41
805.92	25.21
806.096	26.14
806.272	28.89
806.448	30.13
806.623	28.48
806.799	30
806.975	31.05
807.151	30.7
807.327	30.14
807.503	29.34
807.678	28.62
807.854	27.91
808.03	27.9
808.206	26.42
808.381	26.16
808.557	25.69
808.733	23.14
808.908	22.43
809.084	22.41
809.26	22.45
809.435	23.16
809.611	22.41
809.787	22.99
809.962	22.76
810.138	22.08
810.313	21.55
810.489	22.68
810.664	23.3
810.84	22.61
811.015	22.28
811.191	24.23
811.366	24.9
811.542	26.02
811.717	27.03
811.892	26.75
812.068	28.17
812.243	28.27
812.419	28.51
812.594	29.05
812.769	30.7
812.944	30.78
813.12	29.69
813.295	28.96
813.47	28.85
813.645	28.27
813.821	29.37
813.996	29.2
814.171	29.99
814.346	30.3
814.521	30.54
814.697	31.5
814.872	31.16
815.047	30.71
815.222	31.39
815.397	30.6
815.572	29.65
815.747	28.5
815.922	27.56
816.097	26.8
816.272	27.41
816.447	26.19
816.622	24.93
816.797	25.87
816.972	25.79
817.147	25.21
817.322	24.91
817.496	25.78
817.671	26.28
817.846	26.22
818.021	25.34
818.196	25.27
818.371	25.89
818.545	27.03
818.72	26.95
818.895	28
819.069	27.77
819.244	28.73
819.419	28.56
819.594	27.44
819.768	27.67
819.943	28.49
820.117	29.11
820.292	29.17
820.467	28.91
820.641	28.49
820.816	27.83
820.99	28.04
821.165	28.11
821.339	28.22
821.514	28.67
821.688	28.64
821.863	28.54
822.037	28.07
822.212	28.11
822.386	28.01
822.56	28.21
822.735	28.13
822.909	28.02
823.084	27.75
823.258	27.44
823.432	27.43
823.606	27.3
823.781	27.2
823.955	27.38
824.129	27.39
824.303	27.41
824.478	27.3
824.652	27.68
824.826	27.66
825	28.11
825.174	28.15
825.348	27.81
825.523	28.16
825.697	28.21
825.871	28.17
826.045	27.87
826.219	27.24
826.393	27.37
826.567	27.31
826.741	27.38
826.915	27.19
827.089	27.55
827.263	27.75
827.437	27.65
827.611	27.92
827.784	28.04
827.958	28.27
828.132	28.84
828.306	28.3
828.48	28.12
828.654	28.35
828.827	28.73
829.001	29.29
829.175	29.16
829.349	29.28
829.522	29.54
829.696	30.03
829.87	29.99
830.044	30.94
830.217	31.17
830.391	31.9
830.565	31.53
830.738	30.29
830.912	30.03
831.085	30.1
831.259	29.37
831.432	28.34
831.606	27.63
831.779	27.95
831.953	27.01
832.126	26.86
832.3	27.44
832.473	28.02
832.647	28.49
832.82	27.99
832.994	27.23
833.167	27.87
833.34	27.95
833.514	27.74
833.687	27.35
833.86	27.66
834.034	28.01
834.207	27.7
834.38	27.03
834.553	26.78
834.727	27.2
834.9	28.53
835.073	28.02
835.246	28.58
835.419	29.14
835.593	29.86
835.766	29.09
835.939	29.61
836.112	29.47
836.285	30.59
836.458	32.01
836.631	31.68
836.804	31.63
836.977	32.24
837.15	32.04
837.323	30.4
837.496	31.42
837.669	32.05
837.842	31.28
838.015	30.19
838.188	29.09
838.361	27.52
838.533	26.93
838.706	26.16
838.879	25.4
839.052	25.29
839.225	26.16
839.398	23.6
839.57	22.83
839.743	25.52
839.916	26.26
840.088	26.46
840.261	26.39
840.434	27.1
840.607	27.18
840.779	27.49
840.952	26.42
841.124	26.56
841.297	28.25
841.47	30.16
841.642	28.56
841.815	29.63
841.987	30.6
842.16	31.72
842.332	31.77
842.505	32.35
842.677	32.61
842.85	34.96
843.022	37.1
843.194	36.28
843.367	33.81
843.539	33.65
843.712	32.39
843.884	32.32
844.056	31.57
844.229	32.42
844.401	31.32
844.573	31.54
844.745	29.76
844.918	27.05
845.09	26.18
845.262	28.98
845.434	28.66
845.606	29.19
845.779	27.09
845.951	25.14
846.123	22.84
846.295	23.68
846.467	24.89
846.639	26.3
846.811	28.6
846.983	31
847.155	28.42
847.327	28.09
847.499	27.88
847.671	28.67
847.843	29.2
848.015	29.97
848.187	30.8
848.359	30.81
848.531	28.78
848.703	29.4
848.875	27.95
849.047	28.42
849.218	27.59
849.39	28.3
849.562	26.96
849.734	28.05
849.905	28.41
850.077	27.17
850.249	22.58
850.421	22.76
850.592	17.36
850.764	20.08
850.936	21.88
851.107	22.32
851.279	21.94
851.451	26.71
851.622	25.9
851.794	26.1
851.965	26.51
852.137	30.96
852.308	34.09
852.48	40.24
852.651	34.89
852.823	34.52
852.994	34.71
853.166	34.88
853.337	33.19
853.509	35.16
853.68	38.23
853.851	34.21
854.023	33.03
854.194	28.05
854.365	26.39
854.537	29.31
854.708	29.98
854.879	31.27
855.05	28.72
855.222	26.82
855.393	24.06
855.564	20.06
855.735	25.39
855.906	26.82
856.078	29.42
856.249	26.91
856.42	29.02
856.591	25.86
856.762	27.65
856.933	31.56
857.104	33.65
857.275	36.61
857.446	36.19
857.617	35.27
857.788	34.08
857.959	35.75
858.13	37.71
858.301	35.51
858.472	37.84
858.643	34.3
858.814	32.63
858.985	35.37
859.155	37.52
859.326	37.56
859.497	34.38
859.668	35.14
859.839	33.36
860.009	32.41
860.18	33.65
860.351	32.35
860.522	30.75
860.692	31.46
860.863	23.7
861.034	18.83
861.204	19.48
861.375	21.78
861.546	21.36
861.716	20.57
861.887	18.66
862.057	19.32
862.228	20.78
862.398	23.88
862.569	23.91
862.739	30.17
862.91	33.48
863.08	35.93
863.251	37.49
863.421	38.83
863.592	38.32
863.762	44
863.932	40.65
864.103	39.09
864.273	41.96
864.443	39.95
864.614	39.72
864.784	41.09
864.954	42.42
865.125	42.28
865.295	42.35
865.465	42.44
865.635	35.64
865.805	40.48
865.976	40.43
866.146	38.82
866.316	42.35
866.486	41.27
866.656	38.27
866.826	32.94
866.996	32.34
867.166	30.91
867.336	29.75
867.506	32.62
867.676	28.83
867.846	30.16
868.016	27.6
868.186	25.48
868.356	27.6
868.526	28.94
868.696	28.47
868.866	30.69
869.036	27.08
869.206	30.83
869.376	32.18
869.545	29.41
869.715	28.95
869.885	28
870.055	33.89
870.224	31.17
870.394	32.28
870.564	35.99
870.734	33.16
870.903	36.87
871.073	35.77
871.243	34.34
871.412	37.39
871.582	38.63
871.751	38.49
871.921	36.58
872.091	35.57
872.26	31.32
872.43	27.42
872.599	25.83
872.769	28.6
872.938	27.52
873.108	25.47
873.277	25.68
873.446	21.59
873.616	21.76
873.785	23.7
873.955	23.91
874.124	28.09
874.293	33.18
874.463	36.82
874.632	32.88
874.801	35.43
874.971	36.05
875.14	37.03
875.309	36.91
875.478	37.38
875.647	30.04
875.817	28.16
875.986	26.16
876.155	25.42
876.324	24.92
876.493	28.2
876.662	30.26
876.831	33.57
877	35.01
877.17	35.05
877.339	37.12
877.508	39.91
877.677	41.04
877.846	39.04
878.015	38.46
878.184	35.63
878.352	33.9
878.521	32.46
878.69	29.21
878.859	26.32
879.028	27.07
879.197	29.25
879.366	28.11
879.534	28.25
879.703	30.93
879.872	28.9
880.041	28.59
880.21	28.8
880.378	27.17
880.547	26.73
880.716	27.95
880.884	28.86
881.053	28.13
881.222	28.41
881.39	28.9
881.559	27.75
881.727	27.74
881.896	27.92
882.065	27.98
882.233	27.86
882.402	28.32
882.57	27.79
882.739	27.27
882.907	27.22
883.076	27.45
883.244	26.97
883.412	27.32
883.581	28.28
883.749	28.49
883.918	27.64
884.086	28.32
884.254	28.73
884.423	29.32
884.591	29.67
884.759	29.05
884.927	28.64
885.096	28.88
885.264	28.7
885.432	28.74
885.6	29.67
885.769	30.3
885.937	29.32
886.105	28.4
886.273	27.92
886.441	27.93
886.609	28.26
886.777	27.56
886.945	28.84
887.113	29.9
887.281	29.38
887.449	29.63
887.617	30.59
887.785	34.54
887.953	34.33
888.121	34.02
888.289	33.2
888.457	34.09
888.625	35.5
888.793	35.6
888.961	33.91
889.129	32.79
889.296	31.48
889.464	31.78
889.632	28.18
889.8	29.65
889.967	29.85
890.135	30.67
