Data from 2938457_Reflection_1.txt Node
Date: Fri Jun 19 17:42:29 EDT 2015
User: robert
Spectrometer: USB4E03002
Autoset integration time: false
Trigger mode: 4
Integration Time (sec): 1.000000E-1
Scans to average: 10
Electric dark correction enabled: true
Nonlinearity correction enabled: false
Boxcar width: 5
Stray light correction enabled: false
XAxis mode: Wavelengths
Stop averaging: false
Number of Pixels in Spectrum: 3648
>>>>>Begin Spectral Data<<<<<
177.575	74.13
177.794	488.54
178.014	-113.36
178.233	110.47
178.452	361.86
178.672	350.42
178.891	-179.64
179.11	-13.06
179.33	-42.03
179.549	-26.02
179.768	4.72
179.987	-87.53
180.207	-359.17
180.426	-293.18
180.645	169.89
180.864	-29.49
181.084	34.68
181.303	-48.92
181.522	-14.52
181.741	47.53
181.96	78.82
182.179	98.7
182.398	12.26
182.618	9.35
182.837	-3.6
183.056	21.97
183.275	46.27
183.494	29.94
183.713	66.53
183.932	43.27
184.151	-233.54
184.37	-127.33
184.589	-107.89
184.808	-98.22
185.027	-129.23
185.246	1723.36
185.465	518.79
185.684	326.69
185.903	180.24
186.122	257.93
186.341	255.17
186.56	265.94
186.779	235.95
186.998	181.89
187.216	210.68
187.435	296.59
187.654	636.06
187.873	587.72
188.092	-15732.61
188.311	-1247.16
188.53	1173.19
188.748	410.48
188.967	438.73
189.186	1136.35
189.405	-689.58
189.623	-1498.29
189.842	259.77
190.061	250.03
190.28	223.95
190.498	124.04
190.717	157
190.936	134.52
191.154	94.65
191.373	49.9
191.592	35.49
191.81	24.25
192.029	44.05
192.248	35.76
192.466	36.27
192.685	17.56
192.904	6.74
193.122	13.6
193.341	16.97
193.559	25.18
193.778	42.83
193.996	30.53
194.215	27.18
194.433	17.91
194.652	24.08
194.87	10.42
195.089	35.34
195.307	36.4
195.526	51.17
195.744	76.65
195.963	127.85
196.181	112.75
196.399	151.25
196.618	200.62
196.836	168.29
197.055	141.51
197.273	169.75
197.491	195.17
197.71	217.96
197.928	221.42
198.146	188.14
198.365	153.14
198.583	129.83
198.801	104.31
199.019	97.59
199.238	84.4
199.456	84.54
199.674	89.63
199.892	83.41
200.111	88.47
200.329	95.05
200.547	93.78
200.765	101.82
200.983	144.86
201.202	181.5
201.42	255.54
201.638	527.42
201.856	805.38
202.074	683.59
202.292	1975.83
202.51	790.96
202.728	1320.78
202.946	888.17
203.165	732.64
203.383	249.19
203.601	232.19
203.819	178.16
204.037	139.21
204.255	124.18
204.473	130.89
204.691	196.94
204.909	195.74
205.127	157.29
205.345	139.41
205.562	200.33
205.78	211.16
205.998	209.71
206.216	182.07
206.434	239
206.652	482.93
206.87	213.19
207.088	197.34
207.306	-1711.79
207.523	942.38
207.741	216.06
207.959	313.15
208.177	1446.29
208.395	122.14
208.612	89.08
208.83	-3.5
209.048	35.19
209.266	48.82
209.483	66.37
209.701	57.99
209.919	60.18
210.136	81.37
210.354	80.11
210.572	66.77
210.79	92.61
211.007	85.23
211.225	80.21
211.442	124.55
211.66	122.13
211.878	98.25
212.095	-213.44
212.313	-106.18
212.53	-89.64
212.748	-99.05
212.966	-73.46
213.183	-108.48
213.401	-202.58
213.618	-1420.44
213.836	834.01
214.053	394.37
214.271	-936.2
214.488	108.14
214.705	156.84
214.923	140.28
215.14	119.74
215.358	147.47
215.575	209.64
215.793	181.66
216.01	167.28
216.227	151.47
216.445	156.82
216.662	121.86
216.879	114.19
217.097	56.95
217.314	58.97
217.531	59.8
217.749	53.53
217.966	60.28
218.183	66.85
218.4	38.65
218.618	41.57
218.835	42.23
219.052	42.94
219.269	51.29
219.487	63.54
219.704	74.26
219.921	72.86
220.138	69.17
220.355	59.08
220.572	62.19
220.79	79.62
221.007	77.28
221.224	67.36
221.441	62.17
221.658	52.67
221.875	44.46
222.092	25.62
222.309	15.78
222.526	23.59
222.743	27.09
222.96	23.4
223.177	17.4
223.394	23.02
223.611	29.54
223.828	32.49
224.045	36.28
224.262	43.54
224.479	46.7
224.696	53.77
224.913	51.74
225.13	41.76
225.347	35.23
225.564	32.16
225.781	26.65
225.997	25.35
226.214	24.43
226.431	21.46
226.648	20.38
226.865	20.37
227.082	18.62
227.298	17.52
227.515	18.57
227.732	18.07
227.949	17.18
228.165	18.04
228.382	15.98
228.599	16.12
228.816	16.29
229.032	15.61
229.249	14.18
229.466	13.79
229.682	11.9
229.899	11.17
230.116	10.22
230.332	10.61
230.549	9.59
230.765	13.48
230.982	13.5
231.199	12.52
231.415	14.18
231.632	14.76
231.848	17.03
232.065	19.04
232.281	19.63
232.498	23.67
232.714	22.94
232.931	22.11
233.147	18.76
233.364	17.18
233.58	19.21
233.797	18.98
234.013	19.05
234.23	13.55
234.446	15.83
234.662	16.88
234.879	13.94
235.095	15.15
235.312	15.47
235.528	17.3
235.744	19.1
235.961	21.54
236.177	20.99
236.393	24.14
236.61	27.56
236.826	27.1
237.042	26.57
237.258	27.22
237.475	26.8
237.691	25.04
237.907	23.29
238.123	22.03
238.339	23.11
238.556	21.11
238.772	19.08
238.988	18.92
239.204	17.72
239.42	15.91
239.636	17.26
239.853	17.42
240.069	17.94
240.285	18.21
240.501	17.78
240.717	15.97
240.933	16.8
241.149	16.59
241.365	17.34
241.581	17.94
241.797	17.88
242.013	17.17
242.229	17.35
242.445	17.41
242.661	17.2
242.877	16.68
243.093	16.54
243.309	15.49
243.525	15.16
243.741	13.93
243.957	13.52
244.173	13.83
244.388	13.61
244.604	13
244.82	13.07
245.036	12.39
245.252	12.14
245.468	11.85
245.683	12.51
245.899	12.14
246.115	11.95
246.331	11.71
246.547	11.8
246.762	11.73
246.978	11.91
247.194	11.47
247.409	12.5
247.625	13.09
247.841	13.8
248.057	13.72
248.272	14.1
248.488	13.73
248.703	14.7
248.919	13.56
249.135	13.74
249.35	13.57
249.566	14.86
249.782	13.79
249.997	14.39
250.213	12.86
250.428	11.57
250.644	11.5
250.859	11.88
251.075	11.1
251.29	11.6
251.506	12.38
251.721	12.21
251.937	11.44
252.152	11.39
252.368	9.86
252.583	11.09
252.798	13.23
253.014	11.16
253.229	12.01
253.445	11.3
253.66	11.97
253.875	9.37
254.091	9.17
254.306	7.51
254.521	7.46
254.737	7.29
254.952	5.8
255.167	4.81
255.383	8.07
255.598	7.8
255.813	8.24
256.028	7.28
256.244	7.95
256.459	7.56
256.674	8.36
256.889	8.89
257.104	9.03
257.32	10.51
257.535	9.77
257.75	9.89
257.965	9.56
258.18	9.49
258.395	10.04
258.61	10.17
258.826	10.28
259.041	10.03
259.256	9.91
259.471	10
259.686	9.35
259.901	9.56
260.116	9.14
260.331	8.47
260.546	8.81
260.761	8.08
260.976	8.06
261.191	7.89
261.406	7.17
261.621	7.71
261.836	8.2
262.05	7.66
262.265	7.31
262.48	8.13
262.695	9.13
262.91	8.69
263.125	8.53
263.34	8.12
263.555	9.01
263.769	10.37
263.984	8.6
264.199	8.98
264.414	9.6
264.629	10.79
264.843	9.97
265.058	9.59
265.273	10.13
265.488	11.57
265.702	12.01
265.917	11.44
266.132	12.08
266.346	13.27
266.561	13.03
266.776	12.79
266.99	12.55
267.205	12.51
267.42	13.12
267.634	12.88
267.849	10.99
268.063	11.04
268.278	10.57
268.492	9.28
268.707	8.88
268.922	9
269.136	8.7
269.351	7.86
269.565	8.38
269.78	8.27
269.994	7.17
270.209	8.07
270.423	8.01
270.637	8.6
270.852	8.51
271.066	8.64
271.281	8.32
271.495	8.17
271.709	8.83
271.924	8.47
272.138	8.76
272.353	8.88
272.567	9.34
272.781	9.47
272.996	9.58
273.21	10.67
273.424	10.86
273.638	11.52
273.853	12.07
274.067	11.78
274.281	12.15
274.495	12.11
274.71	13.43
274.924	12.49
275.138	11.66
275.352	11.17
275.566	11.15
275.781	10.02
275.995	9.63
276.209	10.33
276.423	10.43
276.637	9.91
276.851	9.49
277.065	9.16
277.279	9.8
277.493	10.28
277.707	10.62
277.921	10
278.135	10.71
278.349	10.49
278.563	10.52
278.777	10.42
278.991	10.13
279.205	10.56
279.419	10.9
279.633	10.66
279.847	10.5
280.061	10.63
280.275	10.82
280.489	10.82
280.703	11.37
280.917	10.64
281.131	10.81
281.344	11.25
281.558	11.21
281.772	11.03
281.986	11.2
282.2	11.53
282.414	11.81
282.627	11.28
282.841	11.3
283.055	10.82
283.269	11.38
283.482	11.15
283.696	10.89
283.91	10.63
284.123	10.35
284.337	10.32
284.551	9.96
284.764	9.84
284.978	9.96
285.192	9.98
285.405	10.6
285.619	9.89
285.833	9.88
286.046	10.14
286.26	10.96
286.473	10.78
286.687	10.69
286.9	11.04
287.114	10.96
287.327	11.01
287.541	10.46
287.754	9.99
287.968	10.13
288.181	9.23
288.395	9.21
288.608	8.36
288.822	8.11
289.035	8.17
289.248	7.19
289.462	7.46
289.675	7.67
289.889	7.62
290.102	7.43
290.315	7.72
290.529	8.9
290.742	9.37
290.955	9.02
291.169	9.61
291.382	9.5
291.595	10.67
291.808	10.06
292.022	9.96
292.235	10.3
292.448	10.28
292.661	9.39
292.875	9.71
293.088	9.09
293.301	9.62
293.514	9.88
293.727	9.6
293.94	8.98
294.153	8.78
294.367	8.58
294.58	8.53
294.793	8.91
295.006	9.5
295.219	9.49
295.432	9.48
295.645	9.43
295.858	9.3
296.071	9.39
296.284	9.86
296.497	9.98
296.71	10.23
296.923	10.89
297.136	11.1
297.349	11.05
297.562	10.74
297.775	11.19
297.988	11.39
298.201	11.54
298.414	11.81
298.626	11.74
298.839	11.83
299.052	11.2
299.265	10.79
299.478	10.55
299.691	10.7
299.903	10.6
300.116	9.87
300.329	10.38
300.542	10.41
300.755	10.3
300.967	10.5
301.18	10.36
301.393	11.16
301.605	11.53
301.818	10.85
302.031	11.2
302.243	11.16
302.456	11.78
302.669	11
302.881	10.85
303.094	12.23
303.307	11.22
303.519	11.12
303.732	11.16
303.944	10.75
304.157	10.41
304.37	9.78
304.582	10.39
304.795	9.96
305.007	10.38
305.22	10.44
305.432	8.42
305.645	9.2
305.857	10.19
306.069	10.69
306.282	10.5
306.494	10.87
306.707	11.77
306.919	12.1
307.132	12.21
307.344	12.12
307.556	11.32
307.769	11.51
307.981	11.44
308.193	11.45
308.406	11.17
308.618	11.42
308.83	11.62
309.043	11.09
309.255	10.49
309.467	10.75
309.679	10.59
309.892	10.85
310.104	11.59
310.316	11.23
310.528	10.35
310.74	10.25
310.953	10.13
311.165	10.05
311.377	10.04
311.589	9.33
311.801	9.77
312.013	9.97
312.225	10.52
312.437	10.77
312.649	11.31
312.862	12.41
313.074	12.65
313.286	12.77
313.498	11.98
313.71	12.04
313.922	13.53
314.134	13.06
314.346	12.49
314.558	12.07
314.77	11.12
314.982	11.36
315.193	11.52
315.405	11.67
315.617	11.21
315.829	13.49
316.041	14.14
316.253	13.62
316.465	13.58
316.677	14.51
316.888	14.98
317.1	15.4
317.312	15.54
317.524	14.74
317.736	14.4
317.947	14.69
318.159	13.2
318.371	12.53
318.583	13.65
318.794	13.81
319.006	13.39
319.218	13.22
319.43	13.27
319.641	12.71
319.853	13.17
320.064	14.22
320.276	14.37
320.488	14.75
320.699	14.79
320.911	13.18
321.123	13.62
321.334	12.68
321.546	12.58
321.757	12.75
321.969	13.06
322.18	12.58
322.392	11.64
322.603	12.28
322.815	12.7
323.026	13.12
323.238	12.94
323.449	12.04
323.661	13.2
323.872	14.1
324.083	13.78
324.295	14.44
324.506	15.3
324.718	14.58
324.929	13.53
325.14	12.98
325.352	12.83
325.563	13.94
325.774	13.92
325.986	13.77
326.197	12.99
326.408	13.4
326.62	12.91
326.831	11.86
327.042	12.73
327.253	13.11
327.464	13.68
327.676	13.57
327.887	13.26
328.098	13.39
328.309	12.17
328.52	12.22
328.732	12.13
328.943	11.91
329.154	12.31
329.365	12.98
329.576	12.99
329.787	11.58
329.998	12.06
330.209	11.71
330.42	11.38
330.631	12.68
330.842	12.45
331.053	12.27
331.264	11.35
331.475	11.82
331.686	10.55
331.897	11.06
332.108	12.24
332.319	11.75
332.53	11.96
332.741	12.08
332.952	11.87
333.163	11.66
333.374	11.56
333.585	12.21
333.795	11.73
334.006	12.4
334.217	12.39
334.428	12.19
334.639	12.29
334.849	12.22
335.06	13.33
335.271	13.18
335.482	13.5
335.692	12.64
335.903	13.08
336.114	12.59
336.325	12.1
336.535	11.93
336.746	11.61
336.957	11.87
337.167	12.59
337.378	11.56
337.589	11.51
337.799	10.92
338.01	11.65
338.22	11.09
338.431	12.06
338.642	12.43
338.852	12.09
339.063	12.41
339.273	11.82
339.484	10.77
339.694	11.46
339.905	11.77
340.115	12.01
340.326	11.9
340.536	12.17
340.746	11.32
340.957	11.23
341.167	11.56
341.378	11.58
341.588	12.11
341.799	12.34
342.009	11.02
342.219	11.07
342.43	11
342.64	11.5
342.85	11.54
343.061	12.19
343.271	11.78
343.481	11.6
343.691	11.28
343.902	11.06
344.112	11.17
344.322	11.68
344.532	11.53
344.743	11.89
344.953	10.76
345.163	10.58
345.373	10.57
345.583	10.49
345.793	10.25
346.004	10.9
346.214	10.25
346.424	10.14
346.634	10.33
346.844	10.33
347.054	10
347.264	10.7
347.474	10.56
347.684	10.16
347.894	10.96
348.104	11.14
348.314	10.44
348.524	10.42
348.734	10.34
348.944	10.68
349.154	10.27
349.364	10.47
349.574	9.98
349.784	9.79
349.994	9.94
350.204	8.88
350.413	8.32
350.623	8.64
350.833	9.22
351.043	8.97
351.253	8.52
351.463	9.21
351.672	9.19
351.882	9.67
352.092	9.58
352.302	10.14
352.511	10.51
352.721	11.08
352.931	10.73
353.141	10.33
353.35	10.7
353.56	10.63
353.77	9.61
353.979	9.34
354.189	9.6
354.399	9.78
354.608	9
354.818	9.15
355.027	9.15
355.237	9.32
355.447	9.64
355.656	9.7
355.866	10.13
356.075	10.77
356.285	10.6
356.494	10.12
356.704	10.04
356.913	10.14
357.123	10.02
357.332	9.73
357.542	9.56
357.751	9.29
357.96	9.53
358.17	9.15
358.379	9
358.589	9.27
358.798	9.79
359.007	10.05
359.217	10.03
359.426	10.16
359.635	10.19
359.845	10.51
360.054	10.64
360.263	10.06
360.472	10.08
360.682	10.08
360.891	9.83
361.1	9.36
361.309	8.92
361.519	9.19
361.728	8.75
361.937	8.46
362.146	7.88
362.355	7.97
362.564	8.15
362.774	7.77
362.983	7.43
363.192	7.97
363.401	7.82
363.61	8.12
363.819	7.47
364.028	7.24
364.237	7.43
364.446	7.36
364.655	7.18
364.864	6.8
365.073	7.18
365.282	7.15
365.491	6.53
365.7	7.17
365.909	7.5
366.118	7.61
366.327	8.1
366.536	8
366.745	8.55
366.954	8.05
367.162	8.39
367.371	8.5
367.58	8.35
367.789	8.63
367.998	8.27
368.207	7.49
368.415	7.06
368.624	6.93
368.833	7.02
369.042	6.62
369.25	7.28
369.459	7.69
369.668	7.54
369.877	7.87
370.085	7.44
370.294	7.58
370.503	8.03
370.711	8.37
370.92	8.35
371.129	8.37
371.337	8.35
371.546	7.91
371.754	6.98
371.963	6.99
372.171	6.75
372.38	7.36
372.589	6.88
372.797	6.85
373.006	6.93
373.214	7.08
373.423	6.77
373.631	6.72
373.84	6.73
374.048	7.1
374.256	6.69
374.465	6.92
374.673	6.2
374.882	6.15
375.09	5.82
375.298	5.91
375.507	5.68
375.715	6.12
375.923	6.29
376.132	6.3
376.34	5.92
376.548	6.17
376.757	6.15
376.965	6.61
377.173	7.09
377.381	7.05
377.59	6.62
377.798	6.88
378.006	6.92
378.214	6.87
378.423	6.96
378.631	7.45
378.839	6.9
379.047	6.73
379.255	6.83
379.463	6.72
379.671	6.91
379.879	6.96
380.088	6.52
380.296	6.15
380.504	6.04
380.712	6.13
380.92	5.99
381.128	6.38
381.336	6.18
381.544	5.98
381.752	5.8
381.96	5.64
382.168	5.87
382.376	6.09
382.584	6.11
382.791	5.94
382.999	5.84
383.207	5.59
383.415	5.28
383.623	5.38
383.831	5.45
384.039	5.12
384.247	5.02
384.454	4.87
384.662	4.73
384.87	4.46
385.078	4.56
385.285	4.38
385.493	4.7
385.701	4.82
385.909	4.89
386.116	4.78
386.324	5.1
386.532	5.14
386.739	5.32
386.947	5.21
387.155	5.48
387.362	5.56
387.57	5.31
387.778	5.16
387.985	5.47
388.193	5.38
388.4	5.06
388.608	4.96
388.816	5.06
389.023	4.89
389.231	5.01
389.438	4.71
389.646	4.53
389.853	4.69
390.061	4.58
390.268	4.23
390.475	3.97
390.683	4.25
390.89	4.03
391.098	3.83
391.305	3.68
391.512	3.51
391.72	3.54
391.927	3.61
392.135	3.68
392.342	3.69
392.549	3.86
392.756	3.99
392.964	3.83
393.171	4.05
393.378	4.06
393.586	3.89
393.793	3.98
394	4.17
394.207	4.09
394.414	3.92
394.622	3.77
394.829	3.76
395.036	3.82
395.243	3.9
395.45	3.87
395.657	4.06
395.864	4.37
396.072	4.48
396.279	4.32
396.486	4.4
396.693	4.26
396.9	4.34
397.107	4.42
397.314	4.26
397.521	4.26
397.728	4.03
397.935	3.76
398.142	3.84
398.349	3.63
398.556	3.62
398.763	3.71
398.97	3.72
399.177	3.72
399.383	3.54
399.59	3.58
399.797	3.44
400.004	3.59
400.211	3.86
400.418	3.56
400.625	3.71
400.831	3.65
401.038	3.61
401.245	3.78
401.452	3.73
401.658	3.57
401.865	3.61
402.072	3.54
402.279	3.49
402.485	3.1
402.692	3.19
402.899	3.07
403.105	3.01
403.312	2.76
403.519	2.68
403.725	2.69
403.932	2.81
404.138	2.76
404.345	2.83
404.552	2.81
404.758	2.99
404.965	3.08
405.171	2.98
405.378	3.14
405.584	3.12
405.791	3.11
405.997	3.08
406.204	3.12
406.41	3.15
406.617	3.06
406.823	2.92
407.029	2.8
407.236	2.71
407.442	2.89
407.649	2.88
407.855	3
408.061	3.03
408.268	3.04
408.474	2.99
408.68	2.95
408.887	3.08
409.093	3.31
409.299	3.56
409.505	3.45
409.712	3.52
409.918	3.34
410.124	3.36
410.33	3.48
410.537	3.3
410.743	3.3
410.949	3.37
411.155	3.29
411.361	3.11
411.567	2.75
411.773	2.76
411.98	2.64
412.186	2.84
412.392	2.91
412.598	2.81
412.804	2.93
413.01	2.76
413.216	2.71
413.422	2.72
413.628	2.73
413.834	2.87
414.04	2.92
414.246	2.88
414.452	2.94
414.658	2.87
414.864	2.76
415.07	2.71
415.275	2.89
415.481	2.91
415.687	2.78
415.893	2.81
416.099	2.77
416.305	2.87
416.511	2.9
416.716	2.79
416.922	2.76
417.128	2.82
417.334	2.83
417.539	2.72
417.745	2.68
417.951	2.76
418.157	2.66
418.362	2.65
418.568	2.54
418.774	2.41
418.979	2.37
419.185	2.4
419.391	2.34
419.596	2.33
419.802	2.3
420.008	2.28
420.213	1.78
420.419	1.75
420.624	1.75
420.83	1.77
421.035	1.8
421.241	1.86
421.446	1.8
421.652	1.86
421.857	1.88
422.063	1.99
422.268	1.98
422.474	2.42
422.679	2.43
422.885	2.43
423.09	2.47
423.295	2.56
423.501	2.5
423.706	2.51
423.911	2.45
424.117	2.51
424.322	2.45
424.527	2.41
424.733	2.52
424.938	2.58
425.143	2.6
425.349	2.53
425.554	2.53
425.759	2.55
425.964	2.46
426.169	2.49
426.375	2.4
426.58	2.34
426.785	2.49
426.99	2.34
427.195	2.45
427.4	2.41
427.605	2.41
427.811	2.34
428.016	2.39
428.221	2.52
428.426	2.41
428.631	2.42
428.836	2.58
429.041	2.6
429.246	2.69
429.451	2.54
429.656	2.44
429.861	2.49
430.066	2.4
430.271	2.33
430.476	2.39
430.681	2.45
430.886	2.43
431.09	2.16
431.295	2.21
431.5	2.13
431.705	2.17
431.91	2.28
432.115	2.23
432.32	2.31
432.524	2.3
432.729	2.19
432.934	2.14
433.139	2.02
433.343	2.15
433.548	2.01
433.753	1.99
433.958	2.04
434.162	2.09
434.367	2.09
434.572	2.04
434.776	2
434.981	2
435.186	2.12
435.39	2.32
435.595	2.35
435.799	2.23
436.004	2.33
436.209	2.32
436.413	2.35
436.618	2.33
436.822	2.3
437.027	2.31
437.231	2.34
437.436	2.33
437.64	2.23
437.845	2.24
438.049	2.41
438.253	2.44
438.458	2.4
438.662	2.26
438.867	2.31
439.071	2.36
439.275	2.37
439.48	2.35
439.684	2.22
439.888	2.3
440.093	2.23
440.297	2.12
440.501	2.09
440.706	2.06
440.91	2.14
441.114	2
441.318	1.95
441.523	1.97
441.727	1.95
441.931	2.06
442.135	2.07
442.339	2.1
442.543	2.16
442.748	2.13
442.952	2.13
443.156	2.17
443.36	2.19
443.564	2.26
443.768	2.24
443.972	2.27
444.176	2.29
444.38	2.29
444.584	2.26
444.788	2.23
444.992	2.25
445.196	2.31
445.4	2.27
445.604	2.33
445.808	2.28
446.012	2.25
446.216	2.21
446.42	2.24
446.624	2.18
446.828	2.25
447.032	2.22
447.235	2.11
447.439	2.06
447.643	2.04
447.847	2.05
448.051	2.11
448.254	2.07
448.458	2.08
448.662	2.01
448.866	2.05
449.069	1.98
449.273	2.09
449.477	2.22
449.681	2.17
449.884	2.2
450.088	2.21
450.292	1.99
450.495	2
450.699	2.02
450.902	2.02
451.106	2.04
451.31	2.03
451.513	1.93
451.717	1.89
451.92	1.94
452.124	1.95
452.327	2.03
452.531	2.22
452.734	2.34
452.938	2.36
453.141	2.38
453.345	2.28
453.548	2.26
453.752	2.34
453.955	2.28
454.158	2.32
454.362	2.33
454.565	2.18
454.769	2.08
454.972	2.09
455.175	2.04
455.379	1.94
455.582	2.01
455.785	2.03
455.988	2.05
456.192	2.06
456.395	2.08
456.598	2.04
456.801	2.1
457.005	2.16
457.208	2.13
457.411	2.16
457.614	2.24
457.817	2.27
458.021	2.28
458.224	2.2
458.427	2.25
458.63	2.19
458.833	2.18
459.036	2.21
459.239	2.19
459.442	2.16
459.645	2.13
459.848	2.14
460.051	2.07
460.254	2.07
460.457	2.12
460.66	2.11
460.863	2.18
461.066	2.19
461.269	2.09
461.472	2.15
461.675	2.32
461.878	2.33
462.081	2.31
462.284	2.3
462.486	2.47
462.689	2.43
462.892	2.41
463.095	2.52
463.298	2.52
463.5	2.55
463.703	2.47
463.906	2.42
464.109	2.39
464.311	2.43
464.514	2.56
464.717	2.43
464.92	2.43
465.122	2.36
465.325	2.22
465.528	2.26
465.73	2.31
465.933	2.36
466.135	2.31
466.338	2.36
466.541	2.31
466.743	2.16
466.946	2.17
467.148	2.12
467.351	2.17
467.553	2.24
467.756	2.17
467.958	2.13
468.161	2.18
468.363	2.17
468.566	2.08
468.768	1.96
468.971	2.04
469.173	1.99
469.375	2.01
469.578	2.08
469.78	2
469.983	1.96
470.185	1.96
470.387	1.92
470.59	1.97
470.792	2.02
470.994	2.03
471.196	2.04
471.399	2.11
471.601	2.14
471.803	2.12
472.005	2.16
472.208	2.16
472.41	2.17
472.612	2.14
472.814	2.09
473.016	2.14
473.218	2.28
473.421	2.23
473.623	2.26
473.825	2.19
474.027	2.13
474.229	2.21
474.431	2.35
474.633	2.26
474.835	2.29
475.037	2.28
475.239	2.28
475.441	2.17
475.643	2.14
475.845	2.08
476.047	2.11
476.249	2.18
476.451	2.13
476.653	1.98
476.855	2.01
477.057	2
477.258	2.06
477.46	2.1
477.662	2.14
477.864	2.21
478.066	2.16
478.268	2.2
478.469	2.12
478.671	2.05
478.873	2.1
479.075	2.1
479.276	2.09
479.478	1.93
479.68	1.94
479.882	1.95
480.083	1.96
480.285	1.98
480.487	1.97
480.688	2.02
480.89	2.05
481.091	2.04
481.293	1.99
481.495	1.92
481.696	1.97
481.898	1.93
482.099	1.96
482.301	1.97
482.502	1.94
482.704	1.93
482.905	1.91
483.107	1.91
483.308	1.89
483.51	1.96
483.711	2.01
483.913	2.03
484.114	2.05
484.315	2.02
484.517	1.99
484.718	2.05
484.92	2.03
485.121	2.04
485.322	2.04
485.524	2.08
485.725	2.06
485.926	2.03
486.127	2
486.329	1.99
486.53	2
486.731	2
486.932	1.99
487.134	2.01
487.335	2.03
487.536	2.02
487.737	2.04
487.938	1.98
488.139	2
488.341	2.03
488.542	2.07
488.743	2.09
488.944	2.07
489.145	2.06
489.346	2.08
489.547	2.08
489.748	2.08
489.949	2.08
490.15	2.13
490.351	2.13
490.552	2.13
490.753	2.06
490.954	2.04
491.155	2.06
491.356	2.09
491.557	2.08
491.758	2.09
491.959	2.14
492.159	2.12
492.36	2.13
492.561	2.07
492.762	2.09
492.963	2.14
493.164	2.13
493.364	2.16
493.565	2.13
493.766	2.12
493.967	2.08
494.167	1.99
494.368	1.97
494.569	1.96
494.769	2.06
494.97	1.99
495.171	2.02
495.371	2.03
495.572	2.04
495.773	2.07
495.973	2.11
496.174	2.12
496.375	2.17
496.575	2.26
496.776	2.26
496.976	2.23
497.177	2.29
497.377	2.24
497.578	2.24
497.778	2.2
497.979	2.23
498.179	2.22
498.38	2.25
498.58	2.24
498.78	2.24
498.981	2.29
499.181	2.3
499.382	2.26
499.582	2.33
499.782	2.34
499.983	2.46
500.183	2.47
500.383	2.52
500.584	2.5
500.784	2.53
500.984	2.51
501.184	2.53
501.385	2.54
501.585	2.56
501.785	2.48
501.985	2.55
502.185	2.46
502.386	2.35
502.586	2.28
502.786	2.35
502.986	2.44
503.186	2.44
503.386	2.4
503.586	2.39
503.786	2.39
503.987	2.45
504.187	2.4
504.387	2.44
504.587	2.5
504.787	2.53
504.987	2.46
505.187	2.41
505.387	2.38
505.587	2.34
505.786	2.36
505.986	2.4
506.186	2.35
506.386	2.4
506.586	2.44
506.786	2.41
506.986	2.38
507.186	2.42
507.386	2.36
507.585	2.35
507.785	2.4
507.985	2.36
508.185	2.37
508.384	2.48
508.584	2.41
508.784	2.4
508.984	2.46
509.183	2.53
509.383	2.54
509.583	2.55
509.782	2.61
509.982	2.6
510.182	2.62
510.381	2.57
510.581	2.54
510.781	2.63
510.98	2.65
511.18	2.68
511.379	2.55
511.579	2.54
511.778	2.49
511.978	2.47
512.177	2.5
512.377	2.54
512.576	2.55
512.776	2.58
512.975	2.5
513.175	2.41
513.374	2.36
513.573	2.56
513.773	2.58
513.972	2.63
514.172	2.6
514.371	2.6
514.57	2.53
514.77	2.51
514.969	2.45
515.168	2.46
515.367	2.55
515.567	2.52
515.766	2.46
515.965	2.45
516.164	2.52
516.364	2.54
516.563	2.48
516.762	2.54
516.961	2.53
517.16	2.66
517.359	2.72
517.559	2.68
517.758	2.69
517.957	2.71
518.156	2.67
518.355	2.66
518.554	2.62
518.753	2.66
518.952	2.66
519.151	2.73
519.35	2.64
519.549	2.69
519.748	2.7
519.947	2.76
520.146	2.78
520.345	2.85
520.544	2.89
520.743	2.92
520.942	2.97
521.141	3.05
521.339	3.02
521.538	3.13
521.737	3.01
521.936	3.01
522.135	2.92
522.333	2.87
522.532	2.86
522.731	2.79
522.93	2.84
523.129	2.8
523.327	2.73
523.526	2.77
523.725	2.69
523.923	2.77
524.122	2.79
524.321	2.85
524.519	2.86
524.718	2.86
524.917	2.94
525.115	2.96
525.314	2.99
525.512	3.04
525.711	3.02
525.909	3.04
526.108	3
526.306	2.99
526.505	2.95
526.703	2.99
526.902	2.99
527.1	2.98
527.299	2.96
527.497	2.94
527.696	2.91
527.894	2.93
528.092	2.92
528.291	2.94
528.489	2.98
528.688	3.02
528.886	3
529.084	3.02
529.283	3.01
529.481	3.05
529.679	3.09
529.877	3.08
530.076	3.07
530.274	3.07
530.472	3.11
530.67	3.15
530.869	3.13
531.067	3.13
531.265	3.13
531.463	3.17
531.661	3.18
531.859	3.17
532.057	3.24
532.255	3.31
532.454	3.32
532.652	3.3
532.85	3.29
533.048	3.32
533.246	3.36
533.444	3.41
533.642	3.4
533.84	3.39
534.038	3.48
534.236	3.51
534.434	3.52
534.632	3.56
534.83	3.61
535.027	3.59
535.225	3.7
535.423	3.7
535.621	3.73
535.819	3.75
536.017	3.79
536.215	3.73
536.412	3.7
536.61	3.7
536.808	3.74
537.006	3.7
537.203	3.76
537.401	3.66
537.599	3.75
537.797	3.71
537.994	3.7
538.192	3.68
538.39	3.74
538.587	3.8
538.785	3.79
538.983	3.8
539.18	3.88
539.378	3.85
539.575	3.89
539.773	3.87
539.97	3.92
540.168	3.98
540.366	4.03
540.563	4.08
540.761	4.01
540.958	4.05
541.155	4.04
541.353	4.07
541.55	4.12
541.748	4.12
541.945	4.1
542.143	4.08
542.34	4.13
542.537	4.13
542.735	4.14
542.932	4.26
543.129	4.31
543.327	4.41
543.524	4.39
543.721	4.35
543.919	4.4
544.116	4.45
544.313	4.53
544.51	4.48
544.708	4.53
544.905	4.53
545.102	4.59
545.299	4.61
545.496	4.66
545.693	4.71
545.891	4.78
546.088	4.89
546.285	4.98
546.482	5.05
546.679	5.11
546.876	5.17
547.073	5.25
547.27	5.28
547.467	5.37
547.664	5.39
547.861	5.55
548.058	5.68
548.255	5.7
548.452	5.76
548.649	5.69
548.846	5.74
549.043	5.79
549.24	5.86
549.437	5.82
549.633	5.75
549.83	5.81
550.027	5.75
550.224	5.8
550.421	5.8
550.618	5.84
550.814	6
551.011	6.03
551.208	6.02
551.405	5.99
551.601	6.08
551.798	6.1
551.995	6.1
552.191	6.11
552.388	6.02
552.585	6.06
552.781	6.07
552.978	6.07
553.175	6.08
553.371	6.18
553.568	6.21
553.764	6.33
553.961	6.46
554.157	6.51
554.354	6.6
554.55	6.79
554.747	6.92
554.943	7.17
555.14	7.27
555.336	7.34
555.533	7.34
555.729	7.4
555.926	7.37
556.122	7.45
556.318	7.53
556.515	7.63
556.711	7.57
556.907	7.52
557.104	7.4
557.3	7.46
557.496	7.56
557.693	7.57
557.889	7.71
558.085	7.71
558.281	7.67
558.478	7.76
558.674	7.78
558.87	7.94
559.066	7.97
559.262	8.03
559.459	8.08
559.655	8.06
559.851	8.03
560.047	7.95
560.243	8.07
560.439	8.17
560.635	8.1
560.831	8.11
561.027	8.15
561.223	8.26
561.419	8.41
561.615	8.4
561.811	8.48
562.007	8.74
562.203	8.84
562.399	8.89
562.595	8.95
562.791	9.07
562.987	9.3
563.183	9.33
563.379	9.4
563.575	9.44
563.771	9.49
563.966	9.6
564.162	9.6
564.358	9.64
564.554	9.61
564.75	9.62
564.945	9.73
565.141	9.69
565.337	9.79
565.533	9.77
565.728	9.79
565.924	9.88
566.12	9.94
566.315	10.01
566.511	10.11
566.707	10.34
566.902	10.42
567.098	10.46
567.293	10.53
567.489	10.53
567.684	10.63
567.88	10.67
568.076	10.65
568.271	10.75
568.467	10.79
568.662	10.91
568.858	10.84
569.053	10.92
569.248	10.93
569.444	10.98
569.639	10.98
569.835	11.07
570.03	11.22
570.225	11.34
570.421	11.33
570.616	11.41
570.812	11.38
571.007	11.39
571.202	11.5
571.397	11.64
571.593	11.75
571.788	11.95
571.983	12.06
572.178	12.01
572.374	12.2
572.569	12.21
572.764	12.26
572.959	12.37
573.154	12.48
573.35	12.48
573.545	12.53
573.74	12.47
573.935	12.53
574.13	12.52
574.325	12.67
574.52	12.57
574.715	12.75
574.91	12.81
575.105	12.91
575.3	12.98
575.495	13.07
575.69	13.13
575.885	13.38
576.08	13.42
576.275	13.62
576.47	13.58
576.665	13.77
576.86	13.84
577.055	14.02
577.25	14.04
577.444	14.18
577.639	14.26
577.834	14.33
578.029	14.26
578.224	14.27
578.418	14.21
578.613	14.39
578.808	14.32
579.003	14.26
579.197	14.21
579.392	14.25
579.587	14.47
579.781	14.57
579.976	14.65
580.171	14.58
580.365	14.69
580.56	14.9
580.755	14.9
580.949	15.08
581.144	15.25
581.338	15.35
581.533	15.51
581.727	15.45
581.922	15.61
582.116	15.7
582.311	15.77
582.505	15.79
582.7	15.91
582.894	16
583.089	15.86
583.283	15.9
583.478	16.02
583.672	16.19
583.866	16.2
584.061	16.2
584.255	16.13
584.449	16.32
584.644	16.39
584.838	16.19
585.032	16.35
585.226	16.42
585.421	16.43
585.615	16.44
585.809	16.27
586.003	16.39
586.198	16.43
586.392	16.52
586.586	16.58
586.78	16.6
586.974	16.69
587.168	16.6
587.363	16.67
587.557	16.8
587.751	16.78
587.945	16.8
588.139	16.79
588.333	16.66
588.527	16.63
588.721	16.64
588.915	16.79
589.109	16.91
589.303	16.91
589.497	16.98
589.691	17.01
589.885	17.03
590.079	16.96
590.273	16.91
590.466	17.11
590.66	17.08
590.854	17.12
591.048	17.12
591.242	17
591.436	16.9
591.629	16.91
591.823	16.85
592.017	16.89
592.211	17.09
592.404	17.1
592.598	17.21
592.792	17.37
592.986	17.37
593.179	17.29
593.373	17.4
593.567	17.72
593.76	17.75
593.954	17.72
594.147	17.85
594.341	17.8
594.535	17.84
594.728	17.72
594.922	17.78
595.115	17.81
595.309	17.88
595.502	17.84
595.696	17.82
595.889	17.86
596.083	17.86
596.276	17.76
596.47	17.81
596.663	17.78
596.856	17.91
597.05	17.88
597.243	17.88
597.437	17.94
597.63	17.98
597.823	17.8
598.017	17.76
598.21	17.77
598.403	17.79
598.596	17.78
598.79	18.06
598.983	18.07
599.176	18.06
599.369	18.21
599.563	18.09
599.756	18.15
599.949	18.4
600.142	18.44
600.335	18.61
600.528	18.62
600.722	18.76
600.915	18.61
601.108	18.54
601.301	18.66
601.494	18.54
601.687	18.66
601.88	18.55
602.073	18.61
602.266	18.7
602.459	18.68
602.652	18.61
602.845	18.54
603.038	18.57
603.231	18.58
603.424	18.55
603.617	18.61
603.809	18.59
604.002	18.69
604.195	18.62
604.388	18.45
604.581	18.48
604.774	18.69
604.966	18.73
605.159	18.73
605.352	18.83
605.545	18.88
605.737	18.84
605.93	18.93
606.123	18.9
606.316	18.99
606.508	19.1
606.701	19.12
606.894	19.05
607.086	19.17
607.279	19.11
607.471	19.08
607.664	19.03
607.857	19.21
608.049	19.15
608.242	19.16
608.434	18.96
608.627	19.06
608.819	19.06
609.012	19.12
609.204	19.02
609.397	19.08
609.589	19.03
609.782	19.09
609.974	18.99
610.166	19.08
610.359	19.17
610.551	19.32
610.743	19.27
610.936	19.26
611.128	19.15
611.32	19.21
611.513	19.28
611.705	19.29
611.897	19.38
612.09	19.4
612.282	19.59
612.474	19.7
612.666	19.79
612.858	20.03
613.051	20.08
613.243	20.29
613.435	20.12
613.627	20.18
613.819	20.23
614.011	20.18
614.203	20.22
614.395	19.9
614.588	19.83
614.78	19.65
614.972	19.48
615.164	19.59
615.356	19.5
615.548	19.67
615.74	19.6
615.932	19.61
616.124	19.69
616.315	19.86
616.507	20.1
616.699	20.15
616.891	20.24
617.083	20.3
617.275	20.17
617.467	20.19
617.659	20.26
617.85	20.37
618.042	20.43
618.234	20.44
618.426	20.33
618.618	20.37
618.809	20.31
619.001	20.42
619.193	20.51
619.384	20.62
619.576	20.69
619.768	20.67
619.959	20.69
620.151	20.74
620.343	20.61
620.534	20.66
620.726	20.59
620.917	20.73
621.109	20.57
621.301	20.48
621.492	20.52
621.684	20.49
621.875	20.34
622.067	20.29
622.258	20.19
622.45	20.29
622.641	20.25
622.832	20.28
623.024	20.06
623.215	20.39
623.407	20.3
623.598	20.19
623.789	20.13
623.981	20.31
624.172	20.25
624.363	20.46
624.555	20.52
624.746	20.38
624.937	20.4
625.129	20.54
625.32	20.47
625.511	20.59
625.702	20.6
625.893	20.74
626.085	20.65
626.276	20.65
626.467	20.46
626.658	20.42
626.849	20.53
627.04	20.47
627.231	20.55
627.422	20.61
627.614	20.63
627.805	20.6
627.996	20.45
628.187	20.44
628.378	20.38
628.569	20.59
628.76	20.57
628.951	20.64
629.142	20.59
629.332	20.5
629.523	20.46
629.714	20.49
629.905	20.73
630.096	21.03
630.287	21.17
630.478	21.18
630.669	21.08
630.859	21.07
631.05	20.93
631.241	21.12
631.432	21.05
631.623	20.82
631.813	20.77
632.004	20.79
632.195	20.55
632.385	20.46
632.576	20.56
632.767	20.45
632.957	20.74
633.148	20.8
633.339	20.76
633.529	20.66
633.72	20.79
633.91	20.82
634.101	20.7
634.292	20.69
634.482	20.75
634.673	20.82
634.863	20.94
635.054	20.67
635.244	20.85
635.435	20.84
635.625	21.22
635.815	21.32
636.006	21.35
636.196	21.54
636.387	21.57
636.577	21.57
636.767	21.69
636.958	21.74
637.148	21.73
637.338	21.65
637.529	21.49
637.719	21.3
637.909	21.31
638.099	21.25
638.29	20.91
638.48	21.03
638.67	21.18
638.86	21.33
639.05	21.27
639.241	21.37
639.431	21.3
639.621	21.51
639.811	21.59
640.001	21.57
640.191	21.76
640.381	22
640.571	21.85
640.761	21.79
640.951	21.52
641.141	21.58
641.331	21.61
641.521	21.59
641.711	21.34
641.901	21.31
642.091	21.52
642.281	21.36
642.471	21.32
642.661	21.62
642.851	21.56
643.041	21.63
643.231	21.56
643.42	21.65
643.61	21.73
643.8	22.12
643.99	22.14
644.18	21.98
644.369	22.01
644.559	21.95
644.749	21.93
644.939	21.93
645.128	22.03
645.318	21.96
645.508	21.83
645.697	21.91
645.887	21.61
646.076	21.65
646.266	21.65
646.456	21.71
646.645	21.99
646.835	21.76
647.024	21.86
647.214	21.75
647.403	22.06
647.593	22.17
647.782	22.05
647.972	22.16
648.161	22.06
648.351	21.93
648.54	21.98
648.73	21.72
648.919	21.7
649.108	21.71
649.298	21.84
649.487	21.65
649.677	21.65
649.866	21.63
650.055	21.69
650.244	21.74
650.434	21.88
650.623	21.81
650.812	21.83
651.002	22.04
651.191	22.19
651.38	22.03
651.569	22.07
651.758	22.12
651.947	22.34
652.137	22.26
652.326	22.44
652.515	22.52
652.704	22.53
652.893	22.69
653.082	22.83
653.271	22.91
653.46	23.08
653.649	23.16
653.838	23.13
654.027	23.18
654.216	23.3
654.405	23.03
654.594	22.81
654.783	23.01
654.972	23.03
655.161	22.92
655.35	22.89
655.539	22.74
655.728	22.94
655.916	22.84
656.105	22.72
656.294	22.62
656.483	22.74
656.672	22.92
656.86	22.68
657.049	22.51
657.238	22.65
657.427	22.57
657.615	22.6
657.804	22.41
657.993	22.5
658.181	22.58
658.37	22.52
658.559	22.49
658.747	22.49
658.936	22.57
659.125	22.74
659.313	22.7
659.502	22.58
659.69	22.53
659.879	22.5
660.067	22.45
660.256	22.32
660.444	22.54
660.633	22.65
660.821	22.6
661.01	22.79
661.198	22.62
661.387	22.43
661.575	22.3
661.763	22.41
661.952	22.47
662.14	22.57
662.328	22.55
662.517	22.69
662.705	22.55
662.893	22.73
663.082	22.56
663.27	22.54
663.458	22.46
663.646	22.71
663.834	22.66
664.023	22.58
664.211	22.4
664.399	22.52
664.587	22.38
664.775	22.85
664.963	22.76
665.152	22.82
665.34	23.01
665.528	23.11
665.716	23.03
665.904	22.97
666.092	23.09
666.28	23.13
666.468	23.11
666.656	23.11
666.844	22.69
667.032	22.89
667.22	22.78
667.408	22.79
667.596	22.87
667.784	23.09
667.971	23.18
668.159	23.24
668.347	23.19
668.535	23.35
668.723	23.32
668.911	23.3
669.098	23.2
669.286	23.22
669.474	23.07
669.662	22.99
669.849	22.79
670.037	22.87
670.225	22.89
670.413	23.06
670.6	22.93
670.788	22.95
670.976	23.09
671.163	22.7
671.351	22.69
671.538	22.64
671.726	22.61
671.913	22.8
672.101	22.58
672.289	22.71
672.476	22.55
672.664	22.97
672.851	22.79
673.039	22.74
673.226	23.17
673.413	23.04
673.601	23.41
673.788	23.7
673.976	23.56
674.163	23.74
674.35	23.57
674.538	23.69
674.725	23.63
674.912	23.89
675.1	23.93
675.287	23.91
675.474	24.11
675.662	24.28
675.849	24.22
676.036	24.25
676.223	24.13
676.411	24.18
676.598	24.3
676.785	23.87
676.972	23.61
677.159	23.76
677.346	23.71
677.533	23.57
677.721	23.27
677.908	23.11
678.095	23.04
678.282	23.33
678.469	23.35
678.656	23.35
678.843	23.49
679.03	23.61
679.217	23.55
679.404	23.53
679.591	23.79
679.778	23.75
679.964	23.95
680.151	23.93
680.338	23.71
680.525	23.68
680.712	23.73
680.899	23.68
681.086	24.14
681.272	23.94
681.459	23.77
681.646	23.71
681.833	23.7
682.02	23.77
682.206	24.06
682.393	24.36
682.58	24.52
682.766	24.34
682.953	24.52
683.14	23.75
683.326	23.87
683.513	24.09
683.7	23.93
683.886	23.96
684.073	23.65
684.259	23.44
684.446	23.51
684.632	23.48
684.819	23.47
685.005	23.32
685.192	23.73
685.378	23.98
685.565	23.99
685.751	24.1
685.938	24.19
686.124	24.15
686.31	24.14
686.497	23.69
686.683	23.45
686.87	23.46
687.056	23.37
687.242	23.29
687.429	23.18
687.615	23.06
687.801	23.29
687.987	23.4
688.174	23.43
688.36	23.52
688.546	23.77
688.732	23.82
688.918	23.82
689.105	23.78
689.291	23.35
689.477	23.21
689.663	23.01
689.849	22.93
690.035	23
690.221	23.18
690.407	23.16
690.593	23.2
690.779	23.33
690.965	23.49
691.151	23.71
691.337	24.33
691.523	24.47
691.709	24.69
691.895	24.65
692.081	24.08
692.267	24.31
692.453	24.4
692.639	24.31
692.825	24.19
693.011	24.01
693.196	24.07
693.382	23.95
693.568	24.06
693.754	24.08
693.94	23.95
694.125	24.4
694.311	24.14
694.497	23.94
694.682	23.76
694.868	24.07
695.054	24.25
695.239	24.27
695.425	24.44
695.611	24.49
695.796	24.53
695.982	24.36
696.168	24.11
696.353	23.78
696.539	24
696.724	23.86
696.91	23.55
697.095	23.57
697.281	23.42
697.466	23.4
697.652	23.3
697.837	23.37
698.023	23.4
698.208	23.51
698.393	23.76
698.579	23.77
698.764	23.97
698.949	23.89
699.135	23.83
699.32	23.79
699.505	23.58
699.691	23.54
699.876	23.29
700.061	23.4
700.246	23.48
700.432	23.53
700.617	23.4
700.802	23.39
700.987	23.77
701.172	23.27
701.358	23.66
701.543	24.01
701.728	24.13
701.913	24.34
702.098	24.58
702.283	24.57
702.468	24.38
702.653	24.39
702.838	24.82
703.023	24.72
703.208	25.16
703.393	24.67
703.578	24.03
703.763	24.05
703.948	24.34
704.133	23.88
704.318	23.86
704.503	23.98
704.688	23.96
704.873	23.43
705.057	23.68
705.242	23.85
705.427	24.11
705.612	24.51
705.797	24.83
705.981	24.54
706.166	24.86
706.351	24.83
706.536	24.88
706.72	25.15
706.905	25.51
707.09	25.26
707.274	25.29
707.459	25.39
707.644	25.38
707.828	25.44
708.013	25.48
708.197	25.39
708.382	25.74
708.567	25.6
708.751	25.7
708.936	25.54
709.12	25.8
709.305	25.72
709.489	25.45
709.673	25.44
709.858	25.25
710.042	25.21
710.227	25.4
710.411	24.94
710.596	25.1
710.78	24.94
710.964	25.08
711.149	24.74
711.333	25.08
711.517	25.06
711.702	25.21
711.886	24.98
712.07	25.02
712.254	24.84
712.438	24.97
712.623	25.02
712.807	25.08
712.991	25.08
713.175	25.16
713.359	25.12
713.544	25.27
713.728	25.1
713.912	24.93
714.096	25.31
714.28	25.3
714.464	25.07
714.648	25.09
714.832	24.9
715.016	24.6
715.2	24.35
715.384	24.28
715.568	24.23
715.752	24.14
715.936	24.1
716.12	23.5
716.304	23.53
716.488	23.82
716.671	23.71
716.855	23.83
717.039	23.89
717.223	24.31
717.407	24.02
717.59	24.08
717.774	24.27
717.958	24.57
718.142	24.93
718.325	24.83
718.509	24.98
718.693	24.76
718.877	24.81
719.06	25.11
719.244	25.21
719.428	25.47
719.611	25.82
719.795	25.99
719.978	25.97
720.162	26.15
720.345	25.88
720.529	25.77
720.713	26.08
720.896	26.19
721.08	25.76
721.263	25.39
721.446	25.46
721.63	25.23
721.813	24.54
721.997	24.32
722.18	23.8
722.364	24.4
722.547	23.78
722.73	23.53
722.914	23.51
723.097	24.01
723.28	24.04
723.464	23.53
723.647	24.06
723.83	24.57
724.013	24.85
724.197	25.31
724.38	24.98
724.563	25.46
724.746	25.79
724.929	25.58
725.112	25.49
725.296	25.85
725.479	26.09
725.662	25.77
725.845	26
726.028	25.49
726.211	25.06
726.394	24.87
726.577	25.23
726.76	24.89
726.943	25.3
727.126	25.09
727.309	25.13
727.492	25.22
727.675	25.06
727.858	24.48
728.041	24.82
728.224	25.36
728.407	25.65
728.589	25.72
728.772	25.43
728.955	25.54
729.138	25.58
729.321	25.59
729.503	25.56
729.686	25.58
729.869	26.07
730.052	26.05
730.234	25.85
730.417	26.1
730.6	25.62
730.782	25.97
730.965	25.34
731.148	25.56
731.33	25.34
731.513	25.5
731.695	25.35
731.878	25.37
732.061	25.09
732.243	24.97
732.426	24.76
732.608	25.1
732.791	25.13
732.973	25.21
733.156	24.96
733.338	24.77
733.52	24.64
733.703	24.6
733.885	24.12
734.068	24.44
734.25	24.19
734.432	24.15
734.615	24.02
734.797	24.05
734.979	23.89
735.162	23.79
735.344	23.87
735.526	23.71
735.708	23.93
735.891	24.41
736.073	24.59
736.255	24.73
736.437	24.74
736.619	24.9
736.802	25.24
736.984	25.64
737.166	25.71
737.348	26.45
737.53	27.06
737.712	27.2
737.894	27.47
738.076	27.48
738.258	27.48
738.44	27.46
738.622	27.5
738.804	27.14
738.986	27
739.168	27.43
739.35	27.11
739.532	26.71
739.714	26.57
739.896	26.05
740.078	25.72
740.259	25.59
740.441	25.87
740.623	25.74
740.805	25.97
740.987	26.19
741.168	26.08
741.35	25.86
741.532	26.01
741.714	26.13
741.895	26.39
742.077	26.65
742.259	27.26
742.44	27.25
742.622	27.5
742.804	27.61
742.985	27.4
743.167	27.14
743.348	27.77
743.53	28.05
743.711	28.38
743.893	27.84
744.075	27.82
744.256	27.46
744.438	27.8
744.619	27.2
744.8	26.82
744.982	27.26
745.163	27.56
745.345	27.06
745.526	26.67
745.707	26.36
745.889	27.2
746.07	27.67
746.252	28.24
746.433	27.8
746.614	27.96
746.795	28.1
746.977	27.67
747.158	27.84
747.339	27.64
747.52	28.19
747.702	28.19
747.883	27.68
748.064	27.15
748.245	27.01
748.426	26.83
748.607	26.61
748.788	26.4
748.97	26.5
749.151	26.55
749.332	27.17
749.513	26.46
749.694	26.38
749.875	26.37
750.056	27.26
750.237	27.06
750.418	27.3
750.599	27.58
750.78	27.88
750.96	27.68
751.141	27.92
751.322	26.84
751.503	27.12
751.684	27.75
751.865	27.98
752.046	27.43
752.226	27.5
752.407	27.48
752.588	27.19
752.769	26.76
752.949	26.96
753.13	26.56
753.311	26.41
753.492	26.34
753.672	26.03
753.853	26.32
754.034	25.99
754.214	26.43
754.395	26.28
754.575	27.34
754.756	27.69
754.937	27.88
755.117	26.76
755.298	27.34
755.478	27.4
755.659	27.23
755.839	26.96
756.02	27.01
756.2	26.38
756.381	26.24
756.561	25.47
756.741	25.22
756.922	24.76
757.102	25.92
757.283	26.03
757.463	26.09
757.643	26.13
757.823	25.65
758.004	25.77
758.184	25.89
758.364	25.54
758.545	25.5
758.725	25.55
758.905	26.03
759.085	25.76
759.265	25.3
759.446	24.77
759.626	24.6
759.806	25.16
759.986	25.17
760.166	24.81
760.346	25.37
760.526	25.33
760.706	25.35
760.886	24.96
761.066	25.37
761.246	25.93
761.426	26.27
761.606	25.83
761.786	25.15
761.966	25.33
762.146	26.13
762.326	26.24
762.506	26.21
762.686	26.17
762.866	26.37
763.046	26.13
763.225	25.8
763.405	26.01
763.585	26.44
763.765	27.01
763.945	26.91
764.124	26.23
764.304	26.08
764.484	26.42
764.664	26.31
764.843	26.26
765.023	26.05
765.203	26.05
765.382	26.04
765.562	25.62
765.741	25.34
765.921	25.78
766.101	25.97
766.28	26.16
766.46	25.74
766.639	26.41
766.819	26.8
766.998	27.32
767.178	27.48
767.357	27.31
767.537	27.51
767.716	27.29
767.896	26.94
768.075	27.21
768.254	26.86
768.434	27.14
768.613	27.26
768.792	27.33
768.972	27.36
769.151	27.33
769.33	27.33
769.51	27.84
769.689	28.92
769.868	28.98
770.047	28.8
770.226	29.02
770.406	28.9
770.585	28.8
770.764	27.87
770.943	27.37
771.122	27.52
771.301	27.45
771.48	27.13
771.66	26.93
771.839	26.6
772.018	25.7
772.197	25.99
772.376	26.4
772.555	25.92
772.734	26.35
772.913	26.72
773.092	27.31
773.271	27.48
773.449	27.26
773.628	26.73
773.807	27.04
773.986	27.6
774.165	27.04
774.344	27.73
774.523	28.83
774.701	28.74
774.88	28.38
775.059	28.42
775.238	28.74
775.417	29.58
775.595	29.43
775.774	29.52
775.953	30.88
776.131	30.92
776.31	29.95
776.489	28.7
776.667	28.93
776.846	28.97
777.025	28.99
777.203	28.76
777.382	27.73
777.56	28.34
777.739	27.86
777.917	27.17
778.096	28.4
778.274	28.2
778.453	28.7
778.631	28.83
778.81	28.4
778.988	28.04
779.166	27.48
779.345	27.84
779.523	28.27
779.702	28.56
779.88	29.1
780.058	28.54
780.237	29.49
780.415	29.08
780.593	28.46
780.771	29.66
780.95	29.93
781.128	30.63
781.306	31.02
781.484	30.6
781.662	30.19
781.841	28.95
782.019	28.16
782.197	27.07
782.375	27.52
782.553	27.9
782.731	27.02
782.909	26.62
783.087	27.67
783.265	27.76
783.443	27.35
783.621	28.24
783.799	29.25
783.977	30.19
784.155	30.35
784.333	30.5
784.511	30.78
784.689	30.67
784.867	31.07
785.045	29.76
785.223	29.78
785.4	29.43
785.578	29.29
785.756	28.35
785.934	27.54
786.112	28.1
786.289	27.95
786.467	27.33
786.645	27.67
786.823	26.97
787	27.09
787.178	26.77
787.356	27.38
787.533	27.19
787.711	28.02
787.889	28.52
788.066	27.92
788.244	27.89
788.421	28.87
788.599	29.15
788.776	29.93
788.954	29.27
789.131	29.55
789.309	29.6
789.486	29.57
789.664	29.49
789.841	29.27
790.019	29.33
790.196	29.54
790.373	28.92
790.551	29.05
790.728	28.45
790.906	29.15
791.083	28.74
791.26	28.43
791.437	27.74
791.615	26.95
791.792	27.03
791.969	27.58
792.146	27.19
792.324	26.84
792.501	27.06
792.678	27.78
792.855	27.33
793.032	26.79
793.209	26.99
793.387	26.95
793.564	27.62
793.741	27.52
793.918	27.97
794.095	28.03
794.272	28.36
794.449	29.06
794.626	29.36
794.803	29.48
794.98	30.29
795.157	29.18
795.334	29.16
795.511	28.64
795.688	28.18
795.864	27.91
796.041	28.31
796.218	28.71
796.395	27.75
796.572	27.04
796.749	27.58
796.925	27.35
797.102	28.7
797.279	29.52
797.456	29.8
797.632	30.26
797.809	29.29
797.986	29.29
798.162	28.76
798.339	28.37
798.516	28.79
798.692	28.49
798.869	27.94
799.046	27.33
799.222	25.83
799.399	25.6
799.575	25.67
799.752	27.27
799.928	26.66
800.105	26.94
800.281	27.5
800.458	27.61
800.634	28.33
800.811	28.56
800.987	29.24
801.163	31.28
801.34	30.42
801.516	30.77
801.692	30.52
801.869	31.1
802.045	31.49
802.221	31.51
802.398	30.44
802.574	28.97
802.75	29.74
802.926	29.46
803.103	28.92
803.279	28.67
803.455	28.39
803.631	27.2
803.807	27.18
803.983	26.55
804.16	26.8
804.336	26.68
804.512	27.65
804.688	27.83
804.864	26.82
805.04	27.05
805.216	28.37
805.392	29.24
805.568	29.12
805.744	29.13
805.92	29.83
806.096	29.55
806.272	29.5
806.448	30.09
806.623	29.82
806.799	30.74
806.975	30.53
807.151	29.87
807.327	28.16
807.503	28.91
807.678	28.75
807.854	28.42
808.03	28.06
808.206	29.16
808.381	27.03
808.557	27.08
808.733	26.62
808.908	26.85
809.084	27.23
809.26	27.81
809.435	27.02
809.611	26.34
809.787	26.95
809.962	27.34
810.138	27.37
810.313	28.98
810.489	28.76
810.664	29.58
810.84	29.01
811.015	30.91
811.191	31.47
811.366	32.09
811.542	31.04
811.717	30.62
811.892	31.66
812.068	31.47
812.243	30.92
812.419	30.1
812.594	29.66
812.769	30.07
812.944	27.9
813.12	27.37
813.295	28.26
813.47	30.36
813.645	30.6
813.821	29.09
813.996	29.07
814.171	29.7
814.346	29.67
814.521	29.78
814.697	30.38
814.872	31.16
815.047	31.43
815.222	32.03
815.397	31.84
815.572	29.52
815.747	29.27
815.922	28.29
816.097	28.55
816.272	29.86
816.447	30.71
816.622	29.86
816.797	31.92
816.972	31.82
817.147	30.09
817.322	30.05
817.496	32.05
817.671	33.74
817.846	34.07
818.021	32.93
818.196	31.57
818.371	30.19
818.545	30.81
818.72	29.34
818.895	28.6
819.069	29.03
819.244	29.35
819.419	28.97
819.594	27.49
819.768	27.73
819.943	27.44
820.117	27.31
820.292	27.44
820.467	26.88
820.641	26.31
820.816	26.25
820.99	26.49
821.165	26.17
821.339	26.14
821.514	26.14
821.688	25.95
821.863	25.69
822.037	25.66
822.212	25.56
822.386	25.33
822.56	25.3
822.735	25.21
822.909	25.06
823.084	25.01
823.258	24.96
823.432	24.78
823.606	24.66
823.781	24.64
823.955	24.73
824.129	24.51
824.303	25.27
824.478	25.27
824.652	25.32
824.826	24.92
825	24.77
825.174	24.46
825.348	24.8
825.523	24.97
825.697	25.57
825.871	25.61
826.045	25.52
826.219	25.35
826.393	25.38
826.567	25.82
826.741	26.02
826.915	26.2
827.089	26.54
827.263	26.63
827.437	26.56
827.611	26.7
827.784	26.56
827.958	27.18
828.132	26.77
828.306	27.15
828.48	26.39
828.654	26.77
828.827	26.87
829.001	27.07
829.175	26.78
829.349	27.27
829.522	26.44
829.696	27.12
829.87	26.97
830.044	27.43
830.217	26.86
830.391	27.82
830.565	28.35
830.738	28.01
830.912	27.18
831.085	27.36
831.259	26.92
831.432	27.66
831.606	27.35
831.779	26.92
831.953	26.02
832.126	25.94
832.3	25.18
832.473	24.02
832.647	24.5
832.82	24.92
832.994	25.13
833.167	25.29
833.34	25.8
833.514	25.94
833.687	25.89
833.86	25.67
834.034	25.59
834.207	26.73
834.38	27.33
834.553	27
834.727	27.02
834.9	26.88
835.073	26.65
835.246	26.08
835.419	26.64
835.593	27.3
835.766	27.95
835.939	28.76
836.112	28.69
836.285	28.71
836.458	29.34
836.631	30.13
836.804	30.07
836.977	30.27
837.15	31.02
837.323	30.37
837.496	30.5
837.669	30.48
837.842	30.43
838.015	29.05
838.188	29.96
838.361	30.79
838.533	31.59
838.706	32.66
838.879	32.59
839.052	32.33
839.225	32.23
839.398	32.07
839.57	32.73
839.743	32.53
839.916	32.54
840.088	31.35
840.261	30.07
840.434	29
840.607	28.48
840.779	29.27
840.952	28.86
841.124	27.7
841.297	28.5
841.47	26.23
841.642	24.89
841.815	25.05
841.987	26.68
842.16	27.69
842.332	27.25
842.505	27.18
842.677	27.4
842.85	27.63
843.022	28.46
843.194	28.71
843.367	31.12
843.539	33.27
843.712	35.38
843.884	32.99
844.056	33.73
844.229	31.96
844.401	34.31
844.573	34.51
844.745	34.53
844.918	36.89
845.09	35.61
845.262	35.22
845.434	35.85
845.606	33.8
845.779	36.08
845.951	34.09
846.123	38.91
846.295	36.65
846.467	34.52
846.639	34.07
846.811	33.3
846.983	30.58
847.155	33.2
847.327	37.76
847.499	42.02
847.671	39.35
847.843	39.23
848.015	36.63
848.187	40.58
848.359	43.7
848.531	46.39
848.703	48.9
848.875	51.36
849.047	49.71
849.218	42.75
849.39	38.06
849.562	39.83
849.734	40.06
849.905	41.78
850.077	36.87
850.249	37.87
850.421	36.75
850.592	30.94
850.764	33.15
850.936	28.65
851.107	32.03
851.279	33.73
851.451	30.34
851.622	27.56
851.794	24.23
851.965	30.17
852.137	27.56
852.308	26.63
852.48	29.76
852.651	27.16
852.823	33.75
852.994	31.7
853.166	31.33
853.337	37.17
853.509	42.94
853.68	42.54
853.851	38.24
854.023	36.79
854.194	38.54
854.365	42.89
854.537	43.84
854.708	42.29
854.879	44.5
855.05	43.57
855.222	41.26
855.393	40.4
855.564	40.11
855.735	42.04
855.906	45.02
856.078	45.11
856.249	41.12
856.42	40.4
856.591	38.24
856.762	35.42
856.933	37.33
857.104	38.9
857.275	37.05
857.446	40.76
857.617	42.59
857.788	41.02
857.959	38.1
858.13	41.79
858.301	41.78
858.472	42.63
858.643	41.49
858.814	41.13
858.985	40.94
859.155	42
859.326	39.31
859.497	36.63
859.668	33.9
859.839	36.87
860.009	35.11
860.18	35.88
860.351	39.48
860.522	43.41
860.692	46.01
860.863	47.34
861.034	49.52
861.204	49.01
861.375	42.83
861.546	43.51
861.716	45.19
861.887	39.96
862.057	38.57
862.228	37.53
862.398	33.88
862.569	30.39
862.739	28.93
862.91	27.85
863.08	29.76
863.251	35.97
863.421	34.59
863.592	30.21
863.762	30.88
863.932	33.79
864.103	36.64
864.273	38.65
864.443	45.25
864.614	45.86
864.784	46.61
864.954	44.23
865.125	41.61
865.295	48.28
865.465	50.75
865.635	52.79
865.805	51.36
865.976	50.07
866.146	52.37
866.316	45.73
866.486	46.98
866.656	48.7
866.826	48.21
866.996	48.34
867.166	45.18
867.336	44.3
867.506	40.32
867.676	33.75
867.846	33.42
868.016	33.63
868.186	34.59
868.356	32.16
868.526	32.69
868.696	38.65
868.866	41.84
869.036	41.07
869.206	40.64
869.376	44.68
869.545	49
869.715	49.54
869.885	50.28
870.055	53.24
870.224	52.63
870.394	51.53
870.564	50.78
870.734	48.92
870.903	47.56
871.073	47.33
871.243	46.14
871.412	45.06
871.582	46.42
871.751	48
871.921	47.32
872.091	46.35
872.26	45.87
872.43	41.86
872.599	36.79
872.769	39.86
872.938	42.44
873.108	44.51
873.277	44.81
873.446	44.03
873.616	44.55
873.785	45.46
873.955	45.77
874.124	44.77
874.293	46.05
874.463	50.5
874.632	48.63
874.801	44.4
874.971	45.52
875.14	42.78
875.309	39.25
875.478	34.43
875.647	26.17
875.817	30.25
875.986	27.03
876.155	24.18
876.324	26.93
876.493	22.81
876.662	24.93
876.831	17.99
877	24.53
877.17	26.05
877.339	23.29
877.508	28.59
877.677	25.29
877.846	29.13
878.015	28.89
878.184	25.38
878.352	31.58
878.521	31.75
878.69	36.03
878.859	32.23
879.028	32.05
879.197	35.14
879.366	33.54
879.534	34.57
879.703	31.09
879.872	32.09
880.041	31.95
880.21	30.34
880.378	30.66
880.547	29.88
880.716	30.8
880.884	29.62
881.053	28.62
881.222	28.77
881.39	27.97
881.559	28.28
881.727	28.58
881.896	28.65
882.065	28.6
882.233	28.06
882.402	27.76
882.57	27.99
882.739	27.81
882.907	27.66
883.076	27.85
883.244	27.48
883.412	27.65
883.581	27.21
883.749	26.86
883.918	26.87
884.086	27.81
884.254	27.28
884.423	26.91
884.591	27.18
884.759	28.2
884.927	27.3
885.096	28.83
885.264	29.37
885.432	29.74
885.6	29.44
885.769	27.14
885.937	24.39
886.105	23.75
886.273	22.54
886.441	23.91
886.609	22.24
886.777	24.15
886.945	21.64
887.113	20.23
887.281	20.42
887.449	21.46
887.617	24.66
887.785	28.04
887.953	30.26
888.121	30.69
888.289	31.28
888.457	33.28
888.625	35.35
888.793	35.96
888.961	38.26
889.129	34.59
889.296	34.23
889.464	37.02
889.632	36.76
889.8	37.48
889.967	36.51
890.135	34.28
