Data from 2938496_Reflection_1.txt Node
Date: Wed Jun 17 00:29:10 EDT 2015
User: robert
Spectrometer: USB4E03002
Autoset integration time: false
Trigger mode: 4
Integration Time (sec): 1.000000E-1
Scans to average: 10
Electric dark correction enabled: true
Nonlinearity correction enabled: false
Boxcar width: 5
Stray light correction enabled: false
XAxis mode: Wavelengths
Stop averaging: false
Number of Pixels in Spectrum: 3648
>>>>>Begin Spectral Data<<<<<
177.575	-10.93
177.794	-7625.93
178.014	-351.23
178.233	-18.32
178.452	79.45
178.672	77.43
178.891	69.39
179.11	-139.09
179.33	-114.55
179.549	-370.9
179.768	-290.94
179.987	-10.42
180.207	-212.25
180.426	955.35
180.645	-351.24
180.864	-351.9
181.084	262.86
181.303	253.32
181.522	3802.16
181.741	2474.64
181.96	-422.15
182.179	-893.52
182.398	1179.95
182.618	1956.73
182.837	-1703.17
183.056	-3289.24
183.275	-681.36
183.494	-7723.13
183.713	-7373.75
183.932	583.64
184.151	-921.75
184.37	-759.79
184.589	-1178.54
184.808	-284.11
185.027	-357.68
185.246	-145.04
185.465	-174.8
185.684	-212.26
185.903	-233.73
186.122	-268.41
186.341	-133.08
186.56	-1235.17
186.779	132.64
186.998	216.47
187.216	92.39
187.435	76.24
187.654	57.17
187.873	93.84
188.092	130.48
188.311	127.67
188.53	99.6
188.748	359.36
188.967	229.47
189.186	866.45
189.405	215.3
189.623	295.04
189.842	-2871.36
190.061	4442.06
190.28	-98.53
190.498	-189.36
190.717	199.42
190.936	1478.76
191.154	59.4
191.373	-4136.23
191.592	-1588.37
191.81	147.88
192.029	-33.83
192.248	381.64
192.466	92.32
192.685	160.61
192.904	124.85
193.122	163.04
193.341	273.03
193.559	-468.92
193.778	58.98
193.996	252.46
194.215	-57.87
194.433	12.61
194.652	-326.9
194.87	-328.1
195.089	-82.05
195.307	-91.56
195.526	-132.11
195.744	-102.79
195.963	-392.89
196.181	-783.26
196.399	-293.41
196.618	606.89
196.836	-4920
197.055	2454.19
197.273	590.49
197.491	279.16
197.71	290.85
197.928	242.14
198.146	159.67
198.365	188.54
198.583	207.53
198.801	229.31
199.019	228.23
199.238	190.16
199.456	295.09
199.674	344.53
199.892	274.28
200.111	423.54
200.329	586.48
200.547	19216.67
200.765	358.19
200.983	314.64
201.202	244.86
201.42	296.73
201.638	212.97
201.856	218.34
202.074	196.13
202.292	169.13
202.51	143.96
202.728	136.74
202.946	113.41
203.165	96.76
203.383	162.03
203.601	156.06
203.819	138.89
204.037	240.46
204.255	311.27
204.473	352.77
204.691	419.57
204.909	233.29
205.127	807.03
205.345	-102550
205.562	-139.95
205.78	-128.06
205.998	-282.19
206.216	5172.73
206.434	185.58
206.652	127.66
206.87	104.63
207.088	119.64
207.306	166.04
207.523	149.55
207.741	131.6
207.959	121.38
208.177	149.21
208.395	121.01
208.612	124.82
208.83	157.58
209.048	161.04
209.266	224.32
209.483	267.01
209.701	370.23
209.919	255.66
210.136	158.31
210.354	163.35
210.572	117.58
210.79	151.32
211.007	156.07
211.225	102.27
211.442	118.45
211.66	71.93
211.878	59.69
212.095	66.82
212.313	55.9
212.53	78.12
212.748	74.53
212.966	70.83
213.183	70.62
213.401	91.17
213.618	98.88
213.836	80.82
214.053	106.42
214.271	214.13
214.488	309.25
214.705	803.59
214.923	270.48
215.14	279.39
215.358	817.83
215.575	-155.1
215.793	-973.57
216.01	-154.58
216.227	-141.68
216.445	-235.95
216.662	-56.02
216.879	-115.02
217.097	-70.77
217.314	-29.26
217.531	-109.23
217.749	-77.66
217.966	197.84
218.183	-862.03
218.4	348.02
218.618	114.58
218.835	115.2
219.052	113.05
219.269	78.31
219.487	89.34
219.704	82.72
219.921	58.97
220.138	39.35
220.355	35.64
220.572	59.27
220.79	52.8
221.007	47.52
221.224	34.14
221.441	28.31
221.658	20.98
221.875	18.32
222.092	24.4
222.309	28.95
222.526	49.97
222.743	42.35
222.96	28.74
223.177	30.32
223.394	44.93
223.611	31.84
223.828	37.39
224.045	43.12
224.262	37.75
224.479	38.95
224.696	39.92
224.913	35.15
225.13	30.84
225.347	31.38
225.564	31.49
225.781	30.38
225.997	33.45
226.214	28.75
226.431	23.72
226.648	21.96
226.865	18.79
227.082	15.55
227.298	14.44
227.515	15.04
227.732	13.24
227.949	12.74
228.165	10.32
228.382	11.45
228.599	11.81
228.816	11.74
229.032	10.18
229.249	10.89
229.466	15.7
229.682	15.4
229.899	16.17
230.116	17.79
230.332	16.92
230.549	16.07
230.765	12.86
230.982	14.61
231.199	16.71
231.415	22
231.632	21.27
231.848	17.39
232.065	18.26
232.281	19.54
232.498	19.14
232.714	21.96
232.931	21.25
233.147	23.97
233.364	22.35
233.58	21.49
233.797	20.06
234.013	22.74
234.23	22.13
234.446	22.73
234.662	19.3
234.879	15.91
235.095	12.88
235.312	13.88
235.528	15.49
235.744	13.15
235.961	16.39
236.177	14.1
236.393	13.04
236.61	11.78
236.826	10.93
237.042	12.95
237.258	15.44
237.475	17.67
237.691	18.76
237.907	18.22
238.123	18.96
238.339	15.64
238.556	15.9
238.772	13.6
238.988	12.27
239.204	13.37
239.42	13.76
239.636	13.42
239.853	13.8
240.069	12.94
240.285	13.49
240.501	13.7
240.717	13.32
240.933	13.27
241.149	14.21
241.365	15.58
241.581	15.07
241.797	15.5
242.013	17.13
242.229	17.16
242.445	17.57
242.661	16.87
242.877	17.14
243.093	17.53
243.309	18.99
243.525	18.95
243.741	18.67
243.957	17.5
244.173	16.08
244.388	13.93
244.604	13.34
244.82	13.55
245.036	13.64
245.252	12.78
245.468	12.51
245.683	11.84
245.899	12.01
246.115	11.89
246.331	13.12
246.547	13.64
246.762	14.07
246.978	14.13
247.194	14.12
247.409	14.09
247.625	15.32
247.841	14.99
248.057	15.23
248.272	15.8
248.488	16.38
248.703	15.55
248.919	15.7
249.135	15.33
249.35	14.94
249.566	14.72
249.782	13.91
249.997	12.5
250.213	13.27
250.428	12.22
250.644	11.99
250.859	9.92
251.075	10.09
251.29	10.54
251.506	11.7
251.721	10.6
251.937	9.63
252.152	9.34
252.368	9.1
252.583	7.79
252.798	9.45
253.014	8.94
253.229	11.45
253.445	11.46
253.66	10.98
253.875	8.5
254.091	11.06
254.306	10.28
254.521	9.6
254.737	10.91
254.952	11.01
255.167	11.48
255.383	10.39
255.598	8.82
255.813	7.63
256.028	7.62
256.244	7.17
256.459	7.11
256.674	7.71
256.889	8.89
257.104	8.87
257.32	9.27
257.535	9.07
257.75	8.98
257.965	9.08
258.18	8.97
258.395	8.28
258.61	8.82
258.826	8.14
259.041	8.26
259.256	7.35
259.471	7.02
259.686	6.78
259.901	6.39
260.116	6.16
260.331	5.91
260.546	6.21
260.761	6.32
260.976	5.89
261.191	6.43
261.406	6.7
261.621	7.54
261.836	6.82
262.05	6.94
262.265	7.58
262.48	8.65
262.695	9.71
262.91	9.8
263.125	9.69
263.34	10.46
263.555	10.93
263.769	10.82
263.984	10.42
264.199	11.5
264.414	11.73
264.629	10.55
264.843	10.39
265.058	10.11
265.273	9.88
265.488	9.64
265.702	8.82
265.917	8.75
266.132	8.26
266.346	9.96
266.561	9.1
266.776	8.5
266.99	10.08
267.205	10.03
267.42	9.47
267.634	8.86
267.849	8.86
268.063	9.7
268.278	9.26
268.492	9.84
268.707	9.11
268.922	9.42
269.136	9.19
269.351	7.49
269.565	6.96
269.78	7.65
269.994	8.18
270.209	8.21
270.423	7.63
270.637	8.07
270.852	7.76
271.066	7.35
271.281	6.58
271.495	6.85
271.709	7.83
271.924	8.18
272.138	7.78
272.353	7.62
272.567	7.94
272.781	7.78
272.996	6.35
273.21	6.36
273.424	6.26
273.638	7.4
273.853	7.96
274.067	7.29
274.281	5.92
274.495	6.34
274.71	6.8
274.924	6.69
275.138	7.39
275.352	8.82
275.566	9.11
275.781	10.46
275.995	10.07
276.209	9.49
276.423	9.03
276.637	10.59
276.851	10.42
277.065	10.08
277.279	9.52
277.493	8.5
277.707	8.26
277.921	8.77
278.135	7.35
278.349	7.15
278.563	7.42
278.777	8.11
278.991	7.04
279.205	6.73
279.419	7.06
279.633	8.2
279.847	9.16
280.061	9.55
280.275	8.3
280.489	8.77
280.703	9.42
280.917	9.43
281.131	9.14
281.344	9.92
281.558	9.74
281.772	9.58
281.986	9.12
282.2	8.77
282.414	8.38
282.627	8.61
282.841	7.34
283.055	7.21
283.269	6.85
283.482	7.3
283.696	6.77
283.91	6.67
284.123	7.04
284.337	6.96
284.551	6.86
284.764	6.94
284.978	7.19
285.192	7.46
285.405	7.57
285.619	7.68
285.833	7.79
286.046	8.75
286.26	8.94
286.473	7.87
286.687	8.78
286.9	8.61
287.114	8.58
287.327	8.44
287.541	8.28
287.754	7.23
287.968	7.45
288.181	6.92
288.395	6.68
288.608	7.03
288.822	7.8
289.035	7.17
289.248	6.52
289.462	5.71
289.675	5.26
289.889	5.62
290.102	7.13
290.315	7.27
290.529	7.62
290.742	6.5
290.955	5.95
291.169	5.97
291.382	5.82
291.595	6.75
291.808	7.3
292.022	8.23
292.235	7.92
292.448	7.36
292.661	6.94
292.875	6.44
293.088	6.74
293.301	6.82
293.514	7.21
293.727	6.42
293.94	6.44
294.153	7.41
294.367	6.97
294.58	7.37
294.793	6.92
295.006	7.17
295.219	7.74
295.432	8.03
295.645	8.18
295.858	7.54
296.071	8.37
296.284	8.15
296.497	7.19
296.71	7.29
296.923	7.58
297.136	7.47
297.349	7.62
297.562	6.82
297.775	6.68
297.988	7.58
298.201	7.79
298.414	7.41
298.626	7.57
298.839	8.25
299.052	8.22
299.265	6.91
299.478	7.15
299.691	7.29
299.903	7.1
300.116	7.53
300.329	6.58
300.542	6.36
300.755	6.07
300.967	6.53
301.18	6.46
301.393	6.99
301.605	7.46
301.818	7.5
302.031	7.02
302.243	7.65
302.456	7.96
302.669	8.26
302.881	8.04
303.094	8.57
303.307	8.6
303.519	8.06
303.732	7.5
303.944	8.24
304.157	8.71
304.37	8.7
304.582	8.61
304.795	8.28
305.007	7.57
305.22	8.22
305.432	8.23
305.645	7.83
305.857	8.19
306.069	8.56
306.282	8.1
306.494	7.22
306.707	6.96
306.919	6.89
307.132	6.51
307.344	7.51
307.556	7.65
307.769	7.61
307.981	7.22
308.193	6.89
308.406	6.9
308.618	6.87
308.83	7.3
309.043	7.73
309.255	8.29
309.467	8.01
309.679	7.05
309.892	7.33
310.104	6.88
310.316	7.1
310.528	7.38
310.74	7.12
310.953	8.09
311.165	7.96
311.377	7.77
311.589	7.07
311.801	7.31
312.013	7.91
312.225	7.12
312.437	7.55
312.649	7.35
312.862	7.59
313.074	8.11
313.286	6.96
313.498	7.27
313.71	7.44
313.922	7.72
314.134	7.54
314.346	7.92
314.558	8.28
314.77	8.46
314.982	9.07
315.193	8.91
315.405	8.04
315.617	8.51
315.829	8.42
316.041	7.82
316.253	8.39
316.465	9.2
316.677	9.12
316.888	8.58
317.1	8.14
317.312	7.84
317.524	7.98
317.736	8.95
317.947	8.89
318.159	8.4
318.371	9.14
318.583	8.45
318.794	8.02
319.006	7.98
319.218	8.44
319.43	9.09
319.641	9.16
319.853	8.99
320.064	8.25
320.276	7.85
320.488	8.2
320.699	7.3
320.911	8.09
321.123	8.52
321.334	8.37
321.546	8.08
321.757	7.21
321.969	7.25
322.18	7.24
322.392	7.46
322.603	7.66
322.815	7.46
323.026	7.83
323.238	7.79
323.449	7.42
323.661	7.35
323.872	7.41
324.083	7.94
324.295	7.81
324.506	7.94
324.718	7.9
324.929	8.16
325.14	8.24
325.352	8.1
325.563	7.45
325.774	7.7
325.986	6.84
326.197	7.28
326.408	6.62
326.62	6.67
326.831	6.39
327.042	6.31
327.253	6.3
327.464	5.85
327.676	5.95
327.887	6.56
328.098	6.37
328.309	7.1
328.52	6.76
328.732	7.52
328.943	7.47
329.154	8.09
329.365	8.08
329.576	7.66
329.787	8.46
329.998	8.52
330.209	8.54
330.42	8.31
330.631	8.34
330.842	8
331.053	7.29
331.264	7.51
331.475	7.15
331.686	7.32
331.897	7.83
332.108	7.51
332.319	7.64
332.53	7.26
332.741	7.24
332.952	6.74
333.163	6.61
333.374	6.67
333.585	6.21
333.795	5.79
334.006	5.27
334.217	4.87
334.428	4.87
334.639	4.63
334.849	4.75
335.06	4.37
335.271	4.69
335.482	4.87
335.692	5.41
335.903	5.5
336.114	5.51
336.325	5.91
336.535	5.97
336.746	5.91
336.957	6.14
337.167	5.63
337.378	5.9
337.589	5.79
337.799	5.7
338.01	5.7
338.22	5.4
338.431	5.27
338.642	5.02
338.852	5.01
339.063	4.84
339.273	4.49
339.484	5.05
339.694	5.37
339.905	5.82
340.115	6.3
340.326	5.47
340.536	5.68
340.746	5.78
340.957	5.64
341.167	5.29
341.378	5.68
341.588	5.82
341.799	5.34
342.009	5.31
342.219	4.86
342.43	4.48
342.64	4.59
342.85	4.23
343.061	4.38
343.271	4.73
343.481	4.62
343.691	4.22
343.902	4.72
344.112	5.02
344.322	4.72
344.532	5.1
344.743	5.09
344.953	5.53
345.163	5.6
345.373	5.09
345.583	4.68
345.793	5.18
346.004	5.45
346.214	5.32
346.424	4.78
346.634	4.71
346.844	4.27
347.054	4.48
347.264	4.85
347.474	4.9
347.684	5.18
347.894	5.59
348.104	5.5
348.314	5.36
348.524	4.9
348.734	5.39
348.944	5.02
349.154	4.98
349.364	4.92
349.574	4.34
349.784	4.54
349.994	4.58
350.204	4.62
350.413	4.72
350.623	4.98
350.833	5.03
351.043	4.69
351.253	5.41
351.463	5.63
351.672	5.69
351.882	6.14
352.092	6.11
352.302	6.19
352.511	6.2
352.721	5.71
352.931	5.46
353.141	5.39
353.35	5.46
353.56	5.32
353.77	5.03
353.979	5.27
354.189	5.04
354.399	5.37
354.608	5.52
354.818	5.48
355.027	5.56
355.237	5.81
355.447	5.92
355.656	5.5
355.866	5.5
356.075	5.37
356.285	4.94
356.494	4.83
356.704	4.33
356.913	4.19
357.123	3.94
357.332	3.85
357.542	3.59
357.751	3.54
357.96	4.02
358.17	4.03
358.379	4.1
358.589	4.29
358.798	4.37
359.007	4.46
359.217	4.42
359.426	4.67
359.635	4.62
359.845	4.54
360.054	4.65
360.263	4.79
360.472	4.64
360.682	4.8
360.891	4.56
361.1	4.64
361.309	5
361.519	4.98
361.728	4.71
361.937	4.81
362.146	4.67
362.355	4.5
362.564	4.12
362.774	4.23
362.983	4.19
363.192	4.36
363.401	3.99
363.61	3.28
363.819	3.26
364.028	3.38
364.237	3.32
364.446	3.38
364.655	3.19
364.864	3.25
365.073	3.18
365.282	3.09
365.491	3.02
365.7	3.15
365.909	3.32
366.118	3.44
366.327	3.49
366.536	3.59
366.745	3.54
366.954	3.63
367.162	3.73
367.371	3.72
367.58	3.68
367.789	3.9
367.998	3.83
368.207	3.8
368.415	3.67
368.624	3.66
368.833	3.29
369.042	3.54
369.25	3.76
369.459	3.91
369.668	3.94
369.877	4
370.085	3.9
370.294	3.93
370.503	4.43
370.711	4.47
370.92	4.41
371.129	4.87
371.337	4.91
371.546	4.74
371.754	4.55
371.963	4.45
372.171	4.39
372.38	4.3
372.589	4.3
372.797	4.14
373.006	4.09
373.214	4.03
373.423	4
373.631	3.91
373.84	4.11
374.048	3.96
374.256	4.14
374.465	4.46
374.673	4.41
374.882	4.44
375.09	4.53
375.298	4.48
375.507	4.32
375.715	4.26
375.923	4.46
376.132	4.33
376.34	4.64
376.548	4.32
376.757	4.25
376.965	4.27
377.173	4.41
377.381	3.97
377.59	4.08
377.798	4.18
378.006	4.1
378.214	3.74
378.423	3.52
378.631	3.32
378.839	3.49
379.047	3.22
379.255	3
379.463	2.64
379.671	2.59
379.879	2.8
380.088	2.93
380.296	3.09
380.504	3.22
380.712	3.53
380.92	3.41
381.128	3.14
381.336	3.3
381.544	3.72
381.752	3.72
381.96	3.98
382.168	4.1
382.376	4.13
382.584	4.17
382.791	4.12
382.999	4.1
383.207	4.11
383.415	4.64
383.623	4.79
383.831	4.58
384.039	4.77
384.247	4.99
384.454	4.73
384.662	4.47
384.87	4.37
385.078	4.53
385.285	4.5
385.493	4.39
385.701	4.05
385.909	3.84
386.116	3.86
386.324	3.82
386.532	3.69
386.739	3.67
386.947	3.74
387.155	3.61
387.362	3.57
387.57	3.58
387.778	3.83
387.985	3.98
388.193	3.91
388.4	3.68
388.608	3.74
388.816	3.63
389.023	3.62
389.231	3.74
389.438	3.76
389.646	3.73
389.853	3.57
390.061	3.48
390.268	3.32
390.475	3.23
390.683	3.33
390.89	3.24
391.098	3.14
391.305	3.04
391.512	3.21
391.72	3.32
391.927	3.23
392.135	3.31
392.342	3.35
392.549	3.34
392.756	3.51
392.964	3.57
393.171	3.54
393.378	3.66
393.586	3.68
393.793	3.52
394	3.43
394.207	3.59
394.414	3.55
394.622	3.57
394.829	3.78
395.036	3.81
395.243	4.09
395.45	4.23
395.657	4.23
395.864	4.49
396.072	4.33
396.279	4.29
396.486	4.23
396.693	4.04
396.9	3.96
397.107	3.86
397.314	3.88
397.521	3.55
397.728	3.45
397.935	3.33
398.142	2.93
398.349	2.81
398.556	2.77
398.763	2.61
398.97	3.01
399.177	2.94
399.383	3.04
399.59	3.03
399.797	3.05
400.004	2.85
400.211	3.02
400.418	3.27
400.625	3.4
400.831	3.27
401.038	3.47
401.245	3.16
401.452	3.19
401.658	3.09
401.865	3
402.072	2.92
402.279	3
402.485	2.84
402.692	2.65
402.899	2.67
403.105	2.81
403.312	2.68
403.519	2.78
403.725	2.8
403.932	2.7
404.138	2.82
404.345	2.88
404.552	3
404.758	3.03
404.965	3.04
405.171	3.05
405.378	3.07
405.584	3.17
405.791	3.07
405.997	3.25
406.204	3.43
406.41	3.29
406.617	3.43
406.823	3.31
407.029	3.3
407.236	3.39
407.442	3.42
407.649	3.38
407.855	3.23
408.061	3.34
408.268	3.11
408.474	3.03
408.68	3.04
408.887	2.91
409.093	2.96
409.299	3.1
409.505	3.12
409.712	3.09
409.918	3.01
410.124	3.06
410.33	3.02
410.537	2.98
410.743	3.05
410.949	3.16
411.155	3.23
411.361	3.44
411.567	3.23
411.773	3.21
411.98	3.33
412.186	3.41
412.392	3.38
412.598	3.33
412.804	3.42
413.01	3.39
413.216	3.38
413.422	3.24
413.628	2.97
413.834	3.03
414.04	3.13
414.246	3.06
414.452	3.04
414.658	3.04
414.864	3.06
415.07	2.91
415.275	2.81
415.481	2.82
415.687	2.76
415.893	2.83
416.099	2.8
416.305	2.72
416.511	2.66
416.716	2.73
416.922	2.73
417.128	2.71
417.334	2.8
417.539	2.76
417.745	2.64
417.951	2.78
418.157	2.84
418.362	2.94
418.568	2.94
418.774	2.97
418.979	2.92
419.185	2.96
419.391	3.01
419.596	3
419.802	2.99
420.008	3.04
420.213	2.94
420.419	2.84
420.624	2.81
420.83	2.8
421.035	2.83
421.241	2.92
421.446	2.88
421.652	2.86
421.857	2.89
422.063	3
422.268	2.91
422.474	3.03
422.679	3.06
422.885	3.06
423.09	3
423.295	3.01
423.501	2.86
423.706	2.89
423.911	2.87
424.117	2.82
424.322	2.74
424.527	2.76
424.733	2.67
424.938	2.68
425.143	2.66
425.349	2.78
425.554	2.74
425.759	2.84
425.964	2.85
426.169	2.81
426.375	2.84
426.58	2.9
426.785	2.94
426.99	2.9
427.195	2.88
427.4	2.89
427.605	2.85
427.811	2.86
428.016	2.76
428.221	2.67
428.426	2.78
428.631	2.81
428.836	2.7
429.041	2.65
429.246	2.77
429.451	2.8
429.656	2.75
429.861	2.72
430.066	2.69
430.271	2.79
430.476	2.86
430.681	2.86
430.886	2.77
431.09	2.86
431.295	2.93
431.5	2.88
431.705	2.97
431.91	2.97
432.115	2.89
432.32	2.83
432.524	2.79
432.729	2.69
432.934	2.68
433.139	2.77
433.343	2.75
433.548	2.8
433.753	2.78
433.958	2.91
434.162	2.98
434.367	3.18
434.572	3.22
434.776	3.25
434.981	3.37
435.186	3.48
435.39	3.37
435.595	3.42
435.799	3.44
436.004	3.56
436.209	3.35
436.413	3.31
436.618	3.29
436.822	3.37
437.027	3.23
437.231	3.21
437.436	3.09
437.64	3.12
437.845	3.1
438.049	3.07
438.253	2.99
438.458	2.95
438.662	2.88
438.867	2.78
439.071	2.69
439.275	2.87
439.48	2.85
439.684	2.81
439.888	2.91
440.093	2.9
440.297	2.88
440.501	2.91
440.706	2.92
440.91	3.05
441.114	3.13
441.318	3.16
441.523	3.09
441.727	3.1
441.931	3.15
442.135	3.05
442.339	3.04
442.543	3.02
442.748	2.91
442.952	2.89
443.156	2.85
443.36	2.84
443.564	2.89
443.768	2.84
443.972	2.93
444.176	2.9
444.38	2.96
444.584	2.96
444.788	2.98
444.992	3.03
445.196	3.11
445.4	3.11
445.604	3.05
445.808	3
446.012	3.06
446.216	3.02
446.42	3.05
446.624	2.95
446.828	3
447.032	2.97
447.235	2.97
447.439	2.94
447.643	2.85
447.847	2.92
448.051	2.95
448.254	2.92
448.458	2.94
448.662	2.95
448.866	3.05
449.069	3.01
449.273	3.13
449.477	3.14
449.681	3.11
449.884	3.16
450.088	3.19
450.292	3.17
450.495	3.2
450.699	3.04
450.902	3.01
451.106	3.06
451.31	3.05
451.513	2.95
451.717	2.87
451.92	2.89
452.124	2.86
452.327	2.84
452.531	2.82
452.734	2.75
452.938	2.87
453.141	2.86
453.345	2.73
453.548	2.69
453.752	2.74
453.955	2.8
454.158	2.79
454.362	2.82
454.565	2.75
454.769	2.67
454.972	2.77
455.175	2.68
455.379	2.68
455.582	2.66
455.785	2.62
455.988	2.59
456.192	2.59
456.395	2.66
456.598	2.73
456.801	2.76
457.005	2.88
457.208	2.9
457.411	2.88
457.614	2.84
457.817	2.9
458.021	2.84
458.224	2.88
458.427	2.94
458.63	2.92
458.833	2.95
459.036	2.92
459.239	2.89
459.442	2.8
459.645	2.86
459.848	2.91
460.051	2.93
460.254	3.06
460.457	2.99
460.66	2.99
460.863	2.98
461.066	2.91
461.269	2.92
461.472	2.95
461.675	3.11
461.878	3.15
462.081	3.13
462.284	3.12
462.486	3.18
462.689	3.28
462.892	3.33
463.095	3.36
463.298	3.42
463.5	3.49
463.703	3.52
463.906	3.33
464.109	3.23
464.311	3.24
464.514	3.19
464.717	2.96
464.92	2.81
465.122	2.71
465.325	2.66
465.528	2.74
465.73	2.75
465.933	2.68
466.135	2.84
466.338	2.89
466.541	2.83
466.743	2.9
466.946	3.07
467.148	3.27
467.351	3.26
467.553	3.21
467.756	3.14
467.958	3.08
468.161	2.94
468.363	2.87
468.566	2.96
468.768	3.08
468.971	3.19
469.173	3.09
469.375	2.9
469.578	2.84
469.78	2.91
469.983	2.91
470.185	2.98
470.387	3.23
470.59	3.27
470.792	3.1
470.994	3.06
471.196	2.92
471.399	3.01
471.601	3.21
471.803	3.26
472.005	3.18
472.208	3.12
472.41	3.07
472.612	3.03
472.814	2.99
473.016	2.96
473.218	2.97
473.421	2.94
473.623	2.95
473.825	2.86
474.027	2.84
474.229	2.84
474.431	2.86
474.633	2.94
474.835	2.96
475.037	3.1
475.239	3.19
475.441	3.16
475.643	3.14
475.845	3.04
476.047	3
476.249	2.98
476.451	3.02
476.653	2.97
476.855	2.98
477.057	2.92
477.258	2.92
477.46	2.91
477.662	2.81
477.864	2.85
478.066	2.9
478.268	2.87
478.469	2.89
478.671	2.87
478.873	2.93
479.075	2.85
479.276	2.88
479.478	2.73
479.68	2.68
479.882	2.77
480.083	2.71
480.285	2.75
480.487	2.77
480.688	2.78
480.89	2.79
481.091	2.8
481.293	2.83
481.495	2.87
481.696	2.86
481.898	2.88
482.099	2.85
482.301	2.89
482.502	2.89
482.704	2.9
482.905	2.93
483.107	2.93
483.308	2.92
483.51	2.88
483.711	2.86
483.913	2.86
484.114	2.88
484.315	2.91
484.517	2.89
484.718	2.88
484.92	2.87
485.121	2.8
485.322	2.83
485.524	2.86
485.725	2.92
485.926	2.91
486.127	2.95
486.329	2.93
486.53	2.9
486.731	2.87
486.932	2.86
487.134	2.85
487.335	2.91
487.536	2.89
487.737	2.85
487.938	2.83
488.139	2.85
488.341	2.81
488.542	2.75
488.743	2.79
488.944	2.86
489.145	2.87
489.346	2.9
489.547	2.89
489.748	2.85
489.949	2.86
490.15	2.85
490.351	2.88
490.552	2.87
490.753	2.9
490.954	2.9
491.155	2.87
491.356	2.96
491.557	2.94
491.758	2.94
491.959	3.04
492.159	3.07
492.36	3.11
492.561	3.09
492.762	3.18
492.963	3.25
493.164	3.28
493.364	3.39
493.565	3.41
493.766	3.46
493.967	3.44
494.167	3.37
494.368	3.42
494.569	3.4
494.769	3.37
494.97	3.31
495.171	3.24
495.371	3.21
495.572	3.1
495.773	2.94
495.973	2.9
496.174	2.88
496.375	2.96
496.575	2.92
496.776	2.95
496.976	2.94
497.177	3.02
497.377	2.98
497.578	3.07
497.778	3.15
497.979	3.15
498.179	3.22
498.38	3.22
498.58	3.09
498.78	3.13
498.981	3.12
499.181	3.24
499.382	3.24
499.582	3.37
499.782	3.35
499.983	3.28
500.183	3.38
500.383	3.3
500.584	3.33
500.784	3.39
500.984	3.22
501.184	3.16
501.385	3.17
501.585	3.2
501.785	3.14
501.985	3.11
502.185	3.13
502.386	3.07
502.586	3.16
502.786	3.15
502.986	3.19
503.186	3.35
503.386	3.39
503.586	3.3
503.786	3.27
503.987	3.26
504.187	3.21
504.387	3.31
504.587	3.42
504.787	3.41
504.987	3.44
505.187	3.44
505.387	3.39
505.587	3.38
505.786	3.34
505.986	3.29
506.186	3.31
506.386	3.38
506.586	3.36
506.786	3.32
506.986	3.28
507.186	3.26
507.386	3.22
507.585	3.26
507.785	3.24
507.985	3.31
508.185	3.34
508.384	3.44
508.584	3.41
508.784	3.4
508.984	3.42
509.183	3.44
509.383	3.43
509.583	3.46
509.782	3.47
509.982	3.47
510.182	3.56
510.381	3.53
510.581	3.44
510.781	3.45
510.98	3.53
511.18	3.57
511.379	3.61
511.579	3.63
511.778	3.64
511.978	3.66
512.177	3.71
512.377	3.69
512.576	3.76
512.776	3.8
512.975	3.84
513.175	3.78
513.374	3.79
513.573	3.76
513.773	3.81
513.972	3.81
514.172	3.78
514.371	3.84
514.57	3.77
514.77	3.75
514.969	3.82
515.168	3.83
515.367	3.89
515.567	3.86
515.766	3.92
515.965	3.94
516.164	3.92
516.364	3.97
516.563	3.97
516.762	4.01
516.961	4.06
517.16	3.99
517.359	3.98
517.559	3.92
517.758	3.94
517.957	3.91
518.156	3.94
518.355	4
518.554	3.99
518.753	4.01
518.952	3.97
519.151	3.97
519.35	3.95
519.549	3.95
519.748	3.95
519.947	3.99
520.146	4.06
520.345	3.97
520.544	3.94
520.743	4.03
520.942	4.02
521.141	4.09
521.339	4.03
521.538	4.18
521.737	4.2
521.936	4.23
522.135	4.17
522.333	4.16
522.532	4.28
522.731	4.3
522.93	4.24
523.129	4.21
523.327	4.21
523.526	4.21
523.725	4.15
523.923	4.16
524.122	4.25
524.321	4.25
524.519	4.19
524.718	4.2
524.917	4.21
525.115	4.26
525.314	4.26
525.512	4.32
525.711	4.39
525.909	4.48
526.108	4.52
526.306	4.49
526.505	4.56
526.703	4.57
526.902	4.55
527.1	4.55
527.299	4.52
527.497	4.48
527.696	4.45
527.894	4.4
528.092	4.34
528.291	4.33
528.489	4.3
528.688	4.24
528.886	4.24
529.084	4.24
529.283	4.24
529.481	4.21
529.679	4.29
529.877	4.3
530.076	4.41
530.274	4.44
530.472	4.45
530.67	4.48
530.869	4.51
531.067	4.54
531.265	4.58
531.463	4.6
531.661	4.67
531.859	4.68
532.057	4.65
532.255	4.62
532.454	4.62
532.652	4.6
532.85	4.64
533.048	4.68
533.246	4.71
533.444	4.68
533.642	4.69
533.84	4.66
534.038	4.65
534.236	4.77
534.434	4.76
534.632	4.85
534.83	4.9
535.027	4.99
535.225	4.91
535.423	4.88
535.621	4.93
535.819	4.96
536.017	5.01
536.215	5.04
536.412	5
536.61	4.99
536.808	4.95
537.006	5.01
537.203	4.93
537.401	5.05
537.599	5.15
537.797	5.18
537.994	5.21
538.192	5.25
538.39	5.27
538.587	5.27
538.785	5.34
538.983	5.41
539.18	5.43
539.378	5.49
539.575	5.48
539.773	5.48
539.97	5.49
540.168	5.49
540.366	5.52
540.563	5.54
540.761	5.56
540.958	5.55
541.155	5.52
541.353	5.47
541.55	5.47
541.748	5.48
541.945	5.51
542.143	5.54
542.34	5.54
542.537	5.5
542.735	5.5
542.932	5.56
543.129	5.63
543.327	5.66
543.524	5.77
543.721	5.74
543.919	5.8
544.116	5.79
544.313	5.8
544.51	5.85
544.708	5.91
544.905	5.96
545.102	6
545.299	6.06
545.496	6.1
545.693	6.16
545.891	6.16
546.088	6.14
546.285	6.15
546.482	6.16
546.679	6.2
546.876	6.17
547.073	6.23
547.27	6.17
547.467	6.13
547.664	6.15
547.861	6.16
548.058	6.3
548.255	6.4
548.452	6.55
548.649	6.63
548.846	6.64
549.043	6.8
549.24	6.83
549.437	6.86
549.633	6.91
549.83	6.87
550.027	6.87
550.224	6.82
550.421	6.87
550.618	6.84
550.814	6.78
551.011	6.81
551.208	6.86
551.405	6.84
551.601	6.97
551.798	7.01
551.995	7.15
552.191	7.17
552.388	7.23
552.585	7.21
552.781	7.33
552.978	7.46
553.175	7.53
553.371	7.43
553.568	7.54
553.764	7.61
553.961	7.59
554.157	7.56
554.354	7.72
554.55	7.8
554.747	7.8
554.943	7.64
555.14	7.55
555.336	7.66
555.533	7.77
555.729	7.73
555.926	7.71
556.122	7.77
556.318	7.82
556.515	7.72
556.711	7.85
556.907	7.89
557.104	8.03
557.3	8.13
557.496	8.14
557.693	8.17
557.889	8.23
558.085	8.3
558.281	8.3
558.478	8.45
558.674	8.49
558.87	8.5
559.066	8.52
559.262	8.5
559.459	8.51
559.655	8.6
559.851	8.63
560.047	8.67
560.243	8.61
560.439	8.61
560.635	8.64
560.831	8.7
561.027	8.69
561.223	8.75
561.419	8.84
561.615	8.89
561.811	8.81
562.007	8.79
562.203	8.79
562.399	8.87
562.595	8.93
562.791	8.86
562.987	8.94
563.183	8.97
563.379	9.04
563.575	9.11
563.771	9.2
563.966	9.27
564.162	9.28
564.358	9.31
564.554	9.32
564.75	9.38
564.945	9.45
565.141	9.41
565.337	9.48
565.533	9.42
565.728	9.45
565.924	9.45
566.12	9.47
566.315	9.54
566.511	9.57
566.707	9.57
566.902	9.59
567.098	9.55
567.293	9.61
567.489	9.68
567.684	9.75
567.88	9.73
568.076	9.78
568.271	9.7
568.467	9.7
568.662	9.66
568.858	9.72
569.053	9.66
569.248	9.67
569.444	9.67
569.639	9.69
569.835	9.71
570.03	9.73
570.225	9.73
570.421	9.81
570.616	9.9
570.812	10
571.007	10.03
571.202	10.08
571.397	10.05
571.593	10.08
571.788	10.06
571.983	10.16
572.178	10.15
572.374	10.22
572.569	10.23
572.764	10.26
572.959	10.25
573.154	10.36
573.35	10.51
573.545	10.64
573.74	10.69
573.935	10.7
574.13	10.65
574.325	10.69
574.52	10.61
574.715	10.72
574.91	10.73
575.105	10.82
575.3	10.8
575.495	10.79
575.69	10.84
575.885	10.84
576.08	10.84
576.275	10.86
576.47	10.96
576.665	11.04
576.86	10.99
577.055	10.99
577.25	10.9
577.444	10.87
577.639	10.92
577.834	10.87
578.029	10.92
578.224	10.93
578.418	11.07
578.613	11.02
578.808	11.11
579.003	11.23
579.197	11.26
579.392	11.33
579.587	11.36
579.781	11.27
579.976	11.32
580.171	11.35
580.365	11.35
580.56	11.23
580.755	11.18
580.949	11.16
581.144	11.11
581.338	11.06
581.533	11.05
581.727	10.99
581.922	10.86
582.116	11.02
582.311	10.98
582.505	11.13
582.7	11.29
582.894	11.46
583.089	11.56
583.283	11.61
583.478	11.74
583.672	11.79
583.866	11.89
584.061	12.07
584.255	12.06
584.449	12.04
584.644	12.03
584.838	12.07
585.032	12.07
585.226	11.99
585.421	11.92
585.615	11.81
585.809	11.75
586.003	11.77
586.198	11.95
586.392	11.98
586.586	11.92
586.78	11.85
586.974	11.86
587.168	11.92
587.363	11.95
587.557	11.95
587.751	12.11
587.945	12.26
588.139	12.38
588.333	12.32
588.527	12.37
588.721	12.47
588.915	12.54
589.109	12.59
589.303	12.46
589.497	12.55
589.691	12.56
589.885	12.45
590.079	12.46
590.273	12.28
590.466	12.16
590.66	12.04
590.854	12.2
591.048	12.23
591.242	12.07
591.436	12.23
591.629	12.2
591.823	12.2
592.017	12.32
592.211	12.35
592.404	12.55
592.598	12.61
592.792	12.69
592.986	12.67
593.179	12.57
593.373	12.67
593.567	12.73
593.76	12.68
593.954	12.83
594.147	12.74
594.341	12.65
594.535	12.62
594.728	12.69
594.922	12.57
595.115	12.46
595.309	12.49
595.502	12.53
595.696	12.42
595.889	12.45
596.083	12.44
596.276	12.55
596.47	12.7
596.663	12.65
596.856	12.64
597.05	12.71
597.243	12.8
597.437	12.93
597.63	12.92
597.823	12.99
598.017	13.09
598.21	13.15
598.403	13.16
598.596	13.07
598.79	13.03
598.983	13.02
599.176	13.12
599.369	13.12
599.563	13.05
599.756	13.14
599.949	13.07
600.142	13
600.335	12.96
600.528	12.97
600.722	12.99
600.915	13.06
601.108	13.16
601.301	13.24
601.494	13.22
601.687	13.22
601.88	13.07
602.073	13.1
602.266	13.07
602.459	13.1
602.652	13
602.845	12.97
603.038	13.02
603.231	12.95
603.424	12.91
603.617	12.88
603.809	12.94
604.002	12.83
604.195	12.81
604.388	12.77
604.581	12.77
604.774	12.9
604.966	12.95
605.159	12.93
605.352	12.81
605.545	12.77
605.737	12.8
605.93	12.86
606.123	13.03
606.316	13.29
606.508	13.46
606.701	13.44
606.894	13.53
607.086	13.63
607.279	13.58
607.471	13.9
607.664	13.95
607.857	14.03
608.049	13.93
608.242	13.9
608.434	13.74
608.627	13.63
608.819	13.7
609.012	13.53
609.204	13.4
609.397	13.46
609.589	13.26
609.782	13.29
609.974	13.26
610.166	13.27
610.359	13.35
610.551	13.3
610.743	13.4
610.936	13.42
611.128	13.5
611.32	13.53
611.513	13.44
611.705	13.52
611.897	13.42
612.09	13.36
612.282	13.16
612.474	13.04
612.666	13.04
612.858	12.98
613.051	12.91
613.243	12.98
613.435	13.02
613.627	13.09
613.819	13.17
614.011	13.35
614.203	13.48
614.395	13.56
614.588	13.88
614.78	13.84
614.972	13.83
615.164	13.83
615.356	13.89
615.548	13.82
615.74	13.85
615.932	13.76
616.124	13.58
616.315	13.66
616.507	13.83
616.699	13.48
616.891	13.58
617.083	13.75
617.275	13.92
617.467	13.83
617.659	13.82
617.85	13.92
618.042	13.98
618.234	13.93
618.426	13.92
618.618	13.79
618.809	14.04
619.001	14.08
619.193	13.81
619.384	13.67
619.576	13.59
619.768	13.44
619.959	13.37
620.151	13.4
620.343	13.46
620.534	13.34
620.726	13.42
620.917	13.28
621.109	13.22
621.301	13.41
621.492	13.43
621.684	13.62
621.875	13.76
622.067	13.76
622.258	13.79
622.45	13.87
622.641	14.02
622.832	14.21
623.024	14.37
623.215	14.33
623.407	14.28
623.598	14.11
623.789	13.93
623.981	13.96
624.172	13.84
624.363	13.73
624.555	13.63
624.746	13.51
624.937	13.44
625.129	13.4
625.32	13.66
625.511	13.6
625.702	13.76
625.893	13.83
626.085	14.02
626.276	14.23
626.467	14.28
626.658	14.24
626.849	14.39
627.04	14.2
627.231	14.2
627.422	13.92
627.614	14.08
627.805	14.09
627.996	13.98
628.187	13.92
628.378	13.81
628.569	13.8
628.76	13.98
628.951	13.87
629.142	13.93
629.332	13.95
629.523	14.03
629.714	13.9
629.905	13.83
630.096	14
630.287	13.9
630.478	13.86
630.669	13.83
630.859	13.9
631.05	13.98
631.241	14.1
631.432	14.12
631.623	14.1
631.813	14.2
632.004	14.15
632.195	14.08
632.385	14.05
632.576	14.19
632.767	14.18
632.957	13.98
633.148	13.84
633.339	13.75
633.529	13.61
633.72	13.58
633.91	13.63
634.101	13.77
634.292	13.79
634.482	13.95
634.673	13.91
634.863	13.97
635.054	14.13
635.244	14.2
635.435	14.24
635.625	14.24
635.815	14.49
636.006	14.53
636.196	14.38
636.387	14.44
636.577	14.23
636.767	14.14
636.958	14.19
637.148	14.13
637.338	14.15
637.529	14.22
637.719	14.31
637.909	14.24
638.099	14.12
638.29	14.15
638.48	13.93
638.67	14.14
638.86	14.13
639.05	13.99
639.241	14.04
639.431	14.02
639.621	13.87
639.811	14
640.001	14.04
640.191	14.3
640.381	14.43
640.571	14.72
640.761	14.62
640.951	14.58
641.141	14.72
641.331	14.71
641.521	14.73
641.711	14.87
641.901	14.86
642.091	14.82
642.281	14.44
642.471	14.34
642.661	14.21
642.851	14.1
643.041	14.27
643.231	14.52
643.42	14.41
643.61	14.38
643.8	14.52
643.99	14.57
644.18	14.48
644.369	14.42
644.559	14.7
644.749	14.76
644.939	15.04
645.128	15.02
645.318	14.87
645.508	14.99
645.697	14.99
645.887	14.96
646.076	14.68
646.266	14.62
646.456	14.84
646.645	14.64
646.835	14.69
647.024	14.59
647.214	14.69
647.403	14.49
647.593	14.71
647.782	14.78
647.972	14.78
648.161	14.77
648.351	14.91
648.54	14.81
648.73	14.71
648.919	14.9
649.108	14.77
649.298	14.7
649.487	14.73
649.677	14.63
649.866	14.8
650.055	14.65
650.244	14.87
650.434	14.91
650.623	14.96
650.812	15.09
651.002	14.83
651.191	14.82
651.38	14.88
651.569	15.05
651.758	14.77
651.947	14.65
652.137	14.82
652.326	14.7
652.515	14.45
652.704	14.64
652.893	14.75
653.082	14.91
653.271	14.89
653.46	14.92
653.649	14.71
653.838	15.04
654.027	14.92
654.216	14.94
654.405	15.15
654.594	15.31
654.783	15.27
654.972	15.28
655.161	14.8
655.35	14.94
655.539	14.95
655.728	15.06
655.916	14.94
656.105	14.95
656.294	14.87
656.483	14.83
656.672	14.77
656.86	14.69
657.049	14.62
657.238	14.93
657.427	14.92
657.615	14.96
657.804	14.94
657.993	14.82
658.181	14.73
658.37	14.66
658.559	14.61
658.747	14.8
658.936	14.68
659.125	14.42
659.313	14.34
659.502	14.32
659.69	14.25
659.879	14.34
660.067	14.64
660.256	14.9
660.444	14.94
660.633	15.17
660.821	14.88
661.01	14.88
661.198	15.04
661.387	15.24
661.575	15.37
661.763	15.32
661.952	15.33
662.14	15.24
662.328	15.19
662.517	15.17
662.705	14.77
662.893	15.15
663.082	15.34
663.27	15.57
663.458	15.44
663.646	15.44
663.834	15.58
664.023	15.49
664.211	15.4
664.399	15.15
664.587	15.13
664.775	15.05
664.963	14.91
665.152	14.74
665.34	14.95
665.528	15
665.716	14.93
665.904	14.86
666.092	14.67
666.28	14.78
666.468	14.82
666.656	14.9
666.844	15.36
667.032	15.34
667.22	15.61
667.408	15.34
667.596	15.22
667.784	15.21
667.971	15.12
668.159	15.41
668.347	15.19
668.535	15.3
668.723	15.24
668.911	15.09
669.098	15.26
669.286	15.24
669.474	14.99
669.662	15
669.849	15.11
670.037	15.17
670.225	15.14
670.413	15.32
670.6	15.36
670.788	15.39
670.976	15.55
671.163	15.18
671.351	15.21
671.538	15.26
671.726	15.21
671.913	15.16
672.101	15.19
672.289	15.01
672.476	14.79
672.664	14.81
672.851	14.54
673.039	14.14
673.226	14.42
673.413	14.16
673.601	14.42
673.788	14.66
673.976	14.51
674.163	14.36
674.35	14.5
674.538	14.64
674.725	14.84
674.912	15.15
675.1	15.32
675.287	15.2
675.474	15.47
675.662	15.47
675.849	15.33
676.036	15.14
676.223	15.14
676.411	15.13
676.598	15.04
676.785	14.81
676.972	14.84
677.159	14.77
677.346	14.9
677.533	14.73
677.721	14.81
677.908	15.09
678.095	15.39
678.282	15.57
678.469	15.56
678.656	15.84
678.843	15.89
679.03	16.03
679.217	16.06
679.404	16.07
679.591	16.08
679.778	15.81
679.964	15.54
680.151	15.53
680.338	15.51
680.525	15.42
680.712	15.35
680.899	15.29
681.086	15.11
681.272	14.95
681.459	14.85
681.646	14.9
681.833	14.97
682.02	14.98
682.206	14.86
682.393	14.88
682.58	14.86
682.766	14.56
682.953	14.59
683.14	14.5
683.326	14.82
683.513	15.13
683.7	15.09
683.886	15.41
684.073	15.59
684.259	15.7
684.446	15.63
684.632	15.96
684.819	15.95
685.005	16.23
685.192	16.26
685.378	16.19
685.565	15.6
685.751	15.62
685.938	15.33
686.124	15.18
686.31	15.25
686.497	15
686.683	14.77
686.87	14.75
687.056	14.58
687.242	14.69
687.429	14.78
687.615	15.11
687.801	15.05
687.987	15.13
688.174	15.28
688.36	15.16
688.546	15.45
688.732	15.45
688.918	15.65
689.105	15.64
689.291	15.76
689.477	15.88
689.663	15.75
689.849	15.95
690.035	16.01
690.221	16.13
690.407	16.13
690.593	16.09
690.779	16.08
690.965	16.04
691.151	15.89
691.337	15.95
691.523	15.96
691.709	15.94
691.895	15.94
692.081	15.7
692.267	15.6
692.453	15.51
692.639	15.42
692.825	15.69
693.011	15.82
693.196	16.07
693.382	15.73
693.568	15.6
693.754	15.66
693.94	15.31
694.125	15.58
694.311	15.74
694.497	15.82
694.682	15.8
694.868	15.6
695.054	15.53
695.239	15.36
695.425	15.34
695.611	15.34
695.796	15.62
695.982	16.08
696.168	16.05
696.353	15.97
696.539	15.92
696.724	15.96
696.91	16.05
697.095	15.99
697.281	16.04
697.466	16.05
697.652	15.89
697.837	15.76
698.023	15.82
698.208	15.77
698.393	15.66
698.579	15.98
698.764	15.94
698.949	16.03
699.135	15.88
699.32	15.7
699.505	15.96
699.691	16.12
699.876	16.18
700.061	16.01
700.246	16.04
700.432	16.16
700.617	16.29
700.802	16.33
700.987	16.19
701.172	16.67
701.358	16.67
701.543	16.74
701.728	16.71
701.913	16.23
702.098	16.37
702.283	16.65
702.468	16.71
702.653	16.22
702.838	16.59
703.023	16.44
703.208	16.46
703.393	16.98
703.578	16.73
703.763	16.98
703.948	17.29
704.133	17.13
704.318	17.04
704.503	16.78
704.688	16.79
704.873	16.66
705.057	16.82
705.242	16.46
705.427	16.36
705.612	16.35
705.797	15.85
705.981	15.44
706.166	15.39
706.351	15.36
706.536	15.44
706.72	15.39
706.905	15.27
707.09	15.5
707.274	15.49
707.459	15.36
707.644	15.42
707.828	15.6
708.013	16.43
708.197	16.46
708.382	16.68
708.567	16.76
708.751	17.26
708.936	17.19
709.12	16.93
709.305	17.17
709.489	17.03
709.673	16.78
709.858	16.77
710.042	16.44
710.227	16.41
710.411	16.23
710.596	15.86
710.78	15.57
710.964	15.74
711.149	15.75
711.333	15.6
711.517	15.48
711.702	16.01
711.886	16.23
712.07	16.5
712.254	16.5
712.438	16.57
712.623	16.8
712.807	16.81
712.991	16.94
713.175	17.26
713.359	17.29
713.544	17.48
713.728	17.23
713.912	17.39
714.096	16.95
714.28	16.93
714.464	16.76
714.648	16.78
714.832	16.78
715.016	16.27
715.2	15.88
715.384	16.04
715.568	16.15
715.752	16.06
715.936	15.89
716.12	16.25
716.304	16.3
716.488	16.19
716.671	15.98
716.855	16.08
717.039	16.81
717.223	16.9
717.407	16.78
717.59	16.79
717.774	16.74
717.958	16.76
718.142	16.75
718.325	16.41
718.509	16.41
718.693	16.73
718.877	16.11
719.06	15.57
719.244	15.7
719.428	16.24
719.611	16.25
719.795	16.78
719.978	16.76
720.162	16.54
720.345	16.94
720.529	16.99
720.713	17.12
720.896	17.35
721.08	17.34
721.263	17.35
721.446	16.77
721.63	16.83
721.813	16.55
721.997	16.31
722.18	16.39
722.364	16.31
722.547	16.83
722.73	16.73
722.914	16.94
723.097	16.94
723.28	16.91
723.464	17.14
723.647	17.32
723.83	17.32
724.013	17.43
724.197	17.76
724.38	18.31
724.563	17.49
724.746	17.59
724.929	17.76
725.112	18.32
725.296	18.47
725.479	18.25
725.662	17.31
725.845	16.96
726.028	17.15
726.211	16.72
726.394	16.2
726.577	16.59
726.76	16.25
726.943	15.88
727.126	15.56
727.309	15.15
727.492	15.31
727.675	16
727.858	16.17
728.041	16.06
728.224	16.4
728.407	16.29
728.589	16.61
728.772	17.14
728.955	17.58
729.138	17.45
729.321	17.27
729.503	17.46
729.686	17.43
729.869	17.5
730.052	17.19
730.234	16.72
730.417	16.49
730.6	16.32
730.782	15.79
730.965	15.38
731.148	15.77
731.33	16
731.513	15.77
731.695	15.69
731.878	15.57
732.061	15.67
732.243	15.97
732.426	16.4
732.608	16.48
732.791	17.16
732.973	17.07
733.156	17.09
733.338	17.42
733.52	17.15
733.703	17.22
733.885	17.45
734.068	17.79
734.25	17.92
734.432	17.25
734.615	17.18
734.797	16.87
734.979	17.42
735.162	17.11
735.344	16.9
735.526	17.31
735.708	16.93
735.891	16.93
736.073	16.51
736.255	16.51
736.437	17.1
736.619	16.94
736.802	17.13
736.984	16.81
737.166	16.67
737.348	16.76
737.53	16.44
737.712	16.17
737.894	15.64
738.076	15.96
738.258	16.21
738.44	16.03
738.622	16.23
738.804	16.37
738.986	16.49
739.168	16.78
739.35	17.08
739.532	16.8
739.714	17.28
739.896	17.44
740.078	17.3
740.259	17.03
740.441	17.05
740.623	16.47
740.805	16.3
740.987	15.68
741.168	15.63
741.35	15.56
741.532	15.63
741.714	15.82
741.895	16.51
742.077	16.42
742.259	16.08
742.44	15.83
742.622	17
742.804	16.89
742.985	17.8
743.167	18.02
743.348	17.51
743.53	18.29
743.711	18.24
743.893	17.91
744.075	18.73
744.256	19.34
744.438	19.93
744.619	19.11
744.8	18.71
744.982	18.51
745.163	17.69
745.345	17.48
745.526	16.76
745.707	16.78
745.889	16.72
746.07	16.46
746.252	16.78
746.433	16.69
746.614	16.98
746.795	17.53
746.977	17.2
747.158	17.9
747.339	18.79
747.52	19.14
747.702	18.83
747.883	19.39
748.064	19.68
748.245	18.87
748.426	18.81
748.607	18.72
748.788	19.22
748.97	19.4
749.151	19.09
749.332	18.61
749.513	18.66
749.694	19.52
749.875	19.03
750.056	18.82
750.237	18.97
750.418	19.31
750.599	19.66
750.78	18.86
750.96	18.69
751.141	18.95
751.322	19.16
751.503	18.54
751.684	17.95
751.865	17.76
752.046	17.41
752.226	17.17
752.407	17.17
752.588	16.03
752.769	15.96
752.949	16.42
753.13	16.06
753.311	16.21
753.492	16.94
753.672	17.84
753.853	18.24
754.034	18.16
754.214	18.59
754.395	18.05
754.575	18.29
754.756	17.92
754.937	18.35
755.117	18.13
755.298	18.04
755.478	17.95
755.659	16.79
755.839	16.73
756.02	16.12
756.2	15.72
756.381	16.11
756.561	16.49
756.741	16.81
756.922	16.28
757.102	16.86
757.283	16.37
757.463	16.05
757.643	16.68
757.823	16.13
758.004	16.67
758.184	16.53
758.364	16.04
758.545	15.7
758.725	16
758.905	15.97
759.085	15.7
759.265	15.76
759.446	16.49
759.626	16.7
759.806	17.38
759.986	17.52
760.166	17.52
760.346	17.41
760.526	17.83
760.706	17.67
760.886	17.44
761.066	17.19
761.246	17.37
761.426	17.21
761.606	16.82
761.786	16.33
761.966	16.33
762.146	17.1
762.326	17.35
762.506	17.16
762.686	16.64
762.866	16.98
763.046	17
763.225	17.05
763.405	17.41
763.585	17.72
763.765	17.63
763.945	17.51
764.124	17.5
764.304	17.8
764.484	18.48
764.664	19.06
764.843	18.97
765.023	19.74
765.203	19.42
765.382	18.63
765.562	18.91
765.741	19
765.921	19.09
766.101	18.76
766.28	19.12
766.46	18.84
766.639	19.2
766.819	19.03
766.998	18.34
767.178	19.25
767.357	19.52
767.537	18.42
767.716	18.8
767.896	18.89
768.075	19.09
768.254	18.43
768.434	17.94
768.613	16.66
768.792	16.84
768.972	17.15
769.151	16.7
769.33	17.27
769.51	17.69
769.689	17.5
769.868	17.73
770.047	17.54
770.226	17.95
770.406	18.59
770.585	20.2
770.764	19.86
770.943	19.2
771.122	19.03
771.301	18.38
771.48	18.1
771.66	18.06
771.839	17.9
772.018	17.65
772.197	17.46
772.376	16.86
772.555	16.23
772.734	16.67
772.913	17.61
773.092	16.93
773.271	17.26
773.449	18.01
773.628	18.48
773.807	18.2
773.986	18.17
774.165	18.12
774.344	17.71
774.523	18.82
774.701	19.58
774.88	19.68
775.059	21.23
775.238	21.13
775.417	20.74
775.595	20.12
775.774	19.77
775.953	19.73
776.131	19.27
776.31	20.16
776.489	18.63
776.667	18.25
776.846	17.9
777.025	17.12
777.203	16.56
777.382	15.97
777.56	15.91
777.739	16.88
777.917	17.49
778.096	18.19
778.274	18.63
778.453	19.5
778.631	19.57
778.81	19.74
778.988	19.63
779.166	20.72
779.345	22.04
779.523	23.15
779.702	22.38
779.88	22
780.058	22.07
780.237	21.43
780.415	21.02
780.593	21.2
780.771	20.7
780.95	21.61
781.128	21.49
781.306	20.47
781.484	20.4
781.662	21.35
781.841	21.37
782.019	20.45
782.197	19.96
782.375	19.33
782.553	19.27
782.731	19.37
782.909	18.57
783.087	18.26
783.265	19.12
783.443	19.67
783.621	19.15
783.799	19
783.977	19.15
784.155	19.62
784.333	20.5
784.511	19.89
784.689	21.16
784.867	20.23
785.045	20.03
785.223	19.13
785.4	18.63
785.578	18.25
785.756	18.6
785.934	19.07
786.112	19.24
786.289	17.69
786.467	17.07
786.645	15.73
786.823	15.71
787	14.69
787.178	14.43
787.356	13.78
787.533	13.58
787.711	12.69
787.889	12.92
788.066	12.43
788.244	13.37
788.421	14.23
788.599	14.28
788.776	14.48
788.954	15.58
789.131	15.94
789.309	17.06
789.486	18.41
789.664	19.15
789.841	19.42
790.019	18.94
790.196	19.7
790.373	19.15
790.551	19.31
790.728	20
790.906	19.4
791.083	18.89
791.26	17.29
791.437	16.5
791.615	16.69
791.792	16.51
791.969	17.32
792.146	16.57
792.324	16.13
792.501	16.4
792.678	16.58
792.855	17.25
793.032	18.01
793.209	19.17
793.387	19.41
793.564	19.16
793.741	19.25
793.918	19.94
794.095	20.96
794.272	21.02
794.449	20.92
794.626	21.71
794.803	20.7
794.98	21.19
795.157	21.15
795.334	20.72
795.511	22.19
795.688	21.86
795.864	20.69
796.041	19.5
796.218	20.24
796.395	20.15
796.572	19.37
796.749	21.47
796.925	21.34
797.102	20.87
797.279	21.3
797.456	18.96
797.632	19.73
797.809	20.73
797.986	21.41
798.162	22.03
798.339	21.8
798.516	21.82
798.692	20.53
798.869	20.12
799.046	20.35
799.222	20.09
799.399	21.64
799.575	20.6
799.752	21.1
799.928	20.16
800.105	19.91
800.281	21
800.458	20.9
800.634	21.22
800.811	21.45
800.987	21.95
801.163	22.43
801.34	21.7
801.516	22.12
801.692	21.32
801.869	22.71
802.045	22.05
802.221	21.23
802.398	21.55
802.574	20.78
802.75	20.37
802.926	19.89
803.103	19.35
803.279	20.04
803.455	20.11
803.631	21.44
803.807	22.28
803.983	22.19
804.16	22.46
804.336	21.16
804.512	21.42
804.688	22.05
804.864	22.24
805.04	22.64
805.216	22.96
805.392	23.38
805.568	21.86
805.744	21.06
805.92	21.87
806.096	20.93
806.272	21.66
806.448	22.05
806.623	22.53
806.799	22.55
806.975	21.53
807.151	20.67
807.327	18.95
807.503	18.79
807.678	17.45
807.854	17.31
808.03	19.04
808.206	18.57
808.381	18.51
808.557	18.12
808.733	17.75
808.908	17.66
809.084	18.19
809.26	18.57
809.435	18.31
809.611	18.97
809.787	18.6
809.962	17.89
810.138	18.13
810.313	18
810.489	18.01
810.664	17.73
810.84	19.83
811.015	19.07
811.191	19.94
811.366	21.74
811.542	22.42
811.717	22.62
811.892	23.32
812.068	23.91
812.243	22.7
812.419	22.88
812.594	22.87
812.769	21.33
812.944	21.95
813.12	21.03
813.295	20.69
813.47	20.64
813.645	21.55
813.821	20.7
813.996	20.67
814.171	22.66
814.346	21.59
814.521	22.82
814.697	23.73
814.872	24.28
815.047	25.79
815.222	24.3
815.397	22.67
815.572	22.23
815.747	22.43
815.922	23.24
816.097	23.44
816.272	23.99
816.447	23.42
816.622	23.49
816.797	23.73
816.972	22.42
817.147	24.33
817.322	26.14
817.496	25.21
817.671	24.7
817.846	23.76
818.021	22.32
818.196	22.59
818.371	22.31
818.545	22.1
818.72	21.02
818.895	21.09
819.069	19.45
819.244	18.61
819.419	18.8
819.594	19.21
819.768	19.12
819.943	20.07
820.117	19.23
820.292	19.55
820.467	18.53
820.641	18.54
820.816	18.78
820.99	18.78
821.165	18.91
821.339	18.94
821.514	18.94
821.688	18.85
821.863	18.67
822.037	18.66
822.212	18.26
822.386	18.45
822.56	18.34
822.735	18.26
822.909	18.21
823.084	18.2
823.258	18.17
823.432	17.88
823.606	17.8
823.781	17.64
823.955	17.81
824.129	18.23
824.303	18.59
824.478	18.67
824.652	18.98
824.826	19.42
825	19.17
825.174	18.72
825.348	19.22
825.523	19.72
825.697	20.18
825.871	20.31
826.045	20.13
826.219	19.72
826.393	19.77
826.567	19.26
826.741	18.82
826.915	18.79
827.089	19.51
827.263	19.3
827.437	18.96
827.611	18.58
827.784	18.63
827.958	18.4
828.132	18.07
828.306	18.56
828.48	18.72
828.654	19.05
828.827	18.49
829.001	18.14
829.175	18.12
829.349	17.95
829.522	18.55
829.696	18.28
829.87	18.16
830.044	19.08
830.217	18.82
830.391	19.3
830.565	19.74
830.738	21.38
830.912	21.48
831.085	21.23
831.259	22.23
831.432	21.56
831.606	20.91
831.779	21.57
831.953	20.75
832.126	20.11
832.3	19.72
832.473	19.5
832.647	19.1
832.82	20.07
832.994	19.26
833.167	18.76
833.34	18.39
833.514	18.77
833.687	18.29
833.86	18.65
834.034	19.42
834.207	19.45
834.38	19.35
834.553	19.62
834.727	18.9
834.9	20.29
835.073	20.33
835.246	20.7
835.419	20.42
835.593	21.48
835.766	21.57
835.939	20.99
836.112	21.36
836.285	20.95
836.458	20.96
836.631	20.28
836.804	19.66
836.977	20.45
837.15	20.69
837.323	22.41
837.496	21.9
837.669	22.34
837.842	22.61
838.015	22.54
838.188	22.52
838.361	23.25
838.533	22.82
838.706	22.64
838.879	21.06
839.052	20.88
839.225	19.7
839.398	19.49
839.57	18.94
839.743	17.92
839.916	18.32
840.088	19.27
840.261	19.41
840.434	20.84
840.607	20.74
840.779	22.04
840.952	22.94
841.124	21.93
841.297	20.42
841.47	20.51
841.642	22.29
841.815	22.4
841.987	22.47
842.16	22.21
842.332	20.98
842.505	21.09
842.677	19.7
842.85	19.47
843.022	21.39
843.194	23.29
843.367	23.68
843.539	22.81
843.712	21.55
843.884	21.04
844.056	19.34
844.229	22.78
844.401	23.94
844.573	27.31
844.745	27.05
844.918	24.81
845.09	20.73
845.262	23.94
845.434	23.07
845.606	22.92
845.779	23.63
845.951	24.59
846.123	21.55
846.295	20.92
846.467	20.54
846.639	21.83
846.811	23.07
846.983	28.14
847.155	23.77
847.327	25.1
847.499	25.01
847.671	26.21
847.843	26.41
848.015	27.04
848.187	28.1
848.359	22.45
848.531	22.37
848.703	20.12
848.875	19.09
849.047	16.74
849.218	16.47
849.39	19.51
849.562	19.38
849.734	17.23
849.905	17.63
850.077	17.89
850.249	21.52
850.421	21.77
850.592	23.22
850.764	23.74
850.936	27.67
851.107	29.64
851.279	28.49
851.451	29.72
851.622	32.06
851.794	28.89
851.965	28.76
852.137	25.2
852.308	20.24
852.48	19.96
852.651	20.37
852.823	21.03
852.994	19.62
853.166	15.75
853.337	13.2
853.509	14.52
853.68	15.77
853.851	13.95
854.023	18.03
854.194	23.31
854.365	23.32
854.537	22.04
854.708	19.9
854.879	21.02
855.05	25.03
855.222	28.05
855.393	25.75
855.564	23.08
855.735	21.22
855.906	20.36
856.078	21.65
856.249	20.43
856.42	19.51
856.591	23.25
856.762	22.28
856.933	21.3
857.104	21.26
857.275	21.89
857.446	25.25
857.617	27.31
857.788	27.83
857.959	28.1
858.13	31.39
858.301	35.17
858.472	34.37
858.643	36.26
858.814	35.37
858.985	35.48
859.155	32.4
859.326	32.72
859.497	33.85
859.668	35.43
859.839	36.53
860.009	36.49
860.18	31.93
860.351	29.24
860.522	23.76
860.692	25.38
860.863	26.26
861.034	28.18
861.204	29.65
861.375	26.83
861.546	26.95
861.716	24.67
861.887	22.98
862.057	21.41
862.228	24.76
862.398	26.34
862.569	24.74
862.739	26.35
862.91	28.56
863.08	25.02
863.251	23.94
863.421	24.59
863.592	25.14
863.762	24.31
863.932	29.21
864.103	23.36
864.273	25.42
864.443	26.69
864.614	22.66
864.784	20.2
864.954	20.89
865.125	22.56
865.295	22.58
865.465	24.08
865.635	26.64
865.805	25.08
865.976	29.89
866.146	30.14
866.316	32.35
866.486	29.28
866.656	29.59
866.826	32.48
866.996	33.9
867.166	33.39
867.336	28.63
867.506	30.59
867.676	28.56
867.846	27.25
868.016	22.47
868.186	21.13
868.356	22.76
868.526	27.85
868.696	21.33
868.866	23.83
869.036	23.09
869.206	26.2
869.376	28.76
869.545	32.43
869.715	30
869.885	31.24
870.055	32.86
870.224	31.7
870.394	27.31
870.564	29.93
870.734	26.68
870.903	28.46
871.073	24.74
871.243	20.06
871.412	16.58
871.582	22.9
871.751	22.06
871.921	20.61
872.091	20.6
872.26	22.9
872.43	21.73
872.599	21.38
872.769	21.57
872.938	23.24
873.108	27.97
873.277	29.25
873.446	28.1
873.616	30.51
873.785	30.03
873.955	33.63
874.124	33.43
874.293	33.77
874.463	33.75
874.632	29.99
874.801	33.48
874.971	31.72
875.14	32.3
875.309	34.2
875.478	31.3
875.647	30.09
875.817	30.32
875.986	26.93
876.155	29.96
876.324	33.33
876.493	38.86
876.662	35.34
876.831	38.19
877	39.32
877.17	36.1
877.339	36.51
877.508	36.53
877.677	34.1
877.846	35.3
878.015	34.8
878.184	33.14
878.352	29.59
878.521	29.86
878.69	26.28
878.859	27.42
879.028	24.18
879.197	26.2
879.366	26.07
879.534	27.45
879.703	28.14
879.872	28.56
880.041	28.18
880.21	28.59
880.378	27.36
880.547	26.04
880.716	24.07
880.884	25.93
881.053	25.01
881.222	25.13
881.39	23.63
881.559	22.55
881.727	22.08
881.896	21.33
882.065	20.72
882.233	20.15
882.402	19.87
882.57	19.59
882.739	18.38
882.907	18.78
883.076	18.09
883.244	18.78
883.412	19.29
883.581	19.04
883.749	19.95
883.918	20.25
884.086	20.43
884.254	21.73
884.423	22.32
884.591	23.94
884.759	23.52
884.927	24.16
885.096	23.59
885.264	23.6
885.432	23.94
885.6	23.15
885.769	22.62
885.937	22.89
886.105	22.3
886.273	24.65
886.441	23.78
886.609	22.84
886.777	21.72
886.945	22.32
887.113	22.5
887.281	24.91
887.449	27.56
887.617	26.87
887.785	29.43
887.953	30.76
888.121	27.36
888.289	29.17
888.457	29.04
888.625	30.97
888.793	32.35
888.961	34.01
889.129	30.85
889.296	31.38
889.464	34.99
889.632	33.86
889.8	30.05
889.967	31.63
890.135	26.53
