Data from 2938535_Reflection_3.txt Node
Date: Mon Jun 15 23:52:52 EDT 2015
User: robert
Spectrometer: USB4E03002
Autoset integration time: false
Trigger mode: 4
Integration Time (sec): 1.000000E-1
Scans to average: 10
Electric dark correction enabled: true
Nonlinearity correction enabled: false
Boxcar width: 6
Stray light correction enabled: false
XAxis mode: Wavelengths
Stop averaging: false
Number of Pixels in Spectrum: 3648
>>>>>Begin Spectral Data<<<<<
177.575	-93.8
177.794	-155.83
178.014	-260.93
178.233	-259.57
178.452	-1059.02
178.672	-452.86
178.891	140
179.11	-284.68
179.33	-308.6
179.549	-312.33
179.768	-286.18
179.987	-513.17
180.207	-185.81
180.426	-197
180.645	-213.53
180.864	-186.77
181.084	-200.39
181.303	-200.39
181.522	-210.14
181.741	-208.06
181.96	-179.89
182.179	-143.26
182.398	-186.16
182.618	-272.07
182.837	-157.86
183.056	-213.41
183.275	-115.64
183.494	-129.06
183.713	-176.76
183.932	-161.39
184.151	-266.28
184.37	-258.82
184.589	-132.43
184.808	-341.71
185.027	-623.85
185.246	-306.44
185.465	-212.64
185.684	-414.8
185.903	-427.41
186.122	-3025.53
186.341	7405
186.56	1749.38
186.779	3617.95
186.998	-718.31
187.216	3957.69
187.435	450.19
187.654	1025.24
187.873	5542.86
188.092	921.09
188.311	860.32
188.53	4162.5
188.748	-5560
188.967	-821.82
189.186	-2565.85
189.405	-1632.47
189.623	2586.54
189.842	898.76
190.061	11881.82
190.28	-1114.41
190.498	-2373.68
190.717	-1671.62
190.936	-8157.14
191.154	-2913.51
191.373	11100
191.592	3429.63
191.81	2821.62
192.029	1495.16
192.248	1420.63
192.466	-2979.17
192.685	-469.18
192.904	-644.63
193.122	1951.02
193.341	3018.52
193.559	385.26
193.778	632.47
193.996	381.61
194.215	468.9
194.433	448.49
194.652	503.64
194.87	819.32
195.089	456.23
195.307	455.52
195.526	355.88
195.744	378.28
195.963	916.39
196.181	997.69
196.399	4948.48
196.618	1209.92
196.836	-643.32
197.055	-542.13
197.273	-1044.17
197.491	-338.63
197.71	-640.93
197.928	-252.1
198.146	-257.98
198.365	-232.11
198.583	-475.71
198.801	31650
199.019	1254.74
199.238	1818.97
199.456	3612.5
199.674	669.54
199.892	767.95
200.111	3782.14
200.329	346.65
200.547	451.22
200.765	387.85
200.983	450
201.202	427.34
201.42	583.45
201.638	404.4
201.856	1471.67
202.074	804.35
202.292	535.2
202.51	425.45
202.728	440
202.946	272.96
203.165	251.81
203.383	259.56
203.601	245.65
203.819	188.44
204.037	248.42
204.255	227.57
204.473	370.79
204.691	275.75
204.909	192.76
205.127	242.63
205.345	236.24
205.562	266.46
205.78	652.9
205.998	342.12
206.216	254.89
206.434	245.25
206.652	231.27
206.87	215.66
207.088	207.01
207.306	247.26
207.523	262.03
207.741	387.92
207.959	290.94
208.177	369.18
208.395	303.83
208.612	252.81
208.83	392.26
209.048	432.35
209.266	404.78
209.483	387.26
209.701	572.92
209.919	1380
210.136	541.89
210.354	545.97
210.572	457.18
210.79	538.35
211.007	355.98
211.225	390.4
211.442	351.75
211.66	257.64
211.878	264.42
212.095	280.67
212.313	263.16
212.53	221.24
212.748	183.96
212.966	158.02
213.183	137.43
213.401	151.65
213.618	154.65
213.836	154.39
214.053	149.77
214.271	197.85
214.488	318.18
214.705	199.51
214.923	186.91
215.14	184.86
215.358	128.48
215.575	148.41
215.793	151.94
216.01	131.64
216.227	112.1
216.445	92.69
216.662	101.8
216.879	91.51
217.097	72.65
217.314	86.11
217.531	88.11
217.749	96.18
217.966	84.69
218.183	82.81
218.4	79.63
218.618	65.89
218.835	56.93
219.052	66.43
219.269	79.71
219.487	86.77
219.704	89.72
219.921	81.91
220.138	64.15
220.355	61.49
220.572	57.81
220.79	67.69
221.007	64.6
221.224	60.87
221.441	72.04
221.658	87.23
221.875	78.29
222.092	65.83
222.309	62.17
222.526	54.48
222.743	55.42
222.96	53.61
223.177	53.79
223.394	53.7
223.611	50.18
223.828	56.38
224.045	52.07
224.262	45.59
224.479	37.29
224.696	36.16
224.913	33.07
225.13	32.28
225.347	30.65
225.564	27.33
225.781	26.32
225.997	23.91
226.214	20.57
226.431	18.21
226.648	17.19
226.865	17.57
227.082	18.64
227.298	18.04
227.515	17.75
227.732	17.72
227.949	15.93
228.165	17.25
228.382	17.6
228.599	17.22
228.816	17.07
229.032	18.39
229.249	19.1
229.466	18.67
229.682	18.31
229.899	16.85
230.116	17.39
230.332	16.87
230.549	16.04
230.765	16.79
230.982	14.1
231.199	15.41
231.415	14.6
231.632	14.7
231.848	13.93
232.065	13.32
232.281	14.32
232.498	16.17
232.714	16.39
232.931	16.96
233.147	16.61
233.364	17.15
233.58	18.22
233.797	17.68
234.013	16.2
234.23	16.31
234.446	17.63
234.662	18.81
234.879	17.38
235.095	16.35
235.312	15.93
235.528	14.68
235.744	14.57
235.961	15.47
236.177	17.87
236.393	17.58
236.61	16.59
236.826	17.28
237.042	18.14
237.258	16.11
237.475	15.54
237.691	15.43
237.907	16.69
238.123	15.28
238.339	16.09
238.556	16.77
238.772	16
238.988	14.83
239.204	15.11
239.42	15.89
239.636	15.55
239.853	15.27
240.069	15.7
240.285	14.75
240.501	15.27
240.717	14.89
240.933	15.5
241.149	15.18
241.365	15.26
241.581	15.84
241.797	15.16
242.013	14.76
242.229	14.83
242.445	15.09
242.661	14.12
242.877	13.31
243.093	13.54
243.309	12.77
243.525	12.08
243.741	11.03
243.957	10.77
244.173	9.88
244.388	9.38
244.604	9.97
244.82	9.69
245.036	9.35
245.252	9.21
245.468	9.63
245.683	9.57
245.899	9.74
246.115	9.8
246.331	9.71
246.547	9.82
246.762	9.81
246.978	9.72
247.194	9.99
247.409	10.32
247.625	10.52
247.841	11.13
248.057	10.49
248.272	10.33
248.488	10.14
248.703	10.49
248.919	10.52
249.135	10.61
249.35	10.76
249.566	10.74
249.782	11.83
249.997	11.26
250.213	9.91
250.428	9.49
250.644	9.53
250.859	10.1
251.075	10.3
251.29	11.03
251.506	10.48
251.721	10.63
251.937	11.4
252.152	12.04
252.368	13.12
252.583	11.72
252.798	12.16
253.014	13.38
253.229	14
253.445	13.88
253.66	14.5
253.875	14.68
254.091	15.36
254.306	14.82
254.521	15.19
254.737	13.26
254.952	12.4
255.167	11.84
255.383	11.91
255.598	11.83
255.813	11.23
256.028	10.88
256.244	9.96
256.459	9.03
256.674	9.02
256.889	7.83
257.104	8.1
257.32	7.83
257.535	8.07
257.75	7.81
257.965	7.4
258.18	7.48
258.395	7.37
258.61	7.37
258.826	7.48
259.041	7.5
259.256	7.7
259.471	7.59
259.686	8.06
259.901	7.76
260.116	7.47
260.331	7.58
260.546	7.79
260.761	8.22
260.976	8.25
261.191	8.53
261.406	8.45
261.621	8.54
261.836	8.31
262.05	8.51
262.265	8.5
262.48	8.28
262.695	8.78
262.91	9.31
263.125	8.66
263.34	8.58
263.555	7.9
263.769	7.63
263.984	7.71
264.199	7.83
264.414	7.98
264.629	8.65
264.843	9.07
265.058	9.05
265.273	8.59
265.488	8.41
265.702	8.14
265.917	9.05
266.132	9.23
266.346	9.91
266.561	10.32
266.776	9.93
266.99	10.22
267.205	10.15
267.42	9.92
267.634	9.18
267.849	9.7
268.063	10.17
268.278	9.96
268.492	10
268.707	9.61
268.922	9.05
269.136	8.97
269.351	8.86
269.565	8.62
269.78	8.6
269.994	8.38
270.209	8.16
270.423	8.22
270.637	7.76
270.852	7.87
271.066	8.48
271.281	8.58
271.495	8.63
271.709	9.24
271.924	8.94
272.138	8.97
272.353	9.16
272.567	9.25
272.781	9.28
272.996	9.85
273.21	10
273.424	10.21
273.638	10.03
273.853	9.79
274.067	10.04
274.281	9.5
274.495	9.07
274.71	9.03
274.924	8.39
275.138	8.45
275.352	8.36
275.566	8.6
275.781	8.49
275.995	8.82
276.209	8.92
276.423	8.53
276.637	7.92
276.851	7.69
277.065	8.33
277.279	8.51
277.493	8.54
277.707	9.59
277.921	9.43
278.135	8.9
278.349	8.9
278.563	8.69
278.777	8.4
278.991	7.77
279.205	8.05
279.419	8.26
279.633	8.4
279.847	8.29
280.061	8.45
280.275	8.62
280.489	8.26
280.703	8.35
280.917	8.56
281.131	8.43
281.344	8.57
281.558	8.5
281.772	8.57
281.986	8.3
282.2	8.43
282.414	8.4
282.627	8.38
282.841	8.16
283.055	7.83
283.269	7.74
283.482	7.66
283.696	7.65
283.91	7.26
284.123	6.82
284.337	6.68
284.551	7.03
284.764	7.23
284.978	6.96
285.192	6.85
285.405	7.07
285.619	7.22
285.833	7.45
286.046	7.46
286.26	7.4
286.473	7.44
286.687	7.78
286.9	8.3
287.114	8.44
287.327	8.16
287.541	8.07
287.754	8.47
287.968	8.38
288.181	7.83
288.395	7.49
288.608	7.34
288.822	7.31
289.035	7.7
289.248	7.61
289.462	7.42
289.675	7.27
289.889	6.9
290.102	6.93
290.315	7.06
290.529	6.86
290.742	6.81
290.955	7.36
291.169	7.79
291.382	7.92
291.595	8.01
291.808	7.85
292.022	7.78
292.235	8.02
292.448	8.06
292.661	8.74
292.875	8.77
293.088	8.83
293.301	8.6
293.514	8.74
293.727	8.36
293.94	8.21
294.153	8.21
294.367	7.69
294.58	7.42
294.793	7.66
295.006	7.75
295.219	7.68
295.432	7.67
295.645	7.54
295.858	7.21
296.071	7.39
296.284	7.55
296.497	7.56
296.71	7.54
296.923	7.51
297.136	8.02
297.349	8.1
297.562	8
297.775	8.07
297.988	8.35
298.201	8.15
298.414	8.21
298.626	8.32
298.839	8.19
299.052	8.21
299.265	8.2
299.478	8.19
299.691	8.16
299.903	8.06
300.116	8.55
300.329	8.38
300.542	8.07
300.755	7.99
300.967	8.13
301.18	7.98
301.393	8.16
301.605	8.4
301.818	8.39
302.031	8.26
302.243	8.31
302.456	8.22
302.669	8.66
302.881	8.5
303.094	8.58
303.307	8.53
303.519	8.26
303.732	8.29
303.944	8.7
304.157	8.83
304.37	8.83
304.582	8.91
304.795	9.59
305.007	9.26
305.22	9.34
305.432	8.97
305.645	8.83
305.857	9.18
306.069	9.23
306.282	9.14
306.494	9.22
306.707	9.25
306.919	9.06
307.132	9.03
307.344	9.12
307.556	8.9
307.769	8.95
307.981	9.19
308.193	9.06
308.406	9.05
308.618	8.89
308.83	8.72
309.043	8.78
309.255	8.7
309.467	8.77
309.679	8.91
309.892	9.02
310.104	9.06
310.316	8.81
310.528	9.01
310.74	8.94
310.953	9.24
311.165	9.35
311.377	9.47
311.589	9.81
311.801	9.88
312.013	10.06
312.225	9.98
312.437	10.61
312.649	10.43
312.862	10.39
313.074	10.65
313.286	10.54
313.498	10.56
313.71	10.69
313.922	10.56
314.134	10.69
314.346	11.05
314.558	11.5
314.77	11.12
314.982	11.03
315.193	10.73
315.405	10.95
315.617	10.69
315.829	10.58
316.041	10.8
316.253	10.73
316.465	9.87
316.677	10.09
316.888	9.79
317.1	9.57
317.312	9.19
317.524	9.76
317.736	10.36
317.947	10.19
318.159	10.53
318.371	10.91
318.583	10.96
318.794	11.12
319.006	11.1
319.218	11.8
319.43	12.07
319.641	12.35
319.853	12.55
320.064	12.89
320.276	12.68
320.488	12.35
320.699	12.55
320.911	12.57
321.123	12.88
321.334	13.14
321.546	12.7
321.757	12.98
321.969	12.98
322.18	12.91
322.392	13.06
322.603	13.22
322.815	13.35
323.026	12.99
323.238	13.1
323.449	13.02
323.661	13.28
323.872	13.23
324.083	13.15
324.295	13.42
324.506	13.5
324.718	13.55
324.929	13.13
325.14	13.24
325.352	12.92
325.563	12.76
325.774	13.25
325.986	13.09
326.197	13.01
326.408	12.73
326.62	12.47
326.831	12.98
327.042	13.38
327.253	13.76
327.464	13.94
327.676	15.02
327.887	15.04
328.098	15.26
328.309	15.33
328.52	15.39
328.732	15.64
328.943	16.07
329.154	16.44
329.365	16.63
329.576	16.7
329.787	16.56
329.998	16.64
330.209	16.88
330.42	16.47
330.631	16.71
330.842	16.9
331.053	17.04
331.264	17.29
331.475	17.75
331.686	17.75
331.897	17.69
332.108	17.91
332.319	18.1
332.53	17.96
332.741	17.96
332.952	17.69
333.163	17.76
333.374	17.49
333.585	17.74
333.795	17.65
334.006	17.77
334.217	17.52
334.428	17.71
334.639	17.75
334.849	17.67
335.06	17.42
335.271	17.6
335.482	17.2
335.692	17.84
335.903	17.74
336.114	18.12
336.325	18.13
336.535	18.41
336.746	18.39
336.957	18.8
337.167	18.82
337.378	19.29
337.589	19.34
337.799	19.61
338.01	19.7
338.22	19.88
338.431	19.54
338.642	19.71
338.852	19.85
339.063	19.63
339.273	19.56
339.484	19.67
339.694	19.77
339.905	19.6
340.115	19.22
340.326	19.5
340.536	19.09
340.746	19.24
340.957	19.39
341.167	19.33
341.378	19.53
341.588	19.32
341.799	19.34
342.009	19.14
342.219	18.87
342.43	18.48
342.64	18.26
342.85	18.18
343.061	18.16
343.271	18.18
343.481	17.74
343.691	17.47
343.902	17.89
344.112	17.98
344.322	17.88
344.532	17.88
344.743	17.68
344.953	17.57
345.163	17.4
345.373	17.41
345.583	17.42
345.793	17.52
346.004	17.69
346.214	18.28
346.424	18.32
346.634	18.12
346.844	17.78
347.054	17.99
347.264	18.51
347.474	18.69
347.684	18.88
347.894	19.11
348.104	19.27
348.314	19.26
348.524	18.88
348.734	18.78
348.944	18.79
349.154	18.93
349.364	18.71
349.574	18.75
349.784	18.76
349.994	18.08
350.204	18.22
350.413	18.05
350.623	17.93
350.833	17.87
351.043	17.9
351.253	17.59
351.463	17.57
351.672	17.42
351.882	17.51
352.092	17.34
352.302	17.47
352.511	17.12
352.721	17.46
352.931	17.61
353.141	17.78
353.35	17.72
353.56	17.92
353.77	17.69
353.979	17.8
354.189	17.68
354.399	17.45
354.608	17.37
354.818	17.69
355.027	17.42
355.237	17.51
355.447	17.33
355.656	17.07
355.866	17.17
356.075	17.24
356.285	17.2
356.494	17.23
356.704	17.25
356.913	17.4
357.123	17.44
357.332	17.38
357.542	17.23
357.751	17.39
357.96	17.41
358.17	17.3
358.379	17.34
358.589	17.09
358.798	16.99
359.007	16.57
359.217	16.54
359.426	16.77
359.635	16.46
359.845	16.55
360.054	16.48
360.263	16.47
360.472	16.31
360.682	16.14
360.891	16
361.1	16.08
361.309	16.11
361.519	16.07
361.728	16.42
361.937	16.49
362.146	16.31
362.355	16.6
362.564	16.24
362.774	16.02
362.983	15.65
363.192	15.8
363.401	15.88
363.61	16.5
363.819	16.25
364.028	16.18
364.237	16.14
364.446	15.83
364.655	15.71
364.864	15.8
365.073	15.69
365.282	15.86
365.491	16.14
365.7	16.37
365.909	16.07
366.118	16.09
366.327	15.75
366.536	15.94
366.745	15.96
366.954	16.19
367.162	16.24
367.371	16.42
367.58	16.19
367.789	16.05
367.998	16.25
368.207	16.34
368.415	16.42
368.624	16.58
368.833	16.65
369.042	16.53
369.25	16.53
369.459	16.53
369.668	16.17
369.877	16.17
370.085	15.96
370.294	15.96
370.503	16.08
370.711	15.78
370.92	15.77
371.129	15.6
371.337	15.52
371.546	15.39
371.754	15.26
371.963	15.04
372.171	14.98
372.38	15.14
372.589	15.12
372.797	14.99
373.006	14.87
373.214	14.84
373.423	15.05
373.631	14.78
373.84	15.02
374.048	14.93
374.256	14.98
374.465	15.1
374.673	15
374.882	14.94
375.09	14.87
375.298	14.84
375.507	14.99
375.715	14.64
375.923	14.58
376.132	14.47
376.34	14.44
376.548	14.33
376.757	14.29
376.965	14.04
377.173	14
377.381	14.14
377.59	14.17
377.798	14.02
378.006	13.92
378.214	13.84
378.423	14.08
378.631	13.81
378.839	13.72
379.047	13.89
379.255	13.56
379.463	13.36
379.671	13.34
379.879	13.35
380.088	13.33
380.296	13.24
380.504	13.42
380.712	13.3
380.92	13.4
381.128	13.55
381.336	13.64
381.544	13.45
381.752	13.34
381.96	13.46
382.168	13.61
382.376	13.86
382.584	13.68
382.791	13.67
382.999	13.64
383.207	13.61
383.415	13.84
383.623	13.65
383.831	13.66
384.039	13.86
384.247	14.04
384.454	13.83
384.662	13.75
384.87	13.68
385.078	13.3
385.285	13.29
385.493	13.14
385.701	13.15
385.909	12.97
386.116	12.63
386.324	12.62
386.532	12.57
386.739	12.41
386.947	12.53
387.155	12.71
387.362	12.57
387.57	12.76
387.778	12.75
387.985	12.74
388.193	12.8
388.4	13.03
388.608	12.98
388.816	13.09
389.023	13.07
389.231	12.95
389.438	12.83
389.646	12.48
389.853	12.41
390.061	12.44
390.268	12.26
390.475	12.34
390.683	12.27
390.89	12.25
391.098	12.06
391.305	11.97
391.512	11.93
391.72	11.81
391.927	11.69
392.135	11.56
392.342	11.74
392.549	11.59
392.756	11.45
392.964	11.39
393.171	11.24
393.378	11.2
393.586	11.04
393.793	10.91
394	10.93
394.207	10.86
394.414	10.75
394.622	10.78
394.829	10.87
395.036	10.88
395.243	11.02
395.45	11.08
395.657	11
395.864	11.13
396.072	11.1
396.279	11.14
396.486	11.26
396.693	11.1
396.9	11.22
397.107	11.54
397.314	11.51
397.521	11.27
397.728	10.98
397.935	10.95
398.142	11.05
398.349	10.98
398.556	11.02
398.763	10.92
398.97	10.82
399.177	10.62
399.383	10.82
399.59	10.8
399.797	10.62
400.004	10.71
400.211	10.94
400.418	10.97
400.625	10.88
400.831	10.75
401.038	10.85
401.245	10.66
401.452	10.59
401.658	10.69
401.865	10.69
402.072	10.62
402.279	10.5
402.485	10.31
402.692	10.19
402.899	10.17
403.105	10.07
403.312	10.01
403.519	10.03
403.725	10.02
403.932	10.09
404.138	10.09
404.345	10.01
404.552	10.11
404.758	10.01
404.965	9.89
405.171	10.1
405.378	10.17
405.584	10.19
405.791	10.25
405.997	10.4
406.204	10.39
406.41	10.43
406.617	10.33
406.823	10.28
407.029	10.24
407.236	10.05
407.442	10.21
407.649	10.1
407.855	9.92
408.061	9.79
408.268	9.75
408.474	9.71
408.68	9.77
408.887	9.8
409.093	9.68
409.299	9.63
409.505	9.67
409.712	9.59
409.918	9.5
410.124	9.38
410.33	9.53
410.537	9.63
410.743	9.66
410.949	9.57
411.155	9.54
411.361	9.12
411.567	8.92
411.773	8.77
411.98	8.93
412.186	8.95
412.392	8.91
412.598	8.96
412.804	8.92
413.01	8.89
413.216	8.92
413.422	8.89
413.628	8.91
413.834	8.88
414.04	8.89
414.246	8.94
414.452	8.98
414.658	8.83
414.864	8.99
415.07	9.16
415.275	9.17
415.481	9.22
415.687	9.21
415.893	9.08
416.099	9.04
416.305	9.04
416.511	9.04
416.716	9.09
416.922	9.1
417.128	9.16
417.334	9.15
417.539	8.93
417.745	8.88
417.951	8.88
418.157	8.82
418.362	8.81
418.568	8.75
418.774	8.7
418.979	8.57
419.185	8.5
419.391	8.54
419.596	8.49
419.802	8.46
420.008	8.07
420.213	8.09
420.419	7.99
420.624	7.9
420.83	7.9
421.035	7.88
421.241	7.88
421.446	7.89
421.652	7.93
421.857	7.86
422.063	7.75
422.268	7.68
422.474	7.6
422.679	8.03
422.885	7.97
423.09	7.94
423.295	7.95
423.501	7.89
423.706	7.76
423.911	7.76
424.117	7.65
424.322	7.63
424.527	7.7
424.733	7.65
424.938	7.68
425.143	7.69
425.349	7.61
425.554	7.74
425.759	7.74
425.964	7.73
426.169	7.8
426.375	7.91
426.58	7.93
426.785	8.08
426.99	8.12
427.195	8.05
427.4	8.18
427.605	8.28
427.811	8.28
428.016	8.3
428.221	8.08
428.426	8.11
428.631	8.14
428.836	8.13
429.041	8.05
429.246	8.03
429.451	7.96
429.656	7.89
429.861	8.01
430.066	7.91
430.271	7.88
430.476	7.83
430.681	7.76
430.886	7.87
431.09	7.87
431.295	7.8
431.5	7.72
431.705	7.78
431.91	7.74
432.115	7.83
432.32	7.84
432.524	7.82
432.729	7.86
432.934	7.81
433.139	7.81
433.343	7.71
433.548	7.61
433.753	7.74
433.958	7.77
434.162	7.81
434.367	7.87
434.572	7.83
434.776	7.84
434.981	7.75
435.186	7.76
435.39	7.73
435.595	7.69
435.799	7.79
436.004	7.86
436.209	7.91
436.413	7.73
436.618	7.69
436.822	7.62
437.027	7.54
437.231	7.5
437.436	7.36
437.64	7.55
437.845	7.55
438.049	7.6
438.253	7.64
438.458	7.54
438.662	7.6
438.867	7.62
439.071	7.54
439.275	7.65
439.48	7.67
439.684	7.66
439.888	7.78
440.093	7.77
440.297	7.71
440.501	7.71
440.706	7.75
440.91	7.73
441.114	7.77
441.318	7.71
441.523	7.7
441.727	7.87
441.931	7.79
442.135	7.77
442.339	7.84
442.543	7.84
442.748	7.87
442.952	7.84
443.156	7.8
443.36	7.74
443.564	7.72
443.768	7.67
443.972	7.79
444.176	7.79
444.38	7.71
444.584	7.63
444.788	7.63
444.992	7.58
445.196	7.56
445.4	7.48
445.604	7.43
445.808	7.35
446.012	7.22
446.216	7.13
446.42	7.15
446.624	6.98
446.828	6.95
447.032	6.93
447.235	6.97
447.439	6.91
447.643	6.9
447.847	6.83
448.051	6.93
448.254	6.96
448.458	6.91
448.662	7.04
448.866	7.11
449.069	7.05
449.273	7.09
449.477	7.04
449.681	7.12
449.884	7.08
450.088	7.13
450.292	7.1
450.495	7.18
450.699	7.17
450.902	7.14
451.106	7.26
451.31	7.28
451.513	7.34
451.717	7.46
451.92	7.45
452.124	7.45
452.327	7.38
452.531	7.48
452.734	7.49
452.938	7.53
453.141	7.34
453.345	7.3
453.548	7.27
453.752	7.29
453.955	7.18
454.158	7.17
454.362	7.08
454.565	7.14
454.769	7.23
454.972	7.21
455.175	7.12
455.379	7.05
455.582	7.02
455.785	7.16
455.988	7.16
456.192	7.13
456.395	7.05
456.598	7.1
456.801	7.12
457.005	7.12
457.208	7.03
457.411	6.95
457.614	6.94
457.817	6.9
458.021	6.94
458.224	6.88
458.427	6.88
458.63	6.92
458.833	6.92
459.036	6.97
459.239	6.94
459.442	6.95
459.645	6.95
459.848	7.03
460.051	7.11
460.254	7.13
460.457	7.25
460.66	7.34
460.863	7.38
461.066	7.33
461.269	7.29
461.472	7.36
461.675	7.31
461.878	7.3
462.081	7.26
462.284	7.24
462.486	7.26
462.689	7.21
462.892	7.24
463.095	7.24
463.298	7.16
463.5	7.26
463.703	7.24
463.906	7.39
464.109	7.3
464.311	7.38
464.514	7.54
464.717	7.64
464.92	7.79
465.122	7.82
465.325	7.85
465.528	7.86
465.73	7.69
465.933	7.73
466.135	7.63
466.338	7.66
466.541	7.52
466.743	7.53
466.946	7.42
467.148	7.4
467.351	7.38
467.553	7.26
467.756	7.18
467.958	7.13
468.161	7.09
468.363	7.19
468.566	7.2
468.768	7.29
468.971	7.26
469.173	7.27
469.375	7.33
469.578	7.38
469.78	7.4
469.983	7.36
470.185	7.46
470.387	7.44
470.59	7.51
470.792	7.58
470.994	7.55
471.196	7.53
471.399	7.5
471.601	7.56
471.803	7.63
472.005	7.65
472.208	7.64
472.41	7.62
472.612	7.56
472.814	7.45
473.016	7.56
473.218	7.51
473.421	7.49
473.623	7.58
473.825	7.62
474.027	7.63
474.229	7.7
474.431	7.77
474.633	7.8
474.835	7.83
475.037	7.84
475.239	7.94
475.441	8.02
475.643	7.87
475.845	7.89
476.047	7.92
476.249	7.85
476.451	7.91
476.653	7.95
476.855	7.87
477.057	7.71
477.258	7.7
477.46	7.8
477.662	7.76
477.864	7.68
478.066	7.59
478.268	7.69
478.469	7.67
478.671	7.56
478.873	7.55
479.075	7.39
479.276	7.34
479.478	7.31
479.68	7.43
479.882	7.4
480.083	7.34
480.285	7.35
480.487	7.36
480.688	7.47
480.89	7.4
481.091	7.42
481.293	7.45
481.495	7.38
481.696	7.37
481.898	7.33
482.099	7.3
482.301	7.22
482.502	7.17
482.704	7.14
482.905	7.07
483.107	7
483.308	6.91
483.51	6.89
483.711	6.86
483.913	6.82
484.114	6.85
484.315	6.87
484.517	6.87
484.718	6.86
484.92	6.88
485.121	6.95
485.322	6.96
485.524	7.02
485.725	7.07
485.926	7.08
486.127	7.07
486.329	7.07
486.53	7.06
486.731	7.02
486.932	7
487.134	6.96
487.335	6.99
487.536	6.98
487.737	6.97
487.938	6.95
488.139	6.94
488.341	6.98
488.542	6.99
488.743	7.07
488.944	7.09
489.145	7.13
489.346	7.22
489.547	7.21
489.748	7.3
489.949	7.3
490.15	7.3
490.351	7.27
490.552	7.3
490.753	7.29
490.954	7.28
491.155	7.3
491.356	7.26
491.557	7.27
491.758	7.24
491.959	7.19
492.159	7.21
492.36	7.19
492.561	7.27
492.762	7.35
492.963	7.45
493.164	7.51
493.364	7.54
493.565	7.61
493.766	7.65
493.967	7.65
494.167	7.72
494.368	7.8
494.569	7.85
494.769	7.94
494.97	7.99
495.171	7.98
495.371	7.97
495.572	7.89
495.773	7.9
495.973	7.93
496.174	7.91
496.375	7.98
496.575	8.06
496.776	8.06
496.976	8.12
497.177	8.13
497.377	8.16
497.578	8.11
497.778	8.15
497.979	8.24
498.179	8.36
498.38	8.37
498.58	8.44
498.78	8.51
498.981	8.57
499.181	8.58
499.382	8.63
499.582	8.65
499.782	8.74
499.983	8.73
500.183	8.75
500.383	8.66
500.584	8.66
500.784	8.73
500.984	8.75
501.184	8.84
501.385	8.86
501.585	8.77
501.785	8.81
501.985	8.86
502.185	8.88
502.386	8.83
502.586	8.88
502.786	8.95
502.986	9.13
503.186	9.17
503.386	9.13
503.586	9.21
503.786	9.21
503.987	9.24
504.187	9.34
504.387	9.38
504.587	9.38
504.787	9.51
504.987	9.57
505.187	9.54
505.387	9.6
505.587	9.67
505.786	9.73
505.986	9.79
506.186	9.81
506.386	9.85
506.586	9.82
506.786	9.85
506.986	9.86
507.186	9.87
507.386	9.78
507.585	9.78
507.785	9.87
507.985	9.89
508.185	9.88
508.384	9.88
508.584	9.89
508.784	9.89
508.984	9.95
509.183	10.01
509.383	10.02
509.583	10.16
509.782	10.27
509.982	10.39
510.182	10.44
510.381	10.45
510.581	10.48
510.781	10.53
510.98	10.6
511.18	10.73
511.379	10.8
511.579	10.89
511.778	10.98
511.978	11.07
512.177	11.05
512.377	10.99
512.576	10.98
512.776	11.12
512.975	11.2
513.175	11.32
513.374	11.37
513.573	11.35
513.773	11.4
513.972	11.48
514.172	11.59
514.371	11.73
514.57	11.85
514.77	11.91
514.969	12.02
515.168	12.12
515.367	12.08
515.567	12.12
515.766	12.15
515.965	12.25
516.164	12.32
516.364	12.3
516.563	12.33
516.762	12.26
516.961	12.26
517.16	12.24
517.359	12.28
517.559	12.35
517.758	12.38
517.957	12.52
518.156	12.57
518.355	12.61
518.554	12.59
518.753	12.68
518.952	12.8
519.151	12.84
519.35	12.88
519.549	12.94
519.748	13.07
519.947	13.07
520.146	13.15
520.345	13.25
520.544	13.33
520.743	13.4
520.942	13.47
521.141	13.59
521.339	13.59
521.538	13.56
521.737	13.64
521.936	13.74
522.135	13.78
522.333	13.79
522.532	13.96
522.731	14.04
522.93	14.06
523.129	13.97
523.327	14
523.526	14.03
523.725	14.08
523.923	14.13
524.122	14.22
524.321	14.24
524.519	14.28
524.718	14.33
524.917	14.32
525.115	14.33
525.314	14.31
525.512	14.34
525.711	14.42
525.909	14.45
526.108	14.49
526.306	14.51
526.505	14.52
526.703	14.5
526.902	14.5
527.1	14.5
527.299	14.48
527.497	14.51
527.696	14.5
527.894	14.49
528.092	14.52
528.291	14.53
528.489	14.57
528.688	14.53
528.886	14.56
529.084	14.6
529.283	14.7
529.481	14.78
529.679	14.88
529.877	14.98
530.076	15.08
530.274	15.19
530.472	15.32
530.67	15.39
530.869	15.47
531.067	15.47
531.265	15.62
531.463	15.64
531.661	15.7
531.859	15.7
532.057	15.72
532.255	15.7
532.454	15.71
532.652	15.75
532.85	15.78
533.048	15.81
533.246	15.85
533.444	15.88
533.642	15.97
533.84	16.02
534.038	16.07
534.236	16.11
534.434	16.1
534.632	16.09
534.83	16.16
535.027	16.25
535.225	16.26
535.423	16.26
535.621	16.25
535.819	16.24
536.017	16.29
536.215	16.35
536.412	16.3
536.61	16.27
536.808	16.29
537.006	16.45
537.203	16.59
537.401	16.6
537.599	16.62
537.797	16.69
537.994	16.81
538.192	16.86
538.39	16.91
538.587	16.94
538.785	16.95
538.983	16.95
539.18	16.93
539.378	16.94
539.575	16.84
539.773	16.82
539.97	16.83
540.168	16.83
540.366	16.81
540.563	16.79
540.761	16.77
540.958	16.84
541.155	16.84
541.353	16.83
541.55	16.9
541.748	16.99
541.945	17.04
542.143	17.15
542.34	17.21
542.537	17.34
542.735	17.42
542.932	17.5
543.129	17.57
543.327	17.69
543.524	17.7
543.721	17.75
543.919	17.84
544.116	17.93
544.313	17.98
544.51	18.05
544.708	18.04
544.905	18.05
545.102	18.03
545.299	18.13
545.496	18.1
545.693	18.08
545.891	18.06
546.088	18.1
546.285	18.17
546.482	18.21
546.679	18.19
546.876	18.29
547.073	18.38
547.27	18.48
547.467	18.63
547.664	18.75
547.861	18.74
548.058	18.97
548.255	19.15
548.452	19.26
548.649	19.34
548.846	19.38
549.043	19.52
549.24	19.62
549.437	19.62
549.633	19.64
549.83	19.73
550.027	19.72
550.224	19.71
550.421	19.69
550.618	19.75
550.814	19.67
551.011	19.61
551.208	19.68
551.405	19.7
551.601	19.69
551.798	19.69
551.995	19.75
552.191	19.72
552.388	19.73
552.585	19.6
552.781	19.7
552.978	19.74
553.175	19.74
553.371	19.76
553.568	20
553.764	19.94
553.961	19.94
554.157	19.95
554.354	20.06
554.55	20.04
554.747	20.1
554.943	20.19
555.14	20.3
555.336	20.31
555.533	20.44
555.729	20.54
555.926	20.74
556.122	20.62
556.318	20.78
556.515	20.83
556.711	20.84
556.907	20.87
557.104	20.96
557.3	21.01
557.496	21.03
557.693	21.26
557.889	21.27
558.085	21.35
558.281	21.3
558.478	21.18
558.674	21.19
558.87	21.32
559.066	21.47
559.262	21.58
559.459	21.6
559.655	21.72
559.851	21.8
560.047	21.85
560.243	21.76
560.439	21.82
560.635	21.79
560.831	21.79
561.027	21.82
561.223	21.91
561.419	21.88
561.615	21.89
561.811	21.99
562.007	22.03
562.203	21.96
562.399	22
562.595	22.06
562.791	22.2
562.987	22.22
563.183	22.25
563.379	22.39
563.575	22.61
563.771	22.77
563.966	22.8
564.162	22.81
564.358	22.75
564.554	22.67
564.75	22.67
564.945	22.61
565.141	22.59
565.337	22.55
565.533	22.53
565.728	22.52
565.924	22.53
566.12	22.51
566.315	22.5
566.511	22.51
566.707	22.48
566.902	22.58
567.098	22.76
567.293	22.79
567.489	22.83
567.684	22.87
567.88	22.97
568.076	23.07
568.271	23.09
568.467	23.06
568.662	23.09
568.858	23.04
569.053	23.02
569.248	23.01
569.444	22.95
569.639	22.95
569.835	23
570.03	23.05
570.225	23.06
570.421	22.98
570.616	23.01
570.812	23.02
571.007	23.16
571.202	23.21
571.397	23.31
571.593	23.34
571.788	23.34
571.983	23.42
572.178	23.48
572.374	23.41
572.569	23.47
572.764	23.46
572.959	23.4
573.154	23.37
573.35	23.44
573.545	23.29
573.74	23.26
573.935	23.21
574.13	23.17
574.325	23.22
574.52	23.27
574.715	23.15
574.91	23.34
575.105	23.44
575.3	23.47
575.495	23.68
575.69	23.79
575.885	23.88
576.08	23.97
576.275	23.99
576.47	24
576.665	24.12
576.86	24.18
577.055	24.23
577.25	24.39
577.444	24.41
577.639	24.27
577.834	24.36
578.029	24.26
578.224	24.3
578.418	24.34
578.613	24.34
578.808	24.23
579.003	24.3
579.197	24.43
579.392	24.48
579.587	24.51
579.781	24.54
579.976	24.51
580.171	24.63
580.365	24.67
580.56	24.8
580.755	24.72
580.949	24.69
581.144	24.82
581.338	24.99
581.533	25
581.727	24.95
581.922	25.07
582.116	24.96
582.311	24.93
582.505	25.01
582.7	25.15
582.894	25.04
583.089	24.99
583.283	25.01
583.478	25.09
583.672	25.09
583.866	25.2
584.061	25.29
584.255	25.3
584.449	25.36
584.644	25.42
584.838	25.5
585.032	25.43
585.226	25.34
585.421	25.38
585.615	25.56
585.809	25.75
586.003	25.83
586.198	25.94
586.392	25.83
586.586	25.78
586.78	25.89
586.974	25.8
587.168	25.76
587.363	25.74
587.557	25.74
587.751	25.84
587.945	25.97
588.139	25.98
588.333	25.93
588.527	25.82
588.721	25.71
588.915	25.7
589.109	25.83
589.303	25.72
589.497	25.85
589.691	25.99
589.885	26.03
590.079	26.1
590.273	26.07
590.466	25.99
590.66	25.97
590.854	25.91
591.048	25.94
591.242	25.94
591.436	26.08
591.629	26.08
591.823	26.23
592.017	26.21
592.211	26.17
592.404	26.13
592.598	26.24
592.792	26.32
592.986	26.4
593.179	26.33
593.373	26.4
593.567	26.52
593.76	26.63
593.954	26.63
594.147	26.64
594.341	26.66
594.535	26.61
594.728	26.58
594.922	26.63
595.115	26.53
595.309	26.55
595.502	26.64
595.696	26.72
595.889	26.67
596.083	26.68
596.276	26.66
596.47	26.55
596.663	26.51
596.856	26.5
597.05	26.58
597.243	26.7
597.437	26.75
597.63	26.93
597.823	26.91
598.017	26.96
598.21	27.01
598.403	27.19
598.596	27.26
598.79	27.42
598.983	27.51
599.176	27.64
599.369	27.59
599.563	27.59
599.756	27.63
599.949	27.7
600.142	27.63
600.335	27.66
600.528	27.57
600.722	27.54
600.915	27.64
601.108	27.53
601.301	27.44
601.494	27.57
601.687	27.57
601.88	27.53
602.073	27.4
602.266	27.39
602.459	27.35
602.652	27.4
602.845	27.33
603.038	27.38
603.231	27.37
603.424	27.29
603.617	27.37
603.809	27.36
604.002	27.44
604.195	27.39
604.388	27.55
604.581	27.74
604.774	27.61
604.966	27.58
605.159	27.45
605.352	27.63
605.545	27.62
605.737	27.66
605.93	27.63
606.123	27.56
606.316	27.67
606.508	27.7
606.701	27.7
606.894	27.77
607.086	27.72
607.279	27.83
607.471	27.95
607.664	28.17
607.857	28.02
608.049	28
608.242	27.95
608.434	27.98
608.627	28.03
608.819	27.95
609.012	27.8
609.204	27.82
609.397	27.77
609.589	27.77
609.782	27.89
609.974	27.9
610.166	27.74
610.359	27.84
610.551	27.85
610.743	27.95
610.936	28.04
611.128	28.1
611.32	28.14
611.513	28.17
611.705	28.22
611.897	28.5
612.09	28.47
612.282	28.52
612.474	28.59
612.666	28.88
612.858	28.97
613.051	28.92
613.243	28.95
613.435	28.94
613.627	28.98
613.819	29.64
614.011	29.83
614.203	29.81
614.395	29.48
614.588	29.63
614.78	29.58
614.972	29.73
615.164	29.5
615.356	29.48
615.548	29.65
615.74	29.69
615.932	29.76
616.124	29.77
616.315	29.31
616.507	29.3
616.699	29.4
616.891	29.45
617.083	29.45
617.275	29.41
617.467	29.35
617.659	29.57
617.85	29.6
618.042	29.67
618.234	29.58
618.426	29.48
618.618	29.43
618.809	29.2
619.001	29.28
619.193	29.27
619.384	29.21
619.576	29.04
619.768	29.07
619.959	28.84
620.151	28.73
620.343	28.78
620.534	28.68
620.726	28.87
620.917	28.95
621.109	29.07
621.301	29.24
621.492	29.2
621.684	29.14
621.875	29.13
622.067	29.3
622.258	29.44
622.45	29.54
622.641	29.71
622.832	29.71
623.024	29.68
623.215	29.59
623.407	29.63
623.598	29.53
623.789	29.37
623.981	29.36
624.172	29.58
624.363	29.72
624.555	29.62
624.746	29.46
624.937	29.37
625.129	29.11
625.32	29.15
625.511	29.24
625.702	29.2
625.893	29.12
626.085	29.21
626.276	29.29
626.467	29.14
626.658	29.04
626.849	28.98
627.04	29
627.231	29.03
627.422	29.07
627.614	29.16
627.805	29.15
627.996	29.05
628.187	28.99
628.378	29.04
628.569	29.05
628.76	29.07
628.951	29.15
629.142	29.17
629.332	29.17
629.523	29.11
629.714	29.2
629.905	29.23
630.096	29.22
630.287	29.02
630.478	29.1
630.669	29.32
630.859	29.37
631.05	29.31
631.241	29.27
631.432	29.27
631.623	29.24
631.813	29.12
632.004	29.22
632.195	29.2
632.385	29.37
632.576	29.35
632.767	29.49
632.957	29.47
633.148	29.33
633.339	29.38
633.529	29.22
633.72	29.18
633.91	29.15
634.101	29.19
634.292	29.25
634.482	29.39
634.673	29.29
634.863	29.2
635.054	29.32
635.244	29.25
635.435	29.25
635.625	29.33
635.815	29.25
636.006	29.6
636.196	29.81
636.387	29.97
636.577	29.85
636.767	29.95
636.958	29.92
637.148	30.23
637.338	30.11
637.529	30.08
637.719	30.21
637.909	30.2
638.099	30.13
638.29	30.07
638.48	30.11
638.67	30.19
638.86	30.17
639.05	30.34
639.241	30.46
639.431	30.23
639.621	30.16
639.811	30.26
640.001	30.25
640.191	30.16
640.381	30.38
640.571	30.45
640.761	30.43
640.951	30.43
641.141	30.17
641.331	30.36
641.521	30.45
641.711	30.43
641.901	30.54
642.091	30.34
642.281	30.29
642.471	30.64
642.661	30.8
642.851	30.61
643.041	30.79
643.231	30.85
643.42	30.77
643.61	30.83
643.8	30.66
643.99	30.43
644.18	30.35
644.369	30.54
644.559	30.74
644.749	30.61
644.939	30.25
645.128	30.24
645.318	30.5
645.508	30.4
645.697	30.59
645.887	30.65
646.076	30.77
646.266	30.84
646.456	31.14
646.645	31.17
646.835	31.03
647.024	31.09
647.214	31.43
647.403	31.49
647.593	31.49
647.782	31.37
647.972	31.38
648.161	31.24
648.351	31.15
648.54	31.18
648.73	30.99
648.919	30.69
649.108	30.81
649.298	30.95
649.487	31
649.677	30.92
649.866	30.96
650.055	30.93
650.244	30.81
650.434	30.82
650.623	30.84
650.812	30.79
651.002	30.77
651.191	31.14
651.38	31.23
651.569	31.11
651.758	31
651.947	30.96
652.137	31.02
652.326	30.96
652.515	30.9
652.704	31
652.893	30.9
653.082	30.95
653.271	31.01
653.46	31.06
653.649	30.85
653.838	30.86
654.027	30.98
654.216	31.22
654.405	31.16
654.594	31.09
654.783	31.08
654.972	31.19
655.161	31.01
655.35	31.14
655.539	31.07
655.728	31.1
655.916	30.9
656.105	30.92
656.294	31.01
656.483	31.08
656.672	30.89
656.86	30.8
657.049	30.73
657.238	30.79
657.427	30.78
657.615	30.85
657.804	30.65
657.993	30.69
658.181	30.61
658.37	30.56
658.559	30.67
658.747	30.55
658.936	30.45
659.125	30.5
659.313	30.52
659.502	30.57
659.69	30.64
659.879	30.75
660.067	30.82
660.256	31.15
660.444	31.17
660.633	31.28
660.821	31.58
661.01	31.35
661.198	31.43
661.387	31.5
661.575	31.64
661.763	31.62
661.952	31.62
662.14	31.43
662.328	31.51
662.517	31.52
662.705	31.38
662.893	31.5
663.082	31.56
663.27	31.43
663.458	31.65
663.646	32.03
663.834	32.04
664.023	31.85
664.211	32.05
664.399	31.9
664.587	32.11
664.775	31.9
664.963	32.08
665.152	32.22
665.34	32.02
665.528	32.07
665.716	32.13
665.904	32.1
666.092	31.89
666.28	31.86
666.468	32.03
666.656	32.13
666.844	32.64
667.032	32.56
667.22	32.68
667.408	32.64
667.596	32.61
667.784	32.85
667.971	32.8
668.159	32.83
668.347	32.71
668.535	32.56
668.723	32.62
668.911	32.57
669.098	32.43
669.286	32.24
669.474	32.4
669.662	32.33
669.849	32.54
670.037	32.6
670.225	32.5
670.413	32.55
670.6	32.53
670.788	32.57
670.976	32.55
671.163	32.4
671.351	32.43
671.538	32.52
671.726	32.4
671.913	32.37
672.101	32.3
672.289	31.83
672.476	31.76
672.664	31.9
672.851	31.74
673.039	31.89
673.226	32.02
673.413	32.05
673.601	31.95
673.788	32.02
673.976	31.86
674.163	31.67
674.35	31.54
674.538	31.42
674.725	31.58
674.912	31.51
675.1	31.24
675.287	31.33
675.474	31.36
675.662	31.48
675.849	31.68
676.036	31.95
676.223	31.86
676.411	31.91
676.598	32.14
676.785	32.09
676.972	32.22
677.159	32.15
677.346	32.16
677.533	32.16
677.721	32.19
677.908	32.28
678.095	32.23
678.282	32.11
678.469	32.05
678.656	32.07
678.843	32.3
679.03	32.31
679.217	32.18
679.404	32.21
679.591	32.33
679.778	32.2
679.964	32.29
680.151	32.21
680.338	31.94
680.525	31.79
680.712	31.76
680.899	31.92
681.086	31.67
681.272	31.53
681.459	31.6
681.646	31.75
681.833	31.76
682.02	31.73
682.206	31.75
682.393	31.82
682.58	32.03
682.766	32.32
682.953	32.52
683.14	33.25
683.326	33.37
683.513	33.71
683.7	33.54
683.886	33.25
684.073	33.53
684.259	33.65
684.446	33.62
684.632	33.88
684.819	33.78
685.005	33.81
685.192	33.75
685.378	33.65
685.565	33.01
685.751	32.87
685.938	32.94
686.124	33.03
686.31	33.48
686.497	33.44
686.683	33.3
686.87	33.41
687.056	33.39
687.242	33.46
687.429	33.25
687.615	33.36
687.801	33.46
687.987	33.3
688.174	33.29
688.36	33.17
688.546	33.53
688.732	33.21
688.918	33
689.105	33.29
689.291	33.52
689.477	33.7
689.663	33.71
689.849	33.89
690.035	33.84
690.221	33.98
690.407	34.1
690.593	34.08
690.779	34.22
690.965	34.12
691.151	34.46
691.337	34.83
691.523	34.74
691.709	34.57
691.895	34.37
692.081	34.37
692.267	34.43
692.453	34.45
692.639	34.18
692.825	34.09
693.011	34.19
693.196	33.95
693.382	33.59
693.568	33.37
693.754	33.19
693.94	33.24
694.125	33.18
694.311	33.05
694.497	33.1
694.682	33.11
694.868	32.95
695.054	33.01
695.239	33.09
695.425	32.97
695.611	32.99
695.796	33.09
695.982	32.99
696.168	32.96
696.353	32.84
696.539	32.86
696.724	32.91
696.91	32.84
697.095	32.55
697.281	32.39
697.466	32.52
697.652	32.5
697.837	32.33
698.023	32.45
698.208	32.45
698.393	32.69
698.579	32.48
698.764	32.47
698.949	32.55
699.135	32.6
699.32	32.5
699.505	32.55
699.691	32.62
699.876	32.52
700.061	32.43
700.246	32.77
700.432	32.56
700.617	32.2
700.802	32.1
700.987	32.39
701.172	32.32
701.358	32.1
701.543	32.06
701.728	32.12
701.913	32.39
702.098	32.67
702.283	32.51
702.468	32.57
702.653	32.53
702.838	32.86
703.023	33.26
703.208	33.36
703.393	33.82
703.578	34.27
703.763	34.37
703.948	34.41
704.133	34.61
704.318	34.48
704.503	34.19
704.688	34.49
704.873	34.74
705.057	34.59
705.242	34.31
705.427	34.22
705.612	34.29
705.797	33.85
705.981	33.87
706.166	33.76
706.351	33.5
706.536	33.18
706.72	32.97
706.905	33.01
707.09	32.87
707.274	32.99
707.459	33.25
707.644	33.45
707.828	33.47
708.013	32.94
708.197	33.04
708.382	32.48
708.567	32.53
708.751	32.67
708.936	33.18
709.12	33.47
709.305	33.54
709.489	33.57
709.673	33.61
709.858	33.58
710.042	33.58
710.227	33.94
710.411	34.29
710.596	34.27
710.78	34.63
710.964	34.71
711.149	34.36
711.333	34.11
711.517	34.28
711.702	34.24
711.886	34.1
712.07	33.63
712.254	33.43
712.438	33.5
712.623	33.31
712.807	33.34
712.991	33.24
713.175	33.16
713.359	33.08
713.544	33.89
713.728	33.92
713.912	33.91
714.096	33.96
714.28	34.2
714.464	34.3
714.648	34.4
714.832	34.4
715.016	34.37
715.2	34.37
715.384	34.59
715.568	34.41
715.752	34.57
715.936	34.18
716.12	34.54
716.304	34.69
716.488	34.58
716.671	34.63
716.855	35.12
717.039	34.96
717.223	34.88
717.407	35.08
717.59	35.26
717.774	35.2
717.958	35.54
718.142	35.2
718.325	35.16
718.509	34.83
718.693	34.85
718.877	35.01
719.06	34.79
719.244	34.34
719.428	34.68
719.611	34.86
719.795	34.77
719.978	34.45
720.162	34.37
720.345	34.23
720.529	34.65
720.713	34.72
720.896	35.17
721.08	35.07
721.263	34.99
721.446	35.02
721.63	35.22
721.813	34.57
721.997	34.14
722.18	34.17
722.364	34.51
722.547	34.56
722.73	34.61
722.914	34.18
723.097	34.4
723.28	33.73
723.464	33.47
723.647	33.74
723.83	33.72
724.013	33.94
724.197	34.4
724.38	34.85
724.563	35.45
724.746	35.56
724.929	36.23
725.112	36.24
725.296	36.75
725.479	36.51
725.662	36.71
725.845	36.75
726.028	36.67
726.211	36.75
726.394	36.64
726.577	37.04
726.76	36.75
726.943	36.25
727.126	35.99
727.309	35.33
727.492	35.37
727.675	34.75
727.858	34.99
728.041	35.01
728.224	34.95
728.407	35.01
728.589	34.91
728.772	34.76
728.955	34.08
729.138	34.03
729.321	34.3
729.503	34.21
729.686	34.28
729.869	34.31
730.052	34.64
730.234	34.58
730.417	34.56
730.6	34.23
730.782	34.2
730.965	34.72
731.148	34.9
731.33	35.13
731.513	35.22
731.695	34.85
731.878	34.94
732.061	34.9
732.243	34.94
732.426	35.34
732.608	35.04
732.791	34.94
732.973	35.61
733.156	35.48
733.338	35.21
733.52	35.22
733.703	35.5
733.885	35.88
734.068	35.68
734.25	35.79
734.432	35.81
734.615	35.85
734.797	35.3
734.979	35.38
735.162	35.18
735.344	35.14
735.526	35.48
735.708	35.78
735.891	35.44
736.073	35.24
736.255	34.6
736.437	34.32
736.619	33.67
736.802	33.41
736.984	33.35
737.166	33.51
737.348	33.96
737.53	34.16
737.712	33.92
737.894	34.07
738.076	33.08
738.258	33.46
738.44	33.9
738.622	34.39
738.804	35.21
738.986	35.43
739.168	35.84
739.35	35.86
739.532	36.04
739.714	35.47
739.896	35.67
740.078	35.44
740.259	35.18
740.441	35.54
740.623	35.3
740.805	34.95
740.987	34.56
741.168	34.39
741.35	34.89
741.532	34.34
741.714	33.8
741.895	33.51
742.077	34.21
742.259	34.65
742.44	34.92
742.622	34.57
742.804	34.36
742.985	34.39
743.167	34.18
743.348	34.32
743.53	34.04
743.711	34.59
743.893	35.25
744.075	35.52
744.256	36.26
744.438	35.93
744.619	35.85
744.8	35.65
744.982	35.59
745.163	36.16
745.345	36.46
745.526	37.25
745.707	37.99
745.889	38.39
746.07	37.82
746.252	37.82
746.433	37.28
746.614	36.74
746.795	37.4
746.977	37.08
747.158	37.3
747.339	37.71
747.52	37.86
747.702	37.91
747.883	37.67
748.064	37.04
748.245	36.91
748.426	36.89
748.607	37.16
748.788	37.71
748.97	37.49
749.151	37.3
749.332	37.16
749.513	37.22
749.694	37.33
749.875	36.81
750.056	36.18
750.237	35.49
750.418	35.11
750.599	35.2
750.78	35.03
750.96	34.75
751.141	34.74
751.322	35
751.503	34.94
751.684	34.66
751.865	35.44
752.046	35.05
752.226	35.3
752.407	35.4
752.588	35.74
752.769	35.92
752.949	36.34
753.13	35.91
753.311	36
753.492	36.13
753.672	36.2
753.853	36.54
754.034	37.61
754.214	36.62
754.395	36.59
754.575	37.2
754.756	37.61
754.937	37.71
755.117	37.88
755.298	37.7
755.478	37.82
755.659	37.02
755.839	37.06
756.02	36.36
756.2	35.84
756.381	35.15
756.561	35.08
756.741	35.39
756.922	34.44
757.102	34.94
757.283	35.45
757.463	35.08
757.643	35.27
757.823	35.86
758.004	36.79
758.184	37.42
758.364	38.5
758.545	38.36
758.725	38.51
758.905	38.74
759.085	38.46
759.265	38.68
759.446	38.17
759.626	37.19
759.806	37.82
759.986	37.55
760.166	37.37
760.346	36.5
760.526	36.18
760.706	35.68
760.886	35.88
761.066	35.81
761.246	35.69
761.426	35.28
761.606	34.9
761.786	34.35
761.966	34.79
762.146	34.57
762.326	34.62
762.506	34.58
762.686	35.23
762.866	34.81
763.046	34.79
763.225	34.63
763.405	34.53
763.585	34.36
763.765	34.97
763.945	35.19
764.124	35.81
764.304	35.87
764.484	36
764.664	36.18
764.843	36.08
765.023	35.64
765.203	35.82
765.382	35.98
765.562	36.01
765.741	36.57
765.921	36.82
766.101	36.8
766.28	37.37
766.46	37.4
766.639	37.33
766.819	37.88
766.998	37.21
767.178	37.94
767.357	38.37
767.537	38.23
767.716	38
767.896	38.06
768.075	36.73
768.254	37.13
768.434	37.49
768.613	37.3
768.792	37.32
768.972	37.31
769.151	36.7
769.33	37.46
769.51	37.18
769.689	36.77
769.868	38.04
770.047	38.01
770.226	38.46
770.406	39.96
770.585	39.43
770.764	38.64
770.943	37.87
771.122	38.39
771.301	38.26
771.48	38.52
771.66	38.29
771.839	37.7
772.018	38
772.197	37.03
772.376	36.96
772.555	36.77
772.734	35.31
772.913	35.39
773.092	35.67
773.271	36.26
773.449	35.39
773.628	35.03
773.807	34.93
773.986	33.99
774.165	34.91
774.344	34.18
774.523	33.78
774.701	34.74
774.88	34.67
775.059	35.39
775.238	35.09
775.417	35.81
775.595	35.73
775.774	35.35
775.953	35.88
776.131	34.93
776.31	35.81
776.489	35.63
776.667	36.08
776.846	35.92
777.025	34.92
777.203	35.19
777.382	35.56
777.56	35.89
777.739	35.61
777.917	36.13
778.096	36.93
778.274	37.78
778.453	38.29
778.631	38.3
778.81	38.11
778.988	37.88
779.166	38.66
779.345	38.94
779.523	39.05
779.702	39.67
779.88	39.16
780.058	39.34
780.237	40.08
780.415	39.94
780.593	38.75
780.771	40.47
780.95	40.79
781.128	40.87
781.306	42.38
781.484	41.62
781.662	42.1
781.841	41.24
782.019	40.35
782.197	40.72
782.375	39.8
782.553	38.8
782.731	38.62
782.909	40.03
783.087	39.34
783.265	38.53
783.443	38.61
783.621	37.77
783.799	38.05
783.977	37.13
784.155	37.88
784.333	38.06
784.511	37.4
784.689	38.42
784.867	38.27
785.045	38.88
785.223	37.71
785.4	37.62
785.578	37.91
785.756	36.86
785.934	37.05
786.112	36.67
786.289	36.82
786.467	36.98
786.645	36.17
786.823	37.04
787	36.22
787.178	36.17
787.356	35.8
787.533	36.6
787.711	36.43
787.889	36.47
788.066	36.06
788.244	36.24
788.421	36.94
788.599	37.25
788.776	37.26
788.954	38.15
789.131	38.83
789.309	39.59
789.486	40.13
789.664	40.3
789.841	39.29
790.019	39.42
790.196	39.14
790.373	41.87
790.551	41.17
790.728	41.46
790.906	41.46
791.083	41.63
791.26	41.25
791.437	39.75
791.615	38.88
791.792	38.3
791.969	38.32
792.146	39.84
792.324	39.94
792.501	40.26
792.678	38.41
792.855	38.98
793.032	39.04
793.209	40.8
793.387	39.89
793.564	40.24
793.741	41.6
793.918	42.03
794.095	42.23
794.272	41.64
794.449	40.85
794.626	39.89
794.803	40.9
794.98	40.56
795.157	40.83
795.334	40.11
795.511	38.35
795.688	37.96
795.864	37.77
796.041	38.55
796.218	37.92
796.395	37.96
796.572	38.17
796.749	37.16
796.925	38.35
797.102	37.7
797.279	37.83
797.456	36.84
797.632	37.4
797.809	37.87
797.986	38.81
798.162	39.41
798.339	38.71
798.516	39.67
798.692	40.22
798.869	39.74
799.046	41.1
799.222	40.43
799.399	40.36
799.575	40.54
799.752	41
799.928	41.08
800.105	41.41
800.281	42.34
800.458	41.44
800.634	41.24
800.811	41.16
800.987	41.19
801.163	42.7
801.34	41.83
801.516	42.45
801.692	42.17
801.869	42.33
802.045	42.69
802.221	42.04
802.398	41.62
802.574	41.48
802.75	41.94
802.926	42.01
803.103	41.96
803.279	41.16
803.455	40.64
803.631	42.21
803.807	42.06
803.983	42.18
804.16	41.88
804.336	41.31
804.512	42.71
804.688	42.57
804.864	42.24
805.04	42.55
805.216	42.42
805.392	42.73
805.568	43.45
805.744	43.58
805.92	42.04
806.096	42.32
806.272	43.28
806.448	44.31
806.623	44.4
806.799	43.63
806.975	44.26
807.151	43.61
807.327	43.08
807.503	43.26
807.678	43.95
807.854	42.95
808.03	42.41
808.206	42.3
808.381	41.54
808.557	40.33
808.733	39.75
808.908	40.18
809.084	39.79
809.26	39.35
809.435	39.12
809.611	39.3
809.787	39.91
809.962	38.65
810.138	39.48
810.313	39.57
810.489	40.02
810.664	39.35
810.84	40.36
811.015	40.41
811.191	41.63
811.366	42.76
811.542	43.2
811.717	45.7
811.892	46.88
812.068	45.54
812.243	46.73
812.419	46.59
812.594	46.7
812.769	48.04
812.944	48.74
813.12	48.46
813.295	48.39
813.47	48.01
813.645	47.58
813.821	47.68
813.996	46.73
814.171	46
814.346	48.23
814.521	48.04
814.697	47.4
814.872	48.21
815.047	48.31
815.222	48
815.397	47.16
815.572	47.58
815.747	46.23
815.922	46.05
816.097	46.24
816.272	45.97
816.447	46.82
816.622	45.91
816.797	44.66
816.972	45.14
817.147	44.37
817.322	43.43
817.496	44.72
817.671	43.88
817.846	43.39
818.021	43.88
818.196	43.56
818.371	44.02
818.545	42.81
818.72	42.44
818.895	41.53
819.069	41.53
819.244	40.79
819.419	40.03
819.594	39.35
819.768	38.21
819.943	38.02
820.117	37.68
820.292	37.5
820.467	37.42
820.641	36.42
820.816	36.24
820.99	35.81
821.165	35.66
821.339	35.47
821.514	35.74
821.688	35.45
821.863	35.22
822.037	35.25
822.212	35.44
822.386	35.26
822.56	35.28
822.735	35.06
822.909	35.11
823.084	34.88
823.258	35.02
823.432	34.99
823.606	35.05
823.781	35.11
823.955	35.48
824.129	36.08
824.303	36.4
824.478	36.3
824.652	36.46
824.826	36.52
825	36.99
825.174	36.86
825.348	37.19
825.523	36.92
825.697	37.08
825.871	37.18
826.045	36.99
826.219	36.67
826.393	35.87
826.567	35.92
826.741	35.68
826.915	35.84
827.089	35.65
827.263	35.55
827.437	35.9
827.611	36.33
827.784	36.53
827.958	36.41
828.132	36.26
828.306	36.27
828.48	36.44
828.654	36.97
828.827	36.26
829.001	37.11
829.175	37.45
829.349	37.86
829.522	38.34
829.696	38.96
829.87	39.33
830.044	39.56
830.217	40.21
830.391	40.23
830.565	39.36
830.738	40.16
830.912	40.15
831.085	41.09
831.259	41.14
831.432	41.34
831.606	40.67
831.779	39.58
831.953	39.09
832.126	38.18
832.3	38.3
832.473	37.65
832.647	38.65
832.82	39.52
832.994	39.17
833.167	39.03
833.34	39.31
833.514	38.35
833.687	37.84
833.86	37.37
834.034	37.58
834.207	37.41
834.38	37.45
834.553	37.74
834.727	37.99
834.9	38.46
835.073	38.89
835.246	39.58
835.419	39.54
835.593	39.28
835.766	41.25
835.939	41.53
836.112	42.83
836.285	42.95
836.458	43.16
836.631	44.4
836.804	43.47
836.977	44.18
837.15	42.73
837.323	41.91
837.496	41.06
837.669	42.21
837.842	42.85
838.015	41.83
838.188	42.23
838.361	42.31
838.533	43.4
838.706	44.82
838.879	43.98
839.052	46.54
839.225	45.72
839.398	46.14
839.57	48.49
839.743	48.73
839.916	49.49
840.088	47.8
840.261	47.98
840.434	47.53
840.607	48.09
840.779	47.11
840.952	45.56
841.124	45.68
841.297	44.22
841.47	45.88
841.642	45.93
841.815	44.4
841.987	43.24
842.16	42.25
842.332	42.99
842.505	42.93
842.677	44.19
842.85	44.34
843.022	46.58
843.194	49.48
843.367	50.33
843.539	51.33
843.712	50.45
843.884	52.09
844.056	50.86
844.229	54.86
844.401	52.9
844.573	54.15
844.745	53.36
844.918	52.47
845.09	52.12
845.262	51.63
845.434	47.85
845.606	48.82
845.779	48.04
845.951	52.73
846.123	49.05
846.295	48.42
846.467	47.53
846.639	51.3
846.811	50.53
846.983	48.93
847.155	49.61
847.327	49.62
847.499	48.97
847.671	52.55
847.843	54.33
848.015	53.61
848.187	51.44
848.359	54.88
848.531	54.87
848.703	55.09
848.875	53.07
849.047	53.39
849.218	57.16
849.39	57.4
849.562	57.18
849.734	61.26
849.905	59.52
850.077	54.93
850.249	58.29
850.421	54.25
850.592	59.5
850.764	60.42
850.936	57.88
851.107	60.93
851.279	64.18
851.451	60.14
851.622	59.6
851.794	62.82
851.965	57.63
852.137	58.04
852.308	60.69
852.48	58.94
852.651	59.99
852.823	53.34
852.994	52.21
853.166	55
853.337	54.94
853.509	49.92
853.68	53.27
853.851	52.85
854.023	49.13
854.194	52.01
854.365	51.88
854.537	51.04
854.708	52.49
854.879	53.45
855.05	57.36
855.222	62.85
855.393	60.05
855.564	62.2
855.735	67.91
855.906	64.15
856.078	68.49
856.249	71.82
856.42	77.51
856.591	77.91
856.762	73.33
856.933	69.25
857.104	74.26
857.275	72.6
857.446	67.75
857.617	68.36
857.788	60.91
857.959	60.81
858.13	66.59
858.301	63.26
858.472	62.24
858.643	56.58
858.814	53.72
858.985	55.41
859.155	59.42
859.326	52.84
859.497	52.14
859.668	54.3
859.839	55.47
860.009	63.23
860.18	59.8
860.351	58.37
860.522	57.69
860.692	59.33
860.863	60.25
861.034	66.02
861.204	66.25
861.375	66.95
861.546	67.73
861.716	69.03
861.887	70.5
862.057	65.77
862.228	63.73
862.398	63.39
862.569	64.36
862.739	65.29
862.91	60.05
863.08	59.83
863.251	54.42
863.421	56.89
863.592	59.55
863.762	60.11
863.932	62.21
864.103	64.79
864.273	73.1
864.443	72.36
864.614	69.42
864.784	64.56
864.954	68.77
865.125	73.54
865.295	76.24
865.465	81.35
865.635	79.2
865.805	76.82
865.976	76.76
866.146	68.25
866.316	67.29
866.486	68.54
866.656	70.42
866.826	79.2
866.996	83.49
867.166	77.45
867.336	75.78
867.506	69.87
867.676	66.85
867.846	63.71
868.016	60.72
868.186	58.71
868.356	61.63
868.526	60.4
868.696	56.76
868.866	54.97
869.036	53.51
869.206	52.81
869.376	53.94
869.545	55.75
869.715	54.36
869.885	54.45
870.055	59.55
870.224	62.5
870.394	67.41
870.564	71.74
870.734	69.85
870.903	67.24
871.073	70.5
871.243	68.78
871.412	70.72
871.582	75.42
871.751	72.11
871.921	72.68
872.091	67.07
872.26	64.95
872.43	61.61
872.599	58.9
872.769	56.89
872.938	60.44
873.108	62.04
873.277	57.51
873.446	58.32
873.616	58.33
873.785	55.72
873.955	58.86
874.124	65.73
874.293	70.44
874.463	70.86
874.632	71.88
874.801	72.83
874.971	70.31
875.14	64.68
875.309	62.55
875.478	67.01
875.647	64.47
875.817	63.22
875.986	67.27
876.155	65.78
876.324	59.64
876.493	59.34
876.662	57.62
876.831	58.03
877	54.49
877.17	56.16
877.339	53.69
877.508	58.39
877.677	58.18
877.846	62.33
878.015	56.79
878.184	49.76
878.352	46.59
878.521	48.39
878.69	50.74
878.859	49.81
879.028	49.46
879.197	48.47
879.366	47.21
879.534	46.04
879.703	44.68
879.872	42.12
880.041	38.96
880.21	39.59
880.378	41.55
880.547	42.11
880.716	41.18
880.884	41.37
881.053	41.09
881.222	41.48
881.39	41.25
881.559	40.85
881.727	40.93
881.896	40.58
882.065	40.85
882.233	40.44
882.402	40.19
882.57	38.98
882.739	39.17
882.907	38.82
883.076	37.78
883.244	38.26
883.412	38.15
883.581	38.84
883.749	38.99
883.918	39.39
884.086	39.83
884.254	40.54
884.423	41.23
884.591	42.48
884.759	43.12
884.927	41.81
885.096	43.26
885.264	45.08
885.432	45
885.6	43.97
885.769	43.11
885.937	44.83
886.105	46.93
886.273	46.36
886.441	46.13
886.609	46.88
886.777	44.99
886.945	47.59
887.113	48.76
887.281	47.6
887.449	45.97
887.617	47.3
887.785	50.83
887.953	51.45
888.121	47.1
888.289	46.01
888.457	45
888.625	45.64
888.793	46.99
888.961	49.4
889.129	50.45
889.296	54.02
889.464	54.96
889.632	55.13
889.8	54.85
889.967	51.79
890.135	54.39
