Data from 2938547_Reflection_1.txt Node
Date: Mon Jun 15 00:16:46 EDT 2015
User: robert
Spectrometer: USB4E03002
Autoset integration time: false
Trigger mode: 4
Integration Time (sec): 1.000000E-1
Scans to average: 10
Electric dark correction enabled: true
Nonlinearity correction enabled: false
Boxcar width: 5
Stray light correction enabled: false
XAxis mode: Wavelengths
Stop averaging: false
Number of Pixels in Spectrum: 3648
>>>>>Begin Spectral Data<<<<<
177.575	35.62
177.794	32.71
178.014	23.72
178.233	35.92
178.452	39.28
178.672	28.18
178.891	10.72
179.11	8.05
179.33	-130.69
179.549	-0.7
179.768	-21.29
179.987	-46.01
180.207	-62.23
180.426	-240.25
180.645	-129.73
180.864	-229.2
181.084	-271.93
181.303	-1119.46
181.522	1147.17
181.741	-846.99
181.96	4210.42
182.179	267.73
182.398	422.07
182.618	408.02
182.837	-4869.18
183.056	-706.44
183.275	-346.51
183.494	1546.9
183.713	-465.85
183.932	338.19
184.151	246.42
184.37	232.73
184.589	287.88
184.808	313.53
185.027	212.98
185.246	157.34
185.465	144.39
185.684	146.58
185.903	186.88
186.122	183.19
186.341	566.86
186.56	647.12
186.779	-163.33
186.998	-143.02
187.216	-53.99
187.435	-26.76
187.654	-23.6
187.873	-21.98
188.092	-26.9
188.311	11.29
188.53	15.67
188.748	21.87
188.967	15.66
189.186	5.06
189.405	-12.83
189.623	-32.71
189.842	3.02
190.061	-14.04
190.28	-55.57
190.498	-64.55
190.717	-74.16
190.936	-167.98
191.154	-293.14
191.373	-4342.5
191.592	-571.1
191.81	153.8
192.029	161.07
192.248	252.79
192.466	185.35
192.685	178.95
192.904	132.85
193.122	157.57
193.341	240.13
193.559	224.27
193.778	147.19
193.996	93.57
194.215	215.07
194.433	62.43
194.652	33.21
194.87	-33.73
195.089	1307.91
195.307	146.9
195.526	412.44
195.744	1682.71
195.963	60.63
196.181	100.49
196.399	183.63
196.618	133.85
196.836	1008.38
197.055	51.45
197.273	646.68
197.491	211.11
197.71	129.59
197.928	120.1
198.146	148.55
198.365	142.99
198.583	233.92
198.801	-300.39
199.019	381.2
199.238	-5775.86
199.456	31.57
199.674	297.11
199.892	431.33
200.111	187.41
200.329	215.68
200.547	384.65
200.765	809.15
200.983	409.03
201.202	1054.21
201.42	630
201.638	345.98
201.856	-54.98
202.074	-280
202.292	0.14
202.51	17.73
202.728	53.36
202.946	292.71
203.165	149.58
203.383	357.78
203.601	302.73
203.819	323.93
204.037	182.99
204.255	174.57
204.473	195.43
204.691	106.72
204.909	93.72
205.127	97.09
205.345	31.89
205.562	23.86
205.78	-30.32
205.998	-117.66
206.216	-115.47
206.434	-922.83
206.652	67.35
206.87	-151.15
207.088	-290.9
207.306	-24.48
207.523	-38.06
207.741	-144.93
207.959	-179.93
208.177	-3419.77
208.395	-618.46
208.612	-511.35
208.83	1417.75
209.048	450.21
209.266	308.32
209.483	187.99
209.701	152.12
209.919	135.25
210.136	113.89
210.354	122.51
210.572	142.6
210.79	65.26
211.007	82.63
211.225	99.6
211.442	134.34
211.66	151.67
211.878	164.03
212.095	200.92
212.313	126.21
212.53	169.96
212.748	147.8
212.966	113.8
213.183	136.8
213.401	116.1
213.618	91.29
213.836	74.22
214.053	102.77
214.271	144.67
214.488	74.44
214.705	86.49
214.923	97.27
215.14	80.62
215.358	82.2
215.575	98.46
215.793	94.95
216.01	99.27
216.227	121.24
216.445	76.76
216.662	70.64
216.879	93.66
217.097	82.23
217.314	68.16
217.531	87.04
217.749	83.91
217.966	71.92
218.183	55.13
218.4	44.51
218.618	35.58
218.835	40.22
219.052	33.95
219.269	22.57
219.487	12.11
219.704	9.4
219.921	-1.13
220.138	-3.79
220.355	-4.03
220.572	2.26
220.79	26.17
221.007	27.48
221.224	20.82
221.441	25.99
221.658	33.21
221.875	47.08
222.092	45.52
222.309	34.54
222.526	31.19
222.743	23.71
222.96	17
223.177	14.01
223.394	13.62
223.611	12.17
223.828	12.74
224.045	10.41
224.262	5.71
224.479	2.8
224.696	10.08
224.913	12.7
225.13	15.02
225.347	18.73
225.564	17.38
225.781	15.01
225.997	15.34
226.214	14.2
226.431	12.73
226.648	10.72
226.865	10.69
227.082	8.91
227.298	8.85
227.515	9.11
227.732	8.13
227.949	8.49
228.165	9.78
228.382	10.28
228.599	9.05
228.816	9.93
229.032	9.71
229.249	10.15
229.466	10.14
229.682	9.58
229.899	10.04
230.116	10.88
230.332	9.84
230.549	6.45
230.765	5.63
230.982	9.08
231.199	7.35
231.415	11.06
231.632	11.68
231.848	14.95
232.065	15.27
232.281	13.84
232.498	13.61
232.714	13.24
232.931	13.35
233.147	13.46
233.364	11.91
233.58	12.61
233.797	13.43
234.013	14.15
234.23	12.88
234.446	13.92
234.662	15.37
234.879	15.69
235.095	15.14
235.312	17.06
235.528	17.31
235.744	15.95
235.961	15.7
236.177	14.43
236.393	14.02
236.61	14.68
236.826	13.89
237.042	11.8
237.258	12.33
237.475	11.35
237.691	12.08
237.907	9.91
238.123	11.75
238.339	11.36
238.556	10.14
238.772	9.17
238.988	9.63
239.204	8.92
239.42	9.59
239.636	8.75
239.853	9.82
240.069	9.68
240.285	10.35
240.501	10.04
240.717	9.77
240.933	10.56
241.149	10.33
241.365	9.89
241.581	10.12
241.797	9.93
242.013	10.44
242.229	9.97
242.445	9.64
242.661	9.84
242.877	9.68
243.093	10.09
243.309	10.49
243.525	10.49
243.741	9.7
243.957	9.55
244.173	9.16
244.388	9.04
244.604	9.11
244.82	9.47
245.036	8.94
245.252	8.44
245.468	8.34
245.683	7.98
245.899	7.78
246.115	7.71
246.331	7.68
246.547	7.45
246.762	7.23
246.978	6.97
247.194	6.98
247.409	6.95
247.625	7.18
247.841	6.98
248.057	6.76
248.272	7.41
248.488	7.05
248.703	7.41
248.919	8.63
249.135	8.31
249.35	9.41
249.566	8.78
249.782	9.8
249.997	9.09
250.213	8.73
250.428	8.74
250.644	8.56
250.859	9.09
251.075	8.47
251.29	8.28
251.506	7.86
251.721	6.89
251.937	6.39
252.152	5.86
252.368	6.63
252.583	6.76
252.798	6.24
253.014	6.58
253.229	6.65
253.445	6.84
253.66	6.02
253.875	7.65
254.091	8.44
254.306	8.82
254.521	7.67
254.737	8.16
254.952	8.22
255.167	8.61
255.383	7.87
255.598	7.63
255.813	6.93
256.028	7.41
256.244	6.65
256.459	5.87
256.674	5.43
256.889	6.01
257.104	5.79
257.32	6.02
257.535	5.87
257.75	6.06
257.965	5.94
258.18	6.12
258.395	5.9
258.61	5.88
258.826	6.06
259.041	6.41
259.256	6.47
259.471	6.41
259.686	6.42
259.901	6.67
260.116	6.45
260.331	6.88
260.546	7.01
260.761	7.36
260.976	7.64
261.191	7.92
261.406	7.8
261.621	7.3
261.836	7.17
262.05	7.57
262.265	6.94
262.48	7.19
262.695	6.71
262.91	6.64
263.125	6.17
263.34	6.71
263.555	6.41
263.769	6.46
263.984	5.54
264.199	5.44
264.414	5.13
264.629	5.38
264.843	4.55
265.058	4.47
265.273	4.11
265.488	4.22
265.702	3.89
265.917	4.35
266.132	4.04
266.346	4.65
266.561	4.25
266.776	4.21
266.99	4.42
267.205	5.2
267.42	5.16
267.634	5.53
267.849	5.72
268.063	5.7
268.278	5.26
268.492	5.58
268.707	5.57
268.922	6.69
269.136	6.83
269.351	6.73
269.565	6.56
269.78	7
269.994	6.71
270.209	6.55
270.423	6.39
270.637	6.05
270.852	5.85
271.066	5.81
271.281	5.42
271.495	5.34
271.709	5.44
271.924	5.5
272.138	5.14
272.353	5.48
272.567	5.38
272.781	5.64
272.996	5.76
273.21	5.86
273.424	6.13
273.638	5.95
273.853	5.98
274.067	5.57
274.281	5.19
274.495	5.23
274.71	5.37
274.924	5.38
275.138	5.31
275.352	5.61
275.566	5.78
275.781	5.39
275.995	5.78
276.209	5.78
276.423	6.41
276.637	6.88
276.851	7.06
277.065	6.9
277.279	7.14
277.493	7.06
277.707	7.05
277.921	7.25
278.135	8.08
278.349	7.87
278.563	7.17
278.777	7.06
278.991	6.78
279.205	6.47
279.419	6.41
279.633	6.36
279.847	6.22
280.061	6.33
280.275	6.21
280.489	5.8
280.703	5.96
280.917	6.61
281.131	6.34
281.344	6.28
281.558	6.15
281.772	6.03
281.986	5.75
282.2	5.9
282.414	6.24
282.627	6.27
282.841	6.49
283.055	6.34
283.269	5.83
283.482	6.29
283.696	6.02
283.91	6.45
284.123	6.62
284.337	6.79
284.551	6.82
284.764	6.54
284.978	6.23
285.192	5.76
285.405	5.37
285.619	5.6
285.833	4.72
286.046	5.02
286.26	4.66
286.473	4.19
286.687	4.35
286.9	4.22
287.114	4.27
287.327	4.5
287.541	4.99
287.754	5.2
287.968	5.05
288.181	5.83
288.395	5.51
288.608	5.3
288.822	5.62
289.035	5
289.248	4.97
289.462	4.79
289.675	4.77
289.889	4.65
290.102	4.7
290.315	4.69
290.529	4.33
290.742	4.7
290.955	5.12
291.169	4.53
291.382	4.98
291.595	5.13
291.808	5.24
292.022	5.41
292.235	5.08
292.448	5.07
292.661	5.65
292.875	5.94
293.088	5.76
293.301	5.49
293.514	6.19
293.727	6.27
293.94	6.19
294.153	6.04
294.367	5.55
294.58	5.79
294.793	5.37
295.006	5.23
295.219	4.8
295.432	5.05
295.645	5.37
295.858	5.06
296.071	4.97
296.284	4.8
296.497	4.99
296.71	5.12
296.923	5.26
297.136	5.79
297.349	5.6
297.562	5.81
297.775	5.47
297.988	5.56
298.201	5.61
298.414	5.77
298.626	5.71
298.839	5.51
299.052	5.79
299.265	5.73
299.478	5.61
299.691	5.53
299.903	5.62
300.116	6.03
300.329	5.88
300.542	6.14
300.755	6.27
300.967	6.64
301.18	6.42
301.393	6.17
301.605	5.86
301.818	6
302.031	6.57
302.243	6.62
302.456	6.77
302.669	6.53
302.881	6.89
303.094	6.72
303.307	6.42
303.519	6.97
303.732	7.05
303.944	7.49
304.157	7.44
304.37	7.29
304.582	6.81
304.795	6.7
305.007	6.86
305.22	6.16
305.432	6.3
305.645	6.21
305.857	6.32
306.069	6.4
306.282	6.39
306.494	6.42
306.707	6.24
306.919	6.84
307.132	6.3
307.344	6.35
307.556	7.01
307.769	6.81
307.981	6.83
308.193	6.57
308.406	6.59
308.618	6.24
308.83	6.1
309.043	5.86
309.255	5.73
309.467	5.81
309.679	6.14
309.892	5.52
310.104	5.55
310.316	5.87
310.528	5.5
310.74	5.49
310.953	5.67
311.165	5.67
311.377	5.92
311.589	5.96
311.801	6.33
312.013	5.69
312.225	5.74
312.437	5.43
312.649	5.36
312.862	5.86
313.074	6.27
313.286	6.33
313.498	6.43
313.71	5.95
313.922	6.04
314.134	5.75
314.346	5.73
314.558	5.96
314.77	6.52
314.982	6.61
315.193	6.6
315.405	5.94
315.617	5.94
315.829	5.76
316.041	6.27
316.253	5.86
316.465	6.42
316.677	6.42
316.888	6.25
317.1	5.63
317.312	5.42
317.524	5.33
317.736	5.72
317.947	5.66
318.159	5.43
318.371	5.29
318.583	5.49
318.794	5.14
319.006	5.24
319.218	5.47
319.43	6.05
319.641	6.53
319.853	6.73
320.064	6.91
320.276	6.92
320.488	7.53
320.699	7.6
320.911	7.52
321.123	7.74
321.334	7.49
321.546	8.11
321.757	8
321.969	8.03
322.18	7.56
322.392	7.18
322.603	7.25
322.815	7.19
323.026	7.22
323.238	7.25
323.449	7.22
323.661	7.25
323.872	6.63
324.083	6.67
324.295	6.22
324.506	6.59
324.718	6.57
324.929	6.56
325.14	6.31
325.352	6.82
325.563	7.02
325.774	7.01
325.986	6.99
326.197	7.07
326.408	7.21
326.62	7.33
326.831	7.08
327.042	6.85
327.253	6.68
327.464	6.66
327.676	6.17
327.887	5.75
328.098	5.39
328.309	5.35
328.52	5.06
328.732	5.19
328.943	4.92
329.154	5.09
329.365	6.03
329.576	6.13
329.787	6.46
329.998	6.32
330.209	6.59
330.42	7.04
330.631	6.98
330.842	7.25
331.053	7.15
331.264	7.27
331.475	7.32
331.686	7.36
331.897	7.21
332.108	6.78
332.319	6.95
332.53	6.8
332.741	6.68
332.952	6.83
333.163	6.89
333.374	6.68
333.585	6.41
333.795	6.35
334.006	5.91
334.217	6.25
334.428	6.93
334.639	7.01
334.849	6.81
335.06	6.51
335.271	6.77
335.482	6.74
335.692	6.81
335.903	6.6
336.114	6.33
336.325	6.45
336.535	6.62
336.746	6.33
336.957	6.16
337.167	6.65
337.378	6.81
337.589	6.62
337.799	6.32
338.01	6.48
338.22	7.21
338.431	7.33
338.642	6.7
338.852	6.2
339.063	5.99
339.273	5.89
339.484	5.6
339.694	5.61
339.905	5.85
340.115	6.34
340.326	6.08
340.536	5.98
340.746	5.86
340.957	6.4
341.167	6.42
341.378	6.52
341.588	6.64
341.799	6.68
342.009	6.71
342.219	6.79
342.43	6.6
342.64	6.59
342.85	6.47
343.061	6.4
343.271	6.38
343.481	6.18
343.691	6.08
343.902	5.95
344.112	5.94
344.322	5.81
344.532	5.51
344.743	5.58
344.953	5.9
345.163	6.02
345.373	6.13
345.583	5.83
345.793	6.04
346.004	6.07
346.214	6.4
346.424	6.66
346.634	6.83
346.844	6.81
347.054	6.72
347.264	6.33
347.474	6.12
347.684	6.47
347.894	6.97
348.104	6.75
348.314	6.89
348.524	6.77
348.734	6.36
348.944	6.1
349.154	6.4
349.364	6.36
349.574	6.43
349.784	6.49
349.994	6.33
350.204	6.08
350.413	6.26
350.623	5.92
350.833	5.76
351.043	5.79
351.253	6.12
351.463	5.92
351.672	6.01
351.882	6.07
352.092	6.33
352.302	6.18
352.511	5.77
352.721	5.95
352.931	6.11
353.141	6.18
353.35	6.15
353.56	5.91
353.77	5.79
353.979	5.54
354.189	5.42
354.399	5.36
354.608	5.36
354.818	5.75
355.027	5.92
355.237	5.9
355.447	5.86
355.656	5.78
355.866	5.88
356.075	5.68
356.285	5.93
356.494	6.09
356.704	5.76
356.913	5.69
357.123	5.54
357.332	5.21
357.542	5.45
357.751	5.42
357.96	5.76
358.17	5.86
358.379	5.92
358.589	5.84
358.798	5.49
359.007	5.45
359.217	5.51
359.426	5.33
359.635	5.46
359.845	5.41
360.054	5.49
360.263	5.48
360.472	5.4
360.682	5.65
360.891	5.71
361.1	5.78
361.309	5.87
361.519	5.77
361.728	6
361.937	5.93
362.146	5.91
362.355	5.74
362.564	5.46
362.774	5.47
362.983	5.36
363.192	5.18
363.401	5.36
363.61	5.4
363.819	5.55
364.028	5.82
364.237	5.89
364.446	5.67
364.655	5.83
364.864	5.99
365.073	5.98
365.282	5.81
365.491	5.85
365.7	5.7
365.909	5.7
366.118	5.63
366.327	5.43
366.536	5.29
366.745	5.42
366.954	5.43
367.162	5.35
367.371	5.49
367.58	5.48
367.789	5.42
367.998	5.44
368.207	5.45
368.415	5.33
368.624	5.36
368.833	5.16
369.042	5.16
369.25	5.16
369.459	5.19
369.668	5.02
369.877	5.22
370.085	5.2
370.294	5.32
370.503	4.94
370.711	5.01
370.92	4.83
371.129	5.13
371.337	5.01
371.546	4.76
371.754	4.8
371.963	4.55
372.171	4.18
372.38	4.01
372.589	3.79
372.797	4.1
373.006	4.23
373.214	4.44
373.423	4.36
373.631	4.21
373.84	4.45
374.048	4.32
374.256	4.6
374.465	4.6
374.673	4.59
374.882	4.86
375.09	4.76
375.298	4.61
375.507	4.48
375.715	4.49
375.923	4.82
376.132	4.91
376.34	4.92
376.548	4.81
376.757	5.03
376.965	5.27
377.173	5.09
377.381	5.24
377.59	5.3
377.798	5.06
378.006	4.92
378.214	4.78
378.423	4.7
378.631	4.74
378.839	4.57
379.047	4.73
379.255	4.66
379.463	4.45
379.671	4.52
379.879	4.45
380.088	4.45
380.296	4.43
380.504	4.49
380.712	4.61
380.92	4.7
381.128	4.81
381.336	4.56
381.544	4.43
381.752	4.6
381.96	4.52
382.168	4.53
382.376	4.78
382.584	5.09
382.791	4.94
382.999	4.77
383.207	4.73
383.415	4.86
383.623	4.77
383.831	4.76
384.039	4.61
384.247	4.65
384.454	4.71
384.662	4.55
384.87	4.33
385.078	4.4
385.285	4.48
385.493	4.5
385.701	4.48
385.909	4.79
386.116	4.65
386.324	4.78
386.532	4.57
386.739	4.61
386.947	4.66
387.155	4.85
387.362	4.81
387.57	4.46
387.778	4.25
387.985	3.98
388.193	3.8
388.4	3.93
388.608	3.89
388.816	3.92
389.023	3.99
389.231	3.86
389.438	3.61
389.646	3.43
389.853	3.35
390.061	3.48
390.268	3.55
390.475	3.54
390.683	3.59
390.89	3.54
391.098	3.62
391.305	3.52
391.512	3.58
391.72	3.62
391.927	3.71
392.135	4.03
392.342	4.02
392.549	4.14
392.756	4.19
392.964	4.24
393.171	4.15
393.378	4.19
393.586	4.21
393.793	4.17
394	4.22
394.207	4.22
394.414	4.12
394.622	4.02
394.829	4
395.036	3.78
395.243	3.69
395.45	3.75
395.657	3.69
395.864	3.56
396.072	3.58
396.279	3.63
396.486	3.64
396.693	3.45
396.9	3.31
397.107	3.1
397.314	3.16
397.521	3.16
397.728	3.22
397.935	3.2
398.142	3.31
398.349	3.43
398.556	3.38
398.763	3.46
398.97	3.76
399.177	3.79
399.383	3.88
399.59	3.88
399.797	3.78
400.004	3.76
400.211	3.82
400.418	3.71
400.625	3.46
400.831	3.49
401.038	3.5
401.245	3.21
401.452	3.25
401.658	3.25
401.865	3.31
402.072	3.34
402.279	3.39
402.485	3.2
402.692	3.18
402.899	3.17
403.105	2.98
403.312	2.74
403.519	3.02
403.725	3.06
403.932	3.17
404.138	2.93
404.345	2.98
404.552	2.97
404.758	3.03
404.965	3.01
405.171	3.06
405.378	3.07
405.584	3.26
405.791	3.08
405.997	3.05
406.204	2.97
406.41	3.31
406.617	3.3
406.823	3.25
407.029	3.17
407.236	3.07
407.442	3.24
407.649	3.25
407.855	3.18
408.061	3.03
408.268	3.27
408.474	3.23
408.68	3.17
408.887	3.14
409.093	3.04
409.299	3.08
409.505	3.2
409.712	3.1
409.918	3.25
410.124	3.22
410.33	3.33
410.537	3.14
410.743	3.28
410.949	3.14
411.155	3.08
411.361	3.13
411.567	2.97
411.773	3.02
411.98	2.89
412.186	2.86
412.392	2.8
412.598	2.73
412.804	2.82
413.01	2.63
413.216	2.76
413.422	2.75
413.628	2.74
413.834	2.88
414.04	2.84
414.246	2.87
414.452	2.81
414.658	2.93
414.864	3.1
415.07	3.11
415.275	3.06
415.481	3
415.687	2.97
415.893	2.86
416.099	2.86
416.305	2.9
416.511	2.93
416.716	2.84
416.922	2.74
417.128	2.63
417.334	2.5
417.539	2.53
417.745	2.64
417.951	2.72
418.157	2.9
418.362	2.91
418.568	2.84
418.774	2.75
418.979	2.8
419.185	2.76
419.391	2.81
419.596	2.85
419.802	2.87
420.008	2.83
420.213	2.88
420.419	2.75
420.624	2.8
420.83	2.86
421.035	2.93
421.241	2.94
421.446	3.04
421.652	3.08
421.857	3.05
422.063	3.02
422.268	3.01
422.474	2.86
422.679	2.93
422.885	2.85
423.09	2.83
423.295	2.78
423.501	2.78
423.706	2.69
423.911	2.64
424.117	2.64
424.322	2.59
424.527	2.54
424.733	2.53
424.938	2.46
425.143	2.5
425.349	2.47
425.554	2.48
425.759	2.49
425.964	2.58
426.169	2.5
426.375	2.48
426.58	2.53
426.785	2.53
426.99	2.52
427.195	2.64
427.4	2.54
427.605	2.57
427.811	2.64
428.016	2.59
428.221	2.49
428.426	2.45
428.631	2.44
428.836	2.44
429.041	2.51
429.246	2.54
429.451	2.47
429.656	2.47
429.861	2.53
430.066	2.51
430.271	2.45
430.476	2.37
430.681	2.43
430.886	2.42
431.09	2.49
431.295	2.38
431.5	2.49
431.705	2.42
431.91	2.47
432.115	2.3
432.32	2.44
432.524	2.45
432.729	2.58
432.934	2.62
433.139	2.67
433.343	2.58
433.548	2.58
433.753	2.51
433.958	2.53
434.162	2.48
434.367	2.47
434.572	2.38
434.776	2.31
434.981	2.35
435.186	2.21
435.39	2.22
435.595	2.21
435.799	2.25
436.004	2.25
436.209	2.39
436.413	2.31
436.618	2.45
436.822	2.39
437.027	2.41
437.231	2.34
437.436	2.46
437.64	2.36
437.845	2.4
438.049	2.5
438.253	2.48
438.458	2.32
438.662	2.42
438.867	2.5
439.071	2.59
439.275	2.65
439.48	2.6
439.684	2.61
439.888	2.63
440.093	2.55
440.297	2.48
440.501	2.52
440.706	2.64
440.91	2.57
441.114	2.39
441.318	2.34
441.523	2.22
441.727	2.3
441.931	2.3
442.135	2.46
442.339	2.6
442.543	2.54
442.748	2.6
442.952	2.52
443.156	2.56
443.36	2.54
443.564	2.4
443.768	2.46
443.972	2.45
444.176	2.44
444.38	2.3
444.584	2.25
444.788	2.26
444.992	2.19
445.196	2.18
445.4	2.18
445.604	2.25
445.808	2.25
446.012	2.22
446.216	2.19
446.42	2.18
446.624	2.19
446.828	2.2
447.032	2.26
447.235	2.28
447.439	2.27
447.643	2.3
447.847	2.32
448.051	2.35
448.254	2.43
448.458	2.4
448.662	2.38
448.866	2.47
449.069	2.45
449.273	2.43
449.477	2.36
449.681	2.44
449.884	2.35
450.088	2.42
450.292	2.4
450.495	2.42
450.699	2.48
450.902	2.43
451.106	2.37
451.31	2.37
451.513	2.34
451.717	2.33
451.92	2.29
452.124	2.34
452.327	2.27
452.531	2.32
452.734	2.3
452.938	2.25
453.141	2.3
453.345	2.4
453.548	2.43
453.752	2.39
453.955	2.51
454.158	2.49
454.362	2.52
454.565	2.43
454.769	2.41
454.972	2.39
455.175	2.41
455.379	2.41
455.582	2.27
455.785	2.29
455.988	2.44
456.192	2.43
456.395	2.43
456.598	2.35
456.801	2.39
457.005	2.43
457.208	2.44
457.411	2.43
457.614	2.41
457.817	2.46
458.021	2.4
458.224	2.39
458.427	2.34
458.63	2.35
458.833	2.37
459.036	2.36
459.239	2.37
459.442	2.38
459.645	2.38
459.848	2.44
460.051	2.38
460.254	2.41
460.457	2.28
460.66	2.25
460.863	2.3
461.066	2.17
461.269	2.19
461.472	2.1
461.675	2.07
461.878	2.1
462.081	2.05
462.284	2.07
462.486	2.04
462.689	2.12
462.892	2.13
463.095	2.1
463.298	2.29
463.5	2.28
463.703	2.33
463.906	2.4
464.109	2.33
464.311	2.29
464.514	2.26
464.717	2.21
464.92	2.23
465.122	2.2
465.325	2.18
465.528	2.22
465.73	2.24
465.933	2.23
466.135	2.27
466.338	2.3
466.541	2.39
466.743	2.38
466.946	2.47
467.148	2.49
467.351	2.55
467.553	2.48
467.756	2.36
467.958	2.22
468.161	2.19
468.363	2.08
468.566	2.03
468.768	2.03
468.971	2.08
469.173	2
469.375	1.88
469.578	2.01
469.78	2.1
469.983	2.12
470.185	2.23
470.387	2.28
470.59	2.41
470.792	2.49
470.994	2.41
471.196	2.36
471.399	2.4
471.601	2.4
471.803	2.26
472.005	2.19
472.208	2.19
472.41	2.14
472.612	2.19
472.814	2.11
473.016	2.14
473.218	2.2
473.421	2.22
473.623	2.27
473.825	2.39
474.027	2.37
474.229	2.44
474.431	2.51
474.633	2.57
474.835	2.48
475.037	2.44
475.239	2.38
475.441	2.24
475.643	2.27
475.845	2.19
476.047	2.18
476.249	2.18
476.451	2.24
476.653	2.29
476.855	2.23
477.057	2.24
477.258	2.28
477.46	2.35
477.662	2.49
477.864	2.46
478.066	2.58
478.268	2.51
478.469	2.49
478.671	2.42
478.873	2.3
479.075	2.37
479.276	2.28
479.478	2.29
479.68	2.23
479.882	2.23
480.083	2.23
480.285	2.18
480.487	2.23
480.688	2.22
480.89	2.24
481.091	2.26
481.293	2.22
481.495	2.26
481.696	2.22
481.898	2.19
482.099	2.17
482.301	2.17
482.502	2.16
482.704	2.16
482.905	2.16
483.107	2.16
483.308	2.17
483.51	2.18
483.711	2.17
483.913	2.21
484.114	2.25
484.315	2.28
484.517	2.32
484.718	2.32
484.92	2.32
485.121	2.31
485.322	2.24
485.524	2.23
485.725	2.23
485.926	2.24
486.127	2.19
486.329	2.16
486.53	2.16
486.731	2.16
486.932	2.19
487.134	2.2
487.335	2.19
487.536	2.26
487.737	2.27
487.938	2.26
488.139	2.29
488.341	2.3
488.542	2.34
488.743	2.33
488.944	2.26
489.145	2.22
489.346	2.23
489.547	2.24
489.748	2.24
489.949	2.2
490.15	2.19
490.351	2.2
490.552	2.24
490.753	2.26
490.954	2.25
491.155	2.29
491.356	2.3
491.557	2.29
491.758	2.34
491.959	2.36
492.159	2.37
492.36	2.46
492.561	2.43
492.762	2.44
492.963	2.44
493.164	2.49
493.364	2.51
493.565	2.49
493.766	2.45
493.967	2.45
494.167	2.45
494.368	2.48
494.569	2.44
494.769	2.43
494.97	2.34
495.171	2.25
495.371	2.23
495.572	2.22
495.773	2.3
495.973	2.35
496.174	2.36
496.375	2.3
496.575	2.38
496.776	2.4
496.976	2.45
497.177	2.5
497.377	2.6
497.578	2.59
497.778	2.64
497.979	2.62
498.179	2.52
498.38	2.53
498.58	2.56
498.78	2.48
498.981	2.51
499.181	2.45
499.382	2.49
499.582	2.42
499.782	2.46
499.983	2.39
500.183	2.39
500.383	2.53
500.584	2.5
500.784	2.53
500.984	2.65
501.184	2.57
501.385	2.61
501.585	2.64
501.785	2.71
501.985	2.7
502.185	2.74
502.386	2.82
502.586	2.79
502.786	2.9
502.986	2.94
503.186	2.75
503.386	2.76
503.586	2.84
503.786	2.71
503.987	2.66
504.187	2.75
504.387	2.79
504.587	2.77
504.787	2.78
504.987	2.69
505.187	2.69
505.387	2.87
505.587	2.91
505.786	2.82
505.986	2.96
506.186	3.06
506.386	3.04
506.586	3.04
506.786	3.03
506.986	3
507.186	3.02
507.386	3.06
507.585	3.07
507.785	3.02
507.985	3.1
508.185	3.18
508.384	3.12
508.584	3.1
508.784	3.14
508.984	3.15
509.183	3.21
509.383	3.25
509.583	3.24
509.782	3.19
509.982	3.32
510.182	3.24
510.381	3.16
510.581	3.17
510.781	3.25
510.98	3.27
511.18	3.25
511.379	3.24
511.579	3.26
511.778	3.23
511.978	3.28
512.177	3.23
512.377	3.31
512.576	3.38
512.776	3.31
512.975	3.25
513.175	3.19
513.374	3.26
513.573	3.3
513.773	3.34
513.972	3.31
514.172	3.36
514.371	3.42
514.57	3.4
514.77	3.3
514.969	3.42
515.168	3.4
515.367	3.45
515.567	3.47
515.766	3.37
515.965	3.34
516.164	3.45
516.364	3.41
516.563	3.39
516.762	3.48
516.961	3.57
517.16	3.59
517.359	3.6
517.559	3.62
517.758	3.64
517.957	3.73
518.156	3.8
518.355	3.81
518.554	3.87
518.753	3.88
518.952	3.87
519.151	3.91
519.35	3.99
519.549	4.07
519.748	4.15
519.947	4.18
520.146	4.19
520.345	4.23
520.544	4.34
520.743	4.35
520.942	4.44
521.141	4.47
521.339	4.5
521.538	4.49
521.737	4.49
521.936	4.48
522.135	4.47
522.333	4.46
522.532	4.43
522.731	4.37
522.93	4.44
523.129	4.45
523.327	4.52
523.526	4.45
523.725	4.44
523.923	4.46
524.122	4.48
524.321	4.53
524.519	4.59
524.718	4.6
524.917	4.63
525.115	4.6
525.314	4.6
525.512	4.62
525.711	4.72
525.909	4.75
526.108	4.8
526.306	4.83
526.505	4.83
526.703	4.83
526.902	4.85
527.1	4.85
527.299	4.89
527.497	4.91
527.696	4.92
527.894	4.93
528.092	4.97
528.291	4.96
528.489	4.97
528.688	5
528.886	5.04
529.084	5.08
529.283	5.15
529.481	5.16
529.679	5.18
529.877	5.22
530.076	5.25
530.274	5.29
530.472	5.36
530.67	5.45
530.869	5.47
531.067	5.5
531.265	5.52
531.463	5.48
531.661	5.5
531.859	5.55
532.057	5.58
532.255	5.55
532.454	5.58
532.652	5.63
532.85	5.61
533.048	5.6
533.246	5.64
533.444	5.68
533.642	5.76
533.84	5.81
534.038	5.86
534.236	5.85
534.434	5.98
534.632	5.95
534.83	5.91
535.027	5.89
535.225	5.97
535.423	5.97
535.621	5.99
535.819	5.96
536.017	6.02
536.215	6.06
536.412	6.11
536.61	6.1
536.808	6.1
537.006	6.11
537.203	6.23
537.401	6.3
537.599	6.3
537.797	6.36
537.994	6.4
538.192	6.4
538.39	6.38
538.587	6.44
538.785	6.47
538.983	6.52
539.18	6.6
539.378	6.53
539.575	6.48
539.773	6.54
539.97	6.54
540.168	6.56
540.366	6.59
540.563	6.66
540.761	6.63
540.958	6.68
541.155	6.72
541.353	6.74
541.55	6.79
541.748	6.87
541.945	6.92
542.143	6.96
542.34	7
542.537	7.01
542.735	7.03
542.932	7.14
543.129	7.21
543.327	7.24
543.524	7.29
543.721	7.41
543.919	7.47
544.116	7.56
544.313	7.6
544.51	7.73
544.708	7.84
544.905	7.91
545.102	7.95
545.299	8.01
545.496	8.12
545.693	8.17
545.891	8.18
546.088	8.16
546.285	8.12
546.482	8.18
546.679	8.2
546.876	8.24
547.073	8.27
547.27	8.31
547.467	8.37
547.664	8.39
547.861	8.51
548.058	8.61
548.255	8.82
548.452	9.01
548.649	9.07
548.846	9.15
549.043	9.15
549.24	9.22
549.437	9.33
549.633	9.34
549.83	9.37
550.027	9.28
550.224	9.32
550.421	9.38
550.618	9.34
550.814	9.41
551.011	9.41
551.208	9.53
551.405	9.59
551.601	9.58
551.798	9.61
551.995	9.75
552.191	9.86
552.388	9.79
552.585	9.85
552.781	9.92
552.978	9.95
553.175	10.14
553.371	10.11
553.568	10.16
553.764	10.21
553.961	10.33
554.157	10.27
554.354	10.32
554.55	10.58
554.747	10.59
554.943	10.62
555.14	10.79
555.336	10.76
555.533	10.91
555.729	11
555.926	11
556.122	10.92
556.318	11.05
556.515	11.18
556.711	11.24
556.907	11.27
557.104	11.27
557.3	11.22
557.496	11.2
557.693	11.18
557.889	11.11
558.085	11.27
558.281	11.4
558.478	11.49
558.674	11.55
558.87	11.63
559.066	11.75
559.262	11.94
559.459	12.02
559.655	12.15
559.851	12.37
560.047	12.59
560.243	12.68
560.439	12.81
560.635	12.81
560.831	12.83
561.027	12.75
561.223	12.8
561.419	12.76
561.615	12.89
561.811	12.87
562.007	12.8
562.203	12.8
562.399	12.73
562.595	12.73
562.791	12.82
562.987	13.03
563.183	13.23
563.379	13.27
563.575	13.41
563.771	13.41
563.966	13.52
564.162	13.58
564.358	13.54
564.554	13.6
564.75	13.61
564.945	13.66
565.141	13.58
565.337	13.68
565.533	13.78
565.728	13.83
565.924	13.96
566.12	14.11
566.315	14.21
566.511	14.41
566.707	14.51
566.902	14.56
567.098	14.61
567.293	14.71
567.489	14.78
567.684	14.81
567.88	14.83
568.076	14.9
568.271	14.93
568.467	15.05
568.662	15.18
568.858	15.31
569.053	15.46
569.248	15.6
569.444	15.7
569.639	15.56
569.835	15.59
570.03	15.7
570.225	15.76
570.421	15.8
570.616	15.74
570.812	15.74
571.007	15.71
571.202	15.75
571.397	15.69
571.593	15.7
571.788	15.89
571.983	15.98
572.178	15.93
572.374	15.88
572.569	15.84
572.764	15.96
572.959	15.9
573.154	15.99
573.35	16.02
573.545	16.14
573.74	16.22
573.935	16.09
574.13	16.13
574.325	16.32
574.52	16.38
574.715	16.6
574.91	16.67
575.105	16.79
575.3	16.96
575.495	17.01
575.69	17.01
575.885	17.09
576.08	17.26
576.275	17.41
576.47	17.41
576.665	17.62
576.86	17.65
577.055	17.66
577.25	17.71
577.444	17.68
577.639	17.69
577.834	17.82
578.029	17.88
578.224	17.95
578.418	18.03
578.613	17.99
578.808	17.84
579.003	17.85
579.197	17.91
579.392	18.06
579.587	18.06
579.781	18.23
579.976	18.24
580.171	18.07
580.365	17.94
580.56	17.95
580.755	18.12
580.949	18.23
581.144	18.17
581.338	18.2
581.533	18.2
581.727	18.32
581.922	18.31
582.116	18.28
582.311	18.41
582.505	18.65
582.7	18.63
582.894	18.59
583.089	18.65
583.283	18.88
583.478	18.88
583.672	19
583.866	19.07
584.061	18.99
584.255	19.08
584.449	19.15
584.644	19.19
584.838	19.12
585.032	19.12
585.226	19.1
585.421	18.95
585.615	19.12
585.809	19.02
586.003	19.03
586.198	19.19
586.392	19.22
586.586	19.26
586.78	19.25
586.974	19.27
587.168	19.25
587.363	19.37
587.557	19.46
587.751	19.27
587.945	19.31
588.139	19.33
588.333	19.33
588.527	19.42
588.721	19.52
588.915	19.55
589.109	19.68
589.303	19.85
589.497	19.86
589.691	19.96
589.885	20.04
590.079	20.11
590.273	20.01
590.466	20.04
590.66	20.05
590.854	20.02
591.048	20.05
591.242	20.07
591.436	20.03
591.629	20.01
591.823	20.04
592.017	20.16
592.211	20.17
592.404	20.29
592.598	20.38
592.792	20.42
592.986	20.35
593.179	20.38
593.373	20.31
593.567	20.32
593.76	20.5
593.954	20.32
594.147	20.35
594.341	20.43
594.535	20.48
594.728	20.38
594.922	20.41
595.115	20.5
595.309	20.52
595.502	20.6
595.696	20.75
595.889	20.7
596.083	20.92
596.276	20.92
596.47	20.82
596.663	20.84
596.856	20.86
597.05	20.83
597.243	20.9
597.437	20.95
597.63	21.1
597.823	21.11
598.017	20.99
598.21	20.99
598.403	21.06
598.596	21.21
598.79	21.19
598.983	21.38
599.176	21.52
599.369	21.37
599.563	21.45
599.756	21.42
599.949	21.26
600.142	21.3
600.335	21.27
600.528	21.21
600.722	21.23
600.915	21.29
601.108	21.43
601.301	21.35
601.494	21.41
601.687	21.42
601.88	21.47
602.073	21.41
602.266	21.52
602.459	21.44
602.652	21.37
602.845	21.35
603.038	21.32
603.231	21.15
603.424	21.11
603.617	21.12
603.809	21.06
604.002	20.85
604.195	21.04
604.388	20.9
604.581	20.94
604.774	21.17
604.966	21.16
605.159	21.29
605.352	21.32
605.545	21.53
605.737	21.67
605.93	21.7
606.123	21.79
606.316	21.68
606.508	21.77
606.701	21.85
606.894	21.83
607.086	21.93
607.279	21.79
607.471	21.8
607.664	21.81
607.857	21.81
608.049	21.95
608.242	22.09
608.434	22.15
608.627	22.36
608.819	22.29
609.012	22.23
609.204	22.12
609.397	22.2
609.589	22.21
609.782	22.11
609.974	22.14
610.166	22.03
610.359	21.95
610.551	21.92
610.743	21.76
610.936	21.79
611.128	21.81
611.32	22.07
611.513	22
611.705	21.95
611.897	22.06
612.09	22.06
612.282	22.01
612.474	22.06
612.666	22.21
612.858	22.45
613.051	22.65
613.243	22.6
613.435	22.5
613.627	22.6
613.819	22.75
614.011	22.9
614.203	22.79
614.395	22.85
614.588	22.96
614.78	22.87
614.972	22.73
615.164	22.69
615.356	22.72
615.548	22.9
615.74	22.93
615.932	22.96
616.124	22.82
616.315	22.81
616.507	22.97
616.699	22.97
616.891	22.99
617.083	23.01
617.275	23.09
617.467	23.06
617.659	22.88
617.85	22.94
618.042	22.84
618.234	23
618.426	23.05
618.618	23
618.809	22.91
619.001	23.02
619.193	22.98
619.384	22.91
619.576	22.97
619.768	23
619.959	22.87
620.151	23.03
620.343	22.91
620.534	22.85
620.726	22.86
620.917	22.88
621.109	22.82
621.301	22.77
621.492	22.71
621.684	22.87
621.875	23.05
622.067	23.21
622.258	23.23
622.45	23.25
622.641	23.31
622.832	23.28
623.024	23.42
623.215	23.47
623.407	23.6
623.598	23.71
623.789	23.64
623.981	23.65
624.172	23.65
624.363	23.52
624.555	23.47
624.746	23.64
624.937	23.69
625.129	23.64
625.32	23.75
625.511	23.7
625.702	23.65
625.893	23.78
626.085	23.71
626.276	23.63
626.467	23.77
626.658	23.85
626.849	23.73
627.04	23.64
627.231	23.73
627.422	23.56
627.614	23.51
627.805	23.61
627.996	23.55
628.187	23.59
628.378	23.76
628.569	23.57
628.76	23.4
628.951	23.45
629.142	23.69
629.332	23.66
629.523	23.8
629.714	23.99
629.905	23.94
630.096	23.75
630.287	23.64
630.478	23.45
630.669	23.63
630.859	23.82
631.05	23.86
631.241	23.73
631.432	23.48
631.623	23.37
631.813	23.38
632.004	23.21
632.195	23.25
632.385	23.26
632.576	23.5
632.767	23.33
632.957	23.37
633.148	23.42
633.339	23.53
633.529	23.73
633.72	23.77
633.91	23.71
634.101	23.85
634.292	23.95
634.482	23.86
634.673	23.86
634.863	24.14
635.054	23.95
635.244	24.01
635.435	23.97
635.625	23.96
635.815	23.91
636.006	23.92
636.196	24.06
636.387	24.05
636.577	24.26
636.767	24.17
636.958	24.25
637.148	24.67
637.338	24.64
637.529	24.6
637.719	24.89
637.909	25.07
638.099	25.07
638.29	25.04
638.48	25.15
638.67	25.04
638.86	24.94
639.05	24.74
639.241	24.46
639.431	24.28
639.621	24.32
639.811	24.22
640.001	24.15
640.191	24.1
640.381	24.05
640.571	24.01
640.761	24.1
640.951	24.46
641.141	24.6
641.331	24.66
641.521	24.85
641.711	24.66
641.901	24.63
642.091	24.7
642.281	24.7
642.471	24.57
642.661	24.61
642.851	24.68
643.041	24.43
643.231	24.18
643.42	24.24
643.61	24.12
643.8	24.51
643.99	24.48
644.18	24.44
644.369	24.72
644.559	24.96
644.749	25.15
644.939	25.21
645.128	25.25
645.318	25.4
645.508	25.2
645.697	25.22
645.887	24.99
646.076	25.18
646.266	25.17
646.456	25.06
646.645	25.11
646.835	25
647.024	24.89
647.214	24.89
647.403	24.83
647.593	24.98
647.782	25.11
647.972	25.26
648.161	25.02
648.351	25.04
648.54	24.83
648.73	24.89
648.919	24.62
649.108	24.72
649.298	24.49
649.487	24.52
649.677	24.65
649.866	24.41
650.055	24.35
650.244	24.31
650.434	24.23
650.623	24.35
650.812	24.33
651.002	24.62
651.191	24.53
651.38	24.74
651.569	24.95
651.758	25.08
651.947	25.13
652.137	25.17
652.326	25.3
652.515	25.26
652.704	25.48
652.893	25.4
653.082	25.46
653.271	25.45
653.46	25.43
653.649	25.26
653.838	25.3
654.027	25.39
654.216	25.47
654.405	25.56
654.594	25.84
654.783	25.81
654.972	25.79
655.161	25.62
655.35	25.54
655.539	25.68
655.728	25.59
655.916	25.5
656.105	25.78
656.294	25.71
656.483	25.47
656.672	25.29
656.86	25.18
657.049	25.12
657.238	25.21
657.427	25.44
657.615	25.44
657.804	25.64
657.993	25.54
658.181	25.41
658.37	25.42
658.559	25.4
658.747	25.44
658.936	25.48
659.125	25.82
659.313	25.7
659.502	25.65
659.69	25.48
659.879	25.58
660.067	25.61
660.256	25.62
660.444	25.47
660.633	25.61
660.821	25.86
661.01	25.96
661.198	25.63
661.387	25.77
661.575	25.68
661.763	25.95
661.952	25.76
662.14	25.76
662.328	25.85
662.517	25.94
662.705	25.95
662.893	25.79
663.082	25.67
663.27	25.53
663.458	25.35
663.646	25.26
663.834	25.13
664.023	25.34
664.211	25.55
664.399	25.58
664.587	25.71
664.775	25.63
664.963	25.72
665.152	25.8
665.34	26.03
665.528	26.31
665.716	26.36
665.904	26.41
666.092	26.35
666.28	26.31
666.468	26.32
666.656	26.12
666.844	26.2
667.032	26.19
667.22	26.44
667.408	26.55
667.596	26.43
667.784	26.58
667.971	26.68
668.159	26.24
668.347	25.99
668.535	25.88
668.723	25.95
668.911	26.04
669.098	26.1
669.286	25.9
669.474	25.78
669.662	25.87
669.849	25.85
670.037	25.58
670.225	25.87
670.413	25.79
670.6	25.94
670.788	25.82
670.976	25.88
671.163	25.75
671.351	25.76
671.538	25.96
671.726	25.96
671.913	25.9
672.101	26.05
672.289	26.22
672.476	26.49
672.664	26.57
672.851	26.8
673.039	26.93
673.226	26.93
673.413	26.65
673.601	26.4
673.788	26.47
673.976	26.53
674.163	26.64
674.35	26.57
674.538	26.71
674.725	26.68
674.912	26.69
675.1	26.56
675.287	26.81
675.474	26.85
675.662	26.69
675.849	26.78
676.036	27.05
676.223	27.36
676.411	27.32
676.598	27.08
676.785	27.13
676.972	27.21
677.159	27.28
677.346	27.23
677.533	27.42
677.721	27.73
677.908	27.82
678.095	27.62
678.282	27.41
678.469	27.47
678.656	27.59
678.843	27.37
679.03	27.49
679.217	27.28
679.404	27.02
679.591	26.99
679.778	27.07
679.964	26.88
680.151	26.83
680.338	26.64
680.525	26.55
680.712	26.33
680.899	26.52
681.086	26.47
681.272	26.77
681.459	27.16
681.646	27.23
681.833	26.96
682.02	27.22
682.206	27.3
682.393	27.28
682.58	27.21
682.766	27.33
682.953	27.17
683.14	27.05
683.326	26.92
683.513	26.76
683.7	26.96
683.886	27.09
684.073	26.93
684.259	26.85
684.446	27.14
684.632	27.59
684.819	27.85
685.005	27.79
685.192	27.73
685.378	27.46
685.565	27.22
685.751	26.98
685.938	27.03
686.124	26.93
686.31	27.04
686.497	27.06
686.683	26.79
686.87	26.57
687.056	26.84
687.242	27.17
687.429	27.38
687.615	27.76
687.801	27.63
687.987	27.53
688.174	27.39
688.36	27.48
688.546	27.28
688.732	27.32
688.918	27.31
689.105	27.23
689.291	27
689.477	26.87
689.663	26.69
689.849	26.8
690.035	26.71
690.221	26.72
690.407	26.51
690.593	26.59
690.779	26.58
690.965	26.72
691.151	26.87
691.337	26.78
691.523	27.03
691.709	27.26
691.895	27.81
692.081	28.19
692.267	28.56
692.453	28.42
692.639	28.6
692.825	28.73
693.011	28.47
693.196	28.59
693.382	28.75
693.568	28.85
693.754	28.59
693.94	27.91
694.125	27.72
694.311	27.8
694.497	28.04
694.682	27.89
694.868	27.72
695.054	28.11
695.239	27.94
695.425	27.7
695.611	27.82
695.796	27.79
695.982	27.91
696.168	27.79
696.353	27.72
696.539	27.71
696.724	27.64
696.91	27.67
697.095	27.64
697.281	27.35
697.466	27.54
697.652	27.31
697.837	27.35
698.023	27.34
698.208	27.32
698.393	27.38
698.579	27.35
698.764	27.3
698.949	27.21
699.135	27.09
699.32	27.29
699.505	27.14
699.691	27.11
699.876	27.04
700.061	27.04
700.246	26.95
700.432	26.8
700.617	26.89
700.802	27.11
700.987	27.17
701.172	27.48
701.358	27.31
701.543	27.47
701.728	27.5
701.913	27.46
702.098	27.55
702.283	27.87
702.468	27.93
702.653	27.63
702.838	27.7
703.023	27.97
703.208	27.66
703.393	27.87
703.578	27.81
703.763	27.98
703.948	28.47
704.133	28.43
704.318	28.62
704.503	28.2
704.688	28.51
704.873	28.84
705.057	28.75
705.242	28.59
705.427	28.29
705.612	28.11
705.797	27.97
705.981	27.93
706.166	27.93
706.351	27.87
706.536	28.23
706.72	28.15
706.905	27.64
707.09	27.64
707.274	28.18
707.459	28.74
707.644	29.14
707.828	29.33
708.013	29.15
708.197	29.22
708.382	29.31
708.567	29.22
708.751	29.56
708.936	29.88
709.12	29.73
709.305	29.52
709.489	29.09
709.673	28.61
709.858	28.48
710.042	28.38
710.227	28.53
710.411	28.37
710.596	28.52
710.78	28.26
710.964	27.84
711.149	27.92
711.333	28.27
711.517	28.3
711.702	28.82
711.886	28.8
712.07	28.81
712.254	28.39
712.438	28.13
712.623	28.08
712.807	28.23
712.991	28.92
713.175	28.76
713.359	28.31
713.544	28.64
713.728	28.37
713.912	28.52
714.096	28.64
714.28	28.64
714.464	28.93
714.648	28.98
714.832	28.74
715.016	28.32
715.2	28.51
715.384	28.68
715.568	28.57
715.752	28.9
715.936	28.73
716.12	28.73
716.304	29.15
716.488	29.16
716.671	29.28
716.855	29.55
717.039	29.55
717.223	29.73
717.407	29.46
717.59	29.11
717.774	28.93
717.958	29.21
718.142	29.29
718.325	29.3
718.509	29.3
718.693	29.14
718.877	29.21
719.06	29.19
719.244	29.17
719.428	28.99
719.611	29.53
719.795	29.68
719.978	29.8
720.162	29.45
720.345	29.03
720.529	29.26
720.713	28.86
720.896	28.6
721.08	28.61
721.263	28.07
721.446	28.19
721.63	28.09
721.813	27.7
721.997	27.02
722.18	27.17
722.364	27.31
722.547	26.73
722.73	26.99
722.914	27.03
723.097	27.52
723.28	27.95
723.464	28.17
723.647	28.1
723.83	27.89
724.013	28.3
724.197	28.02
724.38	28.08
724.563	28.44
724.746	28.57
724.929	28.94
725.112	28.22
725.296	28.41
725.479	28.49
725.662	28.38
725.845	28.68
726.028	28.4
726.211	28.83
726.394	28.64
726.577	28.12
726.76	27.89
726.943	27.54
727.126	27.76
727.309	27.29
727.492	26.95
727.675	27.17
727.858	27.44
728.041	27.76
728.224	27.84
728.407	28.28
728.589	28.56
728.772	28.58
728.955	28.62
729.138	28.44
729.321	28.53
729.503	28.67
729.686	28.5
729.869	28.55
730.052	28.69
730.234	28.63
730.417	28.48
730.6	28.38
730.782	28.25
730.965	28.92
731.148	29.36
731.33	29.4
731.513	29.52
731.695	29.84
731.878	29.71
732.061	29.56
732.243	29.67
732.426	29.45
732.608	29.6
732.791	29.51
732.973	29.09
733.156	28.6
733.338	29.07
733.52	29.15
733.703	28.88
733.885	28.99
734.068	29.08
734.25	28.62
734.432	28.8
734.615	28.99
734.797	29.37
734.979	29.16
735.162	29.57
735.344	29.09
735.526	28.84
735.708	28.97
735.891	28.94
736.073	29.15
736.255	29.27
736.437	29.21
736.619	28.81
736.802	28.9
736.984	28.36
737.166	28.49
737.348	28.85
737.53	28.89
737.712	28.75
737.894	28.61
738.076	28.3
738.258	28.49
738.44	28.62
738.622	29.04
738.804	29.05
738.986	29.63
739.168	29
739.35	28.67
739.532	28.58
739.714	28.26
739.896	28.26
740.078	28.58
740.259	28.76
740.441	28.74
740.623	28.46
740.805	28.31
740.987	28.41
741.168	29.15
741.35	29.3
741.532	29.96
741.714	30.47
741.895	30.88
742.077	29.96
742.259	29.56
742.44	29.52
742.622	30.06
742.804	30.02
742.985	29.72
743.167	29.63
743.348	29.39
743.53	29.47
743.711	28.54
743.893	28.58
744.075	29.77
744.256	30.01
744.438	30.12
744.619	30.01
744.8	30.23
744.982	30.24
745.163	29.94
745.345	30.14
745.526	29.85
745.707	30.49
745.889	30.81
746.07	30.67
746.252	31.09
746.433	30.98
746.614	30.94
746.795	30.53
746.977	30.98
747.158	30.69
747.339	30.37
747.52	29.81
747.702	29.81
747.883	29.56
748.064	29.4
748.245	29.02
748.426	28.59
748.607	28.21
748.788	28.57
748.97	28.7
749.151	28.48
749.332	29.02
749.513	28.8
749.694	29.15
749.875	29.02
750.056	28.64
750.237	28.87
750.418	29.58
750.599	29.16
750.78	28.44
750.96	27.95
751.141	28.47
751.322	28.1
751.503	28.59
751.684	28.35
751.865	28.57
752.046	29.09
752.226	28.9
752.407	28.79
752.588	29.48
752.769	29.94
752.949	29.69
753.13	29.35
753.311	30.04
753.492	29.76
753.672	29.88
753.853	29.57
754.034	28.76
754.214	28.72
754.395	28.79
754.575	28.8
754.756	29.13
754.937	29.73
755.117	30.43
755.298	29.83
755.478	30.29
755.659	30.57
755.839	29.52
756.02	30.21
756.2	30.28
756.381	30.06
756.561	30.76
756.741	30.37
756.922	30.05
757.102	29.66
757.283	29.39
757.463	28.81
757.643	28.68
757.823	28.9
758.004	28.85
758.184	28.35
758.364	28.6
758.545	27.91
758.725	28.19
758.905	28.24
759.085	28.24
759.265	28.68
759.446	29.13
759.626	28.79
759.806	28.88
759.986	29.18
760.166	29.54
760.346	29.64
760.526	29.44
760.706	29.05
760.886	29.09
761.066	29.79
761.246	29.9
761.426	29.76
761.606	29.95
761.786	30.34
761.966	30.09
762.146	29.88
762.326	29.55
762.506	30.02
762.686	30.28
762.866	30.35
763.046	30.25
763.225	29.95
763.405	29.9
763.585	29.72
763.765	29.46
763.945	29.27
764.124	30.04
764.304	30.04
764.484	29.55
764.664	29.4
764.843	29.38
765.023	29
765.203	28.96
765.382	29.17
765.562	29.09
765.741	28.78
765.921	29.01
766.101	27.98
766.28	27.98
766.46	28.42
766.639	28.39
766.819	28.79
766.998	28.37
767.178	28.79
767.357	28.79
767.537	29.36
767.716	29.9
767.896	29.86
768.075	30.22
768.254	29.87
768.434	29.48
768.613	29.66
768.792	29.3
768.972	30.14
769.151	29.97
769.33	30.36
769.51	30.39
769.689	30.3
769.868	29.84
770.047	29.73
770.226	30.41
770.406	31.09
770.585	31.06
770.764	30.85
770.943	30.4
771.122	29.94
771.301	29.69
771.48	29.48
771.66	30.14
771.839	30.23
772.018	29.86
772.197	29.7
772.376	29.1
772.555	29.62
772.734	29.04
772.913	28.83
773.092	28.58
773.271	28.47
773.449	28.32
773.628	27.68
773.807	28.45
773.986	28.85
774.165	29.19
774.344	29.72
774.523	29.33
774.701	29.76
774.88	29.92
775.059	29.57
775.238	29.37
775.417	29.62
775.595	29.55
775.774	29.2
775.953	29.04
776.131	28.81
776.31	28.14
776.489	28.43
776.667	29.49
776.846	29.88
777.025	30.79
777.203	30.86
777.382	31.48
777.56	31.84
777.739	31.92
777.917	31.82
778.096	31.88
778.274	32.92
778.453	32.88
778.631	31.97
778.81	31.32
778.988	31.93
779.166	31.9
779.345	31.84
779.523	31.38
779.702	31.47
779.88	31.69
780.058	31.08
780.237	30.14
780.415	28.84
780.593	29.29
780.771	29.86
780.95	28.9
781.128	29.46
781.306	28.38
781.484	28.68
781.662	29.17
781.841	29.08
782.019	29.54
782.197	29.42
782.375	30.63
782.553	30.69
782.731	30.69
782.909	30.91
783.087	30.25
783.265	30.81
783.443	30.53
783.621	29.47
783.799	28.88
783.977	29.09
784.155	29.98
784.333	30
784.511	29.55
784.689	28.93
784.867	29.28
785.045	29.25
785.223	29.5
785.4	30.15
785.578	30.61
785.756	31.36
785.934	31.47
786.112	31.03
786.289	31.01
786.467	31.39
786.645	31.58
786.823	30.84
787	30.94
787.178	29.61
787.356	28.97
787.533	28.42
787.711	28.92
787.889	28.84
788.066	28.96
788.244	28.88
788.421	27.3
788.599	27.86
788.776	28.58
788.954	28.09
789.131	29.13
789.309	28.86
789.486	29.33
789.664	29.51
789.841	29.1
790.019	28.95
790.196	29.79
790.373	30.79
790.551	30.44
790.728	30.49
790.906	30.82
791.083	30.76
791.26	31.21
791.437	31.34
791.615	29.96
791.792	30.51
791.969	29.73
792.146	29.01
792.324	29.19
792.501	29.61
792.678	29
792.855	29.2
793.032	29.32
793.209	30.14
793.387	29.9
793.564	31.12
793.741	30.52
793.918	31.23
794.095	31.05
794.272	31.21
794.449	29.69
794.626	30.24
794.803	31.13
794.98	30.79
795.157	29.9
795.334	29.34
795.511	28.62
795.688	28.73
795.864	28.2
796.041	28.12
796.218	28.57
796.395	30.39
796.572	30.04
796.749	30.02
796.925	30.44
797.102	31.32
797.279	31.59
797.456	31.42
797.632	31.99
797.809	31.8
797.986	32.02
798.162	31.92
798.339	30.76
798.516	30.69
798.692	29.48
798.869	29.16
799.046	28.9
799.222	29.08
799.399	30.33
799.575	30.23
799.752	31.73
799.928	31.07
800.105	30.64
800.281	31.02
800.458	31.07
800.634	32.16
800.811	32.63
800.987	31.6
801.163	31.7
801.34	31.07
801.516	30.87
801.692	30.56
801.869	30.83
802.045	31.57
802.221	31.89
802.398	34.11
802.574	33.79
802.75	33.77
802.926	34.52
803.103	34.47
803.279	33.48
803.455	34.28
803.631	33.42
803.807	34.21
803.983	33.61
804.16	33.11
804.336	31.36
804.512	31.63
804.688	30.78
804.864	30.89
805.04	30.26
805.216	31.44
805.392	30.62
805.568	31.11
805.744	31.2
805.92	30.85
806.096	31.21
806.272	30.1
806.448	29.14
806.623	30.07
806.799	29.77
806.975	31.19
807.151	30.09
807.327	29.53
807.503	28.79
807.678	28.21
807.854	28.23
808.03	27.68
808.206	27.98
808.381	29.08
808.557	28.28
808.733	28.21
808.908	28.7
809.084	29.13
809.26	29.86
809.435	29.89
809.611	29.82
809.787	30.14
809.962	30.64
810.138	30.97
810.313	30.09
810.489	31.14
810.664	31.53
810.84	29.87
811.015	28.81
811.191	28.21
811.366	29.25
811.542	28.7
811.717	29.6
811.892	29.95
812.068	30.64
812.243	30.64
812.419	30.41
812.594	29.17
812.769	30.01
812.944	32.02
813.12	32
813.295	31.23
813.47	32.33
813.645	29.96
813.821	29.37
813.996	28.95
814.171	28.98
814.346	29.18
814.521	31.73
814.697	31.43
814.872	30.47
815.047	31.33
815.222	30.72
815.397	30.54
815.572	32.65
815.747	33.33
815.922	33.51
816.097	33.83
816.272	32.11
816.447	30.67
816.622	30.4
816.797	31.25
816.972	31.25
817.147	32
817.322	31.87
817.496	30.9
817.671	30.75
817.846	30.44
818.021	30.29
818.196	30.93
818.371	30.49
818.545	32
818.72	32.25
818.895	32.37
819.069	32.91
819.244	32.16
819.419	31.82
819.594	31.57
819.768	31.95
819.943	31.92
820.117	32.6
820.292	31.89
820.467	30.61
820.641	30.32
820.816	30.12
820.99	29.9
821.165	30.26
821.339	30.18
821.514	30.07
821.688	30.03
821.863	29.79
822.037	29.38
822.212	29.69
822.386	30.09
822.56	30.13
822.735	30.12
822.909	30.14
823.084	30.24
823.258	30.26
823.432	30.27
823.606	30.12
823.781	30.26
823.955	30.64
824.129	30.7
824.303	30.59
824.478	30.46
824.652	30.05
824.826	30.09
825	29.73
825.174	29.61
825.348	30.03
825.523	29.83
825.697	29.75
825.871	29.93
826.045	29.89
826.219	29.83
826.393	29.42
826.567	29.32
826.741	29.19
826.915	28.98
827.089	29.4
827.263	28.91
827.437	29.42
827.611	29.1
827.784	28.83
827.958	28.85
828.132	28.99
828.306	29.46
828.48	29.99
828.654	29.66
828.827	29.95
829.001	29.52
829.175	29.85
829.349	29.89
829.522	30.52
829.696	29.43
829.87	29.1
830.044	28.46
830.217	28.46
830.391	28.7
830.565	29.07
830.738	29.56
830.912	30.19
831.085	29.95
831.259	29.5
831.432	30.48
831.606	31.55
831.779	31.52
831.953	31.85
832.126	31.59
832.3	31.65
832.473	31.85
832.647	30.98
832.82	31.57
832.994	31.72
833.167	31.44
833.34	30.26
833.514	30.07
833.687	29.67
833.86	30.01
834.034	29.91
834.207	30.01
834.38	29.85
834.553	30.51
834.727	30.13
834.9	30.39
835.073	31.07
835.246	32.2
835.419	32.5
835.593	33.09
835.766	32.34
835.939	33.49
836.112	33.51
836.285	33.69
836.458	34.05
836.631	33.24
836.804	33.22
836.977	34.31
837.15	34.41
837.323	34.77
837.496	33.85
837.669	33.04
837.842	31.68
838.015	32.82
838.188	32.26
838.361	31.79
838.533	31.81
838.706	33.26
838.879	30.31
839.052	29.46
839.225	29.04
839.398	30.42
839.57	33.02
839.743	33.07
839.916	32.25
840.088	32.84
840.261	32.6
840.434	32.91
840.607	30.07
840.779	31.35
840.952	33.05
841.124	32.72
841.297	33.81
841.47	33.7
841.642	33.05
841.815	32.8
841.987	33.64
842.16	34.69
842.332	34.61
842.505	36.32
842.677	35.24
842.85	33.04
843.022	34.01
843.194	32.89
843.367	33.07
843.539	34.31
843.712	32.92
843.884	31.18
844.056	29.25
844.229	30.86
844.401	28.48
844.573	30.58
844.745	30.89
844.918	29.39
845.09	29.11
845.262	27.51
845.434	28.92
845.606	32.08
845.779	31.86
845.951	31.1
846.123	30.25
846.295	32.58
846.467	31
846.639	29.79
846.811	33.58
846.983	33.02
847.155	33.7
847.327	30.93
847.499	30.05
847.671	32.97
847.843	37.42
848.015	36.65
848.187	34.2
848.359	33.75
848.531	32.04
848.703	28.75
848.875	27.28
849.047	29.15
849.218	32.86
849.39	31.39
849.562	30.67
849.734	29.01
849.905	32.82
850.077	33.85
850.249	36.09
850.421	37.59
850.592	39.28
850.764	42.92
850.936	42.99
851.107	37.3
851.279	36.9
851.451	38.03
851.622	37.87
851.794	37.13
851.965	38.78
852.137	35.54
852.308	34.33
852.48	35.52
852.651	36.52
852.823	34.04
852.994	34.07
853.166	34.71
853.337	34.26
853.509	34.19
853.68	33.85
853.851	34.21
854.023	31.97
854.194	35.64
854.365	35.74
854.537	33.53
854.708	34.39
854.879	38.28
855.05	38.34
855.222	37.92
855.393	36.73
855.564	36.71
855.735	38.04
855.906	45.02
856.078	44.35
856.249	45.25
856.42	43.91
856.591	47.21
856.762	48.04
856.933	50.36
857.104	46.5
857.275	46.55
857.446	46.54
857.617	46.38
857.788	40.17
857.959	43.46
858.13	43.25
858.301	44.69
858.472	37.42
858.643	34.19
858.814	35.04
858.985	41.72
859.155	40.04
859.326	38.68
859.497	34.39
859.668	34.95
859.839	33.92
860.009	30.48
860.18	31.01
860.351	33.58
860.522	39.81
860.692	37.8
860.863	31.96
861.034	34.61
861.204	31.12
861.375	32.32
861.546	33.07
861.716	32.22
861.887	30.52
862.057	30.37
862.228	32.31
862.398	25.99
862.569	26.2
862.739	31.4
862.91	32.84
863.08	35.45
863.251	39.61
863.421	40.83
863.592	37.59
863.762	46.83
863.932	47.88
864.103	43.45
864.273	45.54
864.443	43.42
864.614	36.87
864.784	34.83
864.954	37.45
865.125	32.88
865.295	34.39
865.465	36.66
865.635	31.01
865.805	29.38
865.976	32.43
866.146	31.16
866.316	33.32
866.486	38.38
866.656	37.61
866.826	34.82
866.996	33.8
867.166	37.44
867.336	41.55
867.506	45.98
867.676	48.71
867.846	45
868.016	44.14
868.186	39
868.356	36.74
868.526	35.09
868.696	35.91
868.866	38.69
869.036	29.89
869.206	24.7
869.376	18.71
869.545	15.54
869.715	19.48
869.885	23.65
870.055	28.69
870.224	31.99
870.394	33.78
870.564	38.37
870.734	35.81
870.903	37.49
871.073	43
871.243	41.18
871.412	45.08
871.582	45.15
871.751	44.45
871.921	46.63
872.091	46.01
872.26	46.03
872.43	43.92
872.599	45.47
872.769	44.82
872.938	39.55
873.108	40.48
873.277	39.04
873.446	36.82
873.616	36.86
873.785	39.34
873.955	38.37
874.124	37.02
874.293	33.32
874.463	31.95
874.632	37.86
874.801	40.89
874.971	33.81
875.14	34.52
875.309	34.99
875.478	33.17
875.647	27.48
875.817	28.38
875.986	30.99
876.155	37.42
876.324	41.46
876.493	41.05
876.662	36.57
876.831	43.62
877	40.58
877.17	39.13
877.339	41.77
877.508	42.51
877.677	40.18
877.846	40.32
878.015	33.09
878.184	23.12
878.352	18.91
878.521	22.98
878.69	21.68
878.859	23.57
879.028	26.5
879.197	26.62
879.366	25.82
879.534	27.6
879.703	29.85
879.872	31.97
880.041	35.44
880.21	35.71
880.378	34.99
880.547	35.94
880.716	35.37
880.884	35.23
881.053	33.9
881.222	34.45
881.39	34.47
881.559	33.46
881.727	34.15
881.896	34.26
882.065	34.2
882.233	33.43
882.402	32.15
882.57	32.6
882.739	32.23
882.907	32.43
883.076	32.31
883.244	31.77
883.412	31.96
883.581	30.94
883.749	30.51
883.918	30.08
884.086	31.21
884.254	32.38
884.423	31.55
884.591	32.09
884.759	32.74
884.927	32.55
885.096	33.56
885.264	33.66
885.432	35.06
885.6	35.55
885.769	35.38
885.937	35.37
886.105	35.72
886.273	37.23
886.441	36.77
886.609	34.91
886.777	35.53
886.945	35.43
887.113	36.73
887.281	34.82
887.449	34.5
887.617	36.49
887.785	35.57
887.953	34.98
888.121	34
888.289	34.75
888.457	35.39
888.625	35.38
888.793	32.84
888.961	32.08
889.129	32.17
889.296	34.83
889.464	34.2
889.632	34.29
889.8	33.81
889.967	32.67
890.135	33.25
