Data from 2938473_Reflection_2.txt Node
Date: Wed Jun 17 13:26:33 EDT 2015
User: robert
Spectrometer: USB4E03002
Autoset integration time: false
Trigger mode: 4
Integration Time (sec): 1.000000E-1
Scans to average: 10
Electric dark correction enabled: true
Nonlinearity correction enabled: false
Boxcar width: 5
Stray light correction enabled: false
XAxis mode: Wavelengths
Stop averaging: false
Number of Pixels in Spectrum: 3648
>>>>>Begin Spectral Data<<<<<
177.575	175.15
177.794	46.53
178.014	35.26
178.233	31.11
178.452	-4.22
178.672	-19.35
178.891	8.69
179.11	-142.26
179.33	-117.23
179.549	-270.4
179.768	-484.25
179.987	-263.74
180.207	-174.58
180.426	-266.22
180.645	-393.49
180.864	-81.85
181.084	-74.41
181.303	-63.59
181.522	-40.06
181.741	-68.05
181.96	-67.14
182.179	-73.1
182.398	-209.68
182.618	249.29
182.837	316.89
183.056	176.96
183.275	93.12
183.494	66.36
183.713	96.95
183.932	116.47
184.151	168.49
184.37	151.8
184.589	161.14
184.808	177.48
185.027	196.33
185.246	227.57
185.465	223.6
185.684	282.11
185.903	2420.98
186.122	303.51
186.341	219.38
186.56	162.64
186.779	237.82
186.998	402.12
187.216	555.33
187.435	260
187.654	265.05
187.873	419.08
188.092	2452.01
188.311	1083.56
188.53	-703.86
188.748	-253.89
188.967	-269.79
189.186	-374.47
189.405	-290.96
189.623	-157.98
189.842	-13.14
190.061	-34.52
190.28	-57.09
190.498	-124.59
190.717	-316.63
190.936	-500.54
191.154	725.62
191.373	-4983.33
191.592	-1840.9
191.81	704.8
192.029	704.17
192.248	365.11
192.466	332.28
192.685	398.54
192.904	882.87
193.122	2207.6
193.341	4165.59
193.559	-617.88
193.778	-620.05
193.996	-564.42
194.215	-155.79
194.433	-199.65
194.652	-255.58
194.87	-399.36
195.089	-623.47
195.307	882.06
195.526	847.78
195.744	380.68
195.963	283.93
196.181	227.75
196.399	192.63
196.618	168.52
196.836	137.63
197.055	123.17
197.273	148.32
197.491	195.39
197.71	210.66
197.928	145.82
198.146	119.43
198.365	99.2
198.583	63.26
198.801	66.59
199.019	145.63
199.238	169.4
199.456	152.58
199.674	151.92
199.892	102.59
200.111	104.45
200.329	123.52
200.547	138.74
200.765	185.77
200.983	188.97
201.202	171.45
201.42	80.45
201.638	168.31
201.856	199.69
202.074	164.88
202.292	189.28
202.51	176.24
202.728	100.61
202.946	73.6
203.165	61.48
203.383	52.15
203.601	71.6
203.819	69.26
204.037	52.68
204.255	77.75
204.473	95.44
204.691	134.76
204.909	126.47
205.127	159.48
205.345	248.1
205.562	296.21
205.78	369.33
205.998	477.05
206.216	299.78
206.434	595.42
206.652	110.3
206.87	91.02
207.088	38.66
207.306	62.36
207.523	69.61
207.741	63.91
207.959	82.52
208.177	71.98
208.395	68.02
208.612	85.9
208.83	95.63
209.048	99.88
209.266	142.56
209.483	213.09
209.701	252
209.919	99.33
210.136	67.42
210.354	41.54
210.572	83.06
210.79	13.39
211.007	33.65
211.225	12.4
211.442	82.57
211.66	25.46
211.878	49.36
212.095	157.36
212.313	212.72
212.53	183.82
212.748	185.82
212.966	166.01
213.183	176.62
213.401	168.5
213.618	168.86
213.836	151.08
214.053	173.05
214.271	187.04
214.488	84.02
214.705	74.39
214.923	69.96
215.14	71.68
215.358	66.37
215.575	65.49
215.793	70.68
216.01	54.54
216.227	56.47
216.445	40.6
216.662	43.09
216.879	56.2
217.097	55.81
217.314	54.47
217.531	62.76
217.749	52.26
217.966	58.13
218.183	59.64
218.4	64.48
218.618	73.31
218.835	70.91
219.052	64.59
219.269	58.92
219.487	56.71
219.704	48.05
219.921	41.51
220.138	43.33
220.355	41.89
220.572	39.74
220.79	37.97
221.007	30.55
221.224	24.51
221.441	32.93
221.658	34.94
221.875	40.24
222.092	40.45
222.309	27.48
222.526	25.62
222.743	19.24
222.96	17.98
223.177	16.81
223.394	19.4
223.611	19.37
223.828	18.43
224.045	19.56
224.262	18.02
224.479	16.13
224.696	22.07
224.913	20.43
225.13	18.7
225.347	14.84
225.564	15.41
225.781	13.33
225.997	13.04
226.214	11.77
226.431	9.66
226.648	11.6
226.865	12.38
227.082	12.48
227.298	12.42
227.515	11.81
227.732	12.53
227.949	12.38
228.165	12.42
228.382	12.21
228.599	12.26
228.816	11.96
229.032	10.22
229.249	10.79
229.466	10.07
229.682	11.65
229.899	12.05
230.116	12.93
230.332	14.59
230.549	14.66
230.765	16.96
230.982	16.88
231.199	17.89
231.415	20.64
231.632	19.72
231.848	20.47
232.065	18.78
232.281	19.2
232.498	17.62
232.714	15.44
232.931	16.46
233.147	16.65
233.364	16.93
233.58	17.1
233.797	16.97
234.013	17.89
234.23	17.55
234.446	16.18
234.662	16.41
234.879	17.36
235.095	17.23
235.312	17.7
235.528	15.95
235.744	17.98
235.961	16.79
236.177	14.82
236.393	13.91
236.61	13.45
236.826	12.96
237.042	12.99
237.258	13.82
237.475	15.26
237.691	16.02
237.907	15.74
238.123	15.51
238.339	17.72
238.556	18.82
238.772	18.36
238.988	16.69
239.204	16.63
239.42	16.76
239.636	15.89
239.853	14.66
240.069	13.22
240.285	13.52
240.501	12.38
240.717	11.26
240.933	11.2
241.149	11.55
241.365	11.77
241.581	11.95
241.797	11.86
242.013	11.66
242.229	10.98
242.445	11.69
242.661	11.34
242.877	11.3
243.093	10.68
243.309	10.25
243.525	10.19
243.741	10.27
243.957	10.07
244.173	9.65
244.388	10.13
244.604	10.73
244.82	10.49
245.036	10.34
245.252	9.94
245.468	10.7
245.683	10.54
245.899	10.15
246.115	10.34
246.331	10.59
246.547	10.36
246.762	10.3
246.978	10.4
247.194	10.36
247.409	10.14
247.625	10.88
247.841	10.85
248.057	11
248.272	11.14
248.488	10.96
248.703	10.55
248.919	11.15
249.135	10.36
249.35	11.1
249.566	11.28
249.782	11.39
249.997	11.12
250.213	10.17
250.428	10.13
250.644	10.64
250.859	10.64
251.075	10.72
251.29	10.42
251.506	10.05
251.721	9.49
251.937	9.27
252.152	9.88
252.368	9.97
252.583	10.87
252.798	11
253.014	10.09
253.229	9.85
253.445	10.08
253.66	10.48
253.875	11.21
254.091	10.67
254.306	10.36
254.521	9.82
254.737	9.49
254.952	9
255.167	8.99
255.383	8.79
255.598	9.84
255.813	9.49
256.028	9.24
256.244	9.83
256.459	9.94
256.674	10.38
256.889	10.23
257.104	9.69
257.32	9.6
257.535	9.12
257.75	9.39
257.965	8.97
258.18	8.91
258.395	8.82
258.61	8.71
258.826	8.57
259.041	8.54
259.256	8.75
259.471	9.01
259.686	9.12
259.901	9.29
260.116	9.54
260.331	9.08
260.546	9.37
260.761	9.21
260.976	9.28
261.191	8.97
261.406	8.91
261.621	8.44
261.836	8.25
262.05	7.88
262.265	7.76
262.48	7.64
262.695	8.22
262.91	8.3
263.125	8.47
263.34	8.87
263.555	8.84
263.769	8.67
263.984	8.71
264.199	8.63
264.414	8.61
264.629	8.8
264.843	7.59
265.058	7.93
265.273	7.3
265.488	7.09
265.702	6.57
265.917	7.02
266.132	6.55
266.346	6.19
266.561	6.44
266.776	6.6
266.99	6.77
267.205	7.03
267.42	7.12
267.634	7.87
267.849	8.37
268.063	8.42
268.278	8.35
268.492	9.16
268.707	9.27
268.922	8.9
269.136	8.66
269.351	8.22
269.565	8.94
269.78	8.86
269.994	8.64
270.209	8.58
270.423	8.37
270.637	8.58
270.852	8.01
271.066	8.09
271.281	8.44
271.495	8.27
271.709	8.45
271.924	8.07
272.138	7.64
272.353	7.47
272.567	6.71
272.781	7.17
272.996	7.06
273.21	7.81
273.424	8.21
273.638	8.11
273.853	8.08
274.067	8.32
274.281	8.73
274.495	9.2
274.71	9.06
274.924	9.81
275.138	9.72
275.352	9.06
275.566	8.49
275.781	8.27
275.995	8.35
276.209	9.33
276.423	9.01
276.637	8.63
276.851	8.9
277.065	9.07
277.279	8.75
277.493	8.44
277.707	8.99
277.921	9.28
278.135	9.01
278.349	8.77
278.563	8.04
278.777	7.93
278.991	7.57
279.205	7.39
279.419	7.17
279.633	7.36
279.847	7.49
280.061	7.69
280.275	7.19
280.489	7.15
280.703	7.12
280.917	7.13
281.131	7.39
281.344	7.9
281.558	7.42
281.772	7.13
281.986	7.65
282.2	7.84
282.414	7.64
282.627	7.43
282.841	7.71
283.055	8.01
283.269	8.05
283.482	7.86
283.696	7.64
283.91	7.82
284.123	8.33
284.337	7.64
284.551	7.6
284.764	7.69
284.978	8.18
285.192	8.12
285.405	7.66
285.619	7.79
285.833	8.19
286.046	8.11
286.26	8.67
286.473	8.41
286.687	8.68
286.9	7.77
287.114	7.98
287.327	7.68
287.541	7.76
287.754	8.25
287.968	8.09
288.181	8
288.395	8.13
288.608	7.62
288.822	7.7
289.035	7.88
289.248	8.53
289.462	8.18
289.675	8.3
289.889	8.55
290.102	8.31
290.315	8.14
290.529	7.95
290.742	8.05
290.955	8.26
291.169	8.65
291.382	8.71
291.595	9.08
291.808	9.71
292.022	9.59
292.235	9.19
292.448	9.56
292.661	9.83
292.875	9.99
293.088	9.92
293.301	10.02
293.514	9.82
293.727	9.7
293.94	9.67
294.153	9.3
294.367	9.44
294.58	9.52
294.793	9.36
295.006	9.59
295.219	9.47
295.432	9.29
295.645	8.98
295.858	8.83
296.071	8.76
296.284	8.62
296.497	8.45
296.71	8.08
296.923	7.74
297.136	7.61
297.349	7.22
297.562	7.33
297.775	7.46
297.988	7.83
298.201	7.53
298.414	7.39
298.626	7.22
298.839	7.41
299.052	7.71
299.265	8.03
299.478	8.01
299.691	7.94
299.903	7.79
300.116	7.67
300.329	7.81
300.542	7.9
300.755	8.48
300.967	8.41
301.18	7.98
301.393	8.25
301.605	7.9
301.818	7.57
302.031	7.48
302.243	7.17
302.456	7.45
302.669	6.86
302.881	7.82
303.094	7.61
303.307	8.21
303.519	8.64
303.732	8.6
303.944	8.87
304.157	9.41
304.37	9.9
304.582	10.03
304.795	9.86
305.007	9.96
305.22	9.11
305.432	8.89
305.645	8.7
305.857	9.12
306.069	8.95
306.282	8.61
306.494	8.33
306.707	7.83
306.919	7.85
307.132	7.24
307.344	7.89
307.556	7.64
307.769	7.57
307.981	7.63
308.193	7.25
308.406	7.34
308.618	7.79
308.83	8.04
309.043	8.35
309.255	8.37
309.467	8.75
309.679	8.36
309.892	8.93
310.104	8.92
310.316	9.12
310.528	8.97
310.74	8.95
310.953	9.24
311.165	8.9
311.377	8.4
311.589	9.07
311.801	8.97
312.013	9.23
312.225	9.06
312.437	9.01
312.649	8.66
312.862	8.77
313.074	9.2
313.286	8.98
313.498	9.9
313.71	10.88
313.922	10.3
314.134	10.87
314.346	10.95
314.558	11.4
314.77	11.64
314.982	11.9
315.193	12.18
315.405	12.37
315.617	11.65
315.829	10.63
316.041	10.25
316.253	9.94
316.465	9.97
316.677	9.33
316.888	9.06
317.1	8.92
317.312	8.55
317.524	9.05
317.736	9.33
317.947	10.55
318.159	11.1
318.371	10.83
318.583	11
318.794	10.19
319.006	10.63
319.218	10.27
319.43	10.5
319.641	10.81
319.853	9.98
320.064	9.44
320.276	9.32
320.488	9.06
320.699	9.45
320.911	9.93
321.123	11.04
321.334	11.07
321.546	11.26
321.757	11.71
321.969	11.58
322.18	11.48
322.392	11.71
322.603	11.96
322.815	11.66
323.026	11.22
323.238	10.33
323.449	9.46
323.661	9.52
323.872	9.95
324.083	9.75
324.295	10.02
324.506	10.19
324.718	9.88
324.929	8.77
325.14	8.93
325.352	9.27
325.563	9.65
325.774	9.69
325.986	9.37
326.197	8.86
326.408	8.95
326.62	8.47
326.831	8.49
327.042	8.53
327.253	8.62
327.464	8.87
327.676	9.08
327.887	8.96
328.098	9.17
328.309	9.46
328.52	9.85
328.732	9.41
328.943	9.69
329.154	9.63
329.365	9.74
329.576	9.78
329.787	10.34
329.998	10.29
330.209	10.77
330.42	11.03
330.631	11.09
330.842	11.09
331.053	11.28
331.264	10.93
331.475	11.05
331.686	11.12
331.897	11.97
332.108	11.14
332.319	10.8
332.53	10.9
332.741	11.35
332.952	11.39
333.163	10.87
333.374	10.5
333.585	10.64
333.795	10.58
334.006	10.23
334.217	9.8
334.428	10.02
334.639	10.68
334.849	10.06
335.06	9.28
335.271	9.38
335.482	9.49
335.692	9.8
335.903	9.95
336.114	10.05
336.325	10.36
336.535	10.18
336.746	10.74
336.957	10.58
337.167	10.94
337.378	11.48
337.589	11.24
337.799	11.61
338.01	11.75
338.22	11.77
338.431	11.91
338.642	11.93
338.852	11.72
339.063	11.2
339.273	10.76
339.484	10.47
339.694	9.69
339.905	9.52
340.115	9.29
340.326	9.55
340.536	9.47
340.746	9.15
340.957	9.06
341.167	9.14
341.378	9.06
341.588	9.64
341.799	9.59
342.009	9.78
342.219	10.01
342.43	9.81
342.64	9.79
342.85	9.4
343.061	9.89
343.271	10.11
343.481	10.27
343.691	10.13
343.902	9.69
344.112	9.96
344.322	10.21
344.532	9.71
344.743	10.06
344.953	9.38
345.163	9.32
345.373	8.65
345.583	8.03
345.793	8.1
346.004	8.46
346.214	8.5
346.424	8.68
346.634	8.61
346.844	8.91
347.054	8.53
347.264	8.8
347.474	9.39
347.684	9.48
347.894	9.44
348.104	9.52
348.314	8.93
348.524	8.73
348.734	8.36
348.944	8.42
349.154	8.51
349.364	8.9
349.574	9.12
349.784	8.92
349.994	9.46
350.204	9.92
350.413	9.73
350.623	10.09
350.833	9.7
351.043	9.54
351.253	9.41
351.463	9.47
351.672	9.22
351.882	9.11
352.092	9.02
352.302	8.69
352.511	8.64
352.721	8.86
352.931	8.53
353.141	8.53
353.35	8.87
353.56	8.69
353.77	8.54
353.979	8.78
354.189	8.43
354.399	8.58
354.608	8.41
354.818	8.19
355.027	8.08
355.237	8.41
355.447	8.91
355.656	8.8
355.866	8.72
356.075	8.74
356.285	8.7
356.494	8.71
356.704	8.49
356.913	8.94
357.123	9.03
357.332	8.76
357.542	8.54
357.751	8.34
357.96	8.36
358.17	8.65
358.379	8.6
358.589	8.15
358.798	8.11
359.007	8.36
359.217	8.04
359.426	7.81
359.635	7.79
359.845	8.09
360.054	8.1
360.263	7.95
360.472	7.88
360.682	8.11
360.891	8.33
361.1	8.61
361.309	8.68
361.519	8.73
361.728	8.71
361.937	8.86
362.146	8.82
362.355	8.83
362.564	8.94
362.774	8.82
362.983	8.88
363.192	8.46
363.401	8.35
363.61	7.87
363.819	8.08
364.028	8.38
364.237	8.22
364.446	8.14
364.655	8.12
364.864	7.93
365.073	8.05
365.282	7.95
365.491	8.27
365.7	7.95
365.909	8.27
366.118	8.41
366.327	8.37
366.536	8.71
366.745	8.8
366.954	8.75
367.162	8.87
367.371	8.71
367.58	8.14
367.789	8.22
367.998	8.44
368.207	8.16
368.415	7.6
368.624	7.4
368.833	7.31
369.042	7.28
369.25	7.45
369.459	7.43
369.668	7.31
369.877	7.63
370.085	7.62
370.294	7.94
370.503	8.16
370.711	8.37
370.92	8.19
371.129	7.92
371.337	7.55
371.546	7
371.754	6.78
371.963	7.25
372.171	7.25
372.38	7.01
372.589	6.52
372.797	6.32
373.006	6.12
373.214	6.3
373.423	6.38
373.631	6.64
373.84	6.83
374.048	7.4
374.256	7.1
374.465	6.85
374.673	7.04
374.882	7.23
375.09	7.24
375.298	7.06
375.507	7.09
375.715	7.13
375.923	6.73
376.132	7.09
376.34	6.64
376.548	6.4
376.757	6.62
376.965	6.5
377.173	6.39
377.381	6.37
377.59	6.8
377.798	6.92
378.006	7.03
378.214	7.33
378.423	6.84
378.631	6.85
378.839	7.02
379.047	6.92
379.255	7
379.463	7.05
379.671	7.14
379.879	6.95
380.088	7.03
380.296	6.98
380.504	6.89
380.712	6.99
380.92	6.97
381.128	6.98
381.336	6.76
381.544	6.58
381.752	6.46
381.96	6.34
382.168	6.3
382.376	5.8
382.584	5.62
382.791	5.47
382.999	5.61
383.207	5.7
383.415	5.63
383.623	5.71
383.831	5.51
384.039	5.48
384.247	5.44
384.454	5.15
384.662	5.28
384.87	5.15
385.078	5.31
385.285	5.29
385.493	5.47
385.701	5.64
385.909	5.47
386.116	5.63
386.324	5.75
386.532	5.62
386.739	5.72
386.947	5.86
387.155	5.89
387.362	5.62
387.57	5.42
387.778	5.35
387.985	5.11
388.193	5.36
388.4	5.4
388.608	5.38
388.816	5.38
389.023	5.15
389.231	5.17
389.438	5.26
389.646	5.38
389.853	5.49
390.061	5.4
390.268	5.46
390.475	5.33
390.683	5.46
390.89	5.47
391.098	5.39
391.305	5.61
391.512	5.44
391.72	5.43
391.927	5.42
392.135	5.28
392.342	5.2
392.549	5.36
392.756	5.25
392.964	5.18
393.171	5.18
393.378	5.23
393.586	5.16
393.793	5.25
394	5.38
394.207	5.34
394.414	5.61
394.622	5.42
394.829	5.16
395.036	4.96
395.243	4.76
395.45	4.61
395.657	4.65
395.864	4.79
396.072	4.79
396.279	4.73
396.486	4.43
396.693	4.25
396.9	4.38
397.107	4.39
397.314	4.69
397.521	4.9
397.728	4.74
397.935	4.86
398.142	4.65
398.349	4.51
398.556	4.22
398.763	4.46
398.97	4.44
399.177	4.42
399.383	4.48
399.59	4.32
399.797	4.29
400.004	4.54
400.211	4.38
400.418	4.37
400.625	4.4
400.831	4.49
401.038	4.52
401.245	4.51
401.452	4.45
401.658	4.42
401.865	4.52
402.072	4.34
402.279	4.23
402.485	4.06
402.692	4.19
402.899	4.36
403.105	4.36
403.312	4.54
403.519	4.57
403.725	4.59
403.932	4.63
404.138	4.69
404.345	4.79
404.552	4.83
404.758	5.08
404.965	5.04
405.171	4.82
405.378	4.71
405.584	4.63
405.791	4.51
405.997	4.6
406.204	4.63
406.41	4.62
406.617	4.61
406.823	4.42
407.029	4.41
407.236	4.52
407.442	4.58
407.649	4.69
407.855	4.61
408.061	4.6
408.268	4.47
408.474	4.41
408.68	4.51
408.887	4.49
409.093	4.81
409.299	4.69
409.505	4.42
409.712	4.31
409.918	4.37
410.124	4.36
410.33	4.4
410.537	4.55
410.743	4.57
410.949	4.43
411.155	4.58
411.361	4.33
411.567	4.46
411.773	4.6
411.98	4.77
412.186	4.67
412.392	4.81
412.598	4.78
412.804	4.75
413.01	4.56
413.216	4.57
413.422	4.45
413.628	4.43
413.834	4.24
414.04	4.19
414.246	4.17
414.452	4.14
414.658	4.16
414.864	4.18
415.07	4.27
415.275	4.35
415.481	4.3
415.687	4.19
415.893	4.25
416.099	4.35
416.305	4.33
416.511	4.28
416.716	4.31
416.922	4.19
417.128	4.29
417.334	4.14
417.539	4.13
417.745	4.12
417.951	4.12
418.157	4.06
418.362	3.99
418.568	4.02
418.774	4
418.979	4.08
419.185	4.11
419.391	4.06
419.596	4.12
419.802	4.08
420.008	4.1
420.213	3.7
420.419	3.77
420.624	3.81
420.83	3.82
421.035	3.76
421.241	3.61
421.446	3.61
421.652	3.6
421.857	3.56
422.063	3.65
422.268	3.59
422.474	3.99
422.679	3.96
422.885	3.92
423.09	3.84
423.295	3.91
423.501	4.02
423.706	4.07
423.911	4.04
424.117	4.14
424.322	4.17
424.527	4.24
424.733	4.25
424.938	4.31
425.143	4.29
425.349	4.35
425.554	4.37
425.759	4.35
425.964	4.35
426.169	4.33
426.375	4.21
426.58	4.11
426.785	4.16
426.99	4.23
427.195	4.14
427.4	4.16
427.605	4.24
427.811	4.18
428.016	4.1
428.221	4.03
428.426	3.96
428.631	3.93
428.836	3.92
429.041	3.71
429.246	3.47
429.451	3.49
429.656	3.59
429.861	3.59
430.066	3.57
430.271	3.67
430.476	3.58
430.681	3.73
430.886	3.8
431.09	3.79
431.295	3.91
431.5	4.12
431.705	4.12
431.91	4.02
432.115	3.94
432.32	4.03
432.524	4.05
432.729	4.2
432.934	4.12
433.139	4.06
433.343	4.15
433.548	4.09
433.753	4.09
433.958	4.15
434.162	4.25
434.367	4.32
434.572	4.29
434.776	4.22
434.981	4.12
435.186	4.25
435.39	4.28
435.595	4.27
435.799	4.33
436.004	4.26
436.209	4.2
436.413	4.19
436.618	4.14
436.822	4.09
437.027	4.13
437.231	4.09
437.436	4.03
437.64	3.95
437.845	3.91
438.049	3.84
438.253	3.89
438.458	3.84
438.662	3.78
438.867	3.81
439.071	3.9
439.275	3.86
439.48	3.9
439.684	3.82
439.888	3.88
440.093	3.88
440.297	3.93
440.501	3.87
440.706	3.9
440.91	3.96
441.114	3.97
441.318	3.85
441.523	3.87
441.727	3.86
441.931	3.99
442.135	3.89
442.339	3.84
442.543	3.83
442.748	3.85
442.952	3.85
443.156	3.92
443.36	3.95
443.564	4.03
443.768	4
443.972	3.99
444.176	3.91
444.38	3.97
444.584	3.97
444.788	3.92
444.992	3.98
445.196	3.94
445.4	3.86
445.604	3.81
445.808	3.82
446.012	3.77
446.216	3.8
446.42	3.79
446.624	3.78
446.828	3.79
447.032	3.88
447.235	3.8
447.439	3.83
447.643	3.76
447.847	3.76
448.051	3.7
448.254	3.67
448.458	3.61
448.662	3.7
448.866	3.73
449.069	3.75
449.273	3.66
449.477	3.71
449.681	3.71
449.884	3.77
450.088	3.71
450.292	3.69
450.495	3.79
450.699	3.76
450.902	3.65
451.106	3.59
451.31	3.53
451.513	3.52
451.717	3.44
451.92	3.5
452.124	3.56
452.327	3.72
452.531	3.68
452.734	3.64
452.938	3.68
453.141	3.76
453.345	3.71
453.548	3.74
453.752	3.81
453.955	3.82
454.158	3.72
454.362	3.76
454.565	3.61
454.769	3.69
454.972	3.68
455.175	3.76
455.379	3.75
455.582	3.84
455.785	3.79
455.988	3.72
456.192	3.67
456.395	3.69
456.598	3.61
456.801	3.63
457.005	3.61
457.208	3.67
457.411	3.58
457.614	3.56
457.817	3.53
458.021	3.55
458.224	3.59
458.427	3.6
458.63	3.61
458.833	3.61
459.036	3.71
459.239	3.66
459.442	3.57
459.645	3.55
459.848	3.53
460.051	3.62
460.254	3.7
460.457	3.7
460.66	3.75
460.863	3.75
461.066	3.8
461.269	3.69
461.472	3.77
461.675	3.79
461.878	3.95
462.081	3.97
462.284	3.86
462.486	3.72
462.689	3.76
462.892	3.82
463.095	3.83
463.298	3.78
463.5	3.78
463.703	3.7
463.906	3.87
464.109	3.77
464.311	3.84
464.514	3.84
464.717	4.06
464.92	3.97
465.122	3.85
465.325	3.86
465.528	3.94
465.73	4.03
465.933	4.11
466.135	4.01
466.338	3.91
466.541	3.77
466.743	3.78
466.946	3.59
467.148	3.61
467.351	3.64
467.553	3.62
467.756	3.49
467.958	3.36
468.161	3.45
468.363	3.48
468.566	3.57
468.768	3.66
468.971	3.64
469.173	3.53
469.375	3.47
469.578	3.43
469.78	3.45
469.983	3.52
470.185	3.64
470.387	3.57
470.59	3.53
470.792	3.54
470.994	3.39
471.196	3.42
471.399	3.51
471.601	3.69
471.803	3.77
472.005	3.75
472.208	3.76
472.41	3.73
472.612	3.67
472.814	3.75
473.016	3.68
473.218	3.88
473.421	3.87
473.623	3.96
473.825	3.84
474.027	3.81
474.229	3.85
474.431	3.78
474.633	3.75
474.835	3.71
475.037	3.67
475.239	3.65
475.441	3.53
475.643	3.57
475.845	3.61
476.047	3.7
476.249	3.62
476.451	3.63
476.653	3.68
476.855	3.69
477.057	3.73
477.258	3.76
477.46	3.83
477.662	3.92
477.864	3.82
478.066	3.74
478.268	3.73
478.469	3.8
478.671	3.7
478.873	3.65
479.075	3.62
479.276	3.59
479.478	3.52
479.68	3.5
479.882	3.53
480.083	3.58
480.285	3.63
480.487	3.58
480.688	3.59
480.89	3.68
481.091	3.69
481.293	3.67
481.495	3.68
481.696	3.66
481.898	3.65
482.099	3.63
482.301	3.63
482.502	3.59
482.704	3.6
482.905	3.62
483.107	3.59
483.308	3.6
483.51	3.61
483.711	3.61
483.913	3.63
484.114	3.64
484.315	3.65
484.517	3.64
484.718	3.65
484.92	3.64
485.121	3.58
485.322	3.6
485.524	3.61
485.725	3.62
485.926	3.62
486.127	3.62
486.329	3.62
486.53	3.63
486.731	3.66
486.932	3.65
487.134	3.65
487.335	3.71
487.536	3.68
487.737	3.67
487.938	3.62
488.139	3.65
488.341	3.65
488.542	3.67
488.743	3.64
488.944	3.62
489.145	3.66
489.346	3.69
489.547	3.69
489.748	3.7
489.949	3.73
490.15	3.75
490.351	3.72
490.552	3.74
490.753	3.75
490.954	3.76
491.155	3.79
491.356	3.75
491.557	3.74
491.758	3.75
491.959	3.76
492.159	3.74
492.36	3.77
492.561	3.8
492.762	3.76
492.963	3.74
493.164	3.72
493.364	3.74
493.565	3.89
493.766	3.9
493.967	3.89
494.167	3.89
494.368	3.95
494.569	3.92
494.769	3.93
494.97	3.98
495.171	4.08
495.371	4.13
495.572	4.11
495.773	4.1
495.973	4.09
496.174	4.07
496.375	4.12
496.575	4.09
496.776	4.17
496.976	4.15
497.177	4.2
497.377	4.14
497.578	4.03
497.778	4.07
497.979	4.15
498.179	4.18
498.38	4.17
498.58	4.1
498.78	4.14
498.981	4.15
499.181	4.19
499.382	4.12
499.582	4.09
499.782	4.2
499.983	4.24
500.183	4.05
500.383	4.13
500.584	4.14
500.784	4.24
500.984	4.2
501.184	4.16
501.385	4.23
501.585	4.26
501.785	4.3
501.985	4.38
502.185	4.33
502.386	4.42
502.586	4.35
502.786	4.39
502.986	4.4
503.186	4.45
503.386	4.48
503.586	4.48
503.786	4.53
503.987	4.53
504.187	4.41
504.387	4.34
504.587	4.32
504.787	4.34
504.987	4.44
505.187	4.36
505.387	4.39
505.587	4.38
505.786	4.41
505.986	4.41
506.186	4.41
506.386	4.49
506.586	4.55
506.786	4.57
506.986	4.58
507.186	4.54
507.386	4.59
507.585	4.6
507.785	4.6
507.985	4.5
508.185	4.5
508.384	4.55
508.584	4.62
508.784	4.68
508.984	4.69
509.183	4.68
509.383	4.77
509.583	4.8
509.782	4.81
509.982	4.85
510.182	5.02
510.381	5.03
510.581	5.02
510.781	5
510.98	5
511.18	5.06
511.379	5.1
511.579	5.05
511.778	5.05
511.978	5.07
512.177	5.11
512.377	5.08
512.576	5.12
512.776	5.16
512.975	5.14
513.175	5.15
513.374	5.18
513.573	5.15
513.773	5.2
513.972	5.26
514.172	5.35
514.371	5.4
514.57	5.37
514.77	5.38
514.969	5.33
515.168	5.38
515.367	5.44
515.567	5.43
515.766	5.5
515.965	5.48
516.164	5.47
516.364	5.52
516.563	5.54
516.762	5.61
516.961	5.53
517.16	5.56
517.359	5.6
517.559	5.61
517.758	5.63
517.957	5.58
518.156	5.62
518.355	5.58
518.554	5.55
518.753	5.53
518.952	5.48
519.151	5.6
519.35	5.63
519.549	5.61
519.748	5.66
519.947	5.64
520.146	5.71
520.345	5.69
520.544	5.75
520.743	5.78
520.942	5.83
521.141	5.89
521.339	5.87
521.538	5.85
521.737	5.92
521.936	5.84
522.135	5.88
522.333	5.9
522.532	5.85
522.731	5.89
522.93	5.9
523.129	5.87
523.327	5.85
523.526	5.82
523.725	5.89
523.923	5.83
524.122	5.85
524.321	5.93
524.519	5.96
524.718	6.05
524.917	6.03
525.115	6.05
525.314	6.11
525.512	6.18
525.711	6.2
525.909	6.21
526.108	6.26
526.306	6.27
526.505	6.24
526.703	6.26
526.902	6.25
527.1	6.28
527.299	6.29
527.497	6.28
527.696	6.29
527.894	6.33
528.092	6.36
528.291	6.39
528.489	6.44
528.688	6.47
528.886	6.51
529.084	6.57
529.283	6.62
529.481	6.62
529.679	6.63
529.877	6.67
530.076	6.68
530.274	6.7
530.472	6.69
530.67	6.71
530.869	6.68
531.067	6.68
531.265	6.69
531.463	6.66
531.661	6.67
531.859	6.75
532.057	6.78
532.255	6.82
532.454	6.85
532.652	6.84
532.85	6.87
533.048	6.97
533.246	7.03
533.444	7.06
533.642	7.14
533.84	7.21
534.038	7.18
534.236	7.15
534.434	7.17
534.632	7.15
534.83	7.23
535.027	7.17
535.225	7.11
535.423	7.1
535.621	7.05
535.819	7.01
536.017	7.02
536.215	7.08
536.412	7.1
536.61	7.1
536.808	7.17
537.006	7.12
537.203	7.19
537.401	7.25
537.599	7.24
537.797	7.32
537.994	7.4
538.192	7.39
538.39	7.45
538.587	7.47
538.785	7.42
538.983	7.46
539.18	7.52
539.378	7.52
539.575	7.53
539.773	7.56
539.97	7.54
540.168	7.48
540.366	7.56
540.563	7.59
540.761	7.62
540.958	7.7
541.155	7.69
541.353	7.73
541.55	7.77
541.748	7.8
541.945	7.83
542.143	7.93
542.34	8.04
542.537	8.03
542.735	8.03
542.932	8.09
543.129	8.14
543.327	8.17
543.524	8.2
543.721	8.24
543.919	8.31
544.116	8.36
544.313	8.39
544.51	8.32
544.708	8.36
544.905	8.36
545.102	8.39
545.299	8.39
545.496	8.45
545.693	8.47
545.891	8.51
546.088	8.57
546.285	8.5
546.482	8.47
546.679	8.65
546.876	8.7
547.073	8.76
547.27	8.77
547.467	8.86
547.664	8.85
547.861	8.93
548.058	8.96
548.255	8.9
548.452	9.06
548.649	9.17
548.846	9.12
549.043	9.18
549.24	9.26
549.437	9.33
549.633	9.29
549.83	9.34
550.027	9.39
550.224	9.4
550.421	9.53
550.618	9.61
550.814	9.58
551.011	9.71
551.208	9.82
551.405	9.85
551.601	9.86
551.798	10.01
551.995	10.08
552.191	10.18
552.388	10.25
552.585	10.23
552.781	10.28
552.978	10.41
553.175	10.39
553.371	10.37
553.568	10.39
553.764	10.4
553.961	10.38
554.157	10.44
554.354	10.31
554.55	10.4
554.747	10.49
554.943	10.45
555.14	10.46
555.336	10.6
555.533	10.63
555.729	10.83
555.926	11.02
556.122	11.03
556.318	11.04
556.515	11.26
556.711	11.28
556.907	11.34
557.104	11.47
557.3	11.49
557.496	11.5
557.693	11.51
557.889	11.43
558.085	11.37
558.281	11.37
558.478	11.43
558.674	11.22
558.87	11.35
559.066	11.37
559.262	11.35
559.459	11.44
559.655	11.56
559.851	11.64
560.047	11.65
560.243	11.64
560.439	11.75
560.635	11.85
560.831	12.03
561.027	11.97
561.223	12
561.419	12.03
561.615	12.04
561.811	11.99
562.007	12.02
562.203	12.09
562.399	12.24
562.595	12.3
562.791	12.37
562.987	12.47
563.183	12.65
563.379	12.7
563.575	12.79
563.771	12.92
563.966	13.04
564.162	13.14
564.358	13.23
564.554	13.2
564.75	13.29
564.945	13.29
565.141	13.31
565.337	13.3
565.533	13.45
565.728	13.4
565.924	13.42
566.12	13.45
566.315	13.51
566.511	13.51
566.707	13.62
566.902	13.6
567.098	13.73
567.293	13.81
567.489	13.79
567.684	13.88
567.88	14.03
568.076	14.05
568.271	14.14
568.467	14.21
568.662	14.3
568.858	14.38
569.053	14.52
569.248	14.54
569.444	14.6
569.639	14.71
569.835	14.69
570.03	14.75
570.225	14.72
570.421	14.64
570.616	14.65
570.812	14.68
571.007	14.72
571.202	14.79
571.397	14.83
571.593	14.86
571.788	14.97
571.983	15.03
572.178	15.1
572.374	15.36
572.569	15.44
572.764	15.62
572.959	15.71
573.154	15.77
573.35	15.87
573.545	15.9
573.74	15.96
573.935	15.95
574.13	15.96
574.325	16.03
574.52	15.95
574.715	16.07
574.91	16.01
575.105	16.07
575.3	16.09
575.495	15.95
575.69	16.06
575.885	16.21
576.08	16.24
576.275	16.3
576.47	16.33
576.665	16.45
576.86	16.56
577.055	16.63
577.25	16.68
577.444	16.76
577.639	16.97
577.834	17.05
578.029	17.12
578.224	17.18
578.418	17.33
578.613	17.4
578.808	17.3
579.003	17.39
579.197	17.41
579.392	17.31
579.587	17.44
579.781	17.41
579.976	17.53
580.171	17.51
580.365	17.64
580.56	17.71
580.755	17.65
580.949	17.81
581.144	17.77
581.338	17.81
581.533	18.08
581.727	18.16
581.922	18.27
582.116	18.29
582.311	18.44
582.505	18.6
582.7	18.63
582.894	18.75
583.089	18.79
583.283	18.74
583.478	18.95
583.672	18.88
583.866	18.99
584.061	18.85
584.255	18.84
584.449	18.67
584.644	18.54
584.838	18.47
585.032	18.58
585.226	18.67
585.421	18.85
585.615	18.96
585.809	19.25
586.003	19.07
586.198	19.27
586.392	19.32
586.586	19.43
586.78	19.53
586.974	19.63
587.168	19.81
587.363	19.81
587.557	19.77
587.751	19.7
587.945	19.57
588.139	19.66
588.333	19.7
588.527	19.74
588.721	19.92
588.915	20.04
589.109	20.12
589.303	20.06
589.497	20.15
589.691	20.27
589.885	20.24
590.079	20.3
590.273	20.47
590.466	20.59
590.66	20.6
590.854	20.57
591.048	20.49
591.242	20.41
591.436	20.44
591.629	20.51
591.823	20.44
592.017	20.47
592.211	20.5
592.404	20.53
592.598	20.47
592.792	20.52
592.986	20.44
593.179	20.42
593.373	20.43
593.567	20.31
593.76	20.19
593.954	20.18
594.147	20.16
594.341	20.2
594.535	20.19
594.728	20.15
594.922	20.13
595.115	20.15
595.309	20.24
595.502	20.33
595.696	20.42
595.889	20.5
596.083	20.6
596.276	20.68
596.47	20.68
596.663	20.76
596.856	20.8
597.05	20.83
597.243	20.85
597.437	20.89
597.63	21.08
597.823	21.1
598.017	21.19
598.21	21.25
598.403	21.37
598.596	21.43
598.79	21.33
598.983	21.52
599.176	21.71
599.369	21.9
599.563	21.79
599.756	21.65
599.949	21.75
600.142	21.64
600.335	21.65
600.528	21.68
600.722	21.64
600.915	21.77
601.108	21.76
601.301	21.81
601.494	21.8
601.687	21.95
601.88	21.89
602.073	21.93
602.266	22.02
602.459	22.09
602.652	22.04
602.845	22.09
603.038	22
603.231	21.98
603.424	22
603.617	21.97
603.809	22
604.002	22.06
604.195	22.13
604.388	22.21
604.581	22.13
604.774	22.21
604.966	22.15
605.159	22.25
605.352	22.37
605.545	22.31
605.737	22.29
605.93	22.27
606.123	22.43
606.316	22.44
606.508	22.36
606.701	22.33
606.894	22.34
607.086	22.57
607.279	22.59
607.471	22.45
607.664	22.63
607.857	22.66
608.049	22.72
608.242	22.76
608.434	22.74
608.627	22.82
608.819	22.9
609.012	22.94
609.204	22.97
609.397	22.98
609.589	23.09
609.782	23.1
609.974	23.24
610.166	23.39
610.359	23.26
610.551	23.35
610.743	23.2
610.936	23.41
611.128	23.41
611.32	23.26
611.513	23.37
611.705	23.37
611.897	23.4
612.09	23.44
612.282	23.31
612.474	23.48
612.666	23.41
612.858	23.72
613.051	23.51
613.243	23.57
613.435	23.61
613.627	23.55
613.819	23.49
614.011	23.58
614.203	23.46
614.395	23.49
614.588	23.31
614.78	23.23
614.972	23.18
615.164	23.22
615.356	23.08
615.548	23.07
615.74	23.03
615.932	23.21
616.124	22.93
616.315	23.09
616.507	23.28
616.699	23.45
616.891	23.47
617.083	23.57
617.275	23.58
617.467	23.73
617.659	23.76
617.85	24.01
618.042	24.01
618.234	24.11
618.426	24.13
618.618	23.95
618.809	23.81
619.001	23.76
619.193	23.77
619.384	24.01
619.576	24.01
619.768	24.15
619.959	24.1
620.151	23.97
620.343	23.84
620.534	23.7
620.726	23.62
620.917	23.8
621.109	23.96
621.301	23.81
621.492	23.79
621.684	23.77
621.875	23.82
622.067	23.85
622.258	23.9
622.45	24.12
622.641	24.26
622.832	24.39
623.024	24.33
623.215	24.42
623.407	24.6
623.598	24.58
623.789	24.68
623.981	24.66
624.172	24.63
624.363	24.77
624.555	24.67
624.746	24.68
624.937	24.68
625.129	24.76
625.32	24.68
625.511	24.66
625.702	24.58
625.893	24.66
626.085	24.6
626.276	24.63
626.467	24.6
626.658	24.56
626.849	24.51
627.04	24.63
627.231	24.44
627.422	24.62
627.614	24.68
627.805	24.75
627.996	24.71
628.187	24.85
628.378	24.89
628.569	24.82
628.76	24.88
628.951	24.82
629.142	24.7
629.332	24.8
629.523	24.77
629.714	24.86
629.905	24.77
630.096	24.72
630.287	24.66
630.478	24.62
630.669	24.84
630.859	24.95
631.05	25.06
631.241	25.02
631.432	25.17
631.623	25.2
631.813	25.03
632.004	25.11
632.195	25.09
632.385	25.11
632.576	25.12
632.767	25.06
632.957	25.19
633.148	25.3
633.339	25.28
633.529	25.26
633.72	25.3
633.91	25.52
634.101	25.44
634.292	25.53
634.482	25.54
634.673	25.55
634.863	25.43
635.054	25.28
635.244	25.29
635.435	25.48
635.625	25.28
635.815	25.19
636.006	25.14
636.196	25.42
636.387	25.44
636.577	25.61
636.767	25.67
636.958	25.66
637.148	25.67
637.338	25.76
637.529	25.72
637.719	25.96
637.909	25.89
638.099	25.83
638.29	25.59
638.48	25.52
638.67	25.5
638.86	25.42
639.05	25.59
639.241	25.7
639.431	25.83
639.621	25.94
639.811	26.05
640.001	26.22
640.191	26.27
640.381	26.45
640.571	26.34
640.761	26.23
640.951	26.38
641.141	26.37
641.331	26.25
641.521	25.94
641.711	25.99
641.901	26.03
642.091	26
642.281	25.87
642.471	25.78
642.661	26.14
642.851	26.02
643.041	26.18
643.231	26.22
643.42	26.47
643.61	26.75
643.8	26.87
643.99	26.89
644.18	26.79
644.369	26.62
644.559	26.8
644.749	26.77
644.939	26.97
645.128	26.72
645.318	26.88
645.508	26.79
645.697	26.67
645.887	26.57
646.076	26.52
646.266	26.67
646.456	27.17
646.645	27.32
646.835	27.37
647.024	27.22
647.214	27.42
647.403	27.34
647.593	27.19
647.782	27.06
647.972	26.83
648.161	26.8
648.351	26.72
648.54	26.44
648.73	26.27
648.919	26.11
649.108	26.31
649.298	26.26
649.487	26.36
649.677	26.52
649.866	26.49
650.055	26.74
650.244	26.93
650.434	26.95
650.623	26.96
650.812	26.95
651.002	26.93
651.191	26.94
651.38	27.01
651.569	26.85
651.758	26.92
651.947	26.88
652.137	26.75
652.326	26.68
652.515	26.71
652.704	27.04
652.893	27.09
653.082	27.15
653.271	27.11
653.46	26.81
653.649	26.88
653.838	26.68
654.027	26.86
654.216	27.09
654.405	26.93
654.594	26.92
654.783	26.77
654.972	26.73
655.161	26.54
655.35	26.51
655.539	26.67
655.728	26.64
655.916	26.92
656.105	26.83
656.294	26.65
656.483	26.75
656.672	26.89
656.86	26.68
657.049	26.81
657.238	26.94
657.427	26.89
657.615	27.04
657.804	27.05
657.993	27.06
658.181	27.26
658.37	27.59
658.559	27.79
658.747	27.88
658.936	27.85
659.125	27.65
659.313	27.61
659.502	27.68
659.69	27.73
659.879	27.82
660.067	27.68
660.256	27.58
660.444	27.38
660.633	27.15
660.821	26.97
661.01	27.19
661.198	27.55
661.387	27.79
661.575	27.79
661.763	27.71
661.952	27.81
662.14	27.97
662.328	27.94
662.517	27.85
662.705	27.99
662.893	28.33
663.082	28.14
663.27	27.95
663.458	27.9
663.646	27.85
663.834	27.76
664.023	27.41
664.211	27.37
664.399	27.39
664.587	27.43
664.775	27.35
664.963	26.94
665.152	27.35
665.34	27.76
665.528	27.45
665.716	27.7
665.904	27.84
666.092	28.06
666.28	28
666.468	28.05
666.656	28.26
666.844	28.44
667.032	28.59
667.22	28.39
667.408	28.22
667.596	28.36
667.784	28.31
667.971	28.3
668.159	28.29
668.347	28.21
668.535	28.34
668.723	28.15
668.911	27.7
669.098	27.64
669.286	27.72
669.474	27.6
669.662	27.83
669.849	27.93
670.037	28.01
670.225	28.16
670.413	28.55
670.6	28.55
670.788	28.77
670.976	29.04
671.163	29.37
671.351	29.23
671.538	29.45
671.726	29.35
671.913	29.12
672.101	29.03
672.289	28.99
672.476	28.56
672.664	28.28
672.851	28.21
673.039	28.54
673.226	28.32
673.413	28.22
673.601	28.08
673.788	28.24
673.976	28.37
674.163	28.63
674.35	28.49
674.538	28.86
674.725	29.17
674.912	28.99
675.1	28.85
675.287	28.79
675.474	28.95
675.662	28.9
675.849	28.73
676.036	28.73
676.223	28.4
676.411	28.57
676.598	28.38
676.785	28.28
676.972	28.15
677.159	28.04
677.346	27.87
677.533	28.17
677.721	27.96
677.908	27.95
678.095	28.09
678.282	28
678.469	28.03
678.656	28.2
678.843	28.43
679.03	28.57
679.217	28.57
679.404	28.77
679.591	28.53
679.778	28.79
679.964	28.94
680.151	28.96
680.338	29.17
680.525	29.21
680.712	29.13
680.899	29.27
681.086	29.33
681.272	29.47
681.459	29.54
681.646	29.83
681.833	29.65
682.02	29.89
682.206	30.12
682.393	30.33
682.58	30.28
682.766	30.23
682.953	29.94
683.14	29.93
683.326	30.11
683.513	30.21
683.7	30.29
683.886	30.32
684.073	29.99
684.259	29.74
684.446	29.56
684.632	29.45
684.819	29.53
685.005	29.35
685.192	29.64
685.378	29.34
685.565	29.3
685.751	29
685.938	29.35
686.124	29.28
686.31	29.23
686.497	29.48
686.683	29.58
686.87	29.61
687.056	29.86
687.242	29.38
687.429	29.5
687.615	29.25
687.801	29.28
687.987	29.14
688.174	29.45
688.36	29.39
688.546	29.14
688.732	29.16
688.918	29.2
689.105	29.12
689.291	29.68
689.477	29.78
689.663	29.91
689.849	30.09
690.035	30.06
690.221	30.24
690.407	30.53
690.593	30.58
690.779	30.61
690.965	30.87
691.151	31.13
691.337	30.83
691.523	30.97
691.709	30.96
691.895	30.94
692.081	30.84
692.267	30.43
692.453	30.3
692.639	30.27
692.825	30.28
693.011	29.9
693.196	29.75
693.382	29.61
693.568	29.51
693.754	29.73
693.94	29.6
694.125	29.53
694.311	29.87
694.497	29.97
694.682	30.05
694.868	30.13
695.054	30.16
695.239	30.32
695.425	30.6
695.611	30.69
695.796	30.45
695.982	30.36
696.168	30.34
696.353	30.05
696.539	29.95
696.724	29.97
696.91	29.95
697.095	29.85
697.281	29.74
697.466	29.58
697.652	29.49
697.837	29.73
698.023	29.79
698.208	29.94
698.393	30.11
698.579	30.23
698.764	30.33
698.949	30.24
699.135	30.4
699.32	30.55
699.505	30.57
699.691	30.41
699.876	30.27
700.061	30.14
700.246	30.13
700.432	30.16
700.617	29.97
700.802	29.66
700.987	29.95
701.172	30.15
701.358	29.84
701.543	29.92
701.728	30.14
701.913	29.79
702.098	30.09
702.283	30.37
702.468	30.62
702.653	30.72
702.838	31.19
703.023	31.02
703.208	30.81
703.393	31.02
703.578	31.35
703.763	31.52
703.948	31.62
704.133	31.69
704.318	31.62
704.503	31.24
704.688	31.46
704.873	31.1
705.057	30.86
705.242	30.92
705.427	31.12
705.612	31.18
705.797	31.05
705.981	31.21
706.166	31.17
706.351	30.99
706.536	31.1
706.72	30.86
706.905	31.01
707.09	31.15
707.274	30.97
707.459	30.49
707.644	30.35
707.828	30.11
708.013	30.25
708.197	29.98
708.382	30.16
708.567	29.82
708.751	29.61
708.936	29.63
709.12	29.58
709.305	29.62
709.489	29.82
709.673	29.68
709.858	29.86
710.042	30.02
710.227	30.47
710.411	30.27
710.596	30.5
710.78	30.52
710.964	30.45
711.149	30.78
711.333	30.56
711.517	30.8
711.702	31.04
711.886	31.26
712.07	31.01
712.254	30.61
712.438	30.73
712.623	30.75
712.807	30.97
712.991	30.89
713.175	30.72
713.359	31.14
713.544	30.98
713.728	31.13
713.912	30.79
714.096	31.04
714.28	31.33
714.464	31.49
714.648	31.55
714.832	31.66
715.016	31.71
715.2	31.61
715.384	31.6
715.568	31.7
715.752	31.27
715.936	31.43
716.12	31.34
716.304	31.42
716.488	31.15
716.671	30.73
716.855	30.47
717.039	30.3
717.223	30.33
717.407	30.46
717.59	30.26
717.774	30.61
717.958	30.5
718.142	30.58
718.325	30.28
718.509	30.9
718.693	31.42
718.877	31.69
719.06	31.97
719.244	32.25
719.428	31.95
719.611	31.61
719.795	31.29
719.978	31.33
720.162	31.38
720.345	31.48
720.529	31.01
720.713	30.81
720.896	30.56
721.08	30.36
721.263	30.61
721.446	30.71
721.63	30.89
721.813	30.97
721.997	31.03
722.18	30.85
722.364	31.07
722.547	31.25
722.73	31.39
722.914	31.54
723.097	31.78
723.28	31.43
723.464	31.78
723.647	32.29
723.83	32.35
724.013	32.87
724.197	32.73
724.38	32.6
724.563	32.47
724.746	32.48
724.929	32.53
725.112	32.28
725.296	32.59
725.479	32.38
725.662	31.96
725.845	32.4
726.028	31.44
726.211	31.47
726.394	31.74
726.577	31.98
726.76	32.19
726.943	32.13
727.126	32.17
727.309	31.8
727.492	31.45
727.675	31.55
727.858	31.42
728.041	32.35
728.224	32.5
728.407	31.98
728.589	31.88
728.772	31.9
728.955	31.88
729.138	32
729.321	31.64
729.503	31.87
729.686	31.88
729.869	31.55
730.052	31.34
730.234	31.29
730.417	31.63
730.6	31.37
730.782	31.07
730.965	30.97
731.148	31.21
731.33	31.47
731.513	31.87
731.695	31.65
731.878	31.6
732.061	31.58
732.243	31.67
732.426	31.5
732.608	31.88
732.791	32.2
732.973	32.38
733.156	32.64
733.338	32.84
733.52	32.33
733.703	32.86
733.885	33.35
734.068	33.58
734.25	33.83
734.432	33.55
734.615	33.2
734.797	33.02
734.979	33.03
735.162	32.51
735.344	31.86
735.526	31.93
735.708	32.09
735.891	31.78
736.073	31.4
736.255	30.69
736.437	31.15
736.619	31.41
736.802	31.26
736.984	31.59
737.166	32.02
737.348	32.78
737.53	32.77
737.712	31.76
737.894	31.34
738.076	31.73
738.258	32.35
738.44	31.84
738.622	31.62
738.804	31.71
738.986	31.27
739.168	30.9
739.35	30.74
739.532	30.47
739.714	31.42
739.896	31.6
740.078	31.1
740.259	30.64
740.441	31.16
740.623	31.58
740.805	31.68
740.987	32.06
741.168	32.26
741.35	32.05
741.532	32.4
741.714	32.47
741.895	32.57
742.077	32.33
742.259	32.39
742.44	32.41
742.622	32
742.804	31.87
742.985	31.76
743.167	31.5
743.348	32
743.53	32
743.711	31.54
743.893	31.75
744.075	32.08
744.256	32.12
744.438	32.82
744.619	33.24
744.8	33.73
744.982	33.7
745.163	34.21
745.345	34.21
745.526	33.63
745.707	33.83
745.889	33.58
746.07	33.88
746.252	34.33
746.433	34.11
746.614	33.87
746.795	33.84
746.977	33.98
747.158	33.83
747.339	33.64
747.52	34.37
747.702	34.76
747.883	34.58
748.064	34.48
748.245	33.66
748.426	33.14
748.607	32.67
748.788	32.46
748.97	32.45
749.151	31.89
749.332	31.72
749.513	31.42
749.694	30.81
749.875	30.99
750.056	30.74
750.237	30.71
750.418	30.67
750.599	30.89
750.78	30.95
750.96	31
751.141	31.14
751.322	31.9
751.503	32.21
751.684	32.38
751.865	32.18
752.046	32.28
752.226	32.88
752.407	32.85
752.588	32.62
752.769	32.33
752.949	32.1
753.13	32.34
753.311	31.41
753.492	31.55
753.672	31.51
753.853	32.02
754.034	32.24
754.214	32.11
754.395	32.07
754.575	32.51
754.756	33.25
754.937	33.54
755.117	33.45
755.298	34.01
755.478	33.13
755.659	32.97
755.839	33.3
756.02	33.19
756.2	33.01
756.381	33.02
756.561	32.76
756.741	31.96
756.922	30.84
757.102	30.86
757.283	30.83
757.463	31.98
757.643	32.6
757.823	32.13
758.004	32
758.184	32.16
758.364	32.83
758.545	33.32
758.725	33.1
758.905	33.64
759.085	33.69
759.265	33.46
759.446	32.95
759.626	33.06
759.806	33.6
759.986	34.48
760.166	34.58
760.346	34.08
760.526	33.66
760.706	34.45
760.886	34.67
761.066	34.53
761.246	35.15
761.426	35.42
761.606	34.8
761.786	34.09
761.966	33.34
762.146	32.97
762.326	33.23
762.506	33.39
762.686	32.98
762.866	32.96
763.046	32.94
763.225	32.37
763.405	32.33
763.585	32.59
763.765	32.78
763.945	32.75
764.124	33.26
764.304	33.36
764.484	33.46
764.664	33.78
764.843	34.2
765.023	34.53
765.203	35.06
765.382	35.01
765.562	34.6
765.741	34.38
765.921	34.92
766.101	34.58
766.28	34.14
766.46	34.12
766.639	33.36
766.819	32.65
766.998	32.88
767.178	32.82
767.357	32.81
767.537	33.24
767.716	33.62
767.896	33.27
768.075	33.44
768.254	33.59
768.434	33.88
768.613	35.24
768.792	35.81
768.972	35.56
769.151	35.27
769.33	34.61
769.51	35.15
769.689	35.27
769.868	35.48
770.047	35.34
770.226	35.3
770.406	34.57
770.585	33.97
770.764	33.26
770.943	32.42
771.122	32.79
771.301	33.06
771.48	32.95
771.66	32.99
771.839	32.85
772.018	33.87
772.197	33.38
772.376	33.26
772.555	32.88
772.734	33.11
772.913	34.12
773.092	33.56
773.271	33.67
773.449	33.4
773.628	32.75
773.807	32.69
773.986	31.1
774.165	30.92
774.344	31.18
774.523	31.25
774.701	30.56
774.88	29.7
775.059	29.94
775.238	29.56
775.417	28.96
775.595	29.77
775.774	29.21
775.953	29.86
776.131	31.27
776.31	31.11
776.489	30.99
776.667	31.99
776.846	32.09
777.025	31.99
777.203	32.35
777.382	32.9
777.56	32.92
777.739	32.97
777.917	33.61
778.096	33.49
778.274	33.72
778.453	34.26
778.631	34.54
778.81	35.06
778.988	35.08
779.166	35.63
779.345	35.28
779.523	34.56
779.702	34.98
779.88	34.95
780.058	34.28
780.237	34.53
780.415	34.53
780.593	34.37
780.771	33.98
780.95	34.53
781.128	33.94
781.306	33.7
781.484	34.97
781.662	34.98
781.841	34.02
782.019	33.72
782.197	33.59
782.375	32.95
782.553	32.63
782.731	32.77
782.909	31.88
783.087	32.61
783.265	33.66
783.443	32.78
783.621	32.76
783.799	33.41
783.977	33.93
784.155	34.83
784.333	34.94
784.511	34.67
784.689	33.59
784.867	33.73
785.045	33.25
785.223	33.51
785.4	33.07
785.578	32.34
785.756	32.25
785.934	32.55
786.112	31.55
786.289	31.18
786.467	31.08
786.645	32.55
786.823	32.96
787	32.67
787.178	32.26
787.356	33.4
787.533	34.11
787.711	33.95
787.889	33.19
788.066	33.46
788.244	34.37
788.421	35.14
788.599	35.08
788.776	34.53
788.954	35.13
789.131	33.67
789.309	33.03
789.486	32.59
789.664	32.73
789.841	33.74
790.019	34.33
790.196	33.26
790.373	32.62
790.551	32.45
790.728	33
790.906	33.35
791.083	34.26
791.26	34.83
791.437	35.46
791.615	35.52
791.792	34.66
791.969	33.67
792.146	34.97
792.324	34.59
792.501	35.27
792.678	35.21
792.855	34.91
793.032	35.66
793.209	35.38
793.387	35.63
793.564	35.3
793.741	36.33
793.918	36.45
794.095	35.19
794.272	36.1
794.449	35.06
794.626	35.54
794.803	34.57
794.98	34.28
795.157	34.02
795.334	33.15
795.511	33.25
795.688	32.66
795.864	32.76
796.041	32.43
796.218	31.75
796.395	31.9
796.572	31.25
796.749	31.38
796.925	31.79
797.102	32.16
797.279	32.59
797.456	33.39
797.632	32.98
797.809	32.55
797.986	34.07
798.162	33.61
798.339	33.64
798.516	32.97
798.692	32.67
798.869	31.81
799.046	31.18
799.222	30.56
799.399	30.27
799.575	30.78
799.752	31.92
799.928	32.29
800.105	33.17
800.281	34.42
800.458	35.89
800.634	36.19
800.811	36.25
800.987	36.38
801.163	37.2
801.34	37.45
801.516	37.59
801.692	37.15
801.869	35.88
802.045	36.87
802.221	36.1
802.398	35.89
802.574	35.89
802.75	36.55
802.926	36.94
803.103	36.19
803.279	35.55
803.455	35.17
803.631	36.77
803.807	36.91
803.983	36.49
804.16	35.85
804.336	35.48
804.512	35.65
804.688	35.43
804.864	34.87
805.04	35.31
805.216	35.78
805.392	36.02
805.568	34.67
805.744	35.08
805.92	33.76
806.096	33.76
806.272	33.83
806.448	33.19
806.623	33.21
806.799	34.12
806.975	34.54
807.151	34.61
807.327	33.9
807.503	33.02
807.678	32.42
807.854	34.6
808.03	34.82
808.206	34.11
808.381	35.51
808.557	35.94
808.733	35.97
808.908	36.09
809.084	36.65
809.26	37.71
809.435	38.71
809.611	39.39
809.787	38.18
809.962	37.53
810.138	38.24
810.313	37.16
810.489	35.66
810.664	35.6
810.84	34.96
811.015	33.96
811.191	32.71
811.366	32.72
811.542	32.37
811.717	33.55
811.892	34.71
812.068	35.8
812.243	36.59
812.419	37.06
812.594	36.32
812.769	37
812.944	36.57
813.12	36.22
813.295	36.53
813.47	37.61
813.645	36.13
813.821	36.01
813.996	35.37
814.171	36.78
814.346	37.75
814.521	37.98
814.697	37.56
814.872	38.36
815.047	39.86
815.222	39.21
815.397	38.33
815.572	39.78
815.747	39.84
815.922	39.77
816.097	38.76
816.272	38.5
816.447	39.55
816.622	40.24
816.797	39.53
816.972	39.35
817.147	39.84
817.322	40.85
817.496	40.16
817.671	41.24
817.846	40.24
818.021	39.95
818.196	39.6
818.371	38.92
818.545	39.25
818.72	39.21
818.895	39.34
819.069	38.11
819.244	37.19
819.419	35.89
819.594	34.22
819.768	35.32
819.943	35.42
820.117	35.18
820.292	35.39
820.467	34.51
820.641	34.69
820.816	34.38
820.99	34.52
821.165	34.44
821.339	34.39
821.514	34.62
821.688	34.3
821.863	34.19
822.037	34.09
822.212	34.01
822.386	34.19
822.56	34.21
822.735	34.33
822.909	34.43
823.084	34.32
823.258	34.6
823.432	34.52
823.606	34.45
823.781	34.32
823.955	34.31
824.129	34.12
824.303	33.86
824.478	33.86
824.652	33.47
824.826	33.19
825	33.2
825.174	32.59
825.348	32.67
825.523	32.73
825.697	32.76
825.871	33.15
826.045	33.41
826.219	33.67
826.393	33.22
826.567	33.45
826.741	33.77
826.915	33.72
827.089	34.41
827.263	34.6
827.437	34.95
827.611	34.94
827.784	34.95
827.958	35
828.132	35.1
828.306	35.49
828.48	35.46
828.654	35.32
828.827	35.34
829.001	35.41
829.175	35.25
829.349	35.35
829.522	35.77
829.696	35.84
829.87	35.96
830.044	36.17
830.217	36.4
830.391	36.51
830.565	37.47
830.738	38.48
830.912	38.59
831.085	38.47
831.259	38.21
831.432	38.45
831.606	38.87
831.779	38.73
831.953	37.89
832.126	38.04
832.3	37.84
832.473	37.46
832.647	37.08
832.82	36.8
832.994	36.16
833.167	35.75
833.34	35.48
833.514	35.01
833.687	34.35
833.86	34.68
834.034	34.07
834.207	34.59
834.38	34.32
834.553	34.44
834.727	34.41
834.9	34.58
835.073	34.82
835.246	35.23
835.419	35.47
835.593	35.38
835.766	34.82
835.939	35.22
836.112	34.47
836.285	33.62
836.458	33.94
836.631	33.01
836.804	33.51
836.977	32.51
837.15	31.84
837.323	30.38
837.496	30.54
837.669	30.15
837.842	30.74
838.015	32.14
838.188	30.91
838.361	30.43
838.533	30.89
838.706	31.28
838.879	33.51
839.052	34.67
839.225	36.2
839.398	36.16
839.57	39.97
839.743	40
839.916	39.35
840.088	39.64
840.261	39.17
840.434	39.69
840.607	39.59
840.779	39.71
840.952	37.64
841.124	36.36
841.297	37.69
841.47	34.95
841.642	35.51
841.815	35.06
841.987	37.83
842.16	38.34
842.332	38.62
842.505	37.93
842.677	38.17
842.85	37.91
843.022	39.31
843.194	39.7
843.367	41.4
843.539	39.5
843.712	40.51
843.884	37.86
844.056	39.8
844.229	37.88
844.401	39.28
844.573	35.81
844.745	38.11
844.918	40.75
845.09	40.09
845.262	38.66
845.434	39.13
845.606	38.47
845.779	40.24
845.951	37.97
846.123	38.63
846.295	38.26
846.467	42.9
846.639	43.76
846.811	39.99
846.983	37.59
847.155	38.43
847.327	39.75
847.499	40.1
847.671	42.54
847.843	41.73
848.015	45.99
848.187	42.99
848.359	40.49
848.531	40.04
848.703	40.58
848.875	42.44
849.047	43.62
849.218	43.59
849.39	47.64
849.562	46.54
849.734	47.13
849.905	46.92
850.077	52.69
850.249	51.54
850.421	53.12
850.592	51
850.764	53.98
850.936	50.11
851.107	51.75
851.279	48.38
851.451	50.41
851.622	52.55
851.794	50.83
851.965	49.82
852.137	50.36
852.308	51.21
852.48	55.35
852.651	50.04
852.823	52.51
852.994	49.81
853.166	47.47
853.337	47.5
853.509	44.2
853.68	42.86
853.851	39.44
854.023	40.09
854.194	38.21
854.365	39.69
854.537	44.36
854.708	45.67
854.879	44.34
855.05	47.01
855.222	45.44
855.393	48.25
855.564	47.91
855.735	47.15
855.906	49.15
856.078	49.49
856.249	46.79
856.42	43.52
856.591	41.63
856.762	41.56
856.933	39.82
857.104	37.89
857.275	36.74
857.446	38.25
857.617	36.22
857.788	31.63
857.959	31.75
858.13	33.8
858.301	36.61
858.472	36.37
858.643	39.6
858.814	40.39
858.985	40.5
859.155	44.38
859.326	44.92
859.497	49.24
859.668	50.98
859.839	45.02
860.009	39.98
860.18	39
860.351	41.87
860.522	39.12
860.692	43.13
860.863	43.65
861.034	42.45
861.204	42.71
861.375	44.38
861.546	45.45
861.716	49.73
861.887	51.89
862.057	50.85
862.228	50.69
862.398	49.26
862.569	47.65
862.739	52.48
862.91	51.83
863.08	51.59
863.251	46.57
863.421	48.29
863.592	49.71
863.762	52.09
863.932	51.71
864.103	46.15
864.273	50.48
864.443	45.43
864.614	43.92
864.784	41.24
864.954	38.6
865.125	43.13
865.295	43.46
865.465	43.94
865.635	42.1
865.805	44.94
865.976	50.98
866.146	49.48
866.316	54.32
866.486	55.01
866.656	59.68
866.826	57.68
866.996	55.4
867.166	52.52
867.336	51.48
867.506	50.89
867.676	49.93
867.846	45.34
868.016	42.91
868.186	45.23
868.356	41
868.526	34.93
868.696	41.73
868.866	44.85
869.036	46.65
869.206	42.56
869.376	41.03
869.545	38.7
869.715	37.48
869.885	36.09
870.055	32.07
870.224	37.63
870.394	41.9
870.564	43.78
870.734	42.67
870.903	39.96
871.073	45.49
871.243	46.76
871.412	50.21
871.582	51.62
871.751	56.71
871.921	57.59
872.091	53.79
872.26	54.02
872.43	51.31
872.599	50.63
872.769	56.57
872.938	51.97
873.108	53.85
873.277	49.02
873.446	49.19
873.616	44.45
873.785	45.96
873.955	46.24
874.124	42.57
874.293	43.26
874.463	42.39
874.632	41.06
874.801	44.32
874.971	45.23
875.14	48.66
875.309	48.82
875.478	50.33
875.647	51.71
875.817	47.61
875.986	52.39
876.155	52.56
876.324	54.42
876.493	57.88
876.662	58.16
876.831	54.82
877	54.06
877.17	56.23
877.339	54.67
877.508	50.18
877.677	53.71
877.846	49.86
878.015	46.85
878.184	42.5
878.352	38.8
878.521	37.02
878.69	38.75
878.859	40.42
879.028	39.64
879.197	41.34
879.366	44.88
879.534	44.65
879.703	44.93
879.872	43.64
880.041	45.24
880.21	41.36
880.378	41.79
880.547	40.59
880.716	38.17
880.884	37.77
881.053	37.71
881.222	36.76
881.39	36.35
881.559	35.03
881.727	35.64
881.896	34.63
882.065	35.44
882.233	35.16
882.402	35.3
882.57	35.64
882.739	36.04
882.907	35.57
883.076	35.18
883.244	35.43
883.412	36.49
883.581	36.17
883.749	36.61
883.918	37.21
884.086	37.66
884.254	38.07
884.423	38.77
884.591	38.53
884.759	39.91
884.927	41.28
885.096	41.4
885.264	42.87
885.432	44.11
885.6	45.95
885.769	45.87
885.937	45.54
886.105	46.25
886.273	46.38
886.441	47.87
886.609	47.27
886.777	50.59
886.945	50.49
887.113	48.53
887.281	47.3
887.449	48.29
887.617	49.75
887.785	51.08
887.953	52.44
888.121	54.45
888.289	55.94
888.457	54.57
888.625	49.74
888.793	52.25
888.961	50.52
889.129	54.35
889.296	54.82
889.464	56.31
889.632	56.01
889.8	53.85
889.967	51.94
890.135	48.68
