Data from 2938446_Reflection_3.txt Node
Date: Fri Jun 19 18:08:49 EDT 2015
User: robert
Spectrometer: USB4E03002
Autoset integration time: false
Trigger mode: 4
Integration Time (sec): 1.000000E-1
Scans to average: 10
Electric dark correction enabled: true
Nonlinearity correction enabled: false
Boxcar width: 5
Stray light correction enabled: false
XAxis mode: Wavelengths
Stop averaging: false
Number of Pixels in Spectrum: 3648
>>>>>Begin Spectral Data<<<<<
177.575	78.84
177.794	264.6
178.014	290.67
178.233	-1071.68
178.452	-629.82
178.672	2.83
178.891	40.88
179.11	-227.82
179.33	-345.98
179.549	167.7
179.768	-283.88
179.987	-55.37
180.207	1383.62
180.426	-1342.86
180.645	-298.17
180.864	-124.99
181.084	-27.42
181.303	-72.59
181.522	-60.7
181.741	-74.19
181.96	-83.32
182.179	-32.75
182.398	-98.48
182.618	-11.18
182.837	-43.74
183.056	-128.11
183.275	8734
183.494	454.82
183.713	-1754.26
183.932	1456.16
184.151	247.36
184.37	1135.57
184.589	228.99
184.808	161.55
185.027	153.72
185.246	129.36
185.465	70.67
185.684	100.17
185.903	-119.62
186.122	26.74
186.341	-115.41
186.56	-130.46
186.779	41.31
186.998	99.41
187.216	-122.29
187.435	-78.23
187.654	-137.54
187.873	-1362.07
188.092	7646.08
188.311	1905.8
188.53	-1473.09
188.748	-512.41
188.967	-267.7
189.186	-313.48
189.405	-268.84
189.623	-1969.1
189.842	479.79
190.061	1307.74
190.28	-97.65
190.498	-276.88
190.717	-34226.67
190.936	-955.79
191.154	-600
191.373	-864.12
191.592	-25.03
191.81	-28.69
192.029	-17.17
192.248	-35.29
192.466	-11.21
192.685	-51.81
192.904	-46.63
193.122	-9.65
193.341	7.23
193.559	-20.83
193.778	13.99
193.996	-13.58
194.215	23.09
194.433	57.03
194.652	30.25
194.87	30.31
195.089	36.33
195.307	49.54
195.526	46.73
195.744	31.82
195.963	17.02
196.181	7.33
196.399	-53.06
196.618	-679.8
196.836	1260.12
197.055	961.25
197.273	977.5
197.491	233.45
197.71	233.16
197.928	132.92
198.146	126.78
198.365	319.12
198.583	138.92
198.801	91.42
199.019	231.83
199.238	25.36
199.456	1169.44
199.674	497.32
199.892	-71.27
200.111	188.67
200.329	-1324.59
200.547	602.94
200.765	1233.68
200.983	-407.93
201.202	-112.82
201.42	-135.17
201.638	-163.08
201.856	-72.07
202.074	-100.78
202.292	-245.32
202.51	-124.27
202.728	-216.59
202.946	-46.82
203.165	-4.83
203.383	-87.3
203.601	-233.23
203.819	-521.83
204.037	-182.08
204.255	-307.68
204.473	771.34
204.691	466.62
204.909	-1684.3
205.127	-305.6
205.345	-287.28
205.562	-187.97
205.78	-465.15
205.998	-232.06
206.216	-85.23
206.434	-359.1
206.652	-207.5
206.87	-71.72
207.088	-66.84
207.306	-49.96
207.523	-49.11
207.741	-45.47
207.959	-315.47
208.177	-15.31
208.395	-696.62
208.612	-243.94
208.83	-105.92
209.048	-114.36
209.266	-111.47
209.483	62.14
209.701	66.06
209.919	50.16
210.136	31.26
210.354	23.74
210.572	22.51
210.79	78.54
211.007	55.65
211.225	70.74
211.442	89.2
211.66	26.83
211.878	-175.23
212.095	-44.81
212.313	-61.52
212.53	-51.83
212.748	-21.35
212.966	-19.15
213.183	-48.98
213.401	-15.77
213.618	-22.05
213.836	-16.4
214.053	14.59
214.271	31.48
214.488	25.54
214.705	16.71
214.923	22.18
215.14	6.2
215.358	18.71
215.575	31.64
215.793	31.65
216.01	31.71
216.227	20.79
216.445	-38.27
216.662	-59.87
216.879	-149.59
217.097	-96.68
217.314	-156.17
217.531	-103.73
217.749	-509.12
217.966	-576.42
218.183	-965.7
218.4	-515.53
218.618	-485.93
218.835	-586.56
219.052	-689.75
219.269	-283.83
219.487	-173.12
219.704	-188.38
219.921	-149.94
220.138	-56.91
220.355	-29.88
220.572	-4.33
220.79	2.6
221.007	7.75
221.224	20.7
221.441	17.77
221.658	16.46
221.875	7.49
222.092	24.62
222.309	20.72
222.526	6.13
222.743	10.01
222.96	6.09
223.177	13.43
223.394	23.56
223.611	20.37
223.828	21.49
224.045	19.45
224.262	10.29
224.479	5.96
224.696	4.99
224.913	4.67
225.13	-1
225.347	4.95
225.564	8.59
225.781	6.46
225.997	10.79
226.214	12.38
226.431	15.62
226.648	19.65
226.865	19.04
227.082	19.69
227.298	20.38
227.515	20.52
227.732	20.5
227.949	19.53
228.165	18.77
228.382	18.26
228.599	16.42
228.816	14.72
229.032	13.02
229.249	11.96
229.466	11.51
229.682	13.04
229.899	15.3
230.116	13.51
230.332	11.97
230.549	13.25
230.765	13.77
230.982	17.4
231.199	20.01
231.415	24.06
231.632	27.61
231.848	28.91
232.065	29.43
232.281	28.64
232.498	30.76
232.714	31.79
232.931	32.76
233.147	31.33
233.364	29.41
233.58	27.15
233.797	24.96
234.013	21.35
234.23	18.38
234.446	19.41
234.662	19.29
234.879	19.64
235.095	18.61
235.312	20.17
235.528	21.03
235.744	23.1
235.961	21.6
236.177	19.06
236.393	20.81
236.61	21.89
236.826	16.68
237.042	16.72
237.258	15.75
237.475	15.21
237.691	12.08
237.907	10.47
238.123	8.97
238.339	9.89
238.556	12.73
238.772	13.98
238.988	16.06
239.204	16.39
239.42	16.17
239.636	15.41
239.853	15.8
240.069	16.25
240.285	17.23
240.501	16.57
240.717	16.15
240.933	14.86
241.149	14.79
241.365	13.24
241.581	13.57
241.797	13.54
242.013	13.44
242.229	14.33
242.445	13.79
242.661	12.06
242.877	13.77
243.093	14.06
243.309	14.29
243.525	13.36
243.741	13.32
243.957	12.82
244.173	12.99
244.388	13.42
244.604	12.53
244.82	13.32
245.036	13.94
245.252	13.94
245.468	14.18
245.683	14.38
245.899	14.73
246.115	15.61
246.331	15.88
246.547	15.88
246.762	15.26
246.978	15.21
247.194	15.08
247.409	14.9
247.625	14.11
247.841	13.52
248.057	13.26
248.272	13.37
248.488	13.03
248.703	13.08
248.919	12.48
249.135	12.22
249.35	12.36
249.566	12.68
249.782	12.55
249.997	12.77
250.213	12.94
250.428	12.61
250.644	12.22
250.859	10.58
251.075	10.08
251.29	9.92
251.506	9.81
251.721	9.49
251.937	8.82
252.152	9.31
252.368	10.38
252.583	11.46
252.798	12.75
253.014	12.83
253.229	13.61
253.445	12.93
253.66	12.98
253.875	12.78
254.091	12.44
254.306	12.91
254.521	10.33
254.737	8.68
254.952	8.88
255.167	8.73
255.383	9.19
255.598	10.61
255.813	10.19
256.028	10.96
256.244	11.11
256.459	11.52
256.674	10.83
256.889	11.43
257.104	11.45
257.32	10.46
257.535	10.33
257.75	10.09
257.965	10.07
258.18	10.66
258.395	10.21
258.61	10.13
258.826	9.76
259.041	9.86
259.256	9.41
259.471	8.74
259.686	8.87
259.901	9.01
260.116	9.3
260.331	9.21
260.546	10.24
260.761	9.87
260.976	10.29
261.191	10.39
261.406	9.85
261.621	11.11
261.836	12.17
262.05	12.11
262.265	11.39
262.48	9.96
262.695	8.84
262.91	6.94
263.125	8.66
263.34	8.73
263.555	9.66
263.769	10.76
263.984	10.66
264.199	10.6
264.414	10.38
264.629	9.68
264.843	10.16
265.058	9.93
265.273	10.07
265.488	9.02
265.702	8.33
265.917	8.73
266.132	8.59
266.346	7.58
266.561	7.98
266.776	8.62
266.99	8.86
267.205	7.62
267.42	8.19
267.634	8.13
267.849	8.52
268.063	9.25
268.278	8.4
268.492	8.02
268.707	8.92
268.922	9.25
269.136	8.18
269.351	8.4
269.565	10.07
269.78	9.72
269.994	9.68
270.209	10.01
270.423	9.9
270.637	9.83
270.852	10.06
271.066	9.62
271.281	8.03
271.495	8.59
271.709	7.88
271.924	7.84
272.138	7.74
272.353	7.64
272.567	6.98
272.781	6.94
272.996	7.07
273.21	7.01
273.424	7.86
273.638	8.89
273.853	8.76
274.067	9.58
274.281	7.91
274.495	9.33
274.71	9.56
274.924	10.27
275.138	10.78
275.352	10.55
275.566	9.79
275.781	9.07
275.995	9.19
276.209	9.81
276.423	9.95
276.637	11.05
276.851	9.95
277.065	9.31
277.279	9.4
277.493	9.11
277.707	9.67
277.921	11.02
278.135	12
278.349	11.56
278.563	11.76
278.777	11.83
278.991	11.6
279.205	11.33
279.419	10.79
279.633	9.83
279.847	9.37
280.061	9.63
280.275	9.41
280.489	9.22
280.703	9.96
280.917	9.87
281.131	10.03
281.344	9.86
281.558	9.98
281.772	10.9
281.986	11.46
282.2	12.01
282.414	12.09
282.627	12.36
282.841	12.37
283.055	12.01
283.269	11.81
283.482	11.98
283.696	12.38
283.91	12.31
284.123	11.99
284.337	11.36
284.551	10.96
284.764	10.78
284.978	9.98
285.192	9.46
285.405	9.54
285.619	9.25
285.833	8.66
286.046	8.41
286.26	8.38
286.473	8.77
286.687	8.91
286.9	9.03
287.114	9.39
287.327	10.26
287.541	10.47
287.754	10.59
287.968	11.2
288.181	11.39
288.395	11.57
288.608	11.74
288.822	10.8
289.035	10.83
289.248	10.77
289.462	10.35
289.675	10.15
289.889	10.4
290.102	10.04
290.315	9.55
290.529	10.21
290.742	10.29
290.955	11.01
291.169	11.57
291.382	11.69
291.595	12.1
291.808	12.1
292.022	11.48
292.235	10.44
292.448	11.44
292.661	10.71
292.875	10.1
293.088	10.13
293.301	9.16
293.514	9.52
293.727	10.02
293.94	9.86
294.153	10.08
294.367	10.38
294.58	10.74
294.793	10.27
295.006	10.98
295.219	11.04
295.432	10.8
295.645	10.99
295.858	10.45
296.071	10.04
296.284	10.29
296.497	10.82
296.71	11.38
296.923	12.16
297.136	12.23
297.349	12.18
297.562	12.18
297.775	12.77
297.988	12.77
298.201	13.57
298.414	14.04
298.626	13.72
298.839	13.13
299.052	12.34
299.265	12.1
299.478	12.31
299.691	12
299.903	12.44
300.116	11.51
300.329	11.6
300.542	11.56
300.755	11.1
300.967	11.68
301.18	12.26
301.393	12.37
301.605	12.04
301.818	11.7
302.031	12.48
302.243	12.66
302.456	12.66
302.669	13.72
302.881	13.84
303.094	15.22
303.307	14.77
303.519	14.32
303.732	14.47
303.944	14.69
304.157	14.71
304.37	14.27
304.582	13.35
304.795	14.35
305.007	13.48
305.22	13.14
305.432	12.27
305.645	12.27
305.857	11.06
306.069	11.35
306.282	10.32
306.494	10.84
306.707	11.12
306.919	11.56
307.132	10.64
307.344	10.58
307.556	10.1
307.769	10.88
307.981	11.29
308.193	12.16
308.406	11.41
308.618	12.05
308.83	11.76
309.043	10.92
309.255	10.91
309.467	11.71
309.679	11.75
309.892	12.51
310.104	11.45
310.316	11.35
310.528	10.98
310.74	11.53
310.953	11.61
311.165	11.87
311.377	12.16
311.589	12.05
311.801	11.74
312.013	12.13
312.225	11.75
312.437	12.29
312.649	12.25
312.862	12.19
313.074	11.99
313.286	11.3
313.498	10.84
313.71	11.21
313.922	10.98
314.134	10.83
314.346	9.7
314.558	8.95
314.77	9.01
314.982	8.69
315.193	10.05
315.405	10.57
315.617	11.15
315.829	10.8
316.041	10.6
316.253	10.95
316.465	11.38
316.677	12.91
316.888	13.49
317.1	13.5
317.312	14.64
317.524	13.08
317.736	13.31
317.947	14.01
318.159	14.51
318.371	15.67
318.583	16.03
318.794	15.62
319.006	15.24
319.218	15.58
319.43	15.51
319.641	14.65
319.853	15.6
320.064	15.89
320.276	15.18
320.488	15.8
320.699	14.06
320.911	14.1
321.123	14.79
321.334	14.86
321.546	14.4
321.757	14.51
321.969	14.02
322.18	13
322.392	12.64
322.603	13.01
322.815	13.1
323.026	13.44
323.238	13.35
323.449	12.66
323.661	11.88
323.872	12.3
324.083	12.28
324.295	13.09
324.506	13.54
324.718	14.38
324.929	14.42
325.14	14.67
325.352	15.47
325.563	15.48
325.774	15.94
325.986	17.19
326.197	17.34
326.408	17.4
326.62	17.36
326.831	17.51
327.042	15.89
327.253	15.64
327.464	15.27
327.676	15.44
327.887	16.15
328.098	16.84
328.309	16.21
328.52	16.95
328.732	17.75
328.943	17.63
329.154	18.7
329.365	20.66
329.576	21.43
329.787	21.44
329.998	21.24
330.209	20.88
330.42	20.1
330.631	20.5
330.842	20.95
331.053	20.47
331.264	20.99
331.475	20.61
331.686	20.64
331.897	20.63
332.108	20.67
332.319	20.78
332.53	20.89
332.741	22.18
332.952	21.72
333.163	21.26
333.374	22.14
333.585	21.59
333.795	22.15
334.006	21.36
334.217	22.13
334.428	22.05
334.639	21.95
334.849	22.35
335.06	21
335.271	21.58
335.482	21.25
335.692	20.55
335.903	21.62
336.114	21.23
336.325	20.98
336.535	20.8
336.746	20.54
336.957	20.53
337.167	20.39
337.378	21.15
337.589	21.22
337.799	21.53
338.01	21.83
338.22	21.88
338.431	22.56
338.642	22.83
338.852	21.81
339.063	22.77
339.273	22.69
339.484	22.77
339.694	21.91
339.905	21.99
340.115	21.78
340.326	21.67
340.536	21.33
340.746	20.67
340.957	21.59
341.167	22.26
341.378	21.96
341.588	22.59
341.799	23.03
342.009	24.16
342.219	23.69
342.43	23.97
342.64	23.55
342.85	23.34
343.061	23.75
343.271	22.93
343.481	22.75
343.691	22
343.902	21.85
344.112	21.75
344.322	21.42
344.532	21.66
344.743	21.83
344.953	22.48
345.163	22.56
345.373	22.06
345.583	22.57
345.793	22.55
346.004	22.99
346.214	22.71
346.424	21.74
346.634	21.15
346.844	21.37
347.054	20.53
347.264	20.17
347.474	19.73
347.684	19.58
347.894	19.35
348.104	19.33
348.314	20.14
348.524	20.46
348.734	20.93
348.944	21.21
349.154	20.89
349.364	21.76
349.574	22.12
349.784	22.48
349.994	23.2
350.204	22.49
350.413	22.69
350.623	22.01
350.833	21.13
351.043	21.5
351.253	21.43
351.463	21.69
351.672	21.5
351.882	21.48
352.092	21.2
352.302	21.15
352.511	22.26
352.721	22.06
352.931	22.06
353.141	22.78
353.35	22.09
353.56	22.43
353.77	22.06
353.979	22.1
354.189	21.99
354.399	22.11
354.608	21.34
354.818	20.7
355.027	20.5
355.237	19.84
355.447	19.85
355.656	20.09
355.866	19.59
356.075	20.04
356.285	20.09
356.494	20.05
356.704	19.91
356.913	20.66
357.123	20.91
357.332	21.03
357.542	22
357.751	21.81
357.96	21.93
358.17	21.82
358.379	21.69
358.589	21.55
358.798	21.68
359.007	21.76
359.217	21.51
359.426	21.48
359.635	21.57
359.845	21.16
360.054	20.71
360.263	20.49
360.472	20.91
360.682	20.7
360.891	20.59
361.1	20.41
361.309	19.97
361.519	19.44
361.728	19.38
361.937	19.13
362.146	18.81
362.355	18.72
362.564	19.12
362.774	19.1
362.983	18.77
363.192	18.46
363.401	18.39
363.61	18.6
363.819	19.1
364.028	18.73
364.237	18.58
364.446	18.58
364.655	19.08
364.864	19.17
365.073	19.02
365.282	19.16
365.491	19.31
365.7	19.19
365.909	18.78
366.118	18.43
366.327	18.8
366.536	18.72
366.745	19.41
366.954	19.27
367.162	18.86
367.371	18.66
367.58	18.55
367.789	18.01
367.998	18.07
368.207	18.68
368.415	18.64
368.624	17.96
368.833	17.94
369.042	17.14
369.25	17.03
369.459	16.47
369.668	16.05
369.877	15.72
370.085	16.59
370.294	16.07
370.503	15.75
370.711	15.89
370.92	16.21
371.129	16.08
371.337	16.15
371.546	15.89
371.754	16.13
371.963	16.56
372.171	17.04
372.38	16.65
372.589	16.83
372.797	16.47
373.006	16.35
373.214	16.25
373.423	16.16
373.631	15.71
373.84	15.22
374.048	15.22
374.256	14.91
374.465	14.65
374.673	13.9
374.882	13.65
375.09	13.71
375.298	13.26
375.507	13.24
375.715	13.18
375.923	13.09
376.132	13.5
376.34	13.17
376.548	13.23
376.757	13.32
376.965	13.7
377.173	13.83
377.381	13.67
377.59	13.55
377.798	13.72
378.006	13.74
378.214	13.9
378.423	13.99
378.631	14.08
378.839	13.62
379.047	13.49
379.255	13.48
379.463	13.43
379.671	13.72
379.879	14.01
380.088	13.7
380.296	13.41
380.504	13.64
380.712	13.47
380.92	13.06
381.128	13.37
381.336	12.66
381.544	12.56
381.752	12.12
381.96	12.02
382.168	11.71
382.376	11.64
382.584	11.54
382.791	11.22
382.999	11.06
383.207	10.95
383.415	10.76
383.623	10.94
383.831	10.83
384.039	10.94
384.247	10.83
384.454	10.71
384.662	10.19
384.87	10.12
385.078	9.96
385.285	9.98
385.493	10.33
385.701	10.22
385.909	10.12
386.116	9.79
386.324	9.67
386.532	9.58
386.739	9.66
386.947	9.78
387.155	9.75
387.362	9.65
387.57	9.47
387.778	9.08
387.985	9.07
388.193	9.39
388.4	9.3
388.608	9.4
388.816	9.15
389.023	9.32
389.231	9.23
389.438	9.33
389.646	9.52
389.853	9.3
390.061	9.31
390.268	9.13
390.475	8.7
390.683	8.84
390.89	8.53
391.098	8.64
391.305	8.32
391.512	8.38
391.72	8.22
391.927	8
392.135	8.01
392.342	8
392.549	7.75
392.756	7.79
392.964	7.52
393.171	7.58
393.378	7.57
393.586	7.57
393.793	7.51
394	7.43
394.207	7.37
394.414	7.22
394.622	6.99
394.829	7.13
395.036	7.16
395.243	7.19
395.45	7.1
395.657	7.12
395.864	7.01
396.072	6.96
396.279	6.92
396.486	6.78
396.693	6.93
396.9	7.11
397.107	7.1
397.314	6.99
397.521	6.98
397.728	6.93
397.935	6.75
398.142	6.8
398.349	6.44
398.556	6.37
398.763	6.37
398.97	6.27
399.177	6.13
399.383	6.09
399.59	6.11
399.797	6.16
400.004	6.17
400.211	6.23
400.418	6.39
400.625	6.71
400.831	6.86
401.038	6.93
401.245	6.97
401.452	7
401.658	7.15
401.865	7.16
402.072	7.09
402.279	7.21
402.485	7.07
402.692	6.8
402.899	6.69
403.105	6.51
403.312	6.61
403.519	6.51
403.725	6.46
403.932	6.28
404.138	6.31
404.345	6.27
404.552	6.09
404.758	6.11
404.965	6.06
405.171	6.05
405.378	6.12
405.584	6.07
405.791	6.05
405.997	6.01
406.204	6.21
406.41	6.01
406.617	6.02
406.823	5.99
407.029	5.98
407.236	5.91
407.442	5.84
407.649	5.85
407.855	5.8
408.061	5.81
408.268	6
408.474	5.81
408.68	5.87
408.887	5.99
409.093	6.02
409.299	5.95
409.505	5.99
409.712	5.95
409.918	5.94
410.124	5.94
410.33	5.92
410.537	5.8
410.743	5.76
410.949	5.87
411.155	5.77
411.361	5.64
411.567	5.56
411.773	5.57
411.98	5.63
412.186	5.5
412.392	5.34
412.598	5.22
412.804	4.98
413.01	5.01
413.216	4.87
413.422	4.85
413.628	4.96
413.834	5.05
414.04	5.08
414.246	5.08
414.452	5.23
414.658	5.14
414.864	5.09
415.07	5.16
415.275	5.1
415.481	4.96
415.687	4.85
415.893	4.83
416.099	4.82
416.305	4.81
416.511	4.82
416.716	4.65
416.922	4.77
417.128	4.88
417.334	4.96
417.539	4.91
417.745	5.03
417.951	5.11
418.157	5.11
418.362	5.13
418.568	5.15
418.774	5.16
418.979	5.29
419.185	5.27
419.391	5.26
419.596	5.19
419.802	5.24
420.008	5.22
420.213	5.83
420.419	5.81
420.624	5.84
420.83	5.85
421.035	5.87
421.241	5.82
421.446	5.76
421.652	5.74
421.857	5.76
422.063	5.7
422.268	5.67
422.474	5
422.679	4.99
422.885	4.96
423.09	4.95
423.295	4.88
423.501	4.87
423.706	4.91
423.911	4.97
424.117	4.89
424.322	4.88
424.527	4.88
424.733	4.91
424.938	4.93
425.143	4.85
425.349	4.78
425.554	4.87
425.759	4.95
425.964	4.79
426.169	4.61
426.375	4.67
426.58	4.81
426.785	4.87
426.99	4.91
427.195	4.92
427.4	4.85
427.605	4.81
427.811	4.73
428.016	4.5
428.221	4.59
428.426	4.65
428.631	4.61
428.836	4.49
429.041	4.46
429.246	4.36
429.451	4.4
429.656	4.44
429.861	4.43
430.066	4.5
430.271	4.65
430.476	4.72
430.681	4.73
430.886	4.79
431.09	4.85
431.295	4.85
431.5	4.81
431.705	4.72
431.91	4.79
432.115	4.76
432.32	4.7
432.524	4.61
432.729	4.62
432.934	4.79
433.139	4.77
433.343	4.67
433.548	4.62
433.753	4.76
433.958	4.75
434.162	4.73
434.367	4.78
434.572	4.78
434.776	4.82
434.981	4.85
435.186	4.73
435.39	4.76
435.595	4.83
435.799	4.85
436.004	4.78
436.209	4.76
436.413	4.92
436.618	4.95
436.822	4.95
437.027	4.85
437.231	4.79
437.436	4.73
437.64	4.69
437.845	4.7
438.049	4.65
438.253	4.69
438.458	4.74
438.662	4.59
438.867	4.53
439.071	4.55
439.275	4.61
439.48	4.65
439.684	4.69
439.888	4.64
440.093	4.65
440.297	4.68
440.501	4.64
440.706	4.58
440.91	4.62
441.114	4.57
441.318	4.53
441.523	4.55
441.727	4.55
441.931	4.49
442.135	4.58
442.339	4.52
442.543	4.51
442.748	4.52
442.952	4.55
443.156	4.48
443.36	4.53
443.564	4.5
443.768	4.5
443.972	4.44
444.176	4.41
444.38	4.35
444.584	4.37
444.788	4.44
444.992	4.41
445.196	4.46
445.4	4.46
445.604	4.43
445.808	4.48
446.012	4.45
446.216	4.43
446.42	4.44
446.624	4.41
446.828	4.4
447.032	4.37
447.235	4.34
447.439	4.24
447.643	4.26
447.847	4.31
448.051	4.24
448.254	4.23
448.458	4.27
448.662	4.26
448.866	4.28
449.069	4.31
449.273	4.22
449.477	4.17
449.681	4.2
449.884	4.13
450.088	4.16
450.292	4.22
450.495	4.24
450.699	4.33
450.902	4.29
451.106	4.23
451.31	4.19
451.513	4.18
451.717	4.2
451.92	4.28
452.124	4.36
452.327	4.32
452.531	4.33
452.734	4.35
452.938	4.29
453.141	4.2
453.345	4.35
453.548	4.41
453.752	4.42
453.955	4.5
454.158	4.48
454.362	4.45
454.565	4.45
454.769	4.44
454.972	4.52
455.175	4.48
455.379	4.67
455.582	4.55
455.785	4.48
455.988	4.48
456.192	4.47
456.395	4.42
456.598	4.35
456.801	4.27
457.005	4.21
457.208	4.11
457.411	4.15
457.614	4.13
457.817	4.16
458.021	4.24
458.224	4.28
458.427	4.28
458.63	4.29
458.833	4.29
459.036	4.33
459.239	4.37
459.442	4.33
459.645	4.4
459.848	4.39
460.051	4.44
460.254	4.4
460.457	4.48
460.66	4.41
460.863	4.47
461.066	4.52
461.269	4.53
461.472	4.56
461.675	4.67
461.878	4.57
462.081	4.63
462.284	4.59
462.486	4.53
462.689	4.39
462.892	4.51
463.095	4.5
463.298	4.55
463.5	4.54
463.703	4.51
463.906	4.46
464.109	4.47
464.311	4.5
464.514	4.51
464.717	4.5
464.92	4.51
465.122	4.51
465.325	4.46
465.528	4.46
465.73	4.5
465.933	4.55
466.135	4.63
466.338	4.62
466.541	4.53
466.743	4.5
466.946	4.64
467.148	4.71
467.351	4.68
467.553	4.72
467.756	4.76
467.958	4.75
468.161	4.67
468.363	4.69
468.566	4.69
468.768	4.8
468.971	4.82
469.173	4.7
469.375	4.67
469.578	4.6
469.78	4.65
469.983	4.64
470.185	4.6
470.387	4.59
470.59	4.52
470.792	4.59
470.994	4.55
471.196	4.62
471.399	4.74
471.601	4.74
471.803	4.87
472.005	4.88
472.208	4.83
472.41	4.84
472.612	4.92
472.814	4.88
473.016	4.82
473.218	4.75
473.421	4.73
473.623	4.75
473.825	4.73
474.027	4.67
474.229	4.63
474.431	4.69
474.633	4.65
474.835	4.64
475.037	4.65
475.239	4.6
475.441	4.68
475.643	4.7
475.845	4.58
476.047	4.57
476.249	4.57
476.451	4.53
476.653	4.48
476.855	4.5
477.057	4.52
477.258	4.57
477.46	4.66
477.662	4.6
477.864	4.51
478.066	4.52
478.268	4.49
478.469	4.45
478.671	4.44
478.873	4.48
479.075	4.54
479.276	4.42
479.478	4.4
479.68	4.33
479.882	4.33
480.083	4.38
480.285	4.4
480.487	4.41
480.688	4.43
480.89	4.46
481.091	4.43
481.293	4.39
481.495	4.42
481.696	4.41
481.898	4.4
482.099	4.41
482.301	4.39
482.502	4.38
482.704	4.39
482.905	4.4
483.107	4.37
483.308	4.4
483.51	4.4
483.711	4.45
483.913	4.43
484.114	4.43
484.315	4.44
484.517	4.42
484.718	4.42
484.92	4.42
485.121	4.42
485.322	4.45
485.524	4.42
485.725	4.44
485.926	4.41
486.127	4.44
486.329	4.46
486.53	4.44
486.731	4.49
486.932	4.47
487.134	4.46
487.335	4.47
487.536	4.5
487.737	4.52
487.938	4.53
488.139	4.51
488.341	4.55
488.542	4.57
488.743	4.61
488.944	4.6
489.145	4.66
489.346	4.68
489.547	4.65
489.748	4.65
489.949	4.6
490.15	4.59
490.351	4.61
490.552	4.58
490.753	4.59
490.954	4.56
491.155	4.57
491.356	4.55
491.557	4.57
491.758	4.64
491.959	4.62
492.159	4.67
492.36	4.69
492.561	4.7
492.762	4.72
492.963	4.75
493.164	4.85
493.364	4.8
493.565	4.83
493.766	4.77
493.967	4.75
494.167	4.8
494.368	4.73
494.569	4.81
494.769	4.79
494.97	4.77
495.171	4.76
495.371	4.69
495.572	4.81
495.773	4.84
495.973	4.86
496.174	4.9
496.375	4.88
496.575	4.9
496.776	4.87
496.976	4.95
497.177	4.96
497.377	5.01
497.578	5.02
497.778	5
497.979	5.01
498.179	5.06
498.38	5.03
498.58	5.14
498.78	5.27
498.981	5.26
499.181	5.22
499.382	5.26
499.582	5.2
499.782	5.26
499.983	5.29
500.183	5.29
500.383	5.31
500.584	5.32
500.784	5.21
500.984	5.18
501.184	5.24
501.385	5.28
501.585	5.31
501.785	5.4
501.985	5.4
502.185	5.4
502.386	5.36
502.586	5.35
502.786	5.45
502.986	5.53
503.186	5.55
503.386	5.58
503.586	5.59
503.786	5.7
503.987	5.74
504.187	5.7
504.387	5.78
504.587	5.89
504.787	5.93
504.987	5.9
505.187	5.92
505.387	5.99
505.587	6.02
505.786	6.08
505.986	5.97
506.186	5.97
506.386	6.1
506.586	6.13
506.786	6.2
506.986	6.28
507.186	6.25
507.386	6.2
507.585	6.21
507.785	6.16
507.985	6.14
508.185	6.18
508.384	6.19
508.584	6.22
508.784	6.26
508.984	6.23
509.183	6.18
509.383	6.24
509.583	6.3
509.782	6.31
509.982	6.39
510.182	6.45
510.381	6.58
510.581	6.61
510.781	6.6
510.98	6.65
511.18	6.63
511.379	6.7
511.579	6.81
511.778	6.89
511.978	6.94
512.177	6.98
512.377	6.99
512.576	6.89
512.776	6.9
512.975	6.94
513.175	6.96
513.374	7.04
513.573	7.07
513.773	7
513.972	7.01
514.172	7.04
514.371	7.02
514.57	7.05
514.77	7.19
514.969	7.3
515.168	7.4
515.367	7.45
515.567	7.53
515.766	7.56
515.965	7.61
516.164	7.68
516.364	7.67
516.563	7.71
516.762	7.68
516.961	7.7
517.16	7.72
517.359	7.64
517.559	7.64
517.758	7.61
517.957	7.67
518.156	7.71
518.355	7.67
518.554	7.72
518.753	7.74
518.952	7.81
519.151	7.73
519.35	7.71
519.549	7.77
519.748	7.78
519.947	7.86
520.146	7.88
520.345	7.81
520.544	7.84
520.743	7.85
520.942	7.92
521.141	7.99
521.339	8.15
521.538	8.2
521.737	8.24
521.936	8.29
522.135	8.35
522.333	8.27
522.532	8.37
522.731	8.41
522.93	8.4
523.129	8.37
523.327	8.41
523.526	8.43
523.725	8.4
523.923	8.43
524.122	8.39
524.321	8.35
524.519	8.41
524.718	8.41
524.917	8.43
525.115	8.49
525.314	8.52
525.512	8.54
525.711	8.49
525.909	8.51
526.108	8.52
526.306	8.53
526.505	8.54
526.703	8.56
526.902	8.57
527.1	8.57
527.299	8.59
527.497	8.65
527.696	8.67
527.894	8.75
528.092	8.79
528.291	8.83
528.489	8.9
528.688	8.95
528.886	9.02
529.084	9.08
529.283	9.19
529.481	9.23
529.679	9.25
529.877	9.29
530.076	9.3
530.274	9.28
530.472	9.29
530.67	9.31
530.869	9.3
531.067	9.25
531.265	9.22
531.463	9.18
531.661	9.2
531.859	9.2
532.057	9.26
532.255	9.28
532.454	9.38
532.652	9.44
532.85	9.49
533.048	9.57
533.246	9.66
533.444	9.74
533.642	9.81
533.84	9.82
534.038	9.9
534.236	9.89
534.434	9.86
534.632	9.88
534.83	9.91
535.027	9.9
535.225	9.88
535.423	9.92
535.621	9.94
535.819	9.96
536.017	10.04
536.215	10.05
536.412	10.05
536.61	10.16
536.808	10.16
537.006	10.16
537.203	10.15
537.401	10.18
537.599	10.19
537.797	10.22
537.994	10.3
538.192	10.23
538.39	10.21
538.587	10.22
538.785	10.19
538.983	10.16
539.18	10.16
539.378	10.2
539.575	10.2
539.773	10.23
539.97	10.23
540.168	10.22
540.366	10.27
540.563	10.29
540.761	10.33
540.958	10.37
541.155	10.45
541.353	10.5
541.55	10.54
541.748	10.58
541.945	10.65
542.143	10.67
542.34	10.7
542.537	10.73
542.735	10.76
542.932	10.78
543.129	10.77
543.327	10.75
543.524	10.77
543.721	10.76
543.919	10.85
544.116	10.89
544.313	10.95
544.51	11.01
544.708	11.11
544.905	11.18
545.102	11.2
545.299	11.24
545.496	11.35
545.693	11.42
545.891	11.48
546.088	11.47
546.285	11.49
546.482	11.58
546.679	11.58
546.876	11.66
547.073	11.71
547.27	11.84
547.467	12.02
547.664	12.08
547.861	12.17
548.058	12.21
548.255	12.32
548.452	12.29
548.649	12.3
548.846	12.5
549.043	12.52
549.24	12.67
549.437	12.66
549.633	12.62
549.83	12.6
550.027	12.65
550.224	12.68
550.421	12.65
550.618	12.69
550.814	12.64
551.011	12.62
551.208	12.66
551.405	12.71
551.601	12.8
551.798	12.9
551.995	12.93
552.191	12.92
552.388	13.05
552.585	13.16
552.781	13.23
552.978	13.38
553.175	13.41
553.371	13.33
553.568	13.35
553.764	13.39
553.961	13.33
554.157	13.35
554.354	13.51
554.55	13.54
554.747	13.59
554.943	13.58
555.14	13.63
555.336	13.68
555.533	13.83
555.729	13.77
555.926	13.78
556.122	13.8
556.318	13.97
556.515	14
556.711	13.98
556.907	14.04
557.104	14.24
557.3	14.33
557.496	14.47
557.693	14.53
557.889	14.56
558.085	14.55
558.281	14.72
558.478	14.8
558.674	14.85
558.87	14.86
559.066	14.89
559.262	14.95
559.459	14.95
559.655	14.94
559.851	14.89
560.047	15.04
560.243	15.05
560.439	15.13
560.635	15.01
560.831	15.09
561.027	15.14
561.223	15.15
561.419	15.04
561.615	15.06
561.811	15.02
562.007	15.25
562.203	15.24
562.399	15.4
562.595	15.34
562.791	15.45
562.987	15.44
563.183	15.54
563.379	15.61
563.575	15.72
563.771	15.74
563.966	15.81
564.162	15.73
564.358	15.8
564.554	15.84
564.75	15.97
564.945	16.05
565.141	16.09
565.337	16.21
565.533	16.25
565.728	16.34
565.924	16.45
566.12	16.56
566.315	16.73
566.511	16.81
566.707	16.88
566.902	16.92
567.098	16.92
567.293	16.91
567.489	16.97
567.684	17.1
567.88	17.18
568.076	17.25
568.271	17.33
568.467	17.23
568.662	17.32
568.858	17.33
569.053	17.42
569.248	17.52
569.444	17.54
569.639	17.64
569.835	17.59
570.03	17.58
570.225	17.6
570.421	17.55
570.616	17.73
570.812	17.79
571.007	17.9
571.202	17.88
571.397	18
571.593	18.08
571.788	18.02
571.983	18.13
572.178	18.12
572.374	18.22
572.569	18.36
572.764	18.41
572.959	18.47
573.154	18.38
573.35	18.46
573.545	18.43
573.74	18.46
573.935	18.55
574.13	18.61
574.325	18.7
574.52	18.69
574.715	18.73
574.91	18.75
575.105	18.72
575.3	18.89
575.495	18.97
575.69	19.02
575.885	19.14
576.08	19.18
576.275	19.32
576.47	19.38
576.665	19.43
576.86	19.43
577.055	19.43
577.25	19.52
577.444	19.53
577.639	19.72
577.834	19.69
578.029	19.82
578.224	19.75
578.418	19.62
578.613	19.77
578.808	19.86
579.003	19.99
579.197	20
579.392	20.03
579.587	20.09
579.781	20.04
579.976	20.34
580.171	20.25
580.365	20.44
580.56	20.52
580.755	20.53
580.949	20.5
581.144	20.47
581.338	20.52
581.533	20.61
581.727	20.64
581.922	20.59
582.116	20.48
582.311	20.51
582.505	20.43
582.7	20.51
582.894	20.46
583.089	20.42
583.283	20.33
583.478	20.4
583.672	20.3
583.866	20.38
584.061	20.38
584.255	20.48
584.449	20.6
584.644	20.65
584.838	20.63
585.032	20.83
585.226	21.03
585.421	21.15
585.615	21.17
585.809	21.2
586.003	21.3
586.198	21.26
586.392	21.32
586.586	21.31
586.78	21.52
586.974	21.51
587.168	21.4
587.363	21.46
587.557	21.51
587.751	21.49
587.945	21.6
588.139	21.3
588.333	21.42
588.527	21.4
588.721	21.46
588.915	21.37
589.109	21.43
589.303	21.53
589.497	21.47
589.691	21.59
589.885	21.77
590.079	21.84
590.273	22.15
590.466	22.1
590.66	22.05
590.854	22.19
591.048	22.31
591.242	22.31
591.436	22.4
591.629	22.49
591.823	22.5
592.017	22.49
592.211	22.57
592.404	22.55
592.598	22.54
592.792	22.58
592.986	22.34
593.179	22.31
593.373	22.43
593.567	22.38
593.76	22.43
593.954	22.43
594.147	22.38
594.341	22.26
594.535	22.26
594.728	22.5
594.922	22.73
595.115	22.84
595.309	22.84
595.502	22.73
595.696	22.74
595.889	22.78
596.083	22.8
596.276	22.83
596.47	22.88
596.663	22.92
596.856	22.97
597.05	22.88
597.243	22.93
597.437	23.03
597.63	23.12
597.823	23.12
598.017	23.11
598.21	23.21
598.403	23.32
598.596	23.35
598.79	23.32
598.983	23.26
599.176	23.3
599.369	23.25
599.563	23.17
599.756	23.3
599.949	23.37
600.142	23.38
600.335	23.18
600.528	23.25
600.722	23.38
600.915	23.38
601.108	23.41
601.301	23.34
601.494	23.31
601.687	23.28
601.88	23.2
602.073	23.29
602.266	23.25
602.459	23.35
602.652	23.26
602.845	23.16
603.038	23.24
603.231	23.25
603.424	23.27
603.617	23.42
603.809	23.51
604.002	23.52
604.195	23.47
604.388	23.46
604.581	23.4
604.774	23.4
604.966	23.45
605.159	23.47
605.352	23.49
605.545	23.58
605.737	23.42
605.93	23.36
606.123	23.49
606.316	23.45
606.508	23.58
606.701	23.77
606.894	23.77
607.086	23.84
607.279	23.93
607.471	23.88
607.664	23.73
607.857	23.83
608.049	23.96
608.242	23.89
608.434	24.08
608.627	24.15
608.819	24.11
609.012	24.23
609.204	24.23
609.397	24.19
609.589	24.21
609.782	24.41
609.974	24.35
610.166	24.27
610.359	24.4
610.551	24.39
610.743	24.24
610.936	24.29
611.128	24.23
611.32	24.33
611.513	24.32
611.705	24.38
611.897	24.44
612.09	24.52
612.282	24.5
612.474	24.36
612.666	24.08
612.858	24.31
613.051	24.3
613.243	24.35
613.435	24.39
613.627	24.5
613.819	24.46
614.011	24.48
614.203	24.54
614.395	24.73
614.588	24.86
614.78	25.08
614.972	24.98
615.164	24.93
615.356	24.98
615.548	24.75
615.74	24.89
615.932	24.89
616.124	24.82
616.315	24.96
616.507	24.85
616.699	24.69
616.891	24.65
617.083	24.7
617.275	24.72
617.467	24.59
617.659	24.77
617.85	24.58
618.042	24.67
618.234	24.52
618.426	24.43
618.618	24.38
618.809	24.39
619.001	24.36
619.193	24.38
619.384	24.58
619.576	24.68
619.768	24.55
619.959	24.61
620.151	24.77
620.343	24.84
620.534	24.9
620.726	25
620.917	24.85
621.109	24.83
621.301	24.88
621.492	24.72
621.684	24.66
621.875	24.81
622.067	24.87
622.258	24.64
622.45	24.78
622.641	24.8
622.832	24.72
623.024	25
623.215	25.07
623.407	24.91
623.598	24.95
623.789	25.04
623.981	25
624.172	24.83
624.363	24.85
624.555	24.79
624.746	24.81
624.937	24.81
625.129	24.85
625.32	24.78
625.511	24.81
625.702	24.81
625.893	24.97
626.085	24.83
626.276	25.02
626.467	25.05
626.658	25.15
626.849	25.03
627.04	25.24
627.231	25.13
627.422	25.23
627.614	25.32
627.805	25.24
627.996	25.14
628.187	25.31
628.378	25.08
628.569	24.94
628.76	24.85
628.951	24.85
629.142	24.69
629.332	24.78
629.523	24.73
629.714	24.75
629.905	24.94
630.096	24.93
630.287	24.85
630.478	25.15
630.669	25.36
630.859	25.37
631.05	25.37
631.241	25.38
631.432	25.33
631.623	25.43
631.813	25.28
632.004	25.26
632.195	25.11
632.385	25.1
632.576	24.92
632.767	24.9
632.957	24.93
633.148	25.05
633.339	25.09
633.529	25.09
633.72	25.09
633.91	25.11
634.101	24.9
634.292	25.06
634.482	25.25
634.673	25.32
634.863	25.42
635.054	25.37
635.244	25.23
635.435	25.28
635.625	25.41
635.815	25.45
636.006	25.68
636.196	25.9
636.387	25.87
636.577	25.89
636.767	25.78
636.958	25.62
637.148	25.7
637.338	25.67
637.529	25.54
637.719	25.48
637.909	25.3
638.099	25.24
638.29	25.04
638.48	24.9
638.67	24.82
638.86	24.85
639.05	25.05
639.241	25.09
639.431	25.1
639.621	25.16
639.811	25.26
640.001	25.34
640.191	25.16
640.381	25.25
640.571	25.42
640.761	25.45
640.951	25.55
641.141	25.27
641.331	25.22
641.521	25.46
641.711	25.38
641.901	25.15
642.091	25.26
642.281	25.4
642.471	25.46
642.661	25.42
642.851	25.52
643.041	25.55
643.231	25.69
643.42	25.75
643.61	25.84
643.8	26.08
643.99	26.23
644.18	26.29
644.369	26.34
644.559	26.43
644.749	26.61
644.939	26.49
645.128	26.41
645.318	26.43
645.508	26.27
645.697	26
645.887	25.85
646.076	25.86
646.266	25.69
646.456	25.75
646.645	25.78
646.835	25.6
647.024	25.56
647.214	25.62
647.403	25.66
647.593	25.8
647.782	26.03
647.972	25.93
648.161	26.01
648.351	26.09
648.54	26.14
648.73	26.11
648.919	25.97
649.108	26
649.298	25.92
649.487	25.92
649.677	25.87
649.866	25.78
650.055	25.96
650.244	26.02
650.434	26.18
650.623	25.98
650.812	25.97
651.002	26.09
651.191	26.06
651.38	26.28
651.569	26.3
651.758	26.39
651.947	26.65
652.137	26.61
652.326	26.6
652.515	26.47
652.704	26.62
652.893	26.44
653.082	26.28
653.271	26.35
653.46	26.17
653.649	25.89
653.838	25.9
654.027	25.61
654.216	25.75
654.405	25.62
654.594	25.68
654.783	25.61
654.972	25.95
655.161	26.14
655.35	26.19
655.539	26.35
655.728	26.44
655.916	26.12
656.105	26
656.294	25.95
656.483	25.9
656.672	25.88
656.86	25.83
657.049	25.69
657.238	25.7
657.427	25.83
657.615	25.72
657.804	25.91
657.993	26.19
658.181	26.4
658.37	26.27
658.559	26.35
658.747	26.38
658.936	26.44
659.125	26.52
659.313	26.59
659.502	26.47
659.69	26.68
659.879	26.76
660.067	26.77
660.256	26.49
660.444	26.6
660.633	26.51
660.821	26.31
661.01	26.46
661.198	26.3
661.387	26.36
661.575	26.39
661.763	26.12
661.952	25.91
662.14	25.73
662.328	25.96
662.517	26.03
662.705	26.07
662.893	26.2
663.082	25.97
663.27	26.07
663.458	25.81
663.646	25.83
663.834	26.08
664.023	26.2
664.211	26.37
664.399	26.39
664.587	26.22
664.775	26.24
664.963	26.15
665.152	26.41
665.34	26.57
665.528	26.62
665.716	26.66
665.904	26.68
666.092	26.64
666.28	26.6
666.468	26.66
666.656	26.79
666.844	26.89
667.032	27.09
667.22	26.76
667.408	26.59
667.596	26.76
667.784	26.53
667.971	26.46
668.159	26.34
668.347	26.29
668.535	26.34
668.723	26.46
668.911	26.71
669.098	26.48
669.286	26.76
669.474	26.98
669.662	26.98
669.849	26.87
670.037	26.72
670.225	26.95
670.413	27.08
670.6	27.1
670.788	26.95
670.976	26.78
671.163	26.96
671.351	26.6
671.538	26.28
671.726	26.32
671.913	26.49
672.101	26.52
672.289	26.44
672.476	26.16
672.664	26.17
672.851	26.06
673.039	26.02
673.226	26.01
673.413	26.26
673.601	26.28
673.788	25.97
673.976	26.13
674.163	26.47
674.35	26.25
674.538	26.52
674.725	26.72
674.912	26.93
675.1	26.8
675.287	26.76
675.474	26.98
675.662	27.18
675.849	27.21
676.036	27.19
676.223	26.87
676.411	26.92
676.598	26.71
676.785	26.53
676.972	26.83
677.159	27.22
677.346	27.41
677.533	27.09
677.721	27.26
677.908	27.22
678.095	27.26
678.282	27.36
678.469	27.55
678.656	27.68
678.843	27.44
679.03	27
679.217	26.92
679.404	26.95
679.591	27.2
679.778	27.08
679.964	27.04
680.151	27.02
680.338	27.09
680.525	27.04
680.712	26.89
680.899	27.04
681.086	27.31
681.272	27.06
681.459	27.09
681.646	27.09
681.833	27.09
682.02	27.33
682.206	27.29
682.393	27.19
682.58	27.2
682.766	27.44
682.953	27.5
683.14	27.35
683.326	27.42
683.513	27.43
683.7	27.46
683.886	27.28
684.073	27.42
684.259	27.5
684.446	27.16
684.632	27.49
684.819	27.36
685.005	27.37
685.192	27.51
685.378	27.23
685.565	26.95
685.751	26.68
685.938	26.71
686.124	26.43
686.31	26.29
686.497	26.49
686.683	26.24
686.87	26.33
687.056	26.16
687.242	26.01
687.429	26.2
687.615	26.37
687.801	26.65
687.987	26.52
688.174	26.72
688.36	26.76
688.546	26.79
688.732	26.79
688.918	26.81
689.105	27.06
689.291	27.17
689.477	27.2
689.663	27.12
689.849	26.92
690.035	27.25
690.221	27.5
690.407	27.69
690.593	27.89
690.779	27.87
690.965	27.87
691.151	27.81
691.337	27.59
691.523	27.78
691.709	28.19
691.895	28.09
692.081	27.92
692.267	27.45
692.453	27.16
692.639	27.14
692.825	27.08
693.011	27.07
693.196	27.16
693.382	27.26
693.568	27.23
693.754	26.59
693.94	26.85
694.125	26.67
694.311	26.56
694.497	26.67
694.682	26.6
694.868	26.44
695.054	26.37
695.239	26.12
695.425	26.35
695.611	26.49
695.796	26.7
695.982	26.38
696.168	26.35
696.353	26.62
696.539	26.69
696.724	26.75
696.91	26.93
697.095	26.84
697.281	26.92
697.466	26.9
697.652	26.81
697.837	26.75
698.023	27.12
698.208	27.41
698.393	27.43
698.579	27.55
698.764	27.48
698.949	27.57
699.135	27.62
699.32	27.6
699.505	27.41
699.691	27.48
699.876	27.75
700.061	27.29
700.246	26.98
700.432	27.05
700.617	26.69
700.802	26.87
700.987	26.57
701.172	26.39
701.358	26.76
701.543	27.06
701.728	26.79
701.913	26.46
702.098	26.62
702.283	26.85
702.468	27.03
702.653	27.08
702.838	27.13
703.023	27.43
703.208	27.79
703.393	27.48
703.578	27.51
703.763	27.63
703.948	28.15
704.133	28.51
704.318	28.52
704.503	28.33
704.688	28.32
704.873	28.06
705.057	28.11
705.242	28.46
705.427	28.54
705.612	28.81
705.797	28.74
705.981	28.43
706.166	28.22
706.351	27.99
706.536	27.98
706.72	27.86
706.905	27.97
707.09	27.81
707.274	27.38
707.459	27.05
707.644	26.38
707.828	26.58
708.013	26.74
708.197	26.75
708.382	26.99
708.567	26.76
708.751	26.99
708.936	27.22
709.12	27.25
709.305	27.39
709.489	27.86
709.673	28.23
709.858	27.76
710.042	27.68
710.227	27.61
710.411	27.73
710.596	28.09
710.78	28.25
710.964	27.58
711.149	27.87
711.333	27.64
711.517	27.32
711.702	27.02
711.886	27.39
712.07	27.33
712.254	27.43
712.438	27.17
712.623	26.71
712.807	26.56
712.991	27.21
713.175	27.16
713.359	27.56
713.544	27.61
713.728	27.99
713.912	27.88
714.096	27.75
714.28	27.93
714.464	28.13
714.648	28.5
714.832	28.11
715.016	27.63
715.2	27.28
715.384	26.89
715.568	26.8
715.752	26.49
715.936	26.67
716.12	26.89
716.304	26.74
716.488	26.67
716.671	26.52
716.855	27.08
717.039	27.21
717.223	27.38
717.407	27.37
717.59	27.55
717.774	27.48
717.958	27.53
718.142	27.29
718.325	27.44
718.509	27.41
718.693	27.71
718.877	27.57
719.06	28
719.244	27.96
719.428	28.52
719.611	28.23
719.795	28.47
719.978	28.19
720.162	28.38
720.345	28.12
720.529	28.69
720.713	28.72
720.896	29.1
721.08	28.64
721.263	28.54
721.446	28.29
721.63	28.68
721.813	28.32
721.997	28.25
722.18	28.15
722.364	27.89
722.547	26.87
722.73	26.75
722.914	26.33
723.097	26.5
723.28	27.01
723.464	27.07
723.647	26.9
723.83	26.73
724.013	27.16
724.197	27.17
724.38	27.09
724.563	27.2
724.746	26.93
724.929	27.38
725.112	27.31
725.296	26.91
725.479	26.84
725.662	26.76
725.845	27.66
726.028	27.55
726.211	27.44
726.394	27.57
726.577	27.42
726.76	27.23
726.943	27.16
727.126	27.35
727.309	27.38
727.492	27.42
727.675	27.21
727.858	26.95
728.041	26.95
728.224	26.98
728.407	27.07
728.589	27.48
728.772	27.73
728.955	27.42
729.138	27.58
729.321	27.73
729.503	27.8
729.686	27.73
729.869	27.44
730.052	27.19
730.234	27.45
730.417	27.08
730.6	27.4
730.782	27.09
730.965	26.82
731.148	26.67
731.33	26.6
731.513	26.43
731.695	26.78
731.878	26.8
732.061	26.89
732.243	26.55
732.426	26.87
732.608	26.88
732.791	27.06
732.973	27.34
733.156	27.19
733.338	27.16
733.52	27.16
733.703	27.16
733.885	27.31
734.068	26.87
734.25	26.73
734.432	26.82
734.615	26.78
734.797	26.77
734.979	26.6
735.162	26.62
735.344	26.54
735.526	26.05
735.708	26.49
735.891	26.63
736.073	27.39
736.255	27.63
736.437	27.85
736.619	27.54
736.802	27.94
736.984	27.84
737.166	28.07
737.348	28.1
737.53	28.87
737.712	28.02
737.894	27.95
738.076	27.95
738.258	28.23
738.44	28.35
738.622	28.24
738.804	27.95
738.986	28.31
739.168	28.25
739.35	28
739.532	28.17
739.714	28.91
739.896	28.99
740.078	28.72
740.259	28.91
740.441	28.88
740.623	29.38
740.805	29.52
740.987	29.42
741.168	29.05
741.35	29.05
741.532	28.95
741.714	28.26
741.895	28.33
742.077	28.95
742.259	28.64
742.44	28.22
742.622	27.72
742.804	27.59
742.985	27.62
743.167	28.11
743.348	28.75
743.53	27.97
743.711	28.78
743.893	28.27
744.075	27.87
744.256	27.45
744.438	27.93
744.619	28.2
744.8	27.82
744.982	27.54
745.163	27.23
745.345	26.87
745.526	27.12
745.707	26.82
745.889	26.91
746.07	27.58
746.252	27.51
746.433	26.84
746.614	26.29
746.795	26.57
746.977	26.92
747.158	27.13
747.339	27.75
747.52	27.8
747.702	28.08
747.883	28.19
748.064	27.31
748.245	27.55
748.426	28.3
748.607	28.99
748.788	28.59
748.97	28.4
749.151	27.93
749.332	27.05
749.513	27.06
749.694	26.05
749.875	26.41
750.056	27.45
750.237	28.01
750.418	26.76
750.599	26.31
750.78	26.64
750.96	27.08
751.141	27.73
751.322	27.39
751.503	27.59
751.684	28.66
751.865	27.87
752.046	27
752.226	26.5
752.407	27.03
752.588	27.69
752.769	27.58
752.949	27.5
753.13	27.43
753.311	28.33
753.492	28.43
753.672	27.72
753.853	28.65
754.034	28.47
754.214	28.78
754.395	29.45
754.575	29.55
754.756	30.08
754.937	30.05
755.117	29.58
755.298	29.51
755.478	29.09
755.659	29.49
755.839	29.07
756.02	28.63
756.2	28.07
756.381	26.87
756.561	25.99
756.741	26.31
756.922	26.23
757.102	26.28
757.283	26.13
757.463	26.42
757.643	26.22
757.823	26.78
758.004	26.76
758.184	27.4
758.364	28.72
758.545	28.58
758.725	28.54
758.905	28.38
759.085	28.81
759.265	28.99
759.446	28.63
759.626	28.9
759.806	28.2
759.986	29.08
760.166	28.73
760.346	28.1
760.526	28.7
760.706	28.62
760.886	28.61
761.066	28.52
761.246	28.11
761.426	28.34
761.606	28.47
761.786	28.41
761.966	28.54
762.146	28.3
762.326	28.42
762.506	27.95
762.686	28.12
762.866	28.13
763.046	28.01
763.225	28.26
763.405	27.84
763.585	27.84
763.765	28.16
763.945	28
764.124	28.47
764.304	28.21
764.484	28.46
764.664	28.11
764.843	28.18
765.023	28.2
765.203	28.37
765.382	29.47
765.562	28.79
765.741	28.48
765.921	28.27
766.101	28.21
766.28	28.21
766.46	28.27
766.639	28.12
766.819	28.43
766.998	28.43
767.178	28.63
767.357	27.89
767.537	28.64
767.716	28.79
767.896	28.62
768.075	28.55
768.254	28.84
768.434	29.27
768.613	30.08
768.792	29.48
768.972	30.06
769.151	29.3
769.33	29.28
769.51	29.18
769.689	29.19
769.868	29.66
770.047	30.04
770.226	30.43
770.406	29.76
770.585	28.43
770.764	29.1
770.943	28.36
771.122	27.58
771.301	27.98
771.48	27.99
771.66	27.75
771.839	26.78
772.018	26.43
772.197	26.54
772.376	27.66
772.555	28.36
772.734	27.73
772.913	28.33
773.092	29.52
773.271	29.17
773.449	29.37
773.628	29.56
773.807	30.86
773.986	30.31
774.165	30.02
774.344	29.81
774.523	28.98
774.701	29.55
774.88	29.21
775.059	29.2
775.238	29.32
775.417	28.44
775.595	27.92
775.774	26.58
775.953	26.68
776.131	25.95
776.31	25.64
776.489	26.29
776.667	25.05
776.846	24.62
777.025	24.86
777.203	24.2
777.382	24.24
777.56	24.46
777.739	24.58
777.917	24.31
778.096	24.98
778.274	24.46
778.453	24.16
778.631	24.87
778.81	25.3
778.988	24.65
779.166	25.37
779.345	25.82
779.523	26.3
779.702	27.39
779.88	27.83
780.058	27.58
780.237	27.66
780.415	28.49
780.593	28.35
780.771	28.1
780.95	27.87
781.128	27.51
781.306	27.73
781.484	26.96
781.662	26.28
781.841	25.55
782.019	25.31
782.197	25.05
782.375	24.51
782.553	25.39
782.731	24.97
782.909	25.3
783.087	25.05
783.265	25.48
783.443	26.42
783.621	26.96
783.799	28.37
783.977	27.75
784.155	29.15
784.333	29.66
784.511	29.27
784.689	29.62
784.867	30.35
785.045	31.23
785.223	29.89
785.4	29.87
785.578	29.76
785.756	28.75
785.934	29.66
786.112	29.64
786.289	29.34
786.467	28.62
786.645	28.22
786.823	27.78
787	28.31
787.178	29.02
787.356	28.48
787.533	28.16
787.711	27.76
787.889	27.66
788.066	26.44
788.244	26.59
788.421	26.81
788.599	27.22
788.776	27.5
788.954	26.42
789.131	26.23
789.309	26.81
789.486	26.28
789.664	25.84
789.841	26.76
790.019	27.79
790.196	27.76
790.373	27.93
790.551	28.33
790.728	27.47
790.906	27.6
791.083	28.41
791.26	28.82
791.437	28.53
791.615	29.77
791.792	28.9
791.969	28.23
792.146	27.41
792.324	27.64
792.501	28.71
792.678	28.44
792.855	29.15
793.032	28.89
793.209	27.41
793.387	28.31
793.564	28.54
793.741	29.34
793.918	30.21
794.095	30.82
794.272	31.83
794.449	30.24
794.626	31.66
794.803	31.14
794.98	31.02
795.157	31.43
795.334	30.78
795.511	30.27
795.688	29.3
795.864	28.49
796.041	29.03
796.218	27.69
796.395	27.96
796.572	26.96
796.749	26.77
796.925	26.45
797.102	26.7
797.279	27.85
797.456	27.92
797.632	28.1
797.809	28.33
797.986	27.94
798.162	27.35
798.339	27.45
798.516	27.29
798.692	28.15
798.869	28.81
799.046	28.28
799.222	27.81
799.399	27.9
799.575	27.43
799.752	27.87
799.928	27.62
800.105	28.45
800.281	28.4
800.458	29.33
800.634	28.27
800.811	28.2
800.987	29
801.163	28.69
801.34	28.74
801.516	28.27
801.692	27.06
801.869	27.52
802.045	28.42
802.221	27.29
802.398	26.21
802.574	25.6
802.75	23.94
802.926	23.88
803.103	23.83
803.279	24.3
803.455	26.9
803.631	26.83
803.807	25.26
803.983	25.65
804.16	27.27
804.336	27.63
804.512	29.99
804.688	31.15
804.864	31.1
805.04	30.94
805.216	30.27
805.392	28.3
805.568	28.65
805.744	30.22
805.92	28.22
806.096	27.37
806.272	26.07
806.448	24.41
806.623	24.07
806.799	23.99
806.975	25.85
807.151	26.2
807.327	26.28
807.503	25.96
807.678	25.89
807.854	26.11
808.03	26.23
808.206	27.54
808.381	28.43
808.557	28.71
808.733	29
808.908	27.18
809.084	26.29
809.26	27.84
809.435	28.14
809.611	26.98
809.787	27.71
809.962	27.94
810.138	27.96
810.313	26.94
810.489	26.71
810.664	25.43
810.84	26.43
811.015	26.63
811.191	25
811.366	23.8
811.542	24.76
811.717	25.89
811.892	26.55
812.068	27.62
812.243	27.03
812.419	27.2
812.594	28.12
812.769	28.32
812.944	30.54
813.12	29.63
813.295	31.77
813.47	31.65
813.645	30.8
813.821	31.19
813.996	31.7
814.171	32.62
814.346	32.93
814.521	32.58
814.697	30.41
814.872	28.79
815.047	30.07
815.222	30.25
815.397	29.98
815.572	29.41
815.747	28.82
815.922	27.55
816.097	27.97
816.272	27.55
816.447	27.64
816.622	29.32
816.797	29.86
816.972	30.15
817.147	28.65
817.322	28.38
817.496	29.3
817.671	28.75
817.846	28.58
818.021	27.58
818.196	27.04
818.371	26.99
818.545	26.22
818.72	26.15
818.895	26.03
819.069	25.81
819.244	26.12
819.419	26.29
819.594	26.84
819.768	26.93
819.943	27.17
820.117	28.36
820.292	28.14
820.467	28.46
820.641	28.28
820.816	28.17
820.99	28.71
821.165	28.3
821.339	28.11
821.514	27.99
821.688	28.39
821.863	28.34
822.037	28.29
822.212	28.44
822.386	28.4
822.56	28.52
822.735	28.76
822.909	28.92
823.084	29.22
823.258	29.32
823.432	29.54
823.606	29.36
823.781	29.4
823.955	29.5
824.129	29.57
824.303	29.6
824.478	29.6
824.652	29.71
824.826	29.45
825	29.33
825.174	29.19
825.348	28.94
825.523	28.54
825.697	28.41
825.871	28.3
826.045	28.45
826.219	28.77
826.393	28.83
826.567	28.65
826.741	28.59
826.915	28.53
827.089	28.85
827.263	28.68
827.437	29.29
827.611	29.44
827.784	29.1
827.958	29.07
828.132	28.42
828.306	28.43
828.48	28.37
828.654	28.32
828.827	28.9
829.001	28.36
829.175	29.4
829.349	28.28
829.522	28.59
829.696	28.66
829.87	28.76
830.044	29.21
830.217	28.49
830.391	29.02
830.565	29.65
830.738	28.61
830.912	27.62
831.085	26.91
831.259	27.32
831.432	27.26
831.606	27.13
831.779	27.32
831.953	27.98
832.126	28.98
832.3	28.54
832.473	28.42
832.647	29.25
832.82	29.66
832.994	28.9
833.167	29.19
833.34	28.8
833.514	28.74
833.687	28.97
833.86	28.93
834.034	29.47
834.207	29.17
834.38	28.84
834.553	29.27
834.727	30.02
834.9	30.03
835.073	30.25
835.246	31.37
835.419	31.74
835.593	31.62
835.766	31.19
835.939	30.1
836.112	30.26
836.285	30.33
836.458	30.12
836.631	29.45
836.804	29.83
836.977	30.31
837.15	30.54
837.323	29.96
837.496	29.17
837.669	30.44
837.842	30.79
838.015	31.17
838.188	31.07
838.361	30.71
838.533	30.07
838.706	30.65
838.879	28.72
839.052	29.17
839.225	29.13
839.398	28.7
839.57	28.07
839.743	27.84
839.916	28.35
840.088	31.15
840.261	30.29
840.434	30.67
840.607	30.7
840.779	32.05
840.952	30.43
841.124	31.49
841.297	32.55
841.47	31.41
841.642	33.06
841.815	30.72
841.987	25.61
842.16	25.97
842.332	25.71
842.505	25.98
842.677	24.57
842.85	24.57
843.022	24.56
843.194	22.92
843.367	25.8
843.539	24.03
843.712	25.23
843.884	24.99
844.056	25.42
844.229	26.85
844.401	25.94
844.573	27.22
844.745	27.51
844.918	24.5
845.09	25.68
845.262	24.09
845.434	23.57
845.606	23.65
845.779	25.46
845.951	24.62
846.123	22.13
846.295	23.19
846.467	21.59
846.639	19.54
846.811	21.44
846.983	20.49
847.155	20.99
847.327	17.41
847.499	20.07
847.671	19.43
847.843	21.01
848.015	23.01
848.187	22.59
848.359	25.69
848.531	24.68
848.703	26.8
848.875	28.5
849.047	26.17
849.218	26.76
849.39	26.72
849.562	28.63
849.734	26.89
849.905	28.08
850.077	29.15
850.249	29.19
850.421	31.64
850.592	30.58
850.764	31.02
850.936	27.98
851.107	32.27
851.279	30.43
851.451	30.65
851.622	30.56
851.794	31.42
851.965	30.02
852.137	25.39
852.308	24.55
852.48	22.08
852.651	21.15
852.823	27.31
852.994	25.33
853.166	22.6
853.337	24.64
853.509	25.2
853.68	22.15
853.851	19.9
854.023	22.86
854.194	24.85
854.365	24.75
854.537	25.33
854.708	22.57
854.879	25.39
855.05	27.01
855.222	23.7
855.393	22.91
855.564	23.61
855.735	25.32
855.906	23.58
856.078	20.9
856.249	21.81
856.42	23.16
856.591	26.34
856.762	21.2
856.933	21.92
857.104	23.12
857.275	23.88
857.446	22.89
857.617	19.01
857.788	20.99
857.959	25.32
858.13	21.8
858.301	18.5
858.472	14.53
858.643	14.65
858.814	15.5
858.985	13.98
859.155	14.25
859.326	13.75
859.497	18.16
859.668	16.97
859.839	12.08
860.009	16.7
860.18	17.95
860.351	19.4
860.522	22.7
860.692	23.54
860.863	25.52
861.034	22.69
861.204	25.97
861.375	23.44
861.546	25.28
861.716	28.11
861.887	25.03
862.057	23.16
862.228	28.2
862.398	27.28
862.569	23.8
862.739	21.14
862.91	23.9
863.08	22.52
863.251	21.85
863.421	19.73
863.592	17.08
863.762	22.18
863.932	25.8
864.103	18.39
864.273	14.82
864.443	13.07
864.614	12.56
864.784	14.72
864.954	12
865.125	14.86
865.295	17.84
865.465	17.28
865.635	17.65
865.805	15.34
865.976	22.31
866.146	28.45
866.316	30.15
866.486	31.04
866.656	29.21
866.826	31.95
866.996	29.9
867.166	27.58
867.336	30.29
867.506	26.86
867.676	28.08
867.846	23.04
868.016	20.61
868.186	18.5
868.356	15.28
868.526	15.78
868.696	14.55
868.866	16.94
869.036	15.69
869.206	15.59
869.376	10.1
869.545	8.49
869.715	6.17
869.885	7.02
870.055	11.66
870.224	15.12
870.394	16.78
870.564	16.45
870.734	15.72
870.903	15.18
871.073	13.32
871.243	19.19
871.412	20.32
871.582	23.27
871.751	22.61
871.921	25.14
872.091	27.07
872.26	20.96
872.43	22.78
872.599	22.29
872.769	26.26
872.938	27.82
873.108	25.26
873.277	30.41
873.446	28.99
873.616	31.62
873.785	26.97
873.955	29.13
874.124	30.69
874.293	31.81
874.463	35.84
874.632	37.66
874.801	38.48
874.971	41.71
875.14	36.1
875.309	34.14
875.478	32.47
875.647	35.56
875.817	31.75
875.986	33.6
876.155	28.22
876.324	23.81
876.493	22.69
876.662	20.82
876.831	18.84
877	21.01
877.17	26
877.339	24.95
877.508	22.17
877.677	21.1
877.846	20.36
878.015	25.26
878.184	22.54
878.352	21.3
878.521	25.35
878.69	23.86
878.859	20.37
879.028	20.91
879.197	22.38
879.366	23.21
879.534	21.39
879.703	22.36
879.872	22.27
880.041	24.56
880.21	26.06
880.378	26.37
880.547	27.69
880.716	28.87
880.884	29.72
881.053	29.37
881.222	29.7
881.39	31.39
881.559	30.73
881.727	31.61
881.896	32.75
882.065	32.07
882.233	31.22
882.402	31.25
882.57	31.88
882.739	31.11
882.907	30.9
883.076	30.24
883.244	30.54
883.412	30.89
883.581	30.16
883.749	28.97
883.918	28.8
884.086	28.41
884.254	27.7
884.423	25.86
884.591	25.93
884.759	26.09
884.927	26.64
885.096	24.02
885.264	23.98
885.432	23.16
885.6	22.26
885.769	21.1
885.937	21.13
886.105	20.53
886.273	20.46
886.441	18.24
886.609	16.99
886.777	16.25
886.945	18.64
887.113	15.85
887.281	16.57
887.449	17.31
887.617	18.58
887.785	17.62
887.953	19.63
888.121	22.19
888.289	23.92
888.457	24.49
888.625	22.27
888.793	16.24
888.961	19.12
889.129	15.39
889.296	14.64
889.464	14.53
889.632	14.5
889.8	10.04
889.967	5.58
890.135	0.6
