Data from 2938474_Reflection_3.txt Node
Date: Wed Jun 17 13:23:52 EDT 2015
User: robert
Spectrometer: USB4E03002
Autoset integration time: false
Trigger mode: 4
Integration Time (sec): 1.000000E-1
Scans to average: 10
Electric dark correction enabled: true
Nonlinearity correction enabled: false
Boxcar width: 5
Stray light correction enabled: false
XAxis mode: Wavelengths
Stop averaging: false
Number of Pixels in Spectrum: 3648
>>>>>Begin Spectral Data<<<<<
177.575	305.69
177.794	119.44
178.014	81.81
178.233	112.93
178.452	62.16
178.672	106.24
178.891	37.65
179.11	-181.13
179.33	-193.89
179.549	-430.67
179.768	-613.75
179.987	-398.76
180.207	-199.16
180.426	-497.93
180.645	-548.66
180.864	-84.76
181.084	-59.51
181.303	-56.85
181.522	-33.81
181.741	-53.58
181.96	-26.26
182.179	-83.81
182.398	-156.13
182.618	434.82
182.837	408.49
183.056	177.19
183.275	126.18
183.494	119.39
183.713	134.34
183.932	149.93
184.151	193.13
184.37	198.32
184.589	163.2
184.808	162.57
185.027	174.36
185.246	184.61
185.465	295.06
185.684	357.17
185.903	2632.79
186.122	368.08
186.341	263.22
186.56	206.18
186.779	284.35
186.998	522.49
187.216	893.69
187.435	296.02
187.654	279.86
187.873	392.8
188.092	2262.5
188.311	1057.28
188.53	-573.95
188.748	-235.93
188.967	-268.41
189.186	-426.93
189.405	-320.84
189.623	-242.33
189.842	-98
190.061	-125.44
190.28	-175.07
190.498	-204.26
190.717	-389.63
190.936	-813.06
191.154	758.75
191.373	-4348
191.592	-2021.28
191.81	680.36
192.029	555.38
192.248	290.44
192.466	308.03
192.685	294.53
192.904	679.04
193.122	1664.89
193.341	2542.65
193.559	-339.76
193.778	-431.54
193.996	-213
194.215	-56.41
194.433	-101.68
194.652	-82.59
194.87	-106.21
195.089	-136.15
195.307	347.72
195.526	366.28
195.744	208.4
195.963	167.28
196.181	151.21
196.399	147.86
196.618	136.37
196.836	104.86
197.055	129.06
197.273	144.41
197.491	189.9
197.71	227.37
197.928	172.84
198.146	146.07
198.365	141.55
198.583	119.91
198.801	129.26
199.019	160.22
199.238	201.05
199.456	186.63
199.674	151.27
199.892	142.24
200.111	128.62
200.329	167.41
200.547	202.33
200.765	171.39
200.983	152.35
201.202	177.49
201.42	132.26
201.638	208.93
201.856	228.26
202.074	236.95
202.292	250.31
202.51	237.36
202.728	192.32
202.946	122.82
203.165	104.97
203.383	129.68
203.601	96.88
203.819	101.78
204.037	67.03
204.255	61.07
204.473	74.94
204.691	98.08
204.909	101.38
205.127	106.1
205.345	193.87
205.562	318.2
205.78	383.85
205.998	577.87
206.216	471.48
206.434	1254.83
206.652	217.04
206.87	302.68
207.088	202.28
207.306	156.65
207.523	139.02
207.741	153.51
207.959	174.61
208.177	102.69
208.395	98.35
208.612	100.93
208.83	113.77
209.048	156.61
209.266	165.85
209.483	250.86
209.701	284.06
209.919	187.59
210.136	231.34
210.354	158.35
210.572	379.67
210.79	257.57
211.007	167.45
211.225	603.41
211.442	166.64
211.66	131.4
211.878	99.87
212.095	104.46
212.313	109.79
212.53	68.88
212.748	65.92
212.966	68.87
213.183	84.82
213.401	85.35
213.618	60.44
213.836	53.19
214.053	61.66
214.271	67.11
214.488	51.43
214.705	65.83
214.923	61.25
215.14	59.07
215.358	59.25
215.575	52.42
215.793	51.21
216.01	43.68
216.227	40.14
216.445	45.81
216.662	44.72
216.879	55.18
217.097	49.95
217.314	57.68
217.531	68.73
217.749	66.13
217.966	62.25
218.183	61.27
218.4	61.16
218.618	60.96
218.835	53.51
219.052	45.62
219.269	45.53
219.487	48.87
219.704	46.86
219.921	40.24
220.138	44.13
220.355	45.86
220.572	47.09
220.79	52.07
221.007	49.14
221.224	41.49
221.441	62.29
221.658	63.41
221.875	63.18
222.092	58.6
222.309	52.58
222.526	45.92
222.743	43.43
222.96	50.24
223.177	38.14
223.394	46.28
223.611	47.9
223.828	41.83
224.045	39.06
224.262	35.98
224.479	34.44
224.696	31.93
224.913	29.51
225.13	29.12
225.347	24.86
225.564	26.56
225.781	21.21
225.997	20.34
226.214	19.62
226.431	16
226.648	16.82
226.865	17.72
227.082	18.03
227.298	18.12
227.515	16.57
227.732	14.83
227.949	14.76
228.165	13.84
228.382	14.22
228.599	14.16
228.816	14.92
229.032	13.77
229.249	14.82
229.466	15.09
229.682	15.9
229.899	15.83
230.116	18.17
230.332	20.12
230.549	21.26
230.765	19.73
230.982	19.93
231.199	20.28
231.415	22.06
231.632	20.11
231.848	21.04
232.065	21.75
232.281	20.81
232.498	20.11
232.714	17.92
232.931	18.91
233.147	19.78
233.364	19.1
233.58	19.52
233.797	18.78
234.013	19.6
234.23	17.59
234.446	14.73
234.662	16.28
234.879	18.06
235.095	17.94
235.312	17.17
235.528	15.74
235.744	17.24
235.961	16.53
236.177	16.18
236.393	16.02
236.61	16.89
236.826	17.1
237.042	17.8
237.258	19.11
237.475	18
237.691	20.46
237.907	20.59
238.123	20.49
238.339	22.74
238.556	22.29
238.772	20.86
238.988	19.37
239.204	18.43
239.42	17.48
239.636	16.53
239.853	16.3
240.069	14.28
240.285	14.58
240.501	13.31
240.717	12.55
240.933	12.38
241.149	12.96
241.365	13.4
241.581	13.74
241.797	14.02
242.013	13.06
242.229	12.56
242.445	13.46
242.661	12.21
242.877	12.73
243.093	12.23
243.309	12.47
243.525	12.19
243.741	12.21
243.957	11.8
244.173	11.14
244.388	11.85
244.604	12.6
244.82	12.32
245.036	12.61
245.252	11.85
245.468	12.17
245.683	11.89
245.899	11.51
246.115	11.34
246.331	11.36
246.547	11.2
246.762	11.24
246.978	10.68
247.194	10.35
247.409	10.5
247.625	11.1
247.841	10.59
248.057	10.68
248.272	10.95
248.488	10.7
248.703	10.95
248.919	11.52
249.135	10.44
249.35	11.92
249.566	11.9
249.782	11.03
249.997	10.88
250.213	10.36
250.428	10.33
250.644	10.37
250.859	10.53
251.075	10.31
251.29	10.92
251.506	11.35
251.721	11.13
251.937	11.31
252.152	12.68
252.368	12.73
252.583	13.68
252.798	14.37
253.014	13.93
253.229	14.16
253.445	14.49
253.66	13.48
253.875	12.85
254.091	12.35
254.306	12.59
254.521	12.18
254.737	11.46
254.952	11.01
255.167	9.46
255.383	9.61
255.598	10.3
255.813	11.25
256.028	10.78
256.244	11.29
256.459	10.68
256.674	10.19
256.889	10.04
257.104	10.11
257.32	10.01
257.535	9.91
257.75	9.64
257.965	9.27
258.18	9.08
258.395	9.06
258.61	9.11
258.826	9.01
259.041	9.18
259.256	9.06
259.471	9.09
259.686	9.08
259.901	8.97
260.116	9.5
260.331	9.34
260.546	8.98
260.761	8.99
260.976	8.42
261.191	8.44
261.406	8.7
261.621	8.84
261.836	9.17
262.05	9.3
262.265	9.54
262.48	9.35
262.695	9.78
262.91	10.93
263.125	11
263.34	11.67
263.555	11.89
263.769	11.39
263.984	10.74
264.199	9.93
264.414	9.33
264.629	9.43
264.843	9.05
265.058	8.7
265.273	7.46
265.488	7.03
265.702	6.63
265.917	6.2
266.132	5.96
266.346	5.92
266.561	6.29
266.776	6.57
266.99	6.74
267.205	6.83
267.42	6.93
267.634	7.79
267.849	8.13
268.063	8.38
268.278	8.75
268.492	9.19
268.707	9.2
268.922	9.17
269.136	9.07
269.351	9.13
269.565	8.89
269.78	8.89
269.994	8.31
270.209	8.57
270.423	8.24
270.637	8.39
270.852	8.28
271.066	8.32
271.281	8.31
271.495	8.36
271.709	8.49
271.924	8.7
272.138	8.87
272.353	8.71
272.567	8.25
272.781	8.36
272.996	8.15
273.21	8.2
273.424	8.77
273.638	8.62
273.853	7.95
274.067	7.84
274.281	8.03
274.495	7.74
274.71	8.14
274.924	8.22
275.138	8.47
275.352	8.23
275.566	7.83
275.781	7.12
275.995	7.78
276.209	8.69
276.423	8.3
276.637	7.83
276.851	8.47
277.065	8.77
277.279	8.61
277.493	8.58
277.707	8.52
277.921	9.33
278.135	9.64
278.349	9.1
278.563	9.22
278.777	9.36
278.991	9.83
279.205	9.14
279.419	8.99
279.633	8.86
279.847	8.63
280.061	8.83
280.275	8.16
280.489	7.88
280.703	7.65
280.917	7.34
281.131	6.97
281.344	7.02
281.558	6.96
281.772	6.6
281.986	6.72
282.2	6.88
282.414	6.9
282.627	6.86
282.841	7.06
283.055	7.72
283.269	8.21
283.482	8.43
283.696	8.02
283.91	8.28
284.123	8.75
284.337	8.76
284.551	8.78
284.764	8.95
284.978	9.23
285.192	9.3
285.405	9.08
285.619	8.78
285.833	9.18
286.046	9.26
286.26	9.47
286.473	9.04
286.687	9.43
286.9	8.87
287.114	8.82
287.327	8.64
287.541	8.77
287.754	8.86
287.968	9.08
288.181	8.91
288.395	9.24
288.608	9.02
288.822	9.05
289.035	9.26
289.248	9.92
289.462	9.86
289.675	9.78
289.889	9.79
290.102	9.69
290.315	9.27
290.529	9.15
290.742	8.8
290.955	8.77
291.169	9.17
291.382	9.23
291.595	9.54
291.808	9.65
292.022	9.65
292.235	10.02
292.448	10.43
292.661	11.25
292.875	11.61
293.088	11.81
293.301	11.97
293.514	11.39
293.727	11.44
293.94	11.25
294.153	11.26
294.367	11.39
294.58	11.27
294.793	11.41
295.006	11.12
295.219	11.05
295.432	10.95
295.645	11.15
295.858	11.57
296.071	11.37
296.284	11.52
296.497	11.32
296.71	11.42
296.923	11.37
297.136	11.17
297.349	10.83
297.562	10.91
297.775	11.48
297.988	11.42
298.201	11.31
298.414	11.45
298.626	11.63
298.839	12.35
299.052	12.56
299.265	12.64
299.478	12.58
299.691	13.34
299.903	13.7
300.116	13.23
300.329	13.38
300.542	13.5
300.755	13.59
300.967	13.17
301.18	12.99
301.393	13.02
301.605	12.73
301.818	12.46
302.031	12.2
302.243	12.06
302.456	12.38
302.669	12.52
302.881	13.02
303.094	12.91
303.307	12.99
303.519	13.32
303.732	13.27
303.944	13.79
304.157	14.45
304.37	14.6
304.582	14.32
304.795	14.22
305.007	14.19
305.22	13.88
305.432	14.5
305.645	14.9
305.857	14.46
306.069	14.63
306.282	14.73
306.494	14.45
306.707	14.36
306.919	14.05
307.132	13.44
307.344	13.68
307.556	13.53
307.769	13
307.981	13.28
308.193	13.7
308.406	13.68
308.618	13.37
308.83	13.35
309.043	13.23
309.255	13.93
309.467	14.56
309.679	14.01
309.892	14.3
310.104	14.29
310.316	14.01
310.528	13.58
310.74	13.67
310.953	14.1
311.165	14.21
311.377	14.27
311.589	14.59
311.801	14.73
312.013	15.38
312.225	15.48
312.437	15.96
312.649	15.8
312.862	16.2
313.074	16.61
313.286	16.73
313.498	16.59
313.71	16.58
313.922	16.26
314.134	16.12
314.346	15.98
314.558	15.87
314.77	16.09
314.982	16.61
315.193	16.73
315.405	16.64
315.617	16.31
315.829	16.51
316.041	17.05
316.253	17.02
316.465	16.89
316.677	16.55
316.888	16.41
317.1	15.56
317.312	15.04
317.524	15.55
317.736	15.19
317.947	15.67
318.159	16.08
318.371	15.72
318.583	15.13
318.794	15
319.006	15.43
319.218	15.3
319.43	16.26
319.641	16.29
319.853	15.87
320.064	16.08
320.276	15.95
320.488	15.52
320.699	16.2
320.911	16.47
321.123	17.33
321.334	17.16
321.546	17.56
321.757	16.92
321.969	17.24
322.18	16.89
322.392	16.91
322.603	16.98
322.815	16.87
323.026	16.79
323.238	16.9
323.449	16.33
323.661	16.44
323.872	16.47
324.083	17.2
324.295	17.49
324.506	17.59
324.718	17.59
324.929	17.2
325.14	17.4
325.352	17.14
325.563	17.35
325.774	17.72
325.986	17.37
326.197	17.43
326.408	17.28
326.62	16.87
326.831	17.14
327.042	17.71
327.253	17.81
327.464	18.16
327.676	18.65
327.887	18.49
328.098	18.46
328.309	19.06
328.52	19.29
328.732	19.11
328.943	19.03
329.154	19.77
329.365	19.55
329.576	19.85
329.787	20.15
329.998	20
330.209	20.48
330.42	20.44
330.631	20.45
330.842	20.77
331.053	20.77
331.264	20.96
331.475	20.39
331.686	20.53
331.897	21.26
332.108	20.72
332.319	20.28
332.53	20.07
332.741	20.26
332.952	20.06
333.163	19.85
333.374	19.66
333.585	19.7
333.795	19.72
334.006	19.54
334.217	18.78
334.428	18.79
334.639	19.23
334.849	19.1
335.06	18.6
335.271	19.09
335.482	18.71
335.692	19.13
335.903	19.57
336.114	19.62
336.325	19.83
336.535	19.53
336.746	19.76
336.957	19.77
337.167	20.07
337.378	20.6
337.589	20.4
337.799	20.54
338.01	20.2
338.22	19.88
338.431	20.08
338.642	19.85
338.852	20.09
339.063	19.69
339.273	19.83
339.484	19.34
339.694	19.11
339.905	19.42
340.115	19.62
340.326	19.83
340.536	19.91
340.746	19.62
340.957	19.65
341.167	19.52
341.378	19.7
341.588	19.64
341.799	19.36
342.009	19.29
342.219	18.85
342.43	18.76
342.64	18.58
342.85	18.39
343.061	18.29
343.271	18.38
343.481	18.6
343.691	18.66
343.902	18.33
344.112	18.95
344.322	19
344.532	18.86
344.743	18.74
344.953	18.63
345.163	18.58
345.373	18.41
345.583	17.72
345.793	17.56
346.004	17.75
346.214	17.88
346.424	17.33
346.634	17.35
346.844	17.85
347.054	17.87
347.264	18.2
347.474	18.67
347.684	18.82
347.894	18.78
348.104	18.69
348.314	18.34
348.524	18.26
348.734	18.51
348.944	18.65
349.154	18.28
349.364	18.64
349.574	18.59
349.784	18.27
349.994	18.47
350.204	18.96
350.413	19.23
350.623	19.2
350.833	18.95
351.043	19.11
351.253	18.69
351.463	18.92
351.672	18.22
351.882	18.38
352.092	18.45
352.302	18.51
352.511	18.64
352.721	18.63
352.931	18.59
353.141	18.6
353.35	18.42
353.56	18.33
353.77	18.22
353.979	18.68
354.189	18.32
354.399	18.65
354.608	18.45
354.818	17.95
355.027	18.01
355.237	17.94
355.447	18.03
355.656	17.97
355.866	18.16
356.075	18.15
356.285	17.96
356.494	17.97
356.704	17.68
356.913	18
357.123	18.14
357.332	17.66
357.542	17.9
357.751	17.98
357.96	17.92
358.17	17.65
358.379	17.6
358.589	17.47
358.798	17.5
359.007	17.3
359.217	16.81
359.426	16.61
359.635	16.78
359.845	16.61
360.054	16.43
360.263	16.12
360.472	16.29
360.682	16.19
360.891	16.46
361.1	16.4
361.309	16.38
361.519	16.45
361.728	16.71
361.937	16.77
362.146	16.93
362.355	16.95
362.564	17.2
362.774	17.22
362.983	17.23
363.192	16.95
363.401	17.03
363.61	16.88
363.819	17.06
364.028	16.92
364.237	16.64
364.446	16.38
364.655	16.27
364.864	16.35
365.073	16.31
365.282	16.27
365.491	16.1
365.7	15.97
365.909	16.26
366.118	16.17
366.327	16.24
366.536	16.3
366.745	16.57
366.954	16.64
367.162	16.77
367.371	16.45
367.58	16.13
367.789	16.01
367.998	15.91
368.207	15.47
368.415	15.2
368.624	15.08
368.833	14.9
369.042	14.45
369.25	14.35
369.459	13.86
369.668	14.04
369.877	14.04
370.085	14.06
370.294	14.01
370.503	13.9
370.711	13.91
370.92	13.8
371.129	13.67
371.337	13.67
371.546	13.48
371.754	13.53
371.963	13.69
372.171	13.63
372.38	13.53
372.589	13.4
372.797	13.48
373.006	13.13
373.214	13.04
373.423	13.15
373.631	13.13
373.84	13.09
374.048	13.25
374.256	12.88
374.465	12.99
374.673	13.1
374.882	13.17
375.09	13.1
375.298	13.31
375.507	13.23
375.715	13.32
375.923	13.19
376.132	13.21
376.34	13.13
376.548	13.09
376.757	13.08
376.965	12.76
377.173	12.71
377.381	12.81
377.59	12.97
377.798	13.11
378.006	13.08
378.214	13.13
378.423	13.11
378.631	12.94
378.839	13.1
379.047	13
379.255	13.27
379.463	13.47
379.671	13.22
379.879	12.9
380.088	12.91
380.296	12.84
380.504	12.72
380.712	12.53
380.92	12.47
381.128	12.41
381.336	12.12
381.544	11.77
381.752	11.2
381.96	11.28
382.168	11.19
382.376	10.72
382.584	10.62
382.791	10.52
382.999	10.55
383.207	10.65
383.415	10.32
383.623	10.69
383.831	10.66
384.039	10.85
384.247	10.74
384.454	10.62
384.662	10.52
384.87	10.45
385.078	10.34
385.285	10.46
385.493	10.43
385.701	10.52
385.909	10.26
386.116	10.44
386.324	10.3
386.532	10
386.739	10.09
386.947	10.32
387.155	10.37
387.362	10.33
387.57	10.13
387.778	9.95
387.985	9.77
388.193	9.85
388.4	9.82
388.608	9.96
388.816	10.09
389.023	9.97
389.231	9.97
389.438	9.81
389.646	9.89
389.853	9.73
390.061	9.54
390.268	9.58
390.475	9.61
390.683	9.49
390.89	9.38
391.098	9.23
391.305	9.34
391.512	9.14
391.72	9.12
391.927	9.05
392.135	9.19
392.342	9.36
392.549	9.45
392.756	9.22
392.964	9.04
393.171	8.84
393.378	8.96
393.586	8.81
393.793	8.87
394	8.85
394.207	8.69
394.414	8.66
394.622	8.57
394.829	8.37
395.036	8.19
395.243	8.17
395.45	8.24
395.657	8.25
395.864	8.08
396.072	8.03
396.279	8.01
396.486	7.9
396.693	7.66
396.9	7.61
397.107	7.63
397.314	7.91
397.521	7.98
397.728	7.88
397.935	7.89
398.142	7.92
398.349	7.95
398.556	7.61
398.763	7.78
398.97	7.76
399.177	7.72
399.383	7.64
399.59	7.4
399.797	7.63
400.004	7.76
400.211	7.64
400.418	7.56
400.625	7.35
400.831	7.5
401.038	7.5
401.245	7.51
401.452	7.49
401.658	7.66
401.865	7.63
402.072	7.21
402.279	7.07
402.485	7.06
402.692	7.16
402.899	7.27
403.105	7.35
403.312	7.45
403.519	7.52
403.725	7.44
403.932	7.32
404.138	7.5
404.345	7.53
404.552	7.58
404.758	7.54
404.965	7.5
405.171	7.45
405.378	7.32
405.584	7.14
405.791	7.01
405.997	7
406.204	7.13
406.41	6.98
406.617	6.98
406.823	6.89
407.029	6.93
407.236	6.89
407.442	7
407.649	7.03
407.855	6.98
408.061	7.14
408.268	7.26
408.474	6.98
408.68	7.07
408.887	7.23
409.093	7.43
409.299	7.4
409.505	7.4
409.712	7.24
409.918	7.19
410.124	7.22
410.33	7.21
410.537	7.08
410.743	7.19
410.949	7.03
411.155	7.05
411.361	6.87
411.567	6.83
411.773	6.8
411.98	6.8
412.186	6.9
412.392	6.98
412.598	6.85
412.804	6.98
413.01	6.82
413.216	6.89
413.422	6.81
413.628	6.75
413.834	6.84
414.04	6.89
414.246	6.89
414.452	6.75
414.658	6.8
414.864	6.9
415.07	6.79
415.275	6.81
415.481	6.73
415.687	6.64
415.893	6.65
416.099	6.45
416.305	6.39
416.511	6.37
416.716	6.43
416.922	6.34
417.128	6.36
417.334	6.34
417.539	6.42
417.745	6.36
417.951	6.35
418.157	6.39
418.362	6.45
418.568	6.5
418.774	6.46
418.979	6.51
419.185	6.48
419.391	6.47
419.596	6.45
419.802	6.39
420.008	6.43
420.213	5.95
420.419	5.9
420.624	5.91
420.83	5.8
421.035	5.75
421.241	5.6
421.446	5.55
421.652	5.51
421.857	5.49
422.063	5.48
422.268	5.5
422.474	5.92
422.679	5.88
422.885	5.82
423.09	5.86
423.295	5.89
423.501	6.02
423.706	6.06
423.911	6.02
424.117	6.09
424.322	6.11
424.527	6.11
424.733	6.12
424.938	6.26
425.143	6.24
425.349	6.18
425.554	6.25
425.759	6.2
425.964	6.15
426.169	6.05
426.375	5.98
426.58	5.99
426.785	5.91
426.99	5.97
427.195	5.79
427.4	5.86
427.605	5.84
427.811	5.75
428.016	5.66
428.221	5.71
428.426	5.72
428.631	5.61
428.836	5.54
429.041	5.55
429.246	5.52
429.451	5.53
429.656	5.56
429.861	5.7
430.066	5.7
430.271	5.85
430.476	5.78
430.681	5.91
430.886	5.98
431.09	5.94
431.295	5.87
431.5	5.88
431.705	5.91
431.91	5.86
432.115	5.88
432.32	5.9
432.524	5.82
432.729	5.87
432.934	5.87
433.139	5.82
433.343	5.86
433.548	5.94
433.753	5.95
433.958	5.92
434.162	5.93
434.367	5.86
434.572	5.84
434.776	5.76
434.981	5.8
435.186	5.84
435.39	5.91
435.595	5.96
435.799	5.93
436.004	5.85
436.209	5.88
436.413	5.84
436.618	5.74
436.822	5.72
437.027	5.83
437.231	5.78
437.436	5.69
437.64	5.68
437.845	5.66
438.049	5.58
438.253	5.65
438.458	5.62
438.662	5.59
438.867	5.66
439.071	5.68
439.275	5.63
439.48	5.61
439.684	5.55
439.888	5.56
440.093	5.48
440.297	5.5
440.501	5.52
440.706	5.48
440.91	5.54
441.114	5.55
441.318	5.52
441.523	5.53
441.727	5.63
441.931	5.76
442.135	5.75
442.339	5.78
442.543	5.86
442.748	5.8
442.952	5.86
443.156	5.93
443.36	5.9
443.564	5.9
443.768	5.84
443.972	5.7
444.176	5.65
444.38	5.62
444.584	5.6
444.788	5.53
444.992	5.53
445.196	5.44
445.4	5.38
445.604	5.41
445.808	5.42
446.012	5.38
446.216	5.41
446.42	5.39
446.624	5.39
446.828	5.44
447.032	5.47
447.235	5.5
447.439	5.53
447.643	5.45
447.847	5.39
448.051	5.35
448.254	5.43
448.458	5.4
448.662	5.36
448.866	5.46
449.069	5.46
449.273	5.41
449.477	5.42
449.681	5.44
449.884	5.48
450.088	5.46
450.292	5.47
450.495	5.49
450.699	5.5
450.902	5.45
451.106	5.37
451.31	5.25
451.513	5.33
451.717	5.17
451.92	5.19
452.124	5.18
452.327	5.19
452.531	5.17
452.734	5.1
452.938	5.09
453.141	5.14
453.345	5.07
453.548	5.05
453.752	4.99
453.955	5.11
454.158	5.09
454.362	5.15
454.565	5.17
454.769	5.24
454.972	5.25
455.175	5.34
455.379	5.32
455.582	5.32
455.785	5.42
455.988	5.35
456.192	5.29
456.395	5.32
456.598	5.26
456.801	5.25
457.005	5.17
457.208	5.23
457.411	5.11
457.614	5.04
457.817	5
458.021	4.95
458.224	5
458.427	4.99
458.63	5.01
458.833	5.03
459.036	5.09
459.239	5.07
459.442	4.97
459.645	5.05
459.848	5.12
460.051	5.19
460.254	5.28
460.457	5.29
460.66	5.27
460.863	5.23
461.066	5.25
461.269	5.12
461.472	5.16
461.675	5.17
461.878	5.14
462.081	5.18
462.284	5.17
462.486	5.04
462.689	5
462.892	5.11
463.095	5.16
463.298	5.15
463.5	5.22
463.703	5.28
463.906	5.43
464.109	5.36
464.311	5.29
464.514	5.21
464.717	5.33
464.92	5.37
465.122	5.37
465.325	5.38
465.528	5.49
465.73	5.49
465.933	5.54
466.135	5.5
466.338	5.5
466.541	5.49
466.743	5.56
466.946	5.51
467.148	5.52
467.351	5.54
467.553	5.56
467.756	5.5
467.958	5.48
468.161	5.46
468.363	5.5
468.566	5.49
468.768	5.52
468.971	5.57
469.173	5.55
469.375	5.49
469.578	5.42
469.78	5.36
469.983	5.33
470.185	5.39
470.387	5.37
470.59	5.34
470.792	5.47
470.994	5.42
471.196	5.43
471.399	5.46
471.601	5.59
471.803	5.64
472.005	5.71
472.208	5.71
472.41	5.7
472.612	5.77
472.814	5.73
473.016	5.63
473.218	5.79
473.421	5.72
473.623	5.78
473.825	5.62
474.027	5.63
474.229	5.52
474.431	5.5
474.633	5.44
474.835	5.34
475.037	5.4
475.239	5.45
475.441	5.38
475.643	5.38
475.845	5.41
476.047	5.45
476.249	5.41
476.451	5.44
476.653	5.39
476.855	5.43
477.057	5.44
477.258	5.33
477.46	5.37
477.662	5.42
477.864	5.36
478.066	5.35
478.268	5.4
478.469	5.41
478.671	5.32
478.873	5.33
479.075	5.27
479.276	5.25
479.478	5.22
479.68	5.17
479.882	5.15
480.083	5.15
480.285	5.14
480.487	5.15
480.688	5.18
480.89	5.27
481.091	5.28
481.293	5.25
481.495	5.24
481.696	5.26
481.898	5.21
482.099	5.17
482.301	5.19
482.502	5.12
482.704	5.08
482.905	5.05
483.107	5
483.308	4.97
483.51	4.97
483.711	4.95
483.913	4.93
484.114	4.98
484.315	5
484.517	4.98
484.718	5.01
484.92	5.01
485.121	5
485.322	5.01
485.524	5.01
485.725	5.06
485.926	5.09
486.127	5.12
486.329	5.12
486.53	5.09
486.731	5.11
486.932	5.08
487.134	5.09
487.335	5.13
487.536	5.12
487.737	5.11
487.938	5.09
488.139	5.06
488.341	5.05
488.542	5.02
488.743	5.05
488.944	5.02
489.145	5.05
489.346	5.07
489.547	5.09
489.748	5.06
489.949	5.11
490.15	5.12
490.351	5.13
490.552	5.12
490.753	5.11
490.954	5.1
491.155	5.14
491.356	5.18
491.557	5.18
491.758	5.16
491.959	5.23
492.159	5.27
492.36	5.3
492.561	5.31
492.762	5.31
492.963	5.3
493.164	5.37
493.364	5.36
493.565	5.38
493.766	5.46
493.967	5.52
494.167	5.56
494.368	5.59
494.569	5.55
494.769	5.6
494.97	5.64
495.171	5.73
495.371	5.74
495.572	5.74
495.773	5.74
495.973	5.71
496.174	5.67
496.375	5.74
496.575	5.71
496.776	5.71
496.976	5.71
497.177	5.81
497.377	5.81
497.578	5.74
497.778	5.77
497.979	5.85
498.179	5.87
498.38	5.95
498.58	5.89
498.78	5.95
498.981	5.99
499.181	6.1
499.382	6.09
499.582	6.02
499.782	6.14
499.983	6.24
500.183	6.16
500.383	6.23
500.584	6.2
500.784	6.25
500.984	6.26
501.184	6.29
501.385	6.31
501.585	6.33
501.785	6.52
501.985	6.52
502.185	6.53
502.386	6.57
502.586	6.57
502.786	6.62
502.986	6.66
503.186	6.65
503.386	6.67
503.586	6.68
503.786	6.63
503.987	6.56
504.187	6.54
504.387	6.6
504.587	6.55
504.787	6.58
504.987	6.55
505.187	6.52
505.387	6.55
505.587	6.57
505.786	6.61
505.986	6.71
506.186	6.71
506.386	6.79
506.586	6.81
506.786	6.88
506.986	6.97
507.186	7.05
507.386	7.07
507.585	7.1
507.785	7.16
507.985	7.13
508.185	7.12
508.384	7.18
508.584	7.21
508.784	7.27
508.984	7.41
509.183	7.42
509.383	7.51
509.583	7.59
509.782	7.67
509.982	7.78
510.182	7.84
510.381	7.89
510.581	7.92
510.781	7.99
510.98	7.99
511.18	7.96
511.379	7.94
511.579	7.99
511.778	8.01
511.978	8.06
512.177	8.02
512.377	8.07
512.576	8.14
512.776	8.22
512.975	8.24
513.175	8.28
513.374	8.31
513.573	8.39
513.773	8.36
513.972	8.46
514.172	8.45
514.371	8.56
514.57	8.58
514.77	8.64
514.969	8.76
515.168	8.76
515.367	8.81
515.567	8.86
515.766	8.98
515.965	8.94
516.164	8.98
516.364	9.06
516.563	9.03
516.762	9.12
516.961	9.12
517.16	9
517.359	9.02
517.559	9.02
517.758	9.02
517.957	8.96
518.156	9.03
518.355	8.98
518.554	9.01
518.753	9.07
518.952	9.08
519.151	9.12
519.35	9.28
519.549	9.34
519.748	9.46
519.947	9.62
520.146	9.74
520.345	9.78
520.544	9.89
520.743	9.92
520.942	9.89
521.141	9.87
521.339	9.9
521.538	9.91
521.737	10
521.936	9.92
522.135	9.8
522.333	9.84
522.532	9.9
522.731	9.96
522.93	10.03
523.129	10.11
523.327	10.11
523.526	10.1
523.725	10.14
523.923	10.08
524.122	10.15
524.321	10.23
524.519	10.19
524.718	10.18
524.917	10.18
525.115	10.19
525.314	10.25
525.512	10.34
525.711	10.38
525.909	10.37
526.108	10.42
526.306	10.42
526.505	10.41
526.703	10.46
526.902	10.49
527.1	10.52
527.299	10.51
527.497	10.46
527.696	10.47
527.894	10.49
528.092	10.52
528.291	10.56
528.489	10.6
528.688	10.68
528.886	10.72
529.084	10.8
529.283	10.88
529.481	10.96
529.679	11.08
529.877	11.15
530.076	11.18
530.274	11.26
530.472	11.25
530.67	11.28
530.869	11.28
531.067	11.28
531.265	11.28
531.463	11.22
531.661	11.22
531.859	11.22
532.057	11.22
532.255	11.31
532.454	11.33
532.652	11.38
532.85	11.45
533.048	11.54
533.246	11.6
533.444	11.64
533.642	11.76
533.84	11.86
534.038	11.99
534.236	12.05
534.434	12.06
534.632	12.04
534.83	12.16
535.027	12.11
535.225	12.06
535.423	12.12
535.621	12.12
535.819	12.07
536.017	12.06
536.215	12.13
536.412	12.18
536.61	12.23
536.808	12.32
537.006	12.3
537.203	12.38
537.401	12.46
537.599	12.52
537.797	12.67
537.994	12.8
538.192	12.85
538.39	12.82
538.587	12.79
538.785	12.81
538.983	12.85
539.18	12.88
539.378	12.85
539.575	12.8
539.773	12.77
539.97	12.74
540.168	12.69
540.366	12.73
540.563	12.71
540.761	12.79
540.958	12.84
541.155	12.86
541.353	12.89
541.55	12.98
541.748	13.06
541.945	13.11
542.143	13.17
542.34	13.3
542.537	13.35
542.735	13.43
542.932	13.47
543.129	13.52
543.327	13.57
543.524	13.64
543.721	13.71
543.919	13.76
544.116	13.84
544.313	13.9
544.51	13.9
544.708	13.96
544.905	13.98
545.102	14.03
545.299	14.07
545.496	14.1
545.693	14.11
545.891	14.14
546.088	14.18
546.285	14.18
546.482	14.23
546.679	14.37
546.876	14.41
547.073	14.48
547.27	14.56
547.467	14.67
547.664	14.74
547.861	14.88
548.058	14.96
548.255	15.06
548.452	15.16
548.649	15.18
548.846	15.16
549.043	15.2
549.24	15.32
549.437	15.38
549.633	15.39
549.83	15.53
550.027	15.6
550.224	15.6
550.421	15.65
550.618	15.63
550.814	15.62
551.011	15.66
551.208	15.76
551.405	15.83
551.601	15.84
551.798	15.85
551.995	15.81
552.191	15.85
552.388	15.96
552.585	15.97
552.781	16.19
552.978	16.23
553.175	16.28
553.371	16.3
553.568	16.28
553.764	16.3
553.961	16.42
554.157	16.47
554.354	16.46
554.55	16.53
554.747	16.67
554.943	16.6
555.14	16.71
555.336	16.92
555.533	17.01
555.729	17.08
555.926	17.23
556.122	17.2
556.318	17.19
556.515	17.31
556.711	17.24
556.907	17.2
557.104	17.32
557.3	17.34
557.496	17.35
557.693	17.35
557.889	17.41
558.085	17.39
558.281	17.43
558.478	17.66
558.674	17.66
558.87	17.88
559.066	17.84
559.262	17.9
559.459	18.06
559.655	18.09
559.851	18.12
560.047	18.26
560.243	18.24
560.439	18.3
560.635	18.28
560.831	18.4
561.027	18.32
561.223	18.46
561.419	18.51
561.615	18.48
561.811	18.51
562.007	18.69
562.203	18.62
562.399	18.79
562.595	18.81
562.791	18.84
562.987	18.86
563.183	19.05
563.379	19.11
563.575	19.25
563.771	19.37
563.966	19.49
564.162	19.52
564.358	19.6
564.554	19.57
564.75	19.71
564.945	19.79
565.141	19.82
565.337	19.81
565.533	19.95
565.728	19.86
565.924	19.87
566.12	19.85
566.315	19.9
566.511	19.98
566.707	20.11
566.902	20.11
567.098	20.13
567.293	20.19
567.489	20.27
567.684	20.3
567.88	20.46
568.076	20.48
568.271	20.59
568.467	20.64
568.662	20.75
568.858	20.85
569.053	20.98
569.248	21.03
569.444	21.14
569.639	21.21
569.835	21.27
570.03	21.28
570.225	21.3
570.421	21.26
570.616	21.25
570.812	21.29
571.007	21.34
571.202	21.4
571.397	21.5
571.593	21.52
571.788	21.62
571.983	21.6
572.178	21.73
572.374	21.94
572.569	22.09
572.764	22.19
572.959	22.33
573.154	22.28
573.35	22.35
573.545	22.37
573.74	22.51
573.935	22.49
574.13	22.57
574.325	22.67
574.52	22.67
574.715	22.68
574.91	22.74
575.105	22.74
575.3	22.86
575.495	22.74
575.69	22.84
575.885	22.9
576.08	23
576.275	23.09
576.47	23.13
576.665	23.17
576.86	23.31
577.055	23.26
577.25	23.29
577.444	23.33
577.639	23.65
577.834	23.74
578.029	23.75
578.224	23.84
578.418	23.96
578.613	23.96
578.808	23.99
579.003	24.13
579.197	24.28
579.392	24.26
579.587	24.38
579.781	24.3
579.976	24.37
580.171	24.43
580.365	24.4
580.56	24.36
580.755	24.37
580.949	24.42
581.144	24.31
581.338	24.41
581.533	24.54
581.727	24.59
581.922	24.71
582.116	24.72
582.311	24.85
582.505	25.05
582.7	25.2
582.894	25.42
583.089	25.59
583.283	25.7
583.478	25.78
583.672	25.72
583.866	25.59
584.061	25.68
584.255	25.68
584.449	25.63
584.644	25.51
584.838	25.41
585.032	25.36
585.226	25.33
585.421	25.29
585.615	25.36
585.809	25.48
586.003	25.69
586.198	25.74
586.392	25.95
586.586	25.95
586.78	26.01
586.974	26.04
587.168	26.09
587.363	26.03
587.557	26.13
587.751	26.14
587.945	26.19
588.139	26.16
588.333	26.17
588.527	26.06
588.721	26.12
588.915	26.26
589.109	26.26
589.303	26.28
589.497	26.43
589.691	26.39
589.885	26.33
590.079	26.23
590.273	26.33
590.466	26.42
590.66	26.33
590.854	26.29
591.048	26.2
591.242	26.16
591.436	26.11
591.629	26.12
591.823	25.98
592.017	26
592.211	26.04
592.404	26.09
592.598	25.97
592.792	26.29
592.986	26.38
593.179	26.34
593.373	26.58
593.567	26.61
593.76	26.65
593.954	26.88
594.147	26.9
594.341	26.86
594.535	26.85
594.728	26.82
594.922	26.65
595.115	26.65
595.309	26.7
595.502	26.7
595.696	26.75
595.889	26.76
596.083	26.83
596.276	26.91
596.47	27.06
596.663	27.19
596.856	27.21
597.05	27.27
597.243	27.24
597.437	27.3
597.63	27.33
597.823	27.38
598.017	27.43
598.21	27.49
598.403	27.53
598.596	27.53
598.79	27.46
598.983	27.59
599.176	27.74
599.369	27.93
599.563	27.97
599.756	27.92
599.949	27.88
600.142	27.88
600.335	27.75
600.528	27.69
600.722	27.7
600.915	27.83
601.108	27.81
601.301	27.76
601.494	27.77
601.687	27.83
601.88	27.83
602.073	27.93
602.266	27.92
602.459	27.99
602.652	28.11
602.845	28.15
603.038	28.1
603.231	28.1
603.424	28.13
603.617	28.02
603.809	28.07
604.002	28.1
604.195	28.06
604.388	28.11
604.581	28.08
604.774	28.08
604.966	28.04
605.159	28
605.352	28.08
605.545	28.1
605.737	28.2
605.93	28.26
606.123	28.42
606.316	28.6
606.508	28.57
606.701	28.71
606.894	28.62
607.086	28.77
607.279	28.85
607.471	28.76
607.664	28.79
607.857	28.69
608.049	28.61
608.242	28.62
608.434	28.53
608.627	28.6
608.819	28.43
609.012	28.43
609.204	28.53
609.397	28.45
609.589	28.51
609.782	28.69
609.974	28.9
610.166	29.1
610.359	29.16
610.551	29.21
610.743	29.16
610.936	29.31
611.128	29.51
611.32	29.52
611.513	29.59
611.705	29.74
611.897	29.69
612.09	29.66
612.282	29.56
612.474	29.49
612.666	29.65
612.858	29.82
613.051	29.7
613.243	29.58
613.435	29.31
613.627	29.29
613.819	29.3
614.011	29.36
614.203	29.42
614.395	29.37
614.588	29.34
614.78	29.2
614.972	29.11
615.164	29.48
615.356	29.52
615.548	29.6
615.74	29.65
615.932	29.71
616.124	29.38
616.315	29.44
616.507	29.59
616.699	29.67
616.891	29.53
617.083	29.61
617.275	29.35
617.467	29.24
617.659	29.26
617.85	29.24
618.042	29.26
618.234	29.39
618.426	29.26
618.618	29.12
618.809	29.05
619.001	29.07
619.193	29.05
619.384	29.17
619.576	29.32
619.768	29.61
619.959	29.82
620.151	29.58
620.343	29.47
620.534	29.39
620.726	29.32
620.917	29.51
621.109	29.69
621.301	29.66
621.492	29.75
621.684	29.76
621.875	29.67
622.067	29.76
622.258	29.96
622.45	30.21
622.641	30.31
622.832	30.47
623.024	30.24
623.215	30.2
623.407	30.27
623.598	30.32
623.789	30.37
623.981	30.24
624.172	29.92
624.363	29.75
624.555	29.67
624.746	29.7
624.937	29.64
625.129	29.74
625.32	29.73
625.511	29.78
625.702	29.75
625.893	29.64
626.085	29.63
626.276	29.77
626.467	29.87
626.658	29.88
626.849	29.84
627.04	29.84
627.231	29.8
627.422	29.9
627.614	29.95
627.805	30.02
627.996	30.15
628.187	30.17
628.378	30.2
628.569	30.25
628.76	30.36
628.951	30.34
629.142	30.29
629.332	30.35
629.523	30.38
629.714	30.31
629.905	30.14
630.096	30.08
630.287	30.19
630.478	30.06
630.669	30.08
630.859	30.04
631.05	30.14
631.241	30.25
631.432	30.27
631.623	30.08
631.813	30
632.004	30.12
632.195	30.16
632.385	30.22
632.576	30.48
632.767	30.43
632.957	30.4
633.148	30.57
633.339	30.66
633.529	30.68
633.72	30.91
633.91	31.06
634.101	30.94
634.292	30.99
634.482	31.04
634.673	30.95
634.863	30.94
635.054	30.91
635.244	30.84
635.435	30.88
635.625	30.85
635.815	30.88
636.006	30.99
636.196	30.99
636.387	31.11
636.577	30.92
636.767	31.11
636.958	31.28
637.148	31.36
637.338	31.41
637.529	31.3
637.719	31.37
637.909	31.35
638.099	31.12
638.29	31.24
638.48	31.16
638.67	31.19
638.86	31.08
639.05	31.14
639.241	31.02
639.431	31.12
639.621	31.44
639.811	31.5
640.001	31.56
640.191	31.7
640.381	31.71
640.571	31.68
640.761	31.81
640.951	31.8
641.141	31.86
641.331	31.94
641.521	31.65
641.711	31.46
641.901	31.48
642.091	31.41
642.281	31.49
642.471	31.53
642.661	31.66
642.851	31.5
643.041	31.45
643.231	31.24
643.42	31.41
643.61	31.65
643.8	31.75
643.99	31.68
644.18	31.64
644.369	31.47
644.559	31.61
644.749	31.62
644.939	31.9
645.128	31.83
645.318	32.11
645.508	32.18
645.697	31.96
645.887	31.84
646.076	31.86
646.266	31.94
646.456	32.24
646.645	32.18
646.835	32.12
647.024	31.95
647.214	31.77
647.403	31.65
647.593	31.5
647.782	31.86
647.972	31.85
648.161	31.96
648.351	31.88
648.54	31.68
648.73	31.62
648.919	31.48
649.108	31.54
649.298	31.87
649.487	31.96
649.677	32.03
649.866	31.76
650.055	31.98
650.244	31.72
650.434	31.81
650.623	31.94
650.812	31.95
651.002	32.07
651.191	32.07
651.38	32.22
651.569	31.94
651.758	31.92
651.947	32.04
652.137	31.84
652.326	32.05
652.515	31.99
652.704	31.96
652.893	31.97
653.082	32.04
653.271	32.12
653.46	31.79
653.649	31.83
653.838	31.77
654.027	31.66
654.216	31.87
654.405	31.85
654.594	31.88
654.783	31.7
654.972	31.65
655.161	31.62
655.35	31.68
655.539	31.61
655.728	31.63
655.916	31.68
656.105	31.64
656.294	31.28
656.483	31.2
656.672	31.09
656.86	31.23
657.049	31.28
657.238	31.19
657.427	31.01
657.615	31.2
657.804	31.24
657.993	31.17
658.181	31.27
658.37	31.61
658.559	31.74
658.747	31.86
658.936	31.77
659.125	31.86
659.313	31.87
659.502	31.85
659.69	32
659.879	32.02
660.067	32.2
660.256	32.09
660.444	31.91
660.633	32
660.821	31.97
661.01	32.17
661.198	32.25
661.387	32.34
661.575	32.43
661.763	32.16
661.952	32.19
662.14	32.43
662.328	32.53
662.517	32.72
662.705	32.44
662.893	32.5
663.082	32.38
663.27	32.19
663.458	32.16
663.646	32.19
663.834	32.25
664.023	32.13
664.211	31.57
664.399	31.67
664.587	31.73
664.775	31.84
664.963	31.7
665.152	31.75
665.34	31.96
665.528	31.93
665.716	31.98
665.904	32.22
666.092	32.38
666.28	32.57
666.468	32.44
666.656	32.34
666.844	32.44
667.032	32.59
667.22	32.64
667.408	32.56
667.596	32.57
667.784	32.46
667.971	32.15
668.159	32.2
668.347	32.08
668.535	32.15
668.723	32.16
668.911	32.1
669.098	31.85
669.286	31.72
669.474	31.71
669.662	31.96
669.849	32.03
670.037	32.31
670.225	32.41
670.413	32.69
670.6	32.55
670.788	32.76
670.976	32.68
671.163	32.73
671.351	32.77
671.538	32.7
671.726	32.59
671.913	32.45
672.101	32.3
672.289	32.12
672.476	32.03
672.664	32.11
672.851	32.07
673.039	32.13
673.226	32.31
673.413	32.19
673.601	32
673.788	32.09
673.976	32.31
674.163	32.49
674.35	32.44
674.538	32.57
674.725	32.61
674.912	32.28
675.1	32.32
675.287	32.46
675.474	32.76
675.662	33.07
675.849	32.88
676.036	32.79
676.223	32.53
676.411	32.72
676.598	32.58
676.785	32.48
676.972	32.51
677.159	32.32
677.346	32.1
677.533	32.12
677.721	32.05
677.908	31.97
678.095	32.23
678.282	32.18
678.469	32.11
678.656	32.29
678.843	32.38
679.03	32.19
679.217	32.35
679.404	32.23
679.591	32.09
679.778	31.97
679.964	32.07
680.151	31.9
680.338	32.09
680.525	32.19
680.712	32.11
680.899	32.39
681.086	32.71
681.272	32.69
681.459	33.05
681.646	33.26
681.833	33.33
682.02	33.36
682.206	33.54
682.393	33.62
682.58	33.46
682.766	33.33
682.953	33.14
683.14	32.93
683.326	33.16
683.513	33.07
683.7	33
683.886	32.97
684.073	32.9
684.259	33.14
684.446	33.06
684.632	33.25
684.819	33.33
685.005	33.45
685.192	33.56
685.378	33.17
685.565	33.24
685.751	33.23
685.938	33.39
686.124	33.5
686.31	33.09
686.497	33.17
686.683	33.11
686.87	33.23
687.056	32.98
687.242	32.96
687.429	33.32
687.615	33.19
687.801	33.19
687.987	33.28
688.174	33.52
688.36	33.44
688.546	33.31
688.732	33.24
688.918	33.25
689.105	33.52
689.291	33.6
689.477	33.51
689.663	33.66
689.849	33.83
690.035	33.72
690.221	33.71
690.407	34.18
690.593	34.16
690.779	34.26
690.965	34.27
691.151	34.12
691.337	33.93
691.523	33.95
691.709	33.85
691.895	33.79
692.081	33.97
692.267	33.71
692.453	33.27
692.639	33.53
692.825	33.57
693.011	33.36
693.196	33.54
693.382	33.46
693.568	33.27
693.754	33.53
693.94	33.11
694.125	33.09
694.311	33.09
694.497	33.33
694.682	33.15
694.868	33.09
695.054	32.96
695.239	33.07
695.425	33.39
695.611	33.37
695.796	33.02
695.982	33.02
696.168	32.77
696.353	32.91
696.539	32.75
696.724	32.78
696.91	32.55
697.095	32.74
697.281	32.57
697.466	32.45
697.652	32.5
697.837	32.54
698.023	32.69
698.208	32.67
698.393	32.45
698.579	32.46
698.764	32.46
698.949	32.62
699.135	32.71
699.32	32.75
699.505	32.66
699.691	32.61
699.876	32.41
700.061	32.22
700.246	32.44
700.432	32.69
700.617	32.74
700.802	32.41
700.987	32.32
701.172	32.65
701.358	32.63
701.543	32.94
701.728	33.31
701.913	33.43
702.098	33.8
702.283	33.78
702.468	33.86
702.653	33.91
702.838	34.49
703.023	34.86
703.208	34.88
703.393	34.9
703.578	34.8
703.763	34.5
703.948	34.61
704.133	34.35
704.318	34.31
704.503	34.15
704.688	34.09
704.873	33.88
705.057	33.74
705.242	32.91
705.427	32.84
705.612	33.05
705.797	32.95
705.981	32.92
706.166	33.41
706.351	33.28
706.536	33.45
706.72	33.38
706.905	33.5
707.09	33.52
707.274	33.82
707.459	33.86
707.644	33.72
707.828	33.53
708.013	33.77
708.197	33.48
708.382	33.71
708.567	33.43
708.751	33.38
708.936	33.19
709.12	33.18
709.305	33.12
709.489	33.18
709.673	33.07
709.858	33.58
710.042	33.66
710.227	33.62
710.411	33.54
710.596	33.58
710.78	33.6
710.964	33.62
711.149	33.77
711.333	33.86
711.517	33.82
711.702	33.66
711.886	33.67
712.07	33.28
712.254	33.24
712.438	33.14
712.623	33.27
712.807	33.48
712.991	33.78
713.175	33.48
713.359	33.17
713.544	33.11
713.728	33.38
713.912	32.98
714.096	33.15
714.28	33.47
714.464	33.5
714.648	33.38
714.832	32.99
715.016	32.69
715.2	32.85
715.384	33.05
715.568	33.26
715.752	32.94
715.936	33.44
716.12	33.47
716.304	33.09
716.488	33.07
716.671	33.1
716.855	33.06
717.039	33.25
717.223	33.11
717.407	33.17
717.59	32.99
717.774	33.54
717.958	33.46
718.142	33.8
718.325	34.04
718.509	33.99
718.693	34.17
718.877	34.72
719.06	34.68
719.244	34.74
719.428	34.53
719.611	34.33
719.795	34.13
719.978	34.11
720.162	33.98
720.345	34.37
720.529	34.67
720.713	34.89
720.896	35.01
721.08	35.08
721.263	35.1
721.446	35.23
721.63	35.62
721.813	35.6
721.997	35.32
722.18	35.13
722.364	34.94
722.547	34.97
722.73	34.2
722.914	34.32
723.097	34.2
723.28	34.42
723.464	34.56
723.647	34.36
723.83	34.41
724.013	34.75
724.197	34.78
724.38	34.96
724.563	35.14
724.746	35.61
724.929	35.58
725.112	35.71
725.296	35.62
725.479	35.6
725.662	35.61
725.845	35.63
726.028	35
726.211	34.98
726.394	34.38
726.577	34.31
726.76	34.4
726.943	33.92
727.126	33.67
727.309	33.54
727.492	33.45
727.675	33.4
727.858	33.55
728.041	34.23
728.224	34.31
728.407	34.67
728.589	34.33
728.772	33.98
728.955	34.37
729.138	34.35
729.321	34.05
729.503	34.12
729.686	34.2
729.869	33.61
730.052	33.45
730.234	33.35
730.417	33.13
730.6	33.3
730.782	33.62
730.965	33.27
731.148	33.21
731.33	33.58
731.513	33.76
731.695	33.56
731.878	33.8
732.061	33.79
732.243	33.98
732.426	33.86
732.608	34.23
732.791	34.36
732.973	34.46
733.156	34.82
733.338	34.59
733.52	34.67
733.703	35.33
733.885	35.51
734.068	35.54
734.25	35.6
734.432	35.37
734.615	34.75
734.797	34.4
734.979	34.46
735.162	34.53
735.344	34.57
735.526	34.12
735.708	33.62
735.891	33.35
736.073	33.26
736.255	32.68
736.437	33.24
736.619	33.68
736.802	33.35
736.984	33.39
737.166	33.61
737.348	33.94
737.53	34.55
737.712	33.94
737.894	34.28
738.076	34.38
738.258	34.79
738.44	34.59
738.622	34.25
738.804	34.68
738.986	34.34
739.168	33.99
739.35	33.74
739.532	33.54
739.714	34.59
739.896	34.29
740.078	34.14
740.259	34.03
740.441	34.1
740.623	34.22
740.805	34.08
740.987	34.55
741.168	34.44
741.35	34.23
741.532	34.64
741.714	33.93
741.895	34.12
742.077	34.1
742.259	34.37
742.44	34.91
742.622	35.27
742.804	35.3
742.985	35.28
743.167	35.05
743.348	35.11
743.53	34.74
743.711	34.79
743.893	35.26
744.075	35.68
744.256	35.57
744.438	35.39
744.619	35.23
744.8	35.32
744.982	34.92
745.163	35.05
745.345	35.62
745.526	35.84
745.707	35.92
745.889	35.2
746.07	34.83
746.252	35.14
746.433	35.24
746.614	34.83
746.795	34.61
746.977	34.57
747.158	35.29
747.339	34.67
747.52	34.04
747.702	34.23
747.883	34.38
748.064	34.3
748.245	33.92
748.426	33.31
748.607	33.86
748.788	34.55
748.97	34.45
749.151	33.76
749.332	34.54
749.513	35.01
749.694	35.3
749.875	34.82
750.056	35.07
750.237	34.06
750.418	34.22
750.599	33.72
750.78	33.43
750.96	34.25
751.141	34.47
751.322	34.15
751.503	33.97
751.684	33.5
751.865	34.26
752.046	34.29
752.226	34.83
752.407	34.96
752.588	35.08
752.769	35.29
752.949	34.75
753.13	35.05
753.311	34.72
753.492	34.45
753.672	34.53
753.853	33.98
754.034	33.5
754.214	33.7
754.395	33.37
754.575	33.14
754.756	33.29
754.937	33.22
755.117	32.7
755.298	33.46
755.478	33.36
755.659	33.46
755.839	34.33
756.02	34.95
756.2	34.65
756.381	35.07
756.561	35.2
756.741	34.21
756.922	34.31
757.102	34.25
757.283	34.29
757.463	34.64
757.643	34.91
757.823	34.33
758.004	33.85
758.184	34.08
758.364	33.78
758.545	33.88
758.725	34.24
758.905	34.11
759.085	34.53
759.265	34.24
759.446	33.55
759.626	33.49
759.806	34.2
759.986	34.57
760.166	34.72
760.346	34.96
760.526	34.44
760.706	34.32
760.886	34.38
761.066	34.31
761.246	34.42
761.426	35.26
761.606	34.39
761.786	33.76
761.966	33.29
762.146	33.56
762.326	33.51
762.506	34.15
762.686	34.29
762.866	34.48
763.046	34.2
763.225	33.86
763.405	33.65
763.585	34.09
763.765	33.92
763.945	34.05
764.124	33.92
764.304	33.99
764.484	33.45
764.664	33.67
764.843	33.96
765.023	34.04
765.203	34.1
765.382	34.28
765.562	34.65
765.741	34.99
765.921	35.3
766.101	35.25
766.28	34.89
766.46	35.26
766.639	35.04
766.819	34.77
766.998	34.9
767.178	34.61
767.357	34.7
767.537	34.35
767.716	34.57
767.896	34.48
768.075	34.29
768.254	34.58
768.434	35
768.613	35.27
768.792	35.48
768.972	35.59
769.151	36.11
769.33	35.14
769.51	35.05
769.689	35.14
769.868	34.8
770.047	34.81
770.226	34.68
770.406	33.61
770.585	33.13
770.764	32.51
770.943	32.16
771.122	32.12
771.301	32.97
771.48	33.03
771.66	32.75
771.839	32.62
772.018	32.34
772.197	32.18
772.376	33.34
772.555	34.14
772.734	34.21
772.913	34.47
773.092	33.94
773.271	33.71
773.449	33.3
773.628	32.71
773.807	32.95
773.986	33.53
774.165	33.4
774.344	32.49
774.523	32
774.701	31.71
774.88	31.62
775.059	32.14
775.238	32.07
775.417	32.56
775.595	33.96
775.774	34.23
775.953	34.72
776.131	35.67
776.31	36.01
776.489	35.26
776.667	35.16
776.846	34.99
777.025	34.81
777.203	34.61
777.382	34.35
777.56	34.1
777.739	33.32
777.917	32.76
778.096	32.32
778.274	33.35
778.453	33.46
778.631	34.01
778.81	34.51
778.988	34.7
779.166	34.99
779.345	35.47
779.523	34.34
779.702	34.89
779.88	35.71
780.058	35.62
780.237	34.81
780.415	35.69
780.593	35.02
780.771	34.69
780.95	34.75
781.128	33.94
781.306	33.78
781.484	35.63
781.662	36.46
781.841	35.75
782.019	35.88
782.197	36.02
782.375	35.37
782.553	36.01
782.731	36.47
782.909	35.33
783.087	36.68
783.265	36.96
783.443	35.8
783.621	35.31
783.799	35.14
783.977	35.49
784.155	34.33
784.333	34.52
784.511	33.82
784.689	33.19
784.867	34.02
785.045	32.88
785.223	31.85
785.4	31.57
785.578	29.9
785.756	29.61
785.934	29.77
786.112	31.08
786.289	30.87
786.467	31.11
786.645	31.35
786.823	31.21
787	31.68
787.178	32.85
787.356	33.2
787.533	33.94
787.711	33.91
787.889	32.87
788.066	32.91
788.244	32.55
788.421	33.1
788.599	33.55
788.776	34.03
788.954	34.57
789.131	34.14
789.309	34.09
789.486	34.44
789.664	34.77
789.841	35.55
790.019	35.32
790.196	36.18
790.373	36.88
790.551	36.23
790.728	36.32
790.906	35.57
791.083	35.74
791.26	36.23
791.437	35.86
791.615	36.2
791.792	37.35
791.969	37.16
792.146	37.7
792.324	36.47
792.501	37.23
792.678	37.15
792.855	37.08
793.032	36.04
793.209	35.73
793.387	36.07
793.564	35.92
793.741	35.75
793.918	35.34
794.095	35.06
794.272	35.59
794.449	35.35
794.626	36.07
794.803	35.88
794.98	37.39
795.157	36.85
795.334	36.29
795.511	35.8
795.688	34.17
795.864	34.74
796.041	33.86
796.218	33.66
796.395	33.09
796.572	32.02
796.749	31.97
796.925	31
797.102	30.88
797.279	31.76
797.456	32.45
797.632	32.94
797.809	32.13
797.986	34.08
798.162	33.41
798.339	33.12
798.516	33.02
798.692	33.26
798.869	33.62
799.046	34.07
799.222	34.06
799.399	33.79
799.575	33.56
799.752	34.14
799.928	32.55
800.105	32.95
800.281	33.69
800.458	34.63
800.634	34.65
800.811	34.9
800.987	34.61
801.163	34.26
801.34	33.85
801.516	33.89
801.692	34.34
801.869	33.96
802.045	34.73
802.221	34.42
802.398	34.35
802.574	34.05
802.75	32.71
802.926	33.7
803.103	34.75
803.279	35.07
803.455	34.93
803.631	34.86
803.807	34.69
803.983	34.31
804.16	34.51
804.336	33.76
804.512	34.24
804.688	35.94
804.864	35.6
805.04	35.98
805.216	36.61
805.392	36.76
805.568	36.71
805.744	37.48
805.92	37.78
806.096	37.77
806.272	38.01
806.448	37.85
806.623	38.16
806.799	37.8
806.975	36.91
807.151	36.04
807.327	36.17
807.503	35.38
807.678	35.44
807.854	34.78
808.03	34.29
808.206	34.96
808.381	35.37
808.557	35.15
808.733	34.93
808.908	33.86
809.084	34.41
809.26	35.06
809.435	35.42
809.611	36.75
809.787	37.49
809.962	38.09
810.138	36.58
810.313	35.93
810.489	34.7
810.664	34.27
810.84	35
811.015	35.66
811.191	34.57
811.366	34.66
811.542	33.6
811.717	33.8
811.892	33.99
812.068	34.69
812.243	34.76
812.419	33.97
812.594	34.69
812.769	34.44
812.944	32.95
813.12	33.03
813.295	34.63
813.47	35.91
813.645	34.93
813.821	35.55
813.996	35.64
814.171	36.06
814.346	37.36
814.521	37.84
814.697	38.2
814.872	39.91
815.047	39.7
815.222	38.14
815.397	36.49
815.572	38.55
815.747	38.17
815.922	39.02
816.097	39.53
816.272	39.97
816.447	40.95
816.622	40.12
816.797	39.12
816.972	39.77
817.147	40.08
817.322	41.28
817.496	40.03
817.671	40.06
817.846	39.47
818.021	38.4
818.196	37.94
818.371	36.71
818.545	38.22
818.72	38.41
818.895	36.97
819.069	37.16
819.244	36.62
819.419	36.1
819.594	35.67
819.768	35.68
819.943	36.21
820.117	35.36
820.292	35.77
820.467	34.95
820.641	34.84
820.816	35
820.99	34.59
821.165	34.12
821.339	34.26
821.514	34.11
821.688	34.14
821.863	33.9
822.037	33.94
822.212	33.74
822.386	33.87
822.56	33.88
822.735	34.05
822.909	33.95
823.084	34.03
823.258	33.95
823.432	34.03
823.606	33.8
823.781	33.84
823.955	33.95
824.129	33.69
824.303	33.44
824.478	33.56
824.652	33.33
824.826	33.2
825	33.37
825.174	33.1
825.348	33.16
825.523	33.28
825.697	33.57
825.871	33.75
826.045	34.13
826.219	34.58
826.393	33.8
826.567	34.4
826.741	34.76
826.915	34.47
827.089	35.03
827.263	35.34
827.437	35.31
827.611	35.31
827.784	35.37
827.958	35.92
828.132	35.76
828.306	36.6
828.48	36.18
828.654	36.5
828.827	36.64
829.001	36.43
829.175	36.69
829.349	37.18
829.522	37.53
829.696	37.63
829.87	36.24
830.044	36.69
830.217	36.08
830.391	37.5
830.565	37.61
830.738	37.41
830.912	37.32
831.085	36.8
831.259	37.56
831.432	36.52
831.606	37.02
831.779	37.08
831.953	36.23
832.126	35.77
832.3	34.13
832.473	34.04
832.647	34.84
832.82	35.17
832.994	34.07
833.167	33.38
833.34	33.34
833.514	32.56
833.687	33.27
833.86	33.94
834.034	34.78
834.207	34.66
834.38	34.72
834.553	34.54
834.727	34.15
834.9	34.59
835.073	35.24
835.246	35.78
835.419	36.47
835.593	36.54
835.766	35.77
835.939	36.44
836.112	36.75
836.285	36.65
836.458	36.73
836.631	36.19
836.804	35.77
836.977	33.89
837.15	33.56
837.323	33.49
837.496	33.93
837.669	34.05
837.842	31.57
838.015	31.78
838.188	32.02
838.361	31.06
838.533	30.68
838.706	33.09
838.879	35.08
839.052	34.15
839.225	34.99
839.398	33.54
839.57	34.17
839.743	35.53
839.916	34.42
840.088	33
840.261	34.03
840.434	35.93
840.607	34.85
840.779	35.71
840.952	37.93
841.124	36.73
841.297	37.9
841.47	36.48
841.642	36.69
841.815	38.17
841.987	40.39
842.16	41.81
842.332	42.24
842.505	43.68
842.677	43.21
842.85	38.92
843.022	39.03
843.194	37.22
843.367	38.04
843.539	37.55
843.712	38.41
843.884	35.91
844.056	34.13
844.229	33.85
844.401	31.71
844.573	30.21
844.745	31.3
844.918	30.67
845.09	31.53
845.262	31.83
845.434	31.45
845.606	31.81
845.779	31.44
845.951	32.75
846.123	32.37
846.295	32.06
846.467	33.3
846.639	37.67
846.811	37.08
846.983	35.14
847.155	40.41
847.327	42.5
847.499	40.14
847.671	42.69
847.843	43.71
848.015	45.09
848.187	47.07
848.359	48.83
848.531	47.71
848.703	51.16
848.875	55.6
849.047	53.83
849.218	52.61
849.39	55.93
849.562	56.87
849.734	56.31
849.905	56.05
850.077	56.95
850.249	55.37
850.421	57.43
850.592	56.67
850.764	57.79
850.936	52.22
851.107	53.52
851.279	49.65
851.451	51.16
851.622	47.87
851.794	46.24
851.965	43.99
852.137	44.29
852.308	43.72
852.48	45.23
852.651	42.9
852.823	46.9
852.994	46.34
853.166	48.45
853.337	50.52
853.509	52.67
853.68	54.87
853.851	56.76
854.023	53.43
854.194	51.69
854.365	51.34
854.537	51.24
854.708	55.14
854.879	53.69
855.05	52.71
855.222	50.03
855.393	53.84
855.564	52.5
855.735	50.78
855.906	52.61
856.078	56.07
856.249	55.38
856.42	56.65
856.591	52.29
856.762	54.8
856.933	50.74
857.104	50.75
857.275	48.98
857.446	51.49
857.617	49.53
857.788	50.15
857.959	44.98
858.13	43.7
858.301	42.09
858.472	39.96
858.643	36.76
858.814	42.99
858.985	41.07
859.155	42.85
859.326	44.07
859.497	46.69
859.668	45.84
859.839	47.87
860.009	48.93
860.18	45.4
860.351	48.54
860.522	46.8
860.692	45.48
860.863	44.17
861.034	44.78
861.204	43.47
861.375	44.21
861.546	45.57
861.716	45
861.887	44.31
862.057	47.14
862.228	47.83
862.398	48.86
862.569	50.33
862.739	57.47
862.91	50.76
863.08	47.72
863.251	45.9
863.421	42.63
863.592	43.19
863.762	44.39
863.932	45.86
864.103	47.42
864.273	48.57
864.443	48.88
864.614	41.33
864.784	42.01
864.954	43.39
865.125	46.21
865.295	51.95
865.465	56.25
865.635	53.05
865.805	52.44
865.976	50.89
866.146	50.41
866.316	48.24
866.486	52.21
866.656	56.63
866.826	57.33
866.996	55.79
867.166	53.05
867.336	49.18
867.506	50.03
867.676	50.96
867.846	48.21
868.016	48.11
868.186	47.99
868.356	42.65
868.526	38.04
868.696	34.96
868.866	37.15
869.036	36.87
869.206	34.52
869.376	37.52
869.545	32.94
869.715	35.01
869.885	33.89
870.055	32.92
870.224	40.87
870.394	42.73
870.564	45.44
870.734	43.01
870.903	40.58
871.073	42.95
871.243	40.77
871.412	44.36
871.582	44.24
871.751	48.58
871.921	51.38
872.091	48.92
872.26	49.61
872.43	46.24
872.599	48.08
872.769	53.08
872.938	53.97
873.108	56.98
873.277	54.1
873.446	53.27
873.616	52.65
873.785	50.1
873.955	48.67
874.124	48.5
874.293	51.57
874.463	53.81
874.632	52.55
874.801	50.15
874.971	51.68
875.14	52.33
875.309	50.08
875.478	47.31
875.647	49.97
875.817	46.05
875.986	47.03
876.155	48.64
876.324	45.7
876.493	47.52
876.662	48.45
876.831	43.64
877	43.63
877.17	47.99
877.339	47.38
877.508	44.85
877.677	47.47
877.846	44.29
878.015	39.81
878.184	40.11
878.352	38.77
878.521	37.35
878.69	43.46
878.859	44.44
879.028	43.7
879.197	44.23
879.366	44.39
879.534	44.05
879.703	43.19
879.872	42.1
880.041	40.73
880.21	36.93
880.378	37.14
880.547	36.4
880.716	35.44
880.884	34.86
881.053	34.17
881.222	34.27
881.39	35.42
881.559	35.21
881.727	35.31
881.896	34.92
882.065	36.08
882.233	35.34
882.402	34.52
882.57	34.86
882.739	34.36
882.907	35.15
883.076	34.88
883.244	33.84
883.412	34.55
883.581	35.45
883.749	36.13
883.918	36.07
884.086	36.64
884.254	36.59
884.423	37.48
884.591	38.64
884.759	39.02
884.927	39.64
885.096	40.26
885.264	40.44
885.432	41.17
885.6	42.37
885.769	41.53
885.937	42.37
886.105	43.7
886.273	42.09
886.441	42.04
886.609	42.12
886.777	42.96
886.945	45.18
887.113	45
887.281	42.75
887.449	40.9
887.617	42.35
887.785	43.38
887.953	43.48
888.121	44.98
888.289	47.5
888.457	46.32
888.625	47.69
888.793	47.9
888.961	46.98
889.129	47.77
889.296	50.06
889.464	52.28
889.632	52.2
889.8	52.63
889.967	53.48
890.135	50.56
