Data from 2938554_Reflection_2.txt Node
Date: Sun Jun 14 23:51:50 EDT 2015
User: robert
Spectrometer: USB4E03002
Autoset integration time: false
Trigger mode: 4
Integration Time (sec): 1.000000E-1
Scans to average: 10
Electric dark correction enabled: true
Nonlinearity correction enabled: false
Boxcar width: 5
Stray light correction enabled: false
XAxis mode: Wavelengths
Stop averaging: false
Number of Pixels in Spectrum: 3648
>>>>>Begin Spectral Data<<<<<
177.575	236.25
177.794	-29.67
178.014	-101.86
178.233	69.04
178.452	53.41
178.672	127.25
178.891	44.35
179.11	111.9
179.33	116.69
179.549	82.88
179.768	103.85
179.987	122.13
180.207	86.29
180.426	87.01
180.645	140.56
180.864	167.08
181.084	147.37
181.303	145.96
181.522	170.44
181.741	171.51
181.96	290.42
182.179	256.78
182.398	273.67
182.618	871.35
182.837	319.03
183.056	137.52
183.275	164.93
183.494	117.79
183.713	134.43
183.932	141.14
184.151	216.41
184.37	239.9
184.589	396.71
184.808	627.01
185.027	399.3
185.246	-659.21
185.465	-597.51
185.684	-881.1
185.903	-591.78
186.122	2206.77
186.341	639.76
186.56	457.11
186.779	566.68
186.998	354.28
187.216	230.08
187.435	292.2
187.654	257.24
187.873	247.51
188.092	317.55
188.311	630.81
188.53	693.63
188.748	-854.76
188.967	-416.52
189.186	-1448.24
189.405	-1749.15
189.623	-1382.85
189.842	-9035.71
190.061	-1439.18
190.28	-1983.44
190.498	325.11
190.717	177.64
190.936	239.05
191.154	165.51
191.373	171.61
191.592	247.96
191.81	180.31
192.029	276.42
192.248	344.4
192.466	476.62
192.685	312.7
192.904	710.18
193.122	-1521.12
193.341	8747.56
193.559	-576.31
193.778	913.78
193.996	324.07
194.215	200.06
194.433	283.91
194.652	200.5
194.87	129.71
195.089	146.02
195.307	138.73
195.526	161.99
195.744	105.38
195.963	116.44
196.181	148.89
196.399	173.33
196.618	307.25
196.836	146.88
197.055	152.02
197.273	186.04
197.491	463.18
197.71	327.86
197.928	164.18
198.146	269.85
198.365	318.53
198.583	347.25
198.801	350.13
199.019	284.09
199.238	683.33
199.456	206.88
199.674	190.54
199.892	165.58
200.111	170.96
200.329	404.24
200.547	277.68
200.765	226.24
200.983	193.94
201.202	198.91
201.42	185.41
201.638	197.76
201.856	348.67
202.074	289.55
202.292	202.7
202.51	187.68
202.728	141.09
202.946	175.67
203.165	153.12
203.383	101.51
203.601	393.57
203.819	51.93
204.037	-389.68
204.255	-4.45
204.473	59.29
204.691	36.85
204.909	-59.8
205.127	-127.96
205.345	-267.45
205.562	-281.26
205.78	-823.91
205.998	1383.78
206.216	-12294.25
206.434	-11577.01
206.652	-906.95
206.87	-938.88
207.088	8066.12
207.306	-10436
207.523	-490.97
207.741	-172.47
207.959	-137.79
208.177	-116.89
208.395	-144.75
208.612	-140.44
208.83	-95.06
209.048	-88.53
209.266	-101.06
209.483	-79.33
209.701	-72.89
209.919	-71.43
210.136	-96.58
210.354	-102.98
210.572	-165.14
210.79	-237.92
211.007	-450.62
211.225	-3588.48
211.442	712.45
211.66	314.91
211.878	301.26
212.095	-117.19
212.313	-155.22
212.53	-116.8
212.748	-107.73
212.966	-81.03
213.183	-42.09
213.401	-49.12
213.618	-39.35
213.836	-31.39
214.053	-29.39
214.271	-22.67
214.488	-93.46
214.705	-43.78
214.923	-57.19
215.14	-32.15
215.358	-50.09
215.575	-82.54
215.793	-64.09
216.01	-179.97
216.227	-228.33
216.445	-245.45
216.662	-334.83
216.879	-236.66
217.097	-343.6
217.314	-229.97
217.531	-216.98
217.749	-207.79
217.966	-203.47
218.183	-291.72
218.4	-95.42
218.618	-129.49
218.835	-99.76
219.052	-93.68
219.269	-62.65
219.487	-76.08
219.704	-88.2
219.921	-109.38
220.138	-82.16
220.355	-80.89
220.572	-80.44
220.79	-80.98
221.007	-47.92
221.224	-49.72
221.441	-39.36
221.658	-51.31
221.875	-36.57
222.092	-36.18
222.309	-17.5
222.526	-22.18
222.743	-22.87
222.96	-17.24
223.177	-22.34
223.394	-19.67
223.611	-22.45
223.828	-29.39
224.045	-29.68
224.262	-30.14
224.479	-21.44
224.696	-19.73
224.913	-18.2
225.13	-16.1
225.347	-15.73
225.564	-9.05
225.781	-7.9
225.997	-3.41
226.214	-0.45
226.431	-0.1
226.648	0.43
226.865	1.09
227.082	1.34
227.298	3.12
227.515	3.65
227.732	4.92
227.949	3.2
228.165	3.32
228.382	2.19
228.599	1.19
228.816	2.09
229.032	2.27
229.249	1.9
229.466	2.51
229.682	1.58
229.899	2.43
230.116	1.51
230.332	1.23
230.549	1.45
230.765	0.63
230.982	-1.04
231.199	-0.17
231.415	-2.05
231.632	-3.08
231.848	-3.78
232.065	-5.45
232.281	-6.37
232.498	-5.23
232.714	-3.27
232.931	-3.73
233.147	-0.25
233.364	3.62
233.58	1.89
233.797	4.86
234.013	5.42
234.23	5.17
234.446	4.24
234.662	2.01
234.879	0.7
235.095	1.05
235.312	0.34
235.528	-2.99
235.744	-5.58
235.961	-4.32
236.177	-3.83
236.393	-5.04
236.61	-6.71
236.826	-4.45
237.042	-5.58
237.258	-4.8
237.475	-6.73
237.691	-4.98
237.907	-4.51
238.123	-1.44
238.339	-1.05
238.556	-1.87
238.772	-3.31
238.988	-1.21
239.204	-0.64
239.42	0.44
239.636	0.99
239.853	2.67
240.069	3
240.285	3.32
240.501	3.66
240.717	4.42
240.933	4.4
241.149	5.47
241.365	6.17
241.581	5.85
241.797	6.37
242.013	6.45
242.229	5.86
242.445	5.74
242.661	5.78
242.877	5.45
243.093	4.47
243.309	4.98
243.525	5.2
243.741	4.15
243.957	3.74
244.173	4.21
244.388	4.37
244.604	4.47
244.82	4.69
245.036	5.43
245.252	5.24
245.468	5.49
245.683	5.39
245.899	5.03
246.115	5.06
246.331	5.25
246.547	5.17
246.762	5.03
246.978	5.35
247.194	5.26
247.409	4.99
247.625	4.83
247.841	4.55
248.057	4.2
248.272	4.75
248.488	4.76
248.703	4.97
248.919	4.5
249.135	4.33
249.35	3.35
249.566	2.83
249.782	1.92
249.997	2.24
250.213	2.55
250.428	2.71
250.644	2.87
250.859	2.88
251.075	2.55
251.29	2.84
251.506	3.64
251.721	3.08
251.937	2.96
252.152	3.94
252.368	4.15
252.583	3.23
252.798	2.21
253.014	0.38
253.229	0.02
253.445	-0.03
253.66	-0.36
253.875	-2.59
254.091	-2.57
254.306	-2.07
254.521	-2.91
254.737	-2.7
254.952	-1.98
255.167	-0.82
255.383	0.49
255.598	0.75
255.813	2.25
256.028	1.6
256.244	2.06
256.459	2.6
256.674	2.96
256.889	3
257.104	3.13
257.32	2.89
257.535	2.98
257.75	3.14
257.965	3.26
258.18	2.91
258.395	3.14
258.61	3.25
258.826	3.37
259.041	3.08
259.256	3.16
259.471	2.53
259.686	2.56
259.901	2.57
260.116	2.14
260.331	1.96
260.546	2.03
260.761	2.61
260.976	2.84
261.191	2.74
261.406	3.25
261.621	2.59
261.836	3.28
262.05	4.25
262.265	3.93
262.48	4.49
262.695	3.67
262.91	3.55
263.125	1.96
263.34	1.62
263.555	0.85
263.769	0.19
263.984	0.57
264.199	1.39
264.414	1
264.629	1.41
264.843	1.3
265.058	1.55
265.273	1.32
265.488	1.32
265.702	1.12
265.917	1.64
266.132	1.75
266.346	1.59
266.561	0.64
266.776	0.18
266.99	-0.08
267.205	-0.17
267.42	0.18
267.634	0.24
267.849	0.68
268.063	1.58
268.278	1.6
268.492	1.61
268.707	1.77
268.922	1.91
269.136	1.67
269.351	1.74
269.565	1.98
269.78	2.02
269.994	1.88
270.209	1.38
270.423	1.13
270.637	0.88
270.852	1.21
271.066	1.22
271.281	1.4
271.495	1.83
271.709	1.73
271.924	1.33
272.138	0.57
272.353	0.22
272.567	0.52
272.781	-0.15
272.996	0.43
273.21	-0.19
273.424	-0.24
273.638	-0.35
273.853	-0.14
274.067	0.34
274.281	1.09
274.495	1.51
274.71	2.04
274.924	2.28
275.138	2.8
275.352	1.78
275.566	2.24
275.781	2.46
275.995	2.44
276.209	2.2
276.423	1.82
276.637	1.34
276.851	1.91
277.065	2.34
277.279	2.98
277.493	2.45
277.707	2.49
277.921	2.09
278.135	1.71
278.349	1.61
278.563	1.56
278.777	1.89
278.991	1.93
279.205	1.87
279.419	1.47
279.633	0.91
279.847	1.69
280.061	2.06
280.275	2.1
280.489	2.22
280.703	2.66
280.917	2.66
281.131	2.43
281.344	2.25
281.558	2.59
281.772	2.26
281.986	2.23
282.2	1.76
282.414	2.17
282.627	2.14
282.841	2.29
283.055	2.12
283.269	2.02
283.482	2
283.696	2.11
283.91	1.77
284.123	1.94
284.337	2.08
284.551	2.39
284.764	2.61
284.978	2.72
285.192	2.61
285.405	2.54
285.619	3.09
285.833	3.27
286.046	3.32
286.26	3.27
286.473	3.34
286.687	3.14
286.9	2.88
287.114	2.42
287.327	2.43
287.541	2.64
287.754	2.54
287.968	1.86
288.181	2.13
288.395	2.27
288.608	2.11
288.822	1.99
289.035	2.29
289.248	2.51
289.462	2.65
289.675	2.47
289.889	2.51
290.102	2.43
290.315	2.45
290.529	1.97
290.742	1.73
290.955	2.42
291.169	2.73
291.382	2.7
291.595	2.83
291.808	2.61
292.022	3.2
292.235	3.1
292.448	3.12
292.661	3.37
292.875	3.85
293.088	3.82
293.301	3.54
293.514	3.34
293.727	3.11
293.94	3.01
294.153	3.18
294.367	3.01
294.58	2.93
294.793	3.23
295.006	2.74
295.219	2.66
295.432	2.92
295.645	2.89
295.858	2.95
296.071	3.22
296.284	3.19
296.497	3.06
296.71	3.05
296.923	2.96
297.136	2.69
297.349	3.21
297.562	2.77
297.775	2.76
297.988	2.75
298.201	2.82
298.414	2.62
298.626	2.77
298.839	3.35
299.052	3.13
299.265	3.53
299.478	3.82
299.691	4.37
299.903	4.53
300.116	4.32
300.329	4.19
300.542	3.99
300.755	3.46
300.967	3.08
301.18	2.54
301.393	2.68
301.605	2.9
301.818	2.8
302.031	2.06
302.243	2.34
302.456	2.4
302.669	2.29
302.881	2.84
303.094	3.5
303.307	3.75
303.519	4.05
303.732	4.26
303.944	3.53
304.157	3.72
304.37	3.85
304.582	3.51
304.795	3.63
305.007	3.79
305.22	3.41
305.432	3.2
305.645	3.04
305.857	2.74
306.069	2.45
306.282	2.99
306.494	2.63
306.707	2.42
306.919	2.92
307.132	3.26
307.344	3.32
307.556	3.47
307.769	3.55
307.981	3.57
308.193	3.78
308.406	3.79
308.618	3.79
308.83	3.74
309.043	3.71
309.255	3.57
309.467	3.32
309.679	3.55
309.892	3.58
310.104	3.78
310.316	3.97
310.528	3.98
310.74	4.15
310.953	4.13
311.165	4.44
311.377	4.46
311.589	4.69
311.801	4.9
312.013	4.73
312.225	4.8
312.437	4.41
312.649	4.68
312.862	4.44
313.074	4.27
313.286	4.2
313.498	4.06
313.71	4.12
313.922	3.56
314.134	3.4
314.346	3.67
314.558	3.81
314.77	4.25
314.982	3.8
315.193	4.15
315.405	4.28
315.617	4.37
315.829	4.4
316.041	4.41
316.253	4.56
316.465	4.37
316.677	4.23
316.888	3.85
317.1	3.74
317.312	3.76
317.524	3.86
317.736	3.54
317.947	3.21
318.159	3.19
318.371	3.18
318.583	3.45
318.794	3.83
319.006	3.65
319.218	4.11
319.43	4.37
319.641	4.16
319.853	3.71
320.064	4.5
320.276	4.74
320.488	5.32
320.699	5.84
320.911	5.64
321.123	5.4
321.334	5.79
321.546	5.76
321.757	5.22
321.969	5.65
322.18	5.77
322.392	5.51
322.603	5.44
322.815	4.98
323.026	5.04
323.238	5.75
323.449	5.49
323.661	5.06
323.872	4.66
324.083	5
324.295	4.54
324.506	4.75
324.718	4.6
324.929	4.62
325.14	4.75
325.352	4.75
325.563	4.32
325.774	4.6
325.986	4.66
326.197	5.44
326.408	5.65
326.62	6.13
326.831	5.88
327.042	6.02
327.253	6.46
327.464	6.45
327.676	6.54
327.887	6.44
328.098	6.27
328.309	6.87
328.52	6.32
328.732	6.21
328.943	6.67
329.154	7.1
329.365	7.57
329.576	7.06
329.787	7.41
329.998	7.55
330.209	7.79
330.42	8.49
330.631	8.3
330.842	8.08
331.053	8
331.264	7.53
331.475	7.6
331.686	7.31
331.897	7.57
332.108	7.22
332.319	7.57
332.53	7.31
332.741	7.2
332.952	7.01
333.163	7.17
333.374	7.34
333.585	7.58
333.795	7.76
334.006	8.16
334.217	8.28
334.428	8.67
334.639	7.92
334.849	7.97
335.06	7.8
335.271	7.89
335.482	8.19
335.692	8.12
335.903	7.86
336.114	7.59
336.325	7.03
336.535	7.17
336.746	6.87
336.957	7.17
337.167	7.34
337.378	7.53
337.589	7.76
337.799	7.81
338.01	8.1
338.22	8.22
338.431	8.63
338.642	8.54
338.852	8.45
339.063	8.38
339.273	8.37
339.484	8.33
339.694	8.19
339.905	7.89
340.115	7.69
340.326	7.38
340.536	7.23
340.746	6.83
340.957	7.25
341.167	7.24
341.378	7.39
341.588	7.47
341.799	7.28
342.009	7.02
342.219	6.94
342.43	7.04
342.64	6.99
342.85	6.98
343.061	6.9
343.271	6.37
343.481	6.38
343.691	6.64
343.902	6.92
344.112	6.96
344.322	7.44
344.532	7.59
344.743	7.46
344.953	7.34
345.163	7.49
345.373	7.4
345.583	7.87
345.793	7.77
346.004	7.35
346.214	6.94
346.424	7.19
346.634	6.44
346.844	6.32
347.054	6.16
347.264	6.22
347.474	6.26
347.684	6.58
347.894	6.53
348.104	6.21
348.314	6.18
348.524	5.86
348.734	6.3
348.944	6.94
349.154	7.2
349.364	7.51
349.574	7.4
349.784	7.48
349.994	7.3
350.204	7.38
350.413	7.4
350.623	7.83
350.833	8.29
351.043	8.11
351.253	8.11
351.463	7.74
351.672	7.7
351.882	7.97
352.092	7.74
352.302	8
352.511	7.74
352.721	8.05
352.931	7.91
353.141	7.55
353.35	7.37
353.56	7.38
353.77	7.77
353.979	7.93
354.189	7.74
354.399	7.74
354.608	7.5
354.818	7.35
355.027	7.4
355.237	7.14
355.447	7.48
355.656	7.52
355.866	7.3
356.075	7.11
356.285	7.01
356.494	6.88
356.704	6.97
356.913	7.04
357.123	7.13
357.332	7.2
357.542	7.06
357.751	7.04
357.96	6.87
358.17	6.98
358.379	6.8
358.589	6.69
358.798	6.75
359.007	6.74
359.217	6.58
359.426	6.69
359.635	6.7
359.845	6.9
360.054	6.69
360.263	6.73
360.472	6.63
360.682	6.85
360.891	6.79
361.1	6.82
361.309	6.88
361.519	6.99
361.728	6.88
361.937	6.85
362.146	6.9
362.355	6.8
362.564	6.86
362.774	6.77
362.983	6.5
363.192	6.51
363.401	6.58
363.61	6.39
363.819	6.52
364.028	6.46
364.237	6.31
364.446	6.42
364.655	6.44
364.864	6.12
365.073	6.21
365.282	6.3
365.491	6.19
365.7	6.39
365.909	6.21
366.118	5.99
366.327	6.12
366.536	6.04
366.745	5.99
366.954	6.12
367.162	6.48
367.371	6.35
367.58	6.37
367.789	6.63
367.998	6.45
368.207	6.8
368.415	6.66
368.624	6.69
368.833	6.54
369.042	6.61
369.25	6.33
369.459	6.59
369.668	6.73
369.877	6.33
370.085	6.31
370.294	6.45
370.503	6.25
370.711	6.43
370.92	6.52
371.129	6.49
371.337	6.06
371.546	6.43
371.754	5.75
371.963	5.68
372.171	6.2
372.38	6.17
372.589	5.96
372.797	5.82
373.006	5.7
373.214	5.76
373.423	5.88
373.631	6.07
373.84	5.71
374.048	5.98
374.256	5.87
374.465	5.87
374.673	5.77
374.882	5.75
375.09	5.78
375.298	5.76
375.507	5.7
375.715	5.79
375.923	5.59
376.132	5.83
376.34	5.91
376.548	6.07
376.757	5.77
376.965	5.7
377.173	5.77
377.381	5.9
377.59	5.97
377.798	6.16
378.006	5.98
378.214	6.21
378.423	6.2
378.631	6.12
378.839	5.87
379.047	5.97
379.255	5.88
379.463	5.78
379.671	5.66
379.879	5.41
380.088	5.12
380.296	5.09
380.504	4.9
380.712	4.74
380.92	4.83
381.128	5.14
381.336	5.39
381.544	5.53
381.752	5.6
381.96	5.49
382.168	5.49
382.376	5.29
382.584	5.47
382.791	5.43
382.999	5.51
383.207	5.41
383.415	5.33
383.623	5.14
383.831	5.01
384.039	4.89
384.247	5.1
384.454	5.31
384.662	5.64
384.87	5.56
385.078	5.63
385.285	5.55
385.493	5.39
385.701	5.43
385.909	5.45
386.116	5.5
386.324	5.47
386.532	5.36
386.739	5.3
386.947	5.03
387.155	5.03
387.362	5.23
387.57	5.41
387.778	5.19
387.985	4.99
388.193	5.03
388.4	5.12
388.608	5.35
388.816	5.45
389.023	5.4
389.231	5.44
389.438	5.34
389.646	5.29
389.853	5.33
390.061	5.67
390.268	5.73
390.475	5.66
390.683	5.66
390.89	5.47
391.098	5.56
391.305	5.6
391.512	5.52
391.72	5.73
391.927	5.85
392.135	5.61
392.342	5.42
392.549	5.48
392.756	5.67
392.964	5.43
393.171	5.51
393.378	5.47
393.586	5.45
393.793	5.57
394	5.38
394.207	5.07
394.414	4.97
394.622	5.14
394.829	5.03
395.036	4.74
395.243	4.84
395.45	4.87
395.657	4.53
395.864	4.57
396.072	4.68
396.279	4.77
396.486	4.85
396.693	4.96
396.9	4.78
397.107	4.79
397.314	4.81
397.521	4.99
397.728	4.96
397.935	5.11
398.142	4.99
398.349	5.01
398.556	4.92
398.763	4.94
398.97	5.09
399.177	5
399.383	5.05
399.59	5.3
399.797	5.23
400.004	5.18
400.211	5.24
400.418	5.32
400.625	5.14
400.831	4.98
401.038	4.84
401.245	4.8
401.452	5
401.658	4.99
401.865	4.6
402.072	4.48
402.279	4.45
402.485	4.58
402.692	4.62
402.899	4.72
403.105	4.93
403.312	5.07
403.519	5.06
403.725	5.07
403.932	5.1
404.138	5.06
404.345	5.04
404.552	4.99
404.758	4.71
404.965	4.66
405.171	4.59
405.378	4.78
405.584	4.73
405.791	4.75
405.997	4.66
406.204	4.69
406.41	4.98
406.617	5.29
406.823	5.42
407.029	5.64
407.236	5.66
407.442	5.55
407.649	5.31
407.855	5.36
408.061	5.29
408.268	5.25
408.474	5.02
408.68	5.01
408.887	4.82
409.093	4.8
409.299	4.85
409.505	4.85
409.712	4.98
409.918	4.93
410.124	4.87
410.33	4.75
410.537	4.91
410.743	5.11
410.949	5.09
411.155	4.95
411.361	4.9
411.567	4.66
411.773	4.69
411.98	4.77
412.186	4.88
412.392	4.79
412.598	4.87
412.804	4.68
413.01	4.58
413.216	4.54
413.422	4.67
413.628	4.7
413.834	4.88
414.04	4.81
414.246	4.68
414.452	4.59
414.658	4.59
414.864	4.73
415.07	4.66
415.275	4.64
415.481	4.65
415.687	4.61
415.893	4.6
416.099	4.51
416.305	4.53
416.511	4.49
416.716	4.48
416.922	4.56
417.128	4.45
417.334	4.51
417.539	4.59
417.745	4.52
417.951	4.55
418.157	4.58
418.362	4.57
418.568	4.61
418.774	4.63
418.979	4.59
419.185	4.69
419.391	4.74
419.596	4.83
419.802	4.79
420.008	4.86
420.213	4.83
420.419	4.74
420.624	4.79
420.83	4.83
421.035	4.9
421.241	5
421.446	4.89
421.652	4.88
421.857	4.88
422.063	4.83
422.268	4.83
422.474	4.86
422.679	4.89
422.885	4.78
423.09	4.72
423.295	4.61
423.501	4.66
423.706	4.63
423.911	4.67
424.117	4.54
424.322	4.62
424.527	4.6
424.733	4.52
424.938	4.55
425.143	4.63
425.349	4.51
425.554	4.58
425.759	4.39
425.964	4.29
426.169	4.16
426.375	4.27
426.58	4.14
426.785	4.09
426.99	4.22
427.195	4.22
427.4	4.27
427.605	4.4
427.811	4.44
428.016	4.47
428.221	4.71
428.426	4.71
428.631	4.66
428.836	4.73
429.041	4.88
429.246	4.88
429.451	4.8
429.656	4.67
429.861	4.79
430.066	4.74
430.271	4.76
430.476	4.62
430.681	4.67
430.886	4.66
431.09	4.64
431.295	4.45
431.5	4.35
431.705	4.52
431.91	4.56
432.115	4.47
432.32	4.4
432.524	4.52
432.729	4.71
432.934	4.7
433.139	4.69
433.343	4.7
433.548	4.71
433.753	4.73
433.958	4.58
434.162	4.61
434.367	4.62
434.572	4.68
434.776	4.61
434.981	4.5
435.186	4.55
435.39	4.56
435.595	4.68
435.799	4.76
436.004	4.8
436.209	4.85
436.413	4.83
436.618	4.73
436.822	4.77
437.027	4.7
437.231	4.63
437.436	4.6
437.64	4.53
437.845	4.45
438.049	4.4
438.253	4.37
438.458	4.36
438.662	4.44
438.867	4.5
439.071	4.44
439.275	4.44
439.48	4.51
439.684	4.48
439.888	4.52
440.093	4.52
440.297	4.51
440.501	4.54
440.706	4.52
440.91	4.48
441.114	4.51
441.318	4.56
441.523	4.63
441.727	4.58
441.931	4.61
442.135	4.65
442.339	4.62
442.543	4.73
442.748	4.76
442.952	4.81
443.156	4.75
443.36	4.78
443.564	4.75
443.768	4.77
443.972	4.7
444.176	4.72
444.38	4.68
444.584	4.69
444.788	4.55
444.992	4.51
445.196	4.45
445.4	4.54
445.604	4.48
445.808	4.46
446.012	4.38
446.216	4.39
446.42	4.37
446.624	4.38
446.828	4.32
447.032	4.43
447.235	4.49
447.439	4.53
447.643	4.47
447.847	4.49
448.051	4.52
448.254	4.48
448.458	4.59
448.662	4.54
448.866	4.5
449.069	4.5
449.273	4.54
449.477	4.43
449.681	4.46
449.884	4.39
450.088	4.28
450.292	4.23
450.495	4.27
450.699	4.11
450.902	4.17
451.106	4.26
451.31	4.33
451.513	4.27
451.717	4.34
451.92	4.29
452.124	4.35
452.327	4.39
452.531	4.31
452.734	4.24
452.938	4.27
453.141	4.18
453.345	4.16
453.548	4.19
453.752	4.08
453.955	4.02
454.158	4
454.362	3.91
454.565	3.96
454.769	4.08
454.972	4.24
455.175	4.25
455.379	4.32
455.582	4.29
455.785	4.21
455.988	4.35
456.192	4.33
456.395	4.4
456.598	4.44
456.801	4.37
457.005	4.33
457.208	4.22
457.411	4.3
457.614	4.29
457.817	4.32
458.021	4.35
458.224	4.34
458.427	4.47
458.63	4.49
458.833	4.54
459.036	4.56
459.239	4.58
459.442	4.64
459.645	4.6
459.848	4.67
460.051	4.67
460.254	4.67
460.457	4.69
460.66	4.67
460.863	4.52
461.066	4.56
461.269	4.55
461.472	4.59
461.675	4.53
461.878	4.47
462.081	4.44
462.284	4.47
462.486	4.58
462.689	4.58
462.892	4.48
463.095	4.45
463.298	4.47
463.5	4.65
463.703	4.56
463.906	4.62
464.109	4.69
464.311	4.66
464.514	4.68
464.717	4.72
464.92	4.63
465.122	4.67
465.325	4.77
465.528	4.68
465.73	4.63
465.933	4.74
466.135	4.77
466.338	4.77
466.541	4.76
466.743	4.75
466.946	4.67
467.148	4.68
467.351	4.58
467.553	4.63
467.756	4.67
467.958	4.68
468.161	4.69
468.363	4.65
468.566	4.67
468.768	4.65
468.971	4.65
469.173	4.67
469.375	4.69
469.578	4.64
469.78	4.58
469.983	4.6
470.185	4.51
470.387	4.43
470.59	4.43
470.792	4.37
470.994	4.34
471.196	4.46
471.399	4.43
471.601	4.45
471.803	4.47
472.005	4.52
472.208	4.48
472.41	4.46
472.612	4.43
472.814	4.43
473.016	4.52
473.218	4.56
473.421	4.52
473.623	4.58
473.825	4.71
474.027	4.81
474.229	4.88
474.431	4.88
474.633	4.8
474.835	4.86
475.037	4.93
475.239	4.87
475.441	4.88
475.643	4.9
475.845	4.91
476.047	4.86
476.249	4.89
476.451	4.81
476.653	4.81
476.855	4.88
477.057	4.86
477.258	4.87
477.46	4.94
477.662	5
477.864	4.84
478.066	4.78
478.268	4.73
478.469	4.64
478.671	4.64
478.873	4.65
479.075	4.75
479.276	4.69
479.478	4.58
479.68	4.55
479.882	4.52
480.083	4.62
480.285	4.64
480.487	4.67
480.688	4.71
480.89	4.71
481.091	4.64
481.293	4.57
481.495	4.6
481.696	4.61
481.898	4.61
482.099	4.6
482.301	4.6
482.502	4.62
482.704	4.65
482.905	4.63
483.107	4.64
483.308	4.66
483.51	4.69
483.711	4.69
483.913	4.7
484.114	4.69
484.315	4.71
484.517	4.7
484.718	4.68
484.92	4.66
485.121	4.65
485.322	4.64
485.524	4.67
485.725	4.64
485.926	4.65
486.127	4.68
486.329	4.7
486.53	4.7
486.731	4.67
486.932	4.62
487.134	4.64
487.335	4.65
487.536	4.68
487.737	4.67
487.938	4.7
488.139	4.71
488.341	4.68
488.542	4.65
488.743	4.67
488.944	4.7
489.145	4.74
489.346	4.74
489.547	4.76
489.748	4.76
489.949	4.79
490.15	4.81
490.351	4.81
490.552	4.84
490.753	4.88
490.954	4.88
491.155	4.9
491.356	4.88
491.557	4.91
491.758	4.91
491.959	4.94
492.159	4.92
492.36	4.89
492.561	4.9
492.762	4.86
492.963	4.89
493.164	4.88
493.364	4.95
493.565	5.02
493.766	5.04
493.967	4.98
494.167	4.96
494.368	5.02
494.569	5.04
494.769	5.16
494.97	5.23
495.171	5.13
495.371	5.13
495.572	5.11
495.773	5.17
495.973	5.15
496.174	5.16
496.375	5.17
496.575	5.24
496.776	5.31
496.976	5.23
497.177	5.16
497.377	5.22
497.578	5.29
497.778	5.24
497.979	5.27
498.179	5.3
498.38	5.37
498.58	5.35
498.78	5.3
498.981	5.28
499.181	5.35
499.382	5.38
499.582	5.43
499.782	5.33
499.983	5.32
500.183	5.37
500.383	5.34
500.584	5.44
500.784	5.48
500.984	5.49
501.184	5.58
501.385	5.56
501.585	5.62
501.785	5.69
501.985	5.83
502.185	5.94
502.386	5.89
502.586	5.93
502.786	5.83
502.986	5.88
503.186	5.96
503.386	5.89
503.586	5.97
503.786	6.06
503.987	6.12
504.187	6.12
504.387	6.17
504.587	6.1
504.787	6.2
504.987	6.29
505.187	6.21
505.387	6.25
505.587	6.33
505.786	6.35
505.986	6.4
506.186	6.42
506.386	6.48
506.586	6.48
506.786	6.57
506.986	6.55
507.186	6.55
507.386	6.64
507.585	6.63
507.785	6.7
507.985	6.69
508.185	6.72
508.384	6.69
508.584	6.63
508.784	6.69
508.984	6.76
509.183	6.83
509.383	6.93
509.583	7
509.782	7.02
509.982	6.96
510.182	7.06
510.381	7.14
510.581	7.29
510.781	7.42
510.98	7.49
511.18	7.51
511.379	7.54
511.579	7.62
511.778	7.67
511.978	7.74
512.177	7.76
512.377	7.77
512.576	7.81
512.776	7.72
512.975	7.76
513.175	7.79
513.374	7.83
513.573	7.85
513.773	7.77
513.972	7.84
514.172	7.86
514.371	7.94
514.57	7.93
514.77	7.83
514.969	7.95
515.168	7.91
515.367	7.93
515.567	7.88
515.766	7.92
515.965	8.1
516.164	8.18
516.364	8.22
516.563	8.24
516.762	8.32
516.961	8.42
517.16	8.4
517.359	8.5
517.559	8.54
517.758	8.66
517.957	8.69
518.156	8.72
518.355	8.69
518.554	8.73
518.753	8.85
518.952	8.84
519.151	8.89
519.35	8.99
519.549	8.93
519.748	8.94
519.947	8.93
520.146	8.96
520.345	8.93
520.544	8.99
520.743	8.97
520.942	8.96
521.141	9.11
521.339	9.1
521.538	9.08
521.737	9.15
521.936	9.16
522.135	9.32
522.333	9.34
522.532	9.3
522.731	9.34
522.93	9.39
523.129	9.42
523.327	9.39
523.526	9.38
523.725	9.36
523.923	9.44
524.122	9.51
524.321	9.53
524.519	9.61
524.718	9.78
524.917	9.78
525.115	9.8
525.314	9.84
525.512	9.89
525.711	9.94
525.909	9.96
526.108	9.94
526.306	9.92
526.505	9.9
526.703	9.94
526.902	9.93
527.1	9.99
527.299	10.06
527.497	10.14
527.696	10.18
527.894	10.24
528.092	10.34
528.291	10.45
528.489	10.54
528.688	10.63
528.886	10.65
529.084	10.71
529.283	10.78
529.481	10.84
529.679	10.73
529.877	10.75
530.076	10.77
530.274	10.76
530.472	10.69
530.67	10.67
530.869	10.65
531.067	10.68
531.265	10.69
531.463	10.68
531.661	10.64
531.859	10.74
532.057	10.79
532.255	10.84
532.454	10.88
532.652	10.92
532.85	10.99
533.048	11.07
533.246	11.08
533.444	11.09
533.642	11.13
533.84	11.17
534.038	11.22
534.236	11.27
534.434	11.26
534.632	11.29
534.83	11.28
535.027	11.3
535.225	11.34
535.423	11.4
535.621	11.45
535.819	11.48
536.017	11.5
536.215	11.49
536.412	11.46
536.61	11.54
536.808	11.5
537.006	11.59
537.203	11.63
537.401	11.6
537.599	11.59
537.797	11.63
537.994	11.61
538.192	11.62
538.39	11.67
538.587	11.66
538.785	11.63
538.983	11.69
539.18	11.7
539.378	11.75
539.575	11.79
539.773	11.86
539.97	11.92
540.168	11.98
540.366	12.05
540.563	12.12
540.761	12.2
540.958	12.32
541.155	12.41
541.353	12.46
541.55	12.48
541.748	12.56
541.945	12.59
542.143	12.66
542.34	12.73
542.537	12.79
542.735	12.81
542.932	12.88
543.129	12.87
543.327	12.89
543.524	12.95
543.721	13.05
543.919	13.08
544.116	13.09
544.313	13.08
544.51	13.13
544.708	13.21
544.905	13.22
545.102	13.29
545.299	13.36
545.496	13.4
545.693	13.42
545.891	13.44
546.088	13.55
546.285	13.63
546.482	13.71
546.679	13.8
546.876	13.83
547.073	13.88
547.27	13.9
547.467	13.9
547.664	13.93
547.861	14
548.058	14
548.255	13.97
548.452	13.99
548.649	14.03
548.846	13.93
549.043	13.99
549.24	14.04
549.437	14.12
549.633	14.16
549.83	14.27
550.027	14.3
550.224	14.44
550.421	14.44
550.618	14.46
550.814	14.5
551.011	14.7
551.208	14.75
551.405	14.81
551.601	14.74
551.798	14.9
551.995	14.9
552.191	14.98
552.388	14.97
552.585	14.98
552.781	15.04
552.978	15.06
553.175	15.04
553.371	15.17
553.568	15.25
553.764	15.41
553.961	15.29
554.157	15.39
554.354	15.53
554.55	15.5
554.747	15.66
554.943	15.85
555.14	15.9
555.336	15.75
555.533	15.75
555.729	15.84
555.926	15.85
556.122	16.04
556.318	16.23
556.515	16.26
556.711	16.33
556.907	16.34
557.104	16.27
557.3	16.33
557.496	16.55
557.693	16.62
557.889	16.59
558.085	16.63
558.281	16.64
558.478	16.52
558.674	16.64
558.87	16.67
559.066	16.81
559.262	16.92
559.459	16.84
559.655	16.84
559.851	16.87
560.047	17.03
560.243	17.2
560.439	17.24
560.635	17.23
560.831	17.12
561.027	17.31
561.223	17.31
561.419	17.4
561.615	17.61
561.811	17.76
562.007	17.92
562.203	17.94
562.399	17.92
562.595	18.09
562.791	18.38
562.987	18.48
563.183	18.52
563.379	18.59
563.575	18.58
563.771	18.62
563.966	18.6
564.162	18.64
564.358	18.73
564.554	18.83
564.75	18.83
564.945	18.85
565.141	18.96
565.337	18.98
565.533	19.02
565.728	19.08
565.924	19.12
566.12	19.31
566.315	19.31
566.511	19.31
566.707	19.32
566.902	19.36
567.098	19.41
567.293	19.49
567.489	19.51
567.684	19.44
567.88	19.5
568.076	19.55
568.271	19.56
568.467	19.63
568.662	19.76
568.858	19.92
569.053	20.07
569.248	20.17
569.444	20.14
569.639	20.32
569.835	20.48
570.03	20.6
570.225	20.7
570.421	20.78
570.616	20.79
570.812	20.8
571.007	20.79
571.202	20.82
571.397	20.84
571.593	20.96
571.788	21.03
571.983	21.12
572.178	21.18
572.374	21.31
572.569	21.23
572.764	21.36
572.959	21.52
573.154	21.67
573.35	21.63
573.545	21.65
573.74	21.65
573.935	21.67
574.13	21.74
574.325	21.81
574.52	21.77
574.715	21.95
574.91	21.93
575.105	21.89
575.3	21.83
575.495	22.06
575.69	22.16
575.885	22.24
576.08	22.18
576.275	22.22
576.47	22.31
576.665	22.36
576.86	22.44
577.055	22.49
577.25	22.55
577.444	22.6
577.639	22.49
577.834	22.49
578.029	22.49
578.224	22.56
578.418	22.68
578.613	22.59
578.808	22.69
579.003	22.77
579.197	22.82
579.392	22.92
579.587	23.02
579.781	23.06
579.976	23.03
580.171	23.15
580.365	23.3
580.56	23.25
580.755	23.26
580.949	23.35
581.144	23.24
581.338	23.3
581.533	23.27
581.727	23.36
581.922	23.33
582.116	23.44
582.311	23.5
582.505	23.48
582.7	23.53
582.894	23.6
583.089	23.61
583.283	23.69
583.478	23.59
583.672	23.59
583.866	23.52
584.061	23.67
584.255	23.59
584.449	23.68
584.644	23.72
584.838	23.69
585.032	23.82
585.226	23.75
585.421	23.71
585.615	23.93
585.809	24.09
586.003	24.22
586.198	24.32
586.392	24.35
586.586	24.38
586.78	24.39
586.974	24.47
587.168	24.37
587.363	24.62
587.557	24.73
587.751	24.64
587.945	24.57
588.139	24.55
588.333	24.54
588.527	24.67
588.721	24.7
588.915	24.84
589.109	24.96
589.303	25.04
589.497	25.01
589.691	25.01
589.885	25.13
590.079	25.2
590.273	25.17
590.466	25.17
590.66	25.24
590.854	25.26
591.048	25.32
591.242	25.23
591.436	25.38
591.629	25.37
591.823	25.42
592.017	25.62
592.211	25.64
592.404	25.8
592.598	25.8
592.792	25.9
592.986	25.88
593.179	25.89
593.373	25.85
593.567	25.78
593.76	25.78
593.954	25.81
594.147	25.67
594.341	25.61
594.535	25.59
594.728	25.7
594.922	25.73
595.115	25.91
595.309	25.9
595.502	26
595.696	26.24
595.889	26.37
596.083	26.39
596.276	26.49
596.47	26.65
596.663	26.63
596.856	26.65
597.05	26.66
597.243	26.56
597.437	26.61
597.63	26.62
597.823	26.42
598.017	26.33
598.21	26.29
598.403	26.38
598.596	26.3
598.79	26.49
598.983	26.4
599.176	26.37
599.369	26.23
599.563	26.31
599.756	26.41
599.949	26.4
600.142	26.48
600.335	26.67
600.528	26.47
600.722	26.57
600.915	26.58
601.108	26.73
601.301	26.86
601.494	27.16
601.687	27.14
601.88	27.17
602.073	27.32
602.266	27.37
602.459	27.41
602.652	27.57
602.845	27.68
603.038	27.7
603.231	27.66
603.424	27.71
603.617	27.6
603.809	27.61
604.002	27.55
604.195	27.44
604.388	27.49
604.581	27.53
604.774	27.5
604.966	27.45
605.159	27.43
605.352	27.48
605.545	27.33
605.737	27.31
605.93	27.43
606.123	27.54
606.316	27.77
606.508	27.71
606.701	27.62
606.894	27.64
607.086	27.74
607.279	27.79
607.471	27.84
607.664	27.98
607.857	28.09
608.049	28.22
608.242	28.36
608.434	28.24
608.627	28.28
608.819	28.4
609.012	28.56
609.204	28.47
609.397	28.39
609.589	28.53
609.782	28.49
609.974	28.56
610.166	28.4
610.359	28.35
610.551	28.48
610.743	28.5
610.936	28.41
611.128	28.27
611.32	28.41
611.513	28.59
611.705	28.49
611.897	28.51
612.09	28.41
612.282	28.53
612.474	28.51
612.666	28.47
612.858	28.44
613.051	28.56
613.243	28.71
613.435	28.52
613.627	28.59
613.819	28.52
614.011	28.57
614.203	28.61
614.395	28.54
614.588	28.48
614.78	28.58
614.972	28.69
615.164	28.75
615.356	28.68
615.548	28.68
615.74	28.55
615.932	28.56
616.124	28.7
616.315	28.87
616.507	28.95
616.699	28.98
616.891	28.87
617.083	28.92
617.275	28.81
617.467	28.97
617.659	29.05
617.85	29.17
618.042	29.23
618.234	29.14
618.426	29.27
618.618	29.2
618.809	29.29
619.001	29.4
619.193	29.37
619.384	29.6
619.576	29.41
619.768	29.49
619.959	29.59
620.151	29.57
620.343	29.62
620.534	29.66
620.726	29.69
620.917	29.7
621.109	29.78
621.301	29.81
621.492	29.65
621.684	29.95
621.875	30.01
622.067	29.96
622.258	30.16
622.45	30.26
622.641	30.15
622.832	30.25
623.024	30.25
623.215	29.93
623.407	29.84
623.598	29.97
623.789	29.88
623.981	29.92
624.172	30.03
624.363	29.9
624.555	29.92
624.746	29.9
624.937	29.94
625.129	29.99
625.32	30.2
625.511	30.32
625.702	30.17
625.893	30.11
626.085	30.17
626.276	30.11
626.467	30.2
626.658	30.12
626.849	30.14
627.04	30.17
627.231	30.2
627.422	30.07
627.614	30.18
627.805	30.32
627.996	30.46
628.187	30.51
628.378	30.41
628.569	30.41
628.76	30.46
628.951	30.5
629.142	30.39
629.332	30.33
629.523	30.47
629.714	30.4
629.905	30.42
630.096	30.28
630.287	30.07
630.478	30.34
630.669	30.5
630.859	30.51
631.05	30.41
631.241	30.51
631.432	30.68
631.623	30.84
631.813	30.78
632.004	30.91
632.195	31.02
632.385	31.2
632.576	30.99
632.767	30.94
632.957	30.79
633.148	30.93
633.339	30.94
633.529	30.86
633.72	30.66
633.91	30.77
634.101	30.7
634.292	30.69
634.482	30.8
634.673	30.9
634.863	30.78
635.054	31.11
635.244	31.19
635.435	31.18
635.625	31.26
635.815	31.38
636.006	31.35
636.196	31.24
636.387	31.15
636.577	30.79
636.767	30.66
636.958	30.91
637.148	30.87
637.338	30.43
637.529	30.54
637.719	30.58
637.909	30.7
638.099	30.74
638.29	30.89
638.48	31.1
638.67	31.37
638.86	31.65
639.05	31.44
639.241	31.34
639.431	31.84
639.621	31.8
639.811	31.77
640.001	31.77
640.191	31.72
640.381	31.58
640.571	31.49
640.761	31.34
640.951	31.23
641.141	31.18
641.331	31.29
641.521	31.06
641.711	31.16
641.901	31.09
642.091	31.14
642.281	31.13
642.471	31.21
642.661	31.41
642.851	31.6
643.041	31.78
643.231	31.93
643.42	31.99
643.61	32
643.8	32.01
643.99	32.2
644.18	32.13
644.369	32.19
644.559	32.23
644.749	32.03
644.939	31.83
645.128	31.89
645.318	31.65
645.508	31.61
645.697	31.56
645.887	31.55
646.076	31.59
646.266	31.6
646.456	31.53
646.645	31.59
646.835	31.57
647.024	31.69
647.214	31.51
647.403	31.79
647.593	31.75
647.782	31.93
647.972	31.98
648.161	32.01
648.351	31.98
648.54	32.24
648.73	32.06
648.919	32.02
649.108	32.21
649.298	32
649.487	32.01
649.677	31.98
649.866	31.97
650.055	32.13
650.244	32.12
650.434	32.07
650.623	31.98
650.812	32.22
651.002	32.38
651.191	32.3
651.38	32.57
651.569	32.6
651.758	32.71
651.947	33.02
652.137	32.66
652.326	32.78
652.515	32.82
652.704	32.82
652.893	32.78
653.082	32.84
653.271	32.86
653.46	32.75
653.649	32.76
653.838	32.58
654.027	32.39
654.216	32.52
654.405	32.41
654.594	32.61
654.783	32.92
654.972	32.89
655.161	32.9
655.35	32.96
655.539	32.93
655.728	32.9
655.916	33.12
656.105	33.02
656.294	33.01
656.483	33.18
656.672	33.25
656.86	32.94
657.049	32.88
657.238	32.94
657.427	32.96
657.615	33.1
657.804	33.13
657.993	33.14
658.181	33.38
658.37	33.35
658.559	33.21
658.747	33.36
658.936	33.48
659.125	33.51
659.313	33.64
659.502	33.59
659.69	33.59
659.879	33.72
660.067	33.9
660.256	33.75
660.444	33.84
660.633	33.83
660.821	33.46
661.01	33.32
661.198	33.42
661.387	33.18
661.575	33.36
661.763	33.26
661.952	33.31
662.14	33.24
662.328	33.39
662.517	33.44
662.705	33.41
662.893	33.51
663.082	33.83
663.27	33.77
663.458	33.87
663.646	33.59
663.834	33.71
664.023	33.84
664.211	33.81
664.399	33.59
664.587	33.74
664.775	33.93
664.963	33.9
665.152	33.76
665.34	34.01
665.528	34.19
665.716	34.19
665.904	34.48
666.092	34.2
666.28	33.98
666.468	34.09
666.656	34.03
666.844	33.89
667.032	34.01
667.22	34.15
667.408	34.14
667.596	33.88
667.784	34.06
667.971	33.96
668.159	34.06
668.347	34.42
668.535	34.43
668.723	34.31
668.911	34.37
669.098	34.23
669.286	33.92
669.474	33.81
669.662	33.75
669.849	33.8
670.037	33.6
670.225	33.5
670.413	33.25
670.6	33.26
670.788	33.21
670.976	33.3
671.163	33.53
671.351	33.78
671.538	33.88
671.726	34.28
671.913	34.34
672.101	34.55
672.289	34.75
672.476	34.65
672.664	34.29
672.851	34.52
673.039	34.14
673.226	33.91
673.413	34
673.601	34.04
673.788	33.86
673.976	33.39
674.163	33.33
674.35	33.4
674.538	33.7
674.725	34.01
674.912	33.91
675.1	34.1
675.287	34.29
675.474	34.16
675.662	33.94
675.849	33.8
676.036	34.38
676.223	34.55
676.411	34.27
676.598	33.92
676.785	34.03
676.972	34
677.159	34.19
677.346	33.95
677.533	34.04
677.721	34.11
677.908	34.25
678.095	34.13
678.282	34.08
678.469	34.32
678.656	34.32
678.843	34.32
679.03	34.36
679.217	34.29
679.404	34.51
679.591	34.44
679.778	34.48
679.964	34.4
680.151	34.43
680.338	34.43
680.525	34.16
680.712	34.37
680.899	34.32
681.086	34.1
681.272	34.14
681.459	33.89
681.646	33.8
681.833	34.08
682.02	34.14
682.206	33.99
682.393	34.05
682.58	34.25
682.766	34.29
682.953	34.17
683.14	34.56
683.326	34.69
683.513	34.76
683.7	34.98
683.886	34.73
684.073	34.95
684.259	35.01
684.446	34.99
684.632	35.07
684.819	34.99
685.005	34.96
685.192	34.91
685.378	34.73
685.565	34.81
685.751	34.71
685.938	34.64
686.124	34.28
686.31	34.52
686.497	34.63
686.683	34.42
686.87	34.7
687.056	34.83
687.242	34.54
687.429	34.47
687.615	34.43
687.801	34.54
687.987	34.63
688.174	34.75
688.36	34.68
688.546	34.32
688.732	34.51
688.918	34.16
689.105	34.21
689.291	34.65
689.477	34.76
689.663	34.86
689.849	34.55
690.035	34.67
690.221	34.57
690.407	34.33
690.593	34.32
690.779	34.33
690.965	34.14
691.151	34.33
691.337	34.2
691.523	34.04
691.709	34
691.895	34.29
692.081	34.15
692.267	34.03
692.453	34.17
692.639	34.49
692.825	34.29
693.011	34.5
693.196	34.46
693.382	34.41
693.568	34.77
693.754	34.76
693.94	34.67
694.125	34.82
694.311	34.67
694.497	34.5
694.682	34.26
694.868	34.18
695.054	34.22
695.239	34.12
695.425	34.22
695.611	34.16
695.796	34.58
695.982	34.48
696.168	34.41
696.353	35.07
696.539	35.1
696.724	35.05
696.91	35.33
697.095	35.41
697.281	35.5
697.466	35.51
697.652	35.46
697.837	35.38
698.023	35.56
698.208	35.59
698.393	35.35
698.579	35.43
698.764	35.68
698.949	35.7
699.135	35.69
699.32	35.44
699.505	35.34
699.691	35.6
699.876	35.47
700.061	35.44
700.246	35.69
700.432	35.9
700.617	36.01
700.802	35.68
700.987	35.45
701.172	34.97
701.358	35.38
701.543	35.48
701.728	35.27
701.913	35.02
702.098	34.99
702.283	34.37
702.468	34.14
702.653	34.14
702.838	34.47
703.023	34.6
703.208	35.4
703.393	35.25
703.578	35.27
703.763	35
703.948	35.13
704.133	35
704.318	35.23
704.503	35.03
704.688	34.98
704.873	35.1
705.057	34.92
705.242	34.38
705.427	34.19
705.612	34.26
705.797	34.47
705.981	34.54
706.166	34.74
706.351	34.63
706.536	34.7
706.72	34.77
706.905	34.63
707.09	34.88
707.274	35.32
707.459	35.86
707.644	35.53
707.828	35.31
708.013	35.6
708.197	35.8
708.382	35.9
708.567	36.16
708.751	36.29
708.936	36.19
709.12	36.18
709.305	36.23
709.489	35.92
709.673	36.37
709.858	36.29
710.042	35.71
710.227	35.56
710.411	35.52
710.596	35.54
710.78	35.44
710.964	35.3
711.149	35.36
711.333	35.19
711.517	35.42
711.702	35.29
711.886	35.48
712.07	35.86
712.254	35.59
712.438	35.6
712.623	35.43
712.807	35.36
712.991	35.5
713.175	35.32
713.359	35.43
713.544	35.11
713.728	35.27
713.912	35.25
714.096	35.38
714.28	35.38
714.464	35.54
714.648	35.72
714.832	35.5
715.016	35.67
715.2	35.57
715.384	35.58
715.568	35.86
715.752	35.64
715.936	35.9
716.12	35.73
716.304	36.18
716.488	36.39
716.671	35.8
716.855	36.09
717.039	36.2
717.223	36.36
717.407	36.16
717.59	35.89
717.774	36.15
717.958	35.8
718.142	35.76
718.325	34.94
718.509	34.59
718.693	35.08
718.877	35.16
719.06	34.85
719.244	34.77
719.428	35.17
719.611	35.55
719.795	35.48
719.978	35.55
720.162	35.68
720.345	36.72
720.529	36.7
720.713	36.65
720.896	36.33
721.08	36.22
721.263	36.8
721.446	36.4
721.63	36.14
721.813	36.43
721.997	36.22
722.18	35.91
722.364	35.42
722.547	35.38
722.73	35.38
722.914	35.66
723.097	35.49
723.28	34.94
723.464	35.16
723.647	34.71
723.83	33.98
724.013	33.73
724.197	34.07
724.38	34.35
724.563	34.19
724.746	34.13
724.929	34.44
725.112	35.09
725.296	35
725.479	35.26
725.662	35.66
725.845	35.83
726.028	36.81
726.211	36.13
726.394	35.75
726.577	36.21
726.76	36.48
726.943	35.81
727.126	34.91
727.309	35.07
727.492	34.84
727.675	34.95
727.858	35.29
728.041	35.21
728.224	35.81
728.407	36.18
728.589	36.06
728.772	35.85
728.955	36.38
729.138	37.15
729.321	37.29
729.503	37.03
729.686	36.51
729.869	36.05
730.052	35.55
730.234	35.42
730.417	34.64
730.6	34.83
730.782	34.78
730.965	34.38
731.148	34.14
731.33	34.41
731.513	34.46
731.695	34.94
731.878	35.15
732.061	35.23
732.243	34.96
732.426	35.41
732.608	34.66
732.791	34.5
732.973	34.53
733.156	34.18
733.338	33.72
733.52	33.55
733.703	33.19
733.885	32.97
734.068	33.38
734.25	33.66
734.432	33.76
734.615	34.41
734.797	34.81
734.979	34.68
735.162	34.78
735.344	35.06
735.526	35.22
735.708	35.43
735.891	35.57
736.073	35.37
736.255	35.58
736.437	35.3
736.619	35.22
736.802	34.96
736.984	35.54
737.166	35.83
737.348	35.56
737.53	36.13
737.712	35.89
737.894	35.68
738.076	35.9
738.258	35.71
738.44	35.91
738.622	35.55
738.804	35.79
738.986	35.22
739.168	34.95
739.35	35.24
739.532	34.69
739.714	35.03
739.896	34.88
740.078	34.43
740.259	34.64
740.441	34.17
740.623	34.46
740.805	34.61
740.987	34.5
741.168	34.9
741.35	34.21
741.532	34.46
741.714	33.85
741.895	33.8
742.077	33.83
742.259	33.58
742.44	34.08
742.622	34.14
742.804	33.68
742.985	33.74
743.167	33.5
743.348	33.99
743.53	33.54
743.711	33.91
743.893	34.05
744.075	33.97
744.256	34.07
744.438	33.73
744.619	33.38
744.8	33.22
744.982	33.61
745.163	34.04
745.345	33.44
745.526	33.52
745.707	33.99
745.889	33.9
746.07	33.66
746.252	34.01
746.433	34.12
746.614	35.18
746.795	35.59
746.977	35.8
747.158	35.76
747.339	36.85
747.52	36.6
747.702	36.32
747.883	36.62
748.064	37
748.245	36.91
748.426	37.28
748.607	35.98
748.788	35.8
748.97	35.18
749.151	34.93
749.332	34.27
749.513	34.55
749.694	34.56
749.875	34.53
750.056	34.27
750.237	33.74
750.418	33.38
750.599	33.89
750.78	33.86
750.96	33.84
751.141	33.77
751.322	33.44
751.503	33.27
751.684	33.05
751.865	32.87
752.046	32.86
752.226	33.3
752.407	33.28
752.588	32.81
752.769	33.09
752.949	32.84
753.13	32.59
753.311	32.68
753.492	33.13
753.672	33.64
753.853	34.02
754.034	33.56
754.214	33.13
754.395	32.64
754.575	32.97
754.756	32.48
754.937	32.73
755.117	33.96
755.298	34.15
755.478	33.61
755.659	33.67
755.839	33.65
756.02	34.43
756.2	34.09
756.381	35.03
756.561	36.08
756.741	36.04
756.922	35.87
757.102	34.56
757.283	35.19
757.463	35.1
757.643	34.53
757.823	34.19
758.004	33.43
758.184	34.51
758.364	34.9
758.545	33.71
758.725	34.09
758.905	34.62
759.085	35.48
759.265	35.08
759.446	34.82
759.626	34.91
759.806	35.37
759.986	35.84
760.166	35.23
760.346	34.61
760.526	35.1
760.706	35.5
760.886	35.73
761.066	34.91
761.246	34.94
761.426	35.39
761.606	35.37
761.786	35.23
761.966	35.22
762.146	35.09
762.326	35.24
762.506	35.29
762.686	34.91
762.866	34.83
763.046	34.67
763.225	34.88
763.405	35.07
763.585	34.96
763.765	34.86
763.945	34.85
764.124	35.08
764.304	35.11
764.484	35.1
764.664	35.17
764.843	34.69
765.023	34.98
765.203	34.39
765.382	34.29
765.562	34.1
765.741	34.51
765.921	34.77
766.101	34.39
766.28	33.94
766.46	33.94
766.639	33.89
766.819	34.12
766.998	33.87
767.178	33.89
767.357	33.58
767.537	33.99
767.716	33.6
767.896	32.8
768.075	32.79
768.254	32.45
768.434	31.61
768.613	31.2
768.792	31.44
768.972	31.87
769.151	32.25
769.33	32.65
769.51	31.96
769.689	31.88
769.868	31.95
770.047	32.46
770.226	32.21
770.406	32.57
770.585	32.82
770.764	32.32
770.943	31.78
771.122	30.75
771.301	30.64
771.48	31.63
771.66	31.38
771.839	31.95
772.018	31.58
772.197	32.43
772.376	33.77
772.555	33.16
772.734	33.04
772.913	33.86
773.092	34.79
773.271	34.33
773.449	33.81
773.628	33.58
773.807	34.43
773.986	34.18
774.165	34.21
774.344	32.56
774.523	33.39
774.701	33.92
774.88	34.41
775.059	33.05
775.238	32.85
775.417	32.63
775.595	32.55
775.774	31.6
775.953	31.55
776.131	32.37
776.31	33.09
776.489	32.82
776.667	33.01
776.846	32.66
777.025	33.68
777.203	34.56
777.382	35.04
777.56	35.87
777.739	35.42
777.917	35.78
778.096	34.92
778.274	34.56
778.453	34.2
778.631	33.48
778.81	33.57
778.988	33.62
779.166	32.16
779.345	31.97
779.523	31.11
779.702	31.64
779.88	31.6
780.058	31.53
780.237	31.97
780.415	31.77
780.593	32
780.771	31.7
780.95	30.82
781.128	31.72
781.306	31.52
781.484	31.86
781.662	31.81
781.841	32.15
782.019	31.51
782.197	30.63
782.375	31.25
782.553	30.58
782.731	29.59
782.909	30.24
783.087	29.79
783.265	30.26
783.443	30.75
783.621	30.12
783.799	29
783.977	29.4
784.155	30.84
784.333	30.72
784.511	31.17
784.689	31.56
784.867	31.76
785.045	31.99
785.223	31.1
785.4	30.59
785.578	31.17
785.756	32.7
785.934	32.95
786.112	32.42
786.289	33.13
786.467	33.65
786.645	34.4
786.823	34.63
787	35.6
787.178	35.92
787.356	36.19
787.533	35.86
787.711	35.74
787.889	35.87
788.066	36.23
788.244	35.17
788.421	34.38
788.599	33.34
788.776	33.6
788.954	33.46
789.131	34.19
789.309	34.22
789.486	33.56
789.664	32.08
789.841	32.19
790.019	31.88
790.196	32.79
790.373	33.1
790.551	34.19
790.728	33.22
790.906	32.43
791.083	32.39
791.26	31.92
791.437	32.24
791.615	33.51
791.792	33.36
791.969	31.81
792.146	31.08
792.324	31.54
792.501	30.84
792.678	31.41
792.855	31.63
793.032	31.24
793.209	31.95
793.387	31.13
793.564	31.71
793.741	32.04
793.918	33.25
794.095	33.54
794.272	32.93
794.449	33.65
794.626	34.47
794.803	34.95
794.98	34.79
795.157	33.32
795.334	34.97
795.511	33.46
795.688	32.87
795.864	32.66
796.041	31.99
796.218	32.29
796.395	31.42
796.572	29.97
796.749	29.62
796.925	29.98
797.102	31.39
797.279	31.1
797.456	31.57
797.632	31.8
797.809	32.01
797.986	33.07
798.162	34.33
798.339	33.57
798.516	33.79
798.692	33.34
798.869	33.44
799.046	31.83
799.222	31.28
799.399	31.39
799.575	30.98
799.752	31.27
799.928	30.38
800.105	28.67
800.281	29.35
800.458	29.91
800.634	30.39
800.811	30.6
800.987	31.58
801.163	31.11
801.34	31.84
801.516	31.69
801.692	31.4
801.869	31.5
802.045	32.03
802.221	32.31
802.398	32.48
802.574	32.66
802.75	32.23
802.926	32.38
803.103	32.69
803.279	31.28
803.455	33.28
803.631	32.83
803.807	33.49
803.983	33.3
804.16	32.91
804.336	32.23
804.512	31.48
804.688	31.51
804.864	32.05
805.04	32.97
805.216	33.06
805.392	31.89
805.568	32.35
805.744	32.08
805.92	32.55
806.096	32.74
806.272	31.75
806.448	32.45
806.623	32.41
806.799	31.41
806.975	31.18
807.151	31.56
807.327	31.94
807.503	32.13
807.678	31.83
807.854	31.66
808.03	32.49
808.206	34.68
808.381	33.37
808.557	32.92
808.733	33.05
808.908	32.83
809.084	34
809.26	33.29
809.435	32.85
809.611	33.1
809.787	32.61
809.962	31.54
810.138	31.45
810.313	31.89
810.489	31.38
810.664	31.65
810.84	32.29
811.015	31.35
811.191	31.25
811.366	31.15
811.542	31.09
811.717	31.37
811.892	31.15
812.068	30.28
812.243	30.67
812.419	30.58
812.594	29.72
812.769	29
812.944	28.3
813.12	27.9
813.295	27.66
813.47	26.33
813.645	26.79
813.821	28.23
813.996	27.62
814.171	26.16
814.346	26.15
814.521	27.98
814.697	27.92
814.872	28.19
815.047	28.14
815.222	28.85
815.397	30.14
815.572	29.84
815.747	29.41
815.922	29.21
816.097	29.99
816.272	32.5
816.447	31.32
816.622	32.09
816.797	32.26
816.972	31.76
817.147	31.08
817.322	31.56
817.496	30.02
817.671	30.27
817.846	31.61
818.021	33.68
818.196	31.27
818.371	31.43
818.545	30.66
818.72	31.48
818.895	32.64
819.069	32.84
819.244	32.57
819.419	34.63
819.594	34.09
819.768	33.5
819.943	32.59
820.117	33.07
820.292	33.37
820.467	33.77
820.641	33.41
820.816	33.73
820.99	33.87
821.165	33.99
821.339	33.98
821.514	34.09
821.688	34.19
821.863	34.49
822.037	34.52
822.212	34.66
822.386	34.76
822.56	34.94
822.735	34.78
822.909	34.54
823.084	34.35
823.258	34.1
823.432	34.26
823.606	34.22
823.781	34.33
823.955	33.84
824.129	33.67
824.303	33.33
824.478	33.42
824.652	33.29
824.826	33.74
825	34.11
825.174	34.29
825.348	34
825.523	34.3
825.697	33.75
825.871	34.93
826.045	34.75
826.219	35.16
826.393	34.44
826.567	34.34
826.741	34.22
826.915	33.97
827.089	33.65
827.263	33.87
827.437	33.14
827.611	32.93
827.784	32.18
827.958	32.08
828.132	31.74
828.306	32.49
828.48	32.52
828.654	32.51
828.827	32.69
829.001	32.81
829.175	32.99
829.349	34.35
829.522	34.17
829.696	34.12
829.87	34.75
830.044	34.6
830.217	33.6
830.391	33.46
830.565	32.83
830.738	32.55
830.912	33.02
831.085	31.81
831.259	31.86
831.432	33.01
831.606	33.93
831.779	33.06
831.953	31.93
832.126	32.54
832.3	33.13
832.473	33.14
832.647	32.4
832.82	32
832.994	31.86
833.167	31.11
833.34	31.16
833.514	30.64
833.687	31.15
833.86	31.82
834.034	31.64
834.207	31.41
834.38	31.79
834.553	32.12
834.727	31.53
834.9	31.31
835.073	31.54
835.246	31.83
835.419	32.03
835.593	31.56
835.766	31.85
835.939	32.27
836.112	31.1
836.285	31.54
836.458	31.18
836.631	31.57
836.804	32.96
836.977	32.39
837.15	32.32
837.323	31.83
837.496	31.39
837.669	30.37
837.842	28.02
838.015	28.85
838.188	27.31
838.361	27.4
838.533	28.68
838.706	29.04
838.879	28.22
839.052	26.81
839.225	27.8
839.398	29.35
839.57	29.82
839.743	30.81
839.916	33.06
840.088	33.14
840.261	32.84
840.434	33.11
840.607	34.4
840.779	35.69
840.952	35.03
841.124	34.57
841.297	32.74
841.47	32.34
841.642	32.6
841.815	30.22
841.987	29.76
842.16	30.85
842.332	31.14
842.505	27.23
842.677	26.63
842.85	27.51
843.022	28.82
843.194	27.7
843.367	27.23
843.539	27.14
843.712	26.9
843.884	27.05
844.056	27.95
844.229	27.03
844.401	25.33
844.573	23.59
844.745	23.54
844.918	18.16
845.09	20.43
845.262	19.93
845.434	17.29
845.606	14.8
845.779	13.27
845.951	15.32
846.123	14.77
846.295	15.35
846.467	16.93
846.639	12.17
846.811	15.53
846.983	17.87
847.155	17.59
847.327	18.71
847.499	23.2
847.671	25.59
847.843	21.15
848.015	21.35
848.187	26.63
848.359	23.63
848.531	29.54
848.703	26.69
848.875	25.65
849.047	25.39
849.218	25.74
849.39	26.2
849.562	23.88
849.734	25.32
849.905	27.58
850.077	20.04
850.249	23.11
850.421	19.64
850.592	22.72
850.764	19.42
850.936	23.16
851.107	27.37
851.279	23.8
851.451	25.3
851.622	21.41
851.794	16.95
851.965	16.93
852.137	16.06
852.308	17.44
852.48	17.99
852.651	18.6
852.823	14.82
852.994	12.89
853.166	14.8
853.337	13.96
853.509	17.13
853.68	18.78
853.851	24.13
854.023	24.67
854.194	24.88
854.365	20.75
854.537	21.38
854.708	24.73
854.879	22.55
855.05	22.07
855.222	20.8
855.393	24.95
855.564	24.7
855.735	20.92
855.906	20.46
856.078	15.36
856.249	19.47
856.42	17.12
856.591	15.86
856.762	14.35
856.933	13.22
857.104	9.99
857.275	4.13
857.446	0.01
857.617	4.45
857.788	3.1
857.959	6.68
858.13	6.55
858.301	9.04
858.472	6.67
858.643	6.87
858.814	11.95
858.985	13.8
859.155	9.71
859.326	14.01
859.497	13.25
859.668	14.47
859.839	17.61
860.009	14.37
860.18	13.46
860.351	15.94
860.522	16.66
860.692	13.87
860.863	12.41
861.034	14.01
861.204	12.13
861.375	6.66
861.546	4.34
861.716	1.08
861.887	1.57
862.057	1.4
862.228	-0.43
862.398	3.31
862.569	-1.31
862.739	-0.42
862.91	-0.95
863.08	0.97
863.251	7.16
863.421	10.45
863.592	9.06
863.762	6.75
863.932	8.76
864.103	10.69
864.273	7.69
864.443	11.62
864.614	9.91
864.784	11.4
864.954	10.84
865.125	11.04
865.295	7.97
865.465	5.64
865.635	12.64
865.805	13.3
865.976	12.94
866.146	8.65
866.316	4.68
866.486	9.98
866.656	8.1
866.826	3.53
866.996	4.04
867.166	4.98
867.336	6.65
867.506	1.77
867.676	-2.87
867.846	-9.27
868.016	-3.81
868.186	-2.55
868.356	-2.46
868.526	4.19
868.696	14.07
868.866	14.05
869.036	17.27
869.206	23.44
869.376	35.1
869.545	43.42
869.715	50.5
869.885	46.43
870.055	51.38
870.224	53.79
870.394	48.63
870.564	41.15
870.734	36.07
870.903	33.25
871.073	28.24
871.243	24.45
871.412	17.03
871.582	13.15
871.751	18.03
871.921	11.12
872.091	9.56
872.26	8.13
872.43	10.15
872.599	13.11
872.769	14.86
872.938	21.88
873.108	19.31
873.277	21.14
873.446	16.57
873.616	13.9
873.785	12.4
873.955	15.67
874.124	16.52
874.293	22.37
874.463	21.16
874.632	21.65
874.801	14.44
874.971	12.75
875.14	16.19
875.309	25.24
875.478	28.79
875.647	33.98
875.817	33.11
875.986	34.62
876.155	34.97
876.324	33.58
876.493	33.67
876.662	31.89
876.831	35.33
877	31.26
877.17	28.06
877.339	27.58
877.508	19.24
877.677	17.95
877.846	14.47
878.015	10.26
878.184	14.13
878.352	15.09
878.521	14.79
878.69	14.42
878.859	15.12
879.028	15.83
879.197	17.24
879.366	23.03
879.534	21.73
879.703	26.67
879.872	29.23
880.041	28.69
880.21	29.58
880.378	31.64
880.547	31.54
880.716	32.42
880.884	32.14
881.053	32.59
881.222	32.12
881.39	32.82
881.559	31.9
881.727	31.71
881.896	31.97
882.065	31.73
882.233	31.33
882.402	31.78
882.57	31.15
882.739	32
882.907	31.38
883.076	32.87
883.244	32.22
883.412	32.92
883.581	32.75
883.749	32.81
883.918	33.49
884.086	33.4
884.254	32.23
884.423	32.32
884.591	31.13
884.759	31.9
884.927	28.29
885.096	28.67
885.264	27.53
885.432	25.41
885.6	25.04
885.769	22.67
885.937	22.02
886.105	23.42
886.273	21.76
886.441	21.72
886.609	19.92
886.777	23.31
886.945	20.56
887.113	17.48
887.281	20.81
887.449	20.04
887.617	20.6
887.785	21.73
887.953	19.45
888.121	22.16
888.289	24.73
888.457	25.85
888.625	22.19
888.793	24.65
888.961	29.99
889.129	30.03
889.296	29.07
889.464	30.68
889.632	27.1
889.8	27.28
889.967	27.3
890.135	22.89
