Data from 2938452_Reflection_1.txt Node
Date: Fri Jun 19 17:55:39 EDT 2015
User: robert
Spectrometer: USB4E03002
Autoset integration time: false
Trigger mode: 4
Integration Time (sec): 1.000000E-1
Scans to average: 10
Electric dark correction enabled: true
Nonlinearity correction enabled: false
Boxcar width: 5
Stray light correction enabled: false
XAxis mode: Wavelengths
Stop averaging: false
Number of Pixels in Spectrum: 3648
>>>>>Begin Spectral Data<<<<<
177.575	-326.66
177.794	-40.04
178.014	-65.66
178.233	-28.75
178.452	31.48
178.672	45.1
178.891	77.04
179.11	-244.4
179.33	-295.5
179.549	-134.49
179.768	-51.64
179.987	-133.08
180.207	-115.83
180.426	-233.94
180.645	-168.49
180.864	-235.22
181.084	495.56
181.303	295.74
181.522	185.35
181.741	211.13
181.96	157.31
182.179	141.82
182.398	100.42
182.618	114.24
182.837	137.66
183.056	144.96
183.275	135.24
183.494	118.66
183.713	133.95
183.932	123.76
184.151	121.36
184.37	140.53
184.589	284.21
184.808	327.77
185.027	227.51
185.246	140.26
185.465	124.94
185.684	202400
185.903	-68.16
186.122	-55.15
186.341	-84.15
186.56	-66.51
186.779	6.05
186.998	37.77
187.216	100.79
187.435	85.34
187.654	110.39
187.873	146.28
188.092	188.36
188.311	207.86
188.53	266.95
188.748	303.44
188.967	226.98
189.186	94.62
189.405	242.41
189.623	-1844.44
189.842	-415.73
190.061	-60.13
190.28	-277.05
190.498	-230.7
190.717	422.82
190.936	283.23
191.154	222.71
191.373	134.76
191.592	130
191.81	329.31
192.029	539.05
192.248	126.33
192.466	184.77
192.685	218.79
192.904	189.5
193.122	357.95
193.341	-1014.43
193.559	2493.4
193.778	-5304.96
193.996	-1040.88
194.215	865.45
194.433	421.85
194.652	-1040.32
194.87	-162.17
195.089	-216.86
195.307	-67.1
195.526	-153.24
195.744	156.08
195.963	193300
196.181	930.82
196.399	302.15
196.618	136.53
196.836	101.7
197.055	91.66
197.273	81.64
197.491	99.79
197.71	96.14
197.928	150.66
198.146	151.61
198.365	105.82
198.583	60.89
198.801	111.44
199.019	190.36
199.238	353.65
199.456	446.29
199.674	454.99
199.892	-2652.33
200.111	-208.84
200.329	-144.28
200.547	-73.5
200.765	-27.77
200.983	-76.26
201.202	-57.96
201.42	-83.8
201.638	-42.41
201.856	14.13
202.074	3.85
202.292	86.61
202.51	40.53
202.728	76.2
202.946	111.13
203.165	1173.68
203.383	-221.53
203.601	10.67
203.819	-46.93
204.037	172.14
204.255	92.14
204.473	6.68
204.691	-46.45
204.909	-2.44
205.127	21.34
205.345	56.77
205.562	43.92
205.78	57.08
205.998	83.79
206.216	95.41
206.434	-155.45
206.652	197.32
206.87	116.9
207.088	762.8
207.306	93.02
207.523	58.71
207.741	59.72
207.959	67.4
208.177	76.35
208.395	70.07
208.612	76.37
208.83	57.4
209.048	43.57
209.266	28.31
209.483	19.73
209.701	32.81
209.919	27.99
210.136	44.25
210.354	32
210.572	17.79
210.79	21.72
211.007	32.08
211.225	35.21
211.442	60.2
211.66	37.89
211.878	45.53
212.095	45.47
212.313	49.04
212.53	39.04
212.748	48.27
212.966	58.83
213.183	48.91
213.401	34.36
213.618	35.04
213.836	35.19
214.053	43.03
214.271	69.25
214.488	64.9
214.705	93
214.923	100.07
215.14	74.19
215.358	87.21
215.575	205.72
215.793	157.69
216.01	138.49
216.227	122.29
216.445	130.25
216.662	76.3
216.879	75.62
217.097	87.27
217.314	80.3
217.531	83.68
217.749	69.7
217.966	69.86
218.183	77.56
218.4	45.22
218.618	26
218.835	23.44
219.052	36.05
219.269	26.95
219.487	30.11
219.704	12.28
219.921	14.33
220.138	14.45
220.355	16.71
220.572	19.43
220.79	45.22
221.007	52.72
221.224	71.82
221.441	65.16
221.658	60.18
221.875	42.15
222.092	34.26
222.309	32.06
222.526	27.91
222.743	16.36
222.96	10.89
223.177	2.35
223.394	-0.14
223.611	-10.03
223.828	0.83
224.045	3.56
224.262	4.42
224.479	9.64
224.696	10.43
224.913	11.53
225.13	17.14
225.347	17.51
225.564	17.8
225.781	17.85
225.997	20.3
226.214	18.42
226.431	19.02
226.648	18.71
226.865	18.05
227.082	18.57
227.298	18.37
227.515	19.31
227.732	19.19
227.949	19.82
228.165	20.18
228.382	19.92
228.599	19.02
228.816	17.03
229.032	16.12
229.249	17.69
229.466	17.07
229.682	17.52
229.899	15.9
230.116	16.29
230.332	14.99
230.549	15.87
230.765	15.57
230.982	16.59
231.199	20.93
231.415	21.75
231.632	17.98
231.848	17.1
232.065	16.89
232.281	18.8
232.498	16.61
232.714	18.51
232.931	18.85
233.147	17.49
233.364	18.06
233.58	14.2
233.797	17.52
234.013	20.15
234.23	19.57
234.446	19.17
234.662	16.8
234.879	18.87
235.095	16.79
235.312	16.39
235.528	20.5
235.744	18.31
235.961	20.09
236.177	16.58
236.393	16.79
236.61	18.11
236.826	17.77
237.042	16.36
237.258	16.79
237.475	15.57
237.691	13.71
237.907	13.22
238.123	14.22
238.339	12.39
238.556	13.14
238.772	11.9
238.988	11.7
239.204	11.61
239.42	13.61
239.636	13.43
239.853	13.79
240.069	13.9
240.285	13.39
240.501	12.71
240.717	13.53
240.933	13.88
241.149	14.05
241.365	14.16
241.581	14.59
241.797	13.94
242.013	14.14
242.229	13.92
242.445	14.23
242.661	13.41
242.877	13.87
243.093	14.14
243.309	13.29
243.525	13.58
243.741	13.02
243.957	12.51
244.173	11.89
244.388	10.41
244.604	10.89
244.82	11.03
245.036	11.05
245.252	10.68
245.468	9.72
245.683	9.69
245.899	9.47
246.115	9.02
246.331	8.49
246.547	8.71
246.762	9
246.978	8.9
247.194	8.6
247.409	8.49
247.625	8.49
247.841	9.16
248.057	9.88
248.272	9.56
248.488	9.38
248.703	9.86
248.919	9.86
249.135	9.57
249.35	9.01
249.566	8.44
249.782	9.08
249.997	9.12
250.213	9.42
250.428	8.18
250.644	8.96
250.859	10.14
251.075	10.31
251.29	10.05
251.506	10.16
251.721	10.35
251.937	11
252.152	11.33
252.368	11.18
252.583	11.08
252.798	11.2
253.014	11.31
253.229	10.56
253.445	10.14
253.66	10
253.875	9.74
254.091	9.02
254.306	7.86
254.521	6.84
254.737	7.74
254.952	6.85
255.167	7.4
255.383	7.47
255.598	7.81
255.813	8.17
256.028	7.51
256.244	8.8
256.459	8.74
256.674	8.91
256.889	8.22
257.104	7.73
257.32	7.79
257.535	7.65
257.75	7.13
257.965	6.94
258.18	6.98
258.395	7.11
258.61	6.88
258.826	7.11
259.041	6.89
259.256	7.2
259.471	7.2
259.686	7.55
259.901	7.36
260.116	7.26
260.331	7.8
260.546	8.42
260.761	8.37
260.976	8.15
261.191	8.01
261.406	9.02
261.621	8.66
261.836	8.48
262.05	8.35
262.265	8.63
262.48	9.1
262.695	8.21
262.91	7.2
263.125	7.3
263.34	7.39
263.555	6.74
263.769	5.41
263.984	6.63
264.199	7.1
264.414	7.17
264.629	7.14
264.843	6.36
265.058	6.2
265.273	6.12
265.488	6.1
265.702	5.49
265.917	5.95
266.132	6.09
266.346	5.03
266.561	4.66
266.776	4.49
266.99	4.23
267.205	5.58
267.42	6.41
267.634	6.29
267.849	6.71
268.063	7.36
268.278	7.55
268.492	8.32
268.707	9.09
268.922	8.96
269.136	8.53
269.351	9
269.565	8.94
269.78	8.7
269.994	8.57
270.209	8.73
270.423	8.59
270.637	8.74
270.852	8.57
271.066	8.68
271.281	8.88
271.495	9.26
271.709	9.01
271.924	8.66
272.138	8.46
272.353	8.7
272.567	8.45
272.781	8.7
272.996	9.02
273.21	9.2
273.424	8.52
273.638	8.06
273.853	7.85
274.067	7.39
274.281	7.23
274.495	6.49
274.71	6.84
274.924	6.6
275.138	6.6
275.352	5.86
275.566	6.04
275.781	6.06
275.995	6.99
276.209	7.12
276.423	7.38
276.637	6.89
276.851	8.01
277.065	7.53
277.279	7.96
277.493	7.83
277.707	7.49
277.921	7.18
278.135	7.21
278.349	6.22
278.563	6.26
278.777	6.25
278.991	7.12
279.205	6.57
279.419	6.55
279.633	6.6
279.847	7.07
280.061	6.69
280.275	6.69
280.489	6.92
280.703	7.96
280.917	7.61
281.131	7.33
281.344	7.02
281.558	6.31
281.772	6.47
281.986	6.38
282.2	5.86
282.414	5.9
282.627	5.58
282.841	5.84
283.055	5.66
283.269	6.23
283.482	6.88
283.696	6.86
283.91	7.79
284.123	7.72
284.337	7.24
284.551	7.21
284.764	7.38
284.978	7.85
285.192	7.58
285.405	7.57
285.619	7.7
285.833	7.98
286.046	8.2
286.26	8.11
286.473	8.14
286.687	8.77
286.9	8.88
287.114	9.23
287.327	9.06
287.541	8.64
287.754	8.25
287.968	7.76
288.181	7.36
288.395	7.26
288.608	7.33
288.822	7.23
289.035	7.47
289.248	7.38
289.462	7.59
289.675	7.69
289.889	8.24
290.102	8.62
290.315	8.56
290.529	8.57
290.742	8.71
290.955	8.67
291.169	8.47
291.382	8.16
291.595	8.67
291.808	8.55
292.022	8.03
292.235	8.3
292.448	8.12
292.661	7.68
292.875	7.7
293.088	7.93
293.301	8.29
293.514	8.5
293.727	8.35
293.94	8.21
294.153	8.18
294.367	8.44
294.58	8.29
294.793	8.05
295.006	8.62
295.219	8.64
295.432	8.6
295.645	8.25
295.858	8.64
296.071	8.64
296.284	8.48
296.497	8.86
296.71	8.94
296.923	8.68
297.136	8.83
297.349	8.32
297.562	8.27
297.775	7.7
297.988	7.96
298.201	7.84
298.414	7.89
298.626	8.39
298.839	7.98
299.052	7.82
299.265	8.02
299.478	8.01
299.691	8.71
299.903	8.96
300.116	9.82
300.329	9.31
300.542	8.76
300.755	8.89
300.967	9.12
301.18	9.01
301.393	8.96
301.605	9.48
301.818	9.85
302.031	9.21
302.243	9.22
302.456	8.56
302.669	8.6
302.881	9.33
303.094	9.84
303.307	9.16
303.519	9.6
303.732	10.29
303.944	10.35
304.157	10.71
304.37	11.02
304.582	10.88
304.795	11.11
305.007	11.41
305.22	11
305.432	10.01
305.645	10.01
305.857	10.15
306.069	9.63
306.282	8.67
306.494	7.86
306.707	7.93
306.919	8.02
307.132	7.88
307.344	7.73
307.556	7.71
307.769	8.19
307.981	8.4
308.193	8.06
308.406	7.75
308.618	7.82
308.83	8.14
309.043	8.19
309.255	8.22
309.467	8.13
309.679	8.62
309.892	8.66
310.104	8.3
310.316	8.23
310.528	8.04
310.74	8.39
310.953	8.33
311.165	8.63
311.377	8.99
311.589	9.02
311.801	9.55
312.013	9.16
312.225	9.04
312.437	9.57
312.649	9.91
312.862	9.83
313.074	9.4
313.286	10.15
313.498	9.28
313.71	9.01
313.922	8.63
314.134	8.82
314.346	8.29
314.558	8.65
314.77	8.46
314.982	8.1
315.193	9.02
315.405	9.76
315.617	9.41
315.829	9.96
316.041	9.95
316.253	10.31
316.465	9.9
316.677	9.9
316.888	10.05
317.1	9.75
317.312	9.79
317.524	8.38
317.736	7.99
317.947	9.21
318.159	9.31
318.371	9.01
318.583	9.11
318.794	8.64
319.006	9.03
319.218	8.62
319.43	8.44
319.641	8.66
319.853	9.09
320.064	9.06
320.276	7.99
320.488	7.59
320.699	7.49
320.911	6.74
321.123	6.91
321.334	7.18
321.546	7.1
321.757	8
321.969	7.96
322.18	8.48
322.392	8.78
322.603	8.62
322.815	8.72
323.026	8.96
323.238	8.97
323.449	9.46
323.661	9.43
323.872	8.91
324.083	7.98
324.295	7.47
324.506	7.51
324.718	7.29
324.929	7.25
325.14	7.36
325.352	7.39
325.563	8.11
325.774	7.95
325.986	7.97
326.197	9.18
326.408	9.62
326.62	10.3
326.831	10.28
327.042	9.03
327.253	9.34
327.464	9.35
327.676	8.85
327.887	7.93
328.098	7.52
328.309	7.48
328.52	7.28
328.732	7.41
328.943	7.83
329.154	7.63
329.365	8.84
329.576	8.86
329.787	8.86
329.998	9.23
330.209	10
330.42	10.82
330.631	10.64
330.842	10.14
331.053	9.78
331.264	8.77
331.475	9.09
331.686	8.84
331.897	8.79
332.108	8.78
332.319	9.05
332.53	9.22
332.741	8.36
332.952	9.17
333.163	9.35
333.374	9.99
333.585	9.79
333.795	9.22
334.006	9.43
334.217	9.3
334.428	9.5
334.639	9.32
334.849	8.78
335.06	9.13
335.271	8.39
335.482	7.84
335.692	7.12
335.903	7.24
336.114	7.42
336.325	7.46
336.535	7.67
336.746	7.19
336.957	7.43
337.167	7.62
337.378	7.75
337.589	8.01
337.799	7.95
338.01	8.42
338.22	9.04
338.431	9.29
338.642	10.06
338.852	9.73
339.063	9.7
339.273	9.39
339.484	9.22
339.694	9.04
339.905	8.98
340.115	9.22
340.326	9.12
340.536	8.77
340.746	8.63
340.957	7.73
341.167	7.75
341.378	8.38
341.588	8.58
341.799	8.68
342.009	8.17
342.219	7.9
342.43	7.84
342.64	7.75
342.85	7.25
343.061	7.08
343.271	6.94
343.481	7.08
343.691	6.85
343.902	6.77
344.112	6.58
344.322	7.28
344.532	7.33
344.743	7.47
344.953	7.03
345.163	7.44
345.373	7.22
345.583	7.58
345.793	7.14
346.004	6.96
346.214	7.31
346.424	7.65
346.634	7.13
346.844	7.08
347.054	6.77
347.264	7.46
347.474	8.04
347.684	8.25
347.894	7.98
348.104	8.58
348.314	8.18
348.524	7.68
348.734	7.4
348.944	7.41
349.154	7.58
349.364	8.02
349.574	7.19
349.784	6.57
349.994	6.67
350.204	6.51
350.413	6.28
350.623	6.43
350.833	6.32
351.043	6.37
351.253	6.31
351.463	6.3
351.672	6.24
351.882	7.01
352.092	6.71
352.302	6.98
352.511	7.28
352.721	7.07
352.931	7.74
353.141	7.58
353.35	7.22
353.56	7.5
353.77	7.23
353.979	6.91
354.189	6.7
354.399	6.88
354.608	6.74
354.818	6.57
355.027	6.67
355.237	5.98
355.447	6.51
355.656	6.78
355.866	7.05
356.075	7.53
356.285	7.69
356.494	7.78
356.704	7.68
356.913	7.48
357.123	7.34
357.332	6.98
357.542	6.92
357.751	6.77
357.96	7.15
358.17	6.75
358.379	6.48
358.589	6.73
358.798	6.58
359.007	6.71
359.217	6.97
359.426	7.11
359.635	7.45
359.845	7.43
360.054	7.36
360.263	7.1
360.472	7.13
360.682	7.23
360.891	6.83
361.1	6.89
361.309	7.03
361.519	6.67
361.728	6.63
361.937	6.6
362.146	6.67
362.355	6.7
362.564	6.62
362.774	6.68
362.983	6.27
363.192	6.42
363.401	6.24
363.61	6.08
363.819	6.23
364.028	6.25
364.237	5.67
364.446	5.66
364.655	5.28
364.864	5.59
365.073	5.79
365.282	5.82
365.491	5.82
365.7	6.2
365.909	6.28
366.118	6.28
366.327	6.58
366.536	7.16
366.745	7.07
366.954	6.97
367.162	6.59
367.371	6.64
367.58	6.54
367.789	6.3
367.998	5.99
368.207	5.74
368.415	5.94
368.624	5.9
368.833	5.65
369.042	5.78
369.25	6.52
369.459	6.53
369.668	6.03
369.877	6.26
370.085	6.72
370.294	6.73
370.503	6.78
370.711	6.51
370.92	6.25
371.129	6.51
371.337	6.06
371.546	5.45
371.754	5.39
371.963	5.44
372.171	5.26
372.38	4.76
372.589	5
372.797	4.45
373.006	4.67
373.214	4.72
373.423	4.47
373.631	5.19
373.84	5.27
374.048	5.25
374.256	5.33
374.465	5.5
374.673	5.46
374.882	4.98
375.09	5.34
375.298	4.95
375.507	5.05
375.715	4.97
375.923	4.54
376.132	4.37
376.34	4.18
376.548	4.1
376.757	3.86
376.965	4
377.173	4.26
377.381	4.36
377.59	4.61
377.798	4.62
378.006	4.48
378.214	4.69
378.423	4.99
378.631	4.97
378.839	4.77
379.047	5.01
379.255	4.84
379.463	4.87
379.671	4.79
379.879	4.81
380.088	4.58
380.296	4.88
380.504	5.01
380.712	4.96
380.92	5.22
381.128	5.23
381.336	4.69
381.544	4.68
381.752	4.81
381.96	4.77
382.168	4.71
382.376	4.62
382.584	4.24
382.791	4.31
382.999	4.27
383.207	4.16
383.415	4.3
383.623	4.82
383.831	5.01
384.039	4.85
384.247	4.74
384.454	4.49
384.662	4.44
384.87	4.55
385.078	4.08
385.285	4
385.493	3.99
385.701	3.83
385.909	3.53
386.116	3.37
386.324	2.94
386.532	3.21
386.739	3.44
386.947	3.35
387.155	3.6
387.362	3.92
387.57	4.04
387.778	4.31
387.985	4.35
388.193	4.38
388.4	4.3
388.608	4.59
388.816	4.4
389.023	4.08
389.231	4.05
389.438	3.54
389.646	3.52
389.853	3.4
390.061	2.94
390.268	3.05
390.475	3.14
390.683	3.31
390.89	3.19
391.098	3.23
391.305	3.59
391.512	3.52
391.72	3.81
391.927	3.62
392.135	3.6
392.342	3.77
392.549	3.52
392.756	3.58
392.964	3.44
393.171	3.58
393.378	3.6
393.586	3.57
393.793	3.68
394	3.63
394.207	3.63
394.414	3.77
394.622	3.88
394.829	3.98
395.036	3.93
395.243	4.04
395.45	3.95
395.657	3.94
395.864	3.76
396.072	3.9
396.279	3.89
396.486	3.95
396.693	3.9
396.9	3.63
397.107	3.53
397.314	3.36
397.521	3.34
397.728	3.34
397.935	3.3
398.142	3.13
398.349	3.14
398.556	3.09
398.763	2.91
398.97	2.77
399.177	3.04
399.383	2.94
399.59	3.02
399.797	2.94
400.004	2.86
400.211	2.71
400.418	2.93
400.625	2.62
400.831	2.66
401.038	2.77
401.245	2.79
401.452	2.49
401.658	2.8
401.865	2.88
402.072	2.88
402.279	3.02
402.485	3.12
402.692	2.96
402.899	3.09
403.105	3.13
403.312	3.07
403.519	3.14
403.725	3.32
403.932	3.3
404.138	3.24
404.345	3.26
404.552	3.16
404.758	3.23
404.965	3.31
405.171	3.23
405.378	3.18
405.584	3.14
405.791	3.14
405.997	3.06
406.204	2.92
406.41	2.85
406.617	2.89
406.823	2.89
407.029	2.69
407.236	2.76
407.442	2.87
407.649	2.96
407.855	3.05
408.061	3.07
408.268	3.1
408.474	3.11
408.68	3.13
408.887	3
409.093	3.05
409.299	3.04
409.505	3.04
409.712	2.87
409.918	2.8
410.124	2.84
410.33	2.77
410.537	2.62
410.743	2.6
410.949	2.54
411.155	2.68
411.361	2.51
411.567	2.6
411.773	2.43
411.98	2.54
412.186	2.58
412.392	2.3
412.598	2.24
412.804	2.42
413.01	2.6
413.216	2.64
413.422	2.46
413.628	2.58
413.834	2.65
414.04	2.69
414.246	2.62
414.452	2.59
414.658	2.64
414.864	2.67
415.07	2.61
415.275	2.54
415.481	2.59
415.687	2.6
415.893	2.55
416.099	2.42
416.305	2.5
416.511	2.62
416.716	2.56
416.922	2.62
417.128	2.54
417.334	2.58
417.539	2.5
417.745	2.4
417.951	2.44
418.157	2.39
418.362	2.43
418.568	2.37
418.774	2.22
418.979	2.24
419.185	2.27
419.391	2.31
419.596	2.28
419.802	2.3
420.008	2.36
420.213	1.9
420.419	2.01
420.624	2.08
420.83	2.07
421.035	2.18
421.241	2.15
421.446	2.16
421.652	2.14
421.857	2.08
422.063	2.05
422.268	2.07
422.474	2.52
422.679	2.43
422.885	2.39
423.09	2.39
423.295	2.42
423.501	2.45
423.706	2.44
423.911	2.44
424.117	2.46
424.322	2.5
424.527	2.48
424.733	2.38
424.938	2.43
425.143	2.33
425.349	2.4
425.554	2.23
425.759	2.27
425.964	2.19
426.169	2.19
426.375	2.21
426.58	2.32
426.785	2.4
426.99	2.57
427.195	2.64
427.4	2.74
427.605	2.68
427.811	2.82
428.016	2.74
428.221	2.75
428.426	2.81
428.631	2.84
428.836	2.79
429.041	2.62
429.246	2.48
429.451	2.4
429.656	2.34
429.861	2.38
430.066	2.39
430.271	2.38
430.476	2.45
430.681	2.4
430.886	2.38
431.09	2.29
431.295	2.41
431.5	2.46
431.705	2.4
431.91	2.44
432.115	2.38
432.32	2.4
432.524	2.43
432.729	2.45
432.934	2.54
433.139	2.5
433.343	2.53
433.548	2.49
433.753	2.53
433.958	2.63
434.162	2.61
434.367	2.67
434.572	2.55
434.776	2.53
434.981	2.44
435.186	2.25
435.39	2.36
435.595	2.3
435.799	2.29
436.004	2.33
436.209	2.25
436.413	2.25
436.618	2.15
436.822	2.19
437.027	2.18
437.231	2.17
437.436	2.26
437.64	2.19
437.845	2.27
438.049	2.26
438.253	2.18
438.458	2.3
438.662	2.3
438.867	2.34
439.071	2.3
439.275	2.27
439.48	2.26
439.684	2.29
439.888	2.27
440.093	2.26
440.297	2.21
440.501	2.28
440.706	2.23
440.91	2.23
441.114	2.16
441.318	2.21
441.523	2.21
441.727	2.21
441.931	2.13
442.135	2.17
442.339	2.24
442.543	2.32
442.748	2.21
442.952	2.14
443.156	2.18
443.36	2.16
443.564	2.13
443.768	2.15
443.972	2.19
444.176	2.31
444.38	2.25
444.584	2.14
444.788	2.06
444.992	2.05
445.196	2.06
445.4	1.99
445.604	2.01
445.808	2.14
446.012	2.14
446.216	2.15
446.42	2.05
446.624	2.13
446.828	2.2
447.032	2.24
447.235	2.28
447.439	2.22
447.643	2.22
447.847	2.26
448.051	2.07
448.254	2.06
448.458	2.02
448.662	2.04
448.866	1.91
449.069	1.88
449.273	1.93
449.477	1.9
449.681	2.07
449.884	2.16
450.088	2.06
450.292	2.13
450.495	2.1
450.699	2.15
450.902	2.18
451.106	2.19
451.31	2.18
451.513	2.11
451.717	2.12
451.92	2
452.124	1.96
452.327	2.15
452.531	2.09
452.734	2.05
452.938	1.93
453.141	1.87
453.345	1.93
453.548	1.95
453.752	1.98
453.955	2.01
454.158	2.02
454.362	2.01
454.565	1.95
454.769	2
454.972	2.1
455.175	2.18
455.379	2.19
455.582	2.07
455.785	2.03
455.988	2.04
456.192	2.01
456.395	2.01
456.598	1.96
456.801	1.96
457.005	1.93
457.208	1.96
457.411	1.96
457.614	1.9
457.817	1.94
458.021	1.98
458.224	1.97
458.427	2.04
458.63	1.99
458.833	2.1
459.036	2.07
459.239	2.08
459.442	2.03
459.645	2.07
459.848	2.14
460.051	2.14
460.254	2.13
460.457	2.21
460.66	2.12
460.863	2.12
461.066	1.95
461.269	2
461.472	1.98
461.675	1.99
461.878	1.83
462.081	1.87
462.284	1.78
462.486	1.64
462.689	1.52
462.892	1.63
463.095	1.72
463.298	1.81
463.5	1.82
463.703	1.86
463.906	1.85
464.109	1.91
464.311	1.78
464.514	1.88
464.717	1.99
464.92	1.92
465.122	1.77
465.325	1.75
465.528	1.68
465.73	1.64
465.933	1.65
466.135	1.61
466.338	1.72
466.541	1.86
466.743	1.89
466.946	1.84
467.148	1.93
467.351	1.97
467.553	1.98
467.756	2.1
467.958	2.09
468.161	2.06
468.363	2.1
468.566	2.02
468.768	1.99
468.971	1.95
469.173	1.98
469.375	2
469.578	2.03
469.78	2.04
469.983	2.05
470.185	2.02
470.387	2.15
470.59	2.15
470.792	2.2
470.994	2.19
471.196	2.28
471.399	2.25
471.601	2.19
471.803	2.21
472.005	2.16
472.208	2.09
472.41	2.17
472.612	2.16
472.814	2.16
473.016	2.12
473.218	2.13
473.421	2.02
473.623	2.03
473.825	2.05
474.027	1.92
474.229	1.9
474.431	1.94
474.633	1.86
474.835	1.85
475.037	1.85
475.239	1.84
475.441	1.79
475.643	1.83
475.845	1.72
476.047	1.7
476.249	1.82
476.451	1.82
476.653	1.78
476.855	1.76
477.057	1.71
477.258	1.78
477.46	1.78
477.662	1.79
477.864	1.82
478.066	1.96
478.268	1.91
478.469	1.9
478.671	1.99
478.873	1.97
479.075	1.95
479.276	2
479.478	1.96
479.68	2.01
479.882	2.01
480.083	1.93
480.285	1.89
480.487	1.9
480.688	1.93
480.89	1.87
481.091	1.92
481.293	1.95
481.495	1.95
481.696	1.99
481.898	1.95
482.099	1.95
482.301	1.96
482.502	1.97
482.704	1.97
482.905	1.93
483.107	1.95
483.308	1.94
483.51	1.91
483.711	1.89
483.913	1.84
484.114	1.83
484.315	1.83
484.517	1.82
484.718	1.81
484.92	1.83
485.121	1.81
485.322	1.84
485.524	1.84
485.725	1.9
485.926	1.92
486.127	1.9
486.329	1.92
486.53	1.91
486.731	1.92
486.932	1.92
487.134	1.93
487.335	2
487.536	1.97
487.737	1.94
487.938	1.89
488.139	1.84
488.341	1.89
488.542	1.84
488.743	1.87
488.944	1.84
489.145	1.84
489.346	1.79
489.547	1.77
489.748	1.81
489.949	1.81
490.15	1.86
490.351	1.86
490.552	1.88
490.753	1.92
490.954	1.92
491.155	1.93
491.356	1.91
491.557	1.92
491.758	1.96
491.959	1.94
492.159	1.99
492.36	2.04
492.561	2.09
492.762	2.05
492.963	2.02
493.164	2.04
493.364	2.05
493.565	2.05
493.766	2.01
493.967	2.02
494.167	2.01
494.368	2.02
494.569	1.91
494.769	1.92
494.97	1.99
495.171	2.03
495.371	2
495.572	2.02
495.773	2.07
495.973	2.13
496.174	2.01
496.375	1.99
496.575	1.97
496.776	2
496.976	1.94
497.177	1.89
497.377	1.85
497.578	1.91
497.778	1.93
497.979	1.97
498.179	1.95
498.38	1.99
498.58	2.04
498.78	2.07
498.981	2.09
499.181	2.18
499.382	2.2
499.582	2.16
499.782	2.11
499.983	2.17
500.183	2.06
500.383	2.11
500.584	2.11
500.784	2.14
500.984	2.15
501.184	2.11
501.385	2.11
501.585	2.04
501.785	2.11
501.985	2.15
502.185	2.05
502.386	2.14
502.586	2.14
502.786	2.17
502.986	2.09
503.186	2.06
503.386	2.02
503.586	1.98
503.786	2.07
503.987	2.12
504.187	2.14
504.387	2.16
504.587	2.15
504.787	2.01
504.987	2
505.187	1.95
505.387	1.91
505.587	2.06
505.786	2.05
505.986	2
506.186	1.99
506.386	1.95
506.586	1.97
506.786	1.93
506.986	2.09
507.186	2.06
507.386	2.14
507.585	2.19
507.785	2.15
507.985	2.19
508.185	2.28
508.384	2.24
508.584	2.21
508.784	2.22
508.984	2.22
509.183	2.22
509.383	2.26
509.583	2.34
509.782	2.38
509.982	2.35
510.182	2.31
510.381	2.31
510.581	2.29
510.781	2.38
510.98	2.38
511.18	2.41
511.379	2.43
511.579	2.43
511.778	2.4
511.978	2.38
512.177	2.38
512.377	2.48
512.576	2.46
512.776	2.51
512.975	2.5
513.175	2.48
513.374	2.49
513.573	2.49
513.773	2.54
513.972	2.65
514.172	2.67
514.371	2.73
514.57	2.72
514.77	2.78
514.969	2.82
515.168	2.78
515.367	2.83
515.567	2.86
515.766	2.84
515.965	2.73
516.164	2.69
516.364	2.71
516.563	2.67
516.762	2.59
516.961	2.56
517.16	2.56
517.359	2.63
517.559	2.64
517.758	2.57
517.957	2.53
518.156	2.63
518.355	2.64
518.554	2.61
518.753	2.65
518.952	2.73
519.151	2.79
519.35	2.79
519.549	2.77
519.748	2.79
519.947	2.88
520.146	2.96
520.345	2.97
520.544	2.96
520.743	3.01
520.942	3.04
521.141	2.93
521.339	2.9
521.538	2.88
521.737	2.9
521.936	2.9
522.135	2.92
522.333	2.87
522.532	2.85
522.731	2.8
522.93	2.84
523.129	2.83
523.327	2.94
523.526	2.93
523.725	2.97
523.923	2.93
524.122	2.89
524.321	2.88
524.519	2.93
524.718	2.96
524.917	3.05
525.115	3.07
525.314	3.07
525.512	3.07
525.711	3.11
525.909	3.13
526.108	3.18
526.306	3.22
526.505	3.23
526.703	3.2
526.902	3.17
527.1	3.14
527.299	3.1
527.497	3.11
527.696	3.14
527.894	3.09
528.092	3.07
528.291	3.06
528.489	3.06
528.688	3.05
528.886	3.05
529.084	3.09
529.283	3.08
529.481	3.14
529.679	3.16
529.877	3.11
530.076	3.16
530.274	3.18
530.472	3.23
530.67	3.23
530.869	3.24
531.067	3.3
531.265	3.26
531.463	3.29
531.661	3.24
531.859	3.23
532.057	3.21
532.255	3.23
532.454	3.23
532.652	3.21
532.85	3.19
533.048	3.19
533.246	3.2
533.444	3.21
533.642	3.2
533.84	3.18
534.038	3.19
534.236	3.25
534.434	3.26
534.632	3.36
534.83	3.36
535.027	3.42
535.225	3.44
535.423	3.45
535.621	3.46
535.819	3.48
536.017	3.58
536.215	3.56
536.412	3.59
536.61	3.56
536.808	3.51
537.006	3.56
537.203	3.51
537.401	3.53
537.599	3.57
537.797	3.63
537.994	3.71
538.192	3.71
538.39	3.72
538.587	3.73
538.785	3.83
538.983	3.84
539.18	3.87
539.378	3.91
539.575	3.95
539.773	3.92
539.97	3.91
540.168	3.86
540.366	3.9
540.563	3.95
540.761	3.96
540.958	3.91
541.155	3.94
541.353	3.91
541.55	3.94
541.748	3.92
541.945	3.97
542.143	3.96
542.34	4.06
542.537	4.03
542.735	4.07
542.932	4.1
543.129	4.13
543.327	4.18
543.524	4.25
543.721	4.28
543.919	4.32
544.116	4.37
544.313	4.47
544.51	4.46
544.708	4.49
544.905	4.44
545.102	4.41
545.299	4.39
545.496	4.34
545.693	4.29
545.891	4.28
546.088	4.21
546.285	4.1
546.482	4.02
546.679	3.96
546.876	4.01
547.073	4
547.27	4.06
547.467	4.1
547.664	4.21
547.861	4.17
548.058	4.31
548.255	4.41
548.452	4.55
548.649	4.62
548.846	4.8
549.043	4.73
549.24	4.88
549.437	4.95
549.633	5.06
549.83	5.1
550.027	5.22
550.224	5.22
550.421	5.3
550.618	5.26
550.814	5.37
551.011	5.31
551.208	5.36
551.405	5.28
551.601	5.22
551.798	5.23
551.995	5.2
552.191	5.23
552.388	5.21
552.585	5.26
552.781	5.37
552.978	5.35
553.175	5.33
553.371	5.4
553.568	5.46
553.764	5.54
553.961	5.52
554.157	5.57
554.354	5.59
554.55	5.65
554.747	5.72
554.943	5.64
555.14	5.68
555.336	5.71
555.533	5.72
555.729	5.87
555.926	5.89
556.122	5.98
556.318	6.02
556.515	6.1
556.711	6.14
556.907	6.14
557.104	6.17
557.3	6.14
557.496	6.08
557.693	6.09
557.889	6.02
558.085	6.05
558.281	6.12
558.478	6.13
558.674	6.18
558.87	6.11
559.066	6.13
559.262	6.21
559.459	6.27
559.655	6.43
559.851	6.42
560.047	6.43
560.243	6.46
560.439	6.54
560.635	6.48
560.831	6.39
561.027	6.35
561.223	6.31
561.419	6.4
561.615	6.45
561.811	6.45
562.007	6.57
562.203	6.71
562.399	6.66
562.595	6.66
562.791	6.89
562.987	7.01
563.183	7.18
563.379	7.21
563.575	7.22
563.771	7.29
563.966	7.23
564.162	7.23
564.358	7.17
564.554	7.24
564.75	7.19
564.945	7.01
565.141	7.11
565.337	7.18
565.533	7.22
565.728	7.29
565.924	7.17
566.12	7.24
566.315	7.29
566.511	7.38
566.707	7.48
566.902	7.6
567.098	7.74
567.293	7.63
567.489	7.61
567.684	7.68
567.88	7.63
568.076	7.7
568.271	7.78
568.467	7.75
568.662	7.79
568.858	7.79
569.053	7.76
569.248	7.72
569.444	7.83
569.639	7.74
569.835	7.85
570.03	7.9
570.225	7.94
570.421	7.97
570.616	7.99
570.812	8.06
571.007	8.08
571.202	8.13
571.397	8.23
571.593	8.21
571.788	8.29
571.983	8.21
572.178	8.18
572.374	8.3
572.569	8.4
572.764	8.48
572.959	8.5
573.154	8.55
573.35	8.5
573.545	8.63
573.74	8.68
573.935	8.69
574.13	8.62
574.325	8.77
574.52	8.77
574.715	8.75
574.91	8.79
575.105	8.75
575.3	8.85
575.495	8.97
575.69	8.84
575.885	8.83
576.08	8.98
576.275	9.08
576.47	9.06
576.665	9.06
576.86	9.14
577.055	9.01
577.25	9.04
577.444	9.01
577.639	9.05
577.834	9.1
578.029	9.22
578.224	9.19
578.418	9.32
578.613	9.34
578.808	9.35
579.003	9.35
579.197	9.53
579.392	9.6
579.587	9.68
579.781	9.69
579.976	9.79
580.171	9.75
580.365	9.63
580.56	9.71
580.755	9.72
580.949	9.72
581.144	9.71
581.338	9.65
581.533	9.62
581.727	9.58
581.922	9.48
582.116	9.41
582.311	9.61
582.505	9.78
582.7	9.72
582.894	9.84
583.089	9.85
583.283	9.81
583.478	9.9
583.672	9.96
583.866	9.94
584.061	9.97
584.255	9.94
584.449	9.68
584.644	9.7
584.838	9.7
585.032	9.5
585.226	9.53
585.421	9.63
585.615	9.63
585.809	9.61
586.003	9.57
586.198	9.66
586.392	9.8
586.586	9.93
586.78	10.07
586.974	10.14
587.168	10.29
587.363	10.31
587.557	10.34
587.751	10.29
587.945	10.3
588.139	10.44
588.333	10.44
588.527	10.38
588.721	10.39
588.915	10.19
589.109	10.18
589.303	10.13
589.497	10.14
589.691	10.21
589.885	10.26
590.079	10.36
590.273	10.35
590.466	10.39
590.66	10.33
590.854	10.33
591.048	10.3
591.242	10.41
591.436	10.42
591.629	10.38
591.823	10.37
592.017	10.37
592.211	10.23
592.404	10.08
592.598	10.01
592.792	10.17
592.986	10.16
593.179	10.26
593.373	10.22
593.567	10.29
593.76	10.31
593.954	10.33
594.147	10.33
594.341	10.43
594.535	10.54
594.728	10.51
594.922	10.57
595.115	10.58
595.309	10.6
595.502	10.45
595.696	10.54
595.889	10.61
596.083	10.6
596.276	10.64
596.47	10.68
596.663	10.62
596.856	10.8
597.05	10.76
597.243	10.95
597.437	11.05
597.63	11.13
597.823	11.06
598.017	11.04
598.21	11.11
598.403	11.24
598.596	11.17
598.79	11.27
598.983	11.28
599.176	11.29
599.369	11.1
599.563	11.17
599.756	11.14
599.949	11.17
600.142	11.15
600.335	11.21
600.528	11.07
600.722	11.17
600.915	11.3
601.108	11.32
601.301	11.35
601.494	11.48
601.687	11.4
601.88	11.55
602.073	11.57
602.266	11.6
602.459	11.45
602.652	11.49
602.845	11.51
603.038	11.42
603.231	11.33
603.424	11.26
603.617	11.28
603.809	11.24
604.002	11.15
604.195	11.19
604.388	11.27
604.581	11.37
604.774	11.45
604.966	11.38
605.159	11.44
605.352	11.51
605.545	11.56
605.737	11.53
605.93	11.56
606.123	11.63
606.316	11.55
606.508	11.49
606.701	11.51
606.894	11.4
607.086	11.51
607.279	11.45
607.471	11.54
607.664	11.47
607.857	11.48
608.049	11.53
608.242	11.54
608.434	11.55
608.627	11.57
608.819	11.54
609.012	11.64
609.204	11.56
609.397	11.49
609.589	11.42
609.782	11.69
609.974	11.75
610.166	11.79
610.359	11.8
610.551	11.83
610.743	11.73
610.936	11.81
611.128	11.76
611.32	11.85
611.513	12
611.705	12.01
611.897	11.8
612.09	11.82
612.282	11.91
612.474	11.81
612.666	12.1
612.858	12.12
613.051	11.92
613.243	12.11
613.435	12.15
613.627	12.17
613.819	12.09
614.011	12.24
614.203	12.25
614.395	12.08
614.588	12.19
614.78	11.9
614.972	11.97
615.164	12.06
615.356	11.87
615.548	11.78
615.74	11.83
615.932	11.87
616.124	11.58
616.315	11.64
616.507	11.65
616.699	11.71
616.891	11.58
617.083	11.71
617.275	12.04
617.467	12.13
617.659	12.16
617.85	12.09
618.042	12.17
618.234	12.38
618.426	12.28
618.618	12.46
618.809	12.49
619.001	12.76
619.193	12.65
619.384	12.4
619.576	12.33
619.768	12.3
619.959	12.25
620.151	12.41
620.343	12.45
620.534	12.43
620.726	12.49
620.917	12.47
621.109	12.44
621.301	12.53
621.492	12.55
621.684	12.61
621.875	12.71
622.067	12.86
622.258	12.68
622.45	12.7
622.641	12.68
622.832	12.59
623.024	12.52
623.215	12.64
623.407	12.49
623.598	12.54
623.789	12.63
623.981	12.49
624.172	12.5
624.363	12.71
624.555	12.59
624.746	12.64
624.937	12.53
625.129	12.47
625.32	12.3
625.511	12.5
625.702	12.51
625.893	12.36
626.085	12.43
626.276	12.49
626.467	12.35
626.658	12.37
626.849	12.42
627.04	12.57
627.231	12.72
627.422	12.87
627.614	12.85
627.805	12.83
627.996	12.85
628.187	12.88
628.378	12.96
628.569	13.15
628.76	13.08
628.951	12.95
629.142	12.96
629.332	12.9
629.523	12.87
629.714	12.83
629.905	12.72
630.096	12.91
630.287	12.96
630.478	12.8
630.669	12.63
630.859	12.8
631.05	12.92
631.241	12.91
631.432	12.87
631.623	12.89
631.813	12.93
632.004	12.95
632.195	12.9
632.385	12.93
632.576	13.07
632.767	13.05
632.957	12.96
633.148	13.08
633.339	13.06
633.529	13.18
633.72	12.99
633.91	13.08
634.101	13.13
634.292	13.18
634.482	13.1
634.673	13.03
634.863	13.08
635.054	13.21
635.244	13.06
635.435	13.11
635.625	13.08
635.815	13.18
636.006	13.12
636.196	13.19
636.387	13.19
636.577	13.45
636.767	13.45
636.958	13.49
637.148	13.36
637.338	13.33
637.529	13.31
637.719	13.41
637.909	13.5
638.099	13.58
638.29	13.63
638.48	13.56
638.67	13.55
638.86	13.55
639.05	13.52
639.241	13.67
639.431	13.82
639.621	13.82
639.811	13.8
640.001	13.83
640.191	13.78
640.381	13.61
640.571	13.73
640.761	13.65
640.951	13.64
641.141	13.43
641.331	13.22
641.521	13.15
641.711	13.32
641.901	13.28
642.091	13.27
642.281	13.19
642.471	13.14
642.661	13.12
642.851	13
643.041	13.05
643.231	13.3
643.42	13.54
643.61	13.66
643.8	13.39
643.99	13.64
644.18	13.52
644.369	13.52
644.559	13.67
644.749	13.71
644.939	13.65
645.128	13.74
645.318	13.87
645.508	13.85
645.697	13.72
645.887	13.78
646.076	13.46
646.266	13.4
646.456	13.44
646.645	13.53
646.835	13.45
647.024	13.66
647.214	13.76
647.403	13.65
647.593	13.79
647.782	14.01
647.972	14.26
648.161	14.35
648.351	14.59
648.54	14.73
648.73	14.8
648.919	14.84
649.108	14.76
649.298	14.69
649.487	14.54
649.677	14.55
649.866	14.44
650.055	14.28
650.244	14.48
650.434	14.54
650.623	14.54
650.812	14.51
651.002	14.69
651.191	14.6
651.38	14.46
651.569	14.77
651.758	14.65
651.947	14.73
652.137	14.68
652.326	14.7
652.515	14.64
652.704	14.48
652.893	14.56
653.082	14.39
653.271	14.39
653.46	14.35
653.649	14.03
653.838	14.08
654.027	13.91
654.216	13.88
654.405	13.69
654.594	13.68
654.783	13.81
654.972	13.62
655.161	13.64
655.35	13.71
655.539	13.99
655.728	14.12
655.916	14.33
656.105	14.39
656.294	14.51
656.483	14.5
656.672	14.37
656.86	14.51
657.049	14.55
657.238	14.73
657.427	14.74
657.615	14.51
657.804	14.53
657.993	14.31
658.181	14.35
658.37	14.41
658.559	14.31
658.747	14.49
658.936	14.33
659.125	14.46
659.313	14.25
659.502	14.48
659.69	14.66
659.879	14.63
660.067	14.51
660.256	14.33
660.444	14.41
660.633	14.62
660.821	14.7
661.01	14.75
661.198	14.76
661.387	14.85
661.575	14.44
661.763	14.5
661.952	14.62
662.14	14.88
662.328	14.94
662.517	14.72
662.705	14.85
662.893	14.78
663.082	15.01
663.27	14.76
663.458	15.05
663.646	15.23
663.834	15.03
664.023	15.1
664.211	15.05
664.399	15.38
664.587	15.56
664.775	15.5
664.963	15.53
665.152	15.11
665.34	15.23
665.528	14.88
665.716	14.99
665.904	15.13
666.092	15.04
666.28	15.37
666.468	15.31
666.656	15.1
666.844	15.31
667.032	15.23
667.22	15.65
667.408	15.75
667.596	16
667.784	15.94
667.971	16.07
668.159	16.23
668.347	15.83
668.535	15.67
668.723	15.89
668.911	15.88
669.098	15.83
669.286	15.75
669.474	15.75
669.662	15.72
669.849	15.87
670.037	15.74
670.225	15.58
670.413	15.92
670.6	15.8
670.788	15.8
670.976	15.59
671.163	15.61
671.351	15.55
671.538	15.66
671.726	15.64
671.913	15.63
672.101	15.68
672.289	15.7
672.476	15.51
672.664	15.72
672.851	15.84
673.039	15.64
673.226	15.66
673.413	15.86
673.601	15.88
673.788	16.08
673.976	16.22
674.163	16.38
674.35	16.52
674.538	16.69
674.725	16.88
674.912	16.74
675.1	17.14
675.287	17.16
675.474	16.86
675.662	16.82
675.849	16.71
676.036	16.39
676.223	16.08
676.411	16.01
676.598	16.12
676.785	16.47
676.972	16.64
677.159	16.49
677.346	16.33
677.533	16.47
677.721	16.35
677.908	16.23
678.095	16.36
678.282	16.61
678.469	16.74
678.656	16.61
678.843	16.11
679.03	15.93
679.217	15.87
679.404	16.15
679.591	15.99
679.778	16.17
679.964	16.31
680.151	16.28
680.338	16.3
680.525	16.16
680.712	16.21
680.899	16.42
681.086	16.49
681.272	16.73
681.459	16.47
681.646	16.4
681.833	16.3
682.02	16.35
682.206	16.59
682.393	16.57
682.58	16.54
682.766	16.35
682.953	16.29
683.14	16.14
683.326	16.33
683.513	16.76
683.7	16.62
683.886	16.74
684.073	16.56
684.259	16.25
684.446	15.95
684.632	15.96
684.819	15.9
685.005	16.05
685.192	15.91
685.378	15.36
685.565	15.3
685.751	15.76
685.938	15.57
686.124	15.58
686.31	15.61
686.497	16.11
686.683	16.45
686.87	16.69
687.056	16.52
687.242	16.7
687.429	17.05
687.615	16.93
687.801	16.65
687.987	16.52
688.174	16.61
688.36	16.62
688.546	16.35
688.732	16.33
688.918	16.53
689.105	16.52
689.291	16.69
689.477	16.38
689.663	16.44
689.849	16.53
690.035	16.88
690.221	16.71
690.407	16.72
690.593	16.45
690.779	16.28
690.965	15.75
691.151	15.9
691.337	15.85
691.523	16.31
691.709	16.05
691.895	16.38
692.081	16.47
692.267	16.34
692.453	16.43
692.639	16.55
692.825	16.47
693.011	16.76
693.196	16.54
693.382	16.38
693.568	15.94
693.754	16.34
693.94	16.08
694.125	16.02
694.311	16.28
694.497	16.2
694.682	16.33
694.868	16.26
695.054	16.09
695.239	15.98
695.425	16.14
695.611	16.52
695.796	16.19
695.982	16.17
696.168	16.08
696.353	16.23
696.539	16.23
696.724	16.19
696.91	16.37
697.095	16.46
697.281	16.46
697.466	16.49
697.652	16.44
697.837	16.49
698.023	16.6
698.208	16.51
698.393	16.18
698.579	16.17
698.764	16.21
698.949	16.04
699.135	16.15
699.32	16.24
699.505	16.12
699.691	15.91
699.876	15.85
700.061	16.1
700.246	16.35
700.432	16.71
700.617	17.04
700.802	17.18
700.987	17.34
701.172	17.31
701.358	17.47
701.543	17.82
701.728	18.14
701.913	18.06
702.098	17.9
702.283	17.67
702.468	17.7
702.653	17.48
702.838	17.74
703.023	17.56
703.208	17.48
703.393	17.64
703.578	17.56
703.763	17.5
703.948	17.74
704.133	17.74
704.318	17.81
704.503	17.91
704.688	17.98
704.873	17.79
705.057	17.86
705.242	18.05
705.427	18.06
705.612	17.95
705.797	18.05
705.981	18.48
706.166	18.38
706.351	18.16
706.536	17.99
706.72	17.93
706.905	17.99
707.09	18.29
707.274	18.31
707.459	18.15
707.644	18.13
707.828	17.92
708.013	17.63
708.197	17.55
708.382	17.73
708.567	18.13
708.751	17.9
708.936	17.75
709.12	17.72
709.305	17.36
709.489	17.38
709.673	17.44
709.858	17.47
710.042	17.47
710.227	17.47
710.411	17.62
710.596	17.33
710.78	17.45
710.964	17.28
711.149	17.42
711.333	17.65
711.517	17.52
711.702	17.37
711.886	17.45
712.07	17.39
712.254	17.51
712.438	17.29
712.623	17.26
712.807	17.27
712.991	17.58
713.175	17.77
713.359	17.81
713.544	18
713.728	18.09
713.912	18.05
714.096	17.98
714.28	17.88
714.464	18.06
714.648	17.86
714.832	17.74
715.016	17.11
715.2	16.53
715.384	16.53
715.568	16.78
715.752	16.67
715.936	16.65
716.12	16.77
716.304	17.12
716.488	17.02
716.671	17.2
716.855	17.47
717.039	18.29
717.223	18.26
717.407	18.36
717.59	18.14
717.774	18.41
717.958	18.35
718.142	18.2
718.325	18.02
718.509	18.14
718.693	18.1
718.877	17.84
719.06	17.83
719.244	17.84
719.428	17.76
719.611	17.57
719.795	16.95
719.978	17.14
720.162	17.26
720.345	17.23
720.529	17.35
720.713	17.52
720.896	17.77
721.08	17.18
721.263	17.58
721.446	17.77
721.63	18.2
721.813	18.94
721.997	18.96
722.18	19.3
722.364	19.23
722.547	19.18
722.73	18.87
722.914	18.89
723.097	18.99
723.28	18.58
723.464	18.71
723.647	18.47
723.83	18.31
724.013	18.04
724.197	17.81
724.38	17.83
724.563	17.94
724.746	18.61
724.929	18.56
725.112	18.82
725.296	19.32
725.479	18.6
725.662	18.72
725.845	18.75
726.028	18.7
726.211	18.48
726.394	18.46
726.577	18.14
726.76	17.51
726.943	17.77
727.126	17.46
727.309	17.11
727.492	17.42
727.675	16.89
727.858	16.52
728.041	16.52
728.224	16.75
728.407	16.66
728.589	16.92
728.772	17.5
728.955	17.47
729.138	17.94
729.321	18.31
729.503	18.59
729.686	19.16
729.869	19.33
730.052	19.57
730.234	19.65
730.417	19.82
730.6	19.76
730.782	19.4
730.965	19.31
731.148	19.3
731.33	19.35
731.513	19.43
731.695	19.07
731.878	19.32
732.061	19.33
732.243	19.32
732.426	19.49
732.608	19.71
732.791	19.73
732.973	19.47
733.156	19.23
733.338	18.9
733.52	19.1
733.703	19.18
733.885	19.18
734.068	19.28
734.25	19.44
734.432	19.63
734.615	19.29
734.797	19.32
734.979	19.63
735.162	19.85
735.344	19.99
735.526	19.57
735.708	19.96
735.891	20.03
736.073	19.72
736.255	19.35
736.437	18.67
736.619	18.42
736.802	18.43
736.984	18.6
737.166	18.49
737.348	18.39
737.53	18.64
737.712	18.1
737.894	18.36
738.076	18.94
738.258	19.1
738.44	19.56
738.622	19.79
738.804	20.59
738.986	20.7
739.168	20.84
739.35	21.06
739.532	20.74
739.714	21.03
739.896	20.9
740.078	21.06
740.259	20.86
740.441	20.73
740.623	20.81
740.805	20.42
740.987	20.57
741.168	20.21
741.35	20.82
741.532	21.2
741.714	21.53
741.895	20.97
742.077	20.8
742.259	21.2
742.44	20.99
742.622	20.53
742.804	20.4
742.985	19.76
743.167	20.8
743.348	20.05
743.53	19.54
743.711	19.25
743.893	19.66
744.075	19.13
744.256	18.85
744.438	19.77
744.619	20.28
744.8	20.2
744.982	19.87
745.163	18.51
745.345	19
745.526	20.15
745.707	20.81
745.889	20.74
746.07	20.7
746.252	20.93
746.433	20.16
746.614	20.45
746.795	20.2
746.977	21.18
747.158	21.66
747.339	21.23
747.52	20.8
747.702	19.71
747.883	20.09
748.064	20.12
748.245	20.08
748.426	20.43
748.607	20
748.788	20.26
748.97	20.13
749.151	20.04
749.332	19.8
749.513	19.39
749.694	19.98
749.875	19.59
750.056	19.87
750.237	20.18
750.418	19.95
750.599	20.4
750.78	20.63
750.96	20.73
751.141	21.09
751.322	21.32
751.503	21.59
751.684	22.46
751.865	22.23
752.046	22.52
752.226	22.59
752.407	22.29
752.588	22.19
752.769	22.11
752.949	21.92
753.13	22.62
753.311	22.93
753.492	22.73
753.672	21.6
753.853	22.36
754.034	21.97
754.214	22.44
754.395	22.77
754.575	22.87
754.756	22.35
754.937	22.32
755.117	21.61
755.298	21.42
755.478	21.53
755.659	21.73
755.839	21.48
756.02	22.31
756.2	21.48
756.381	21.31
756.561	21.25
756.741	21.44
756.922	21.22
757.102	21.24
757.283	21.04
757.463	20.41
757.643	19.75
757.823	19.62
758.004	18.89
758.184	18.85
758.364	18.74
758.545	19.23
758.725	19.69
758.905	19.91
759.085	20.49
759.265	20.86
759.446	20.93
759.626	22.05
759.806	22.34
759.986	22.69
760.166	22.57
760.346	22.71
760.526	22.24
760.706	21.58
760.886	21.71
761.066	21.47
761.246	21.02
761.426	21.77
761.606	21.01
761.786	20.88
761.966	20.54
762.146	20.48
762.326	20.37
762.506	20.46
762.686	20.69
762.866	20.31
763.046	20.15
763.225	20.1
763.405	19.66
763.585	19.72
763.765	19.27
763.945	19.24
764.124	19.24
764.304	19.32
764.484	19.81
764.664	19.66
764.843	19.6
765.023	19.78
765.203	19.77
765.382	20.06
765.562	20.8
765.741	20.96
765.921	20.88
766.101	20.77
766.28	20.49
766.46	19.68
766.639	20.51
766.819	20.62
766.998	20.12
767.178	20.76
767.357	20.92
767.537	20.65
767.716	20.68
767.896	20.99
768.075	21.49
768.254	21.64
768.434	21.4
768.613	21.03
768.792	21.38
768.972	21.66
769.151	21.68
769.33	21.72
769.51	22.03
769.689	22.17
769.868	22.48
770.047	23.01
770.226	23.72
770.406	24.24
770.585	23.91
770.764	24.06
770.943	24.38
771.122	24.31
771.301	23.74
771.48	23.35
771.66	23.74
771.839	23.61
772.018	23.33
772.197	22.89
772.376	22.82
772.555	23.26
772.734	23.13
772.913	22.99
773.092	23.03
773.271	22.83
773.449	22.68
773.628	22.62
773.807	22.63
773.986	22.43
774.165	22.92
774.344	23.12
774.523	23.08
774.701	22.92
774.88	23.26
775.059	23.37
775.238	24.52
775.417	24.44
775.595	24.54
775.774	24.42
775.953	23.45
776.131	23.89
776.31	23.57
776.489	22.91
776.667	23.05
776.846	23.07
777.025	22.61
777.203	21.61
777.382	22.39
777.56	22.62
777.739	22.73
777.917	23.55
778.096	22.32
778.274	21.57
778.453	21.98
778.631	22.45
778.81	21.75
778.988	22.12
779.166	22.65
779.345	22.72
779.523	21.53
779.702	21.51
779.88	21.71
780.058	22.33
780.237	23.23
780.415	23.13
780.593	23.13
780.771	23.56
780.95	24.18
781.128	23.57
781.306	22.83
781.484	23.76
781.662	23.77
781.841	23.49
782.019	22.91
782.197	22.5
782.375	22.37
782.553	22.1
782.731	21.46
782.909	20.82
783.087	22.03
783.265	21.69
783.443	21.68
783.621	21.94
783.799	22.04
783.977	21.83
784.155	22.18
784.333	22.87
784.511	22.42
784.689	22.64
784.867	22.74
785.045	22.22
785.223	23.18
785.4	22.87
785.578	22.04
785.756	22.47
785.934	23.44
786.112	22.8
786.289	22.08
786.467	22.01
786.645	22.63
786.823	22.89
787	22.37
787.178	21.73
787.356	21.92
787.533	22.64
787.711	22.07
787.889	22.15
788.066	23.43
788.244	23.81
788.421	24.45
788.599	23.65
788.776	23.63
788.954	23.86
789.131	23.97
789.309	24.82
789.486	24.69
789.664	23.95
789.841	23.61
790.019	22.42
790.196	21.58
790.373	21.41
790.551	22.59
790.728	21.59
790.906	21.88
791.083	22.08
791.26	22.03
791.437	22
791.615	23.67
791.792	23.62
791.969	24.18
792.146	25.53
792.324	24.54
792.501	23.86
792.678	24.99
792.855	25.01
793.032	24.49
793.209	23.48
793.387	24.34
793.564	24
793.741	23.95
793.918	23.85
794.095	23.85
794.272	24.83
794.449	24.86
794.626	24.73
794.803	24.73
794.98	25.19
795.157	25.13
795.334	24.29
795.511	25.37
795.688	26.13
795.864	26.21
796.041	26.3
796.218	26.2
796.395	25.9
796.572	25.5
796.749	25.82
796.925	25.83
797.102	26.41
797.279	26.16
797.456	24.66
797.632	24.18
797.809	24.92
797.986	24.37
798.162	23.73
798.339	23.78
798.516	24.41
798.692	23.35
798.869	22.77
799.046	23.57
799.222	24.2
799.399	25.5
799.575	25.42
799.752	24.2
799.928	24.74
800.105	25.45
800.281	26.19
800.458	25.17
800.634	25.86
800.811	26.52
800.987	25.65
801.163	24.7
801.34	23.21
801.516	23.57
801.692	26.26
801.869	25.71
802.045	24.26
802.221	23.18
802.398	23.89
802.574	23.96
802.75	24.23
802.926	24.34
803.103	25.14
803.279	24.68
803.455	23.57
803.631	21.88
803.807	21.64
803.983	24.45
804.16	24
804.336	24.24
804.512	24.68
804.688	24.17
804.864	23.65
805.04	23.74
805.216	24.61
805.392	25.17
805.568	24.58
805.744	24.55
805.92	23.75
806.096	25.13
806.272	24.95
806.448	25.37
806.623	26.16
806.799	27.87
806.975	27.75
807.151	27.73
807.327	27.47
807.503	27.14
807.678	27.64
807.854	26.92
808.03	26.6
808.206	26.17
808.381	24.82
808.557	25.36
808.733	23.62
808.908	23.26
809.084	22.81
809.26	23.03
809.435	23.38
809.611	22.58
809.787	22.6
809.962	22.49
810.138	21.78
810.313	22.54
810.489	21.94
810.664	21.69
810.84	21.33
811.015	23.32
811.191	25.14
811.366	26.16
811.542	25.56
811.717	25.79
811.892	26.14
812.068	27.02
812.243	26.48
812.419	25.8
812.594	26.34
812.769	26.98
812.944	26.87
813.12	24.38
813.295	24.73
813.47	25.78
813.645	25.56
813.821	24.81
813.996	25.54
814.171	26.26
814.346	26.57
814.521	26.65
814.697	26.31
814.872	25.05
815.047	24.95
815.222	24.45
815.397	24.44
815.572	24.04
815.747	24.75
815.922	24.78
816.097	24.1
816.272	24.21
816.447	24.32
816.622	25.35
816.797	25.66
816.972	25.86
817.147	25.59
817.322	25.3
817.496	26.74
817.671	26.96
817.846	25.56
818.021	26.35
818.196	25.66
818.371	25.47
818.545	24.72
818.72	23.25
818.895	24.51
819.069	23.53
819.244	23.76
819.419	23.68
819.594	22.55
819.768	22.63
819.943	21.83
820.117	21.89
820.292	22.17
820.467	22.1
820.641	22.37
820.816	21.88
820.99	21.93
821.165	21.84
821.339	21.57
821.514	21.54
821.688	21.69
821.863	21.79
822.037	21.82
822.212	21.43
822.386	21.22
822.56	21.3
822.735	21.27
822.909	21.2
823.084	21.53
823.258	21.58
823.432	21.87
823.606	21.93
823.781	21.9
823.955	21.83
824.129	22.21
824.303	22.49
824.478	22.41
824.652	22.34
824.826	22.59
825	22.11
825.174	22.13
825.348	21.8
825.523	21.33
825.697	21.55
825.871	21.51
826.045	21.34
826.219	21.25
826.393	21.66
826.567	22.49
826.741	22.48
826.915	22.35
827.089	22.7
827.263	23.18
827.437	23.58
827.611	23.42
827.784	23.62
827.958	23.51
828.132	23.63
828.306	23.47
828.48	23.27
828.654	24.06
828.827	24.29
829.001	23.95
829.175	23.81
829.349	23.97
829.522	24.19
829.696	23.84
829.87	24.27
830.044	24.72
830.217	25.61
830.391	24.64
830.565	23.38
830.738	23.14
830.912	22.58
831.085	22.37
831.259	23.52
831.432	24.07
831.606	24.29
831.779	24.22
831.953	23.99
832.126	22.33
832.3	22.8
832.473	23.05
832.647	23.85
832.82	23.54
832.994	23.56
833.167	23.02
833.34	22.89
833.514	23.84
833.687	23.78
833.86	24.15
834.034	24.96
834.207	25.18
834.38	24.99
834.553	24.7
834.727	24.65
834.9	24.51
835.073	24.48
835.246	24.01
835.419	23.39
835.593	23.84
835.766	23.34
835.939	23.31
836.112	22.96
836.285	23.44
836.458	23.63
836.631	24.29
836.804	25.26
836.977	25.73
837.15	26.63
837.323	27.1
837.496	26.07
837.669	26.09
837.842	24.73
838.015	26.6
838.188	26.52
838.361	27.19
838.533	28.17
838.706	27.67
838.879	27.81
839.052	27.99
839.225	26.25
839.398	28.1
839.57	30.11
839.743	31.55
839.916	29.5
840.088	30.63
840.261	31.23
840.434	31.51
840.607	30.3
840.779	27.76
840.952	28.1
841.124	30.39
841.297	29.1
841.47	27.42
841.642	26.85
841.815	28
841.987	26.59
842.16	23.9
842.332	24.94
842.505	27.8
842.677	31.01
842.85	29.95
843.022	29.32
843.194	28.63
843.367	29.77
843.539	29.56
843.712	30.49
843.884	28.6
844.056	32.34
844.229	32.88
844.401	31.83
844.573	29.68
844.745	29.56
844.918	29.69
845.09	29.26
845.262	26.52
845.434	25.9
845.606	22.6
845.779	26.98
845.951	24.83
846.123	23.22
846.295	21.69
846.467	24.32
846.639	25.75
846.811	25.32
846.983	25.47
847.155	27.44
847.327	27.27
847.499	28.66
847.671	31.34
847.843	30.29
848.015	29.53
848.187	29.31
848.359	28.38
848.531	26
848.703	24.25
848.875	27.33
849.047	28.6
849.218	34.52
849.39	36.74
849.562	30.63
849.734	30.93
849.905	29.42
850.077	34.67
850.249	33.42
850.421	34.9
850.592	34.16
850.764	34.37
850.936	34.81
851.107	32.46
851.279	32.68
851.451	35.04
851.622	39.68
851.794	40.38
851.965	35.91
852.137	33.54
852.308	32.37
852.48	35.44
852.651	38.37
852.823	35.56
852.994	35
853.166	33.81
853.337	32.98
853.509	32.31
853.68	33.15
853.851	34.12
854.023	37.63
854.194	41.09
854.365	40.29
854.537	34.5
854.708	38.83
854.879	38.33
855.05	37.02
855.222	33.14
855.393	31.14
855.564	30.99
855.735	28.43
855.906	28.87
856.078	24.23
856.249	25.24
856.42	24.48
856.591	22.5
856.762	22.35
856.933	20.46
857.104	23.63
857.275	25.58
857.446	25.44
857.617	28.19
857.788	27.57
857.959	29.67
858.13	31.76
858.301	35.13
858.472	31.64
858.643	35.41
858.814	40.39
858.985	42.48
859.155	40.75
859.326	42.68
859.497	39.68
859.668	37.83
859.839	38.53
860.009	32.52
860.18	29.66
860.351	32.53
860.522	29.35
860.692	22.87
860.863	21.36
861.034	20.37
861.204	19
861.375	23.97
861.546	24.76
861.716	23.86
861.887	28.92
862.057	29.02
862.228	22.2
862.398	19.08
862.569	21.22
862.739	26.09
862.91	22.81
863.08	23.44
863.251	21.71
863.421	22.21
863.592	25.1
863.762	25.62
863.932	29.82
864.103	35.59
864.273	38.49
864.443	39.68
864.614	34.4
864.784	37.69
864.954	39.1
865.125	35.5
865.295	35.84
865.465	35.89
865.635	31.78
865.805	30.09
865.976	31.52
866.146	32.28
866.316	34.9
866.486	35.91
866.656	33.87
866.826	33.44
866.996	39.12
867.166	36.95
867.336	37.04
867.506	38.27
867.676	38.08
867.846	37.57
868.016	35.41
868.186	31.84
868.356	28.47
868.526	30.91
868.696	30.46
868.866	30.57
869.036	31.08
869.206	26.53
869.376	25.82
869.545	23.24
869.715	23.48
869.885	22.04
870.055	25.11
870.224	31.3
870.394	30.94
870.564	28.05
870.734	24.56
870.903	23.62
871.073	24.18
871.243	27.76
871.412	31.05
871.582	31.26
871.751	31.88
871.921	31.82
872.091	31.21
872.26	33.33
872.43	35.05
872.599	36.4
872.769	36.59
872.938	35.6
873.108	33.3
873.277	35.36
873.446	33.27
873.616	34.14
873.785	32.45
873.955	31.71
874.124	31.67
874.293	35.83
874.463	32.91
874.632	33.78
874.801	37.06
874.971	39.87
875.14	38.12
875.309	40.6
875.478	42.8
875.647	45.62
875.817	46.83
875.986	42.74
876.155	41.42
876.324	42.31
876.493	45.77
876.662	45.79
876.831	42.65
877	40.32
877.17	36.49
877.339	31.91
877.508	26.82
877.677	28.07
877.846	29.8
878.015	27.5
878.184	26.9
878.352	22.78
878.521	20.2
878.69	21.81
878.859	22.59
879.028	25.34
879.197	27.94
879.366	30.76
879.534	28.06
879.703	26.03
879.872	24.42
880.041	24.07
880.21	23.14
880.378	26.11
880.547	24.52
880.716	24.44
880.884	24.26
881.053	23.3
881.222	22.93
881.39	22.78
881.559	23.65
881.727	23.94
881.896	23.85
882.065	24.48
882.233	24.23
882.402	24.28
882.57	23.72
882.739	24.05
882.907	24.63
883.076	24.99
883.244	24.31
883.412	23.97
883.581	24.51
883.749	24.26
883.918	24.21
884.086	24.15
884.254	25.34
884.423	27.23
884.591	26.2
884.759	26.35
884.927	24.54
885.096	26.1
885.264	27.16
885.432	28.08
885.6	27.53
885.769	27.96
885.937	26.33
886.105	23.74
886.273	23.64
886.441	22.92
886.609	22.21
886.777	24.06
886.945	24.47
887.113	23.15
887.281	18.91
887.449	22.32
887.617	21.57
887.785	24.44
887.953	29.5
888.121	28.35
888.289	32.11
888.457	31.71
888.625	33.08
888.793	31.87
888.961	31.47
889.129	40.2
889.296	41.24
889.464	44.18
889.632	44.09
889.8	41.13
889.967	39.55
890.135	36.93
