Data from 2938477_Reflection_3.txt Node
Date: Wed Jun 17 01:25:24 EDT 2015
User: robert
Spectrometer: USB4E03002
Autoset integration time: false
Trigger mode: 4
Integration Time (sec): 1.000000E-1
Scans to average: 10
Electric dark correction enabled: true
Nonlinearity correction enabled: false
Boxcar width: 5
Stray light correction enabled: false
XAxis mode: Wavelengths
Stop averaging: false
Number of Pixels in Spectrum: 3648
>>>>>Begin Spectral Data<<<<<
177.575	-84.45
177.794	-124.09
178.014	-116.91
178.233	-114.85
178.452	-57.7
178.672	8.98
178.891	79.83
179.11	-141.97
179.33	-139.34
179.549	-109.07
179.768	-32.66
179.987	-61.05
180.207	-74.54
180.426	-36.8
180.645	-15.1
180.864	-0.46
181.084	42.78
181.303	72.17
181.522	69.16
181.741	67.62
181.96	73.09
182.179	78.12
182.398	112.28
182.618	120.27
182.837	1752.63
183.056	-31716.67
183.275	-109.33
183.494	16.6
183.713	50.79
183.932	50.53
184.151	57.14
184.37	85.33
184.589	66.51
184.808	81.68
185.027	75.78
185.246	64.85
185.465	62.93
185.684	179.45
185.903	397.18
186.122	9.28
186.341	-59.72
186.56	143.39
186.779	7637.88
186.998	450.41
187.216	609.12
187.435	582.67
187.654	216.97
187.873	396.79
188.092	339.39
188.311	1608.51
188.53	233.3
188.748	742.4
188.967	1155.54
189.186	-396.94
189.405	-310.16
189.623	-84.24
189.842	-120.5
190.061	-58.76
190.28	-105
190.498	-177.49
190.717	623.52
190.936	-124.92
191.154	-168.2
191.373	-325.51
191.592	2515.29
191.81	3204.35
192.029	210.76
192.248	-591.12
192.466	-289.34
192.685	-0.95
192.904	7.5
193.122	23.99
193.341	44.35
193.559	89.82
193.778	40.49
193.996	37.31
194.215	13.69
194.433	4.38
194.652	19.83
194.87	21.55
195.089	37.39
195.307	18.41
195.526	14.32
195.744	-1.72
195.963	0.41
196.181	27.69
196.399	19.02
196.618	33.64
196.836	31.21
197.055	-22.26
197.273	-133.19
197.491	-317.44
197.71	-73.95
197.928	-171.32
198.146	-200.81
198.365	-6697.37
198.583	-1102.37
198.801	1887.98
199.019	-794.3
199.238	-420.98
199.456	-95.55
199.674	-52.48
199.892	-35.24
200.111	-94.15
200.329	-352.2
200.547	-264.84
200.765	-348.83
200.983	-126.17
201.202	-286.66
201.42	-557.95
201.638	-639.2
201.856	-233.97
202.074	-379.26
202.292	-258.81
202.51	-77.07
202.728	-20.74
202.946	-28.56
203.165	6.22
203.383	-62.78
203.601	-134.3
203.819	-110.2
204.037	-282.13
204.255	-369.96
204.473	-2980.41
204.691	615.05
204.909	184.92
205.127	158.77
205.345	141.21
205.562	148.38
205.78	152.94
205.998	179.65
206.216	273.56
206.434	192.18
206.652	106.24
206.87	132.24
207.088	117.57
207.306	183.53
207.523	186.11
207.741	219.48
207.959	397.66
208.177	483.97
208.395	729.26
208.612	659.02
208.83	12013.21
209.048	-591.06
209.266	-383.96
209.483	-186.57
209.701	-193.7
209.919	-158.06
210.136	-142.59
210.354	2726.23
210.572	-648.69
210.79	367.61
211.007	339.65
211.225	460.9
211.442	362.71
211.66	322.44
211.878	413.4
212.095	1892.56
212.313	-571.3
212.53	-844.19
212.748	-459.51
212.966	-830.13
213.183	-1246.12
213.401	-3449.83
213.618	-1502.05
213.836	-747.99
214.053	-919.11
214.271	-1931.34
214.488	-382.71
214.705	-390.26
214.923	-232.73
215.14	-249.72
215.358	-222.42
215.575	-188.21
215.793	-56.27
216.01	-80.59
216.227	-240.34
216.445	-291.66
216.662	-94.33
216.879	-108.16
217.097	-92.96
217.314	-26.61
217.531	-13.38
217.749	2.97
217.966	14.09
218.183	-7.52
218.4	-6.31
218.618	-8.91
218.835	18.91
219.052	-17.17
219.269	-16.51
219.487	-24.28
219.704	-24.83
219.921	-24.05
220.138	-33.68
220.355	-32.21
220.572	-37.13
220.79	-42.95
221.007	-26.94
221.224	-10.95
221.441	-9.77
221.658	-0.13
221.875	-8.6
222.092	-20.52
222.309	-18.33
222.526	5.29
222.743	15.73
222.96	15.83
223.177	17.82
223.394	11.95
223.611	6.26
223.828	8.14
224.045	7.08
224.262	11.06
224.479	12.37
224.696	11.86
224.913	5.42
225.13	5.46
225.347	5.45
225.564	3.72
225.781	7.15
225.997	7.24
226.214	6.56
226.431	6.02
226.648	5.03
226.865	6.09
227.082	5.07
227.298	5.6
227.515	4
227.732	3.78
227.949	4.5
228.165	2.96
228.382	2.15
228.599	2.45
228.816	2.76
229.032	2.98
229.249	1.86
229.466	3.52
229.682	3.14
229.899	4.09
230.116	5.9
230.332	6.79
230.549	7.03
230.765	10.18
230.982	11.55
231.199	11.32
231.415	13.89
231.632	13.76
231.848	11.52
232.065	10.57
232.281	9.94
232.498	8.41
232.714	7.51
232.931	7.02
233.147	4.16
233.364	3.57
233.58	4.08
233.797	2.88
234.013	1.5
234.23	1.62
234.446	4.38
234.662	5.22
234.879	6.11
235.095	4.04
235.312	5.82
235.528	10.32
235.744	8.89
235.961	9.12
236.177	9.82
236.393	12.47
236.61	13.13
236.826	10.93
237.042	10.57
237.258	9.89
237.475	12.34
237.691	13.25
237.907	9.84
238.123	8.93
238.339	7.89
238.556	6.33
238.772	6.42
238.988	5.94
239.204	7.47
239.42	7.68
239.636	7.3
239.853	6.74
240.069	5.97
240.285	6.13
240.501	6.27
240.717	6.83
240.933	6.28
241.149	6.56
241.365	6.78
241.581	7.07
241.797	6.67
242.013	7.05
242.229	7
242.445	7.16
242.661	7.42
242.877	8.52
243.093	8.31
243.309	8.96
243.525	9.03
243.741	9.28
243.957	8.08
244.173	8.57
244.388	8.24
244.604	7.79
244.82	8.15
245.036	7.69
245.252	7.25
245.468	7.17
245.683	6.75
245.899	6.48
246.115	6.13
246.331	6.25
246.547	6.2
246.762	6.25
246.978	6.77
247.194	6.39
247.409	6.48
247.625	6.17
247.841	6.59
248.057	6.87
248.272	6.95
248.488	6.28
248.703	6.02
248.919	6.62
249.135	6.85
249.35	6.17
249.566	6.11
249.782	7.09
249.997	6.85
250.213	5.91
250.428	6.22
250.644	5.64
250.859	6.23
251.075	6.23
251.29	5.26
251.506	4.56
251.721	5.03
251.937	4.7
252.152	4.02
252.368	4.73
252.583	4.75
252.798	4.74
253.014	6.41
253.229	6.95
253.445	6.79
253.66	6.4
253.875	8.02
254.091	7.27
254.306	7.45
254.521	7.48
254.737	6.4
254.952	7.07
255.167	6.2
255.383	5.2
255.598	5.81
255.813	5.81
256.028	5.81
256.244	4.45
256.459	4.42
256.674	5
256.889	4.35
257.104	4.89
257.32	4.81
257.535	5.02
257.75	4.96
257.965	4.33
258.18	4.63
258.395	4.59
258.61	4.86
258.826	4.8
259.041	4.55
259.256	4.85
259.471	4.79
259.686	4.46
259.901	4.5
260.116	4.18
260.331	4.77
260.546	4.45
260.761	4.7
260.976	4.77
261.191	4.75
261.406	5.02
261.621	5.02
261.836	4.63
262.05	4.32
262.265	4.87
262.48	5.18
262.695	4.28
262.91	4.02
263.125	3.3
263.34	3.18
263.555	2.82
263.769	2.37
263.984	2.37
264.199	2.67
264.414	3.53
264.629	3.34
264.843	3.95
265.058	4.33
265.273	4.34
265.488	4.25
265.702	3.82
265.917	3.97
266.132	3.96
266.346	4.54
266.561	4.81
266.776	4.59
266.99	4.66
267.205	4.31
267.42	3.96
267.634	4.19
267.849	4.42
268.063	4.59
268.278	4.51
268.492	4.4
268.707	3.35
268.922	2.77
269.136	2.79
269.351	2.56
269.565	3.13
269.78	3.56
269.994	3.3
270.209	3.73
270.423	4
270.637	4.34
270.852	4.18
271.066	4.67
271.281	5.08
271.495	5.34
271.709	5.24
271.924	4.56
272.138	4.75
272.353	4.65
272.567	4.3
272.781	4.04
272.996	3.94
273.21	4.43
273.424	3.67
273.638	3.81
273.853	3.39
274.067	3.35
274.281	3.51
274.495	2.94
274.71	3.39
274.924	3.37
275.138	3.73
275.352	3.8
275.566	3.3
275.781	3.63
275.995	3.26
276.209	3.11
276.423	3.04
276.637	3.13
276.851	3.48
277.065	3.28
277.279	3.09
277.493	2.79
277.707	2.82
277.921	2.95
278.135	3.32
278.349	3.53
278.563	4.01
278.777	3.66
278.991	3.7
279.205	2.97
279.419	2.95
279.633	3.74
279.847	3.46
280.061	3.48
280.275	4.18
280.489	3.76
280.703	3.6
280.917	3.52
281.131	3.68
281.344	3.34
281.558	3.8
281.772	3.92
281.986	3.68
282.2	3.88
282.414	3.87
282.627	3.42
282.841	4.11
283.055	3.87
283.269	4.15
283.482	4.63
283.696	4.75
283.91	4.56
284.123	4.58
284.337	4.29
284.551	4
284.764	3.98
284.978	4.04
285.192	3.64
285.405	3.52
285.619	2.99
285.833	2.56
286.046	2.71
286.26	2.97
286.473	2.79
286.687	2.88
286.9	3.31
287.114	3.48
287.327	3.31
287.541	3.67
287.754	3.96
287.968	4.15
288.181	4.36
288.395	4.53
288.608	4.71
288.822	4.89
289.035	4.82
289.248	4.8
289.462	4.56
289.675	4.58
289.889	4.31
290.102	4.18
290.315	4.69
290.529	4.05
290.742	3.67
290.955	3.45
291.169	3.4
291.382	3.57
291.595	3.86
291.808	3.88
292.022	4.07
292.235	4.03
292.448	4.94
292.661	4.39
292.875	5.03
293.088	5.43
293.301	5.43
293.514	5.34
293.727	5.57
293.94	5.51
294.153	5.38
294.367	5.47
294.58	5.58
294.793	4.9
295.006	4.73
295.219	4.83
295.432	4.75
295.645	4.99
295.858	4.75
296.071	4.4
296.284	3.88
296.497	3.94
296.71	3.68
296.923	3.63
297.136	3.6
297.349	3.72
297.562	3.63
297.775	3.25
297.988	2.96
298.201	2.91
298.414	3.38
298.626	4.32
298.839	4.2
299.052	4.51
299.265	4.81
299.478	5.23
299.691	5.47
299.903	5.05
300.116	5.12
300.329	5.31
300.542	5.56
300.755	5.17
300.967	4.87
301.18	5.28
301.393	5.12
301.605	4.61
301.818	4.34
302.031	4.14
302.243	4.13
302.456	4.66
302.669	4.4
302.881	4.51
303.094	5.22
303.307	5.08
303.519	5.22
303.732	5.1
303.944	5.32
304.157	5.39
304.37	5.53
304.582	6.1
304.795	5.97
305.007	6.05
305.22	6.06
305.432	5.31
305.645	5.6
305.857	5.23
306.069	5.53
306.282	5.87
306.494	6.13
306.707	6.22
306.919	5.73
307.132	5.63
307.344	5.28
307.556	4.98
307.769	4.83
307.981	4.59
308.193	4.56
308.406	4.61
308.618	4.38
308.83	3.97
309.043	3.74
309.255	4.1
309.467	3.99
309.679	4.38
309.892	4.64
310.104	4.75
310.316	4.5
310.528	4.49
310.74	4.57
310.953	4.27
311.165	4.42
311.377	4.52
311.589	4.42
311.801	4.64
312.013	4.35
312.225	4.36
312.437	4.21
312.649	3.91
312.862	4.15
313.074	3.74
313.286	4.1
313.498	3.94
313.71	3.94
313.922	4.2
314.134	3.68
314.346	4
314.558	4.04
314.77	4.91
314.982	5.13
315.193	5.23
315.405	5.19
315.617	5.28
315.829	5.49
316.041	5.14
316.253	5.1
316.465	5.17
316.677	5.1
316.888	5.63
317.1	5.01
317.312	5.31
317.524	5.09
317.736	5.12
317.947	5.19
318.159	5.57
318.371	5.84
318.583	6.06
318.794	6.09
319.006	6.38
319.218	5.6
319.43	5.81
319.641	5.97
319.853	6.13
320.064	6.46
320.276	6.58
320.488	6.12
320.699	6
320.911	5.73
321.123	6
321.334	5.75
321.546	5.38
321.757	4.62
321.969	4.47
322.18	3.87
322.392	3.86
322.603	3.11
322.815	3.12
323.026	3.28
323.238	3.94
323.449	4.3
323.661	4.12
323.872	4.61
324.083	4.88
324.295	5.18
324.506	5.28
324.718	4.78
324.929	5.27
325.14	5.08
325.352	5
325.563	3.99
325.774	3.81
325.986	3.88
326.197	3.76
326.408	3.65
326.62	3.28
326.831	3.28
327.042	3.86
327.253	3.57
327.464	4.11
327.676	4.43
327.887	4.6
328.098	4.43
328.309	4.4
328.52	4.8
328.732	5.12
328.943	5.11
329.154	5.22
329.365	4.47
329.576	5
329.787	4.77
329.998	4.89
330.209	5.21
330.42	5.44
330.631	5.11
330.842	4.71
331.053	4.97
331.264	4.86
331.475	4.81
331.686	5.35
331.897	4.61
332.108	4.86
332.319	4.65
332.53	4.66
332.741	4.16
332.952	4.42
333.163	4.38
333.374	4.18
333.585	4.2
333.795	4.6
334.006	4.32
334.217	4.67
334.428	4.39
334.639	4.34
334.849	4.03
335.06	4.5
335.271	4.57
335.482	4.61
335.692	4.48
335.903	4.74
336.114	4.64
336.325	4.95
336.535	5.08
336.746	4.97
336.957	5.01
337.167	5.34
337.378	5.37
337.589	5.5
337.799	5.65
338.01	5.55
338.22	5.47
338.431	5.74
338.642	5.37
338.852	5.33
339.063	5.84
339.273	6.03
339.484	6.1
339.694	5.66
339.905	5.42
340.115	5.49
340.326	5.68
340.536	5.52
340.746	5.12
340.957	5.07
341.167	5.02
341.378	4.59
341.588	3.99
341.799	3.73
342.009	3.74
342.219	3.74
342.43	3.79
342.64	3.3
342.85	3.21
343.061	3.24
343.271	3.65
343.481	3.6
343.691	3.47
343.902	3.82
344.112	3.74
344.322	3.68
344.532	3.4
344.743	3.31
344.953	3.59
345.163	3.67
345.373	3.8
345.583	3.36
345.793	3.38
346.004	3.68
346.214	3.64
346.424	3.52
346.634	3.27
346.844	3.63
347.054	3.76
347.264	3.63
347.474	3.42
347.684	3.31
347.894	3.64
348.104	3.77
348.314	3.42
348.524	3.03
348.734	2.92
348.944	3.39
349.154	3.31
349.364	3.14
349.574	3.39
349.784	3.78
349.994	3.7
350.204	4.02
350.413	3.88
350.623	4.25
350.833	4.76
351.043	4.8
351.253	4.66
351.463	4.93
351.672	4.76
351.882	4.75
352.092	4.74
352.302	4.77
352.511	4.46
352.721	4.49
352.931	4.49
353.141	4.19
353.35	4.47
353.56	4.32
353.77	4.42
353.979	4.71
354.189	5.01
354.399	5.05
354.608	4.77
354.818	4.75
355.027	4.54
355.237	4.4
355.447	4.48
355.656	4.36
355.866	4.47
356.075	4.2
356.285	3.92
356.494	3.63
356.704	3.54
356.913	3.91
357.123	3.88
357.332	3.94
357.542	4.29
357.751	4.2
357.96	4.06
358.17	4.14
358.379	4.01
358.589	4.11
358.798	4.21
359.007	3.91
359.217	3.59
359.426	3.4
359.635	3.65
359.845	3.15
360.054	3.28
360.263	3.22
360.472	3.22
360.682	3.28
360.891	3.23
361.1	3.27
361.309	3.54
361.519	4.02
361.728	4.12
361.937	3.96
362.146	4.42
362.355	4.47
362.564	4.69
362.774	4.63
362.983	4.79
363.192	4.73
363.401	4.69
363.61	4.59
363.819	4.1
364.028	4.1
364.237	4.16
364.446	3.62
364.655	3.49
364.864	3.57
365.073	3.66
365.282	3.73
365.491	3.99
365.7	3.76
365.909	3.91
366.118	4.13
366.327	4.17
366.536	3.86
366.745	4.2
366.954	4.09
367.162	3.78
367.371	3.76
367.58	3.59
367.789	3.56
367.998	3.73
368.207	3.61
368.415	3.45
368.624	3.33
368.833	3.69
369.042	3.51
369.25	3.52
369.459	3.79
369.668	3.69
369.877	3.7
370.085	3.69
370.294	3.62
370.503	3.29
370.711	3.41
370.92	3.47
371.129	3.49
371.337	3.7
371.546	3.97
371.754	3.99
371.963	4.08
372.171	3.92
372.38	3.48
372.589	3.43
372.797	3.82
373.006	3.75
373.214	3.67
373.423	3.45
373.631	3.46
373.84	3.21
374.048	3
374.256	3.12
374.465	3.26
374.673	3.63
374.882	3.53
375.09	3.29
375.298	3.44
375.507	3.4
375.715	3.23
375.923	3.07
376.132	3.28
376.34	3.37
376.548	3.29
376.757	3.2
376.965	3.27
377.173	3.51
377.381	3.68
377.59	3.52
377.798	3.56
378.006	3.71
378.214	3.64
378.423	3.52
378.631	3.38
378.839	3.4
379.047	3.49
379.255	3.22
379.463	2.93
379.671	3.06
379.879	3.18
380.088	3.32
380.296	3.4
380.504	3.45
380.712	3.17
380.92	3.27
381.128	2.98
381.336	3.15
381.544	2.94
381.752	3.3
381.96	3.09
382.168	3.12
382.376	3.15
382.584	3.18
382.791	3.43
382.999	3.81
383.207	3.95
383.415	4.01
383.623	3.85
383.831	4.33
384.039	4.2
384.247	4.26
384.454	4.13
384.662	4.02
384.87	3.92
385.078	3.94
385.285	3.79
385.493	3.41
385.701	3.26
385.909	3.17
386.116	2.91
386.324	2.88
386.532	2.81
386.739	2.68
386.947	2.78
387.155	2.6
387.362	2.41
387.57	2.29
387.778	2.43
387.985	2.64
388.193	2.69
388.4	2.67
388.608	2.54
388.816	2.44
389.023	2.6
389.231	2.64
389.438	2.85
389.646	2.81
389.853	2.9
390.061	2.8
390.268	2.85
390.475	2.88
390.683	2.84
390.89	2.92
391.098	3.17
391.305	3.18
391.512	3.1
391.72	3.25
391.927	3.35
392.135	3.31
392.342	3.44
392.549	3.43
392.756	3.41
392.964	3.45
393.171	3.4
393.378	3.24
393.586	3.05
393.793	3.01
394	2.74
394.207	2.68
394.414	2.81
394.622	2.88
394.829	2.77
395.036	2.67
395.243	2.85
395.45	3.04
395.657	3.04
395.864	3
396.072	2.96
396.279	3.22
396.486	3.15
396.693	3.03
396.9	2.83
397.107	2.96
397.314	2.77
397.521	2.57
397.728	2.46
397.935	2.49
398.142	2.61
398.349	2.52
398.556	2.34
398.763	2.3
398.97	2.35
399.177	2.51
399.383	2.44
399.59	2.56
399.797	2.68
400.004	2.58
400.211	2.66
400.418	2.64
400.625	2.66
400.831	2.63
401.038	2.82
401.245	2.72
401.452	2.57
401.658	2.57
401.865	2.82
402.072	2.74
402.279	2.81
402.485	2.79
402.692	2.76
402.899	2.86
403.105	2.87
403.312	2.76
403.519	2.94
403.725	2.96
403.932	3.09
404.138	2.95
404.345	3.12
404.552	2.99
404.758	2.95
404.965	3.05
405.171	3.05
405.378	3.07
405.584	2.86
405.791	2.82
405.997	2.98
406.204	2.84
406.41	2.78
406.617	2.47
406.823	2.5
407.029	2.52
407.236	2.32
407.442	2.17
407.649	2.27
407.855	2.28
408.061	2.27
408.268	2.04
408.474	2.08
408.68	2.03
408.887	2.16
409.093	2.24
409.299	2.13
409.505	2.26
409.712	2.23
409.918	2.11
410.124	2.08
410.33	1.97
410.537	2.08
410.743	1.9
410.949	1.91
411.155	1.74
411.361	1.69
411.567	1.5
411.773	1.61
411.98	1.73
412.186	1.59
412.392	1.82
412.598	1.72
412.804	1.72
413.01	1.89
413.216	2.04
413.422	2.3
413.628	2.37
413.834	2.55
414.04	2.35
414.246	2.33
414.452	2.49
414.658	2.4
414.864	2.55
415.07	2.54
415.275	2.41
415.481	2.22
415.687	2.04
415.893	2.04
416.099	2.01
416.305	1.99
416.511	2.07
416.716	2.03
416.922	2.11
417.128	2.2
417.334	2.29
417.539	2.35
417.745	2.4
417.951	2.48
418.157	2.54
418.362	2.57
418.568	2.52
418.774	2.53
418.979	2.5
419.185	2.49
419.391	2.33
419.596	2.24
419.802	2.29
420.008	2.39
420.213	3.11
420.419	3
420.624	2.9
420.83	2.9
421.035	2.87
421.241	2.87
421.446	2.86
421.652	2.83
421.857	2.84
422.063	2.83
422.268	2.75
422.474	1.98
422.679	1.95
422.885	2.12
423.09	2.15
423.295	2.13
423.501	2.14
423.706	2.1
423.911	2.11
424.117	2.14
424.322	2.12
424.527	2.08
424.733	2.12
424.938	2.12
425.143	2.06
425.349	2.03
425.554	1.93
425.759	1.96
425.964	2.02
426.169	2.02
426.375	1.94
426.58	1.88
426.785	1.99
426.99	1.89
427.195	1.88
427.4	1.86
427.605	1.96
427.811	2.08
428.016	1.89
428.221	1.76
428.426	1.78
428.631	1.84
428.836	1.89
429.041	1.79
429.246	1.88
429.451	1.91
429.656	1.83
429.861	1.85
430.066	1.81
430.271	1.99
430.476	2.02
430.681	2.08
430.886	1.98
431.09	1.9
431.295	1.84
431.5	1.83
431.705	1.87
431.91	1.92
432.115	1.91
432.32	1.92
432.524	1.93
432.729	1.9
432.934	1.8
433.139	1.83
433.343	1.86
433.548	1.93
433.753	1.93
433.958	1.91
434.162	1.93
434.367	1.83
434.572	1.87
434.776	1.88
434.981	1.92
435.186	1.99
435.39	2
435.595	2.04
435.799	2.09
436.004	2.13
436.209	2.14
436.413	2.08
436.618	2.19
436.822	2.16
437.027	2.09
437.231	2.04
437.436	1.96
437.64	1.86
437.845	1.73
438.049	1.71
438.253	1.65
438.458	1.64
438.662	1.58
438.867	1.52
439.071	1.63
439.275	1.57
439.48	1.59
439.684	1.6
439.888	1.65
440.093	1.67
440.297	1.69
440.501	1.74
440.706	1.79
440.91	1.8
441.114	1.84
441.318	1.75
441.523	1.75
441.727	1.78
441.931	1.78
442.135	1.82
442.339	1.86
442.543	1.83
442.748	1.76
442.952	1.81
443.156	1.85
443.36	1.8
443.564	1.88
443.768	1.9
443.972	1.9
444.176	1.98
444.38	1.97
444.584	2.05
444.788	2.02
444.992	2.06
445.196	2.06
445.4	2.05
445.604	2.09
445.808	2.06
446.012	2.13
446.216	2.15
446.42	2.16
446.624	2.15
446.828	2.11
447.032	2.11
447.235	2.04
447.439	1.87
447.643	1.93
447.847	1.97
448.051	1.91
448.254	1.85
448.458	1.77
448.662	1.69
448.866	1.77
449.069	1.72
449.273	1.79
449.477	1.93
449.681	2.04
449.884	1.83
450.088	1.79
450.292	1.8
450.495	1.83
450.699	1.96
450.902	1.91
451.106	1.81
451.31	1.84
451.513	1.76
451.717	1.64
451.92	1.64
452.124	1.72
452.327	1.78
452.531	1.81
452.734	1.8
452.938	1.77
453.141	1.82
453.345	1.86
453.548	1.88
453.752	1.87
453.955	1.83
454.158	1.82
454.362	1.78
454.565	1.75
454.769	1.61
454.972	1.57
455.175	1.65
455.379	1.68
455.582	1.7
455.785	1.73
455.988	1.72
456.192	1.79
456.395	1.76
456.598	1.89
456.801	1.92
457.005	2
457.208	1.99
457.411	1.88
457.614	1.87
457.817	1.82
458.021	1.77
458.224	1.82
458.427	1.81
458.63	1.86
458.833	1.81
459.036	1.77
459.239	1.79
459.442	1.82
459.645	1.87
459.848	1.94
460.051	1.97
460.254	2.08
460.457	2.04
460.66	2.06
460.863	2.03
461.066	1.98
461.269	1.92
461.472	1.87
461.675	1.88
461.878	1.88
462.081	1.69
462.284	1.64
462.486	1.5
462.689	1.53
462.892	1.57
463.095	1.47
463.298	1.7
463.5	1.82
463.703	1.84
463.906	1.78
464.109	1.68
464.311	1.76
464.514	1.86
464.717	1.91
464.92	1.89
465.122	1.91
465.325	2.06
465.528	1.94
465.73	1.87
465.933	1.86
466.135	1.96
466.338	2.05
466.541	2.11
466.743	2.06
466.946	2.07
467.148	2.02
467.351	1.98
467.553	1.84
467.756	1.89
467.958	1.91
468.161	1.97
468.363	1.81
468.566	1.78
468.768	1.7
468.971	1.61
469.173	1.59
469.375	1.71
469.578	1.7
469.78	1.79
469.983	1.72
470.185	1.67
470.387	1.59
470.59	1.67
470.792	1.66
470.994	1.69
471.196	1.77
471.399	1.74
471.601	1.73
471.803	1.73
472.005	1.78
472.208	1.91
472.41	1.98
472.612	2.12
472.814	2.17
473.016	2.2
473.218	2.23
473.421	2.23
473.623	2.19
473.825	2.07
474.027	2.05
474.229	1.95
474.431	1.91
474.633	1.84
474.835	1.64
475.037	1.64
475.239	1.59
475.441	1.55
475.643	1.53
475.845	1.62
476.047	1.73
476.249	1.8
476.451	1.85
476.653	1.74
476.855	1.82
477.057	1.83
477.258	1.84
477.46	1.84
477.662	1.91
477.864	1.9
478.066	1.93
478.268	1.89
478.469	1.91
478.671	1.96
478.873	1.97
479.075	1.93
479.276	1.97
479.478	1.92
479.68	1.93
479.882	1.87
480.083	1.86
480.285	1.8
480.487	1.82
480.688	1.82
480.89	1.78
481.091	1.84
481.293	1.85
481.495	1.84
481.696	1.87
481.898	1.88
482.099	1.89
482.301	1.89
482.502	1.92
482.704	1.9
482.905	1.87
483.107	1.91
483.308	1.88
483.51	1.87
483.711	1.88
483.913	1.89
484.114	1.89
484.315	1.87
484.517	1.86
484.718	1.83
484.92	1.86
485.121	1.89
485.322	1.85
485.524	1.9
485.725	1.89
485.926	1.88
486.127	1.84
486.329	1.84
486.53	1.9
486.731	1.9
486.932	1.94
487.134	1.94
487.335	1.93
487.536	1.92
487.737	1.89
487.938	1.93
488.139	1.96
488.341	1.97
488.542	1.98
488.743	1.96
488.944	1.97
489.145	1.95
489.346	1.95
489.547	1.99
489.748	2.04
489.949	2.07
490.15	2.07
490.351	2.05
490.552	2.03
490.753	2.01
490.954	1.97
491.155	1.97
491.356	2
491.557	2.03
491.758	2.03
491.959	2.01
492.159	1.97
492.36	1.9
492.561	1.95
492.762	1.96
492.963	2.01
493.164	2.06
493.364	1.97
493.565	1.89
493.766	1.79
493.967	1.68
494.167	1.62
494.368	1.59
494.569	1.65
494.769	1.58
494.97	1.61
495.171	1.62
495.371	1.62
495.572	1.72
495.773	1.73
495.973	1.82
496.174	1.87
496.375	1.88
496.575	1.89
496.776	1.89
496.976	1.91
497.177	1.91
497.377	1.94
497.578	1.96
497.778	1.99
497.979	2.05
498.179	2.01
498.38	2.05
498.58	2.14
498.78	2.18
498.981	2.17
499.181	2.23
499.382	2.26
499.582	2.16
499.782	2.16
499.983	2.21
500.183	2.16
500.383	2.26
500.584	2.21
500.784	2.19
500.984	2.22
501.184	2.21
501.385	2.21
501.585	2.21
501.785	2.27
501.985	2.32
502.185	2.23
502.386	2.38
502.586	2.34
502.786	2.3
502.986	2.26
503.186	2.18
503.386	2.16
503.586	2.13
503.786	2.06
503.987	2.08
504.187	2.06
504.387	2.04
504.587	1.88
504.787	1.88
504.987	1.89
505.187	1.95
505.387	1.97
505.587	1.99
505.786	2.03
505.986	2.1
506.186	2.12
506.386	2.08
506.586	2.09
506.786	2.11
506.986	2.08
507.186	2.2
507.386	2.16
507.585	2.22
507.785	2.28
507.985	2.26
508.185	2.22
508.384	2.28
508.584	2.28
508.784	2.3
508.984	2.33
509.183	2.37
509.383	2.31
509.583	2.37
509.782	2.43
509.982	2.38
510.182	2.43
510.381	2.46
510.581	2.39
510.781	2.45
510.98	2.52
511.18	2.52
511.379	2.56
511.579	2.61
511.778	2.52
511.978	2.42
512.177	2.47
512.377	2.48
512.576	2.51
512.776	2.56
512.975	2.55
513.175	2.5
513.374	2.52
513.573	2.46
513.773	2.4
513.972	2.48
514.172	2.53
514.371	2.52
514.57	2.52
514.77	2.64
514.969	2.63
515.168	2.69
515.367	2.73
515.567	2.78
515.766	2.83
515.965	2.88
516.164	2.95
516.364	2.9
516.563	3
516.762	2.98
516.961	2.87
517.16	2.88
517.359	2.88
517.559	2.86
517.758	2.8
517.957	2.78
518.156	2.8
518.355	2.76
518.554	2.82
518.753	2.73
518.952	2.75
519.151	2.81
519.35	2.83
519.549	2.84
519.748	2.95
519.947	3.02
520.146	3.07
520.345	3.1
520.544	3.1
520.743	3.17
520.942	3.18
521.141	3.18
521.339	3.22
521.538	3.15
521.737	3.16
521.936	3.09
522.135	3.12
522.333	3.09
522.532	3.13
522.731	3.2
522.93	3.19
523.129	3.24
523.327	3.24
523.526	3.23
523.725	3.31
523.923	3.29
524.122	3.3
524.321	3.26
524.519	3.24
524.718	3.26
524.917	3.25
525.115	3.3
525.314	3.33
525.512	3.33
525.711	3.38
525.909	3.38
526.108	3.41
526.306	3.43
526.505	3.46
526.703	3.51
526.902	3.54
527.1	3.56
527.299	3.54
527.497	3.58
527.696	3.64
527.894	3.62
528.092	3.66
528.291	3.69
528.489	3.69
528.688	3.73
528.886	3.76
529.084	3.75
529.283	3.76
529.481	3.77
529.679	3.77
529.877	3.74
530.076	3.79
530.274	3.8
530.472	3.82
530.67	3.86
530.869	3.83
531.067	3.8
531.265	3.83
531.463	3.86
531.661	3.9
531.859	3.93
532.057	3.93
532.255	3.92
532.454	3.88
532.652	3.88
532.85	3.87
533.048	3.94
533.246	3.99
533.444	4
533.642	4.01
533.84	4.01
534.038	3.97
534.236	4.04
534.434	4.14
534.632	4.24
534.83	4.27
535.027	4.32
535.225	4.31
535.423	4.39
535.621	4.39
535.819	4.41
536.017	4.43
536.215	4.51
536.412	4.5
536.61	4.51
536.808	4.48
537.006	4.5
537.203	4.58
537.401	4.58
537.599	4.52
537.797	4.6
537.994	4.64
538.192	4.7
538.39	4.71
538.587	4.69
538.785	4.64
538.983	4.69
539.18	4.74
539.378	4.72
539.575	4.78
539.773	4.83
539.97	4.83
540.168	4.91
540.366	4.9
540.563	4.91
540.761	4.97
540.958	5.05
541.155	5.05
541.353	5.09
541.55	5.15
541.748	5.18
541.945	5.2
542.143	5.23
542.34	5.21
542.537	5.32
542.735	5.39
542.932	5.47
543.129	5.51
543.327	5.62
543.524	5.64
543.721	5.58
543.919	5.59
544.116	5.6
544.313	5.66
544.51	5.71
544.708	5.65
544.905	5.66
545.102	5.69
545.299	5.72
545.496	5.71
545.693	5.72
545.891	5.79
546.088	5.92
546.285	5.99
546.482	6.03
546.679	6.01
546.876	6.04
547.073	6.04
547.27	6.04
547.467	6.08
547.664	6.04
547.861	6.19
548.058	6.28
548.255	6.16
548.452	6.23
548.649	6.25
548.846	6.37
549.043	6.58
549.24	6.63
549.437	6.8
549.633	6.88
549.83	7.12
550.027	7.02
550.224	7.16
550.421	7.3
550.618	7.29
550.814	7.44
551.011	7.42
551.208	7.52
551.405	7.61
551.601	7.58
551.798	7.59
551.995	7.62
552.191	7.8
552.388	7.81
552.585	7.78
552.781	7.79
552.978	7.78
553.175	7.91
553.371	7.83
553.568	7.87
553.764	7.9
553.961	7.91
554.157	7.98
554.354	8.02
554.55	8.14
554.747	8.27
554.943	8.36
555.14	8.43
555.336	8.41
555.533	8.46
555.729	8.52
555.926	8.54
556.122	8.56
556.318	8.58
556.515	8.67
556.711	8.63
556.907	8.64
557.104	8.77
557.3	8.88
557.496	8.95
557.693	8.92
557.889	9
558.085	9.17
558.281	9.28
558.478	9.32
558.674	9.32
558.87	9.48
559.066	9.63
559.262	9.68
559.459	9.8
559.655	9.95
559.851	10.11
560.047	10.16
560.243	10.04
560.439	10.17
560.635	10.27
560.831	10.26
561.027	10.16
561.223	10.19
561.419	10.27
561.615	10.24
561.811	10.29
562.007	10.33
562.203	10.37
562.399	10.61
562.595	10.57
562.791	10.59
562.987	10.72
563.183	10.8
563.379	10.92
563.575	10.85
563.771	10.95
563.966	11.01
564.162	11.16
564.358	11.25
564.554	11.28
564.75	11.47
564.945	11.68
565.141	11.75
565.337	11.89
565.533	11.92
565.728	12.05
565.924	12.1
566.12	12.15
566.315	12.23
566.511	12.33
566.707	12.35
566.902	12.37
567.098	12.34
567.293	12.43
567.489	12.52
567.684	12.57
567.88	12.57
568.076	12.62
568.271	12.77
568.467	12.7
568.662	12.73
568.858	12.92
569.053	13
569.248	13.08
569.444	13.05
569.639	13.02
569.835	13.12
570.03	13.29
570.225	13.33
570.421	13.38
570.616	13.46
570.812	13.55
571.007	13.57
571.202	13.55
571.397	13.54
571.593	13.68
571.788	13.8
571.983	13.86
572.178	13.95
572.374	14.03
572.569	14.11
572.764	14.25
572.959	14.32
573.154	14.25
573.35	14.38
573.545	14.55
573.74	14.64
573.935	14.74
574.13	14.76
574.325	14.7
574.52	14.77
574.715	14.75
574.91	14.71
575.105	14.75
575.3	14.93
575.495	15.03
575.69	15.05
575.885	15.12
576.08	15.24
576.275	15.34
576.47	15.56
576.665	15.6
576.86	15.69
577.055	15.85
577.25	15.95
577.444	15.96
577.639	15.96
577.834	15.89
578.029	15.87
578.224	15.76
578.418	15.76
578.613	15.67
578.808	15.74
579.003	15.8
579.197	15.78
579.392	15.77
579.587	15.88
579.781	15.86
579.976	15.96
580.171	16.02
580.365	16.07
580.56	16.17
580.755	16.24
580.949	16.36
581.144	16.37
581.338	16.49
581.533	16.61
581.727	16.66
581.922	16.75
582.116	16.73
582.311	16.75
582.505	16.82
582.7	16.81
582.894	16.98
583.089	16.91
583.283	16.94
583.478	16.8
583.672	16.7
583.866	16.71
584.061	16.77
584.255	17.1
584.449	17.32
584.644	17.33
584.838	17.46
585.032	17.56
585.226	17.72
585.421	17.88
585.615	18.08
585.809	18.3
586.003	18.3
586.198	18.34
586.392	18.19
586.586	18.06
586.78	18.17
586.974	18.08
587.168	17.95
587.363	17.95
587.557	17.91
587.751	17.92
587.945	17.85
588.139	17.97
588.333	18.1
588.527	18.16
588.721	18.3
588.915	18.38
589.109	18.49
589.303	18.66
589.497	18.71
589.691	18.85
589.885	19.01
590.079	19.12
590.273	19.16
590.466	19.27
590.66	19.28
590.854	19.21
591.048	19.2
591.242	19.33
591.436	19.4
591.629	19.32
591.823	19.29
592.017	19.11
592.211	19.12
592.404	19.18
592.598	19.04
592.792	19.2
592.986	19.27
593.179	19.4
593.373	19.39
593.567	19.45
593.76	19.66
593.954	19.75
594.147	20.04
594.341	20.08
594.535	20.16
594.728	20.11
594.922	20.07
595.115	20.01
595.309	19.87
595.502	19.86
595.696	19.75
595.889	19.7
596.083	19.67
596.276	19.49
596.47	19.5
596.663	19.44
596.856	19.51
597.05	19.5
597.243	19.68
597.437	19.78
597.63	19.87
597.823	19.98
598.017	19.95
598.21	19.89
598.403	20.05
598.596	20.13
598.79	20.2
598.983	20.32
599.176	20.28
599.369	20.2
599.563	20.34
599.756	20.32
599.949	20.21
600.142	20.34
600.335	20.47
600.528	20.45
600.722	20.44
600.915	20.37
601.108	20.35
601.301	20.54
601.494	20.6
601.687	20.6
601.88	20.78
602.073	21.01
602.266	21.07
602.459	21.07
602.652	21.13
602.845	21.22
603.038	21.22
603.231	21.35
603.424	21.36
603.617	21.3
603.809	21.3
604.002	21.19
604.195	21.1
604.388	21.04
604.581	21.01
604.774	21.11
604.966	21.03
605.159	21.15
605.352	21.07
605.545	20.96
605.737	21.12
605.93	21.1
606.123	21.19
606.316	21.28
606.508	21.41
606.701	21.55
606.894	21.44
607.086	21.43
607.279	21.33
607.471	21.35
607.664	21.44
607.857	21.43
608.049	21.44
608.242	21.45
608.434	21.45
608.627	21.45
608.819	21.44
609.012	21.47
609.204	21.61
609.397	21.72
609.589	21.86
609.782	21.98
609.974	22.12
610.166	22.2
610.359	22.37
610.551	22.33
610.743	22.44
610.936	22.57
611.128	22.7
611.32	22.67
611.513	22.73
611.705	22.68
611.897	22.77
612.09	22.77
612.282	22.89
612.474	22.79
612.666	22.7
612.858	22.75
613.051	22.78
613.243	22.8
613.435	22.79
613.627	23.01
613.819	22.96
614.011	23.01
614.203	22.83
614.395	22.73
614.588	22.7
614.78	22.83
614.972	22.82
615.164	22.83
615.356	22.85
615.548	22.88
615.74	22.59
615.932	22.54
616.124	22.43
616.315	22.49
616.507	22.53
616.699	22.64
616.891	22.74
617.083	22.67
617.275	22.64
617.467	22.53
617.659	22.71
617.85	22.76
618.042	22.75
618.234	22.98
618.426	23.05
618.618	22.99
618.809	22.96
619.001	22.95
619.193	22.94
619.384	23.05
619.576	22.94
619.768	22.79
619.959	22.93
620.151	23.17
620.343	23.04
620.534	22.93
620.726	22.99
620.917	22.97
621.109	22.92
621.301	22.93
621.492	22.97
621.684	23.31
621.875	23.44
622.067	23.33
622.258	23.17
622.45	23.24
622.641	23.43
622.832	23.67
623.024	23.6
623.215	23.55
623.407	23.75
623.598	23.79
623.789	23.8
623.981	23.63
624.172	23.73
624.363	23.73
624.555	23.66
624.746	23.72
624.937	23.69
625.129	23.76
625.32	23.93
625.511	23.73
625.702	23.67
625.893	23.55
626.085	23.74
626.276	23.81
626.467	23.83
626.658	23.87
626.849	23.76
627.04	23.77
627.231	23.79
627.422	23.55
627.614	23.7
627.805	23.62
627.996	23.66
628.187	23.55
628.378	23.49
628.569	23.61
628.76	23.6
628.951	23.36
629.142	23.16
629.332	23.1
629.523	23.45
629.714	23.54
629.905	23.57
630.096	23.5
630.287	23.44
630.478	23.41
630.669	23.62
630.859	23.58
631.05	23.97
631.241	24.18
631.432	24.39
631.623	24.15
631.813	24.16
632.004	24.1
632.195	24.21
632.385	24.35
632.576	24.5
632.767	24.4
632.957	24.44
633.148	24.58
633.339	24.6
633.529	24.52
633.72	24.65
633.91	24.55
634.101	24.8
634.292	24.72
634.482	24.84
634.673	24.66
634.863	24.57
635.054	24.59
635.244	24.47
635.435	24.46
635.625	24.6
635.815	24.69
636.006	24.7
636.196	24.55
636.387	24.73
636.577	24.65
636.767	24.71
636.958	24.82
637.148	24.76
637.338	24.72
637.529	24.64
637.719	24.49
637.909	24.53
638.099	24.47
638.29	24.55
638.48	24.6
638.67	24.62
638.86	24.71
639.05	24.62
639.241	24.85
639.431	24.79
639.621	24.87
639.811	24.96
640.001	24.9
640.191	25.09
640.381	25.04
640.571	24.87
640.761	24.77
640.951	24.84
641.141	25.04
641.331	24.86
641.521	24.88
641.711	24.7
641.901	24.52
642.091	24.64
642.281	24.53
642.471	24.47
642.661	24.5
642.851	24.6
643.041	24.65
643.231	24.6
643.42	24.78
643.61	25.01
643.8	25.3
643.99	25.45
644.18	25.25
644.369	25.31
644.559	25.52
644.749	25.48
644.939	25.37
645.128	25.28
645.318	25.15
645.508	25.14
645.697	24.8
645.887	24.71
646.076	24.72
646.266	24.87
646.456	24.98
646.645	24.86
646.835	24.95
647.024	25.1
647.214	25.29
647.403	25.31
647.593	25.06
647.782	25.11
647.972	25.03
648.161	25.02
648.351	24.92
648.54	25.01
648.73	25.04
648.919	25.16
649.108	25.02
649.298	24.99
649.487	25.09
649.677	25.38
649.866	25.64
650.055	25.84
650.244	25.96
650.434	26.06
650.623	25.9
650.812	25.84
651.002	25.84
651.191	26.22
651.38	26.14
651.569	26.27
651.758	26.21
651.947	26.08
652.137	26.06
652.326	26.03
652.515	25.98
652.704	25.89
652.893	26.09
653.082	26.16
653.271	25.89
653.46	26
653.649	25.92
653.838	26.03
654.027	25.99
654.216	25.74
654.405	25.55
654.594	25.58
654.783	25.8
654.972	25.64
655.161	25.72
655.35	25.94
655.539	26.14
655.728	26.17
655.916	26.06
656.105	26.13
656.294	26.4
656.483	26.38
656.672	26.54
656.86	26.57
657.049	26.92
657.238	26.91
657.427	26.76
657.615	26.62
657.804	26.61
657.993	26.73
658.181	26.75
658.37	26.75
658.559	26.99
658.747	26.88
658.936	26.74
659.125	26.5
659.313	26.47
659.502	26.49
659.69	26.52
659.879	26.58
660.067	26.38
660.256	26.53
660.444	26.53
660.633	26.51
660.821	26.61
661.01	26.7
661.198	26.7
661.387	26.58
661.575	26.74
661.763	26.6
661.952	26.39
662.14	26.57
662.328	26.46
662.517	26.69
662.705	26.54
662.893	26.49
663.082	26.75
663.27	27.01
663.458	27.06
663.646	26.76
663.834	27.12
664.023	27.49
664.211	27.47
664.399	27.44
664.587	27.12
664.775	27.35
664.963	27.45
665.152	27.28
665.34	27.29
665.528	27.49
665.716	27.82
665.904	27.61
666.092	27.54
666.28	27.35
666.468	27.51
666.656	27.76
666.844	27.82
667.032	27.84
667.22	27.71
667.408	27.76
667.596	27.32
667.784	27.05
667.971	26.93
668.159	26.88
668.347	27.08
668.535	27.16
668.723	27.05
668.911	27.18
669.098	27.31
669.286	27.51
669.474	27.31
669.662	27.78
669.849	28.06
670.037	28.25
670.225	28.31
670.413	28.29
670.6	28.38
670.788	28.64
670.976	28.16
671.163	27.87
671.351	27.6
671.538	27.68
671.726	27.62
671.913	27.69
672.101	27.54
672.289	27.53
672.476	27.7
672.664	27.64
672.851	27.26
673.039	27.38
673.226	27.53
673.413	27.87
673.601	27.76
673.788	27.84
673.976	27.86
674.163	27.92
674.35	28.15
674.538	28.25
674.725	28.1
674.912	28.22
675.1	28.74
675.287	28.91
675.474	28.89
675.662	29.03
675.849	28.69
676.036	28.48
676.223	28.73
676.411	28.49
676.598	28.35
676.785	28.19
676.972	28.31
677.159	27.93
677.346	27.82
677.533	27.51
677.721	27.3
677.908	27.6
678.095	27.86
678.282	27.68
678.469	27.73
678.656	27.86
678.843	28.02
679.03	28.03
679.217	28.19
679.404	27.97
679.591	28.06
679.778	28.45
679.964	28.36
680.151	28.04
680.338	28.11
680.525	28.01
680.712	27.89
680.899	27.85
681.086	27.76
681.272	27.55
681.459	27.81
681.646	27.98
681.833	27.85
682.02	28.18
682.206	28.41
682.393	28.32
682.58	28.5
682.766	28.51
682.953	28.78
683.14	28.9
683.326	29.17
683.513	29.14
683.7	29.09
683.886	28.96
684.073	28.66
684.259	28.51
684.446	28.44
684.632	28.33
684.819	28.33
685.005	28.2
685.192	28.26
685.378	28.09
685.565	28.13
685.751	28.2
685.938	28.29
686.124	28.34
686.31	28.33
686.497	28.4
686.683	28.43
686.87	28.62
687.056	28.64
687.242	28.66
687.429	28.69
687.615	28.75
687.801	28.55
687.987	28.57
688.174	28.4
688.36	28.58
688.546	28.66
688.732	28.6
688.918	28.34
689.105	28.05
689.291	27.91
689.477	27.76
689.663	27.83
689.849	28.38
690.035	28.48
690.221	28.71
690.407	28.73
690.593	28.53
690.779	28.48
690.965	28.49
691.151	28.65
691.337	28.63
691.523	28.84
691.709	28.8
691.895	28.44
692.081	28.46
692.267	28.4
692.453	28.36
692.639	28.41
692.825	28.68
693.011	28.6
693.196	28.86
693.382	29.02
693.568	29.25
693.754	29.18
693.94	29.02
694.125	28.82
694.311	28.76
694.497	28.62
694.682	28.7
694.868	28.94
695.054	29.15
695.239	28.78
695.425	28.53
695.611	28.26
695.796	28.29
695.982	28.32
696.168	28.38
696.353	28.59
696.539	28.86
696.724	28.82
696.91	28.5
697.095	28.55
697.281	28.81
697.466	29.23
697.652	29.33
697.837	29.22
698.023	29.35
698.208	29.4
698.393	29.2
698.579	29.29
698.764	29.36
698.949	29.29
699.135	29.47
699.32	29.34
699.505	28.91
699.691	28.75
699.876	29.01
700.061	28.82
700.246	28.8
700.432	28.85
700.617	28.63
700.802	28.66
700.987	28.79
701.172	28.32
701.358	28.51
701.543	28.57
701.728	28.81
701.913	28.95
702.098	28.92
702.283	28.65
702.468	28.74
702.653	28.69
702.838	28.63
703.023	28.74
703.208	28.96
703.393	28.73
703.578	29.23
703.763	28.98
703.948	28.95
704.133	29.04
704.318	29.4
704.503	29.17
704.688	29.08
704.873	29.01
705.057	28.74
705.242	28.86
705.427	28.94
705.612	28.44
705.797	28.66
705.981	28.56
706.166	28.85
706.351	28.6
706.536	29
706.72	29.02
706.905	29.22
707.09	29.76
707.274	29.78
707.459	29.66
707.644	29.65
707.828	29.65
708.013	29.29
708.197	29.13
708.382	29.08
708.567	29.08
708.751	29.07
708.936	29.09
709.12	28.78
709.305	28.82
709.489	29.03
709.673	29.22
709.858	28.98
710.042	28.86
710.227	28.8
710.411	29.35
710.596	29.17
710.78	29.11
710.964	29.3
711.149	29.28
711.333	29.16
711.517	28.8
711.702	28.82
711.886	28.81
712.07	29.23
712.254	29.39
712.438	29.28
712.623	29.42
712.807	29.74
712.991	29.58
713.175	29.5
713.359	29.68
713.544	29.87
713.728	29.9
713.912	29.89
714.096	29.97
714.28	30.02
714.464	29.54
714.648	29.51
714.832	29.39
715.016	29.88
715.2	29.97
715.384	29.89
715.568	29.94
715.752	30.04
715.936	30.44
716.12	30.09
716.304	30.11
716.488	30.33
716.671	30.35
716.855	30.45
717.039	29.99
717.223	30.15
717.407	30.25
717.59	30.07
717.774	29.8
717.958	29.68
718.142	29.81
718.325	30
718.509	29.9
718.693	29.21
718.877	28.81
719.06	29.02
719.244	28.49
719.428	28.46
719.611	28.77
719.795	28.92
719.978	28.72
720.162	28.71
720.345	28.57
720.529	28.63
720.713	29.42
720.896	29.76
721.08	29.26
721.263	29.61
721.446	29.27
721.63	29.3
721.813	29.06
721.997	29.47
722.18	29.55
722.364	29.2
722.547	29.4
722.73	29.47
722.914	28.9
723.097	28.67
723.28	29.08
723.464	29.42
723.647	29.81
723.83	29.88
724.013	29.51
724.197	29.48
724.38	29.62
724.563	29.36
724.746	29.41
724.929	29.94
725.112	30.14
725.296	30.02
725.479	29.73
725.662	29.54
725.845	29.42
726.028	29.67
726.211	29.75
726.394	30.04
726.577	30.09
726.76	29.84
726.943	29.79
727.126	29.71
727.309	29.59
727.492	29.83
727.675	29.79
727.858	29.99
728.041	29.62
728.224	29.72
728.407	29.19
728.589	29.38
728.772	29.7
728.955	29.78
729.138	30.45
729.321	30.12
729.503	30.07
729.686	30.17
729.869	30.48
730.052	30.58
730.234	30.3
730.417	30.63
730.6	30.58
730.782	30.58
730.965	30.52
731.148	29.98
731.33	30.29
731.513	30.14
731.695	29.89
731.878	29.8
732.061	29.99
732.243	30.27
732.426	30.01
732.608	30.09
732.791	29.94
732.973	30.1
733.156	30.3
733.338	30.16
733.52	30.66
733.703	30.69
733.885	30.16
734.068	30.07
734.25	29.88
734.432	29.99
734.615	30.13
734.797	30
734.979	29.97
735.162	29.86
735.344	29.91
735.526	30.03
735.708	29.92
735.891	30.1
736.073	30.32
736.255	30.33
736.437	30.52
736.619	30.72
736.802	30.86
736.984	30.74
737.166	30.68
737.348	30.68
737.53	30.42
737.712	30.2
737.894	30.16
738.076	29.68
738.258	30.09
738.44	29.86
738.622	29.62
738.804	29.19
738.986	29.01
739.168	29.39
739.35	29.61
739.532	28.94
739.714	28.92
739.896	29.68
740.078	29.7
740.259	28.98
740.441	28.83
740.623	28.32
740.805	28.54
740.987	28.91
741.168	28.75
741.35	28.4
741.532	28.87
741.714	29.72
741.895	29.18
742.077	29.39
742.259	29.87
742.44	30.04
742.622	30.8
742.804	30.74
742.985	30.42
743.167	30.02
743.348	30.74
743.53	30.11
743.711	29
743.893	29.06
744.075	28.97
744.256	28.5
744.438	28.89
744.619	28.06
744.8	27.88
744.982	28.09
745.163	28.67
745.345	28.01
745.526	28.29
745.707	28.82
745.889	28.84
746.07	28.93
746.252	29.6
746.433	29.51
746.614	29.82
746.795	30.21
746.977	29.93
747.158	29.66
747.339	29.74
747.52	29.5
747.702	29.48
747.883	29.4
748.064	29.38
748.245	28.88
748.426	28.9
748.607	28.62
748.788	28.08
748.97	28.34
749.151	28.42
749.332	28.34
749.513	29.19
749.694	29.29
749.875	29.43
750.056	29.34
750.237	28.96
750.418	28.09
750.599	27.99
750.78	28.7
750.96	28.88
751.141	28.76
751.322	28.94
751.503	28.66
751.684	28.27
751.865	27.69
752.046	27.53
752.226	28.46
752.407	28.29
752.588	28.56
752.769	28.26
752.949	28.47
753.13	28.03
753.311	28.32
753.492	27.98
753.672	28.3
753.853	29.25
754.034	29.53
754.214	28.91
754.395	29.49
754.575	29.73
754.756	29.75
754.937	29.52
755.117	29.97
755.298	29.62
755.478	29.24
755.659	29.06
755.839	28.48
756.02	28.41
756.2	28.72
756.381	28.94
756.561	29.32
756.741	29.5
756.922	28.9
757.102	28.72
757.283	28.18
757.463	28.85
757.643	29.56
757.823	29.64
758.004	30.17
758.184	30.05
758.364	30
758.545	28.78
758.725	28.94
758.905	29.71
759.085	30.14
759.265	30.72
759.446	30.59
759.626	30.03
759.806	30.24
759.986	29.88
760.166	29.65
760.346	30.59
760.526	30.93
760.706	31.05
760.886	30.83
761.066	30.5
761.246	29.98
761.426	30.25
761.606	30.19
761.786	29.92
761.966	30.04
762.146	30.11
762.326	29.98
762.506	30.35
762.686	30.23
762.866	30.27
763.046	30.1
763.225	30.62
763.405	30.37
763.585	30.14
763.765	30.25
763.945	30.18
764.124	30.76
764.304	30.33
764.484	30.2
764.664	29.77
764.843	29.73
765.023	30.1
765.203	30.03
765.382	30.15
765.562	30.48
765.741	29.95
765.921	29.56
766.101	29.07
766.28	29.38
766.46	29.22
766.639	29.94
766.819	29.69
766.998	29.67
767.178	29.12
767.357	29.61
767.537	29.45
767.716	30.11
767.896	30.58
768.075	30.5
768.254	30.26
768.434	30.65
768.613	30.3
768.792	30.36
768.972	29.96
769.151	30.18
769.33	29.56
769.51	29.89
769.689	29.55
769.868	29.6
770.047	29.63
770.226	28.94
770.406	28.64
770.585	28.8
770.764	28.64
770.943	28.47
771.122	28.48
771.301	29.03
771.48	28.18
771.66	28.51
771.839	28.8
772.018	28.67
772.197	29.05
772.376	29.75
772.555	29.62
772.734	29.69
772.913	29.49
773.092	29.44
773.271	28.65
773.449	29.94
773.628	30.02
773.807	29.23
773.986	29.2
774.165	29.05
774.344	28.73
774.523	29.12
774.701	28.9
774.88	30.04
775.059	30.41
775.238	30.85
775.417	30.31
775.595	30.76
775.774	31.01
775.953	31.46
776.131	31.78
776.31	31.32
776.489	30.96
776.667	31.27
776.846	30.79
777.025	30.94
777.203	30.57
777.382	30.94
777.56	30.59
777.739	30.36
777.917	30.14
778.096	30.56
778.274	30.6
778.453	30.26
778.631	31.01
778.81	30.71
778.988	30.48
779.166	30.72
779.345	30.45
779.523	30.59
779.702	30.58
779.88	30.43
780.058	29.66
780.237	30.3
780.415	30.77
780.593	29.8
780.771	31.3
780.95	31.11
781.128	30.8
781.306	30.85
781.484	30.58
781.662	30.45
781.841	30.49
782.019	30.97
782.197	30.36
782.375	30.07
782.553	30.38
782.731	29.51
782.909	29.12
783.087	28.82
783.265	28.29
783.443	28.74
783.621	28.7
783.799	29.16
783.977	28.35
784.155	27.76
784.333	27.89
784.511	27.91
784.689	27.55
784.867	28.33
785.045	28.35
785.223	28.48
785.4	28.52
785.578	28.47
785.756	28.07
785.934	28.73
786.112	29.29
786.289	29.07
786.467	28.7
786.645	28.91
786.823	29.27
787	29.67
787.178	30.04
787.356	30.2
787.533	29.87
787.711	29.66
787.889	29.26
788.066	29.48
788.244	29.95
788.421	30.29
788.599	30.87
788.776	30.44
788.954	30.43
789.131	31.22
789.309	31.39
789.486	32.04
789.664	32.15
789.841	32.39
790.019	31.63
790.196	32.17
790.373	31.83
790.551	31.33
790.728	31.67
790.906	32.28
791.083	30.96
791.26	30.68
791.437	30.62
791.615	30.85
791.792	30.41
791.969	31.68
792.146	30.72
792.324	31.04
792.501	31.05
792.678	30.69
792.855	30.13
793.032	31.18
793.209	30.74
793.387	30.08
793.564	29.88
793.741	30.62
793.918	29.96
794.095	29.82
794.272	30.21
794.449	29.44
794.626	29.14
794.803	29.3
794.98	28.7
795.157	28.27
795.334	29.11
795.511	28.54
795.688	28.96
795.864	28.37
796.041	29.12
796.218	29.09
796.395	29.49
796.572	29.15
796.749	28.23
796.925	28.46
797.102	29.34
797.279	29.24
797.456	29.97
797.632	30.15
797.809	30.93
797.986	30.59
798.162	30.2
798.339	30.16
798.516	30.33
798.692	32.09
798.869	30.88
799.046	30.57
799.222	31.33
799.399	30.84
799.575	30.24
799.752	30.05
799.928	30.21
800.105	30.11
800.281	29.87
800.458	30.74
800.634	29.06
800.811	30.23
800.987	30.12
801.163	29.89
801.34	30.11
801.516	30.27
801.692	30.47
801.869	29.39
802.045	30.11
802.221	30.56
802.398	30.01
802.574	30.09
802.75	28.79
802.926	28.69
803.103	27.46
803.279	28.31
803.455	29.02
803.631	29.42
803.807	29.83
803.983	29.65
804.16	29.68
804.336	28.47
804.512	28.5
804.688	30.16
804.864	30.3
805.04	30.76
805.216	30.36
805.392	29.91
805.568	29.54
805.744	30.62
805.92	30.16
806.096	30.46
806.272	32.08
806.448	32.31
806.623	31.94
806.799	32.51
806.975	32.52
807.151	32.4
807.327	30.68
807.503	30.05
807.678	29.28
807.854	28.65
808.03	27.16
808.206	26.14
808.381	26.08
808.557	26.21
808.733	26.1
808.908	25.49
809.084	24.9
809.26	26.77
809.435	27.12
809.611	26.57
809.787	27.05
809.962	28.12
810.138	29.76
810.313	29.4
810.489	29.21
810.664	28.13
810.84	28.32
811.015	29.4
811.191	30.8
811.366	31.5
811.542	31.53
811.717	31.37
811.892	32.7
812.068	30.92
812.243	31.16
812.419	30.24
812.594	31.41
812.769	32.69
812.944	32.25
813.12	30.61
813.295	30.72
813.47	30.85
813.645	30.32
813.821	28.34
813.996	28.68
814.171	28.98
814.346	29.7
814.521	28.91
814.697	28.27
814.872	28.35
815.047	26.14
815.222	24.52
815.397	24.83
815.572	26.24
815.747	26.33
815.922	27.42
816.097	27.07
816.272	27.41
816.447	27.07
816.622	27.92
816.797	28.21
816.972	29.81
817.147	31.37
817.322	32.46
817.496	31.19
817.671	31.65
817.846	31.82
818.021	32.74
818.196	33.61
818.371	34.4
818.545	33.64
818.72	32.81
818.895	32.56
819.069	32.07
819.244	31.3
819.419	31.6
819.594	31.41
819.768	30.76
819.943	30.53
820.117	30.34
820.292	30.31
820.467	30.96
820.641	31.37
820.816	31.55
820.99	31.41
821.165	31.47
821.339	31.84
821.514	31.78
821.688	31.82
821.863	31.99
822.037	31.96
822.212	31.89
822.386	31.66
822.56	31.43
822.735	31.59
822.909	31.59
823.084	31.59
823.258	31.43
823.432	31.56
823.606	31.44
823.781	31.31
823.955	31.27
824.129	31.32
824.303	31.5
824.478	31.75
824.652	31.47
824.826	31.16
825	31.11
825.174	30.89
825.348	30.88
825.523	30.93
825.697	30.52
825.871	30.2
826.045	29.76
826.219	29.27
826.393	29.45
826.567	29.51
826.741	30.36
826.915	30.42
827.089	30.35
827.263	30.28
827.437	30.5
827.611	30.66
827.784	30.97
827.958	31.47
828.132	31.83
828.306	31.75
828.48	31.55
828.654	31.31
828.827	31.54
829.001	32.14
829.175	32.05
829.349	31.81
829.522	32.22
829.696	32.12
829.87	31.55
830.044	30.93
830.217	30.03
830.391	29.89
830.565	29.52
830.738	29.21
830.912	28.11
831.085	28.89
831.259	28.15
831.432	28.12
831.606	28.46
831.779	28.97
831.953	29.31
832.126	28.65
832.3	28.55
832.473	27.52
832.647	26.31
832.82	26.45
832.994	26.76
833.167	27.54
833.34	27.24
833.514	26.37
833.687	26.54
833.86	26.89
834.034	27.8
834.207	28.31
834.38	28.97
834.553	29.27
834.727	30.15
834.9	29.65
835.073	29.31
835.246	29.23
835.419	30.42
835.593	30.04
835.766	29.89
835.939	30.16
836.112	29.62
836.285	30.08
836.458	31.61
836.631	30.92
836.804	30.64
836.977	31.43
837.15	31.04
837.323	29.6
837.496	29.9
837.669	29.17
837.842	28.64
838.015	30.2
838.188	27.85
838.361	26
838.533	27.5
838.706	27.01
838.879	25.95
839.052	27.35
839.225	26.99
839.398	27.07
839.57	28.39
839.743	28.16
839.916	26.43
840.088	27.5
840.261	28.5
840.434	28.15
840.607	29.24
840.779	32.19
840.952	32.57
841.124	32.35
841.297	33.51
841.47	32.94
841.642	33.79
841.815	34.19
841.987	34.79
842.16	34.35
842.332	32.34
842.505	32.45
842.677	30.9
842.85	30.63
843.022	32.19
843.194	32.86
843.367	31.52
843.539	29.48
843.712	30.71
843.884	29
844.056	26.9
844.229	27.52
844.401	27.48
844.573	23.9
844.745	26.71
844.918	26.89
845.09	26.49
845.262	27.66
845.434	26.52
845.606	27.34
845.779	31.13
845.951	32.49
846.123	32.61
846.295	31.86
846.467	30.93
846.639	27.21
846.811	29.2
846.983	26.9
847.155	28.64
847.327	28.31
847.499	28.71
847.671	28.78
847.843	29.27
848.015	30.8
848.187	30.25
848.359	31.76
848.531	29.58
848.703	26.18
848.875	24.94
849.047	23.1
849.218	24.81
849.39	21.69
849.562	20.22
849.734	18.38
849.905	19.48
850.077	17.97
850.249	18.16
850.421	22.82
850.592	23.87
850.764	26.92
850.936	29.83
851.107	28
851.279	31.15
851.451	28.12
851.622	29.96
851.794	27.92
851.965	29.24
852.137	32.24
852.308	28.79
852.48	28.99
852.651	28.34
852.823	22.97
852.994	25.68
853.166	19.23
853.337	24.45
853.509	24.68
853.68	25.43
853.851	27.35
854.023	20.57
854.194	17.53
854.365	15.13
854.537	17.56
854.708	22.43
854.879	22.28
855.05	26.72
855.222	26.33
855.393	24.69
855.564	22.05
855.735	21.34
855.906	22.22
856.078	21.75
856.249	23.38
856.42	19.73
856.591	19.4
856.762	20.28
856.933	16.76
857.104	15.25
857.275	16.64
857.446	17.22
857.617	20.37
857.788	27.29
857.959	32.46
858.13	31.04
858.301	32.14
858.472	29.62
858.643	27.02
858.814	29.15
858.985	27.66
859.155	29.16
859.326	30.36
859.497	28.33
859.668	23.21
859.839	20.74
860.009	19.65
860.18	18.9
860.351	16.99
860.522	19.06
860.692	16.85
860.863	17.21
861.034	19.22
861.204	17.93
861.375	15.17
861.546	15.03
861.716	17.31
861.887	21.78
862.057	24.04
862.228	25.57
862.398	25.6
862.569	26.56
862.739	25.31
862.91	22.73
863.08	20.34
863.251	18.95
863.421	21.22
863.592	24.38
863.762	22.43
863.932	18.48
864.103	18.12
864.273	17.67
864.443	21.83
864.614	23.55
864.784	23.5
864.954	27.78
865.125	32.44
865.295	34.47
865.465	30.02
865.635	29.56
865.805	31.86
865.976	33.32
866.146	36.45
866.316	31.65
866.486	32.51
866.656	33.31
866.826	34.58
866.996	31.64
867.166	31.51
867.336	34.73
867.506	37.34
867.676	33.99
867.846	35.87
868.016	33.77
868.186	35.15
868.356	37.7
868.526	32.71
868.696	27.91
868.866	28.85
869.036	25.78
869.206	25.77
869.376	23.83
869.545	23.64
869.715	19.86
869.885	17.85
870.055	18.8
870.224	11.52
870.394	9.21
870.564	12
870.734	14.45
870.903	16.43
871.073	14.86
871.243	13.65
871.412	18.99
871.582	18.89
871.751	18.83
871.921	15.19
872.091	13.61
872.26	16.23
872.43	14.48
872.599	11.76
872.769	9.99
872.938	9.8
873.108	9.86
873.277	6.66
873.446	8.51
873.616	12.46
873.785	13.34
873.955	15.74
874.124	17.54
874.293	18.68
874.463	19.64
874.632	21
874.801	21.44
874.971	25.97
875.14	26.27
875.309	22.12
875.478	16.94
875.647	19.81
875.817	21.64
875.986	21.77
876.155	22.94
876.324	26.82
876.493	24.64
876.662	21.7
876.831	20.24
877	22.45
877.17	23.8
877.339	29.9
877.508	27.8
877.677	28.59
877.846	30.3
878.015	32.74
878.184	31.3
878.352	30.37
878.521	34.84
878.69	37.13
878.859	37.54
879.028	40.8
879.197	37.07
879.366	36.39
879.534	35.16
879.703	35.45
879.872	34.84
880.041	32.48
880.21	34.01
880.378	33.17
880.547	32.25
880.716	31.85
880.884	31.06
881.053	30.2
881.222	31.71
881.39	32.05
881.559	31.43
881.727	30.76
881.896	30.48
882.065	31.34
882.233	31.57
882.402	31.79
882.57	32
882.739	32.14
882.907	32.58
883.076	31.85
883.244	31.84
883.412	31.28
883.581	31.96
883.749	31.88
883.918	30.54
884.086	30.16
884.254	30.03
884.423	29.42
884.591	29.12
884.759	28.39
884.927	27.71
885.096	26.87
885.264	27.61
885.432	24.89
885.6	25.56
885.769	25.81
885.937	25.36
886.105	23.21
886.273	23.87
886.441	21.75
886.609	22.39
886.777	22.45
886.945	23.76
887.113	23.74
887.281	25.07
887.449	25.66
887.617	26.44
887.785	24.91
887.953	25.79
888.121	26.79
888.289	28.15
888.457	29.43
888.625	30.78
888.793	27.65
888.961	28.83
889.129	29.82
889.296	29.95
889.464	28.58
889.632	29.53
889.8	31.25
889.967	25.59
890.135	25.84
