Data from 2938517_Reflection_1.txt Node
Date: Tue Jun 16 22:29:03 EDT 2015
User: robert
Spectrometer: USB4E03002
Autoset integration time: false
Trigger mode: 4
Integration Time (sec): 1.000000E-1
Scans to average: 10
Electric dark correction enabled: true
Nonlinearity correction enabled: false
Boxcar width: 5
Stray light correction enabled: false
XAxis mode: Wavelengths
Stop averaging: false
Number of Pixels in Spectrum: 3648
>>>>>Begin Spectral Data<<<<<
177.575	31.48
177.794	17.63
178.014	11.64
178.233	45.91
178.452	107.01
178.672	137.57
178.891	127.31
179.11	-39.55
179.33	203.87
179.549	9.2
179.768	-15.76
179.987	0.29
180.207	-32.04
180.426	-2.04
180.645	-277.44
180.864	-50.12
181.084	39.15
181.303	68.34
181.522	78.16
181.741	98.45
181.96	73.19
182.179	53.9
182.398	81.69
182.618	70.36
182.837	74.2
183.056	50.8
183.275	84.77
183.494	73.57
183.713	53.11
183.932	55.32
184.151	143.38
184.37	533.98
184.589	77.4
184.808	58.82
185.027	132.29
185.246	105.53
185.465	119.43
185.684	71.68
185.903	106.34
186.122	85.8
186.341	81.32
186.56	100.46
186.779	155.93
186.998	263.06
187.216	334.13
187.435	177.82
187.654	194.19
187.873	318.17
188.092	278.44
188.311	202.5
188.53	157.48
188.748	342.04
188.967	662.37
189.186	-27.18
189.405	-4.59
189.623	-36.12
189.842	-57.98
190.061	-82.64
190.28	-88.78
190.498	-47.67
190.717	-45.7
190.936	2.52
191.154	11.65
191.373	-0.5
191.592	-1.98
191.81	-11.9
192.029	20.47
192.248	-14.81
192.466	-37.66
192.685	10.65
192.904	-46.56
193.122	-60.36
193.341	338.91
193.559	228.09
193.778	240.57
193.996	233.32
194.215	622.57
194.433	240.87
194.652	543.36
194.87	-2055.02
195.089	-321.84
195.307	-70.49
195.526	-11.08
195.744	68.51
195.963	110.96
196.181	104.61
196.399	136.65
196.618	159.14
196.836	127.18
197.055	106.96
197.273	146.38
197.491	156.66
197.71	99.36
197.928	135.71
198.146	112.09
198.365	61.3
198.583	5.01
198.801	12.59
199.019	-14.07
199.238	-23.88
199.456	-95.11
199.674	-52.73
199.892	22.42
200.111	70.52
200.329	21.06
200.547	18.64
200.765	20.66
200.983	32.93
201.202	13.8
201.42	25.57
201.638	11.95
201.856	26.98
202.074	31.39
202.292	25.77
202.51	24.42
202.728	46.12
202.946	64.79
203.165	108.94
203.383	106.34
203.601	103.24
203.819	95.97
204.037	115.18
204.255	83.13
204.473	67.77
204.691	48.72
204.909	45.96
205.127	42.83
205.345	28.06
205.562	1.18
205.78	34.67
205.998	20.81
206.216	7.39
206.434	27.85
206.652	24.22
206.87	45.47
207.088	84.8
207.306	89.93
207.523	48.67
207.741	80.21
207.959	78.47
208.177	53.32
208.395	44.93
208.612	48.24
208.83	34.03
209.048	29.45
209.266	33.59
209.483	23.84
209.701	7.82
209.919	28.49
210.136	28.42
210.354	35.44
210.572	36.3
210.79	43.37
211.007	53.99
211.225	43.31
211.442	54.4
211.66	43.02
211.878	41.6
212.095	22.24
212.313	15.6
212.53	16.74
212.748	5.34
212.966	8.38
213.183	13.24
213.401	7.29
213.618	19.04
213.836	19.43
214.053	21.01
214.271	24.34
214.488	66.8
214.705	73
214.923	58.16
215.14	60.46
215.358	44.88
215.575	31.72
215.793	30.14
216.01	26.02
216.227	18.79
216.445	37.03
216.662	38.63
216.879	44.49
217.097	42.53
217.314	45.11
217.531	43.06
217.749	38.14
217.966	52.26
218.183	41.07
218.4	33.97
218.618	33.68
218.835	23.09
219.052	10.47
219.269	0.97
219.487	-2.48
219.704	2.01
219.921	7.7
220.138	14.77
220.355	7.04
220.572	4.69
220.79	15.65
221.007	12.07
221.224	10.26
221.441	18.61
221.658	18.19
221.875	25.25
222.092	19.99
222.309	14.85
222.526	5.5
222.743	5.1
222.96	6.51
223.177	4.74
223.394	11.43
223.611	12.24
223.828	11.54
224.045	12.88
224.262	11.24
224.479	10.89
224.696	12.57
224.913	16.96
225.13	17.58
225.347	19.6
225.564	17.55
225.781	15.2
225.997	16.25
226.214	16.45
226.431	15.56
226.648	15.02
226.865	14.63
227.082	13.23
227.298	12.47
227.515	12.22
227.732	11.95
227.949	12.39
228.165	11.85
228.382	10.49
228.599	10.07
228.816	10.33
229.032	10.64
229.249	10.79
229.466	11.97
229.682	11.65
229.899	11.22
230.116	10.2
230.332	9.8
230.549	8.76
230.765	9.29
230.982	8.31
231.199	8.51
231.415	6.62
231.632	6.86
231.848	6.99
232.065	7.31
232.281	7.73
232.498	8.85
232.714	9.37
232.931	12.31
233.147	13.62
233.364	13.22
233.58	11.87
233.797	12.56
234.013	12.07
234.23	10.88
234.446	13.6
234.662	12.59
234.879	14.37
235.095	15.92
235.312	16
235.528	15.3
235.744	15.82
235.961	15.71
236.177	17.44
236.393	19.34
236.61	20.26
236.826	18.04
237.042	19.04
237.258	17.07
237.475	14.48
237.691	14.38
237.907	13.54
238.123	13.15
238.339	13.32
238.556	12.11
238.772	10.49
238.988	10.71
239.204	11.24
239.42	11.33
239.636	11.55
239.853	11.49
240.069	11.4
240.285	11.41
240.501	11.23
240.717	11.11
240.933	11.01
241.149	11.41
241.365	10.28
241.581	9.5
241.797	8.69
242.013	8.63
242.229	8.69
242.445	8.74
242.661	9.14
242.877	9.64
243.093	9.83
243.309	9.88
243.525	9.88
243.741	10.75
243.957	11.03
244.173	11.82
244.388	11.46
244.604	11.56
244.82	10.62
245.036	10.13
245.252	10.17
245.468	9.88
245.683	9.62
245.899	9.43
246.115	9.15
246.331	8.92
246.547	8.51
246.762	8.28
246.978	8.52
247.194	8.58
247.409	9.01
247.625	8.85
247.841	9.04
248.057	8.92
248.272	9.15
248.488	9.7
248.703	9.52
248.919	10.21
249.135	10.1
249.35	9.24
249.566	9.49
249.782	8.48
249.997	8.38
250.213	8.61
250.428	8.81
250.644	8.55
250.859	8.2
251.075	9.54
251.29	9.01
251.506	9.91
251.721	9.49
251.937	10.41
252.152	10.17
252.368	10.04
252.583	10.12
252.798	10.68
253.014	11.15
253.229	11.68
253.445	10.6
253.66	10.31
253.875	8.66
254.091	9.73
254.306	8.45
254.521	9.39
254.737	9.45
254.952	8.94
255.167	8.19
255.383	7.96
255.598	7.6
255.813	7.5
256.028	6.88
256.244	7.73
256.459	7.46
256.674	7.28
256.889	7.47
257.104	7.38
257.32	7.2
257.535	7.15
257.75	7.06
257.965	7.25
258.18	7.37
258.395	7.74
258.61	7.74
258.826	7.5
259.041	7.77
259.256	7.38
259.471	7.18
259.686	7.37
259.901	7.4
260.116	7.23
260.331	7.08
260.546	6.78
260.761	6.42
260.976	5.97
261.191	5.75
261.406	4.94
261.621	5.22
261.836	5.05
262.05	4.97
262.265	4.88
262.48	4.49
262.695	4.56
262.91	4.06
263.125	4.64
263.34	5.13
263.555	5.69
263.769	6.42
263.984	6.66
264.199	7.7
264.414	7.49
264.629	7.99
264.843	8.41
265.058	8.78
265.273	8.78
265.488	8.99
265.702	9.06
265.917	9.04
266.132	8.7
266.346	8.71
266.561	7.87
266.776	8.16
266.99	7.82
267.205	8.51
267.42	7.84
267.634	8.28
267.849	7.66
268.063	7.56
268.278	7.15
268.492	7.17
268.707	7.27
268.922	7.13
269.136	7.32
269.351	7.73
269.565	7.26
269.78	7.5
269.994	7.2
270.209	6.82
270.423	6.48
270.637	7.12
270.852	6.97
271.066	6.54
271.281	6.7
271.495	6.56
271.709	6.4
271.924	6.42
272.138	6.41
272.353	6.77
272.567	7.19
272.781	7.46
272.996	6.55
273.21	6.58
273.424	6.97
273.638	7.15
273.853	6.36
274.067	6.32
274.281	6.11
274.495	6.03
274.71	5.52
274.924	5.67
275.138	5.52
275.352	5.87
275.566	6.22
275.781	5.56
275.995	5.9
276.209	6.37
276.423	6.45
276.637	6.42
276.851	6.34
277.065	6.37
277.279	6.38
277.493	6.14
277.707	5.96
277.921	6.11
278.135	7.05
278.349	6.65
278.563	6.64
278.777	6.32
278.991	6.75
279.205	6.83
279.419	6.89
279.633	6.83
279.847	7.33
280.061	7.14
280.275	6.82
280.489	6.41
280.703	6.21
280.917	6.36
281.131	6.66
281.344	6.2
281.558	6.31
281.772	6.33
281.986	5.84
282.2	5.98
282.414	6.31
282.627	6.49
282.841	6.45
283.055	6.43
283.269	6.23
283.482	6.35
283.696	6.41
283.91	6.04
284.123	6.07
284.337	6.45
284.551	6.25
284.764	6.06
284.978	6.03
285.192	6
285.405	6.3
285.619	6.36
285.833	6.28
286.046	6.39
286.26	6.51
286.473	6.87
286.687	7.51
286.9	7.38
287.114	7.77
287.327	7.76
287.541	8.04
287.754	8
287.968	8.17
288.181	8.08
288.395	8.4
288.608	8.3
288.822	8.23
289.035	7.7
289.248	8.11
289.462	8.14
289.675	7.83
289.889	7.64
290.102	7.59
290.315	7.7
290.529	7.68
290.742	7.51
290.955	8.3
291.169	8.67
291.382	8.69
291.595	8.23
291.808	8.66
292.022	9.2
292.235	9.28
292.448	9.43
292.661	9.38
292.875	9.15
293.088	8.81
293.301	8.66
293.514	8.44
293.727	8.72
293.94	8.99
294.153	8.79
294.367	8.95
294.58	8.85
294.793	9.03
295.006	9.23
295.219	9.57
295.432	9.6
295.645	9.37
295.858	9.48
296.071	9.21
296.284	9.25
296.497	9.26
296.71	9.4
296.923	9.76
297.136	10
297.349	10.15
297.562	10.09
297.775	10.48
297.988	10.8
298.201	11.04
298.414	11.43
298.626	11.52
298.839	11.82
299.052	11.38
299.265	11.23
299.478	10.68
299.691	10.6
299.903	10.74
300.116	10.9
300.329	10.53
300.542	10.53
300.755	10.84
300.967	10.82
301.18	10.6
301.393	10.89
301.605	11.25
301.818	11.82
302.031	11.67
302.243	11.99
302.456	11.6
302.669	12.38
302.881	12.17
303.094	11.93
303.307	12.16
303.519	12.54
303.732	12.87
303.944	12.86
304.157	12.87
304.37	12.71
304.582	12.44
304.795	12.49
305.007	12.09
305.22	12.56
305.432	12.81
305.645	12.52
305.857	12.44
306.069	12.03
306.282	11.94
306.494	11.36
306.707	11.43
306.919	11.45
307.132	11.57
307.344	11.34
307.556	11.06
307.769	10.7
307.981	10.8
308.193	10.61
308.406	10.54
308.618	10.59
308.83	11.18
309.043	11.34
309.255	11.33
309.467	11.34
309.679	11.68
309.892	11.62
310.104	11.58
310.316	11.47
310.528	11.46
310.74	11.63
310.953	11.91
311.165	11.65
311.377	11.73
311.589	12.05
311.801	12.13
312.013	12.15
312.225	12.25
312.437	12.39
312.649	12.63
312.862	12.56
313.074	12.82
313.286	12.1
313.498	12.23
313.71	12.44
313.922	12.44
314.134	11.84
314.346	11.91
314.558	12
314.77	11.84
314.982	12.12
315.193	12.23
315.405	12.4
315.617	13.18
315.829	12.93
316.041	12.45
316.253	12.23
316.465	12.82
316.677	12.64
316.888	12.58
317.1	13.02
317.312	12.81
317.524	12.93
317.736	12.42
317.947	12.33
318.159	12.42
318.371	12.53
318.583	12.36
318.794	12.44
319.006	12.15
319.218	11.94
319.43	12.02
319.641	11.57
319.853	11.82
320.064	12.19
320.276	11.91
320.488	11.42
320.699	11.36
320.911	11.76
321.123	11.65
321.334	12.34
321.546	12.65
321.757	12.04
321.969	12.63
322.18	11.94
322.392	11.74
322.603	11.94
322.815	12.18
323.026	12.02
323.238	11.43
323.449	11.77
323.661	11.26
323.872	11.57
324.083	12.07
324.295	12
324.506	12.85
324.718	13
324.929	12.47
325.14	12.75
325.352	12.8
325.563	12.91
325.774	12.8
325.986	12.88
326.197	12.51
326.408	12.33
326.62	12.2
326.831	11.65
327.042	11.35
327.253	11.81
327.464	11.58
327.676	11.88
327.887	11.98
328.098	11.77
328.309	11.9
328.52	11.72
328.732	11.67
328.943	11.64
329.154	11.77
329.365	11.44
329.576	11.5
329.787	11.94
329.998	11.43
330.209	12.02
330.42	12.3
330.631	12.19
330.842	12.24
331.053	12.51
331.264	12.05
331.475	12.24
331.686	12.58
331.897	12.82
332.108	12.59
332.319	13.2
332.53	12.92
332.741	13.1
332.952	13.1
333.163	13.12
333.374	12.91
333.585	13.22
333.795	12.9
334.006	13.17
334.217	12.59
334.428	12.88
334.639	12.64
334.849	12.75
335.06	12.53
335.271	12.28
335.482	12.45
335.692	12.35
335.903	12.51
336.114	12.71
336.325	12.51
336.535	12.7
336.746	12.37
336.957	12.72
337.167	12.52
337.378	13.04
337.589	12.96
337.799	12.99
338.01	13.34
338.22	13.27
338.431	13.01
338.642	13
338.852	13.19
339.063	13.47
339.273	13.38
339.484	13.44
339.694	12.58
339.905	13.06
340.115	13.11
340.326	12.8
340.536	12.63
340.746	12.81
340.957	12.42
341.167	12.08
341.378	11.64
341.588	11.15
341.799	10.91
342.009	11.3
342.219	10.95
342.43	10.49
342.64	10.47
342.85	10.5
343.061	10.68
343.271	11
343.481	11.01
343.691	11.19
343.902	11.43
344.112	11.7
344.322	11.48
344.532	11.33
344.743	11.73
344.953	11.5
345.163	11.86
345.373	11.08
345.583	11.06
345.793	11.01
346.004	10.94
346.214	10.65
346.424	10.33
346.634	10.49
346.844	10.51
347.054	10.4
347.264	10.83
347.474	10.55
347.684	11.21
347.894	10.99
348.104	10.78
348.314	10.46
348.524	10.81
348.734	10.76
348.944	10.71
349.154	10.75
349.364	10.49
349.574	10.6
349.784	10.4
349.994	10.49
350.204	10.8
350.413	10.88
350.623	10.95
350.833	10.55
351.043	10.57
351.253	10.69
351.463	10.66
351.672	10.61
351.882	10.36
352.092	10.75
352.302	10.61
352.511	10.78
352.721	11.05
352.931	11.22
353.141	11.27
353.35	11.4
353.56	11.25
353.77	11.49
353.979	11.52
354.189	11.55
354.399	11.18
354.608	11.07
354.818	10.99
355.027	11.04
355.237	10.86
355.447	10.8
355.656	10.62
355.866	10.62
356.075	10.67
356.285	10.83
356.494	10.85
356.704	10.53
356.913	10.54
357.123	10.11
357.332	9.89
357.542	10.07
357.751	10.04
357.96	10.32
358.17	9.78
358.379	9.75
358.589	9.52
358.798	9.32
359.007	9.43
359.217	9.33
359.426	9.32
359.635	9.3
359.845	9.22
360.054	9.49
360.263	9.22
360.472	9.53
360.682	9.43
360.891	9.51
361.1	9.66
361.309	9.72
361.519	9.53
361.728	9.76
361.937	9.87
362.146	9.57
362.355	9.37
362.564	9.51
362.774	9.5
362.983	9.73
363.192	9.65
363.401	9.45
363.61	9.52
363.819	9.84
364.028	9.65
364.237	9.52
364.446	9.88
364.655	10.03
364.864	9.76
365.073	9.7
365.282	9.21
365.491	9.2
365.7	9.42
365.909	9.36
366.118	9.3
366.327	9.55
366.536	9.59
366.745	9.49
366.954	9.22
367.162	9.3
367.371	9.42
367.58	9.66
367.789	9.69
367.998	9.5
368.207	9.4
368.415	9.28
368.624	9.2
368.833	9.19
369.042	9.42
369.25	9.34
369.459	9.5
369.668	9.29
369.877	9.23
370.085	9.19
370.294	9.2
370.503	9.33
370.711	9.36
370.92	9.3
371.129	9.06
371.337	8.8
371.546	8.83
371.754	8.64
371.963	8.89
372.171	8.96
372.38	8.88
372.589	9.02
372.797	8.65
373.006	8.59
373.214	8.33
373.423	8.28
373.631	8.4
373.84	8.6
374.048	8.65
374.256	8.48
374.465	8.5
374.673	8.52
374.882	8.31
375.09	8.58
375.298	8.57
375.507	8.76
375.715	8.97
375.923	8.96
376.132	8.84
376.34	8.67
376.548	8.47
376.757	8.3
376.965	8.19
377.173	8.33
377.381	8.23
377.59	8.06
377.798	8.03
378.006	7.9
378.214	7.93
378.423	8.08
378.631	8.09
378.839	8.2
379.047	8.04
379.255	8.03
379.463	7.88
379.671	8.06
379.879	8.04
380.088	8.09
380.296	8.05
380.504	7.9
380.712	7.8
380.92	8.08
381.128	8.13
381.336	8.3
381.544	8.35
381.752	8.47
381.96	8.16
382.168	8.21
382.376	8.09
382.584	8.02
382.791	8.07
382.999	8.01
383.207	8
383.415	7.7
383.623	7.54
383.831	7.63
384.039	7.47
384.247	7.64
384.454	7.81
384.662	7.76
384.87	7.71
385.078	7.66
385.285	7.66
385.493	7.22
385.701	7.49
385.909	7.48
386.116	7.43
386.324	7.6
386.532	7.57
386.739	7.52
386.947	7.75
387.155	7.88
387.362	7.78
387.57	7.82
387.778	8.12
387.985	8.23
388.193	8.44
388.4	8.35
388.608	8.35
388.816	8.44
389.023	8.55
389.231	8.28
389.438	8.34
389.646	8.42
389.853	8.14
390.061	8.08
390.268	8.09
390.475	8.07
390.683	8.05
390.89	7.96
391.098	8.06
391.305	8.17
391.512	8.24
391.72	8.11
391.927	8.14
392.135	8.31
392.342	8.29
392.549	8.22
392.756	8.22
392.964	8.38
393.171	8.33
393.378	8.3
393.586	8.08
393.793	8.1
394	8.25
394.207	8.3
394.414	8.26
394.622	8.09
394.829	8
395.036	7.78
395.243	7.72
395.45	7.69
395.657	7.42
395.864	7.28
396.072	7.35
396.279	7.29
396.486	7.12
396.693	7.3
396.9	7.57
397.107	7.59
397.314	7.59
397.521	7.62
397.728	7.71
397.935	7.82
398.142	7.93
398.349	8.03
398.556	8.04
398.763	8.22
398.97	8.01
399.177	7.99
399.383	7.97
399.59	8.11
399.797	7.96
400.004	7.76
400.211	7.73
400.418	7.74
400.625	7.56
400.831	7.57
401.038	7.33
401.245	7.32
401.452	7.36
401.658	7.4
401.865	7.44
402.072	7.45
402.279	7.49
402.485	7.56
402.692	7.57
402.899	7.6
403.105	7.52
403.312	7.59
403.519	7.69
403.725	7.45
403.932	7.53
404.138	7.48
404.345	7.43
404.552	7.6
404.758	7.52
404.965	7.39
405.171	7.28
405.378	7.42
405.584	7.43
405.791	7.26
405.997	7.47
406.204	7.35
406.41	7.47
406.617	7.5
406.823	7.61
407.029	7.79
407.236	7.95
407.442	7.86
407.649	7.86
407.855	7.91
408.061	7.87
408.268	7.88
408.474	7.85
408.68	7.79
408.887	7.75
409.093	7.59
409.299	7.54
409.505	7.44
409.712	7.48
409.918	7.22
410.124	7.25
410.33	7.34
410.537	7.1
410.743	7.1
410.949	7.02
411.155	7.15
411.361	7.05
411.567	7.02
411.773	7
411.98	7.08
412.186	7.15
412.392	7.13
412.598	7.22
412.804	7.35
413.01	7.44
413.216	7.41
413.422	7.35
413.628	7.38
413.834	7.42
414.04	7.4
414.246	7.48
414.452	7.49
414.658	7.33
414.864	7.37
415.07	7.35
415.275	7.27
415.481	7.35
415.687	7.34
415.893	7.39
416.099	7.47
416.305	7.6
416.511	7.54
416.716	7.51
416.922	7.64
417.128	7.61
417.334	7.64
417.539	7.72
417.745	7.68
417.951	7.58
418.157	7.52
418.362	7.35
418.568	7.24
418.774	7.2
418.979	7.2
419.185	7.24
419.391	7.21
419.596	7.11
419.802	7.11
420.008	7.11
420.213	7.52
420.419	7.49
420.624	7.54
420.83	7.6
421.035	7.59
421.241	7.61
421.446	7.44
421.652	7.43
421.857	7.45
422.063	7.35
422.268	7.33
422.474	6.94
422.679	6.95
422.885	6.98
423.09	7
423.295	6.99
423.501	7
423.706	7.11
423.911	7.08
424.117	7.18
424.322	7.23
424.527	7.27
424.733	7.26
424.938	7.3
425.143	7.29
425.349	7.25
425.554	7.26
425.759	7.24
425.964	7.25
426.169	7.32
426.375	7.2
426.58	7.15
426.785	7.18
426.99	7.23
427.195	7.19
427.4	7.24
427.605	7.21
427.811	7.3
428.016	7.44
428.221	7.37
428.426	7.36
428.631	7.35
428.836	7.47
429.041	7.38
429.246	7.47
429.451	7.44
429.656	7.29
429.861	7.24
430.066	7.14
430.271	7.01
430.476	7.05
430.681	6.99
430.886	7.07
431.09	7.06
431.295	7.07
431.5	7.04
431.705	7.03
431.91	7.09
432.115	7.14
432.32	7.2
432.524	7.18
432.729	7.27
432.934	7.3
433.139	7.28
433.343	7.31
433.548	7.28
433.753	7.19
433.958	7.31
434.162	7.26
434.367	7.2
434.572	7.13
434.776	7.15
434.981	6.97
435.186	7.03
435.39	7
435.595	6.87
435.799	6.82
436.004	6.9
436.209	6.87
436.413	6.97
436.618	7.05
436.822	7.1
437.027	7.11
437.231	7.18
437.436	7.13
437.64	7.22
437.845	7.29
438.049	7.51
438.253	7.45
438.458	7.41
438.662	7.31
438.867	7.26
439.071	7.29
439.275	7.36
439.48	7.41
439.684	7.46
439.888	7.37
440.093	7.31
440.297	7.21
440.501	7.19
440.706	7.2
440.91	7.27
441.114	7.32
441.318	7.3
441.523	7.27
441.727	7.2
441.931	7.17
442.135	7.18
442.339	7.21
442.543	7.12
442.748	7.23
442.952	7.25
443.156	7.24
443.36	7.25
443.564	7.23
443.768	7.19
443.972	7.18
444.176	7.17
444.38	7.14
444.584	7.07
444.788	7.04
444.992	6.9
445.196	6.88
445.4	6.8
445.604	6.78
445.808	6.83
446.012	6.84
446.216	6.8
446.42	6.75
446.624	6.79
446.828	6.85
447.032	6.94
447.235	6.96
447.439	7.01
447.643	7.11
447.847	7.08
448.051	7.04
448.254	6.97
448.458	6.98
448.662	6.94
448.866	6.95
449.069	6.93
449.273	6.86
449.477	6.98
449.681	6.82
449.884	6.81
450.088	6.78
450.292	6.83
450.495	6.84
450.699	6.82
450.902	6.85
451.106	6.77
451.31	6.67
451.513	6.72
451.717	6.58
451.92	6.62
452.124	6.63
452.327	6.61
452.531	6.53
452.734	6.46
452.938	6.49
453.141	6.63
453.345	6.68
453.548	6.79
453.752	6.77
453.955	6.88
454.158	6.89
454.362	6.84
454.565	6.87
454.769	6.9
454.972	6.88
455.175	6.92
455.379	6.8
455.582	6.83
455.785	6.82
455.988	6.83
456.192	6.76
456.395	6.79
456.598	6.83
456.801	6.83
457.005	6.71
457.208	6.75
457.411	6.66
457.614	6.61
457.817	6.58
458.021	6.55
458.224	6.55
458.427	6.53
458.63	6.47
458.833	6.46
459.036	6.41
459.239	6.52
459.442	6.56
459.645	6.61
459.848	6.54
460.051	6.54
460.254	6.55
460.457	6.47
460.66	6.44
460.863	6.52
461.066	6.41
461.269	6.46
461.472	6.34
461.675	6.28
461.878	6.26
462.081	6.37
462.284	6.35
462.486	6.27
462.689	6.34
462.892	6.42
463.095	6.38
463.298	6.5
463.5	6.46
463.703	6.64
463.906	6.7
464.109	6.73
464.311	6.79
464.514	6.73
464.717	6.84
464.92	6.96
465.122	6.96
465.325	7
465.528	6.98
465.73	7
465.933	6.96
466.135	6.95
466.338	6.88
466.541	6.86
466.743	6.96
466.946	7.01
467.148	6.93
467.351	6.91
467.553	6.95
467.756	6.95
467.958	6.92
468.161	6.85
468.363	6.85
468.566	7.05
468.768	7.18
468.971	7.16
469.173	7.07
469.375	7.07
469.578	7.09
469.78	7.07
469.983	7.05
470.185	7.05
470.387	7.13
470.59	7.12
470.792	6.98
470.994	6.8
471.196	6.83
471.399	6.89
471.601	6.9
471.803	6.9
472.005	6.85
472.208	6.83
472.41	6.95
472.612	6.86
472.814	6.87
473.016	6.98
473.218	7.1
473.421	7.12
473.623	7.09
473.825	7.05
474.027	7.09
474.229	7.06
474.431	7.14
474.633	7.09
474.835	7.14
475.037	7.21
475.239	7.16
475.441	7.13
475.643	7.12
475.845	7.05
476.047	7.05
476.249	7
476.451	6.99
476.653	6.98
476.855	6.94
477.057	6.93
477.258	6.83
477.46	6.74
477.662	6.67
477.864	6.59
478.066	6.65
478.268	6.6
478.469	6.6
478.671	6.65
478.873	6.57
479.075	6.63
479.276	6.65
479.478	6.7
479.68	6.71
479.882	6.77
480.083	6.8
480.285	6.8
480.487	6.86
480.688	6.91
480.89	6.89
481.091	7.01
481.293	6.93
481.495	6.91
481.696	6.87
481.898	6.86
482.099	6.83
482.301	6.84
482.502	6.87
482.704	6.85
482.905	6.83
483.107	6.81
483.308	6.76
483.51	6.74
483.711	6.73
483.913	6.73
484.114	6.76
484.315	6.75
484.517	6.72
484.718	6.67
484.92	6.7
485.121	6.7
485.322	6.73
485.524	6.74
485.725	6.79
485.926	6.81
486.127	6.79
486.329	6.75
486.53	6.75
486.731	6.73
486.932	6.72
487.134	6.7
487.335	6.72
487.536	6.75
487.737	6.74
487.938	6.71
488.139	6.71
488.341	6.76
488.542	6.77
488.743	6.79
488.944	6.86
489.145	6.9
489.346	6.87
489.547	6.88
489.748	6.86
489.949	6.88
490.15	6.9
490.351	6.9
490.552	6.93
490.753	6.93
490.954	6.95
491.155	6.93
491.356	6.94
491.557	7
491.758	7
491.959	6.99
492.159	7.02
492.36	7.02
492.561	7.01
492.762	6.97
492.963	6.95
493.164	6.92
493.364	6.92
493.565	6.98
493.766	6.92
493.967	6.91
494.167	6.91
494.368	6.9
494.569	6.93
494.769	6.91
494.97	6.92
495.171	7
495.371	7.06
495.572	7.11
495.773	7.12
495.973	7.16
496.174	7.23
496.375	7.28
496.575	7.23
496.776	7.25
496.976	7.34
497.177	7.31
497.377	7.35
497.578	7.4
497.778	7.39
497.979	7.29
498.179	7.33
498.38	7.3
498.58	7.32
498.78	7.4
498.981	7.45
499.181	7.4
499.382	7.45
499.582	7.44
499.782	7.34
499.983	7.37
500.183	7.48
500.383	7.48
500.584	7.49
500.784	7.41
500.984	7.44
501.184	7.43
501.385	7.48
501.585	7.51
501.785	7.59
501.985	7.62
502.185	7.69
502.386	7.68
502.586	7.69
502.786	7.66
502.986	7.72
503.186	7.74
503.386	7.71
503.586	7.75
503.786	7.84
503.987	7.8
504.187	7.9
504.387	7.89
504.587	7.9
504.787	7.9
504.987	7.93
505.187	8.02
505.387	8.06
505.587	8.08
505.786	8.08
505.986	8.05
506.186	8.13
506.386	8.14
506.586	8.12
506.786	8.18
506.986	8.23
507.186	8.31
507.386	8.39
507.585	8.45
507.785	8.55
507.985	8.54
508.185	8.63
508.384	8.6
508.584	8.65
508.784	8.69
508.984	8.73
509.183	8.71
509.383	8.7
509.583	8.71
509.782	8.64
509.982	8.63
510.182	8.68
510.381	8.6
510.581	8.63
510.781	8.6
510.98	8.68
511.18	8.66
511.379	8.7
511.579	8.7
511.778	8.6
511.978	8.65
512.177	8.7
512.377	8.69
512.576	8.78
512.776	8.79
512.975	8.88
513.175	8.87
513.374	8.97
513.573	9.11
513.773	9.12
513.972	9.24
514.172	9.26
514.371	9.32
514.57	9.42
514.77	9.48
514.969	9.6
515.168	9.57
515.367	9.63
515.567	9.61
515.766	9.55
515.965	9.63
516.164	9.66
516.364	9.75
516.563	9.8
516.762	9.82
516.961	9.77
517.16	9.71
517.359	9.83
517.559	9.8
517.758	9.82
517.957	9.87
518.156	9.84
518.355	9.89
518.554	9.88
518.753	9.76
518.952	9.74
519.151	9.75
519.35	9.82
519.549	9.74
519.748	9.8
519.947	9.85
520.146	9.9
520.345	9.97
520.544	9.99
520.743	10
520.942	10.18
521.141	10.2
521.339	10.34
521.538	10.27
521.737	10.34
521.936	10.37
522.135	10.37
522.333	10.38
522.532	10.39
522.731	10.33
522.93	10.43
523.129	10.46
523.327	10.51
523.526	10.52
523.725	10.63
523.923	10.67
524.122	10.7
524.321	10.71
524.519	10.76
524.718	10.8
524.917	10.89
525.115	10.88
525.314	10.87
525.512	10.93
525.711	10.99
525.909	11.04
526.108	11.11
526.306	11.12
526.505	11.14
526.703	11.16
526.902	11.18
527.1	11.22
527.299	11.25
527.497	11.28
527.696	11.28
527.894	11.26
528.092	11.22
528.291	11.2
528.489	11.2
528.688	11.18
528.886	11.16
529.084	11.18
529.283	11.14
529.481	11.14
529.679	11.2
529.877	11.26
530.076	11.32
530.274	11.42
530.472	11.47
530.67	11.57
530.869	11.68
531.067	11.82
531.265	11.83
531.463	11.84
531.661	11.85
531.859	11.87
532.057	11.88
532.255	11.89
532.454	11.87
532.652	11.93
532.85	11.9
533.048	11.93
533.246	11.87
533.444	11.93
533.642	11.97
533.84	12.02
534.038	12.06
534.236	12.06
534.434	12.08
534.632	12.12
534.83	12.15
535.027	12.21
535.225	12.23
535.423	12.27
535.621	12.3
535.819	12.34
536.017	12.35
536.215	12.4
536.412	12.44
536.61	12.47
536.808	12.48
537.006	12.45
537.203	12.4
537.401	12.38
537.599	12.4
537.797	12.46
537.994	12.5
538.192	12.55
538.39	12.52
538.587	12.53
538.785	12.6
538.983	12.69
539.18	12.69
539.378	12.75
539.575	12.82
539.773	12.83
539.97	12.81
540.168	12.81
540.366	12.83
540.563	12.82
540.761	12.83
540.958	12.81
541.155	12.81
541.353	12.88
541.55	12.95
541.748	12.97
541.945	12.99
542.143	12.94
542.34	12.97
542.537	12.96
542.735	13.02
542.932	13.09
543.129	13.16
543.327	13.19
543.524	13.15
543.721	13.18
543.919	13.12
544.116	13.15
544.313	13.3
544.51	13.32
544.708	13.39
544.905	13.39
545.102	13.38
545.299	13.44
545.496	13.47
545.693	13.51
545.891	13.51
546.088	13.61
546.285	13.67
546.482	13.64
546.679	13.69
546.876	13.7
547.073	13.8
547.27	13.81
547.467	13.73
547.664	13.77
547.861	13.79
548.058	13.82
548.255	13.79
548.452	13.81
548.649	13.85
548.846	13.98
549.043	13.96
549.24	13.94
549.437	14.07
549.633	14.18
549.83	14.25
550.027	14.4
550.224	14.36
550.421	14.57
550.618	14.62
550.814	14.77
551.011	14.71
551.208	14.83
551.405	14.84
551.601	14.9
551.798	14.84
551.995	14.88
552.191	14.89
552.388	14.97
552.585	14.99
552.781	15.03
552.978	15.02
553.175	15.06
553.371	15.1
553.568	15.22
553.764	15.3
553.961	15.45
554.157	15.47
554.354	15.41
554.55	15.51
554.747	15.47
554.943	15.41
555.14	15.51
555.336	15.53
555.533	15.62
555.729	15.69
555.926	15.6
556.122	15.59
556.318	15.54
556.515	15.85
556.711	15.86
556.907	16.02
557.104	16.15
557.3	16.17
557.496	16.23
557.693	16.32
557.889	16.36
558.085	16.53
558.281	16.61
558.478	16.77
558.674	16.63
558.87	16.74
559.066	16.73
559.262	16.91
559.459	16.96
559.655	17.07
559.851	17.01
560.047	17.12
560.243	17.11
560.439	17.19
560.635	17.22
560.831	17.33
561.027	17.37
561.223	17.45
561.419	17.38
561.615	17.42
561.811	17.58
562.007	17.74
562.203	17.66
562.399	17.78
562.595	17.8
562.791	17.78
562.987	17.84
563.183	17.85
563.379	17.95
563.575	17.89
563.771	17.97
563.966	17.99
564.162	18.02
564.358	18.08
564.554	18.17
564.75	18.28
564.945	18.39
565.141	18.36
565.337	18.43
565.533	18.42
565.728	18.59
565.924	18.65
566.12	18.64
566.315	18.7
566.511	18.78
566.707	18.67
566.902	18.67
567.098	18.73
567.293	18.97
567.489	18.99
567.684	19.07
567.88	19.09
568.076	19.13
568.271	19.19
568.467	19.22
568.662	19.43
568.858	19.63
569.053	19.75
569.248	19.96
569.444	19.99
569.639	20.11
569.835	20.15
570.03	20.21
570.225	20.31
570.421	20.44
570.616	20.49
570.812	20.51
571.007	20.55
571.202	20.55
571.397	20.47
571.593	20.46
571.788	20.5
571.983	20.57
572.178	20.62
572.374	20.7
572.569	20.76
572.764	20.79
572.959	20.77
573.154	20.83
573.35	20.91
573.545	20.95
573.74	20.95
573.935	21.03
574.13	21.07
574.325	21.21
574.52	21.22
574.715	21.27
574.91	21.29
575.105	21.29
575.3	21.24
575.495	21.22
575.69	21.3
575.885	21.38
576.08	21.3
576.275	21.25
576.47	21.22
576.665	21.21
576.86	21.22
577.055	21.32
577.25	21.3
577.444	21.53
577.639	21.64
577.834	21.6
578.029	21.71
578.224	21.91
578.418	22.03
578.613	22.09
578.808	22.13
579.003	22.16
579.197	22.12
579.392	22.33
579.587	22.2
579.781	22.23
579.976	22.38
580.171	22.36
580.365	22.29
580.56	22.41
580.755	22.48
580.949	22.63
581.144	22.49
581.338	22.65
581.533	22.65
581.727	22.82
581.922	22.95
582.116	22.95
582.311	22.94
582.505	22.99
582.7	22.99
582.894	22.99
583.089	22.83
583.283	22.96
583.478	23.07
583.672	23.07
583.866	23.09
584.061	22.99
584.255	22.9
584.449	22.97
584.644	23.02
584.838	22.82
585.032	22.84
585.226	23.07
585.421	23.05
585.615	22.96
585.809	22.99
586.003	23.03
586.198	23.12
586.392	23.2
586.586	23.05
586.78	23.07
586.974	23.19
587.168	23.11
587.363	23.1
587.557	23.21
587.751	23.26
587.945	23.27
588.139	23.31
588.333	23.27
588.527	23.34
588.721	23.57
588.915	23.63
589.109	23.62
589.303	23.75
589.497	23.84
589.691	23.82
589.885	23.83
590.079	23.92
590.273	23.97
590.466	24.03
590.66	24.07
590.854	24
591.048	24.05
591.242	24.02
591.436	24.09
591.629	24.19
591.823	24.2
592.017	24.31
592.211	24.13
592.404	24.09
592.598	24.08
592.792	24
592.986	24.05
593.179	24.03
593.373	24.15
593.567	24.06
593.76	23.98
593.954	24.04
594.147	24.1
594.341	24.3
594.535	24.42
594.728	24.53
594.922	24.66
595.115	24.7
595.309	24.72
595.502	24.78
595.696	24.9
595.889	24.84
596.083	24.79
596.276	24.73
596.47	24.69
596.663	24.63
596.856	24.61
597.05	24.63
597.243	24.55
597.437	24.54
597.63	24.55
597.823	24.54
598.017	24.6
598.21	24.77
598.403	24.71
598.596	24.72
598.79	24.78
598.983	24.7
599.176	24.74
599.369	24.8
599.563	24.87
599.756	24.89
599.949	24.84
600.142	24.81
600.335	24.72
600.528	24.74
600.722	24.81
600.915	24.85
601.108	24.92
601.301	24.97
601.494	24.95
601.687	24.98
601.88	25.07
602.073	25.17
602.266	25.12
602.459	25.09
602.652	25.15
602.845	25.1
603.038	25.11
603.231	25.18
603.424	25.12
603.617	25.16
603.809	25.09
604.002	25.04
604.195	24.89
604.388	25.1
604.581	25.17
604.774	25.21
604.966	25.29
605.159	25.26
605.352	25.21
605.545	25.23
605.737	25.35
605.93	25.48
606.123	25.47
606.316	25.6
606.508	25.57
606.701	25.54
606.894	25.55
607.086	25.67
607.279	25.68
607.471	25.76
607.664	25.82
607.857	25.62
608.049	25.6
608.242	25.66
608.434	25.68
608.627	25.55
608.819	25.66
609.012	25.51
609.204	25.38
609.397	25.34
609.589	25.31
609.782	25.25
609.974	25.44
610.166	25.52
610.359	25.61
610.551	25.76
610.743	25.77
610.936	25.61
611.128	25.74
611.32	25.74
611.513	25.86
611.705	25.84
611.897	25.82
612.09	25.82
612.282	25.77
612.474	25.59
612.666	25.46
612.858	25.51
613.051	25.75
613.243	25.74
613.435	25.79
613.627	25.62
613.819	25.66
614.011	25.64
614.203	25.66
614.395	25.68
614.588	25.79
614.78	25.61
614.972	25.63
615.164	25.44
615.356	25.44
615.548	25.54
615.74	25.56
615.932	25.52
616.124	25.66
616.315	25.6
616.507	25.61
616.699	25.61
616.891	25.84
617.083	25.88
617.275	25.98
617.467	26.02
617.659	26
617.85	26.23
618.042	26.28
618.234	26.08
618.426	26.18
618.618	26.15
618.809	26.11
619.001	25.99
619.193	26.04
619.384	25.89
619.576	26.05
619.768	25.98
619.959	25.88
620.151	25.87
620.343	26.16
620.534	26.22
620.726	26.1
620.917	26.16
621.109	26.37
621.301	26.21
621.492	26.31
621.684	26.23
621.875	26.33
622.067	26.42
622.258	26.44
622.45	26.32
622.641	26.19
622.832	26.27
623.024	26.33
623.215	26.2
623.407	26.39
623.598	26.52
623.789	26.6
623.981	26.5
624.172	26.4
624.363	26.28
624.555	26.36
624.746	26.47
624.937	26.45
625.129	26.38
625.32	26.46
625.511	26.43
625.702	26.47
625.893	26.38
626.085	26.48
626.276	26.38
626.467	26.47
626.658	26.43
626.849	26.32
627.04	26.53
627.231	26.58
627.422	26.51
627.614	26.42
627.805	26.34
627.996	26.3
628.187	26.26
628.378	26.58
628.569	26.53
628.76	26.41
628.951	26.47
629.142	26.24
629.332	26.26
629.523	26.33
629.714	26.59
629.905	26.64
630.096	26.71
630.287	26.73
630.478	26.62
630.669	26.77
630.859	26.92
631.05	26.88
631.241	26.88
631.432	26.78
631.623	26.79
631.813	26.57
632.004	26.62
632.195	26.62
632.385	26.59
632.576	26.58
632.767	26.37
632.957	26.38
633.148	26.54
633.339	26.56
633.529	26.68
633.72	26.58
633.91	26.73
634.101	26.58
634.292	26.71
634.482	26.74
634.673	26.59
634.863	26.94
635.054	26.99
635.244	26.9
635.435	26.94
635.625	26.87
635.815	26.95
636.006	26.92
636.196	26.73
636.387	26.73
636.577	26.78
636.767	26.98
636.958	26.79
637.148	26.62
637.338	26.7
637.529	26.88
637.719	27.13
637.909	27.18
638.099	27.18
638.29	27.53
638.48	27.34
638.67	27.26
638.86	27.23
639.05	27.31
639.241	27.6
639.431	27.62
639.621	27.54
639.811	27.38
640.001	27.37
640.191	27.2
640.381	27.21
640.571	27.32
640.761	27.42
640.951	27.46
641.141	27.38
641.331	27.52
641.521	27.61
641.711	27.55
641.901	27.54
642.091	27.55
642.281	27.8
642.471	27.74
642.661	27.66
642.851	27.55
643.041	27.38
643.231	27.33
643.42	27.16
643.61	26.84
643.8	26.75
643.99	26.63
644.18	26.6
644.369	26.41
644.559	26.51
644.749	26.35
644.939	26.34
645.128	26.51
645.318	26.64
645.508	26.48
645.697	26.58
645.887	26.7
646.076	26.73
646.266	26.54
646.456	26.48
646.645	26.27
646.835	26.39
647.024	26.54
647.214	26.53
647.403	26.39
647.593	26.31
647.782	26.34
647.972	26.49
648.161	26.59
648.351	26.77
648.54	26.85
648.73	26.93
648.919	27.23
649.108	27.16
649.298	27.02
649.487	27.17
649.677	27.4
649.866	27.4
650.055	27.4
650.244	27.52
650.434	27.75
650.623	27.9
650.812	28.14
651.002	27.88
651.191	28.01
651.38	28.19
651.569	28.05
651.758	28
651.947	28.16
652.137	28.07
652.326	28.02
652.515	27.89
652.704	27.97
652.893	27.67
653.082	27.63
653.271	27.45
653.46	27.41
653.649	27.41
653.838	27.39
654.027	27.37
654.216	27.39
654.405	27.46
654.594	27.27
654.783	27.1
654.972	27.29
655.161	27.35
655.35	27.41
655.539	27.24
655.728	27.49
655.916	27.58
656.105	27.51
656.294	27.43
656.483	27.19
656.672	27.12
656.86	27.18
657.049	27.2
657.238	27.44
657.427	27.46
657.615	27.54
657.804	27.32
657.993	27.32
658.181	27.37
658.37	27.4
658.559	27.44
658.747	27.64
658.936	27.56
659.125	27.45
659.313	27.28
659.502	27.33
659.69	27.3
659.879	27.39
660.067	27.31
660.256	27.17
660.444	27.19
660.633	27.19
660.821	27.4
661.01	27.44
661.198	27.64
661.387	27.8
661.575	27.95
661.763	28.15
661.952	28.45
662.14	28.35
662.328	28.59
662.517	28.5
662.705	28.63
662.893	28.5
663.082	28.54
663.27	28.37
663.458	28.13
663.646	27.81
663.834	27.65
664.023	27.51
664.211	27.54
664.399	27.54
664.587	27.64
664.775	27.6
664.963	27.57
665.152	27.7
665.34	27.79
665.528	27.8
665.716	28.03
665.904	28.14
666.092	28.16
666.28	28.43
666.468	28.21
666.656	28.14
666.844	28.39
667.032	28.4
667.22	27.95
667.408	27.95
667.596	28.02
667.784	27.9
667.971	27.8
668.159	27.7
668.347	27.52
668.535	27.69
668.723	27.71
668.911	27.4
669.098	27.27
669.286	27.65
669.474	27.66
669.662	27.74
669.849	27.96
670.037	27.91
670.225	28.02
670.413	28.13
670.6	27.93
670.788	27.97
670.976	28.1
671.163	28.22
671.351	28.3
671.538	28.3
671.726	28.32
671.913	28.11
672.101	28.21
672.289	27.97
672.476	27.71
672.664	27.76
672.851	27.86
673.039	27.7
673.226	27.76
673.413	27.8
673.601	27.89
673.788	27.89
673.976	27.84
674.163	27.81
674.35	27.86
674.538	28.13
674.725	28.36
674.912	28.32
675.1	28.23
675.287	28.02
675.474	27.81
675.662	27.79
675.849	27.61
676.036	27.67
676.223	27.44
676.411	27.5
676.598	27.55
676.785	27.36
676.972	27.42
677.159	27.61
677.346	27.74
677.533	28
677.721	27.83
677.908	28.06
678.095	28.15
678.282	28.5
678.469	28.47
678.656	28.21
678.843	28.32
679.03	28.25
679.217	28.17
679.404	28.19
679.591	28.07
679.778	28.08
679.964	27.91
680.151	27.94
680.338	28
680.525	28.01
680.712	28.2
680.899	28.46
681.086	28.3
681.272	28.41
681.459	28.42
681.646	28.31
681.833	28.32
682.02	28.57
682.206	28.64
682.393	28.39
682.58	28.65
682.766	28.42
682.953	27.92
683.14	28.08
683.326	28.19
683.513	28.08
683.7	28.09
683.886	28.11
684.073	28.04
684.259	27.88
684.446	28.09
684.632	27.95
684.819	28.21
685.005	28.52
685.192	28.26
685.378	27.99
685.565	28.06
685.751	28.03
685.938	28.02
686.124	28.06
686.31	27.81
686.497	27.62
686.683	27.71
686.87	27.61
687.056	27.47
687.242	27.43
687.429	27.66
687.615	27.76
687.801	27.7
687.987	27.69
688.174	27.55
688.36	27.94
688.546	27.85
688.732	27.91
688.918	27.64
689.105	27.79
689.291	28.01
689.477	28.17
689.663	28.13
689.849	28.19
690.035	28.23
690.221	28.43
690.407	28.44
690.593	28.53
690.779	28.2
690.965	28.74
691.151	28.4
691.337	28.29
691.523	28.1
691.709	27.87
691.895	27.93
692.081	28.05
692.267	27.95
692.453	27.62
692.639	27.73
692.825	27.85
693.011	27.65
693.196	27.92
693.382	28.23
693.568	28.44
693.754	28.77
693.94	29.03
694.125	29.16
694.311	29.34
694.497	29.58
694.682	29.44
694.868	29.35
695.054	29.24
695.239	29.26
695.425	29.04
695.611	28.82
695.796	28.45
695.982	28.34
696.168	28.23
696.353	28.11
696.539	27.89
696.724	27.97
696.91	28.06
697.095	28.29
697.281	28.15
697.466	28.38
697.652	28.53
697.837	28.55
698.023	28.58
698.208	28.53
698.393	28.56
698.579	28.72
698.764	28.79
698.949	28.93
699.135	28.99
699.32	29.24
699.505	29.02
699.691	29
699.876	29.12
700.061	29.1
700.246	29.26
700.432	29.21
700.617	29.19
700.802	29.25
700.987	28.83
701.172	28.59
701.358	28.57
701.543	28.94
701.728	28.51
701.913	28.63
702.098	28.89
702.283	29.06
702.468	29.09
702.653	29.26
702.838	29.15
703.023	29.15
703.208	29.2
703.393	29.36
703.578	28.87
703.763	29.19
703.948	29.21
704.133	28.95
704.318	28.91
704.503	28.62
704.688	28.55
704.873	28.54
705.057	28.63
705.242	28.54
705.427	28.15
705.612	28.42
705.797	28.26
705.981	28.42
706.166	28.41
706.351	28.43
706.536	28.67
706.72	28.7
706.905	28.63
707.09	28.84
707.274	28.79
707.459	28.79
707.644	28.55
707.828	28.53
708.013	28.33
708.197	28.52
708.382	27.95
708.567	28.16
708.751	28
708.936	28.31
709.12	28.1
709.305	28.01
709.489	27.87
709.673	27.96
709.858	27.96
710.042	27.98
710.227	27.72
710.411	27.83
710.596	27.23
710.78	27.3
710.964	27.1
711.149	27.38
711.333	27.58
711.517	28.12
711.702	28.14
711.886	28.19
712.07	28.25
712.254	28.39
712.438	28.72
712.623	29.03
712.807	28.95
712.991	28.96
713.175	28.81
713.359	28.86
713.544	28.66
713.728	28.67
713.912	28.66
714.096	28.5
714.28	28.52
714.464	28.67
714.648	28.87
714.832	29.05
715.016	29.17
715.2	29.42
715.384	29.35
715.568	29.24
715.752	29.14
715.936	29.27
716.12	29.5
716.304	29.48
716.488	29.17
716.671	29.01
716.855	28.72
717.039	28.57
717.223	28.43
717.407	28.3
717.59	28.36
717.774	28.55
717.958	28.2
718.142	27.78
718.325	27.72
718.509	27.74
718.693	27.94
718.877	28.02
719.06	28.06
719.244	27.99
719.428	28.2
719.611	28.38
719.795	28.59
719.978	28.85
720.162	28.83
720.345	29.06
720.529	29.28
720.713	29.14
720.896	29.73
721.08	29.67
721.263	30.11
721.446	30.2
721.63	29.83
721.813	30.09
721.997	29.96
722.18	30.8
722.364	30.57
722.547	30.37
722.73	30.35
722.914	30.38
723.097	30.22
723.28	29.17
723.464	29.32
723.647	29.49
723.83	28.82
724.013	29.23
724.197	28.74
724.38	28.51
724.563	28.55
724.746	29.01
724.929	28.33
725.112	29.1
725.296	29.77
725.479	29.49
725.662	29.52
725.845	29.64
726.028	29.5
726.211	29.48
726.394	29.51
726.577	29.4
726.76	28.94
726.943	29.24
727.126	29.05
727.309	28.78
727.492	28.61
727.675	28.53
727.858	28.67
728.041	28.45
728.224	28.68
728.407	28.77
728.589	28.79
728.772	29.07
728.955	28.85
729.138	28.62
729.321	28.53
729.503	29.04
729.686	29.12
729.869	28.84
730.052	29.31
730.234	29.1
730.417	29.17
730.6	29.07
730.782	28.64
730.965	28.7
731.148	28.16
731.33	28.36
731.513	27.87
731.695	27.61
731.878	27.85
732.061	27.72
732.243	27.46
732.426	27.69
732.608	28.24
732.791	28.21
732.973	28.24
733.156	29.17
733.338	29.21
733.52	29.66
733.703	29.79
733.885	29.87
734.068	30.08
734.25	30.12
734.432	29.62
734.615	29.3
734.797	29.72
734.979	29.95
735.162	29.49
735.344	29.55
735.526	29.09
735.708	29.43
735.891	29.35
736.073	29.22
736.255	29.29
736.437	29.47
736.619	29.09
736.802	28.96
736.984	28.7
737.166	28.66
737.348	29.1
737.53	28.81
737.712	28.58
737.894	28.32
738.076	28.26
738.258	28.26
738.44	28.25
738.622	28.7
738.804	28.5
738.986	28.4
739.168	27.96
739.35	27.6
739.532	27.8
739.714	27.83
739.896	27.85
740.078	27.76
740.259	28.08
740.441	28.13
740.623	27.98
740.805	28.03
740.987	28.75
741.168	29.28
741.35	29.22
741.532	29.29
741.714	29.16
741.895	29.38
742.077	29.3
742.259	28.93
742.44	28.99
742.622	28.73
742.804	29.02
742.985	28.34
743.167	28.36
743.348	28.7
743.53	29.04
743.711	29.36
743.893	29.11
744.075	28.86
744.256	29.38
744.438	29.36
744.619	29.52
744.8	29.04
744.982	29.03
745.163	28.6
745.345	27.72
745.526	27.56
745.707	27.7
745.889	27.95
746.07	27.81
746.252	27.18
746.433	27.37
746.614	26.81
746.795	26.91
746.977	26.79
747.158	26.72
747.339	27.56
747.52	27.41
747.702	27.48
747.883	27.46
748.064	27.68
748.245	28.1
748.426	28.02
748.607	28.39
748.788	28.55
748.97	28.22
749.151	28.82
749.332	28.38
749.513	28.17
749.694	27.61
749.875	27.33
750.056	27.78
750.237	28.35
750.418	28.23
750.599	28.12
750.78	28.24
750.96	28.81
751.141	28.66
751.322	28.29
751.503	28.29
751.684	28.37
751.865	28.52
752.046	28.18
752.226	27.61
752.407	27.54
752.588	27.57
752.769	27.23
752.949	26.93
753.13	26.61
753.311	27.86
753.492	27.3
753.672	27.14
753.853	27.59
754.034	28.02
754.214	27.85
754.395	28.07
754.575	28.35
754.756	28.53
754.937	28.43
755.117	29.18
755.298	28.71
755.478	29.54
755.659	30.1
755.839	29.23
756.02	28.89
756.2	29.19
756.381	28.72
756.561	28.47
756.741	28.85
756.922	29.17
757.102	28.82
757.283	28.53
757.463	28.18
757.643	28.11
757.823	28.8
758.004	29.03
758.184	28.66
758.364	28.58
758.545	28.99
758.725	28.13
758.905	28.25
759.085	27.72
759.265	27.64
759.446	27.61
759.626	27.42
759.806	27.45
759.986	27.04
760.166	26.75
760.346	26.64
760.526	26.21
760.706	26.87
760.886	26.7
761.066	27.45
761.246	27.51
761.426	27.91
761.606	27.61
761.786	27.52
761.966	27.25
762.146	28.1
762.326	27.7
762.506	27.93
762.686	27.66
762.866	27.77
763.046	27.69
763.225	27.59
763.405	27.53
763.585	27.84
763.765	27.56
763.945	27.9
764.124	27.14
764.304	27.9
764.484	27.68
764.664	27.86
764.843	27.7
765.023	27.64
765.203	27.42
765.382	27.65
765.562	27.91
765.741	28.25
765.921	28.39
766.101	28.63
766.28	28.57
766.46	28.09
766.639	27.98
766.819	28.16
766.998	28.12
767.178	28.66
767.357	28.24
767.537	28.19
767.716	27.81
767.896	27.24
768.075	27.93
768.254	27.99
768.434	28.36
768.613	28.42
768.792	28.72
768.972	28.71
769.151	28.61
769.33	28.99
769.51	27.98
769.689	28.09
769.868	28.21
770.047	27.87
770.226	27.58
770.406	28.03
770.585	28.2
770.764	27.41
770.943	26.93
771.122	26.1
771.301	25.82
771.48	26.53
771.66	26.47
771.839	27.11
772.018	27.19
772.197	27.84
772.376	27.98
772.555	27.49
772.734	28.33
772.913	28.88
773.092	29.12
773.271	29.82
773.449	29.98
773.628	30
773.807	29.61
773.986	28.75
774.165	28.87
774.344	29.26
774.523	29.22
774.701	28.41
774.88	28.38
775.059	28.48
775.238	27.49
775.417	26.89
775.595	27.52
775.774	27.6
775.953	28.35
776.131	27.71
776.31	27.6
776.489	27.5
776.667	28.41
776.846	27.6
777.025	27.92
777.203	28.45
777.382	29.15
777.56	28.42
777.739	27.61
777.917	27.54
778.096	27.89
778.274	27.26
778.453	27.53
778.631	27.52
778.81	28.45
778.988	27.49
779.166	27.53
779.345	26.86
779.523	27.2
779.702	28.55
779.88	28.35
780.058	28.57
780.237	29.13
780.415	28.92
780.593	28.32
780.771	28.2
780.95	29.07
781.128	29.5
781.306	30.13
781.484	29.9
781.662	29.63
781.841	29.34
782.019	28.36
782.197	27.8
782.375	28.35
782.553	28.37
782.731	28.5
782.909	28.78
783.087	28.79
783.265	28.18
783.443	27.68
783.621	26.91
783.799	27.58
783.977	28.04
784.155	29.33
784.333	28.61
784.511	28.31
784.689	28.06
784.867	28.04
785.045	26.81
785.223	25.78
785.4	26.35
785.578	26.49
785.756	26.13
785.934	25.22
786.112	24.34
786.289	25.68
786.467	26.34
786.645	26
786.823	24.44
787	25.25
787.178	26.37
787.356	26.66
787.533	27.59
787.711	27.9
787.889	28.82
788.066	27.88
788.244	27.27
788.421	26.64
788.599	27.01
788.776	28.28
788.954	27.08
789.131	27.36
789.309	27.17
789.486	26.56
789.664	26.6
789.841	26.8
790.019	27.66
790.196	28.09
790.373	28.68
790.551	28.97
790.728	28.89
790.906	29.38
791.083	29.52
791.26	28.94
791.437	28.7
791.615	28.1
791.792	27.43
791.969	27.16
792.146	26.46
792.324	25.89
792.501	24.99
792.678	24.72
792.855	25.17
793.032	25.21
793.209	25.29
793.387	25.43
793.564	25.71
793.741	25.79
793.918	26.26
794.095	27.01
794.272	27.72
794.449	28.65
794.626	28.12
794.803	28.44
794.98	28.42
795.157	28.24
795.334	28.05
795.511	28.8
795.688	29.07
795.864	29.07
796.041	28.62
796.218	28.33
796.395	27.3
796.572	28.92
796.749	28.87
796.925	29.29
797.102	29.9
797.279	30.02
797.456	29.92
797.632	30.28
797.809	30.39
797.986	30.59
798.162	29.83
798.339	30.36
798.516	29.89
798.692	30.12
798.869	29.59
799.046	30.07
799.222	30.09
799.399	29.86
799.575	29.38
799.752	28.76
799.928	28.5
800.105	29.71
800.281	29.01
800.458	29.12
800.634	29.31
800.811	28.78
800.987	28.44
801.163	28.46
801.34	27.75
801.516	27.98
801.692	28.72
801.869	28.49
802.045	28.4
802.221	29.91
802.398	29.45
802.574	28.42
802.75	28.28
802.926	28.86
803.103	29.45
803.279	29.93
803.455	30.04
803.631	30.28
803.807	30.2
803.983	29.57
804.16	29.15
804.336	30.71
804.512	29.59
804.688	29.4
804.864	28.95
805.04	28.46
805.216	28.5
805.392	28
805.568	26.93
805.744	27.47
805.92	27.39
806.096	27.84
806.272	25.06
806.448	25.4
806.623	26.67
806.799	26.48
806.975	27.37
807.151	27.47
807.327	27.21
807.503	28.44
807.678	27.03
807.854	27.72
808.03	27.3
808.206	28.93
808.381	29.64
808.557	29.14
808.733	28.76
808.908	26.37
809.084	26.13
809.26	26.64
809.435	26
809.611	26.88
809.787	25.61
809.962	24.84
810.138	23.29
810.313	23.17
810.489	23.3
810.664	23.62
810.84	24.02
811.015	24.77
811.191	24.24
811.366	25.03
811.542	25.2
811.717	26.42
811.892	28.04
812.068	28.43
812.243	29.51
812.419	29.4
812.594	29.39
812.769	30.57
812.944	29.08
813.12	30.06
813.295	28.98
813.47	29.25
813.645	28.71
813.821	25.74
813.996	26.81
814.171	26.25
814.346	26.79
814.521	27.56
814.697	27.58
814.872	27.66
815.047	27.08
815.222	26.89
815.397	27.6
815.572	28.27
815.747	30.47
815.922	30.92
816.097	30.83
816.272	28.51
816.447	27.74
816.622	28.92
816.797	28.95
816.972	29.97
817.147	30.05
817.322	29.89
817.496	30.75
817.671	30.49
817.846	30.21
818.021	30.7
818.196	31.93
818.371	31.97
818.545	30.44
818.72	29.89
818.895	28.76
819.069	28.6
819.244	27.97
819.419	27.23
819.594	26.79
819.768	26.71
819.943	27.01
820.117	27.03
820.292	27.64
820.467	27.81
820.641	27.9
820.816	27.66
820.99	27.46
821.165	27.73
821.339	27.53
821.514	27.82
821.688	28.11
821.863	28.11
822.037	28.14
822.212	28.27
822.386	28.18
822.56	28.31
822.735	28.62
822.909	28.8
823.084	28.7
823.258	28.81
823.432	28.73
823.606	28.32
823.781	28.37
823.955	28.45
824.129	28.03
824.303	28.05
824.478	27.97
824.652	27.67
824.826	27.84
825	28.11
825.174	28.2
825.348	27.97
825.523	27.75
825.697	27.62
825.871	27.46
826.045	27.12
826.219	27.41
826.393	27.76
826.567	28.04
826.741	28.4
826.915	28.03
827.089	28.07
827.263	27.89
827.437	28.07
827.611	27.41
827.784	27.75
827.958	28.15
828.132	27.8
828.306	27.01
828.48	27.09
828.654	26.53
828.827	27.11
829.001	26.75
829.175	27.28
829.349	28.2
829.522	28.22
829.696	28.13
829.87	28.41
830.044	28.21
830.217	28.76
830.391	28.16
830.565	27.21
830.738	26.55
830.912	27
831.085	27.63
831.259	26.37
831.432	27.2
831.606	27.41
831.779	26.94
831.953	27.88
832.126	28.52
832.3	28.48
832.473	28.82
832.647	28.59
832.82	28.58
832.994	27.44
833.167	27.42
833.34	27.98
833.514	27.19
833.687	27
833.86	27
834.034	26.88
834.207	27.07
834.38	27.76
834.553	28.66
834.727	28.41
834.9	28.55
835.073	29.05
835.246	28.94
835.419	28.9
835.593	28.46
835.766	28.58
835.939	28.74
836.112	28.64
836.285	28.31
836.458	28.09
836.631	27.43
836.804	28.1
836.977	28.12
837.15	27.94
837.323	28.61
837.496	30.44
837.669	30.63
837.842	30.22
838.015	30.05
838.188	29.49
838.361	28.01
838.533	30.19
838.706	29.88
838.879	30.37
839.052	28.54
839.225	28.82
839.398	28.61
839.57	27.65
839.743	28.66
839.916	28.49
840.088	27.67
840.261	26.86
840.434	25.69
840.607	26.66
840.779	26.29
840.952	27.48
841.124	27.52
841.297	27.2
841.47	29.09
841.642	29.03
841.815	28.5
841.987	28.85
842.16	29.41
842.332	31.31
842.505	30.63
842.677	30.22
842.85	30.16
843.022	30.27
843.194	30.96
843.367	28.66
843.539	26.62
843.712	26.48
843.884	28.46
844.056	29.63
844.229	27.98
844.401	30.22
844.573	32.49
844.745	33.57
844.918	33.36
845.09	32.66
845.262	35.43
845.434	34.76
845.606	33.57
845.779	32.25
845.951	32.79
846.123	30.96
846.295	28.33
846.467	27.47
846.639	27.35
846.811	25.76
846.983	26.11
847.155	24.74
847.327	27.05
847.499	34.54
847.671	36.59
847.843	37.81
848.015	40.32
848.187	41.57
848.359	37.28
848.531	36.33
848.703	37.15
848.875	38.58
849.047	35.28
849.218	37.28
849.39	30.48
849.562	29.38
849.734	25.68
849.905	22.83
850.077	21.92
850.249	22.34
850.421	21.95
850.592	25.8
850.764	23.13
850.936	28.8
851.107	26.47
851.279	30.76
851.451	26.26
851.622	30.77
851.794	32.89
851.965	33.33
852.137	35.39
852.308	37.49
852.48	35.61
852.651	37.35
852.823	35.58
852.994	36.02
853.166	31.84
853.337	36.47
853.509	32.29
853.68	31.84
853.851	30.12
854.023	32.76
854.194	32.12
854.365	31.37
854.537	30.17
854.708	27.98
854.879	28.42
855.05	29.12
855.222	30.47
855.393	31.15
855.564	28.6
855.735	29.84
855.906	28.21
856.078	27.14
856.249	26.3
856.42	25.21
856.591	23.09
856.762	22.77
856.933	24.28
857.104	24.66
857.275	27.48
857.446	29.89
857.617	30.11
857.788	27.96
857.959	26.58
858.13	25.59
858.301	27.7
858.472	32.2
858.643	32.44
858.814	34.87
858.985	34.38
859.155	28.24
859.326	28.88
859.497	32.13
859.668	37.93
859.839	38.95
860.009	43.02
860.18	41.94
860.351	40.7
860.522	39.24
860.692	38.97
860.863	38.34
861.034	39.33
861.204	37.44
861.375	32.22
861.546	26.89
861.716	29.24
861.887	27.76
862.057	23.24
862.228	21.76
862.398	22
862.569	24.09
862.739	24.22
862.91	24.87
863.08	25.66
863.251	27.51
863.421	30.87
863.592	28.87
863.762	23.92
863.932	29.77
864.103	33.88
864.273	32.03
864.443	25.6
864.614	26.64
864.784	26.9
864.954	27.87
865.125	25.74
865.295	22.24
865.465	24.08
865.635	26.56
865.805	26.27
865.976	21.46
866.146	24.7
866.316	28.45
866.486	22.97
866.656	25.2
866.826	25.6
866.996	27.3
867.166	28.4
867.336	26.14
867.506	26.47
867.676	21.37
867.846	21.73
868.016	24.28
868.186	22.94
868.356	26.27
868.526	26.13
868.696	25.92
868.866	26.35
869.036	27.68
869.206	29.19
869.376	25.59
869.545	28.19
869.715	28.55
869.885	25.07
870.055	24.06
870.224	21.57
870.394	19.43
870.564	21.33
870.734	22.64
870.903	23.73
871.073	28.06
871.243	32.44
871.412	34.3
871.582	37.18
871.751	38.49
871.921	42.43
872.091	44.98
872.26	48.01
872.43	44.64
872.599	44.62
872.769	40.61
872.938	36.3
873.108	36.8
873.277	35.83
873.446	29.83
873.616	26.39
873.785	22.74
873.955	22.88
874.124	20.32
874.293	25.5
874.463	24.58
874.632	25.11
874.801	24.34
874.971	21.85
875.14	19.58
875.309	22.35
875.478	18.53
875.647	20.17
875.817	20.22
875.986	16.94
876.155	11.51
876.324	12.75
876.493	12.84
876.662	12.37
876.831	14.37
877	16.51
877.17	18.97
877.339	25.75
877.508	27.8
877.677	27.18
877.846	30.43
878.015	33.89
878.184	37.76
878.352	40.37
878.521	41.99
878.69	38.14
878.859	37.77
879.028	35.39
879.197	32.98
879.366	29.34
879.534	28.82
879.703	29.1
879.872	28.27
880.041	25.71
880.21	24.56
880.378	23.6
880.547	25.12
880.716	24.31
880.884	24.98
881.053	24.76
881.222	25.48
881.39	25.38
881.559	24.73
881.727	24.97
881.896	25.8
882.065	25.25
882.233	25.92
882.402	26.1
882.57	26.37
882.739	25.89
882.907	26.98
883.076	27.11
883.244	27.45
883.412	27.53
883.581	28.25
883.749	27.8
883.918	28.48
884.086	28.49
884.254	28.66
884.423	29.13
884.591	29.81
884.759	28.53
884.927	28.23
885.096	28.86
885.264	29.33
885.432	28.08
885.6	28.1
885.769	27.26
885.937	27.92
886.105	29.06
886.273	28.61
886.441	28.34
886.609	29.62
886.777	28.63
886.945	27.22
887.113	26.67
887.281	27.69
887.449	27.72
887.617	31.09
887.785	30.45
887.953	27.21
888.121	26.86
888.289	30.68
888.457	32.34
888.625	35.53
888.793	36.24
888.961	34.41
889.129	33.95
889.296	37.76
889.464	36.55
889.632	36.43
889.8	38.98
889.967	41.97
890.135	39.56
