Data from 2938563_Reflection_3.txt Node
Date: Sun Jun 14 23:11:20 EDT 2015
User: robert
Spectrometer: USB4E03002
Autoset integration time: false
Trigger mode: 4
Integration Time (sec): 1.000000E-1
Scans to average: 10
Electric dark correction enabled: true
Nonlinearity correction enabled: false
Boxcar width: 5
Stray light correction enabled: false
XAxis mode: Wavelengths
Stop averaging: false
Number of Pixels in Spectrum: 3648
>>>>>Begin Spectral Data<<<<<
177.575	187.76
177.794	-124.93
178.014	295.87
178.233	-124.84
178.452	-23.32
178.672	137.52
178.891	142.56
179.11	-78.19
179.33	5.71
179.549	39.6
179.768	75.95
179.987	81.91
180.207	89.04
180.426	115.98
180.645	164.09
180.864	140.96
181.084	91.01
181.303	72.92
181.522	92.39
181.741	94.43
181.96	154.79
182.179	141.42
182.398	218.78
182.618	346.17
182.837	133.01
183.056	96.53
183.275	149.74
183.494	158.42
183.713	155.32
183.932	116.63
184.151	197.44
184.37	180.6
184.589	311.01
184.808	338.37
185.027	239.33
185.246	-251.8
185.465	-184.64
185.684	-175.59
185.903	72.64
186.122	527.08
186.341	240.98
186.56	67.86
186.779	145.5
186.998	67.42
187.216	67.99
187.435	86.78
187.654	89.67
187.873	84.7
188.092	88.74
188.311	313.68
188.53	310.6
188.748	-388.09
188.967	-251.19
189.186	-889.26
189.405	-1318.53
189.623	-894.2
189.842	-5628.57
190.061	-863.67
190.28	-1061.64
190.498	254.78
190.717	116.11
190.936	129.77
191.154	69.58
191.373	85.38
191.592	117.3
191.81	103.39
192.029	208.43
192.248	186.12
192.466	350.76
192.685	231.67
192.904	441.52
193.122	-913.37
193.341	7047.56
193.559	-451.44
193.778	602.59
193.996	154.59
194.215	100.09
194.433	91.16
194.652	170.44
194.87	107.59
195.089	100.06
195.307	59.52
195.526	41.66
195.744	32.48
195.963	74.32
196.181	85.56
196.399	138.59
196.618	136.79
196.836	69.61
197.055	82.68
197.273	65.59
197.491	142.95
197.71	207.94
197.928	141.89
198.146	183.1
198.365	117.45
198.583	123.47
198.801	92.79
199.019	145.41
199.238	424.69
199.456	72.09
199.674	66.42
199.892	72.49
200.111	68.9
200.329	149.4
200.547	108.91
200.765	121.94
200.983	118.85
201.202	123.86
201.42	107.03
201.638	92.2
201.856	142.23
202.074	93.45
202.292	108.83
202.51	122.86
202.728	65.21
202.946	120.06
203.165	127.12
203.383	116.06
203.601	403.41
203.819	-187.19
204.037	-4462.7
204.255	-611.08
204.473	-430.12
204.691	-140.72
204.909	-238.55
205.127	-293.48
205.345	-466.93
205.562	-504.69
205.78	-1103.02
205.998	1814.89
206.216	-9421.84
206.434	-7539.08
206.652	-463.71
206.87	-745.2
207.088	6871.07
207.306	-6832
207.523	-347.11
207.741	-113.77
207.959	-89.55
208.177	-60.37
208.395	-83.59
208.612	-112.34
208.83	-70.4
209.048	-54.21
209.266	-36.47
209.483	-15.82
209.701	-15.77
209.919	-18.63
210.136	-37.84
210.354	-40.31
210.572	-127.04
210.79	-198.62
211.007	-364.44
211.225	-1741.56
211.442	404.25
211.66	158.21
211.878	184.88
212.095	91
212.313	90.37
212.53	103.56
212.748	98.75
212.966	97.21
213.183	89.69
213.401	83.45
213.618	61.05
213.836	64.3
214.053	72.81
214.271	75.19
214.488	-8.09
214.705	12.69
214.923	1.09
215.14	-10.71
215.358	-42.72
215.575	-76.82
215.793	-40.73
216.01	-98.96
216.227	-101.75
216.445	-132.52
216.662	-240.32
216.879	-166.58
217.097	-278.12
217.314	-171.04
217.531	-109.75
217.749	-105.33
217.966	-104.02
218.183	-196.9
218.4	-59.21
218.618	-98.82
218.835	-80.9
219.052	-67.17
219.269	-54.7
219.487	-52.74
219.704	-67.79
219.921	-78.64
220.138	-51.53
220.355	-45.72
220.572	-42.88
220.79	-53.86
221.007	-33.46
221.224	-40.12
221.441	-33.99
221.658	-29.94
221.875	-23.17
222.092	-16.02
222.309	-20.25
222.526	-31.11
222.743	-14.99
222.96	-11.59
223.177	-6.44
223.394	-3.89
223.611	-1.32
223.828	-2.74
224.045	-1.64
224.262	-3.09
224.479	-3.49
224.696	2.89
224.913	1.4
225.13	-3.86
225.347	-1.01
225.564	0.66
225.781	-0.46
225.997	1.05
226.214	2.97
226.431	1.59
226.648	1.84
226.865	2.34
227.082	2.29
227.298	4.34
227.515	5.89
227.732	6.61
227.949	5.09
228.165	5.54
228.382	5.35
228.599	4.69
228.816	5.48
229.032	4.57
229.249	5.37
229.466	6.08
229.682	6.08
229.899	6.01
230.116	4.73
230.332	4.74
230.549	2.5
230.765	-0.61
230.982	-1.64
231.199	-2.03
231.415	0.24
231.632	-1.33
231.848	-0.88
232.065	-3.62
232.281	-5.42
232.498	-4.8
232.714	-2.86
232.931	-0.16
233.147	5.64
233.364	7
233.58	6.57
233.797	5.75
234.013	6.69
234.23	6.15
234.446	6.49
234.662	7.63
234.879	5.85
235.095	5.54
235.312	6.68
235.528	2.15
235.744	1.58
235.961	3.84
236.177	6.03
236.393	3.75
236.61	1.38
236.826	1.63
237.042	-1.58
237.258	-0.06
237.475	0.86
237.691	1.04
237.907	1.15
238.123	2.91
238.339	1.97
238.556	0.64
238.772	0.01
238.988	0.96
239.204	1.89
239.42	2.59
239.636	2.5
239.853	2.77
240.069	2.75
240.285	3.46
240.501	2.76
240.717	2.46
240.933	2.46
241.149	3.53
241.365	4.15
241.581	3.59
241.797	4.12
242.013	4.51
242.229	3.95
242.445	3.94
242.661	4.71
242.877	5.48
243.093	5.91
243.309	6.49
243.525	5.94
243.741	5.1
243.957	5.12
244.173	5.75
244.388	5.87
244.604	6.34
244.82	6.02
245.036	5.64
245.252	5.15
245.468	5.41
245.683	5.07
245.899	5.1
246.115	5.49
246.331	5.88
246.547	5.74
246.762	5.69
246.978	5.73
247.194	5.91
247.409	5.82
247.625	5.91
247.841	5.8
248.057	5.65
248.272	5.96
248.488	5.6
248.703	5.25
248.919	4.97
249.135	4.33
249.35	3.79
249.566	3.62
249.782	3.26
249.997	3.48
250.213	3.1
250.428	4.43
250.644	4.47
250.859	4.36
251.075	3.84
251.29	3.98
251.506	4.43
251.721	3.62
251.937	4.21
252.152	5.16
252.368	5.21
252.583	5.02
252.798	3.47
253.014	2.49
253.229	2.15
253.445	1.95
253.66	1.68
253.875	0.29
254.091	0.99
254.306	0.04
254.521	-1.62
254.737	-1.72
254.952	-1.2
255.167	-0.93
255.383	-0.27
255.598	-0.29
255.813	0.96
256.028	0.35
256.244	1.12
256.459	1.93
256.674	2.3
256.889	2.39
257.104	2.83
257.32	2.77
257.535	3.08
257.75	3.16
257.965	3.37
258.18	3.13
258.395	3.47
258.61	3.59
258.826	3.33
259.041	3.15
259.256	3.62
259.471	3.16
259.686	3.27
259.901	3.4
260.116	3.36
260.331	3.36
260.546	3.71
260.761	4.14
260.976	4.29
261.191	4.42
261.406	5.05
261.621	4.47
261.836	4.82
262.05	5.49
262.265	5.05
262.48	4.82
262.695	4.82
262.91	3.63
263.125	2.1
263.34	1.24
263.555	0.57
263.769	-0.23
263.984	0.14
264.199	0.88
264.414	0.52
264.629	0.69
264.843	0.94
265.058	0.94
265.273	1.5
265.488	1.8
265.702	2.02
265.917	2.8
266.132	2.61
266.346	2.57
266.561	1.72
266.776	1.19
266.99	1.21
267.205	1.52
267.42	1.86
267.634	2.49
267.849	2.51
268.063	3.15
268.278	3.08
268.492	3.64
268.707	3.21
268.922	3.33
269.136	4.01
269.351	3.98
269.565	4.05
269.78	3.82
269.994	3.35
270.209	3.4
270.423	3.39
270.637	2.92
270.852	3
271.066	3.14
271.281	3.04
271.495	2.8
271.709	2.86
271.924	2.56
272.138	2.09
272.353	1.86
272.567	2.12
272.781	1.39
272.996	1.76
273.21	1.96
273.424	2.09
273.638	2.43
273.853	2.55
274.067	3.12
274.281	3.14
274.495	3.32
274.71	3.78
274.924	3.35
275.138	3.56
275.352	3.17
275.566	3.16
275.781	3.48
275.995	3.76
276.209	4.07
276.423	3.96
276.637	3.74
276.851	4.03
277.065	3.9
277.279	4.42
277.493	4.67
277.707	4.32
277.921	3.92
278.135	2.99
278.349	2.93
278.563	2.12
278.777	1.86
278.991	2.51
279.205	2.32
279.419	2.33
279.633	2.27
279.847	2.66
280.061	3.09
280.275	3.15
280.489	3.58
280.703	3.68
280.917	3.79
281.131	3.82
281.344	3.46
281.558	4.04
281.772	4.17
281.986	4.13
282.2	3.49
282.414	3.74
282.627	3.59
282.841	3.56
283.055	3.43
283.269	3.18
283.482	3.1
283.696	2.95
283.91	2.59
284.123	2.3
284.337	2.32
284.551	2.7
284.764	2.86
284.978	2.75
285.192	2.84
285.405	2.73
285.619	3.41
285.833	3.39
286.046	3.5
286.26	3.41
286.473	3.72
286.687	3.65
286.9	3.63
287.114	3.02
287.327	3.01
287.541	3.21
287.754	3.62
287.968	3.21
288.181	3.41
288.395	3.84
288.608	3.87
288.822	3.54
289.035	3.65
289.248	3.51
289.462	3.92
289.675	4
289.889	3.85
290.102	3.66
290.315	3.66
290.529	3.42
290.742	2.63
290.955	2.55
291.169	2.63
291.382	3.01
291.595	2.96
291.808	3
292.022	3.27
292.235	3.33
292.448	3.22
292.661	3.42
292.875	3.48
293.088	3.81
293.301	3.68
293.514	3.87
293.727	3.26
293.94	3.18
294.153	3.11
294.367	3.21
294.58	3.26
294.793	3.5
295.006	3.46
295.219	3.58
295.432	3.57
295.645	4.08
295.858	4.32
296.071	4.78
296.284	5.05
296.497	5.32
296.71	5.33
296.923	5.21
297.136	5.01
297.349	4.94
297.562	4.88
297.775	5.32
297.988	5.32
298.201	5.17
298.414	4.88
298.626	5.15
298.839	4.99
299.052	4.55
299.265	4.87
299.478	4.79
299.691	5.4
299.903	5.43
300.116	4.93
300.329	4.75
300.542	4.43
300.755	4.12
300.967	3.39
301.18	3.04
301.393	3.09
301.605	2.93
301.818	3.01
302.031	2.42
302.243	2.55
302.456	2.72
302.669	2.58
302.881	3.05
303.094	3.87
303.307	4.24
303.519	4.77
303.732	5.23
303.944	5.05
304.157	5.3
304.37	5.61
304.582	5.29
304.795	5.57
305.007	6
305.22	5.94
305.432	5.49
305.645	5.66
305.857	5.09
306.069	4.91
306.282	5.04
306.494	4.89
306.707	4.51
306.919	4.56
307.132	4.21
307.344	3.92
307.556	3.83
307.769	3.66
307.981	3.55
308.193	3.95
308.406	4.14
308.618	4.26
308.83	4.24
309.043	4.28
309.255	4.35
309.467	4.75
309.679	4.7
309.892	4.67
310.104	4.81
310.316	4.62
310.528	4.43
310.74	4.43
310.953	4.18
311.165	4.3
311.377	3.98
311.589	4.34
311.801	4.26
312.013	4.21
312.225	4.18
312.437	4
312.649	4.69
312.862	4.78
313.074	4.45
313.286	4.9
313.498	4.66
313.71	5.15
313.922	4.8
314.134	4.21
314.346	4.2
314.558	4.16
314.77	4.29
314.982	3.92
315.193	4.01
315.405	4.32
315.617	3.82
315.829	3.89
316.041	3.75
316.253	3.7
316.465	3.91
316.677	4.17
316.888	4.19
317.1	4.41
317.312	4.03
317.524	4.4
317.736	3.87
317.947	4.55
318.159	4.64
318.371	4.64
318.583	5.06
318.794	5.31
319.006	5.07
319.218	5.69
319.43	5.76
319.641	5.76
319.853	5.17
320.064	5.94
320.276	5.64
320.488	5.76
320.699	5.41
320.911	5.11
321.123	4.9
321.334	5.44
321.546	5.1
321.757	4.6
321.969	4.54
322.18	4.43
322.392	4.02
322.603	3.66
322.815	3.56
323.026	4
323.238	4.51
323.449	4.39
323.661	4.26
323.872	3.75
324.083	4
324.295	4.02
324.506	4.23
324.718	4.34
324.929	4.25
325.14	4.47
325.352	4.44
325.563	3.96
325.774	4.14
325.986	3.68
326.197	4.04
326.408	4.04
326.62	4.44
326.831	4.56
327.042	4.98
327.253	5.14
327.464	5.1
327.676	5.09
327.887	5.17
328.098	4.69
328.309	5.16
328.52	4.94
328.732	4.91
328.943	4.95
329.154	4.85
329.365	4.3
329.576	4.56
329.787	4.45
329.998	4.71
330.209	4.68
330.42	5.02
330.631	4.91
330.842	5.13
331.053	5.2
331.264	5.32
331.475	5.04
331.686	4.95
331.897	5.01
332.108	5.01
332.319	4.84
332.53	4.53
332.741	4.87
332.952	4.82
333.163	4.96
333.374	4.96
333.585	4.63
333.795	4.7
334.006	4.75
334.217	4.78
334.428	5.05
334.639	4.73
334.849	4.63
335.06	4.45
335.271	4.34
335.482	4.04
335.692	3.98
335.903	3.66
336.114	3.91
336.325	3.77
336.535	3.49
336.746	3.57
336.957	3.86
337.167	4.09
337.378	4.21
337.589	4.29
337.799	4.55
338.01	4.91
338.22	5.25
338.431	5.28
338.642	5.22
338.852	5
339.063	4.7
339.273	4.8
339.484	4.61
339.694	4.13
339.905	3.65
340.115	3.43
340.326	3.2
340.536	2.87
340.746	2.53
340.957	2.84
341.167	3.06
341.378	3.05
341.588	3.15
341.799	3.24
342.009	3.55
342.219	3.61
342.43	3.75
342.64	3.12
342.85	3.46
343.061	3.5
343.271	3.36
343.481	3.31
343.691	3.42
343.902	3.4
344.112	3.27
344.322	3.48
344.532	3.84
344.743	3.6
344.953	3.75
345.163	3.68
345.373	3.92
345.583	4.1
345.793	4.33
346.004	4.01
346.214	3.76
346.424	4.16
346.634	3.79
346.844	3.46
347.054	3.4
347.264	3.79
347.474	3.83
347.684	3.99
347.894	3.76
348.104	3.4
348.314	3.3
348.524	3.18
348.734	3.08
348.944	3.49
349.154	3.86
349.364	4.03
349.574	4.03
349.784	4.13
349.994	3.8
350.204	3.97
350.413	4.19
350.623	4.56
350.833	4.88
351.043	4.67
351.253	4.55
351.463	4.32
351.672	4.36
351.882	4.22
352.092	4.11
352.302	4.02
352.511	3.91
352.721	3.84
352.931	3.85
353.141	3.62
353.35	3.87
353.56	3.84
353.77	4.26
353.979	4.13
354.189	4.36
354.399	4.26
354.608	4.27
354.818	4.08
355.027	4.14
355.237	3.92
355.447	4.13
355.656	4.1
355.866	3.91
356.075	3.7
356.285	3.91
356.494	3.73
356.704	3.84
356.913	4.09
357.123	4.09
357.332	4.2
357.542	4.23
357.751	4.28
357.96	4.16
358.17	4.13
358.379	4.07
358.589	3.87
358.798	3.84
359.007	3.85
359.217	3.74
359.426	3.82
359.635	3.79
359.845	3.97
360.054	3.64
360.263	3.67
360.472	3.64
360.682	3.81
360.891	3.96
361.1	3.83
361.309	3.78
361.519	3.76
361.728	3.73
361.937	3.74
362.146	3.58
362.355	3.59
362.564	3.65
362.774	3.84
362.983	3.38
363.192	3.3
363.401	3.29
363.61	3.26
363.819	3.33
364.028	3.18
364.237	3
364.446	2.98
364.655	2.84
364.864	2.75
365.073	2.71
365.282	3.11
365.491	2.92
365.7	3.19
365.909	3.08
366.118	3.2
366.327	3.54
366.536	3.45
366.745	3.69
366.954	3.9
367.162	3.93
367.371	3.68
367.58	3.36
367.789	3.38
367.998	3.44
368.207	3.66
368.415	3.3
368.624	2.93
368.833	3.07
369.042	2.82
369.25	2.87
369.459	3.12
369.668	3.24
369.877	3.33
370.085	3.55
370.294	3.57
370.503	3.48
370.711	3.68
370.92	4.03
371.129	3.93
371.337	3.84
371.546	3.83
371.754	3.52
371.963	3.6
372.171	3.6
372.38	3.52
372.589	3.48
372.797	3.3
373.006	2.96
373.214	2.64
373.423	2.72
373.631	2.9
373.84	2.93
374.048	2.95
374.256	2.87
374.465	2.73
374.673	2.64
374.882	2.45
375.09	2.46
375.298	2.67
375.507	2.9
375.715	2.89
375.923	2.75
376.132	2.74
376.34	2.63
376.548	2.72
376.757	2.94
376.965	3.07
377.173	3.13
377.381	3.19
377.59	3.31
377.798	3.26
378.006	3.11
378.214	3.19
378.423	3.13
378.631	3.28
378.839	3
379.047	2.64
379.255	2.49
379.463	2.48
379.671	2.34
379.879	1.89
380.088	1.93
380.296	2.05
380.504	2.02
380.712	2.15
380.92	2.27
381.128	2.67
381.336	2.79
381.544	2.77
381.752	2.76
381.96	2.86
382.168	3.19
382.376	2.96
382.584	2.96
382.791	2.81
382.999	2.9
383.207	2.78
383.415	2.58
383.623	2.57
383.831	2.55
384.039	2.44
384.247	2.47
384.454	2.47
384.662	2.65
384.87	2.73
385.078	2.79
385.285	2.6
385.493	2.48
385.701	2.61
385.909	2.79
386.116	2.81
386.324	2.95
386.532	2.94
386.739	2.78
386.947	2.69
387.155	2.78
387.362	2.7
387.57	2.6
387.778	2.39
387.985	2.24
388.193	2.25
388.4	2.4
388.608	2.56
388.816	2.51
389.023	2.57
389.231	2.66
389.438	2.4
389.646	2.62
389.853	2.78
390.061	2.95
390.268	2.86
390.475	2.77
390.683	2.79
390.89	2.49
391.098	2.56
391.305	2.57
391.512	2.54
391.72	2.73
391.927	2.71
392.135	2.49
392.342	2.54
392.549	2.61
392.756	2.59
392.964	2.24
393.171	2.42
393.378	2.3
393.586	2.16
393.793	2.21
394	1.99
394.207	1.79
394.414	1.8
394.622	1.87
394.829	1.95
395.036	2.14
395.243	2.2
395.45	2.08
395.657	2.1
395.864	2.33
396.072	2.28
396.279	2.53
396.486	2.67
396.693	2.68
396.9	2.54
397.107	2.58
397.314	2.29
397.521	2.53
397.728	2.55
397.935	2.6
398.142	2.48
398.349	2.44
398.556	2.28
398.763	2.23
398.97	2.39
399.177	2.37
399.383	2.19
399.59	2.47
399.797	2.43
400.004	2.39
400.211	2.45
400.418	2.46
400.625	2.35
400.831	2.3
401.038	2.22
401.245	2.18
401.452	2.15
401.658	2.09
401.865	1.77
402.072	1.61
402.279	1.73
402.485	1.71
402.692	1.72
402.899	1.81
403.105	1.9
403.312	1.96
403.519	1.88
403.725	1.79
403.932	1.77
404.138	1.76
404.345	1.87
404.552	1.81
404.758	1.8
404.965	1.68
405.171	1.57
405.378	1.6
405.584	1.55
405.791	1.62
405.997	1.78
406.204	2.1
406.41	2.32
406.617	2.52
406.823	2.44
407.029	2.39
407.236	2.48
407.442	2.64
407.649	2.53
407.855	2.65
408.061	2.57
408.268	2.55
408.474	2.42
408.68	2.45
408.887	2.15
409.093	2.16
409.299	2.37
409.505	2.42
409.712	2.28
409.918	2.23
410.124	2.16
410.33	2.14
410.537	2.24
410.743	2.3
410.949	2.27
411.155	2.3
411.361	2.23
411.567	2
411.773	1.89
411.98	2.09
412.186	2.06
412.392	1.95
412.598	1.91
412.804	1.74
413.01	1.61
413.216	1.63
413.422	1.58
413.628	1.59
413.834	1.67
414.04	1.75
414.246	1.75
414.452	1.87
414.658	1.89
414.864	2.09
415.07	2.08
415.275	1.9
415.481	1.8
415.687	1.85
415.893	1.94
416.099	1.89
416.305	1.88
416.511	1.78
416.716	1.8
416.922	1.89
417.128	1.77
417.334	1.81
417.539	1.92
417.745	1.92
417.951	1.92
418.157	1.93
418.362	2
418.568	1.96
418.774	1.99
418.979	1.93
419.185	1.99
419.391	1.99
419.596	2.04
419.802	2
420.008	2.06
420.213	2
420.419	1.88
420.624	1.79
420.83	1.87
421.035	1.83
421.241	1.8
421.446	1.68
421.652	1.71
421.857	1.67
422.063	1.72
422.268	1.69
422.474	1.77
422.679	1.87
422.885	1.81
423.09	1.72
423.295	1.73
423.501	1.79
423.706	1.83
423.911	1.8
424.117	1.68
424.322	1.7
424.527	1.74
424.733	1.72
424.938	1.69
425.143	1.78
425.349	1.82
425.554	1.84
425.759	1.8
425.964	1.71
426.169	1.61
426.375	1.79
426.58	1.71
426.785	1.6
426.99	1.57
427.195	1.64
427.4	1.71
427.605	1.8
427.811	1.88
428.016	1.82
428.221	1.91
428.426	2.03
428.631	1.94
428.836	2.01
429.041	2.13
429.246	2.06
429.451	2
429.656	1.89
429.861	1.8
430.066	1.7
430.271	1.75
430.476	1.57
430.681	1.57
430.886	1.66
431.09	1.68
431.295	1.49
431.5	1.62
431.705	1.76
431.91	1.71
432.115	1.67
432.32	1.61
432.524	1.62
432.729	1.78
432.934	1.82
433.139	1.63
433.343	1.56
433.548	1.54
433.753	1.46
433.958	1.2
434.162	1.29
434.367	1.31
434.572	1.33
434.776	1.31
434.981	1.26
435.186	1.33
435.39	1.56
435.595	1.61
435.799	1.73
436.004	1.75
436.209	1.74
436.413	1.73
436.618	1.65
436.822	1.76
437.027	1.75
437.231	1.73
437.436	1.6
437.64	1.52
437.845	1.56
438.049	1.52
438.253	1.46
438.458	1.53
438.662	1.54
438.867	1.55
439.071	1.52
439.275	1.51
439.48	1.51
439.684	1.53
439.888	1.54
440.093	1.51
440.297	1.49
440.501	1.57
440.706	1.55
440.91	1.49
441.114	1.54
441.318	1.48
441.523	1.49
441.727	1.55
441.931	1.57
442.135	1.62
442.339	1.59
442.543	1.57
442.748	1.54
442.952	1.6
443.156	1.56
443.36	1.58
443.564	1.59
443.768	1.55
443.972	1.39
444.176	1.43
444.38	1.28
444.584	1.32
444.788	1.38
444.992	1.35
445.196	1.29
445.4	1.36
445.604	1.29
445.808	1.31
446.012	1.34
446.216	1.48
446.42	1.41
446.624	1.45
446.828	1.44
447.032	1.36
447.235	1.42
447.439	1.44
447.643	1.44
447.847	1.52
448.051	1.49
448.254	1.37
448.458	1.29
448.662	1.35
448.866	1.34
449.069	1.32
449.273	1.46
449.477	1.41
449.681	1.41
449.884	1.33
450.088	1.37
450.292	1.27
450.495	1.33
450.699	1.34
450.902	1.37
451.106	1.46
451.31	1.42
451.513	1.38
451.717	1.45
451.92	1.45
452.124	1.5
452.327	1.33
452.531	1.34
452.734	1.38
452.938	1.36
453.141	1.26
453.345	1.3
453.548	1.44
453.752	1.35
453.955	1.28
454.158	1.2
454.362	1.2
454.565	1.27
454.769	1.45
454.972	1.55
455.175	1.55
455.379	1.63
455.582	1.49
455.785	1.3
455.988	1.46
456.192	1.43
456.395	1.61
456.598	1.59
456.801	1.63
457.005	1.49
457.208	1.38
457.411	1.45
457.614	1.42
457.817	1.41
458.021	1.53
458.224	1.45
458.427	1.55
458.63	1.49
458.833	1.52
459.036	1.48
459.239	1.54
459.442	1.57
459.645	1.56
459.848	1.55
460.051	1.6
460.254	1.59
460.457	1.55
460.66	1.44
460.863	1.39
461.066	1.49
461.269	1.48
461.472	1.47
461.675	1.52
461.878	1.39
462.081	1.5
462.284	1.51
462.486	1.5
462.689	1.57
462.892	1.62
463.095	1.64
463.298	1.52
463.5	1.6
463.703	1.52
463.906	1.52
464.109	1.61
464.311	1.54
464.514	1.55
464.717	1.51
464.92	1.49
465.122	1.46
465.325	1.47
465.528	1.41
465.73	1.43
465.933	1.55
466.135	1.47
466.338	1.45
466.541	1.45
466.743	1.43
466.946	1.41
467.148	1.32
467.351	1.32
467.553	1.32
467.756	1.24
467.958	1.29
468.161	1.25
468.363	1.21
468.566	1.12
468.768	1.14
468.971	1.09
469.173	1.17
469.375	1.29
469.578	1.16
469.78	1.18
469.983	1.36
470.185	1.26
470.387	1.22
470.59	1.33
470.792	1.42
470.994	1.36
471.196	1.44
471.399	1.24
471.601	1.21
471.803	1.22
472.005	1.19
472.208	1.11
472.41	1.06
472.612	1.04
472.814	1.05
473.016	1.01
473.218	1.02
473.421	1.07
473.623	1.15
473.825	1.26
474.027	1.33
474.229	1.35
474.431	1.38
474.633	1.4
474.835	1.41
475.037	1.44
475.239	1.47
475.441	1.51
475.643	1.42
475.845	1.42
476.047	1.34
476.249	1.48
476.451	1.36
476.653	1.33
476.855	1.45
477.057	1.47
477.258	1.45
477.46	1.5
477.662	1.5
477.864	1.52
478.066	1.47
478.268	1.51
478.469	1.48
478.671	1.57
478.873	1.56
479.075	1.49
479.276	1.41
479.478	1.38
479.68	1.42
479.882	1.49
480.083	1.5
480.285	1.62
480.487	1.59
480.688	1.55
480.89	1.54
481.091	1.54
481.293	1.56
481.495	1.54
481.696	1.51
481.898	1.48
482.099	1.45
482.301	1.45
482.502	1.46
482.704	1.47
482.905	1.47
483.107	1.47
483.308	1.44
483.51	1.43
483.711	1.44
483.913	1.47
484.114	1.45
484.315	1.45
484.517	1.46
484.718	1.4
484.92	1.41
485.121	1.38
485.322	1.38
485.524	1.46
485.725	1.44
485.926	1.44
486.127	1.43
486.329	1.44
486.53	1.43
486.731	1.37
486.932	1.35
487.134	1.33
487.335	1.35
487.536	1.36
487.737	1.34
487.938	1.36
488.139	1.42
488.341	1.39
488.542	1.38
488.743	1.42
488.944	1.49
489.145	1.55
489.346	1.52
489.547	1.52
489.748	1.53
489.949	1.55
490.15	1.57
490.351	1.51
490.552	1.53
490.753	1.53
490.954	1.5
491.155	1.5
491.356	1.45
491.557	1.51
491.758	1.52
491.959	1.48
492.159	1.42
492.36	1.39
492.561	1.38
492.762	1.34
492.963	1.37
493.164	1.45
493.364	1.47
493.565	1.5
493.766	1.4
493.967	1.34
494.167	1.32
494.368	1.33
494.569	1.31
494.769	1.39
494.97	1.4
495.171	1.32
495.371	1.24
495.572	1.22
495.773	1.26
495.973	1.38
496.174	1.38
496.375	1.45
496.575	1.42
496.776	1.42
496.976	1.41
497.177	1.43
497.377	1.47
497.578	1.5
497.778	1.44
497.979	1.47
498.179	1.39
498.38	1.39
498.58	1.31
498.78	1.35
498.981	1.34
499.181	1.35
499.382	1.29
499.582	1.31
499.782	1.24
499.983	1.3
500.183	1.29
500.383	1.31
500.584	1.42
500.784	1.49
500.984	1.44
501.184	1.48
501.385	1.45
501.585	1.46
501.785	1.54
501.985	1.63
502.185	1.6
502.386	1.53
502.586	1.49
502.786	1.41
502.986	1.41
503.186	1.49
503.386	1.43
503.586	1.47
503.786	1.51
503.987	1.47
504.187	1.47
504.387	1.52
504.587	1.53
504.787	1.64
504.987	1.65
505.187	1.6
505.387	1.59
505.587	1.59
505.786	1.56
505.986	1.67
506.186	1.62
506.386	1.63
506.586	1.57
506.786	1.56
506.986	1.5
507.186	1.44
507.386	1.48
507.585	1.46
507.785	1.57
507.985	1.59
508.185	1.53
508.384	1.57
508.584	1.46
508.784	1.54
508.984	1.61
509.183	1.63
509.383	1.76
509.583	1.84
509.782	1.9
509.982	1.82
510.182	1.86
510.381	1.89
510.581	1.94
510.781	2.05
510.98	2.06
511.18	1.97
511.379	1.93
511.579	1.85
511.778	1.88
511.978	1.87
512.177	1.88
512.377	1.91
512.576	2.01
512.776	1.93
512.975	1.93
513.175	1.99
513.374	2.07
513.573	2.09
513.773	2.09
513.972	2.01
514.172	2.06
514.371	2.08
514.57	2.07
514.77	1.92
514.969	1.99
515.168	1.92
515.367	1.9
515.567	1.85
515.766	1.93
515.965	2.04
516.164	2.11
516.364	2.12
516.563	2.12
516.762	2.15
516.961	2.19
517.16	2.19
517.359	2.26
517.559	2.23
517.758	2.25
517.957	2.16
518.156	2.12
518.355	2.08
518.554	2.03
518.753	2.04
518.952	1.98
519.151	1.97
519.35	1.98
519.549	1.92
519.748	1.91
519.947	1.96
520.146	2
520.345	1.96
520.544	2.05
520.743	2.04
520.942	2.04
521.141	2.15
521.339	2.25
521.538	2.23
521.737	2.28
521.936	2.3
522.135	2.35
522.333	2.4
522.532	2.47
522.731	2.45
522.93	2.52
523.129	2.53
523.327	2.47
523.526	2.39
523.725	2.43
523.923	2.52
524.122	2.54
524.321	2.58
524.519	2.6
524.718	2.67
524.917	2.67
525.115	2.62
525.314	2.68
525.512	2.73
525.711	2.8
525.909	2.79
526.108	2.73
526.306	2.72
526.505	2.72
526.703	2.69
526.902	2.66
527.1	2.69
527.299	2.74
527.497	2.76
527.696	2.73
527.894	2.71
528.092	2.73
528.291	2.76
528.489	2.79
528.688	2.77
528.886	2.81
529.084	2.86
529.283	2.87
529.481	2.91
529.679	2.87
529.877	2.9
530.076	2.95
530.274	2.98
530.472	2.96
530.67	2.98
530.869	2.98
531.067	2.96
531.265	2.92
531.463	2.94
531.661	2.93
531.859	2.96
532.057	3
532.255	3.01
532.454	2.99
532.652	3.06
532.85	3.06
533.048	3.13
533.246	3.15
533.444	3.2
533.642	3.19
533.84	3.21
534.038	3.24
534.236	3.25
534.434	3.21
534.632	3.32
534.83	3.28
535.027	3.3
535.225	3.32
535.423	3.35
535.621	3.38
535.819	3.45
536.017	3.43
536.215	3.43
536.412	3.41
536.61	3.51
536.808	3.43
537.006	3.51
537.203	3.53
537.401	3.53
537.599	3.58
537.797	3.58
537.994	3.53
538.192	3.51
538.39	3.58
538.587	3.62
538.785	3.59
538.983	3.59
539.18	3.6
539.378	3.58
539.575	3.6
539.773	3.63
539.97	3.67
540.168	3.69
540.366	3.73
540.563	3.74
540.761	3.74
540.958	3.8
541.155	3.85
541.353	3.86
541.55	3.84
541.748	3.88
541.945	3.89
542.143	3.84
542.34	3.88
542.537	3.92
542.735	3.95
542.932	3.99
543.129	3.96
543.327	3.96
543.524	3.96
543.721	4.12
543.919	4.1
544.116	4.09
544.313	4.16
544.51	4.14
544.708	4.18
544.905	4.14
545.102	4.27
545.299	4.36
545.496	4.37
545.693	4.48
545.891	4.46
546.088	4.52
546.285	4.6
546.482	4.66
546.679	4.71
546.876	4.76
547.073	4.84
547.27	4.86
547.467	4.9
547.664	4.92
547.861	4.83
548.058	4.85
548.255	4.96
548.452	4.98
548.649	5.05
548.846	5.23
549.043	5.17
549.24	5.19
549.437	5.14
549.633	5.05
549.83	5.13
550.027	5.26
550.224	5.26
550.421	5.22
550.618	5.26
550.814	5.28
551.011	5.31
551.208	5.4
551.405	5.46
551.601	5.41
551.798	5.53
551.995	5.55
552.191	5.55
552.388	5.51
552.585	5.59
552.781	5.63
552.978	5.56
553.175	5.45
553.371	5.47
553.568	5.43
553.764	5.67
553.961	5.59
554.157	5.59
554.354	5.7
554.55	5.74
554.747	5.7
554.943	5.72
555.14	5.76
555.336	5.73
555.533	5.79
555.729	5.89
555.926	5.77
556.122	5.87
556.318	5.99
556.515	6.02
556.711	6.06
556.907	6.06
557.104	6.1
557.3	6.17
557.496	6.29
557.693	6.36
557.889	6.4
558.085	6.46
558.281	6.4
558.478	6.49
558.674	6.44
558.87	6.54
559.066	6.69
559.262	6.77
559.459	6.74
559.655	6.8
559.851	6.74
560.047	6.84
560.243	6.83
560.439	6.99
560.635	6.93
560.831	7.04
561.027	7.15
561.223	7.18
561.419	7.22
561.615	7.33
561.811	7.41
562.007	7.41
562.203	7.35
562.399	7.41
562.595	7.53
562.791	7.6
562.987	7.58
563.183	7.55
563.379	7.54
563.575	7.55
563.771	7.63
563.966	7.64
564.162	7.8
564.358	7.86
564.554	8.05
564.75	8.01
564.945	8.06
565.141	8.19
565.337	8.27
565.533	8.39
565.728	8.43
565.924	8.42
566.12	8.66
566.315	8.67
566.511	8.76
566.707	8.73
566.902	8.77
567.098	8.9
567.293	8.92
567.489	8.92
567.684	8.82
567.88	8.9
568.076	9.15
568.271	9.12
568.467	9.18
568.662	9.26
568.858	9.36
569.053	9.51
569.248	9.44
569.444	9.46
569.639	9.61
569.835	9.79
570.03	9.79
570.225	9.71
570.421	9.71
570.616	9.75
570.812	9.73
571.007	9.65
571.202	9.62
571.397	9.63
571.593	9.6
571.788	9.57
571.983	9.57
572.178	9.64
572.374	9.72
572.569	9.7
572.764	9.65
572.959	9.76
573.154	9.85
573.35	9.99
573.545	10.07
573.74	10.1
573.935	10.2
574.13	10.26
574.325	10.4
574.52	10.28
574.715	10.31
574.91	10.41
575.105	10.35
575.3	10.34
575.495	10.29
575.69	10.36
575.885	10.48
576.08	10.37
576.275	10.31
576.47	10.23
576.665	10.35
576.86	10.41
577.055	10.29
577.25	10.45
577.444	10.45
577.639	10.49
577.834	10.45
578.029	10.33
578.224	10.48
578.418	10.51
578.613	10.45
578.808	10.5
579.003	10.53
579.197	10.73
579.392	10.71
579.587	10.79
579.781	10.75
579.976	10.8
580.171	10.97
580.365	10.8
580.56	10.9
580.755	10.95
580.949	11.02
581.144	10.97
581.338	11.05
581.533	11.03
581.727	10.99
581.922	11.01
582.116	11.11
582.311	11.36
582.505	11.51
582.7	11.55
582.894	11.63
583.089	11.62
583.283	11.69
583.478	11.66
583.672	11.83
583.866	11.95
584.061	12.02
584.255	11.95
584.449	11.72
584.644	11.86
584.838	11.76
585.032	11.75
585.226	11.7
585.421	11.78
585.615	11.84
585.809	11.81
586.003	11.82
586.198	11.83
586.392	11.96
586.586	12.12
586.78	12.08
586.974	12.21
587.168	12.19
587.363	12.38
587.557	12.42
587.751	12.31
587.945	12.1
588.139	12.16
588.333	12.3
588.527	12.19
588.721	12.19
588.915	12.32
589.109	12.29
589.303	12.31
589.497	12.3
589.691	12.23
589.885	12.27
590.079	12.42
590.273	12.32
590.466	12.35
590.66	12.43
590.854	12.37
591.048	12.39
591.242	12.51
591.436	12.72
591.629	12.83
591.823	12.79
592.017	12.97
592.211	13.07
592.404	13.17
592.598	13.04
592.792	13.13
592.986	13.23
593.179	13.28
593.373	13.28
593.567	13.23
593.76	13.08
593.954	13.26
594.147	13.21
594.341	13.21
594.535	13.16
594.728	13.25
594.922	13.29
595.115	13.43
595.309	13.25
595.502	13.28
595.696	13.35
595.889	13.46
596.083	13.36
596.276	13.38
596.47	13.37
596.663	13.39
596.856	13.4
597.05	13.36
597.243	13.1
597.437	13.21
597.63	13.09
597.823	13.01
598.017	12.88
598.21	12.92
598.403	12.94
598.596	13.02
598.79	13.07
598.983	12.9
599.176	13
599.369	13.14
599.563	13.15
599.756	13.23
599.949	13.21
600.142	13.34
600.335	13.52
600.528	13.48
600.722	13.57
600.915	13.82
601.108	14.04
601.301	13.94
601.494	14.04
601.687	13.99
601.88	13.99
602.073	13.95
602.266	14.01
602.459	14.06
602.652	14.15
602.845	14.19
603.038	14.13
603.231	14.09
603.424	14.11
603.617	14.03
603.809	14.08
604.002	14.12
604.195	14.16
604.388	14.16
604.581	14.11
604.774	14.16
604.966	14.05
605.159	14.03
605.352	14.15
605.545	14.23
605.737	14.26
605.93	14.27
606.123	14.37
606.316	14.35
606.508	14.27
606.701	14.01
606.894	13.92
607.086	14.05
607.279	14.05
607.471	13.97
607.664	13.95
607.857	13.96
608.049	14.19
608.242	14.11
608.434	14.3
608.627	14.31
608.819	14.46
609.012	14.56
609.204	14.48
609.397	14.43
609.589	14.51
609.782	14.55
609.974	14.62
610.166	14.49
610.359	14.49
610.551	14.31
610.743	14.41
610.936	14.42
611.128	14.34
611.32	14.54
611.513	14.68
611.705	14.68
611.897	14.72
612.09	14.74
612.282	14.76
612.474	14.84
612.666	15.02
612.858	14.85
613.051	15.09
613.243	15.18
613.435	14.9
613.627	14.94
613.819	14.91
614.011	14.8
614.203	14.71
614.395	14.68
614.588	14.72
614.78	14.72
614.972	14.91
615.164	14.77
615.356	14.73
615.548	14.7
615.74	14.75
615.932	14.8
616.124	14.88
616.315	15.14
616.507	15.08
616.699	15.06
616.891	14.97
617.083	15.1
617.275	15.07
617.467	15.18
617.659	15.27
617.85	15.26
618.042	15.28
618.234	15.3
618.426	15.26
618.618	15.3
618.809	15.34
619.001	15.53
619.193	15.37
619.384	15.54
619.576	15.32
619.768	15.44
619.959	15.31
620.151	15.16
620.343	15.3
620.534	15.42
620.726	15.5
620.917	15.51
621.109	15.34
621.301	15.41
621.492	15.47
621.684	15.71
621.875	15.53
622.067	15.69
622.258	15.84
622.45	15.72
622.641	15.65
622.832	15.63
623.024	15.65
623.215	15.72
623.407	15.61
623.598	15.43
623.789	15.39
623.981	15.53
624.172	15.54
624.363	15.46
624.555	15.56
624.746	15.5
624.937	15.53
625.129	15.62
625.32	15.67
625.511	15.83
625.702	15.77
625.893	15.8
626.085	15.76
626.276	15.73
626.467	16
626.658	16.04
626.849	16.03
627.04	16.04
627.231	15.89
627.422	15.81
627.614	15.74
627.805	15.88
627.996	15.94
628.187	16.17
628.378	16.14
628.569	15.81
628.76	15.63
628.951	15.85
629.142	15.89
629.332	15.9
629.523	16.01
629.714	16.08
629.905	16.07
630.096	15.96
630.287	15.68
630.478	15.81
630.669	16.06
630.859	16.2
631.05	16.03
631.241	15.86
631.432	16
631.623	15.98
631.813	15.81
632.004	15.91
632.195	16.08
632.385	16.17
632.576	16.01
632.767	16.1
632.957	15.98
633.148	16.06
633.339	16.27
633.529	16.26
633.72	16.25
633.91	16.37
634.101	16.27
634.292	15.86
634.482	15.8
634.673	15.78
634.863	15.6
635.054	15.64
635.244	15.58
635.435	15.68
635.625	15.63
635.815	15.65
636.006	15.63
636.196	15.57
636.387	15.84
636.577	15.87
636.767	15.78
636.958	15.97
637.148	15.94
637.338	15.81
637.529	15.81
637.719	15.94
637.909	16.21
638.099	16.14
638.29	16.32
638.48	16.47
638.67	16.48
638.86	16.79
639.05	16.62
639.241	16.65
639.431	16.88
639.621	16.67
639.811	16.53
640.001	16.37
640.191	16.39
640.381	16.39
640.571	16.47
640.761	16.54
640.951	16.39
641.141	16.41
641.331	16.21
641.521	16.16
641.711	16.25
641.901	16.4
642.091	16.51
642.281	16.54
642.471	16.63
642.661	16.63
642.851	16.72
643.041	16.89
643.231	16.97
643.42	17.29
643.61	17.16
643.8	17.25
643.99	17.17
644.18	17.07
644.369	17.27
644.559	17.11
644.749	16.91
644.939	16.73
645.128	16.71
645.318	16.46
645.508	16.31
645.697	16.31
645.887	16.21
646.076	16.29
646.266	16.32
646.456	16.08
646.645	16.13
646.835	16.29
647.024	16.55
647.214	16.51
647.403	16.89
647.593	17.03
647.782	17.29
647.972	17.57
648.161	17.49
648.351	17.42
648.54	17.77
648.73	17.68
648.919	17.43
649.108	17.36
649.298	17.28
649.487	17.05
649.677	16.9
649.866	16.67
650.055	16.59
650.244	16.79
650.434	16.79
650.623	16.6
650.812	16.82
651.002	17.06
651.191	16.96
651.38	17.19
651.569	17.24
651.758	17.46
651.947	17.63
652.137	17.45
652.326	17.39
652.515	17.51
652.704	17.75
652.893	17.74
653.082	17.79
653.271	17.79
653.46	17.73
653.649	17.61
653.838	17.57
654.027	17.59
654.216	17.59
654.405	17.48
654.594	17.44
654.783	17.33
654.972	17.35
655.161	17.18
655.35	17.41
655.539	17.37
655.728	17.66
655.916	17.67
656.105	17.49
656.294	17.69
656.483	17.97
656.672	18.09
656.86	18.12
657.049	17.93
657.238	18.15
657.427	18.13
657.615	18.09
657.804	17.99
657.993	17.96
658.181	18.09
658.37	18.08
658.559	17.86
658.747	17.87
658.936	17.88
659.125	18.13
659.313	18.09
659.502	17.97
659.69	17.94
659.879	18.26
660.067	18.32
660.256	18.43
660.444	18.39
660.633	18.43
660.821	18.13
661.01	18.02
661.198	17.86
661.387	18.07
661.575	18.17
661.763	18.11
661.952	17.63
662.14	17.86
662.328	17.96
662.517	17.98
662.705	17.98
662.893	17.98
663.082	18.1
663.27	18.19
663.458	17.74
663.646	17.69
663.834	17.75
664.023	17.93
664.211	17.72
664.399	17.46
664.587	17.46
664.775	17.54
664.963	17.7
665.152	17.64
665.34	17.5
665.528	17.64
665.716	17.65
665.904	17.76
666.092	17.81
666.28	17.78
666.468	17.87
666.656	17.84
666.844	17.97
667.032	18
667.22	18.18
667.408	18.11
667.596	18.13
667.784	18.16
667.971	18.03
668.159	18.21
668.347	18.48
668.535	18.58
668.723	18.53
668.911	18.63
669.098	18.66
669.286	18.62
669.474	18.88
669.662	18.75
669.849	18.8
670.037	19.29
670.225	19.09
670.413	18.83
670.6	18.95
670.788	18.94
670.976	18.63
671.163	18.77
671.351	18.83
671.538	19
671.726	19.32
671.913	19.37
672.101	18.98
672.289	19.1
672.476	18.99
672.664	18.88
672.851	18.74
673.039	18.69
673.226	18.67
673.413	18.62
673.601	18.21
673.788	18.28
673.976	18.29
674.163	18.25
674.35	18.38
674.538	18.46
674.725	18.5
674.912	18.85
675.1	19.13
675.287	19.27
675.474	19.38
675.662	19.71
675.849	19.71
676.036	19.79
676.223	20.13
676.411	19.97
676.598	20.21
676.785	20.27
676.972	20.26
677.159	20.3
677.346	19.97
677.533	19.85
677.721	19.67
677.908	19.65
678.095	19.59
678.282	19.4
678.469	19.48
678.656	19.15
678.843	18.94
679.03	18.77
679.217	18.82
679.404	19.15
679.591	19.12
679.778	18.98
679.964	18.81
680.151	18.9
680.338	18.95
680.525	18.73
680.712	18.85
680.899	18.87
681.086	18.95
681.272	18.94
681.459	18.61
681.646	18.45
681.833	18.9
682.02	19.16
682.206	19.03
682.393	19.19
682.58	19.46
682.766	19.44
682.953	19.51
683.14	19.66
683.326	19.56
683.513	19.9
683.7	20.3
683.886	20.09
684.073	20.12
684.259	20.09
684.446	19.86
684.632	19.71
684.819	19.9
685.005	20.02
685.192	20.13
685.378	20.26
685.565	20.04
685.751	20.03
685.938	20.09
686.124	19.67
686.31	20
686.497	20.17
686.683	20.27
686.87	20.31
687.056	19.96
687.242	19.78
687.429	19.76
687.615	19.71
687.801	19.52
687.987	19.34
688.174	19.53
688.36	19.22
688.546	19.1
688.732	19.02
688.918	18.92
689.105	19.41
689.291	19.38
689.477	19.21
689.663	19.27
689.849	19.13
690.035	19.22
690.221	19.09
690.407	19.03
690.593	19.4
690.779	19.47
690.965	19.21
691.151	18.97
691.337	18.88
691.523	18.69
691.709	18.71
691.895	19.27
692.081	19.52
692.267	19.68
692.453	19.78
692.639	19.21
692.825	19.08
693.011	19.5
693.196	19.62
693.382	19.77
693.568	20.16
693.754	20.22
693.94	19.68
694.125	19.41
694.311	18.9
694.497	18.98
694.682	19.41
694.868	19.36
695.054	19.19
695.239	18.93
695.425	18.98
695.611	18.68
695.796	18.74
695.982	18.72
696.168	18.85
696.353	19.32
696.539	19.21
696.724	19.09
696.91	19.34
697.095	19.61
697.281	19.81
697.466	20.01
697.652	20.17
697.837	20.31
698.023	20.67
698.208	20.51
698.393	20.43
698.579	20.52
698.764	20.56
698.949	20.54
699.135	20.36
699.32	20.31
699.505	20.13
699.691	20.37
699.876	20.19
700.061	20.2
700.246	20.23
700.432	20.62
700.617	20.95
700.802	20.9
700.987	20.86
701.172	20.88
701.358	20.79
701.543	20.8
701.728	20.68
701.913	20.34
702.098	19.84
702.283	19.78
702.468	19.71
702.653	19.38
702.838	19.51
703.023	19.74
703.208	19.76
703.393	20.02
703.578	20.26
703.763	19.76
703.948	20.01
704.133	20.06
704.318	20.52
704.503	20.17
704.688	20.49
704.873	20.5
705.057	20.42
705.242	20.49
705.427	20.43
705.612	20.52
705.797	20.62
705.981	20.73
706.166	20.63
706.351	20.59
706.536	20.65
706.72	20.54
706.905	20.86
707.09	20.99
707.274	21.28
707.459	21.69
707.644	21.5
707.828	21.44
708.013	21.41
708.197	21.71
708.382	21.75
708.567	22.05
708.751	21.97
708.936	21.99
709.12	21.91
709.305	21.73
709.489	21.43
709.673	21.38
709.858	21.85
710.042	21.97
710.227	22
710.411	21.88
710.596	21.83
710.78	21.57
710.964	21.15
711.149	21.11
711.333	21.17
711.517	20.98
711.702	21.17
711.886	21.01
712.07	20.92
712.254	21.05
712.438	20.99
712.623	20.81
712.807	21
712.991	21.19
713.175	21.34
713.359	21.28
713.544	21.16
713.728	21.26
713.912	21.29
714.096	21.74
714.28	21.34
714.464	21.12
714.648	21.43
714.832	21.42
715.016	21.38
715.2	21.34
715.384	21.44
715.568	21.88
715.752	21.39
715.936	21.53
716.12	21.22
716.304	21.7
716.488	22.08
716.671	21.67
716.855	21.98
717.039	21.65
717.223	21.65
717.407	21.45
717.59	21.14
717.774	21.58
717.958	21.21
718.142	21.5
718.325	21.02
718.509	21.08
718.693	21
718.877	20.56
719.06	20.83
719.244	20.62
719.428	20.48
719.611	20.94
719.795	21.04
719.978	20.75
720.162	20.45
720.345	20.73
720.529	20.57
720.713	21.3
720.896	21.47
721.08	21.44
721.263	21.78
721.446	21.94
721.63	21.85
721.813	21.72
721.997	21.96
722.18	22.2
722.364	22.12
722.547	21.96
722.73	21.83
722.914	21.87
723.097	22.07
723.28	21.9
723.464	21.6
723.647	21.34
723.83	21.28
724.013	21.69
724.197	21.52
724.38	21.59
724.563	21.87
724.746	21.39
724.929	21.17
725.112	21.11
725.296	20.67
725.479	20.81
725.662	20.5
725.845	20.17
726.028	20.01
726.211	19.57
726.394	19.88
726.577	19.99
726.76	20.31
726.943	20.41
727.126	20.29
727.309	20.66
727.492	20.76
727.675	21.17
727.858	21.6
728.041	21.89
728.224	22.03
728.407	21.93
728.589	21.35
728.772	21.13
728.955	21.32
729.138	21.27
729.321	21.16
729.503	21.12
729.686	20.86
729.869	20.72
730.052	20.68
730.234	20.43
730.417	20.11
730.6	20.58
730.782	20.29
730.965	20.38
731.148	20.85
731.33	21.22
731.513	21.03
731.695	21.2
731.878	21.43
732.061	21.15
732.243	21.1
732.426	21.19
732.608	21
732.791	21.54
732.973	21.39
733.156	20.84
733.338	20.38
733.52	20.8
733.703	20.49
733.885	19.9
734.068	20.05
734.25	20.36
734.432	20.66
734.615	20.86
734.797	20.19
734.979	20.25
735.162	20.62
735.344	20.98
735.526	20.69
735.708	21.21
735.891	21.57
736.073	21.87
736.255	21.74
736.437	21.82
736.619	21.93
736.802	22.24
736.984	22.42
737.166	22.28
737.348	22.37
737.53	22.84
737.712	22.38
737.894	21.83
738.076	21.67
738.258	21.96
738.44	21.72
738.622	21.47
738.804	21.89
738.986	21.57
739.168	21.41
739.35	21.55
739.532	21.33
739.714	21.57
739.896	22.03
740.078	22.2
740.259	22.42
740.441	22.13
740.623	22.19
740.805	22.3
740.987	22.01
741.168	22.75
741.35	22.19
741.532	22.41
741.714	21.98
741.895	22.36
742.077	22.21
742.259	21.94
742.44	22.31
742.622	22.72
742.804	22.03
742.985	22.08
743.167	21.62
743.348	22.01
743.53	21.62
743.711	22.55
743.893	22.07
744.075	21.73
744.256	21.48
744.438	21.77
744.619	21.17
744.8	20.93
744.982	21.4
745.163	21.43
745.345	21.2
745.526	21.16
745.707	20.8
745.889	21.23
746.07	21.05
746.252	21.69
746.433	21.36
746.614	21.62
746.795	22.68
746.977	22.67
747.158	22.26
747.339	22.21
747.52	22.18
747.702	22.3
747.883	21.92
748.064	22.12
748.245	21.7
748.426	21.28
748.607	21.6
748.788	21.57
748.97	21.89
749.151	22.68
749.332	22.7
749.513	22.31
749.694	22.72
749.875	23.09
750.056	23.47
750.237	23.55
750.418	23.28
750.599	22.95
750.78	22.44
750.96	21.43
751.141	21.25
751.322	21.47
751.503	22.08
751.684	21.21
751.865	20.57
752.046	20.01
752.226	20.06
752.407	20.26
752.588	20.14
752.769	19.94
752.949	20.74
753.13	20.51
753.311	20.15
753.492	20.41
753.672	21.25
753.853	21.51
754.034	22.24
754.214	22.54
754.395	22.91
754.575	23.31
754.756	23.76
754.937	23.09
755.117	23.28
755.298	23.64
755.478	23.78
755.659	23.32
755.839	23.52
756.02	23.16
756.2	23.06
756.381	22.76
756.561	22.97
756.741	22.61
756.922	22.67
757.102	22.48
757.283	22.53
757.463	22.38
757.643	22.25
757.823	21.54
758.004	21.23
758.184	21.36
758.364	22.33
758.545	22.01
758.725	22.31
758.905	22.79
759.085	22.73
759.265	22.24
759.446	21.5
759.626	21.93
759.806	22.88
759.986	23.36
760.166	22.81
760.346	22.23
760.526	22.49
760.706	22.35
760.886	22.53
761.066	22.52
761.246	22.54
761.426	22.89
761.606	23.02
761.786	22.74
761.966	22.8
762.146	22.66
762.326	22.65
762.506	22.5
762.686	22.45
762.866	22.03
763.046	21.9
763.225	22.25
763.405	22.3
763.585	22.12
763.765	22.09
763.945	21.97
764.124	22.19
764.304	22.17
764.484	21.76
764.664	22.11
764.843	22.49
765.023	22.93
765.203	22.58
765.382	23.13
765.562	22.49
765.741	23.02
765.921	22.58
766.101	22.74
766.28	23.01
766.46	23.48
766.639	23.12
766.819	22.9
766.998	21.9
767.178	21.89
767.357	21.02
767.537	21.59
767.716	20.83
767.896	21.17
768.075	20.61
768.254	20.03
768.434	20.34
768.613	19.8
768.792	20.01
768.972	20.41
769.151	21
769.33	21.63
769.51	21.46
769.689	21.72
769.868	21.8
770.047	23.01
770.226	23.87
770.406	23.48
770.585	23.56
770.764	22.84
770.943	22.65
771.122	21.14
771.301	21.19
771.48	21.04
771.66	21.41
771.839	21.81
772.018	21.94
772.197	21.92
772.376	22.39
772.555	22.9
772.734	23.65
772.913	24.29
773.092	25.16
773.271	24.7
773.449	25.51
773.628	25.19
773.807	24.63
773.986	23.99
774.165	23.27
774.344	23.14
774.523	22.99
774.701	22.34
774.88	22.9
775.059	23.04
775.238	23.25
775.417	22.56
775.595	22.66
775.774	22.73
775.953	23.23
776.131	23.21
776.31	23.55
776.489	24.14
776.667	25.22
776.846	24.33
777.025	23.3
777.203	23.37
777.382	23.6
777.56	23.44
777.739	23.98
777.917	23.16
778.096	23.65
778.274	23.45
778.453	22.42
778.631	22.07
778.81	22.47
778.988	23.98
779.166	24.06
779.345	24.16
779.523	23.95
779.702	23.35
779.88	23.8
780.058	23.83
780.237	23.49
780.415	24.21
780.593	23.79
780.771	24.28
780.95	23.09
781.128	22.8
781.306	23.17
781.484	24.01
781.662	23.76
781.841	23.65
782.019	23.16
782.197	22.59
782.375	22.45
782.553	22.07
782.731	20.55
782.909	21.71
783.087	21.24
783.265	20.53
783.443	19
783.621	18.68
783.799	18.7
783.977	18.99
784.155	20.22
784.333	20.45
784.511	21.95
784.689	22.8
784.867	22.68
785.045	23.26
785.223	23.38
785.4	24.12
785.578	24.3
785.756	24.56
785.934	24.43
786.112	23.71
786.289	23.38
786.467	22.51
786.645	23.72
786.823	23.35
787	23.59
787.178	23.89
787.356	24.31
787.533	24.45
787.711	23.56
787.889	23.94
788.066	23.4
788.244	23.23
788.421	23.25
788.599	22.29
788.776	22.48
788.954	21.93
789.131	21.48
789.309	21.12
789.486	21.18
789.664	21.28
789.841	20.58
790.019	21.95
790.196	22.49
790.373	21.7
790.551	22.37
790.728	22.12
790.906	21.91
791.083	22.32
791.26	22.21
791.437	22.62
791.615	23.85
791.792	23.49
791.969	21.98
792.146	21.72
792.324	22.79
792.501	22.42
792.678	22.63
792.855	24.01
793.032	24.42
793.209	24.44
793.387	24.24
793.564	24.11
793.741	25.46
793.918	26.61
794.095	26.85
794.272	26.44
794.449	26.53
794.626	27.16
794.803	26.15
794.98	25.9
795.157	26.53
795.334	26.18
795.511	25.14
795.688	23.8
795.864	22.22
796.041	22.01
796.218	22.82
796.395	22.08
796.572	21.46
796.749	21.19
796.925	21
797.102	20.84
797.279	21.7
797.456	21.76
797.632	22
797.809	23.31
797.986	23.81
798.162	23.95
798.339	23.88
798.516	23.6
798.692	23.58
798.869	22.93
799.046	21.94
799.222	20.98
799.399	21.95
799.575	22.22
799.752	21.97
799.928	21.3
800.105	19.87
800.281	20.39
800.458	20.13
800.634	20.76
800.811	22.33
800.987	23.77
801.163	24.13
801.34	23.84
801.516	23.38
801.692	23.4
801.869	23.56
802.045	23.75
802.221	23.12
802.398	23.93
802.574	23.9
802.75	22.72
802.926	22.61
803.103	22.2
803.279	21.66
803.455	22.97
803.631	23.79
803.807	24.18
803.983	23.24
804.16	23.59
804.336	23.56
804.512	23.39
804.688	24.05
804.864	23.74
805.04	23.6
805.216	24.04
805.392	24.01
805.568	23.12
805.744	22.63
805.92	24.8
806.096	25.34
806.272	24.74
806.448	26.64
806.623	25.52
806.799	24.29
806.975	24.04
807.151	23.27
807.327	22.9
807.503	24.34
807.678	24.32
807.854	25.51
808.03	25.13
808.206	26.96
808.381	25.69
808.557	27.33
808.733	27.8
808.908	29.15
809.084	30.58
809.26	30.47
809.435	28.52
809.611	28.95
809.787	27.21
809.962	26.79
810.138	25.27
810.313	24.09
810.489	24.63
810.664	24.75
810.84	23.83
811.015	23.67
811.191	24.21
811.366	24.29
811.542	25.56
811.717	25.69
811.892	25.94
812.068	26.29
812.243	27.61
812.419	26.43
812.594	26.91
812.769	27.36
812.944	26.46
813.12	25.5
813.295	25.86
813.47	24.5
813.645	25.21
813.821	26.46
813.996	26.78
814.171	25.93
814.346	24.24
814.521	24.6
814.697	24.91
814.872	25.27
815.047	26.13
815.222	26.83
815.397	25.81
815.572	24.12
815.747	23.46
815.922	22.64
816.097	22.34
816.272	24.11
816.447	22.8
816.622	22.89
816.797	22.68
816.972	22.79
817.147	21.03
817.322	22.29
817.496	21.23
817.671	21.26
817.846	21.76
818.021	23.05
818.196	22.31
818.371	24.02
818.545	23.55
818.72	24.81
818.895	23.98
819.069	24.69
819.244	25.28
819.419	26.21
819.594	25.69
819.768	25.53
819.943	24.81
820.117	25.02
820.292	25.09
820.467	25.44
820.641	24.9
820.816	25.23
820.99	25.47
821.165	25.05
821.339	25.26
821.514	25.56
821.688	25.79
821.863	25.85
822.037	25.87
822.212	25.74
822.386	25.75
822.56	25.67
822.735	25.5
822.909	25.33
823.084	25.43
823.258	25.38
823.432	25.33
823.606	25.18
823.781	25.3
823.955	25.08
824.129	24.96
824.303	24.92
824.478	24.68
824.652	24.66
824.826	24.8
825	24.81
825.174	25
825.348	24.98
825.523	25.25
825.697	25.13
825.871	25.23
826.045	25.51
826.219	25.4
826.393	25.7
826.567	25.81
826.741	25.87
826.915	25.85
827.089	25.74
827.263	25.87
827.437	25.22
827.611	25.51
827.784	25.89
827.958	25.6
828.132	25.84
828.306	26.14
828.48	26.57
828.654	27.13
828.827	27.53
829.001	27.53
829.175	26.8
829.349	27.39
829.522	27.44
829.696	27.12
829.87	26.58
830.044	25.83
830.217	24.72
830.391	24.22
830.565	24.02
830.738	23.07
830.912	22.9
831.085	23.38
831.259	23.18
831.432	22.33
831.606	23.48
831.779	25.22
831.953	24.54
832.126	25.26
832.3	24.65
832.473	24.41
832.647	24.22
832.82	24.07
832.994	23.98
833.167	24.08
833.34	23.88
833.514	23.3
833.687	22.98
833.86	23.78
834.034	24.23
834.207	24.96
834.38	23.97
834.553	24.55
834.727	24.1
834.9	24.17
835.073	24.53
835.246	25.02
835.419	24.94
835.593	24.57
835.766	24.67
835.939	23.25
836.112	23.12
836.285	24.83
836.458	23.9
836.631	24.53
836.804	25.11
836.977	24.74
837.15	24.85
837.323	25.39
837.496	24.89
837.669	23.4
837.842	24.06
838.015	23.59
838.188	22.63
838.361	23.05
838.533	24.96
838.706	25.85
838.879	25.8
839.052	25.81
839.225	25.57
839.398	26.29
839.57	27.57
839.743	28.9
839.916	30
840.088	28.46
840.261	27.64
840.434	26.95
840.607	25.66
840.779	26.77
840.952	25.91
841.124	27.98
841.297	26.69
841.47	28.21
841.642	27.8
841.815	26.83
841.987	27.43
842.16	27.78
842.332	27.3
842.505	28.24
842.677	25.98
842.85	27.66
843.022	25.61
843.194	27.42
843.367	23.08
843.539	24.2
843.712	23.18
843.884	25.18
844.056	25.65
844.229	26.64
844.401	28.27
844.573	28
844.745	27.42
844.918	25.64
845.09	26.6
845.262	29.69
845.434	29.81
845.606	28.53
845.779	27.03
845.951	29.03
846.123	27.02
846.295	22.42
846.467	22.05
846.639	18.27
846.811	17.08
846.983	18.2
847.155	17.34
847.327	14.8
847.499	17.96
847.671	16.19
847.843	15.68
848.015	16.77
848.187	20.28
848.359	22.74
848.531	26.12
848.703	28.38
848.875	24.5
849.047	23.56
849.218	28.54
849.39	26.99
849.562	31.56
849.734	34.88
849.905	35.15
850.077	30.45
850.249	31.24
850.421	30.51
850.592	28.09
850.764	31.53
850.936	34.02
851.107	29.07
851.279	28.64
851.451	29.53
851.622	29.4
851.794	25.66
851.965	24.39
852.137	22.16
852.308	28.82
852.48	30.13
852.651	28.23
852.823	25.21
852.994	24.92
853.166	28.2
853.337	26.35
853.509	24.32
853.68	26.07
853.851	34.2
854.023	36.35
854.194	29.34
854.365	27.84
854.537	31.28
854.708	32.18
854.879	30.75
855.05	30.03
855.222	27.5
855.393	25.34
855.564	24.53
855.735	17.73
855.906	19.88
856.078	16.75
856.249	17.1
856.42	10.13
856.591	12.9
856.762	9.76
856.933	7.17
857.104	7.93
857.275	7.11
857.446	6.3
857.617	10.15
857.788	6.54
857.959	4.47
858.13	8.48
858.301	11.52
858.472	9.09
858.643	11.9
858.814	11.62
858.985	9.63
859.155	8.73
859.326	10.27
859.497	10.26
859.668	6.51
859.839	10.14
860.009	9.5
860.18	10.81
860.351	9.29
860.522	14.04
860.692	16.03
860.863	16.66
861.034	12.61
861.204	15.69
861.375	15.67
861.546	17.21
861.716	18.51
861.887	18.64
862.057	15.05
862.228	14.33
862.398	14.23
862.569	10.31
862.739	8.89
862.91	11.83
863.08	8.56
863.251	9.43
863.421	14.35
863.592	12.37
863.762	8.33
863.932	9.68
864.103	13.9
864.273	10.74
864.443	16.75
864.614	18.67
864.784	17.86
864.954	22.36
865.125	21.45
865.295	20.6
865.465	20.4
865.635	24.61
865.805	26.17
865.976	21.02
866.146	20.16
866.316	18.31
866.486	18.31
866.656	20.81
866.826	20.02
866.996	18.58
867.166	16.97
867.336	13.64
867.506	6.01
867.676	5.6
867.846	4.02
868.016	7.12
868.186	5.51
868.356	8.33
868.526	8.53
868.696	9.83
868.866	10.6
869.036	10.62
869.206	21.75
869.376	35.18
869.545	35.26
869.715	39.39
869.885	41.7
870.055	45.83
870.224	46.97
870.394	45.1
870.564	41.28
870.734	41.41
870.903	42.56
871.073	39.54
871.243	32.55
871.412	30.78
871.582	31.87
871.751	30.78
871.921	22.72
872.091	19.68
872.26	19.62
872.43	21.8
872.599	24.19
872.769	24.27
872.938	24.75
873.108	27.11
873.277	30.23
873.446	25.36
873.616	25.87
873.785	25.4
873.955	28
874.124	30.21
874.293	29.69
874.463	26.32
874.632	27.54
874.801	22.67
874.971	16.86
875.14	14.02
875.309	22.05
875.478	21.46
875.647	29.03
875.817	28.31
875.986	28.9
876.155	31.94
876.324	31.89
876.493	28.61
876.662	30.83
876.831	34.24
877	35.48
877.17	34.12
877.339	30.21
877.508	25.34
877.677	30.02
877.846	28.34
878.015	23.59
878.184	18.17
878.352	18.78
878.521	18.15
878.69	18.11
878.859	18.36
879.028	17.23
879.197	18.84
879.366	21.52
879.534	18.9
879.703	21.49
879.872	23.48
880.041	26.84
880.21	27.52
880.378	28.06
880.547	28.64
880.716	27.11
880.884	27.16
881.053	26.82
881.222	27.17
881.39	27.58
881.559	26.97
881.727	26.89
881.896	27.52
882.065	27.51
882.233	27.99
882.402	27.83
882.57	28.75
882.739	28.89
882.907	28.74
883.076	28.97
883.244	28.92
883.412	29.71
883.581	29.43
883.749	29.51
883.918	29.5
884.086	29.17
884.254	28.64
884.423	28.55
884.591	28.1
884.759	29.19
884.927	27.41
885.096	27.65
885.264	26.77
885.432	26.85
885.6	25.58
885.769	25.85
885.937	25.41
886.105	24.25
886.273	23.4
886.441	24.57
886.609	24.83
886.777	27.86
886.945	27.36
887.113	24.56
887.281	25.7
887.449	27.12
887.617	27.25
887.785	29.05
887.953	31.32
888.121	31.38
888.289	30.71
888.457	30.31
888.625	30.31
888.793	32.32
888.961	38.05
889.129	39.02
889.296	33.6
889.464	33.14
889.632	29.76
889.8	32.41
889.967	31.05
890.135	32.6
