Data from 2938542_Reflection_23-29-23-080.txt Node
Date: Mon Jun 15 23:29:23 EDT 2015
User: robert
Spectrometer: USB4E03002
Autoset integration time: false
Trigger mode: 4
Integration Time (sec): 1.000000E-1
Scans to average: 10
Electric dark correction enabled: true
Nonlinearity correction enabled: false
Boxcar width: 6
Stray light correction enabled: false
XAxis mode: Wavelengths
Stop averaging: false
Number of Pixels in Spectrum: 3648
>>>>>Begin Spectral Data<<<<<
177.575	14.24
177.794	73.98
178.014	21.82
178.233	6.02
178.452	-207.52
178.672	116.08
178.891	280
179.11	-91.94
179.33	-42.47
179.549	-143.17
179.768	-154.18
179.987	-268.29
180.207	-84.68
180.426	-74.19
180.645	-57.39
180.864	-56.11
181.084	-37.62
181.303	-42.19
181.522	-27.36
181.741	-26.52
181.96	-23.03
182.179	-20.57
182.398	-2.21
182.618	-1.33
182.837	10.27
183.056	-10.59
183.275	21.48
183.494	41.11
183.713	48.83
183.932	-12.23
184.151	-71.71
184.37	-71.37
184.589	-33.51
184.808	-83.96
185.027	-109.23
185.246	-20.08
185.465	-18.63
185.684	-41.45
185.903	-11.85
186.122	-678.72
186.341	2560
186.56	653.09
186.779	1169.23
186.998	-201.41
187.216	1500
187.435	208.75
187.654	533.98
187.873	2866.67
188.092	430.47
188.311	308.73
188.53	1766.67
188.748	-2385
188.967	-312.73
189.186	-902.44
189.405	-448.05
189.623	509.62
189.842	227.33
190.061	1745.45
190.28	-61.26
190.498	126.32
190.717	59.46
190.936	285.71
191.154	245.95
191.373	-811.11
191.592	-148.15
191.81	-421.62
192.029	-280.65
192.248	-350.79
192.466	920.83
192.685	193.15
192.904	147.11
193.122	67.35
193.341	-81.48
193.559	24.7
193.778	15.58
193.996	59.2
194.215	69.9
194.433	75
194.652	129.8
194.87	90.91
195.089	103.48
195.307	103.78
195.526	98.55
195.744	108.4
195.963	204.92
196.181	253.18
196.399	1354.55
196.618	438.17
196.836	-205.88
197.055	-94.44
197.273	-330.83
197.491	-64.8
197.71	-241.45
197.928	-51.4
198.146	-48.31
198.365	-16.18
198.583	-95.14
198.801	6750
199.019	477.89
199.238	632.76
199.456	956.25
199.674	254.82
199.892	392.31
200.111	1410.71
200.329	166.77
200.547	161.38
200.765	185.76
200.983	250
201.202	268.75
201.42	351.72
201.638	315.38
201.856	711.67
202.074	486.09
202.292	324.02
202.51	225
202.728	201.96
202.946	156.38
203.165	152.49
203.383	161.98
203.601	180.65
203.819	136.64
204.037	163.96
204.255	149.09
204.473	210.48
204.691	162.67
204.909	98.28
205.127	139.86
205.345	143.65
205.562	151.22
205.78	268.39
205.998	61.74
206.216	39.94
206.434	-27.25
206.652	-11.37
206.87	11.06
207.088	28.5
207.306	27.92
207.523	41.02
207.741	56.76
207.959	63.07
208.177	85.95
208.395	57.57
208.612	41.7
208.83	111.18
209.048	142.53
209.266	182.83
209.483	180.04
209.701	235.42
209.919	510
210.136	207.57
210.354	209.68
210.572	169.83
210.79	168.44
211.007	119.23
211.225	158.78
211.442	135.75
211.66	84.55
211.878	-22.43
212.095	-35.69
212.313	-79.85
212.53	-67.48
212.748	-67.61
212.966	-100
213.183	-85.94
213.401	-51.98
213.618	-58.64
213.836	-70.98
214.053	-79.25
214.271	-121.94
214.488	-201.52
214.705	48.16
214.923	21.06
215.14	58.85
215.358	53.09
215.575	50.62
215.793	53.75
216.01	33.56
216.227	16.75
216.445	21.44
216.662	34.65
216.879	29.75
217.097	36.49
217.314	35.83
217.531	19.08
217.749	44.94
217.966	41.29
218.183	40.34
218.4	42
218.618	39.86
218.835	26.99
219.052	25.04
219.269	10.88
219.487	6.51
219.704	15.18
219.921	19.02
220.138	19.84
220.355	21.86
220.572	11.09
220.79	0.93
221.007	-4.86
221.224	-3.52
221.441	5.94
221.658	22.93
221.875	23.15
222.092	23.21
222.309	28.65
222.526	29.93
222.743	24.43
222.96	26.61
223.177	28.69
223.394	22.62
223.611	25.44
223.828	26.4
224.045	19.58
224.262	14.32
224.479	6.52
224.696	7.16
224.913	9.19
225.13	6.88
225.347	7.93
225.564	7.2
225.781	5.12
225.997	3.86
226.214	6.31
226.431	6.48
226.648	5.85
226.865	6.82
227.082	8.06
227.298	9.23
227.515	8.89
227.732	9.27
227.949	8.54
228.165	8.15
228.382	9.52
228.599	10.02
228.816	10.9
229.032	10.97
229.249	10.51
229.466	10.99
229.682	11.43
229.899	10.34
230.116	9.11
230.332	8.23
230.549	7.6
230.765	9.11
230.982	9.36
231.199	7.2
231.415	6.89
231.632	5.12
231.848	5.05
232.065	4.47
232.281	5.25
232.498	4.4
232.714	4.46
232.931	7.41
233.147	8.55
233.364	8.41
233.58	6.7
233.797	6.9
234.013	8.47
234.23	8.76
234.446	8.93
234.662	8.33
234.879	8.22
235.095	7.97
235.312	9.25
235.528	7.78
235.744	8.23
235.961	7.23
236.177	8.22
236.393	8.51
236.61	7.16
236.826	7.85
237.042	9.16
237.258	9.22
237.475	8.01
237.691	5.83
237.907	5.9
238.123	5.83
238.339	7.07
238.556	7.33
238.772	7.34
238.988	7.13
239.204	7.71
239.42	8.79
239.636	7.84
239.853	7.54
240.069	7.32
240.285	8.35
240.501	9.62
240.717	10.36
240.933	11.26
241.149	10.96
241.365	10.28
241.581	10.31
241.797	10.23
242.013	10.05
242.229	9.67
242.445	10.13
242.661	10.27
242.877	10.54
243.093	10.66
243.309	9.96
243.525	8.72
243.741	7.13
243.957	7.41
244.173	7.6
244.388	8.12
244.604	8.3
244.82	8.11
245.036	7.54
245.252	7.54
245.468	6.96
245.683	6.86
245.899	6.49
246.115	6.62
246.331	6.5
246.547	6.62
246.762	6.65
246.978	6.33
247.194	6.33
247.409	5.91
247.625	5.6
247.841	6.52
248.057	5.55
248.272	6.05
248.488	5.97
248.703	6.63
248.919	6.54
249.135	6.58
249.35	6.77
249.566	6.92
249.782	7.09
249.997	6.5
250.213	6.63
250.428	6.94
250.644	6.43
250.859	6.79
251.075	7.01
251.29	6.96
251.506	6.66
251.721	6.57
251.937	7.22
252.152	7.48
252.368	7.29
252.583	7.3
252.798	7.22
253.014	7.49
253.229	7.26
253.445	7.46
253.66	8.33
253.875	7.95
254.091	8.16
254.306	7.23
254.521	7.2
254.737	5.82
254.952	5.31
255.167	5.39
255.383	5.61
255.598	6.27
255.813	5.12
256.028	5.77
256.244	5.4
256.459	5
256.674	5.02
256.889	5.07
257.104	4.98
257.32	5.38
257.535	5.85
257.75	5.63
257.965	5.4
258.18	5.42
258.395	5.3
258.61	5.68
258.826	5.55
259.041	5.68
259.256	5.57
259.471	5.37
259.686	5.43
259.901	5.78
260.116	5.64
260.331	5.65
260.546	5.88
260.761	6.15
260.976	6
261.191	6.22
261.406	6.02
261.621	6.04
261.836	5.7
262.05	6.03
262.265	6.2
262.48	5.93
262.695	5.94
262.91	5.46
263.125	5.17
263.34	5.31
263.555	5.17
263.769	4.99
263.984	4.96
264.199	4.97
264.414	5.02
264.629	5.28
264.843	5.5
265.058	5.96
265.273	5.77
265.488	5.49
265.702	5.43
265.917	5.28
266.132	5.09
266.346	5.09
266.561	5.34
266.776	5.12
266.99	5.64
267.205	5.49
267.42	5.3
267.634	5.19
267.849	5.28
268.063	5.38
268.278	5.23
268.492	5.8
268.707	5.7
268.922	5.81
269.136	6.61
269.351	6.64
269.565	6.52
269.78	6.42
269.994	6.51
270.209	6.11
270.423	6.23
270.637	5.72
270.852	5.69
271.066	6.09
271.281	6.13
271.495	6.18
271.709	6.25
271.924	5.59
272.138	5.75
272.353	5.89
272.567	5.76
272.781	5.38
272.996	5.82
273.21	5.44
273.424	6.02
273.638	6.07
273.853	6.01
274.067	5.47
274.281	5.44
274.495	5.22
274.71	5.23
274.924	4.44
275.138	4.22
275.352	4.08
275.566	4.18
275.781	4.24
275.995	4.51
276.209	4.13
276.423	4.08
276.637	3.9
276.851	4.27
277.065	4.39
277.279	4.76
277.493	4.76
277.707	5.36
277.921	5.37
278.135	5.12
278.349	5.4
278.563	5.01
278.777	4.39
278.991	4
279.205	4.04
279.419	3.83
279.633	3.84
279.847	3.99
280.061	3.81
280.275	3.85
280.489	4.07
280.703	3.87
280.917	4.33
281.131	4.45
281.344	4.64
281.558	5.02
281.772	5.43
281.986	5.53
282.2	5.91
282.414	5.82
282.627	5.83
282.841	5.73
283.055	5.55
283.269	5.12
283.482	5.35
283.696	5.1
283.91	4.6
284.123	4.76
284.337	4.8
284.551	4.54
284.764	4.37
284.978	3.99
285.192	3.85
285.405	4.15
285.619	4.3
285.833	4.6
286.046	4.66
286.26	4.59
286.473	4.8
286.687	5.31
286.9	5.26
287.114	5.12
287.327	5.3
287.541	5.63
287.754	6.2
287.968	6.16
288.181	5.54
288.395	5.5
288.608	5.41
288.822	5.23
289.035	5.57
289.248	5.52
289.462	5.17
289.675	5.28
289.889	5.33
290.102	5.12
290.315	4.95
290.529	4.48
290.742	5.01
290.955	5.58
291.169	5.5
291.382	5.39
291.595	5.54
291.808	5.37
292.022	4.92
292.235	5.02
292.448	5.05
292.661	5.1
292.875	5.42
293.088	5.45
293.301	5.5
293.514	5.15
293.727	5.06
293.94	5.48
294.153	5.53
294.367	5.56
294.58	5.51
294.793	5.81
295.006	6.01
295.219	5.76
295.432	5.9
295.645	5.71
295.858	5.44
296.071	5.54
296.284	5.73
296.497	5.55
296.71	5.3
296.923	5.22
297.136	5.24
297.349	5.12
297.562	5.08
297.775	4.84
297.988	5.22
298.201	5.27
298.414	5.38
298.626	5.85
298.839	5.75
299.052	5.42
299.265	5.75
299.478	5.71
299.691	5.56
299.903	6.02
300.116	6.35
300.329	6.17
300.542	6.22
300.755	6.2
300.967	5.9
301.18	6.14
301.393	6.1
301.605	6.11
301.818	6.36
302.031	6.03
302.243	5.6
302.456	5.74
302.669	5.61
302.881	5.78
303.094	6.15
303.307	6.03
303.519	6.18
303.732	6.2
303.944	5.89
304.157	6.08
304.37	6.08
304.582	6.29
304.795	6.58
305.007	6.91
305.22	7.1
305.432	6.77
305.645	5.95
305.857	6.15
306.069	6.74
306.282	6.42
306.494	6.78
306.707	7.16
306.919	6.86
307.132	7.33
307.344	7.16
307.556	7.09
307.769	6.86
307.981	6.76
308.193	6.77
308.406	6.94
308.618	6.54
308.83	6.34
309.043	6.37
309.255	6.4
309.467	6.29
309.679	6.49
309.892	6.21
310.104	6.32
310.316	6.36
310.528	6.77
310.74	6.78
310.953	7.23
311.165	7.68
311.377	7.75
311.589	7.93
311.801	7.68
312.013	7.74
312.225	7.65
312.437	7.76
312.649	7.84
312.862	8.02
313.074	7.94
313.286	7.6
313.498	7.63
313.71	7.41
313.922	7.24
314.134	7.34
314.346	7.15
314.558	7.6
314.77	7.4
314.982	7.45
315.193	6.92
315.405	6.63
315.617	6.14
315.829	6.12
316.041	6.06
316.253	5.74
316.465	5.16
316.677	5.25
316.888	5.46
317.1	5.77
317.312	5.53
317.524	5.53
317.736	5.55
317.947	5.73
318.159	5.68
318.371	6.21
318.583	6.09
318.794	6.79
319.006	7.37
319.218	7.94
319.43	7.87
319.641	7.79
319.853	7.34
320.064	7.36
320.276	7.37
320.488	7.47
320.699	7.98
320.911	8.24
321.123	8.07
321.334	8.43
321.546	7.73
321.757	7.26
321.969	7.39
322.18	7.37
322.392	7.14
322.603	7.34
322.815	7.25
323.026	7.09
323.238	7.02
323.449	6.79
323.661	7.23
323.872	7.3
324.083	7.03
324.295	7.38
324.506	7.69
324.718	7.39
324.929	7.13
325.14	7.48
325.352	7.44
325.563	7.37
325.774	7.61
325.986	7.53
326.197	7.47
326.408	7.25
326.62	7.23
326.831	7.47
327.042	7.62
327.253	7.95
327.464	7.88
327.676	8.48
327.887	8.2
328.098	8.35
328.309	8.76
328.52	8.91
328.732	9.01
328.943	9.26
329.154	9.5
329.365	9.4
329.576	9.48
329.787	9.06
329.998	8.79
330.209	9.05
330.42	8.83
330.631	9.18
330.842	9.24
331.053	9.05
331.264	8.87
331.475	9.31
331.686	9.36
331.897	9.08
332.108	9.39
332.319	9.29
332.53	9.69
332.741	9.78
332.952	9.61
333.163	9.59
333.374	9.6
333.585	9.68
333.795	9.43
334.006	9.67
334.217	9.48
334.428	9.46
334.639	9.12
334.849	8.82
335.06	8.83
335.271	8.59
335.482	8.44
335.692	8.73
335.903	8.88
336.114	8.77
336.325	8.75
336.535	9.16
336.746	8.67
336.957	8.87
337.167	8.63
337.378	9.33
337.589	9.16
337.799	9.59
338.01	9.89
338.22	9.78
338.431	9.72
338.642	9.88
338.852	9.89
339.063	9.87
339.273	9.83
339.484	10.12
339.694	10
339.905	9.96
340.115	9.65
340.326	9.71
340.536	8.93
340.746	8.79
340.957	8.97
341.167	8.93
341.378	8.58
341.588	8.45
341.799	8.32
342.009	8.18
342.219	8.06
342.43	7.86
342.64	7.86
342.85	7.68
343.061	7.96
343.271	7.99
343.481	7.85
343.691	7.73
343.902	7.68
344.112	7.66
344.322	7.51
344.532	7.68
344.743	7.57
344.953	7.45
345.163	7.3
345.373	7.06
345.583	7.3
345.793	7.18
346.004	7.49
346.214	7.84
346.424	7.67
346.634	7.85
346.844	8.01
347.054	8.18
347.264	8.3
347.474	8.19
347.684	8.32
347.894	8.65
348.104	8.71
348.314	8.87
348.524	8.56
348.734	9.06
348.944	8.93
349.154	9.31
349.364	9.14
349.574	9.14
349.784	8.96
349.994	8.53
350.204	8.69
350.413	8.39
350.623	8.38
350.833	8.67
351.043	8.34
351.253	8.43
351.463	7.75
351.672	7.65
351.882	7.45
352.092	7.24
352.302	7.4
352.511	7.25
352.721	7.4
352.931	7.58
353.141	7.83
353.35	7.71
353.56	7.65
353.77	7.63
353.979	7.57
354.189	7.7
354.399	7.57
354.608	7.64
354.818	7.81
355.027	7.39
355.237	7.64
355.447	7.61
355.656	7.47
355.866	7.39
356.075	7.29
356.285	7.3
356.494	7.19
356.704	7.16
356.913	7.19
357.123	7.49
357.332	7.48
357.542	7.35
357.751	7.24
357.96	7.21
358.17	7.11
358.379	7.18
358.589	7.15
358.798	7.13
359.007	7.04
359.217	7.13
359.426	7.15
359.635	7.03
359.845	6.92
360.054	6.87
360.263	7.08
360.472	7.2
360.682	7.2
360.891	7.17
361.1	7.22
361.309	7.18
361.519	7.24
361.728	7.24
361.937	7.19
362.146	7.28
362.355	7.49
362.564	7.3
362.774	7.28
362.983	7.07
363.192	7.03
363.401	6.99
363.61	7.27
363.819	7.26
364.028	7.18
364.237	7.14
364.446	7.29
364.655	7.38
364.864	7.45
365.073	7.24
365.282	7.25
365.491	7.21
365.7	7.09
365.909	6.95
366.118	6.89
366.327	6.76
366.536	6.6
366.745	6.67
366.954	6.59
367.162	6.3
367.371	6.3
367.58	6.13
367.789	6.06
367.998	6.09
368.207	6.14
368.415	6.26
368.624	6.52
368.833	6.46
369.042	6.25
369.25	6.22
369.459	6.28
369.668	6.23
369.877	6.4
370.085	6.12
370.294	6.19
370.503	6.36
370.711	6.38
370.92	6.38
371.129	6.24
371.337	6.35
371.546	6.37
371.754	6.59
371.963	6.54
372.171	6.49
372.38	6.52
372.589	6.49
372.797	6.52
373.006	6.37
373.214	6.43
373.423	6.62
373.631	6.46
373.84	6.63
374.048	6.43
374.256	6.5
374.465	6.57
374.673	6.49
374.882	6.59
375.09	6.59
375.298	6.63
375.507	6.64
375.715	6.57
375.923	6.26
376.132	6.11
376.34	6.26
376.548	6.19
376.757	6.19
376.965	6.17
377.173	6.03
377.381	6.11
377.59	5.94
377.798	5.77
378.006	5.43
378.214	5.42
378.423	5.45
378.631	5.41
378.839	5.41
379.047	5.42
379.255	5.42
379.463	5.41
379.671	5.36
379.879	5.11
380.088	4.95
380.296	4.95
380.504	5.08
380.712	5.11
380.92	5.01
381.128	5.08
381.336	4.9
381.544	4.49
381.752	4.5
381.96	4.38
382.168	4.52
382.376	4.39
382.584	4.53
382.791	4.79
382.999	4.77
383.207	4.6
383.415	4.75
383.623	4.74
383.831	4.66
384.039	4.88
384.247	4.96
384.454	4.71
384.662	4.71
384.87	4.41
385.078	4.45
385.285	4.3
385.493	4.12
385.701	4.13
385.909	4.26
386.116	3.98
386.324	4.09
386.532	4.22
386.739	4.27
386.947	4.3
387.155	4.26
387.362	4.35
387.57	4.51
387.778	4.47
387.985	4.33
388.193	4.32
388.4	4.29
388.608	4.4
388.816	4.59
389.023	4.68
389.231	4.64
389.438	4.46
389.646	4.59
389.853	4.73
390.061	4.51
390.268	4.45
390.475	4.42
390.683	4.52
390.89	4.53
391.098	4.4
391.305	4.24
391.512	4.29
391.72	4.17
391.927	3.99
392.135	3.9
392.342	3.85
392.549	3.69
392.756	3.61
392.964	3.6
393.171	3.66
393.378	3.73
393.586	3.66
393.793	3.74
394	3.82
394.207	3.61
394.414	3.57
394.622	3.52
394.829	3.56
395.036	3.62
395.243	3.73
395.45	3.76
395.657	3.63
395.864	3.54
396.072	3.53
396.279	3.49
396.486	3.64
396.693	3.51
396.9	3.63
397.107	3.62
397.314	3.73
397.521	3.76
397.728	3.56
397.935	3.51
398.142	3.74
398.349	3.71
398.556	3.78
398.763	3.69
398.97	3.82
399.177	3.62
399.383	3.61
399.59	3.51
399.797	3.69
400.004	3.81
400.211	3.75
400.418	3.71
400.625	3.64
400.831	3.47
401.038	3.51
401.245	3.44
401.452	3.44
401.658	3.36
401.865	3.34
402.072	3.3
402.279	3.49
402.485	3.22
402.692	3.1
402.899	3.29
403.105	3.35
403.312	3.31
403.519	3.33
403.725	3.35
403.932	3.34
404.138	3.35
404.345	3.27
404.552	3.31
404.758	3.36
404.965	3.21
405.171	3.18
405.378	3.16
405.584	3.03
405.791	2.89
405.997	2.82
406.204	2.81
406.41	2.75
406.617	2.78
406.823	2.64
407.029	2.65
407.236	2.64
407.442	2.58
407.649	2.54
407.855	2.64
408.061	2.72
408.268	2.82
408.474	2.96
408.68	3.24
408.887	3.25
409.093	3.22
409.299	3.2
409.505	3.31
409.712	3.36
409.918	3.24
410.124	3.26
410.33	3.14
410.537	3.13
410.743	3.15
410.949	2.98
411.155	3.05
411.361	2.94
411.567	2.78
411.773	2.8
411.98	2.74
412.186	2.69
412.392	2.61
412.598	2.75
412.804	2.85
413.01	2.91
413.216	2.88
413.422	2.75
413.628	2.87
413.834	2.8
414.04	2.67
414.246	2.81
414.452	2.81
414.658	2.81
414.864	2.82
415.07	2.86
415.275	2.82
415.481	2.75
415.687	2.69
415.893	2.67
416.099	2.75
416.305	2.68
416.511	2.64
416.716	2.64
416.922	2.66
417.128	2.72
417.334	2.78
417.539	2.81
417.745	2.82
417.951	2.87
418.157	2.89
418.362	2.95
418.568	2.98
418.774	2.83
418.979	2.76
419.185	2.76
419.391	2.82
419.596	2.77
419.802	2.77
420.008	2.79
420.213	2.69
420.419	2.61
420.624	2.53
420.83	2.47
421.035	2.47
421.241	2.49
421.446	2.49
421.652	2.54
421.857	2.53
422.063	2.47
422.268	2.44
422.474	2.38
422.679	2.32
422.885	2.36
423.09	2.36
423.295	2.39
423.501	2.45
423.706	2.43
423.911	2.36
424.117	2.36
424.322	2.37
424.527	2.34
424.733	2.33
424.938	2.3
425.143	2.31
425.349	2.37
425.554	2.45
425.759	2.5
425.964	2.51
426.169	2.52
426.375	2.58
426.58	2.56
426.785	2.62
426.99	2.63
427.195	2.6
427.4	2.56
427.605	2.63
427.811	2.61
428.016	2.54
428.221	2.4
428.426	2.3
428.631	2.23
428.836	2.18
429.041	2.04
429.246	2.09
429.451	2.16
429.656	2.09
429.861	2.2
430.066	2.22
430.271	2.18
430.476	2.12
430.681	2.18
430.886	2.22
431.09	2.33
431.295	2.4
431.5	2.35
431.705	2.42
431.91	2.46
432.115	2.47
432.32	2.51
432.524	2.47
432.729	2.47
432.934	2.49
433.139	2.58
433.343	2.43
433.548	2.4
433.753	2.43
433.958	2.34
434.162	2.42
434.367	2.46
434.572	2.47
434.776	2.43
434.981	2.38
435.186	2.4
435.39	2.36
435.595	2.34
435.799	2.26
436.004	2.28
436.209	2.3
436.413	2.21
436.618	2.24
436.822	2.2
437.027	2.2
437.231	2.1
437.436	2.07
437.64	2.21
437.845	2.22
438.049	2.29
438.253	2.33
438.458	2.36
438.662	2.41
438.867	2.43
439.071	2.38
439.275	2.43
439.48	2.46
439.684	2.44
439.888	2.53
440.093	2.53
440.297	2.51
440.501	2.48
440.706	2.57
440.91	2.57
441.114	2.6
441.318	2.56
441.523	2.51
441.727	2.53
441.931	2.53
442.135	2.44
442.339	2.48
442.543	2.49
442.748	2.51
442.952	2.48
443.156	2.47
443.36	2.42
443.564	2.39
443.768	2.35
443.972	2.46
444.176	2.51
444.38	2.52
444.584	2.43
444.788	2.45
444.992	2.41
445.196	2.37
445.4	2.32
445.604	2.24
445.808	2.3
446.012	2.18
446.216	2.15
446.42	2.16
446.624	2.06
446.828	2.01
447.032	2
447.235	2.09
447.439	2.09
447.643	2.02
447.847	2.01
448.051	2.06
448.254	2.11
448.458	2.01
448.662	2.07
448.866	2.06
449.069	2.09
449.273	2.1
449.477	2.1
449.681	2.15
449.884	2.13
450.088	2.11
450.292	2.17
450.495	2.15
450.699	2.17
450.902	2.1
451.106	2.13
451.31	2.18
451.513	2.22
451.717	2.22
451.92	2.32
452.124	2.22
452.327	2.17
452.531	2.2
452.734	2.23
452.938	2.29
453.141	2.28
453.345	2.25
453.548	2.31
453.752	2.37
453.955	2.25
454.158	2.22
454.362	2.17
454.565	2.08
454.769	2.23
454.972	2.23
455.175	2.15
455.379	2.17
455.582	2.13
455.785	2.2
455.988	2.17
456.192	2.12
456.395	2.09
456.598	2.15
456.801	2.16
457.005	2.13
457.208	2.14
457.411	2.12
457.614	2.14
457.817	2.09
458.021	2.04
458.224	2.02
458.427	1.98
458.63	2
458.833	2.04
459.036	2.07
459.239	2.07
459.442	2.1
459.645	2.16
459.848	2.2
460.051	2.21
460.254	2.26
460.457	2.35
460.66	2.37
460.863	2.37
461.066	2.4
461.269	2.36
461.472	2.31
461.675	2.2
461.878	2.18
462.081	2.16
462.284	2.11
462.486	2.03
462.689	2.02
462.892	2.02
463.095	2.05
463.298	2.08
463.5	2.11
463.703	2.02
463.906	2.1
464.109	2.11
464.311	2.25
464.514	2.34
464.717	2.37
464.92	2.43
465.122	2.42
465.325	2.39
465.528	2.34
465.73	2.21
465.933	2.16
466.135	2.16
466.338	2.19
466.541	2.12
466.743	2.08
466.946	1.91
467.148	1.88
467.351	1.78
467.553	1.72
467.756	1.78
467.958	1.71
468.161	1.72
468.363	1.83
468.566	1.85
468.768	1.8
468.971	1.81
469.173	1.87
469.375	1.93
469.578	2.03
469.78	2.04
469.983	2.03
470.185	2.01
470.387	1.93
470.59	2.01
470.792	2.05
470.994	1.93
471.196	1.95
471.399	2.01
471.601	1.99
471.803	1.93
472.005	1.96
472.208	1.89
472.41	1.93
472.612	1.93
472.814	1.94
473.016	1.98
473.218	2
473.421	1.97
473.623	2.12
473.825	2.16
474.027	2.18
474.229	2.26
474.431	2.35
474.633	2.37
474.835	2.47
475.037	2.5
475.239	2.6
475.441	2.67
475.643	2.64
475.845	2.61
476.047	2.62
476.249	2.57
476.451	2.54
476.653	2.56
476.855	2.52
477.057	2.45
477.258	2.41
477.46	2.38
477.662	2.28
477.864	2.22
478.066	2.12
478.268	2.19
478.469	2.19
478.671	2.18
478.873	2.2
479.075	2.17
479.276	2.13
479.478	2.11
479.68	2.12
479.882	2.08
480.083	2.08
480.285	2.06
480.487	2.01
480.688	2.06
480.89	2.02
481.091	2.02
481.293	2.01
481.495	1.94
481.696	1.94
481.898	1.9
482.099	1.9
482.301	1.91
482.502	1.92
482.704	1.94
482.905	1.95
483.107	1.95
483.308	1.92
483.51	1.92
483.711	1.91
483.913	1.9
484.114	1.95
484.315	1.96
484.517	1.99
484.718	2.01
484.92	2
485.121	2.03
485.322	2.01
485.524	2.02
485.725	2.03
485.926	2.07
486.127	2.06
486.329	2.08
486.53	2.08
486.731	2.08
486.932	2.06
487.134	2.06
487.335	2.06
487.536	2.1
487.737	2.1
487.938	2.12
488.139	2.1
488.341	2.12
488.542	2.06
488.743	2.07
488.944	2.08
489.145	2.13
489.346	2.15
489.547	2.18
489.748	2.18
489.949	2.21
490.15	2.15
490.351	2.12
490.552	2.12
490.753	2.15
490.954	2.18
491.155	2.24
491.356	2.26
491.557	2.19
491.758	2.15
491.959	2.12
492.159	2.13
492.36	2.17
492.561	2.19
492.762	2.24
492.963	2.3
493.164	2.3
493.364	2.31
493.565	2.34
493.766	2.31
493.967	2.25
494.167	2.37
494.368	2.39
494.569	2.37
494.769	2.36
494.97	2.35
495.171	2.3
495.371	2.3
495.572	2.3
495.773	2.33
495.973	2.31
496.174	2.22
496.375	2.27
496.575	2.35
496.776	2.36
496.976	2.37
497.177	2.42
497.377	2.45
497.578	2.45
497.778	2.49
497.979	2.56
498.179	2.56
498.38	2.57
498.58	2.62
498.78	2.72
498.981	2.74
499.181	2.68
499.382	2.69
499.582	2.8
499.782	2.72
499.983	2.7
500.183	2.72
500.383	2.64
500.584	2.62
500.784	2.65
500.984	2.63
501.184	2.58
501.385	2.58
501.585	2.58
501.785	2.57
501.985	2.66
502.185	2.57
502.386	2.71
502.586	2.72
502.786	2.75
502.986	2.93
503.186	2.92
503.386	2.86
503.586	2.9
503.786	2.98
503.987	3
504.187	3.01
504.387	3.04
504.587	2.98
504.787	3.08
504.987	3.03
505.187	3
505.387	3.03
505.587	3.03
505.786	3.07
505.986	3.2
506.186	3.23
506.386	3.25
506.586	3.25
506.786	3.3
506.986	3.32
507.186	3.34
507.386	3.27
507.585	3.29
507.785	3.38
507.985	3.39
508.185	3.38
508.384	3.32
508.584	3.31
508.784	3.29
508.984	3.26
509.183	3.33
509.383	3.32
509.583	3.4
509.782	3.45
509.982	3.59
510.182	3.61
510.381	3.64
510.581	3.69
510.781	3.69
510.98	3.84
511.18	3.89
511.379	3.91
511.579	4.05
511.778	4.07
511.978	4.13
512.177	4.15
512.377	4.16
512.576	4.16
512.776	4.23
512.975	4.29
513.175	4.32
513.374	4.37
513.573	4.41
513.773	4.47
513.972	4.58
514.172	4.56
514.371	4.66
514.57	4.73
514.77	4.73
514.969	4.78
515.168	4.8
515.367	4.85
515.567	4.9
515.766	4.91
515.965	4.95
516.164	4.96
516.364	4.89
516.563	4.94
516.762	4.99
516.961	5
517.16	5.04
517.359	5.09
517.559	5.13
517.758	5.2
517.957	5.25
518.156	5.3
518.355	5.37
518.554	5.36
518.753	5.42
518.952	5.57
519.151	5.63
519.35	5.67
519.549	5.73
519.748	5.82
519.947	5.88
520.146	5.94
520.345	6.03
520.544	6.13
520.743	6.17
520.942	6.27
521.141	6.43
521.339	6.44
521.538	6.39
521.737	6.36
521.936	6.42
522.135	6.47
522.333	6.51
522.532	6.6
522.731	6.66
522.93	6.65
523.129	6.65
523.327	6.67
523.526	6.74
523.725	6.79
523.923	6.87
524.122	6.97
524.321	7.08
524.519	7.16
524.718	7.21
524.917	7.23
525.115	7.27
525.314	7.32
525.512	7.36
525.711	7.43
525.909	7.47
526.108	7.52
526.306	7.57
526.505	7.62
526.703	7.65
526.902	7.66
527.1	7.68
527.299	7.72
527.497	7.75
527.696	7.8
527.894	7.83
528.092	7.89
528.291	7.91
528.489	7.96
528.688	7.96
528.886	8
529.084	8.06
529.283	8.14
529.481	8.22
529.679	8.29
529.877	8.33
530.076	8.44
530.274	8.49
530.472	8.58
530.67	8.65
530.869	8.76
531.067	8.83
531.265	8.9
531.463	8.98
531.661	9.03
531.859	9.06
532.057	9.13
532.255	9.15
532.454	9.22
532.652	9.25
532.85	9.31
533.048	9.4
533.246	9.42
533.444	9.45
533.642	9.53
533.84	9.61
534.038	9.64
534.236	9.72
534.434	9.75
534.632	9.79
534.83	9.86
535.027	9.89
535.225	9.97
535.423	10
535.621	10.02
535.819	10.09
536.017	10.12
536.215	10.17
536.412	10.2
536.61	10.24
536.808	10.28
537.006	10.39
537.203	10.48
537.401	10.56
537.599	10.64
537.797	10.7
537.994	10.8
538.192	10.85
538.39	10.88
538.587	10.91
538.785	10.91
538.983	10.99
539.18	11.02
539.378	11.07
539.575	11.09
539.773	11.11
539.97	11.14
540.168	11.17
540.366	11.2
540.563	11.25
540.761	11.29
540.958	11.41
541.155	11.47
541.353	11.53
541.55	11.6
541.748	11.7
541.945	11.71
542.143	11.81
542.34	11.9
542.537	11.99
542.735	12.06
542.932	12.15
543.129	12.2
543.327	12.31
543.524	12.33
543.721	12.48
543.919	12.58
544.116	12.57
544.313	12.63
544.51	12.78
544.708	12.85
544.905	12.86
545.102	12.95
545.299	13.05
545.496	13.1
545.693	13.12
545.891	13.07
546.088	13.17
546.285	13.16
546.482	13.18
546.679	13.3
546.876	13.37
547.073	13.44
547.27	13.48
547.467	13.6
547.664	13.67
547.861	13.67
548.058	13.72
548.255	13.91
548.452	14.06
548.649	14.05
548.846	14.12
549.043	14.26
549.24	14.36
549.437	14.37
549.633	14.41
549.83	14.45
550.027	14.54
550.224	14.61
550.421	14.72
550.618	14.79
550.814	14.78
551.011	14.81
551.208	14.89
551.405	14.96
551.601	14.94
551.798	14.98
551.995	15.07
552.191	15.05
552.388	15.16
552.585	15.16
552.781	15.18
552.978	15.23
553.175	15.41
553.371	15.47
553.568	15.6
553.764	15.69
553.961	15.7
554.157	15.74
554.354	15.85
554.55	15.93
554.747	16.02
554.943	16.09
555.14	16.17
555.336	16.15
555.533	16.22
555.729	16.17
555.926	16.22
556.122	16.21
556.318	16.29
556.515	16.37
556.711	16.55
556.907	16.65
557.104	16.7
557.3	16.81
557.496	16.88
557.693	16.92
557.889	17.08
558.085	17.22
558.281	17.3
558.478	17.34
558.674	17.38
558.87	17.4
559.066	17.53
559.262	17.59
559.459	17.59
559.655	17.73
559.851	17.78
560.047	17.76
560.243	17.89
560.439	17.99
560.635	18.09
560.831	18.14
561.027	18.23
561.223	18.43
561.419	18.59
561.615	18.73
561.811	18.79
562.007	18.94
562.203	18.93
562.399	18.99
562.595	19.15
562.791	19.13
562.987	19.14
563.183	19.17
563.379	19.24
563.575	19.3
563.771	19.35
563.966	19.29
564.162	19.26
564.358	19.32
564.554	19.28
564.75	19.35
564.945	19.41
565.141	19.44
565.337	19.49
565.533	19.56
565.728	19.59
565.924	19.61
566.12	19.71
566.315	19.74
566.511	19.85
566.707	19.92
566.902	19.97
567.098	19.97
567.293	20
567.489	20.03
567.684	20.05
567.88	20.18
568.076	20.19
568.271	20.28
568.467	20.33
568.662	20.38
568.858	20.41
569.053	20.39
569.248	20.34
569.444	20.38
569.639	20.48
569.835	20.51
570.03	20.65
570.225	20.83
570.421	20.81
570.616	20.97
570.812	20.95
571.007	21.09
571.202	21.12
571.397	21.23
571.593	21.36
571.788	21.51
571.983	21.53
572.178	21.69
572.374	21.74
572.569	21.79
572.764	21.68
572.959	21.75
573.154	21.77
573.35	21.82
573.545	21.8
573.74	21.85
573.935	21.81
574.13	21.81
574.325	21.83
574.52	21.86
574.715	21.75
574.91	21.95
575.105	21.94
575.3	21.99
575.495	22.08
575.69	22.17
575.885	22.18
576.08	22.23
576.275	22.35
576.47	22.45
576.665	22.6
576.86	22.65
577.055	22.79
577.25	22.91
577.444	22.86
577.639	22.85
577.834	22.94
578.029	22.79
578.224	22.78
578.418	22.92
578.613	23.01
578.808	22.86
579.003	22.9
579.197	22.91
579.392	22.94
579.587	22.89
579.781	22.91
579.976	22.9
580.171	22.92
580.365	22.98
580.56	23.21
580.755	23.05
580.949	22.97
581.144	22.99
581.338	23.11
581.533	23.16
581.727	23.2
581.922	23.24
582.116	23.31
582.311	23.4
582.505	23.39
582.7	23.45
582.894	23.43
583.089	23.32
583.283	23.38
583.478	23.53
583.672	23.66
583.866	23.75
584.061	23.8
584.255	23.74
584.449	23.83
584.644	23.78
584.838	23.82
585.032	23.84
585.226	23.9
585.421	23.93
585.615	24.06
585.809	24.24
586.003	24.28
586.198	24.3
586.392	24.31
586.586	24.29
586.78	24.32
586.974	24.33
587.168	24.46
587.363	24.43
587.557	24.45
587.751	24.53
587.945	24.57
588.139	24.7
588.333	24.69
588.527	24.72
588.721	24.64
588.915	24.61
589.109	24.62
589.303	24.69
589.497	24.75
589.691	24.78
589.885	24.97
590.079	25.03
590.273	25.01
590.466	25.02
590.66	25
590.854	24.88
591.048	24.88
591.242	24.85
591.436	24.92
591.629	25.02
591.823	25
592.017	25.03
592.211	25.03
592.404	24.97
592.598	25.08
592.792	25.1
592.986	25.11
593.179	25.16
593.373	25.38
593.567	25.46
593.76	25.48
593.954	25.5
594.147	25.56
594.341	25.57
594.535	25.54
594.728	25.62
594.922	25.6
595.115	25.53
595.309	25.6
595.502	25.7
595.696	25.73
595.889	25.65
596.083	25.69
596.276	25.8
596.47	25.75
596.663	25.71
596.856	25.79
597.05	25.88
597.243	25.85
597.437	25.92
597.63	26.12
597.823	26.16
598.017	26.16
598.21	26.26
598.403	26.46
598.596	26.43
598.79	26.53
598.983	26.58
599.176	26.61
599.369	26.55
599.563	26.46
599.756	26.49
599.949	26.56
600.142	26.5
600.335	26.42
600.528	26.43
600.722	26.22
600.915	26.24
601.108	26.32
601.301	26.18
601.494	26.35
601.687	26.36
601.88	26.4
602.073	26.46
602.266	26.48
602.459	26.41
602.652	26.42
602.845	26.46
603.038	26.56
603.231	26.6
603.424	26.6
603.617	26.66
603.809	26.72
604.002	26.72
604.195	26.74
604.388	26.72
604.581	26.8
604.774	26.81
604.966	26.82
605.159	26.84
605.352	26.94
605.545	26.9
605.737	26.93
605.93	26.92
606.123	26.79
606.316	26.87
606.508	26.94
606.701	26.95
606.894	27.08
607.086	27.08
607.279	27.06
607.471	27.19
607.664	27.22
607.857	27.11
608.049	27.06
608.242	27.08
608.434	27.05
608.627	27.23
608.819	27.24
609.012	27.29
609.204	27.28
609.397	27.22
609.589	27.3
609.782	27.43
609.974	27.4
610.166	27.35
610.359	27.39
610.551	27.54
610.743	27.58
610.936	27.58
611.128	27.49
611.32	27.29
611.513	27.14
611.705	27.16
611.897	27.2
612.09	27.06
612.282	27.04
612.474	27.11
612.666	27.3
612.858	27.47
613.051	27.29
613.243	27.43
613.435	27.59
613.627	27.55
613.819	27.75
614.011	27.89
614.203	27.81
614.395	27.89
614.588	27.91
614.78	27.79
614.972	27.84
615.164	27.78
615.356	27.78
615.548	27.92
615.74	27.87
615.932	27.8
616.124	27.75
616.315	27.8
616.507	27.86
616.699	27.95
616.891	27.82
617.083	27.84
617.275	27.88
617.467	27.77
617.659	27.66
617.85	27.57
618.042	27.54
618.234	27.52
618.426	27.58
618.618	27.77
618.809	27.69
619.001	27.67
619.193	27.73
619.384	27.75
619.576	27.81
619.768	27.77
619.959	27.76
620.151	27.82
620.343	27.79
620.534	27.73
620.726	27.83
620.917	27.82
621.109	27.63
621.301	27.64
621.492	27.63
621.684	27.54
621.875	27.68
622.067	27.65
622.258	27.8
622.45	27.98
622.641	27.9
622.832	28.06
623.024	28.13
623.215	28.15
623.407	28.13
623.598	28.12
623.789	28.25
623.981	28.24
624.172	28.2
624.363	28.28
624.555	28.22
624.746	28.18
624.937	28.12
625.129	28.21
625.32	28.04
625.511	28.07
625.702	28.02
625.893	28.07
626.085	28.14
626.276	27.98
626.467	27.9
626.658	27.96
626.849	27.99
627.04	27.99
627.231	27.87
627.422	27.88
627.614	27.78
627.805	27.91
627.996	27.84
628.187	27.79
628.378	27.8
628.569	27.75
628.76	27.74
628.951	27.63
629.142	27.7
629.332	27.62
629.523	27.73
629.714	27.9
629.905	27.77
630.096	27.78
630.287	27.73
630.478	27.81
630.669	27.78
630.859	27.62
631.05	27.7
631.241	27.79
631.432	28.01
631.623	27.96
631.813	27.87
632.004	27.78
632.195	27.67
632.385	27.85
632.576	28.08
632.767	28.01
632.957	27.94
633.148	28.13
633.339	28.16
633.529	28.18
633.72	28.24
633.91	28.21
634.101	28.26
634.292	28.29
634.482	28.43
634.673	28.59
634.863	28.58
635.054	28.44
635.244	28.49
635.435	28.7
635.625	28.62
635.815	28.63
636.006	28.68
636.196	28.79
636.387	28.77
636.577	28.73
636.767	28.76
636.958	28.6
637.148	28.57
637.338	28.48
637.529	28.37
637.719	28.53
637.909	28.37
638.099	28.35
638.29	28.39
638.48	28.55
638.67	28.61
638.86	28.57
639.05	28.56
639.241	28.61
639.431	28.54
639.621	28.7
639.811	28.74
640.001	29.05
640.191	28.94
640.381	29.11
640.571	28.99
640.761	29.02
640.951	28.89
641.141	28.56
641.331	28.66
641.521	28.66
641.711	28.7
641.901	28.97
642.091	28.65
642.281	28.61
642.471	28.41
642.661	28.36
642.851	28.22
643.041	28.22
643.231	28.21
643.42	28.29
643.61	28.31
643.8	28.16
643.99	28.23
644.18	28.05
644.369	28.03
644.559	28.08
644.749	28
644.939	28.09
645.128	28.16
645.318	28.25
645.508	28.24
645.697	28.26
645.887	28.2
646.076	28.57
646.266	28.81
646.456	28.89
646.645	29.07
646.835	28.99
647.024	29.06
647.214	29.33
647.403	29.22
647.593	29.33
647.782	29.27
647.972	29.52
648.161	29.43
648.351	29.34
648.54	29.07
648.73	28.83
648.919	28.7
649.108	28.65
649.298	28.58
649.487	28.79
649.677	28.66
649.866	28.77
650.055	28.76
650.244	28.82
650.434	28.75
650.623	28.82
650.812	28.94
651.002	28.99
651.191	29.1
651.38	29.16
651.569	29.29
651.758	29.31
651.947	29.17
652.137	28.96
652.326	28.85
652.515	28.88
652.704	28.81
652.893	28.67
653.082	28.83
653.271	28.79
653.46	28.9
653.649	29
653.838	29.07
654.027	29.01
654.216	29.21
654.405	29.38
654.594	29.66
654.783	29.66
654.972	29.58
655.161	29.64
655.35	29.74
655.539	29.71
655.728	29.84
655.916	29.63
656.105	29.59
656.294	29.63
656.483	29.64
656.672	29.55
656.86	29.42
657.049	29.47
657.238	29.54
657.427	29.69
657.615	29.71
657.804	29.65
657.993	29.67
658.181	29.61
658.37	29.73
658.559	29.71
658.747	29.64
658.936	29.6
659.125	29.61
659.313	29.59
659.502	29.53
659.69	29.77
659.879	29.56
660.067	29.59
660.256	29.78
660.444	29.69
660.633	29.65
660.821	29.67
661.01	29.61
661.198	29.66
661.387	29.62
661.575	29.58
661.763	29.61
661.952	29.61
662.14	29.28
662.328	29.44
662.517	29.58
662.705	29.38
662.893	29.55
663.082	29.36
663.27	29.37
663.458	29.55
663.646	29.64
663.834	29.57
664.023	29.54
664.211	29.44
664.399	29.34
664.587	29.42
664.775	29.28
664.963	29.07
665.152	29.15
665.34	28.88
665.528	29.07
665.716	29.09
665.904	29.03
666.092	29.05
666.28	29.13
666.468	29.32
666.656	29.35
666.844	29.58
667.032	29.53
667.22	29.71
667.408	29.6
667.596	29.63
667.784	29.9
667.971	29.81
668.159	29.82
668.347	29.85
668.535	29.81
668.723	29.83
668.911	29.76
669.098	29.64
669.286	29.49
669.474	29.48
669.662	29.42
669.849	29.58
670.037	29.55
670.225	29.66
670.413	29.78
670.6	29.77
670.788	29.7
670.976	29.62
671.163	29.61
671.351	29.6
671.538	29.74
671.726	29.71
671.913	29.87
672.101	29.8
672.289	29.84
672.476	29.93
672.664	29.83
672.851	29.8
673.039	29.9
673.226	30.11
673.413	29.89
673.601	29.68
673.788	29.67
673.976	29.59
674.163	29.52
674.35	29.53
674.538	29.49
674.725	29.44
674.912	29.38
675.1	29.29
675.287	29.29
675.474	29.24
675.662	29.26
675.849	29.55
676.036	29.82
676.223	29.74
676.411	29.81
676.598	29.92
676.785	29.81
676.972	29.84
677.159	29.75
677.346	29.67
677.533	29.62
677.721	29.69
677.908	29.61
678.095	29.62
678.282	29.65
678.469	29.51
678.656	29.66
678.843	29.87
679.03	29.79
679.217	29.78
679.404	29.63
679.591	29.76
679.778	29.59
679.964	29.57
680.151	29.36
680.338	29.41
680.525	29.16
680.712	29.01
680.899	29.19
681.086	28.95
681.272	28.67
681.459	28.88
681.646	28.93
681.833	29.22
682.02	29.02
682.206	29.02
682.393	28.86
682.58	29.13
682.766	29.11
682.953	29.24
683.14	29.47
683.326	29.5
683.513	29.82
683.7	29.93
683.886	29.64
684.073	29.57
684.259	29.4
684.446	29.59
684.632	29.89
684.819	29.98
685.005	29.86
685.192	29.73
685.378	29.78
685.565	29.63
685.751	29.38
685.938	29.35
686.124	29.29
686.31	29.63
686.497	29.64
686.683	29.78
686.87	29.53
687.056	29.45
687.242	29.72
687.429	29.78
687.615	30.07
687.801	30.13
687.987	29.97
688.174	30.25
688.36	30.31
688.546	30.24
688.732	29.93
688.918	29.92
689.105	29.84
689.291	30.08
689.477	30.19
689.663	29.85
689.849	29.88
690.035	29.92
690.221	29.83
690.407	29.78
690.593	29.74
690.779	29.54
690.965	29.7
691.151	29.76
691.337	29.91
691.523	30.03
691.709	29.8
691.895	29.59
692.081	29.72
692.267	29.7
692.453	29.24
692.639	29.09
692.825	29.44
693.011	29.23
693.196	29.16
693.382	29.29
693.568	29.14
693.754	29.19
693.94	29.3
694.125	29.26
694.311	29.6
694.497	29.56
694.682	29.5
694.868	29.55
695.054	29.6
695.239	29.43
695.425	29.64
695.611	29.52
695.796	29.34
695.982	29.81
696.168	29.54
696.353	29.4
696.539	29.73
696.724	29.61
696.91	29.47
697.095	29.34
697.281	29.35
697.466	29.46
697.652	29.51
697.837	29.46
698.023	29.66
698.208	29.73
698.393	29.58
698.579	29.65
698.764	29.58
698.949	29.59
699.135	29.69
699.32	29.98
699.505	29.87
699.691	30.04
699.876	29.9
700.061	29.96
700.246	30.06
700.432	30.05
700.617	29.84
700.802	29.51
700.987	29.94
701.172	29.94
701.358	29.8
701.543	29.4
701.728	28.97
701.913	29.17
702.098	29.26
702.283	29.44
702.468	29.04
702.653	28.93
702.838	28.64
703.023	28.83
703.208	29.24
703.393	28.81
703.578	28.73
703.763	28.21
703.948	28.65
704.133	28.82
704.318	28.96
704.503	29.01
704.688	28.89
704.873	29.08
705.057	29.21
705.242	29.28
705.427	29.3
705.612	29.26
705.797	29.16
705.981	29.56
706.166	29.95
706.351	29.8
706.536	29.88
706.72	29.87
706.905	29.59
707.09	29.65
707.274	29.83
707.459	29.79
707.644	29.96
707.828	29.72
708.013	29.22
708.197	29.24
708.382	29.04
708.567	29.17
708.751	28.95
708.936	28.75
709.12	28.84
709.305	28.59
709.489	28.72
709.673	28.74
709.858	28.53
710.042	28.38
710.227	28.53
710.411	29.01
710.596	29.08
710.78	28.72
710.964	28.88
711.149	29.05
711.333	29.12
711.517	29.18
711.702	29.42
711.886	29.39
712.07	29.01
712.254	29.05
712.438	29.19
712.623	29.32
712.807	29.1
712.991	29.07
713.175	29.39
713.359	29.11
713.544	29.16
713.728	29.45
713.912	29.55
714.096	29.51
714.28	29.46
714.464	29.8
714.648	29.76
714.832	29.57
715.016	29.36
715.2	29.46
715.384	29.69
715.568	29.7
715.752	29.76
715.936	29.6
716.12	29.68
716.304	29.53
716.488	29.31
716.671	29.2
716.855	29.15
717.039	29.01
717.223	29.17
717.407	29.28
717.59	29.47
717.774	29.23
717.958	29.33
718.142	29.07
718.325	29.24
718.509	29.24
718.693	29.61
718.877	29.84
719.06	29.72
719.244	29.33
719.428	29.36
719.611	29.28
719.795	29.1
719.978	29
720.162	28.95
720.345	28.71
720.529	28.9
720.713	28.62
720.896	28.36
721.08	27.98
721.263	28.2
721.446	28.2
721.63	28.61
721.813	28.95
721.997	28.9
722.18	29.15
722.364	29.35
722.547	29.36
722.73	29.61
722.914	29.5
723.097	29.76
723.28	29.44
723.464	29.51
723.647	29.52
723.83	29.79
724.013	29.73
724.197	29.52
724.38	29.81
724.563	29.96
724.746	30
724.929	29.9
725.112	29.7
725.296	29.74
725.479	29.94
725.662	29.97
725.845	29.93
726.028	29.92
726.211	29.81
726.394	30.05
726.577	30.1
726.76	29.98
726.943	29.8
727.126	29.58
727.309	29.65
727.492	29.59
727.675	29.53
727.858	29.39
728.041	29.77
728.224	29.74
728.407	29.52
728.589	29.65
728.772	29.33
728.955	29.29
729.138	29.53
729.321	30.07
729.503	29.79
729.686	30.1
729.869	29.85
730.052	29.88
730.234	29.68
730.417	29.68
730.6	29.47
730.782	29.44
730.965	29.79
731.148	29.63
731.33	29.51
731.513	29.39
731.695	29.11
731.878	29.21
732.061	28.68
732.243	29.07
732.426	29.12
732.608	29.15
732.791	28.92
732.973	29.18
733.156	29.2
733.338	28.56
733.52	28.76
733.703	29.04
733.885	29.07
734.068	28.5
734.25	28.62
734.432	29.13
734.615	28.91
734.797	28.9
734.979	28.68
735.162	28.62
735.344	28.62
735.526	28.93
735.708	29.19
735.891	28.84
736.073	28.28
736.255	27.75
736.437	27.92
736.619	27.79
736.802	27.29
736.984	27.18
737.166	27.25
737.348	27.04
737.53	27.4
737.712	27.25
737.894	27.1
738.076	26.82
738.258	27.6
738.44	28.01
738.622	27.89
738.804	27.97
738.986	27.88
739.168	28.09
739.35	28.35
739.532	28.34
739.714	28.96
739.896	28.94
740.078	28.69
740.259	28.74
740.441	29.03
740.623	28.48
740.805	28.85
740.987	29.31
741.168	29.6
741.35	29.64
741.532	29.4
741.714	29.17
741.895	29.08
742.077	29.03
742.259	28.85
742.44	28.64
742.622	28.58
742.804	28.26
742.985	28.77
743.167	28.5
743.348	28.64
743.53	28.34
743.711	29.12
743.893	29.31
744.075	29.59
744.256	29.75
744.438	29.47
744.619	29.57
744.8	30.05
744.982	30.14
745.163	30.4
745.345	29.73
745.526	30.13
745.707	30.01
745.889	30.25
746.07	29.46
746.252	29.43
746.433	28.67
746.614	29.12
746.795	29.32
746.977	29.45
747.158	29.26
747.339	29.02
747.52	28.54
747.702	28.47
747.883	28.08
748.064	27.75
748.245	27.37
748.426	27.36
748.607	27.69
748.788	28.28
748.97	27.6
749.151	27.65
749.332	27.75
749.513	28.19
749.694	27.93
749.875	28.23
750.056	28.43
750.237	28.55
750.418	28.08
750.599	28.51
750.78	28.78
750.96	28.57
751.141	28.34
751.322	29.18
751.503	28.9
751.684	28.26
751.865	27.77
752.046	27.8
752.226	27.77
752.407	27.96
752.588	27.56
752.769	28.04
752.949	28.09
753.13	27.68
753.311	27.38
753.492	27.58
753.672	27.01
753.853	27.47
754.034	27.86
754.214	27.85
754.395	27.84
754.575	27.38
754.756	27.53
754.937	27.47
755.117	28.01
755.298	27.53
755.478	26.82
755.659	26.68
755.839	26.96
756.02	26.83
756.2	26.59
756.381	26.55
756.561	26.56
756.741	26.92
756.922	27.31
757.102	27.24
757.283	27.48
757.463	27.31
757.643	27.46
757.823	28.08
758.004	28.87
758.184	29.08
758.364	28.64
758.545	28.41
758.725	27.95
758.905	27.97
759.085	27.45
759.265	26.99
759.446	26.82
759.626	26.58
759.806	26.28
759.986	26.2
760.166	26.51
760.346	25.96
760.526	25.8
760.706	26.42
760.886	26.8
761.066	27.1
761.246	27.35
761.426	27.55
761.606	28.1
761.786	27.84
761.966	27.69
762.146	27.69
762.326	27.81
762.506	28.15
762.686	28.41
762.866	28.29
763.046	28.09
763.225	27.76
763.405	27.82
763.585	27.96
763.765	28.25
763.945	28.11
764.124	28.12
764.304	28.5
764.484	28.47
764.664	28.63
764.843	28.25
765.023	28.12
765.203	28.17
765.382	28.22
765.562	28.63
765.741	28.88
765.921	28.7
766.101	28.23
766.28	28.01
766.46	28.15
766.639	28.15
766.819	28.55
766.998	28.23
767.178	28.22
767.357	28.22
767.537	28.16
767.716	27.9
767.896	28.14
768.075	27.34
768.254	27.44
768.434	28.4
768.613	28.72
768.792	28.51
768.972	28.39
769.151	27.88
769.33	28.49
769.51	28.57
769.689	28.24
769.868	28.2
770.047	28.16
770.226	28.04
770.406	28.75
770.585	28.25
770.764	27.49
770.943	27.22
771.122	27.55
771.301	27.64
771.48	27.54
771.66	27.03
771.839	26.86
772.018	27.32
772.197	27.31
772.376	27.44
772.555	26.96
772.734	26
772.913	26.48
773.092	26.58
773.271	27.19
773.449	27.37
773.628	27.3
773.807	27.34
773.986	27.34
774.165	26.97
774.344	26.39
774.523	26
774.701	26.28
774.88	26.47
775.059	26.82
775.238	26.4
775.417	26.68
775.595	26.2
775.774	26.53
775.953	26.36
776.131	26.54
776.31	26.27
776.489	27.12
776.667	27.18
776.846	26.94
777.025	26.19
777.203	26.26
777.382	27.03
777.56	26.62
777.739	26.58
777.917	26.86
778.096	26.99
778.274	27.23
778.453	27.82
778.631	28.11
778.81	28.05
778.988	28.61
779.166	29.67
779.345	30.58
779.523	30.38
779.702	30.37
779.88	31.63
780.058	31.49
780.237	32.19
780.415	31.82
780.593	31.71
780.771	31.41
780.95	31.5
781.128	32.05
781.306	32.67
781.484	31.9
781.662	31.85
781.841	31.58
782.019	30.87
782.197	29.58
782.375	28.41
782.553	27.79
782.731	27.93
782.909	28.26
783.087	28.31
783.265	28.01
783.443	27.39
783.621	25.93
783.799	26.05
783.977	25.91
784.155	26.51
784.333	26.83
784.511	27.8
784.689	29.31
784.867	28.81
785.045	28.07
785.223	27.87
785.4	27.34
785.578	27.59
785.756	26.93
785.934	27.41
786.112	27.47
786.289	27.59
786.467	27.06
786.645	26.48
786.823	26.45
787	26.18
787.178	25.64
787.356	25.99
787.533	25.33
787.711	25.81
787.889	25.81
788.066	25.37
788.244	25.04
788.421	24.98
788.599	24.79
788.776	24.74
788.954	25.31
789.131	25.61
789.309	25.83
789.486	27.33
789.664	27.61
789.841	27.85
790.019	28.03
790.196	27.66
790.373	28.81
790.551	29.22
790.728	29.23
790.906	30.22
791.083	30.74
791.26	30.9
791.437	29.97
791.615	29.25
791.792	29.6
791.969	29.09
792.146	30.7
792.324	30.67
792.501	31.64
792.678	30.68
792.855	30.93
793.032	31.71
793.209	31.45
793.387	30.99
793.564	31.02
793.741	31.32
793.918	31.77
794.095	30.54
794.272	30.75
794.449	30.07
794.626	29.57
794.803	29.46
794.98	30.17
795.157	30.06
795.334	29.7
795.511	29.42
795.688	28.9
795.864	28.85
796.041	28.3
796.218	28.25
796.395	29
796.572	28.57
796.749	27.44
796.925	27.77
797.102	27.14
797.279	27.18
797.456	26.66
797.632	27.17
797.809	26.04
797.986	27.23
798.162	26.76
798.339	27
798.516	27.12
798.692	26.77
798.869	27.57
799.046	27.98
799.222	28.08
799.399	28.39
799.575	28.57
799.752	29.75
799.928	28.42
800.105	29.86
800.281	29.16
800.458	29.95
800.634	29.97
800.811	29.87
800.987	29.68
801.163	29.83
801.34	29.62
801.516	29.56
801.692	29.16
801.869	28.15
802.045	27.75
802.221	28.17
802.398	28.73
802.574	29.69
802.75	29.25
802.926	30.36
803.103	30.43
803.279	29.32
803.455	29.31
803.631	29.71
803.807	29.3
803.983	29.23
804.16	29.35
804.336	29.05
804.512	29.74
804.688	28.64
804.864	28
805.04	28.53
805.216	28.23
805.392	28.2
805.568	29.57
805.744	28.5
805.92	28.45
806.096	29.06
806.272	29.15
806.448	29.2
806.623	29.25
806.799	28.97
806.975	29.26
807.151	29.67
807.327	28.92
807.503	27.28
807.678	28.24
807.854	27.24
808.03	28.49
808.206	28.19
808.381	27.11
808.557	27.6
808.733	27.45
808.908	28.09
809.084	27.54
809.26	26.65
809.435	26.14
809.611	26.51
809.787	27.5
809.962	25.95
810.138	26.9
810.313	26.59
810.489	27.47
810.664	27.39
810.84	26.79
811.015	27.93
811.191	27.78
811.366	28.88
811.542	28.94
811.717	30.27
811.892	29.63
812.068	29.75
812.243	31.28
812.419	30.08
812.594	30.46
812.769	30.4
812.944	31.19
813.12	31.57
813.295	31.67
813.47	31.08
813.645	29.94
813.821	31.27
813.996	31.1
814.171	33.12
814.346	33.24
814.521	33.22
814.697	32.29
814.872	31.23
815.047	31.06
815.222	31.05
815.397	31.22
815.572	30.56
815.747	30.39
815.922	30.77
816.097	30.48
816.272	29.18
816.447	27.18
816.622	25.96
816.797	24.83
816.972	26.27
817.147	26.46
817.322	25.75
817.496	26.86
817.671	25.69
817.846	25.72
818.021	25.06
818.196	25.25
818.371	24.71
818.545	25.18
818.72	25.27
818.895	26.21
819.069	26.01
819.244	26.4
819.419	25.56
819.594	25.89
819.768	25.15
819.943	25.82
820.117	25.62
820.292	25.98
820.467	25.99
820.641	25.75
820.816	25.3
820.99	25.56
821.165	25.47
821.339	25.5
821.514	25.5
821.688	25.98
821.863	25.91
822.037	25.96
822.212	26.09
822.386	26.09
822.56	26.35
822.735	26.52
822.909	26.54
823.084	26.95
823.258	26.65
823.432	26.64
823.606	26.92
823.781	26.82
823.955	26.65
824.129	26.85
824.303	27.08
824.478	26.87
824.652	27.08
824.826	26.47
825	26.38
825.174	26.59
825.348	26.48
825.523	26.82
825.697	27.2
825.871	26.68
826.045	27.04
826.219	27.04
826.393	26.96
826.567	26.6
826.741	26.61
826.915	26.57
827.089	26.94
827.263	26.89
827.437	26.76
827.611	26.52
827.784	26.73
827.958	26.42
828.132	26.99
828.306	26.74
828.48	27.18
828.654	27.27
828.827	26.94
829.001	27.18
829.175	27.19
829.349	26.57
829.522	26.55
829.696	27.04
829.87	27.38
830.044	27.43
830.217	27.78
830.391	26.6
830.565	25.38
830.738	24.93
830.912	24.54
831.085	25.28
831.259	26.14
831.432	27.21
831.606	27.83
831.779	27.34
831.953	26.94
832.126	26.72
832.3	26.15
832.473	26.31
832.647	27.42
832.82	28.28
832.994	27.65
833.167	28.19
833.34	29.08
833.514	28.18
833.687	27.43
833.86	27.44
834.034	27.8
834.207	28.01
834.38	27.9
834.553	28.18
834.727	27.48
834.9	27.26
835.073	27.73
835.246	27.95
835.419	28.16
835.593	27.15
835.766	27.97
835.939	28.3
836.112	28.69
836.285	28.44
836.458	28.17
836.631	29.05
836.804	29.39
836.977	29.52
837.15	30.03
837.323	30.66
837.496	29.35
837.669	27.93
837.842	27.85
838.015	26.88
838.188	26.2
838.361	26.38
838.533	26.88
838.706	26.73
838.879	26.05
839.052	25.8
839.225	26.17
839.398	25.84
839.57	25.21
839.743	28.02
839.916	28.43
840.088	26.86
840.261	27.29
840.434	27.54
840.607	27.36
840.779	26.11
840.952	25.91
841.124	25.97
841.297	25.91
841.47	27.76
841.642	28.13
841.815	27.56
841.987	25.91
842.16	26.59
842.332	28.06
842.505	27.09
842.677	28.27
842.85	27.92
843.022	29.86
843.194	30.08
843.367	32.11
843.539	32.33
843.712	30.63
843.884	30.57
844.056	31.4
844.229	33.06
844.401	33.67
844.573	35.36
844.745	34.71
844.918	33.46
845.09	34.93
845.262	34.5
845.434	34.08
845.606	34.03
845.779	34.13
845.951	34.74
846.123	34.33
846.295	33.44
846.467	33.01
846.639	31.48
846.811	30.36
846.983	31.8
847.155	31.51
847.327	29.37
847.499	26.92
847.671	30.21
847.843	25.76
848.015	28.68
848.187	28.48
848.359	27.9
848.531	25.58
848.703	25.33
848.875	25.02
849.047	24.75
849.218	24.34
849.39	22.41
849.562	22.53
849.734	26.19
849.905	25.99
850.077	27.42
850.249	22.71
850.421	23.95
850.592	23.99
850.764	27.99
850.936	31.51
851.107	29.76
851.279	32.52
851.451	31.9
851.622	33.61
851.794	37.05
851.965	38.11
852.137	38.92
852.308	39.95
852.48	41.14
852.651	39
852.823	38.27
852.994	35.71
853.166	32.71
853.337	34.85
853.509	33.17
853.68	34.74
853.851	36.38
854.023	33.65
854.194	32.27
854.365	30.82
854.537	30.05
854.708	27.93
854.879	30.64
855.05	31.21
855.222	32.99
855.393	34.71
855.564	38.03
855.735	42.23
855.906	40.16
856.078	37.81
856.249	38.07
856.42	39.72
856.591	41.35
856.762	42.09
856.933	43.77
857.104	42.58
857.275	40.42
857.446	39.81
857.617	39.28
857.788	34.77
857.959	35.01
858.13	37.32
858.301	39.33
858.472	38.96
858.643	35.87
858.814	32.72
858.985	29.48
859.155	31.75
859.326	29.78
859.497	34.26
859.668	36.67
859.839	37.37
860.009	38.83
860.18	37.36
860.351	35.71
860.522	33.96
860.692	33.28
860.863	33.39
861.034	32.49
861.204	35.48
861.375	34.07
861.546	37.9
861.716	36.42
861.887	38.55
862.057	38.49
862.228	38.64
862.398	35.38
862.569	36.13
862.739	34.45
862.91	35.93
863.08	38.27
863.251	38.75
863.421	38.39
863.592	41.24
863.762	38.37
863.932	38.68
864.103	35.5
864.273	33.36
864.443	35.34
864.614	35.82
864.784	35.1
864.954	37.62
865.125	38.03
865.295	34.4
865.465	32.95
865.635	32.93
865.805	28.34
865.976	30.01
866.146	29.8
866.316	30.44
866.486	31.4
866.656	24.15
866.826	23.96
866.996	30.31
867.166	30.95
867.336	28.8
867.506	32.17
867.676	34.2
867.846	33.76
868.016	36.88
868.186	33.07
868.356	34.71
868.526	35.21
868.696	39.79
868.866	41.48
869.036	42
869.206	38.6
869.376	38.94
869.545	40.76
869.715	40.1
869.885	41.19
870.055	40.58
870.224	38.96
870.394	41.56
870.564	40.78
870.734	38.7
870.903	35.1
871.073	39.08
871.243	38.3
871.412	38.24
871.582	40.52
871.751	40.44
871.921	41.3
872.091	41.08
872.26	41.28
872.43	42.03
872.599	43.81
872.769	45.22
872.938	48.18
873.108	45.17
873.277	42.25
873.446	41.48
873.616	44.03
873.785	44.62
873.955	42.77
874.124	42.93
874.293	42.7
874.463	43.06
874.632	44.44
874.801	42.65
874.971	41.3
875.14	37.2
875.309	40.16
875.478	41.12
875.647	43.41
875.817	40.41
875.986	37.38
876.155	38.61
876.324	35.92
876.493	32.51
876.662	32.44
876.831	28.63
877	27.75
877.17	25.15
877.339	24.6
877.508	25.28
877.677	26.76
877.846	26.6
878.015	25.6
878.184	20.89
878.352	23.02
878.521	23.65
878.69	29.47
878.859	28.55
879.028	27.83
879.197	26.87
879.366	26.93
879.534	27.41
879.703	28.86
879.872	28.32
880.041	28.32
880.21	28.03
880.378	30.04
880.547	29.63
880.716	28.54
880.884	27.59
881.053	28.16
881.222	28.59
881.39	28.88
881.559	28.37
881.727	28.06
881.896	27.73
882.065	27.79
882.233	27.34
882.402	27.3
882.57	26.6
882.739	26.65
882.907	27.02
883.076	26.45
883.244	26.92
883.412	27.37
883.581	27.02
883.749	27.75
883.918	26.77
884.086	26.24
884.254	26.54
884.423	26.5
884.591	26.75
884.759	27.3
884.927	26.54
885.096	26.92
885.264	27.91
885.432	27.23
885.6	26.9
885.769	27.85
885.937	27.41
886.105	30.79
886.273	31.73
886.441	32.23
886.609	32.51
886.777	33.64
886.945	34.51
887.113	37.43
887.281	35.2
887.449	34.79
887.617	34.28
887.785	33.43
887.953	32.97
888.121	29.71
888.289	28.57
888.457	28.75
888.625	27.11
888.793	28.43
888.961	26.83
889.129	28.35
889.296	26
889.464	29.36
889.632	30.21
889.8	29.93
889.967	28.68
890.135	29.49
