Data from 2938474_Reflection_2.txt Node
Date: Wed Jun 17 13:23:35 EDT 2015
User: robert
Spectrometer: USB4E03002
Autoset integration time: false
Trigger mode: 4
Integration Time (sec): 1.000000E-1
Scans to average: 10
Electric dark correction enabled: true
Nonlinearity correction enabled: false
Boxcar width: 5
Stray light correction enabled: false
XAxis mode: Wavelengths
Stop averaging: false
Number of Pixels in Spectrum: 3648
>>>>>Begin Spectral Data<<<<<
177.575	154.34
177.794	-59.58
178.014	-39.37
178.233	-13.59
178.452	12.54
178.672	38.91
178.891	-50.67
179.11	-251.13
179.33	-258.42
179.549	-672.27
179.768	-990.87
179.987	-454.97
180.207	-201.63
180.426	-402.71
180.645	-567.78
180.864	-166.63
181.084	-106.25
181.303	-112.21
181.522	-107.08
181.741	-141.63
181.96	-139.2
182.179	-211.48
182.398	-750.32
182.618	762.91
182.837	743.84
183.056	291.23
183.275	156.51
183.494	146.13
183.713	139.09
183.932	139.73
184.151	204.87
184.37	171.77
184.589	124.5
184.808	153.6
185.027	188.3
185.246	203.08
185.465	261.83
185.684	367.47
185.903	3272.46
186.122	486.98
186.341	336.37
186.56	258.79
186.779	311.15
186.998	671.4
187.216	797.15
187.435	248.34
187.654	202.08
187.873	329.64
188.092	1734.6
188.311	564.61
188.53	-261.8
188.748	-67.55
188.967	-16.57
189.186	-225.06
189.405	-179.71
189.623	-150.85
189.842	-77.4
190.061	-123.98
190.28	-111.43
190.498	-124.49
190.717	-333.61
190.936	-793.74
191.154	900.94
191.373	-6333.33
191.592	-2457.92
191.81	841.3
192.029	838.51
192.248	361.65
192.466	379.59
192.685	486.42
192.904	1099.65
193.122	3050.51
193.341	4942.65
193.559	-736.81
193.778	-667.32
193.996	-519.24
194.215	-145.09
194.433	-162.06
194.652	-191.69
194.87	-321.25
195.089	-492.49
195.307	745.63
195.526	510.94
195.744	218.37
195.963	137.02
196.181	152.31
196.399	136.8
196.618	142.74
196.836	121.52
197.055	136.33
197.273	138.64
197.491	153.11
197.71	178.68
197.928	177.76
198.146	165.17
198.365	133.48
198.583	104.5
198.801	105.71
199.019	133.19
199.238	141.33
199.456	137.69
199.674	158.32
199.892	157.98
200.111	137.15
200.329	146.08
200.547	198.23
200.765	261.33
200.983	250.54
201.202	241.54
201.42	167.76
201.638	265.54
201.856	243.8
202.074	252.19
202.292	300.78
202.51	298.68
202.728	207.52
202.946	131.01
203.165	99.08
203.383	141.45
203.601	122.66
203.819	114.74
204.037	73.54
204.255	74.08
204.473	54.03
204.691	70.12
204.909	54.59
205.127	60.2
205.345	105.48
205.562	134.46
205.78	132.78
205.998	252.08
206.216	197.66
206.434	510.69
206.652	134.53
206.87	179.39
207.088	124.69
207.306	107.06
207.523	116.03
207.741	115.18
207.959	155.09
208.177	103.77
208.395	102.08
208.612	123.13
208.83	121.34
209.048	138.66
209.266	163.25
209.483	181.83
209.701	248.87
209.919	93.76
210.136	132.47
210.354	110.52
210.572	391.09
210.79	203.22
211.007	111.41
211.225	162.53
211.442	95.62
211.66	72.95
211.878	75.29
212.095	187.87
212.313	230.45
212.53	171.29
212.748	161.79
212.966	138.05
213.183	168.29
213.401	168.23
213.618	161.87
213.836	145.28
214.053	146.94
214.271	195.92
214.488	79.25
214.705	83.61
214.923	63.43
215.14	66.34
215.358	71.67
215.575	53.85
215.793	66.57
216.01	69.05
216.227	79.45
216.445	78.73
216.662	60.26
216.879	66.94
217.097	66.05
217.314	67.73
217.531	72.4
217.749	48.28
217.966	48.82
218.183	41.77
218.4	32.95
218.618	42.48
218.835	40.79
219.052	41.53
219.269	47.62
219.487	49.63
219.704	54.37
219.921	44.61
220.138	56.57
220.355	62.48
220.572	59.45
220.79	61.62
221.007	58.9
221.224	62.5
221.441	72.55
221.658	74.56
221.875	75.14
222.092	70.54
222.309	67.24
222.526	66.19
222.743	57.5
222.96	59.11
223.177	48.95
223.394	47.7
223.611	46.24
223.828	44.86
224.045	38.72
224.262	32.69
224.479	30.82
224.696	36.78
224.913	32.82
225.13	31.28
225.347	28.65
225.564	29.21
225.781	25.99
225.997	23.22
226.214	20.48
226.431	16.59
226.648	15.97
226.865	15
227.082	13.22
227.298	11.89
227.515	11.32
227.732	9.38
227.949	9.52
228.165	9.21
228.382	11.08
228.599	11.43
228.816	12.51
229.032	13.5
229.249	15.35
229.466	14.94
229.682	16.26
229.899	14.29
230.116	16.63
230.332	17.61
230.549	18.14
230.765	15.54
230.982	16.2
231.199	15.18
231.415	14.17
231.632	13.73
231.848	15.4
232.065	15.95
232.281	18.47
232.498	19.36
232.714	18.52
232.931	20.52
233.147	20.29
233.364	18.04
233.58	18.55
233.797	18.83
234.013	19.07
234.23	18.35
234.446	18.4
234.662	18.79
234.879	19.31
235.095	18.65
235.312	15.75
235.528	13.95
235.744	16.09
235.961	15.01
236.177	15.22
236.393	13.36
236.61	13.4
236.826	11.81
237.042	8.92
237.258	9.24
237.475	10.32
237.691	13.02
237.907	14.05
238.123	14.18
238.339	17.09
238.556	15.84
238.772	15.1
238.988	14.68
239.204	15.28
239.42	15.92
239.636	14.93
239.853	14.16
240.069	13.11
240.285	12.79
240.501	12.21
240.717	11
240.933	10.8
241.149	10.83
241.365	10.59
241.581	10.84
241.797	11.27
242.013	11.13
242.229	11.05
242.445	11.56
242.661	11.38
242.877	12.02
243.093	11.99
243.309	11.67
243.525	11.97
243.741	12.15
243.957	11.2
244.173	10.93
244.388	11.07
244.604	11.09
244.82	10.87
245.036	11.06
245.252	10.39
245.468	10.61
245.683	10.76
245.899	10.68
246.115	10.51
246.331	10.69
246.547	10.34
246.762	10.14
246.978	9.92
247.194	9.51
247.409	9.51
247.625	9.72
247.841	9.53
248.057	9.83
248.272	9.75
248.488	10.09
248.703	9.77
248.919	9.85
249.135	9.36
249.35	10.19
249.566	10.78
249.782	10.31
249.997	10.48
250.213	9.56
250.428	9.47
250.644	9.75
250.859	9.91
251.075	10.33
251.29	10.84
251.506	10.87
251.721	10.68
251.937	10.36
252.152	11.7
252.368	11.99
252.583	13.07
252.798	14.27
253.014	14.36
253.229	13.91
253.445	13.87
253.66	13.59
253.875	13.27
254.091	12.77
254.306	13.36
254.521	11.49
254.737	9.98
254.952	10.24
255.167	9.06
255.383	8.68
255.598	8.9
255.813	9.26
256.028	9.08
256.244	9.65
256.459	9.67
256.674	8.65
256.889	8.48
257.104	8.65
257.32	8.56
257.535	8.23
257.75	8.17
257.965	8.23
258.18	7.99
258.395	7.87
258.61	7.86
258.826	7.68
259.041	8.07
259.256	8.12
259.471	8.19
259.686	8.07
259.901	7.89
260.116	8.18
260.331	7.87
260.546	7.58
260.761	7.49
260.976	7.32
261.191	7.31
261.406	6.96
261.621	7.21
261.836	6.62
262.05	6.1
262.265	6.42
262.48	6.17
262.695	6.6
262.91	7.99
263.125	8.35
263.34	8.77
263.555	8.58
263.769	9.18
263.984	9.3
264.199	9.7
264.414	10.14
264.629	10.48
264.843	9.79
265.058	9.21
265.273	7.72
265.488	6.98
265.702	6.59
265.917	6.81
266.132	6.14
266.346	5.96
266.561	5.97
266.776	6.13
266.99	5.73
267.205	6.02
267.42	5.75
267.634	6.65
267.849	7.21
268.063	7.13
268.278	6.97
268.492	7.88
268.707	7.75
268.922	7.87
269.136	7.09
269.351	7.21
269.565	7.38
269.78	7.75
269.994	7.51
270.209	7.8
270.423	7.54
270.637	7.66
270.852	7.22
271.066	6.92
271.281	7.1
271.495	7.33
271.709	7.65
271.924	7.91
272.138	7.94
272.353	7.77
272.567	7.64
272.781	8.12
272.996	8.02
273.21	8.64
273.424	9.86
273.638	9.37
273.853	9.47
274.067	9.44
274.281	9.13
274.495	9.08
274.71	8.91
274.924	8.31
275.138	8.05
275.352	8.05
275.566	7.52
275.781	6.43
275.995	6.81
276.209	7.5
276.423	7.4
276.637	7.25
276.851	7.17
277.065	7.71
277.279	7.99
277.493	7.99
277.707	7.85
277.921	7.73
278.135	8.16
278.349	8.25
278.563	7.72
278.777	7.2
278.991	7.03
279.205	7
279.419	6.79
279.633	6.73
279.847	6.78
280.061	7.17
280.275	7.02
280.489	7.06
280.703	6.83
280.917	6.72
281.131	7.18
281.344	7.67
281.558	7.58
281.772	7.34
281.986	7.26
282.2	7.62
282.414	7.42
282.627	7.13
282.841	7.05
283.055	7.05
283.269	7.44
283.482	7.14
283.696	6.6
283.91	6.61
284.123	7.1
284.337	7.18
284.551	6.87
284.764	7
284.978	7.38
285.192	7.45
285.405	7.51
285.619	7.21
285.833	7.3
286.046	7.47
286.26	8.12
286.473	8.01
286.687	8.26
286.9	7.97
287.114	8.02
287.327	8.3
287.541	8.17
287.754	8.3
287.968	8.54
288.181	8.94
288.395	8.96
288.608	8.69
288.822	8.42
289.035	8.64
289.248	8.85
289.462	8.85
289.675	8.54
289.889	8.92
290.102	8.56
290.315	8.25
290.529	8.03
290.742	8.3
290.955	8.14
291.169	8.61
291.382	8.84
291.595	9.6
291.808	9.67
292.022	10.01
292.235	9.98
292.448	10.72
292.661	11.23
292.875	11.27
293.088	11.14
293.301	11.24
293.514	11.23
293.727	11.19
293.94	10.89
294.153	10.91
294.367	11.05
294.58	10.97
294.793	10.54
295.006	10.43
295.219	10.6
295.432	10.53
295.645	10.59
295.858	10.5
296.071	10.49
296.284	10.52
296.497	10.39
296.71	10.04
296.923	9.82
297.136	9.79
297.349	9.42
297.562	9.42
297.775	9.56
297.988	9.85
298.201	9.75
298.414	9.26
298.626	9.33
298.839	9.55
299.052	9.71
299.265	10.14
299.478	10.51
299.691	10.81
299.903	10.83
300.116	10.96
300.329	11.24
300.542	11.62
300.755	11.95
300.967	12.03
301.18	11.86
301.393	11.84
301.605	11.41
301.818	11.36
302.031	11.43
302.243	11.24
302.456	11.22
302.669	10.92
302.881	11.18
303.094	11.35
303.307	11.77
303.519	11.92
303.732	11.86
303.944	12.26
304.157	12.07
304.37	11.75
304.582	11.71
304.795	11.96
305.007	11.67
305.22	11.22
305.432	11.42
305.645	11.1
305.857	11.5
306.069	11.68
306.282	11.26
306.494	11.41
306.707	11.61
306.919	11.33
307.132	10.99
307.344	11.49
307.556	11.02
307.769	11.03
307.981	11.09
308.193	11.06
308.406	11.47
308.618	12.05
308.83	12.44
309.043	12.64
309.255	12.77
309.467	12.64
309.679	12.16
309.892	12.62
310.104	12.52
310.316	12.58
310.528	12.28
310.74	12.02
310.953	11.92
311.165	11.47
311.377	11.52
311.589	11.82
311.801	12.29
312.013	12.45
312.225	12.55
312.437	12.3
312.649	12.2
312.862	12.18
313.074	12.35
313.286	12.64
313.498	12.87
313.71	12.51
313.922	13.04
314.134	12.64
314.346	13.01
314.558	13.09
314.77	13.76
314.982	14.07
315.193	14.11
315.405	14.22
315.617	13.8
315.829	13.62
316.041	14.41
316.253	14.42
316.465	14.45
316.677	14.11
316.888	14.19
317.1	13.61
317.312	13.01
317.524	13.92
317.736	13.74
317.947	13.74
318.159	14.61
318.371	14.38
318.583	13.81
318.794	14.17
319.006	14.85
319.218	14.28
319.43	15.02
319.641	15.07
319.853	14.4
320.064	14.29
320.276	14.28
320.488	13.88
320.699	14.24
320.911	14.5
321.123	14.99
321.334	14.26
321.546	14.71
321.757	14.52
321.969	14.71
322.18	14.93
322.392	15.29
322.603	15.39
322.815	15.05
323.026	14.56
323.238	13.8
323.449	12.9
323.661	12.99
323.872	13.31
324.083	13.29
324.295	13.35
324.506	13.01
324.718	13.21
324.929	13.23
325.14	13.52
325.352	13.95
325.563	14.17
325.774	14.4
325.986	14.31
326.197	13.9
326.408	14.2
326.62	13.77
326.831	14.1
327.042	13.72
327.253	13.36
327.464	13.42
327.676	13.04
327.887	13.23
328.098	13.54
328.309	13.58
328.52	13.61
328.732	13.04
328.943	12.94
329.154	13.05
329.365	13.27
329.576	13.55
329.787	13.63
329.998	13.88
330.209	14.5
330.42	14.47
330.631	14.49
330.842	14.4
331.053	14.24
331.264	14.57
331.475	14.84
331.686	14.65
331.897	15.15
332.108	14.45
332.319	14.06
332.53	13.77
332.741	13.65
332.952	13.82
333.163	14.2
333.374	14.49
333.585	14.46
333.795	13.7
334.006	14.01
334.217	13.68
334.428	13.98
334.639	14.27
334.849	13.71
335.06	13.66
335.271	13.72
335.482	13.11
335.692	12.78
335.903	13.18
336.114	13.55
336.325	13.19
336.535	12.98
336.746	13.26
336.957	12.9
337.167	13.18
337.378	13.29
337.589	13.06
337.799	13.14
338.01	13.54
338.22	13.3
338.431	13.52
338.642	13.73
338.852	13.83
339.063	13.69
339.273	14.08
339.484	13.54
339.694	13.19
339.905	13.51
340.115	14.06
340.326	14.17
340.536	14.11
340.746	13.8
340.957	13.33
341.167	13.17
341.378	12.63
341.588	12.98
341.799	13.31
342.009	12.91
342.219	12.76
342.43	12.55
342.64	12.31
342.85	12.14
343.061	12.52
343.271	12.82
343.481	12.76
343.691	13.19
343.902	12.7
344.112	13.15
344.322	13.61
344.532	13.58
344.743	13.3
344.953	12.95
345.163	13.14
345.373	12.68
345.583	12.18
345.793	11.78
346.004	12.01
346.214	11.9
346.424	11.33
346.634	11.59
346.844	11.48
347.054	11.43
347.264	11.62
347.474	11.54
347.684	11.55
347.894	11.57
348.104	11.57
348.314	11.18
348.524	11.27
348.734	11.22
348.944	11.11
349.154	11.1
349.364	11.78
349.574	11.85
349.784	11.66
349.994	11.55
350.204	11.56
350.413	11.99
350.623	12.26
350.833	12.08
351.043	11.91
351.253	11.49
351.463	11.83
351.672	11.24
351.882	11.25
352.092	11.39
352.302	11.28
352.511	11.64
352.721	11.89
352.931	11.98
353.141	11.92
353.35	12.03
353.56	12.29
353.77	11.82
353.979	11.72
354.189	11.65
354.399	11.81
354.608	11.84
354.818	11.61
355.027	11.61
355.237	11.37
355.447	11.5
355.656	11.41
355.866	10.95
356.075	10.78
356.285	10.87
356.494	10.87
356.704	10.48
356.913	10.92
357.123	11
357.332	11.08
357.542	11.04
357.751	10.61
357.96	10.59
358.17	10.97
358.379	11.2
358.589	10.66
358.798	10.49
359.007	10.83
359.217	10.27
359.426	9.96
359.635	9.56
359.845	9.63
360.054	9.94
360.263	9.77
360.472	9.67
360.682	9.65
360.891	10.15
361.1	10.2
361.309	10.1
361.519	10.3
361.728	10.5
361.937	10.45
362.146	10.16
362.355	10.07
362.564	10.28
362.774	10.26
362.983	9.94
363.192	9.56
363.401	9.45
363.61	9.14
363.819	9.41
364.028	9.45
364.237	9.36
364.446	9.29
364.655	9.13
364.864	9.2
365.073	9.27
365.282	9.65
365.491	9.72
365.7	9.7
365.909	9.86
366.118	9.8
366.327	9.42
366.536	9.81
366.745	10.47
366.954	10.68
367.162	11
367.371	10.71
367.58	10.59
367.789	10.61
367.998	10.7
368.207	10.47
368.415	10.11
368.624	10.28
368.833	10.03
369.042	9.49
369.25	9.4
369.459	9
369.668	9.07
369.877	8.8
370.085	8.84
370.294	8.94
370.503	8.91
370.711	8.99
370.92	8.95
371.129	8.85
371.337	8.53
371.546	8.17
371.754	7.88
371.963	8.12
372.171	8.38
372.38	7.99
372.589	7.49
372.797	7.44
373.006	6.98
373.214	6.95
373.423	7.13
373.631	7.54
373.84	7.56
374.048	7.78
374.256	7.51
374.465	7.3
374.673	7.64
374.882	7.75
375.09	7.8
375.298	7.81
375.507	7.7
375.715	7.76
375.923	7.59
376.132	7.91
376.34	8.01
376.548	8.02
376.757	7.93
376.965	7.69
377.173	7.73
377.381	7.76
377.59	8.32
377.798	8.46
378.006	8.16
378.214	8.21
378.423	7.93
378.631	7.91
378.839	7.65
379.047	7.79
379.255	8.2
379.463	8.35
379.671	8.38
379.879	7.72
380.088	7.88
380.296	8.15
380.504	7.99
380.712	7.94
380.92	7.68
381.128	8.07
381.336	7.77
381.544	7.28
381.752	7.05
381.96	6.85
382.168	7.15
382.376	6.62
382.584	6.36
382.791	6.36
382.999	6.47
383.207	6.43
383.415	6.17
383.623	6.28
383.831	6.13
384.039	6.06
384.247	6.05
384.454	5.73
384.662	5.95
384.87	5.79
385.078	5.72
385.285	5.63
385.493	5.91
385.701	6.04
385.909	6.01
386.116	6.36
386.324	6.23
386.532	6.15
386.739	6.14
386.947	6.11
387.155	6.31
387.362	6.34
387.57	6.28
387.778	6.02
387.985	5.8
388.193	5.87
388.4	5.73
388.608	6.07
388.816	6.28
389.023	6.39
389.231	6.4
389.438	6.32
389.646	6.18
389.853	6.13
390.061	6.07
390.268	6
390.475	5.91
390.683	5.96
390.89	5.83
391.098	5.46
391.305	5.49
391.512	5.33
391.72	5.31
391.927	5.37
392.135	5.53
392.342	5.47
392.549	5.74
392.756	5.67
392.964	5.67
393.171	5.75
393.378	5.83
393.586	5.68
393.793	5.67
394	5.74
394.207	5.61
394.414	5.6
394.622	5.67
394.829	5.39
395.036	5.24
395.243	5.02
395.45	4.8
395.657	4.98
395.864	5.07
396.072	5.12
396.279	5
396.486	4.92
396.693	4.73
396.9	4.88
397.107	4.97
397.314	5.22
397.521	5.28
397.728	5.27
397.935	5.27
398.142	5.18
398.349	5.2
398.556	5.07
398.763	5.29
398.97	5.3
399.177	5.08
399.383	4.91
399.59	4.69
399.797	4.77
400.004	4.74
400.211	4.7
400.418	4.62
400.625	4.59
400.831	4.65
401.038	4.51
401.245	4.4
401.452	4.4
401.658	4.57
401.865	4.66
402.072	4.49
402.279	4.46
402.485	4.41
402.692	4.48
402.899	4.39
403.105	4.45
403.312	4.66
403.519	4.8
403.725	4.7
403.932	4.7
404.138	4.84
404.345	4.81
404.552	4.83
404.758	4.82
404.965	4.82
405.171	4.83
405.378	4.62
405.584	4.35
405.791	4.24
405.997	4.39
406.204	4.38
406.41	4.21
406.617	4.3
406.823	4.14
407.029	4.09
407.236	4.1
407.442	4.15
407.649	4.34
407.855	4.39
408.061	4.4
408.268	4.26
408.474	4.17
408.68	4.4
408.887	4.51
409.093	4.81
409.299	4.9
409.505	4.74
409.712	4.71
409.918	4.64
410.124	4.61
410.33	4.75
410.537	4.85
410.743	4.96
410.949	4.7
411.155	4.62
411.361	4.45
411.567	4.35
411.773	4.44
411.98	4.48
412.186	4.44
412.392	4.67
412.598	4.53
412.804	4.6
413.01	4.37
413.216	4.44
413.422	4.53
413.628	4.48
413.834	4.5
414.04	4.59
414.246	4.51
414.452	4.49
414.658	4.51
414.864	4.43
415.07	4.37
415.275	4.47
415.481	4.39
415.687	4.24
415.893	4.34
416.099	4.33
416.305	4.24
416.511	4.29
416.716	4.37
416.922	4.22
417.128	4.32
417.334	4.23
417.539	4.26
417.745	4.2
417.951	4.11
418.157	3.99
418.362	3.9
418.568	3.91
418.774	3.87
418.979	3.85
419.185	3.9
419.391	3.85
419.596	3.93
419.802	3.83
420.008	3.86
420.213	3.53
420.419	3.58
420.624	3.64
420.83	3.65
421.035	3.64
421.241	3.62
421.446	3.54
421.652	3.61
421.857	3.62
422.063	3.66
422.268	3.67
422.474	4.07
422.679	4.06
422.885	4.11
423.09	4.1
423.295	4.09
423.501	4.13
423.706	4.16
423.911	4.09
424.117	4.13
424.322	4.16
424.527	4.18
424.733	4.16
424.938	4.27
425.143	4.19
425.349	4.12
425.554	4.2
425.759	4.16
425.964	4.13
426.169	3.98
426.375	3.87
426.58	3.86
426.785	3.9
426.99	3.94
427.195	3.82
427.4	3.78
427.605	3.93
427.811	3.83
428.016	3.77
428.221	3.83
428.426	3.99
428.631	3.88
428.836	3.92
429.041	3.85
429.246	3.83
429.451	3.88
429.656	3.98
429.861	3.98
430.066	4.01
430.271	4.03
430.476	3.95
430.681	3.99
430.886	4.13
431.09	4.06
431.295	4.08
431.5	4.06
431.705	3.96
431.91	3.88
432.115	3.82
432.32	3.81
432.524	3.85
432.729	3.93
432.934	3.83
433.139	3.79
433.343	3.81
433.548	3.82
433.753	3.81
433.958	3.88
434.162	3.86
434.367	3.85
434.572	3.82
434.776	3.83
434.981	3.74
435.186	3.91
435.39	3.83
435.595	3.9
435.799	3.93
436.004	3.93
436.209	3.92
436.413	3.92
436.618	3.89
436.822	3.92
437.027	3.88
437.231	3.83
437.436	3.81
437.64	3.79
437.845	3.78
438.049	3.62
438.253	3.66
438.458	3.65
438.662	3.67
438.867	3.7
439.071	3.71
439.275	3.64
439.48	3.67
439.684	3.55
439.888	3.6
440.093	3.53
440.297	3.64
440.501	3.66
440.706	3.65
440.91	3.66
441.114	3.68
441.318	3.7
441.523	3.78
441.727	3.83
441.931	3.92
442.135	3.86
442.339	3.86
442.543	3.86
442.748	3.74
442.952	3.75
443.156	3.75
443.36	3.78
443.564	3.75
443.768	3.75
443.972	3.73
444.176	3.67
444.38	3.74
444.584	3.69
444.788	3.67
444.992	3.73
445.196	3.67
445.4	3.72
445.604	3.68
445.808	3.65
446.012	3.62
446.216	3.6
446.42	3.6
446.624	3.59
446.828	3.65
447.032	3.68
447.235	3.65
447.439	3.65
447.643	3.55
447.847	3.53
448.051	3.51
448.254	3.48
448.458	3.46
448.662	3.49
448.866	3.53
449.069	3.52
449.273	3.44
449.477	3.53
449.681	3.61
449.884	3.65
450.088	3.63
450.292	3.73
450.495	3.84
450.699	3.78
450.902	3.79
451.106	3.7
451.31	3.62
451.513	3.72
451.717	3.62
451.92	3.64
452.124	3.69
452.327	3.81
452.531	3.64
452.734	3.58
452.938	3.68
453.141	3.65
453.345	3.58
453.548	3.6
453.752	3.56
453.955	3.59
454.158	3.58
454.362	3.55
454.565	3.42
454.769	3.55
454.972	3.48
455.175	3.47
455.379	3.52
455.582	3.49
455.785	3.5
455.988	3.42
456.192	3.41
456.395	3.38
456.598	3.27
456.801	3.29
457.005	3.25
457.208	3.35
457.411	3.32
457.614	3.33
457.817	3.4
458.021	3.34
458.224	3.36
458.427	3.27
458.63	3.28
458.833	3.38
459.036	3.41
459.239	3.39
459.442	3.33
459.645	3.4
459.848	3.38
460.051	3.46
460.254	3.52
460.457	3.51
460.66	3.53
460.863	3.52
461.066	3.48
461.269	3.43
461.472	3.45
461.675	3.44
461.878	3.38
462.081	3.34
462.284	3.2
462.486	3.15
462.689	3.15
462.892	3.25
463.095	3.28
463.298	3.25
463.5	3.32
463.703	3.29
463.906	3.42
464.109	3.33
464.311	3.44
464.514	3.42
464.717	3.63
464.92	3.56
465.122	3.57
465.325	3.42
465.528	3.51
465.73	3.49
465.933	3.57
466.135	3.45
466.338	3.5
466.541	3.39
466.743	3.47
466.946	3.27
467.148	3.42
467.351	3.35
467.553	3.46
467.756	3.4
467.958	3.39
468.161	3.44
468.363	3.46
468.566	3.53
468.768	3.62
468.971	3.58
469.173	3.59
469.375	3.47
469.578	3.52
469.78	3.57
469.983	3.51
470.185	3.45
470.387	3.47
470.59	3.49
470.792	3.39
470.994	3.31
471.196	3.38
471.399	3.49
471.601	3.63
471.803	3.65
472.005	3.68
472.208	3.72
472.41	3.78
472.612	3.67
472.814	3.71
473.016	3.75
473.218	3.85
473.421	3.74
473.623	3.7
473.825	3.57
474.027	3.55
474.229	3.48
474.431	3.45
474.633	3.41
474.835	3.46
475.037	3.45
475.239	3.44
475.441	3.42
475.643	3.45
475.845	3.49
476.047	3.56
476.249	3.55
476.451	3.59
476.653	3.64
476.855	3.66
477.057	3.62
477.258	3.6
477.46	3.63
477.662	3.67
477.864	3.64
478.066	3.63
478.268	3.62
478.469	3.64
478.671	3.54
478.873	3.44
479.075	3.41
479.276	3.35
479.478	3.33
479.68	3.33
479.882	3.28
480.083	3.29
480.285	3.29
480.487	3.24
480.688	3.26
480.89	3.29
481.091	3.34
481.293	3.33
481.495	3.35
481.696	3.33
481.898	3.31
482.099	3.33
482.301	3.32
482.502	3.32
482.704	3.31
482.905	3.3
483.107	3.28
483.308	3.23
483.51	3.22
483.711	3.2
483.913	3.24
484.114	3.25
484.315	3.24
484.517	3.24
484.718	3.22
484.92	3.22
485.121	3.2
485.322	3.23
485.524	3.31
485.725	3.35
485.926	3.37
486.127	3.35
486.329	3.35
486.53	3.31
486.731	3.34
486.932	3.34
487.134	3.35
487.335	3.35
487.536	3.35
487.737	3.31
487.938	3.26
488.139	3.26
488.341	3.29
488.542	3.32
488.743	3.37
488.944	3.37
489.145	3.38
489.346	3.37
489.547	3.38
489.748	3.38
489.949	3.41
490.15	3.41
490.351	3.42
490.552	3.38
490.753	3.32
490.954	3.32
491.155	3.3
491.356	3.28
491.557	3.31
491.758	3.35
491.959	3.34
492.159	3.38
492.36	3.41
492.561	3.37
492.762	3.43
492.963	3.47
493.164	3.45
493.364	3.48
493.565	3.52
493.766	3.5
493.967	3.49
494.167	3.51
494.368	3.47
494.569	3.51
494.769	3.58
494.97	3.57
495.171	3.67
495.371	3.69
495.572	3.66
495.773	3.7
495.973	3.7
496.174	3.7
496.375	3.73
496.575	3.73
496.776	3.71
496.976	3.66
497.177	3.68
497.377	3.64
497.578	3.57
497.778	3.63
497.979	3.64
498.179	3.71
498.38	3.69
498.58	3.64
498.78	3.67
498.981	3.69
499.181	3.76
499.382	3.77
499.582	3.78
499.782	3.91
499.983	3.95
500.183	3.86
500.383	3.91
500.584	3.96
500.784	4.05
500.984	3.98
501.184	4.01
501.385	4.07
501.585	4.07
501.785	4.16
501.985	4.13
502.185	4.15
502.386	4.19
502.586	4.12
502.786	4.17
502.986	4.25
503.186	4.37
503.386	4.38
503.586	4.33
503.786	4.35
503.987	4.29
504.187	4.23
504.387	4.22
504.587	4.18
504.787	4.22
504.987	4.26
505.187	4.17
505.387	4.14
505.587	4.16
505.786	4.23
505.986	4.23
506.186	4.13
506.386	4.28
506.586	4.27
506.786	4.35
506.986	4.35
507.186	4.33
507.386	4.41
507.585	4.45
507.785	4.51
507.985	4.48
508.185	4.5
508.384	4.63
508.584	4.58
508.784	4.64
508.984	4.67
509.183	4.72
509.383	4.78
509.583	4.77
509.782	4.83
509.982	4.86
510.182	4.92
510.381	5.01
510.581	5.05
510.781	5.15
510.98	5.18
511.18	5.23
511.379	5.22
511.579	5.26
511.778	5.27
511.978	5.3
512.177	5.21
512.377	5.21
512.576	5.18
512.776	5.14
512.975	5.11
513.175	5.16
513.374	5.11
513.573	5.04
513.773	5.07
513.972	5.19
514.172	5.22
514.371	5.38
514.57	5.38
514.77	5.45
514.969	5.51
515.168	5.57
515.367	5.63
515.567	5.7
515.766	5.86
515.965	5.86
516.164	5.82
516.364	5.83
516.563	5.81
516.762	5.91
516.961	5.86
517.16	5.85
517.359	5.87
517.559	5.85
517.758	5.89
517.957	5.89
518.156	5.9
518.355	5.89
518.554	5.91
518.753	5.91
518.952	5.85
519.151	5.91
519.35	5.97
519.549	5.97
519.748	6.02
519.947	6.06
520.146	6.06
520.345	6
520.544	6.06
520.743	6.05
520.942	6.06
521.141	6.11
521.339	6.11
521.538	6.14
521.737	6.16
521.936	6.18
522.135	6.11
522.333	6.1
522.532	6.12
522.731	6.19
522.93	6.28
523.129	6.34
523.327	6.32
523.526	6.35
523.725	6.36
523.923	6.38
524.122	6.4
524.321	6.5
524.519	6.56
524.718	6.65
524.917	6.64
525.115	6.62
525.314	6.64
525.512	6.72
525.711	6.78
525.909	6.8
526.108	6.84
526.306	6.85
526.505	6.88
526.703	6.89
526.902	6.89
527.1	6.9
527.299	6.92
527.497	6.89
527.696	6.88
527.894	6.89
528.092	6.9
528.291	6.93
528.489	6.91
528.688	6.9
528.886	6.91
529.084	6.94
529.283	6.98
529.481	6.99
529.679	7.08
529.877	7.14
530.076	7.16
530.274	7.21
530.472	7.22
530.67	7.3
530.869	7.37
531.067	7.41
531.265	7.47
531.463	7.48
531.661	7.51
531.859	7.51
532.057	7.51
532.255	7.57
532.454	7.55
532.652	7.54
532.85	7.56
533.048	7.57
533.246	7.61
533.444	7.61
533.642	7.62
533.84	7.69
534.038	7.77
534.236	7.78
534.434	7.78
534.632	7.85
534.83	7.9
535.027	7.93
535.225	7.94
535.423	7.93
535.621	7.96
535.819	7.92
536.017	7.93
536.215	7.91
536.412	7.95
536.61	8
536.808	8.03
537.006	7.97
537.203	8.02
537.401	8.05
537.599	8.05
537.797	8.13
537.994	8.31
538.192	8.31
538.39	8.35
538.587	8.46
538.785	8.5
538.983	8.48
539.18	8.61
539.378	8.6
539.575	8.63
539.773	8.66
539.97	8.64
540.168	8.59
540.366	8.61
540.563	8.62
540.761	8.6
540.958	8.61
541.155	8.64
541.353	8.62
541.55	8.66
541.748	8.68
541.945	8.72
542.143	8.76
542.34	8.84
542.537	8.85
542.735	8.93
542.932	8.95
543.129	8.98
543.327	9.06
543.524	9.14
543.721	9.17
543.919	9.2
544.116	9.22
544.313	9.23
544.51	9.19
544.708	9.26
544.905	9.24
545.102	9.29
545.299	9.34
545.496	9.28
545.693	9.27
545.891	9.33
546.088	9.37
546.285	9.4
546.482	9.45
546.679	9.58
546.876	9.62
547.073	9.65
547.27	9.71
547.467	9.76
547.664	9.88
547.861	10.02
548.058	10.03
548.255	10.05
548.452	10.16
548.649	10.24
548.846	10.16
549.043	10.19
549.24	10.32
549.437	10.38
549.633	10.42
549.83	10.46
550.027	10.48
550.224	10.56
550.421	10.61
550.618	10.59
550.814	10.59
551.011	10.71
551.208	10.78
551.405	10.81
551.601	10.86
551.798	10.85
551.995	10.87
552.191	10.92
552.388	10.96
552.585	11.06
552.781	11.22
552.978	11.2
553.175	11.29
553.371	11.28
553.568	11.35
553.764	11.44
553.961	11.55
554.157	11.57
554.354	11.64
554.55	11.68
554.747	11.64
554.943	11.59
555.14	11.74
555.336	11.82
555.533	11.99
555.729	12.08
555.926	12.14
556.122	12.13
556.318	12.25
556.515	12.34
556.711	12.36
556.907	12.54
557.104	12.62
557.3	12.69
557.496	12.65
557.693	12.61
557.889	12.65
558.085	12.66
558.281	12.67
558.478	12.77
558.674	12.74
558.87	13.01
559.066	12.93
559.262	13.05
559.459	13.06
559.655	13.21
559.851	13.24
560.047	13.31
560.243	13.27
560.439	13.45
560.635	13.41
560.831	13.52
561.027	13.32
561.223	13.42
561.419	13.34
561.615	13.44
561.811	13.39
562.007	13.45
562.203	13.36
562.399	13.64
562.595	13.58
562.791	13.83
562.987	13.8
563.183	14
563.379	14.06
563.575	14.23
563.771	14.32
563.966	14.46
564.162	14.57
564.358	14.75
564.554	14.7
564.75	14.74
564.945	14.76
565.141	14.78
565.337	14.87
565.533	14.97
565.728	14.84
565.924	14.88
566.12	14.96
566.315	15.04
566.511	15.08
566.707	15.16
566.902	15.26
567.098	15.3
567.293	15.47
567.489	15.49
567.684	15.51
567.88	15.77
568.076	15.83
568.271	15.9
568.467	15.99
568.662	16.11
568.858	16.19
569.053	16.3
569.248	16.32
569.444	16.39
569.639	16.43
569.835	16.47
570.03	16.44
570.225	16.53
570.421	16.51
570.616	16.49
570.812	16.51
571.007	16.62
571.202	16.71
571.397	16.75
571.593	16.79
571.788	16.88
571.983	17.06
572.178	17.23
572.374	17.35
572.569	17.37
572.764	17.52
572.959	17.61
573.154	17.71
573.35	17.81
573.545	17.86
573.74	17.95
573.935	18.04
574.13	18.13
574.325	18.18
574.52	18.06
574.715	18.09
574.91	18.03
575.105	18.04
575.3	18.01
575.495	17.95
575.69	18.05
575.885	18.08
576.08	17.99
576.275	17.9
576.47	17.98
576.665	18.12
576.86	18.31
577.055	18.38
577.25	18.41
577.444	18.38
577.639	18.56
577.834	18.6
578.029	18.59
578.224	18.7
578.418	18.82
578.613	18.78
578.808	18.72
579.003	18.89
579.197	18.87
579.392	18.84
579.587	19.07
579.781	19
579.976	19.15
580.171	19.25
580.365	19.33
580.56	19.38
580.755	19.39
580.949	19.67
581.144	19.54
581.338	19.76
581.533	19.87
581.727	19.89
581.922	20.01
582.116	19.92
582.311	20.01
582.505	20.09
582.7	20.14
582.894	20.33
583.089	20.17
583.283	20.23
583.478	20.33
583.672	20.51
583.866	20.48
584.061	20.42
584.255	20.41
584.449	20.36
584.644	20.33
584.838	20.21
585.032	20.16
585.226	20.42
585.421	20.54
585.615	20.51
585.809	20.55
586.003	20.61
586.198	20.7
586.392	20.86
586.586	20.94
586.78	20.98
586.974	21.18
587.168	21.23
587.363	21.16
587.557	21.14
587.751	21.26
587.945	21.25
588.139	21.23
588.333	21.32
588.527	21.27
588.721	21.36
588.915	21.54
589.109	21.53
589.303	21.54
589.497	21.56
589.691	21.59
589.885	21.51
590.079	21.49
590.273	21.69
590.466	21.71
590.66	21.68
590.854	21.76
591.048	21.71
591.242	21.74
591.436	21.78
591.629	21.92
591.823	21.87
592.017	21.82
592.211	21.83
592.404	21.81
592.598	21.7
592.792	21.92
592.986	21.95
593.179	22.03
593.373	22.09
593.567	22.02
593.76	22.05
593.954	22.18
594.147	22.38
594.341	22.5
594.535	22.47
594.728	22.6
594.922	22.47
595.115	22.38
595.309	22.28
595.502	22.41
595.696	22.59
595.889	22.63
596.083	22.54
596.276	22.47
596.47	22.39
596.663	22.49
596.856	22.44
597.05	22.6
597.243	22.64
597.437	22.73
597.63	22.81
597.823	22.76
598.017	22.91
598.21	23.13
598.403	23.13
598.596	23.26
598.79	23.22
598.983	23.4
599.176	23.42
599.369	23.65
599.563	23.64
599.756	23.51
599.949	23.55
600.142	23.35
600.335	23.34
600.528	23.53
600.722	23.56
600.915	23.77
601.108	23.7
601.301	23.68
601.494	23.64
601.687	23.75
601.88	23.64
602.073	23.6
602.266	23.6
602.459	23.63
602.652	23.79
602.845	23.8
603.038	23.77
603.231	23.85
603.424	23.87
603.617	23.79
603.809	23.78
604.002	23.83
604.195	23.78
604.388	23.85
604.581	23.82
604.774	23.68
604.966	23.6
605.159	23.59
605.352	23.52
605.545	23.56
605.737	23.67
605.93	23.67
606.123	23.87
606.316	24.06
606.508	24.09
606.701	24.11
606.894	24.06
607.086	24.21
607.279	24.17
607.471	24.19
607.664	24.13
607.857	24.15
608.049	24.19
608.242	24.13
608.434	24.13
608.627	24.14
608.819	24.13
609.012	24.07
609.204	24.11
609.397	24.02
609.589	24.04
609.782	24.16
609.974	24.16
610.166	24.31
610.359	24.24
610.551	24.19
610.743	24.12
610.936	24.23
611.128	24.38
611.32	24.44
611.513	24.56
611.705	24.6
611.897	24.42
612.09	24.53
612.282	24.32
612.474	24.32
612.666	24.36
612.858	24.44
613.051	24.38
613.243	24.39
613.435	24.19
613.627	24.11
613.819	24.21
614.011	24.54
614.203	24.59
614.395	24.72
614.588	24.87
614.78	24.92
614.972	24.85
615.164	24.86
615.356	24.86
615.548	24.92
615.74	24.91
615.932	24.74
616.124	24.51
616.315	24.46
616.507	24.42
616.699	24.34
616.891	24.25
617.083	24.49
617.275	24.37
617.467	24.31
617.659	24.54
617.85	24.71
618.042	24.84
618.234	24.76
618.426	24.67
618.618	24.6
618.809	24.64
619.001	24.64
619.193	24.43
619.384	24.65
619.576	24.6
619.768	24.5
619.959	24.56
620.151	24.53
620.343	24.67
620.534	24.65
620.726	24.77
620.917	24.79
621.109	25.13
621.301	25.42
621.492	25.55
621.684	25.69
621.875	25.62
622.067	25.69
622.258	25.67
622.45	25.66
622.641	25.92
622.832	25.82
623.024	25.73
623.215	25.54
623.407	25.51
623.598	25.41
623.789	25.51
623.981	25.63
624.172	25.41
624.363	25.46
624.555	25.45
624.746	25.34
624.937	25.45
625.129	25.59
625.32	25.62
625.511	25.47
625.702	25.43
625.893	25.42
626.085	25.27
626.276	25.45
626.467	25.57
626.658	25.69
626.849	25.64
627.04	25.65
627.231	25.59
627.422	25.76
627.614	25.86
627.805	25.98
627.996	25.9
628.187	25.95
628.378	25.85
628.569	25.76
628.76	25.7
628.951	25.71
629.142	25.54
629.332	25.54
629.523	25.27
629.714	25.53
629.905	25.44
630.096	25.46
630.287	25.52
630.478	25.54
630.669	25.52
630.859	25.51
631.05	25.6
631.241	25.7
631.432	25.74
631.623	25.96
631.813	25.65
632.004	25.53
632.195	25.7
632.385	25.66
632.576	25.86
632.767	25.77
632.957	25.85
633.148	25.82
633.339	25.95
633.529	26.13
633.72	26.03
633.91	26.13
634.101	26.25
634.292	26.29
634.482	26.33
634.673	26.22
634.863	26.34
635.054	26.21
635.244	26.28
635.435	26.33
635.625	26.09
635.815	26.22
636.006	26.27
636.196	26.19
636.387	26.17
636.577	26.25
636.767	26.35
636.958	26.37
637.148	26.47
637.338	26.48
637.529	26.48
637.719	26.65
637.909	26.58
638.099	26.55
638.29	26.61
638.48	26.59
638.67	26.52
638.86	26.27
639.05	26.31
639.241	26.31
639.431	26.5
639.621	26.59
639.811	26.68
640.001	26.78
640.191	26.71
640.381	26.77
640.571	26.68
640.761	26.7
640.951	26.88
641.141	26.96
641.331	26.95
641.521	26.83
641.711	26.77
641.901	26.68
642.091	26.55
642.281	26.73
642.471	26.74
642.661	26.87
642.851	26.93
643.041	26.88
643.231	26.91
643.42	27.14
643.61	27.24
643.8	27.29
643.99	27.21
644.18	27.27
644.369	27.1
644.559	27.14
644.749	27.01
644.939	27.27
645.128	27.33
645.318	27.39
645.508	27.29
645.697	27.23
645.887	27.22
646.076	27.44
646.266	27.51
646.456	27.94
646.645	27.99
646.835	28.06
647.024	27.7
647.214	27.83
647.403	27.62
647.593	27.56
647.782	27.6
647.972	27.64
648.161	27.47
648.351	27.5
648.54	27.3
648.73	27.24
648.919	27.29
649.108	27.46
649.298	27.45
649.487	27.56
649.677	27.45
649.866	27.29
650.055	27.16
650.244	27.1
650.434	26.96
650.623	26.85
650.812	26.98
651.002	26.84
651.191	26.85
651.38	26.83
651.569	26.76
651.758	26.89
651.947	26.86
652.137	26.87
652.326	26.97
652.515	27.09
652.704	27.1
652.893	27.06
653.082	27.09
653.271	27.18
653.46	26.98
653.649	27
653.838	26.95
654.027	26.85
654.216	27.04
654.405	26.91
654.594	26.74
654.783	26.77
654.972	26.79
655.161	26.8
655.35	26.58
655.539	26.7
655.728	26.76
655.916	27.02
656.105	27.14
656.294	27.1
656.483	27.14
656.672	27.41
656.86	27.37
657.049	27.43
657.238	27.54
657.427	27.81
657.615	27.81
657.804	27.81
657.993	27.76
658.181	27.74
658.37	27.72
658.559	28.05
658.747	28.08
658.936	28.14
659.125	27.92
659.313	27.89
659.502	27.87
659.69	27.92
659.879	27.97
660.067	27.96
660.256	28.04
660.444	27.96
660.633	27.74
660.821	27.65
661.01	27.75
661.198	27.87
661.387	27.88
661.575	27.77
661.763	27.91
661.952	28.12
662.14	28.2
662.328	28.34
662.517	28.63
662.705	28.72
662.893	28.55
663.082	28.33
663.27	28.5
663.458	28.58
663.646	28.54
663.834	28.44
664.023	28.14
664.211	28.04
664.399	27.83
664.587	27.5
664.775	27.27
664.963	27.34
665.152	27.75
665.34	28.07
665.528	27.85
665.716	27.87
665.904	28.09
666.092	28.09
666.28	28.02
666.468	28.09
666.656	28.41
666.844	28.73
667.032	28.77
667.22	28.46
667.408	28.33
667.596	28.42
667.784	28.56
667.971	28.33
668.159	28.48
668.347	28.39
668.535	28.52
668.723	28.26
668.911	27.98
669.098	28.11
669.286	28.1
669.474	27.93
669.662	27.98
669.849	28.02
670.037	28.33
670.225	28.36
670.413	28.59
670.6	28.27
670.788	28.4
670.976	28.5
671.163	28.39
671.351	28.38
671.538	28.37
671.726	28.42
671.913	28.25
672.101	27.95
672.289	27.9
672.476	27.78
672.664	28.23
672.851	28.19
673.039	28.49
673.226	28.5
673.413	28.49
673.601	28.44
673.788	28.41
673.976	28.28
674.163	28.43
674.35	28.32
674.538	28.36
674.725	28.24
674.912	28.08
675.1	27.96
675.287	28.15
675.474	28.23
675.662	28.4
675.849	28.54
676.036	28.72
676.223	28.37
676.411	28.6
676.598	28.74
676.785	28.58
676.972	28.67
677.159	28.58
677.346	28.31
677.533	28.53
677.721	28.64
677.908	28.54
678.095	28.78
678.282	28.86
678.469	28.73
678.656	28.72
678.843	28.95
679.03	28.9
679.217	28.88
679.404	28.94
679.591	28.79
679.778	28.58
679.964	28.67
680.151	28.35
680.338	28.62
680.525	28.42
680.712	28.38
680.899	28.42
681.086	28.66
681.272	28.7
681.459	28.82
681.646	28.96
681.833	29.09
682.02	29.1
682.206	29.41
682.393	29.33
682.58	29.54
682.766	29.39
682.953	29.16
683.14	29.12
683.326	29.29
683.513	29.23
683.7	29.27
683.886	29.15
684.073	29
684.259	28.85
684.446	28.93
684.632	28.85
684.819	29.04
685.005	29.08
685.192	28.99
685.378	28.98
685.565	29.1
685.751	29.03
685.938	29.06
686.124	29.23
686.31	29.23
686.497	29.01
686.683	29.19
686.87	29.1
687.056	29.02
687.242	29.02
687.429	28.96
687.615	28.84
687.801	28.74
687.987	28.86
688.174	28.95
688.36	28.9
688.546	28.83
688.732	28.76
688.918	28.85
689.105	28.72
689.291	28.91
689.477	28.74
689.663	28.73
689.849	28.67
690.035	28.53
690.221	28.53
690.407	28.82
690.593	28.96
690.779	29.24
690.965	29.44
691.151	29.66
691.337	29.29
691.523	29.4
691.709	29.7
691.895	29.81
692.081	29.85
692.267	29.62
692.453	29.35
692.639	29.53
692.825	29.16
693.011	28.72
693.196	28.82
693.382	29.09
693.568	28.96
693.754	28.53
693.94	28.45
694.125	28.39
694.311	28.64
694.497	28.81
694.682	28.78
694.868	28.92
695.054	28.85
695.239	28.85
695.425	29.04
695.611	28.86
695.796	28.97
695.982	29.01
696.168	29.28
696.353	29.08
696.539	29.25
696.724	29.19
696.91	29.19
697.095	29.35
697.281	29.41
697.466	29.1
697.652	29.33
697.837	29.53
698.023	29.39
698.208	29.24
698.393	29.42
698.579	29.21
698.764	29.36
698.949	29.32
699.135	29.24
699.32	29.39
699.505	29.53
699.691	29.24
699.876	29.06
700.061	29.16
700.246	29.09
700.432	28.98
700.617	29.01
700.802	28.79
700.987	28.8
701.172	29.46
701.358	29.23
701.543	29.31
701.728	29.87
701.913	29.9
702.098	29.99
702.283	30.3
702.468	30.77
702.653	30.95
702.838	31.11
703.023	31.24
703.208	30.83
703.393	31.04
703.578	31.17
703.763	30.79
703.948	30.68
704.133	30.91
704.318	30.65
704.503	30.15
704.688	29.97
704.873	29.39
705.057	29.23
705.242	28.71
705.427	28.5
705.612	28.39
705.797	28.51
705.981	28.59
706.166	28.47
706.351	28.49
706.536	28.55
706.72	28.35
706.905	28.65
707.09	28.67
707.274	28.85
707.459	28.68
707.644	29
707.828	29.2
708.013	29.26
708.197	29.03
708.382	29.39
708.567	29.07
708.751	29.39
708.936	29.81
709.12	29.72
709.305	29.89
709.489	30
709.673	29.78
709.858	29.62
710.042	29.86
710.227	30.16
710.411	29.97
710.596	30.43
710.78	30.07
710.964	29.86
711.149	30.07
711.333	29.9
711.517	30.07
711.702	30.11
711.886	30.39
712.07	29.99
712.254	30.06
712.438	30
712.623	29.89
712.807	30.16
712.991	30.19
713.175	30.19
713.359	30.19
713.544	30.08
713.728	30.13
713.912	29.5
714.096	29.36
714.28	29.19
714.464	29.21
714.648	29.27
714.832	29.2
715.016	29.19
715.2	29.25
715.384	29.44
715.568	29.5
715.752	29.38
715.936	29.74
716.12	30.26
716.304	30.21
716.488	30.19
716.671	30.25
716.855	30.31
717.039	30.19
717.223	30.2
717.407	30.28
717.59	30.26
717.774	30.32
717.958	30.21
718.142	30.18
718.325	30.16
718.509	30.2
718.693	30.3
718.877	30.4
719.06	30.79
719.244	30.86
719.428	30.71
719.611	30.61
719.795	30.61
719.978	30.38
720.162	30.34
720.345	30.68
720.529	30.46
720.713	30.4
720.896	30.41
721.08	30.14
721.263	30.25
721.446	29.95
721.63	29.71
721.813	29.62
721.997	29.98
722.18	29.75
722.364	29.8
722.547	30.13
722.73	30.02
722.914	30.06
723.097	29.71
723.28	29.77
723.464	30.17
723.647	30.23
723.83	29.95
724.013	30.24
724.197	30.4
724.38	30.03
724.563	30.07
724.746	29.9
724.929	30.16
725.112	30.23
725.296	29.83
725.479	29.8
725.662	30.03
725.845	30.51
726.028	30.22
726.211	29.86
726.394	29.84
726.577	29.98
726.76	30.28
726.943	29.95
727.126	30.59
727.309	30.78
727.492	30.58
727.675	30.28
727.858	30.66
728.041	30.88
728.224	30.91
728.407	30.77
728.589	30.25
728.772	30.31
728.955	30.06
729.138	29.86
729.321	29.43
729.503	29.7
729.686	30.08
729.869	29.68
730.052	29.56
730.234	29.73
730.417	30.28
730.6	30.6
730.782	30.5
730.965	31.13
731.148	30.91
731.33	31.03
731.513	31.15
731.695	30.85
731.878	30.8
732.061	31.08
732.243	31.25
732.426	31.08
732.608	31.44
732.791	31.28
732.973	30.83
733.156	30.8
733.338	30.67
733.52	30.42
733.703	31.01
733.885	31.07
734.068	30.77
734.25	30.82
734.432	30.51
734.615	29.98
734.797	29.59
734.979	29.74
735.162	30.02
735.344	30.13
735.526	30.19
735.708	29.7
735.891	29.28
736.073	29.37
736.255	28.96
736.437	29.22
736.619	29.31
736.802	29.32
736.984	29.51
737.166	29.82
737.348	30.21
737.53	30.7
737.712	30.16
737.894	30.36
738.076	30.32
738.258	30.61
738.44	30.77
738.622	30.43
738.804	30.9
738.986	30.7
739.168	30.07
739.35	30.04
739.532	29.46
739.714	30.69
739.896	30.76
740.078	30.68
740.259	30.4
740.441	30.61
740.623	31.19
740.805	30.98
740.987	30.96
741.168	30.95
741.35	30.97
741.532	31.6
741.714	31.23
741.895	31.23
742.077	31.14
742.259	31.58
742.44	31.05
742.622	31.02
742.804	31.37
742.985	31.36
743.167	31.9
743.348	31.67
743.53	31.46
743.711	30.87
743.893	31.4
744.075	31.37
744.256	31.36
744.438	31.86
744.619	31.99
744.8	31.94
744.982	31.86
745.163	31.74
745.345	31.92
745.526	31.66
745.707	32.02
745.889	31.27
746.07	31.07
746.252	31.59
746.433	31.75
746.614	31.6
746.795	31.64
746.977	31.67
747.158	31.8
747.339	31.81
747.52	31.52
747.702	31.94
747.883	32.12
748.064	32.3
748.245	31.59
748.426	30.66
748.607	30.36
748.788	30.4
748.97	30.37
749.151	29.51
749.332	29.16
749.513	29.02
749.694	28.9
749.875	28.98
750.056	28.69
750.237	28.36
750.418	28.96
750.599	28.92
750.78	29.19
750.96	29.23
751.141	29.6
751.322	30.21
751.503	30.77
751.684	30.32
751.865	30.58
752.046	31.06
752.226	31.93
752.407	31.58
752.588	31.74
752.769	31.57
752.949	31.4
753.13	30.99
753.311	30.33
753.492	30.54
753.672	30.83
753.853	30.73
754.034	30.68
754.214	30.29
754.395	29.98
754.575	29.65
754.756	29.5
754.937	29.44
755.117	29.95
755.298	30.46
755.478	29.72
755.659	29.51
755.839	29.71
756.02	29.61
756.2	29.28
756.381	29.89
756.561	30.16
756.741	29.96
756.922	29.62
757.102	30.11
757.283	30.33
757.463	30.9
757.643	31.1
757.823	30.34
758.004	30.39
758.184	30.4
758.364	30.43
758.545	30.7
758.725	30.16
758.905	30.75
759.085	30.46
759.265	29.79
759.446	29.24
759.626	29.36
759.806	30.05
759.986	30.65
760.166	31.24
760.346	31.1
760.526	31.01
760.706	31.69
760.886	32.16
761.066	32.57
761.246	33.24
761.426	33.85
761.606	33.33
761.786	32.71
761.966	32.25
762.146	31.45
762.326	31.34
762.506	31.1
762.686	30.88
762.866	30.66
763.046	30.26
763.225	29.95
763.405	29.71
763.585	30.01
763.765	30.16
763.945	30.15
764.124	30.67
764.304	31.15
764.484	31.22
764.664	31.34
764.843	31.33
765.023	31.54
765.203	31.73
765.382	31.64
765.562	31.49
765.741	31.34
765.921	31.87
766.101	31.54
766.28	30.75
766.46	30.54
766.639	30.71
766.819	30.5
766.998	30.57
767.178	30.17
767.357	30.59
767.537	30.58
767.716	30.96
767.896	30.95
768.075	30.74
768.254	30.99
768.434	32.2
768.613	31.74
768.792	31.57
768.972	31.25
769.151	31.29
769.33	31.09
769.51	31.66
769.689	31.8
769.868	31.59
770.047	32.06
770.226	31.95
770.406	30.98
770.585	30.65
770.764	30.59
770.943	30.31
771.122	30.19
771.301	30.14
771.48	29.65
771.66	29.36
771.839	29.24
772.018	28.89
772.197	29.06
772.376	29.61
772.555	30.25
772.734	30.55
772.913	31.08
773.092	31.38
773.271	32.03
773.449	31.6
773.628	31.12
773.807	30.91
773.986	30.95
774.165	30.98
774.344	30
774.523	29.77
774.701	29.42
774.88	28.92
775.059	29.33
775.238	28.51
775.417	29.5
775.595	30.06
775.774	29.37
775.953	28.85
776.131	28.76
776.31	29.77
776.489	29.93
776.667	29.81
776.846	30.28
777.025	30.36
777.203	30.19
777.382	29.73
777.56	29.77
777.739	29.67
777.917	30.21
778.096	30.51
778.274	30.39
778.453	29.68
778.631	30.45
778.81	30.92
778.988	30.51
779.166	31.67
779.345	32.18
779.523	31.84
779.702	32.76
779.88	33.13
780.058	32.4
780.237	32.53
780.415	33.25
780.593	33.63
780.771	33.33
780.95	32.95
781.128	31.37
781.306	30.78
781.484	31.83
781.662	32.24
781.841	32.22
782.019	33.08
782.197	32.92
782.375	32.01
782.553	30.86
782.731	30.66
782.909	30.52
783.087	31.88
783.265	31.59
783.443	30.2
783.621	29.08
783.799	29.14
783.977	29.19
784.155	28.42
784.333	29.4
784.511	29.7
784.689	29.43
784.867	30.35
785.045	28.9
785.223	28.84
785.4	28.31
785.578	28.68
785.756	28.48
785.934	28.56
786.112	29.81
786.289	30.15
786.467	30.7
786.645	31.06
786.823	30.09
787	30.97
787.178	31.09
787.356	32.15
787.533	32.51
787.711	32.36
787.889	31.3
788.066	31.15
788.244	30.75
788.421	30.12
788.599	29.84
788.776	30.49
788.954	30.83
789.131	30.73
789.309	31.22
789.486	30.39
789.664	30.53
789.841	30.81
790.019	30.68
790.196	30.87
790.373	31.63
790.551	31.72
790.728	31.8
790.906	31.38
791.083	31.82
791.26	31.17
791.437	31.86
791.615	32.33
791.792	33.1
791.969	32.88
792.146	33.22
792.324	32.81
792.501	33.42
792.678	33.12
792.855	31.92
793.032	31.69
793.209	31.9
793.387	31.16
793.564	31.19
793.741	31.51
793.918	30.87
794.095	30.15
794.272	30.6
794.449	29.76
794.626	30.02
794.803	30.79
794.98	30.86
795.157	29.9
795.334	30.5
795.511	29.91
795.688	29.66
795.864	30.86
796.041	31.68
796.218	29.94
796.395	30.41
796.572	30.43
796.749	30.87
796.925	30.8
797.102	31.61
797.279	31.1
797.456	31.73
797.632	31.22
797.809	30.84
797.986	32.03
798.162	33.15
798.339	32.63
798.516	31.87
798.692	31.35
798.869	31.44
799.046	31.52
799.222	32.11
799.399	31.55
799.575	31.92
799.752	32.08
799.928	30.77
800.105	30.69
800.281	30.54
800.458	31.83
800.634	31.31
800.811	31.32
800.987	30.98
801.163	30.64
801.34	30.86
801.516	31.02
801.692	30.86
801.869	30.46
802.045	31.27
802.221	32.78
802.398	32.61
802.574	33.82
802.75	33.44
802.926	34.66
803.103	33.98
803.279	33.27
803.455	33.17
803.631	33.25
803.807	32.97
803.983	32.88
804.16	31.34
804.336	30.94
804.512	30.26
804.688	30.4
804.864	29.93
805.04	31.42
805.216	32.33
805.392	32.72
805.568	32.45
805.744	32.78
805.92	32.33
806.096	32.95
806.272	32.3
806.448	31.63
806.623	32.2
806.799	32.24
806.975	31.09
807.151	30.94
807.327	29.98
807.503	29.18
807.678	29.97
807.854	29.95
808.03	29.41
808.206	30.43
808.381	31.06
808.557	31.25
808.733	30.8
808.908	31.83
809.084	32.49
809.26	33.83
809.435	33.76
809.611	34.18
809.787	34.19
809.962	34.95
810.138	35.46
810.313	35.65
810.489	35.52
810.664	35.88
810.84	35.43
811.015	33.29
811.191	31.9
811.366	33.96
811.542	33.04
811.717	32.82
811.892	33.93
812.068	33.61
812.243	33
812.419	31.92
812.594	31.36
812.769	31.26
812.944	32.36
813.12	32.95
813.295	32.78
813.47	33.17
813.645	33.14
813.821	32.2
813.996	32.96
814.171	34.79
814.346	35.71
814.521	36.9
814.697	36.66
814.872	36.63
815.047	36.98
815.222	35.76
815.397	34.47
815.572	34.92
815.747	34.49
815.922	34.49
816.097	34.16
816.272	34.31
816.447	34.55
816.622	34.75
816.797	35.68
816.972	35.76
817.147	36.09
817.322	37.47
817.496	37.52
817.671	36.97
817.846	35.63
818.021	34.4
818.196	34.33
818.371	34.07
818.545	34.1
818.72	33.43
818.895	32.94
819.069	32.26
819.244	32.03
819.419	31.5
819.594	31.68
819.768	32.62
819.943	33.36
820.117	33.22
820.292	33.08
820.467	32.49
820.641	32.4
820.816	32.47
820.99	32.43
821.165	31.62
821.339	31.64
821.514	31.67
821.688	31.45
821.863	31.04
822.037	31.05
822.212	31.09
822.386	31.35
822.56	31.18
822.735	31.05
822.909	31.1
823.084	31.24
823.258	31.47
823.432	31.52
823.606	31.32
823.781	31.26
823.955	31.28
824.129	30.92
824.303	30.95
824.478	31.35
824.652	31.29
824.826	31.28
825	31.81
825.174	31.22
825.348	31.47
825.523	31.43
825.697	31.93
825.871	31.75
826.045	31.69
826.219	31.47
826.393	31.18
826.567	31.34
826.741	31.32
826.915	30.88
827.089	31.14
827.263	30.93
827.437	31.25
827.611	31.07
827.784	31.19
827.958	31.87
828.132	31.75
828.306	31.54
828.48	31.42
828.654	31.93
828.827	32.01
829.001	32.34
829.175	32.22
829.349	32.06
829.522	32.48
829.696	32.62
829.87	32.74
830.044	32.4
830.217	32.45
830.391	32.92
830.565	32.43
830.738	32.59
830.912	32.26
831.085	31.01
831.259	31.88
831.432	32.01
831.606	32.64
831.779	31.06
831.953	32.17
832.126	32.4
832.3	31.98
832.473	32.22
832.647	32.36
832.82	32.85
832.994	33.68
833.167	33.12
833.34	33.15
833.514	32.68
833.687	33.42
833.86	33.36
834.034	33.39
834.207	33.17
834.38	32.94
834.553	33.65
834.727	33.38
834.9	32.46
835.073	32.27
835.246	32.42
835.419	32.46
835.593	32.48
835.766	31.98
835.939	32.35
836.112	31.81
836.285	31.11
836.458	28.45
836.631	27.44
836.804	28.59
836.977	28.37
837.15	26.64
837.323	26.1
837.496	24.4
837.669	23.61
837.842	22.53
838.015	24.19
838.188	24.67
838.361	26.43
838.533	25.31
838.706	23.76
838.879	25.74
839.052	27.56
839.225	26.85
839.398	26.49
839.57	29.15
839.743	28.81
839.916	27.48
840.088	26.04
840.261	28.09
840.434	30.69
840.607	31.76
840.779	31.48
840.952	30.17
841.124	30.64
841.297	33.11
841.47	31.95
841.642	34.66
841.815	35.32
841.987	36.48
842.16	36.29
842.332	35.6
842.505	37.66
842.677	38.72
842.85	38.66
843.022	38.83
843.194	37.82
843.367	35.98
843.539	33.26
843.712	35.54
843.884	35.86
844.056	35.47
844.229	33.55
844.401	30.87
844.573	27.42
844.745	26.24
844.918	26.95
845.09	28.56
845.262	30.02
845.434	28.96
845.606	29.3
845.779	32.97
845.951	30.9
846.123	32.87
846.295	33.5
846.467	35.72
846.639	40.21
846.811	37.57
846.983	33.76
847.155	33.57
847.327	38.86
847.499	36.18
847.671	34.19
847.843	33.15
848.015	36.03
848.187	36.28
848.359	35.53
848.531	36.11
848.703	36.83
848.875	38.27
849.047	40.1
849.218	37.26
849.39	40.61
849.562	39.33
849.734	42.2
849.905	40.91
850.077	43.92
850.249	43.95
850.421	44.8
850.592	42.69
850.764	45.82
850.936	44
851.107	46.21
851.279	45.78
851.451	50.45
851.622	47.87
851.794	48.98
851.965	46.33
852.137	45.59
852.308	43.65
852.48	48.74
852.651	41.68
852.823	44.57
852.994	42.47
853.166	39.69
853.337	36.75
853.509	37.86
853.68	36.74
853.851	34.49
854.023	32.38
854.194	33.31
854.365	33.1
854.537	38.25
854.708	37.04
854.879	33.9
855.05	34.95
855.222	36.29
855.393	40.32
855.564	37.47
855.735	36.3
855.906	39.75
856.078	38.57
856.249	37.08
856.42	35.66
856.591	36.71
856.762	38.71
856.933	35.54
857.104	33.78
857.275	30.18
857.446	33.46
857.617	36.32
857.788	33.76
857.959	33.37
858.13	34.73
858.301	35.27
858.472	33.37
858.643	32.82
858.814	35.87
858.985	32.57
859.155	38.04
859.326	37.54
859.497	40.35
859.668	45.34
859.839	43.35
860.009	41.8
860.18	40.78
860.351	41.59
860.522	42.47
860.692	42.62
860.863	46.78
861.034	42.49
861.204	41.53
861.375	42.42
861.546	40.17
861.716	42.39
861.887	43.6
862.057	45.8
862.228	45.04
862.398	47.23
862.569	48.91
862.739	54.27
862.91	52.38
863.08	48.68
863.251	44.53
863.421	43.24
863.592	44.08
863.762	42.51
863.932	44.24
864.103	46.09
864.273	43.63
864.443	46.09
864.614	42.83
864.784	45.64
864.954	49.11
865.125	52.35
865.295	55.21
865.465	59.28
865.635	59.22
865.805	57.2
865.976	55.85
866.146	55.42
866.316	51.67
866.486	50.81
866.656	55.08
866.826	49.27
866.996	48.12
867.166	46.12
867.336	39
867.506	42.59
867.676	43.17
867.846	43.28
868.016	45.85
868.186	43.18
868.356	39.44
868.526	31.48
868.696	39.65
868.866	40.69
869.036	43.41
869.206	41.29
869.376	39.69
869.545	37.09
869.715	34.46
869.885	30.94
870.055	30.91
870.224	37.86
870.394	40.22
870.564	37.13
870.734	38.2
870.903	33.93
871.073	38.67
871.243	36.95
871.412	34.57
871.582	35.38
871.751	40.03
871.921	41.72
872.091	36.89
872.26	37.71
872.43	41.65
872.599	40.29
872.769	44.89
872.938	41.44
873.108	42.05
873.277	43.69
873.446	45.93
873.616	46.67
873.785	48.08
873.955	45.76
874.124	45.23
874.293	42.14
874.463	44.13
874.632	43.34
874.801	43.53
874.971	46.04
875.14	46.03
875.309	42.32
875.478	37.74
875.647	38.04
875.817	40.26
875.986	40.26
876.155	37.61
876.324	34.61
876.493	35.91
876.662	38.81
876.831	34
877	39.25
877.17	44.36
877.339	45.45
877.508	45.46
877.677	44.99
877.846	44.71
878.015	48.15
878.184	47.3
878.352	45.83
878.521	45.98
878.69	50.75
878.859	50.18
879.028	46.24
879.197	47.18
879.366	44.54
879.534	45.6
879.703	43.86
879.872	40.65
880.041	38.89
880.21	35.45
880.378	34.77
880.547	34.08
880.716	32.55
880.884	32.77
881.053	31.84
881.222	32.65
881.39	32.2
881.559	31.24
881.727	31.46
881.896	31.4
882.065	32.65
882.233	32.65
882.402	31.76
882.57	31.21
882.739	31.29
882.907	31.59
883.076	30.87
883.244	30.79
883.412	31.77
883.581	32.08
883.749	32.58
883.918	32.87
884.086	33.04
884.254	34.5
884.423	36.05
884.591	36.26
884.759	35.95
884.927	36.88
885.096	37.7
885.264	38.66
885.432	41.14
885.6	41.31
885.769	39.68
885.937	40.31
886.105	40.22
886.273	39.49
886.441	39.26
886.609	41.5
886.777	42.68
886.945	42.79
887.113	42.97
887.281	40.01
887.449	41.35
887.617	43.17
887.785	43.93
887.953	44.64
888.121	47.33
888.289	50.92
888.457	47.48
888.625	47.36
888.793	49.09
888.961	47.91
889.129	47.22
889.296	47.04
889.464	49.55
889.632	48.54
889.8	45.76
889.967	43.62
890.135	40.28
