Data from 2938541_Reflection_1.txt Node
Date: Mon Jun 15 23:34:02 EDT 2015
User: robert
Spectrometer: USB4E03002
Autoset integration time: false
Trigger mode: 4
Integration Time (sec): 1.000000E-1
Scans to average: 10
Electric dark correction enabled: true
Nonlinearity correction enabled: false
Boxcar width: 6
Stray light correction enabled: false
XAxis mode: Wavelengths
Stop averaging: false
Number of Pixels in Spectrum: 3648
>>>>>Begin Spectral Data<<<<<
177.575	-0.54
177.794	26.22
178.014	-4.03
178.233	2.98
178.452	10.15
178.672	-150.41
178.891	-20
179.11	-136.29
179.33	-111.83
179.549	-187.22
179.768	-94.55
179.987	-209.27
180.207	-63.06
180.426	-40.09
180.645	14.54
180.864	42.48
181.084	20.27
181.303	20.9
181.522	14.31
181.741	31.54
181.96	35.1
182.179	40.96
182.398	61.25
182.618	18.09
182.837	50.73
183.056	19.29
183.275	33.85
183.494	0.76
183.713	-52.48
183.932	-31.18
184.151	-82.95
184.37	-101.96
184.589	-51.62
184.808	-55.08
185.027	-199.23
185.246	-77.65
185.465	-17.07
185.684	-50.33
185.903	-41.85
186.122	-1010.64
186.341	2820
186.56	737.04
186.779	1656.41
186.998	-264.08
187.216	1711.54
187.435	293.54
187.654	870.87
187.873	3938.1
188.092	722.66
188.311	738.1
188.53	4075
188.748	-4785
188.967	-660
189.186	-1675.61
189.405	-751.95
189.623	1063.46
189.842	443.48
190.061	5400
190.28	-421.62
190.498	-571.93
190.717	-366.22
190.936	-2207.14
191.154	-535.14
191.373	1355.56
191.592	92.59
191.81	-200
192.029	-22.58
192.248	79.37
192.466	50
192.685	65.75
192.904	-51.24
193.122	218.37
193.341	381.48
193.559	82.87
193.778	118.18
193.996	74.43
194.215	121.74
194.433	112.65
194.652	199.01
194.87	193.75
195.089	137.39
195.307	162.79
195.526	136.17
195.744	116.19
195.963	205.46
196.181	231.21
196.399	1109.09
196.618	136.64
196.836	-40.64
197.055	67.59
197.273	-50.83
197.491	19.63
197.71	-101.04
197.928	11.68
198.146	-2.02
198.365	-4.9
198.583	-83.4
198.801	9725
199.019	561.05
199.238	801.72
199.456	1778.13
199.674	345.69
199.892	483.33
200.111	1950
200.329	161.34
200.547	195.12
200.765	206.25
200.983	174.36
201.202	198.44
201.42	273.79
201.638	198.9
201.856	350
202.074	166.96
202.292	147.49
202.51	48.21
202.728	50.2
202.946	46.68
203.165	59.05
203.383	63.74
203.601	81.3
203.819	55.54
204.037	3.15
204.255	7.04
204.473	-3.17
204.691	-15.8
204.909	2.76
205.127	-31.34
205.345	-26.46
205.562	-50.3
205.78	-156.77
205.998	-42.12
206.216	-58.91
206.434	-57.25
206.652	-33.59
206.87	20.88
207.088	34.08
207.306	23.72
207.523	24.75
207.741	50
207.959	71.6
208.177	96.44
208.395	82.78
208.612	77.92
208.83	78.49
209.048	115.38
209.266	85
209.483	103.99
209.701	132.44
209.919	319.23
210.136	157.3
210.354	153.23
210.572	176.89
210.79	148.97
211.007	92.31
211.225	100.23
211.442	120.39
211.66	98.61
211.878	98.31
212.095	116.17
212.313	108.71
212.53	65.69
212.748	19.5
212.966	18.2
213.183	21.79
213.401	0.99
213.618	31.4
213.836	40.8
214.053	37.44
214.271	19.78
214.488	43.18
214.705	48.89
214.923	43.15
215.14	20.26
215.358	56.83
215.575	81.19
215.793	68.19
216.01	75.89
216.227	68.95
216.445	62.32
216.662	55.15
216.879	56.71
217.097	44.75
217.314	38.52
217.531	18.34
217.749	27.96
217.966	20.85
218.183	18.08
218.4	11.11
218.618	11.66
218.835	-3.45
219.052	-1.23
219.269	-7.35
219.487	-1.3
219.704	17.11
219.921	26.99
220.138	32.62
220.355	36.4
220.572	36.72
220.79	38.65
221.007	34.99
221.224	36.63
221.441	36.28
221.658	47.37
221.875	40.43
222.092	37.78
222.309	39.42
222.526	34.87
222.743	30.63
222.96	27.17
223.177	26.79
223.394	22.92
223.611	26.88
223.828	24.73
224.045	21.38
224.262	17.98
224.479	13.1
224.696	11.71
224.913	6.78
225.13	4.7
225.347	6.39
225.564	6.1
225.781	5.3
225.997	4.26
226.214	3.39
226.431	1.98
226.648	3.04
226.865	4.78
227.082	6.78
227.298	7.15
227.515	7.7
227.732	8.36
227.949	7.52
228.165	7.45
228.382	7.17
228.599	8.37
228.816	8.26
229.032	9.01
229.249	9.67
229.466	9.43
229.682	9.51
229.899	7.79
230.116	7.03
230.332	5.57
230.549	5.6
230.765	8.03
230.982	7.95
231.199	9
231.415	6.13
231.632	6.79
231.848	8.06
232.065	7.28
232.281	7.6
232.498	7.22
232.714	7.09
232.931	8.68
233.147	8.9
233.364	8.2
233.58	6.85
233.797	6.99
234.013	7.3
234.23	8.31
234.446	7.56
234.662	6.81
234.879	6.5
235.095	6.83
235.312	8.4
235.528	7.63
235.744	8.87
235.961	9.44
236.177	12.18
236.393	12.88
236.61	11.78
236.826	11.97
237.042	13.54
237.258	13.27
237.475	12.74
237.691	12.28
237.907	11.78
238.123	9.69
238.339	11.16
238.556	11.1
238.772	11.63
238.988	10.23
239.204	9.99
239.42	9.97
239.636	9.22
239.853	9.35
240.069	10.14
240.285	9.31
240.501	9.98
240.717	10.1
240.933	10.35
241.149	10.24
241.365	9.76
241.581	9.65
241.797	8.9
242.013	8.85
242.229	9.03
242.445	9.41
242.661	8.81
242.877	8.1
243.093	8.93
243.309	8.35
243.525	7.81
243.741	7.82
243.957	8.12
244.173	7.99
244.388	7.94
244.604	8.57
244.82	7.96
245.036	7.45
245.252	7.54
245.468	7.63
245.683	7.59
245.899	7.44
246.115	7.48
246.331	7.59
246.547	7.57
246.762	7.22
246.978	7.06
247.194	7.22
247.409	7.09
247.625	7.19
247.841	8.03
248.057	7.46
248.272	7.17
248.488	6.81
248.703	6.62
248.919	6.11
249.135	5.96
249.35	6
249.566	5.78
249.782	5.84
249.997	5.48
250.213	5.67
250.428	5.94
250.644	5.08
250.859	5.37
251.075	5.72
251.29	6.12
251.506	6.45
251.721	7.09
251.937	7.17
252.152	7.11
252.368	7.51
252.583	7.42
252.798	6.88
253.014	6.38
253.229	5.91
253.445	6.42
253.66	6.6
253.875	6.37
254.091	6.83
254.306	6.87
254.521	5.85
254.737	4.88
254.952	4.83
255.167	4.4
255.383	4.24
255.598	4.82
255.813	4.7
256.028	4.83
256.244	4.58
256.459	4.32
256.674	4.38
256.889	3.99
257.104	3.58
257.32	4.33
257.535	4.48
257.75	4.16
257.965	4.34
258.18	4.55
258.395	4.17
258.61	4.39
258.826	4.52
259.041	4.68
259.256	4.81
259.471	4.84
259.686	4.85
259.901	4.98
260.116	4.82
260.331	5.1
260.546	5.07
260.761	4.91
260.976	4.81
261.191	5.22
261.406	4.87
261.621	4.65
261.836	4.21
262.05	3.93
262.265	3.99
262.48	4.11
262.695	3.8
262.91	3.35
263.125	3.23
263.34	3.97
263.555	4.24
263.769	3.94
263.984	4.51
264.199	4.48
264.414	4.37
264.629	4.58
264.843	4.85
265.058	4.54
265.273	4.27
265.488	4.9
265.702	4.96
265.917	5.03
266.132	5.09
266.346	5.2
266.561	5.39
266.776	4.99
266.99	5.28
267.205	5.25
267.42	4.71
267.634	4.91
267.849	4.95
268.063	5.24
268.278	4.71
268.492	4.68
268.707	4.38
268.922	4.14
269.136	4.23
269.351	4.37
269.565	4.25
269.78	4.45
269.994	4.7
270.209	4.81
270.423	4.85
270.637	4.84
270.852	5.07
271.066	5.51
271.281	5.89
271.495	6.03
271.709	6.07
271.924	6.03
272.138	6.27
272.353	6.74
272.567	6.53
272.781	6.24
272.996	6.71
273.21	6.37
273.424	6.45
273.638	6.06
273.853	6.23
274.067	5.74
274.281	5.66
274.495	5.57
274.71	5.22
274.924	4.9
275.138	4.5
275.352	4.57
275.566	4.55
275.781	4.14
275.995	4.27
276.209	4.05
276.423	3.72
276.637	3.26
276.851	3.52
277.065	3.8
277.279	4.19
277.493	4.31
277.707	4.16
277.921	4.08
278.135	3.77
278.349	4.03
278.563	4.25
278.777	4.24
278.991	4.48
279.205	5
279.419	4.94
279.633	4.94
279.847	4.94
280.061	4.84
280.275	4.89
280.489	5.22
280.703	5.17
280.917	5.55
281.131	5.6
281.344	5.72
281.558	5.67
281.772	5.52
281.986	5.62
282.2	5.97
282.414	5.97
282.627	5.67
282.841	5.51
283.055	5.39
283.269	5.14
283.482	5.26
283.696	5.18
283.91	4.9
284.123	4.9
284.337	5.07
284.551	5.16
284.764	4.99
284.978	4.63
285.192	4.44
285.405	4.74
285.619	4.68
285.833	4.92
286.046	4.88
286.26	5.1
286.473	5.2
286.687	5.57
286.9	5.7
287.114	5.58
287.327	5.66
287.541	5.69
287.754	5.88
287.968	5.93
288.181	5.67
288.395	5.9
288.608	5.79
288.822	5.69
289.035	5.41
289.248	5.27
289.462	5.2
289.675	5.05
289.889	4.72
290.102	4.84
290.315	4.86
290.529	4.54
290.742	4.67
290.955	4.97
291.169	5.17
291.382	5
291.595	5.1
291.808	5.16
292.022	4.94
292.235	4.96
292.448	4.83
292.661	5.19
292.875	4.73
293.088	4.91
293.301	5.24
293.514	5
293.727	4.92
293.94	4.7
294.153	4.7
294.367	4.69
294.58	4.65
294.793	5.09
295.006	5.02
295.219	5.01
295.432	4.98
295.645	5.1
295.858	4.83
296.071	4.71
296.284	5.12
296.497	4.95
296.71	4.83
296.923	4.78
297.136	4.82
297.349	4.74
297.562	4.53
297.775	4.66
297.988	5.25
298.201	5.26
298.414	5.15
298.626	5.21
298.839	5.45
299.052	5.17
299.265	5.25
299.478	5.13
299.691	5.27
299.903	5.43
300.116	5.63
300.329	5.34
300.542	5.32
300.755	4.73
300.967	4.82
301.18	4.89
301.393	5.07
301.605	4.99
301.818	4.93
302.031	4.77
302.243	4.6
302.456	4.63
302.669	4.88
302.881	4.81
303.094	5.06
303.307	4.94
303.519	4.81
303.732	4.85
303.944	4.86
304.157	4.8
304.37	4.68
304.582	4.75
304.795	5.06
305.007	5.14
305.22	4.96
305.432	4.41
305.645	4.55
305.857	4.83
306.069	4.73
306.282	4.71
306.494	4.96
306.707	5.28
306.919	5.4
307.132	5.64
307.344	5.57
307.556	5.42
307.769	5.65
307.981	5.86
308.193	5.82
308.406	5.61
308.618	5.51
308.83	5.43
309.043	5.5
309.255	5.52
309.467	5.4
309.679	5.47
309.892	5.19
310.104	5.27
310.316	5.31
310.528	5.5
310.74	5.43
310.953	5.65
311.165	5.89
311.377	5.82
311.589	6.25
311.801	6.19
312.013	6.11
312.225	6.15
312.437	6.46
312.649	6.64
312.862	6.74
313.074	6.74
313.286	6.73
313.498	6.71
313.71	6.76
313.922	6.86
314.134	6.87
314.346	6.84
314.558	7.22
314.77	6.72
314.982	6.76
315.193	6.25
315.405	6.11
315.617	6.24
315.829	5.99
316.041	5.75
316.253	5.83
316.465	5.53
316.677	5.26
316.888	5.36
317.1	5.32
317.312	4.95
317.524	5.15
317.736	5.19
317.947	5.56
318.159	5.64
318.371	5.44
318.583	5.89
318.794	6.01
319.006	6.42
319.218	6.72
319.43	7.12
319.641	7.04
319.853	6.69
320.064	6.88
320.276	7.02
320.488	6.95
320.699	6.86
320.911	6.86
321.123	6.99
321.334	6.81
321.546	6.51
321.757	5.99
321.969	6.13
322.18	5.92
322.392	6.14
322.603	6.19
322.815	6.42
323.026	5.96
323.238	5.99
323.449	5.7
323.661	5.85
323.872	5.83
324.083	5.85
324.295	5.95
324.506	5.97
324.718	5.72
324.929	5.29
325.14	5.2
325.352	5.35
325.563	5.01
325.774	5.4
325.986	5.48
326.197	5.51
326.408	5.54
326.62	5.25
326.831	5.4
327.042	5.96
327.253	6.17
327.464	6.14
327.676	6.69
327.887	6.59
328.098	6.59
328.309	6.52
328.52	6.64
328.732	6.47
328.943	6.33
329.154	6.48
329.365	6.7
329.576	6.81
329.787	6.17
329.998	6.15
330.209	6.23
330.42	6.14
330.631	6.37
330.842	6.62
331.053	6.69
331.264	6.88
331.475	7.06
331.686	7.27
331.897	7.1
332.108	7.32
332.319	7.39
332.53	7.74
332.741	7.92
332.952	7.66
333.163	7.65
333.374	7.61
333.585	7.58
333.795	7.53
334.006	7.38
334.217	7.2
334.428	7.25
334.639	7.17
334.849	6.95
335.06	6.39
335.271	6.43
335.482	5.82
335.692	6.31
335.903	6.23
336.114	6.21
336.325	6.19
336.535	6.58
336.746	6.38
336.957	6.49
337.167	6.42
337.378	6.91
337.589	6.9
337.799	7.52
338.01	7.05
338.22	7.32
338.431	7.2
338.642	7.31
338.852	7.44
339.063	7.28
339.273	7.33
339.484	7.56
339.694	7.51
339.905	7.33
340.115	6.92
340.326	6.99
340.536	6.72
340.746	7.19
340.957	7.3
341.167	7.3
341.378	7.31
341.588	6.98
341.799	6.81
342.009	6.45
342.219	6.48
342.43	6.38
342.64	6.64
342.85	6.59
343.061	6.67
343.271	6.72
343.481	6.44
343.691	6.51
343.902	6.28
344.112	6.28
344.322	6.32
344.532	6.34
344.743	6.41
344.953	6.21
345.163	6.18
345.373	6.03
345.583	5.99
345.793	5.93
346.004	6.07
346.214	6.42
346.424	6.25
346.634	6.41
346.844	6.45
347.054	6.62
347.264	6.83
347.474	6.6
347.684	6.79
347.894	6.95
348.104	6.84
348.314	6.8
348.524	6.62
348.734	6.66
348.944	6.63
349.154	6.77
349.364	6.96
349.574	6.74
349.784	6.51
349.994	6.47
350.204	6.65
350.413	6.12
350.623	6.24
350.833	6.25
351.043	6.42
351.253	6.57
351.463	5.99
351.672	5.92
351.882	5.91
352.092	5.75
352.302	5.7
352.511	5.84
352.721	5.96
352.931	6.09
353.141	6.57
353.35	6.55
353.56	6.63
353.77	6.56
353.979	6.3
354.189	6.21
354.399	5.98
354.608	6.05
354.818	6.15
355.027	6.09
355.237	5.92
355.447	5.83
355.656	5.56
355.866	5.42
356.075	5.33
356.285	5.4
356.494	5.27
356.704	5.45
356.913	5.65
357.123	5.78
357.332	5.61
357.542	5.36
357.751	5.42
357.96	5.65
358.17	5.57
358.379	5.67
358.589	5.7
358.798	5.44
359.007	5.24
359.217	5.28
359.426	5.25
359.635	5.29
359.845	5.38
360.054	5.34
360.263	5.39
360.472	5.45
360.682	5.33
360.891	5.49
361.1	5.53
361.309	5.55
361.519	5.7
361.728	5.9
361.937	6.03
362.146	6.07
362.355	6.17
362.564	5.95
362.774	5.9
362.983	5.84
363.192	5.73
363.401	5.63
363.61	5.69
363.819	5.6
364.028	5.41
364.237	5.28
364.446	5.08
364.655	5.07
364.864	5.08
365.073	5.03
365.282	4.97
365.491	5.11
365.7	5.23
365.909	5.17
366.118	5.4
366.327	5.17
366.536	5.16
366.745	5.12
366.954	5.28
367.162	5.47
367.371	5.39
367.58	5.29
367.789	5.16
367.998	5.32
368.207	5.35
368.415	5.43
368.624	5.64
368.833	5.43
369.042	5.21
369.25	5.1
369.459	5.47
369.668	5.39
369.877	5.18
370.085	5.06
370.294	5.12
370.503	5.22
370.711	5.07
370.92	5.08
371.129	4.86
371.337	4.71
371.546	4.75
371.754	4.89
371.963	5.01
372.171	4.77
372.38	4.59
372.589	4.77
372.797	4.74
373.006	4.68
373.214	4.87
373.423	5.15
373.631	5.04
373.84	5.27
374.048	5.25
374.256	5.26
374.465	5.31
374.673	5.31
374.882	5.39
375.09	5.57
375.298	5.51
375.507	5.5
375.715	5.4
375.923	5.27
376.132	5.21
376.34	5.32
376.548	5.18
376.757	5.42
376.965	5.29
377.173	5.23
377.381	5.33
377.59	5.21
377.798	5.03
378.006	4.85
378.214	4.92
378.423	4.92
378.631	4.82
378.839	4.65
379.047	4.59
379.255	4.48
379.463	4.09
379.671	4.26
379.879	4.22
380.088	4.16
380.296	4.18
380.504	4.47
380.712	4.53
380.92	4.48
381.128	4.56
381.336	4.42
381.544	4.22
381.752	4.42
381.96	4.53
382.168	4.73
382.376	4.66
382.584	4.69
382.791	4.6
382.999	4.64
383.207	4.34
383.415	4.44
383.623	4.49
383.831	4.58
384.039	4.89
384.247	5.08
384.454	4.73
384.662	4.6
384.87	4.59
385.078	4.63
385.285	4.64
385.493	4.64
385.701	4.69
385.909	4.85
386.116	4.74
386.324	4.76
386.532	4.63
386.739	4.52
386.947	4.41
387.155	4.54
387.362	4.78
387.57	4.86
387.778	4.81
387.985	4.7
388.193	4.78
388.4	4.65
388.608	4.61
388.816	4.67
389.023	4.65
389.231	4.6
389.438	4.5
389.646	4.63
389.853	4.6
390.061	4.44
390.268	4.33
390.475	4.21
390.683	4.32
390.89	4.19
391.098	4.12
391.305	4.13
391.512	4.14
391.72	4.09
391.927	4.14
392.135	3.97
392.342	3.94
392.549	3.85
392.756	3.77
392.964	3.86
393.171	3.97
393.378	3.93
393.586	3.98
393.793	3.98
394	4.02
394.207	3.92
394.414	3.93
394.622	3.8
394.829	3.83
395.036	4.01
395.243	4.1
395.45	4.09
395.657	3.84
395.864	3.84
396.072	3.91
396.279	3.97
396.486	4.19
396.693	4.13
396.9	4.16
397.107	4.15
397.314	4.25
397.521	4.41
397.728	4.09
397.935	4.22
398.142	4.36
398.349	4.55
398.556	4.55
398.763	4.47
398.97	4.39
399.177	4.28
399.383	4.43
399.59	4.48
399.797	4.62
400.004	4.69
400.211	4.65
400.418	4.62
400.625	4.56
400.831	4.53
401.038	4.37
401.245	4.28
401.452	4.09
401.658	4.15
401.865	4.06
402.072	3.85
402.279	3.74
402.485	3.6
402.692	3.56
402.899	3.72
403.105	3.6
403.312	3.49
403.519	3.37
403.725	3.45
403.932	3.47
404.138	3.65
404.345	3.52
404.552	3.71
404.758	3.78
404.965	3.92
405.171	3.95
405.378	3.99
405.584	3.85
405.791	4
405.997	4.06
406.204	4.04
406.41	4.15
406.617	4.18
406.823	4.03
407.029	4.07
407.236	3.82
407.442	3.9
407.649	3.8
407.855	3.78
408.061	3.76
408.268	3.68
408.474	3.68
408.68	3.73
408.887	3.89
409.093	3.79
409.299	3.85
409.505	3.83
409.712	3.77
409.918	3.71
410.124	3.58
410.33	3.48
410.537	3.47
410.743	3.3
410.949	3.27
411.155	3.34
411.361	3.22
411.567	2.97
411.773	2.83
411.98	2.64
412.186	2.97
412.392	3.04
412.598	3.19
412.804	3.3
413.01	3.41
413.216	3.43
413.422	3.58
413.628	3.68
413.834	3.56
414.04	3.49
414.246	3.7
414.452	3.83
414.658	3.76
414.864	3.56
415.07	3.61
415.275	3.59
415.481	3.5
415.687	3.41
415.893	3.32
416.099	3.28
416.305	3.28
416.511	3.38
416.716	3.5
416.922	3.5
417.128	3.52
417.334	3.66
417.539	3.64
417.745	3.61
417.951	3.65
418.157	3.65
418.362	3.74
418.568	3.77
418.774	3.69
418.979	3.63
419.185	3.65
419.391	3.64
419.596	3.59
419.802	3.56
420.008	3.58
420.213	3.53
420.419	3.47
420.624	3.43
420.83	3.42
421.035	3.38
421.241	3.41
421.446	3.53
421.652	3.55
421.857	3.51
422.063	3.46
422.268	3.47
422.474	3.43
422.679	3.39
422.885	3.45
423.09	3.49
423.295	3.5
423.501	3.5
423.706	3.46
423.911	3.42
424.117	3.27
424.322	3.25
424.527	3.26
424.733	3.23
424.938	3.21
425.143	3.26
425.349	3.25
425.554	3.24
425.759	3.3
425.964	3.26
426.169	3.34
426.375	3.37
426.58	3.32
426.785	3.48
426.99	3.5
427.195	3.46
427.4	3.51
427.605	3.59
427.811	3.56
428.016	3.56
428.221	3.46
428.426	3.42
428.631	3.47
428.836	3.34
429.041	3.31
429.246	3.34
429.451	3.3
429.656	3.25
429.861	3.18
430.066	3.18
430.271	3.13
430.476	3.06
430.681	3.08
430.886	3.23
431.09	3.21
431.295	3.22
431.5	3.18
431.705	3.21
431.91	3.23
432.115	3.26
432.32	3.38
432.524	3.4
432.729	3.4
432.934	3.39
433.139	3.44
433.343	3.41
433.548	3.26
433.753	3.31
433.958	3.25
434.162	3.23
434.367	3.31
434.572	3.3
434.776	3.29
434.981	3.18
435.186	3.2
435.39	3.2
435.595	3.18
435.799	3.17
436.004	3.12
436.209	3.27
436.413	3.24
436.618	3.19
436.822	3.26
437.027	3.22
437.231	3.18
437.436	3.23
437.64	3.25
437.845	3.33
438.049	3.35
438.253	3.39
438.458	3.33
438.662	3.39
438.867	3.36
439.071	3.28
439.275	3.4
439.48	3.4
439.684	3.36
439.888	3.48
440.093	3.43
440.297	3.43
440.501	3.33
440.706	3.43
440.91	3.46
441.114	3.53
441.318	3.51
441.523	3.52
441.727	3.57
441.931	3.57
442.135	3.56
442.339	3.58
442.543	3.53
442.748	3.6
442.952	3.56
443.156	3.62
443.36	3.54
443.564	3.48
443.768	3.42
443.972	3.44
444.176	3.45
444.38	3.44
444.584	3.37
444.788	3.37
444.992	3.36
445.196	3.37
445.4	3.26
445.604	3.27
445.808	3.24
446.012	3.14
446.216	3.15
446.42	3.17
446.624	3.08
446.828	2.99
447.032	2.96
447.235	3.03
447.439	3.02
447.643	3.01
447.847	2.95
448.051	2.97
448.254	2.91
448.458	2.93
448.662	2.97
448.866	2.95
449.069	2.93
449.273	2.94
449.477	2.97
449.681	3.04
449.884	2.95
450.088	3.04
450.292	3.01
450.495	3.02
450.699	3.02
450.902	3.07
451.106	3.02
451.31	3.11
451.513	3.06
451.717	3.14
451.92	3.23
452.124	3.22
452.327	3.12
452.531	3.21
452.734	3.14
452.938	3.21
453.141	3.13
453.345	3.17
453.548	3.19
453.752	3.23
453.955	3.03
454.158	3.08
454.362	3.04
454.565	3
454.769	3.06
454.972	3.13
455.175	3.06
455.379	3.09
455.582	3.06
455.785	3.2
455.988	3.19
456.192	3.16
456.395	3.13
456.598	3.18
456.801	3.2
457.005	3.12
457.208	3.11
457.411	3.05
457.614	3.04
457.817	2.96
458.021	2.91
458.224	2.93
458.427	2.91
458.63	2.87
458.833	2.92
459.036	2.92
459.239	2.91
459.442	2.91
459.645	2.97
459.848	3.01
460.051	3.11
460.254	3.06
460.457	3.19
460.66	3.27
460.863	3.23
461.066	3.15
461.269	3.19
461.472	3.1
461.675	3.01
461.878	3.05
462.081	3.06
462.284	3
462.486	2.95
462.689	2.84
462.892	2.9
463.095	2.86
463.298	2.79
463.5	2.83
463.703	2.82
463.906	2.82
464.109	2.89
464.311	3.04
464.514	3.14
464.717	3.11
464.92	3.19
465.122	3.16
465.325	3.14
465.528	3.14
465.73	3.07
465.933	3.11
466.135	3.12
466.338	3.17
466.541	3.12
466.743	3.03
466.946	2.9
467.148	2.8
467.351	2.79
467.553	2.78
467.756	2.76
467.958	2.76
468.161	2.81
468.363	2.85
468.566	2.78
468.768	2.71
468.971	2.71
469.173	2.82
469.375	2.88
469.578	2.99
469.78	3.05
469.983	3.01
470.185	3.03
470.387	3.07
470.59	3.05
470.792	3.01
470.994	2.94
471.196	2.99
471.399	3.08
471.601	3.1
471.803	3.04
472.005	3.07
472.208	3.02
472.41	3.02
472.612	3.03
472.814	2.96
473.016	3.04
473.218	3.04
473.421	3.03
473.623	3.09
473.825	3.07
474.027	3.07
474.229	3.09
474.431	3.12
474.633	3.17
474.835	3.16
475.037	3.15
475.239	3.23
475.441	3.28
475.643	3.24
475.845	3.32
476.047	3.38
476.249	3.45
476.451	3.47
476.653	3.48
476.855	3.46
477.057	3.41
477.258	3.37
477.46	3.46
477.662	3.45
477.864	3.45
478.066	3.4
478.268	3.39
478.469	3.3
478.671	3.28
478.873	3.26
479.075	3.19
479.276	3.17
479.478	3.14
479.68	3.21
479.882	3.18
480.083	3.12
480.285	3.12
480.487	3.08
480.688	3.13
480.89	3.13
481.091	3.14
481.293	3.12
481.495	3.09
481.696	3.11
481.898	3.09
482.099	3.09
482.301	3.08
482.502	3.08
482.704	3.09
482.905	3.1
483.107	3.1
483.308	3.07
483.51	3.07
483.711	3.09
483.913	3.08
484.114	3.09
484.315	3.09
484.517	3.1
484.718	3.09
484.92	3.08
485.121	3.09
485.322	3.11
485.524	3.11
485.725	3.13
485.926	3.13
486.127	3.12
486.329	3.1
486.53	3.1
486.731	3.11
486.932	3.12
487.134	3.09
487.335	3.1
487.536	3.1
487.737	3.1
487.938	3.08
488.139	3.07
488.341	3.05
488.542	3.05
488.743	3.06
488.944	3.07
489.145	3.12
489.346	3.15
489.547	3.16
489.748	3.19
489.949	3.21
490.15	3.19
490.351	3.21
490.552	3.22
490.753	3.22
490.954	3.25
491.155	3.29
491.356	3.3
491.557	3.28
491.758	3.23
491.959	3.18
492.159	3.18
492.36	3.19
492.561	3.21
492.762	3.26
492.963	3.29
493.164	3.32
493.364	3.3
493.565	3.27
493.766	3.24
493.967	3.19
494.167	3.21
494.368	3.29
494.569	3.35
494.769	3.37
494.97	3.36
495.171	3.32
495.371	3.35
495.572	3.28
495.773	3.27
495.973	3.29
496.174	3.29
496.375	3.28
496.575	3.36
496.776	3.4
496.976	3.4
497.177	3.4
497.377	3.42
497.578	3.41
497.778	3.48
497.979	3.5
498.179	3.58
498.38	3.63
498.58	3.7
498.78	3.69
498.981	3.76
499.181	3.7
499.382	3.76
499.582	3.79
499.782	3.75
499.983	3.69
500.183	3.71
500.383	3.61
500.584	3.58
500.784	3.57
500.984	3.52
501.184	3.55
501.385	3.54
501.585	3.55
501.785	3.55
501.985	3.6
502.185	3.58
502.386	3.67
502.586	3.74
502.786	3.78
502.986	3.93
503.186	3.88
503.386	3.83
503.586	3.89
503.786	3.95
503.987	4.02
504.187	4.06
504.387	4.14
504.587	4.12
504.787	4.15
504.987	4.1
505.187	4.03
505.387	4.06
505.587	4.05
505.786	4.13
505.986	4.2
506.186	4.22
506.386	4.17
506.586	4.22
506.786	4.21
506.986	4.21
507.186	4.19
507.386	4.19
507.585	4.22
507.785	4.32
507.985	4.34
508.185	4.34
508.384	4.29
508.584	4.31
508.784	4.25
508.984	4.28
509.183	4.24
509.383	4.25
509.583	4.33
509.782	4.37
509.982	4.44
510.182	4.45
510.381	4.42
510.581	4.41
510.781	4.43
510.98	4.54
511.18	4.59
511.379	4.64
511.579	4.71
511.778	4.76
511.978	4.76
512.177	4.75
512.377	4.71
512.576	4.68
512.776	4.7
512.975	4.76
513.175	4.8
513.374	4.82
513.573	4.8
513.773	4.8
513.972	4.87
514.172	4.84
514.371	4.93
514.57	4.98
514.77	4.95
514.969	5.01
515.168	5.04
515.367	5.08
515.567	5.1
515.766	5.05
515.965	5.11
516.164	5.1
516.364	5.01
516.563	5
516.762	5.02
516.961	4.99
517.16	4.97
517.359	4.98
517.559	4.99
517.758	4.96
517.957	4.99
518.156	4.99
518.355	5.01
518.554	4.92
518.753	4.95
518.952	5.08
519.151	5.12
519.35	5.08
519.549	5.16
519.748	5.22
519.947	5.23
520.146	5.32
520.345	5.39
520.544	5.47
520.743	5.46
520.942	5.53
521.141	5.66
521.339	5.64
521.538	5.58
521.737	5.58
521.936	5.63
522.135	5.56
522.333	5.57
522.532	5.65
522.731	5.67
522.93	5.69
523.129	5.61
523.327	5.65
523.526	5.68
523.725	5.68
523.923	5.77
524.122	5.8
524.321	5.81
524.519	5.87
524.718	5.91
524.917	5.86
525.115	5.85
525.314	5.82
525.512	5.81
525.711	5.85
525.909	5.85
526.108	5.87
526.306	5.91
526.505	5.89
526.703	5.92
526.902	5.94
527.1	5.92
527.299	5.91
527.497	5.95
527.696	5.96
527.894	5.96
528.092	5.98
528.291	5.99
528.489	6.01
528.688	5.98
528.886	5.95
529.084	5.96
529.283	5.94
529.481	5.93
529.679	5.95
529.877	5.96
530.076	6.01
530.274	6.05
530.472	6.1
530.67	6.14
530.869	6.18
531.067	6.24
531.265	6.33
531.463	6.42
531.661	6.5
531.859	6.56
532.057	6.61
532.255	6.6
532.454	6.64
532.652	6.63
532.85	6.63
533.048	6.67
533.246	6.66
533.444	6.71
533.642	6.73
533.84	6.76
534.038	6.74
534.236	6.72
534.434	6.73
534.632	6.73
534.83	6.81
535.027	6.84
535.225	6.9
535.423	6.93
535.621	6.98
535.819	7.03
536.017	7.01
536.215	7
536.412	6.98
536.61	7.02
536.808	7.04
537.006	7.09
537.203	7.12
537.401	7.17
537.599	7.16
537.797	7.15
537.994	7.18
538.192	7.19
538.39	7.18
538.587	7.21
538.785	7.27
538.983	7.31
539.18	7.26
539.378	7.28
539.575	7.28
539.773	7.31
539.97	7.29
540.168	7.31
540.366	7.33
540.563	7.34
540.761	7.32
540.958	7.37
541.155	7.38
541.353	7.36
541.55	7.38
541.748	7.45
541.945	7.46
542.143	7.49
542.34	7.49
542.537	7.59
542.735	7.62
542.932	7.68
543.129	7.76
543.327	7.83
543.524	7.82
543.721	7.92
543.919	7.99
544.116	8.04
544.313	8.14
544.51	8.24
544.708	8.31
544.905	8.37
545.102	8.33
545.299	8.4
545.496	8.38
545.693	8.29
545.891	8.33
546.088	8.4
546.285	8.45
546.482	8.46
546.679	8.51
546.876	8.49
547.073	8.5
547.27	8.48
547.467	8.53
547.664	8.62
547.861	8.63
548.058	8.71
548.255	8.86
548.452	8.91
548.649	8.94
548.846	8.89
549.043	9.03
549.24	9.07
549.437	8.98
549.633	9.04
549.83	9.09
550.027	9.12
550.224	9.18
550.421	9.24
550.618	9.36
550.814	9.38
551.011	9.41
551.208	9.45
551.405	9.52
551.601	9.46
551.798	9.49
551.995	9.69
552.191	9.7
552.388	9.73
552.585	9.71
552.781	9.84
552.978	9.84
553.175	9.93
553.371	9.96
553.568	10.09
553.764	10.12
553.961	10.11
554.157	10.14
554.354	10.27
554.55	10.26
554.747	10.24
554.943	10.35
555.14	10.43
555.336	10.35
555.533	10.41
555.729	10.39
555.926	10.56
556.122	10.43
556.318	10.61
556.515	10.67
556.711	10.78
556.907	10.89
557.104	10.93
557.3	11.09
557.496	11.23
557.693	11.28
557.889	11.42
558.085	11.5
558.281	11.44
558.478	11.43
558.674	11.64
558.87	11.7
559.066	11.72
559.262	11.86
559.459	11.78
559.655	11.81
559.851	11.82
560.047	11.76
560.243	11.95
560.439	12.02
560.635	12.06
560.831	12.27
561.027	12.35
561.223	12.39
561.419	12.49
561.615	12.68
561.811	12.67
562.007	12.82
562.203	12.99
562.399	13.07
562.595	13.25
562.791	13.23
562.987	13.33
563.183	13.46
563.379	13.53
563.575	13.61
563.771	13.68
563.966	13.73
564.162	13.77
564.358	13.85
564.554	13.87
564.75	13.9
564.945	13.95
565.141	13.88
565.337	13.97
565.533	13.91
565.728	13.98
565.924	14.03
566.12	14.11
566.315	14.22
566.511	14.31
566.707	14.38
566.902	14.52
567.098	14.56
567.293	14.64
567.489	14.71
567.684	14.83
567.88	14.88
568.076	15.03
568.271	15.06
568.467	15.05
568.662	15.13
568.858	15.16
569.053	15.15
569.248	15.15
569.444	15.14
569.639	15.21
569.835	15.28
570.03	15.4
570.225	15.46
570.421	15.57
570.616	15.63
570.812	15.7
571.007	15.86
571.202	15.9
571.397	15.93
571.593	16.04
571.788	16.12
571.983	16.19
572.178	16.34
572.374	16.33
572.569	16.4
572.764	16.48
572.959	16.52
573.154	16.57
573.35	16.65
573.545	16.69
573.74	16.76
573.935	16.82
574.13	16.84
574.325	16.87
574.52	16.99
574.715	16.9
574.91	17.11
575.105	17.2
575.3	17.24
575.495	17.27
575.69	17.39
575.885	17.47
576.08	17.51
576.275	17.63
576.47	17.68
576.665	17.79
576.86	17.99
577.055	17.97
577.25	18.15
577.444	18.14
577.639	18.11
577.834	18.19
578.029	18.22
578.224	18.26
578.418	18.36
578.613	18.34
578.808	18.29
579.003	18.4
579.197	18.43
579.392	18.38
579.587	18.49
579.781	18.49
579.976	18.63
580.171	18.67
580.365	18.83
580.56	18.88
580.755	18.93
580.949	18.88
581.144	18.95
581.338	19.1
581.533	19.03
581.727	19.11
581.922	19.23
582.116	19.27
582.311	19.47
582.505	19.43
582.7	19.53
582.894	19.53
583.089	19.55
583.283	19.49
583.478	19.59
583.672	19.74
583.866	19.8
584.061	20.06
584.255	20.02
584.449	20.14
584.644	20.08
584.838	20.05
585.032	19.99
585.226	20
585.421	20.01
585.615	20.16
585.809	20.3
586.003	20.34
586.198	20.33
586.392	20.29
586.586	20.14
586.78	20.27
586.974	20.21
587.168	20.24
587.363	20.19
587.557	20.24
587.751	20.34
587.945	20.42
588.139	20.52
588.333	20.57
588.527	20.63
588.721	20.66
588.915	20.8
589.109	20.94
589.303	20.97
589.497	21.09
589.691	21.24
589.885	21.44
590.079	21.55
590.273	21.51
590.466	21.39
590.66	21.28
590.854	21.23
591.048	21.28
591.242	21.36
591.436	21.33
591.629	21.26
591.823	21.31
592.017	21.35
592.211	21.37
592.404	21.29
592.598	21.41
592.792	21.5
592.986	21.75
593.179	21.84
593.373	21.99
593.567	22.01
593.76	21.9
593.954	21.91
594.147	22.01
594.341	21.97
594.535	22.02
594.728	22.06
594.922	22.1
595.115	22.05
595.309	22.13
595.502	22.15
595.696	22.2
595.889	22.2
596.083	22.26
596.276	22.38
596.47	22.41
596.663	22.42
596.856	22.51
597.05	22.45
597.243	22.33
597.437	22.37
597.63	22.5
597.823	22.56
598.017	22.57
598.21	22.72
598.403	22.85
598.596	22.83
598.79	23.08
598.983	23.09
599.176	23.31
599.369	23.31
599.563	23.44
599.756	23.74
599.949	23.84
600.142	23.8
600.335	23.7
600.528	23.63
600.722	23.51
600.915	23.49
601.108	23.58
601.301	23.49
601.494	23.63
601.687	23.47
601.88	23.57
602.073	23.5
602.266	23.45
602.459	23.49
602.652	23.52
602.845	23.46
603.038	23.52
603.231	23.56
603.424	23.54
603.617	23.59
603.809	23.49
604.002	23.51
604.195	23.61
604.388	23.5
604.581	23.57
604.774	23.49
604.966	23.43
605.159	23.32
605.352	23.43
605.545	23.51
605.737	23.52
605.93	23.55
606.123	23.47
606.316	23.56
606.508	23.56
606.701	23.48
606.894	23.7
607.086	23.84
607.279	23.97
607.471	24.05
607.664	24.15
607.857	24.18
608.049	24.11
608.242	24.12
608.434	24.08
608.627	24.15
608.819	24.23
609.012	24.11
609.204	24.13
609.397	24.12
609.589	24.11
609.782	24.15
609.974	24.08
610.166	24.1
610.359	24.16
610.551	24.19
610.743	24.07
610.936	24.09
611.128	24.09
611.32	24.02
611.513	24.22
611.705	24.2
611.897	24.24
612.09	24.22
612.282	24.12
612.474	24.4
612.666	24.49
612.858	24.53
613.051	24.5
613.243	24.63
613.435	24.72
613.627	24.63
613.819	24.66
614.011	24.54
614.203	24.6
614.395	24.54
614.588	24.58
614.78	24.66
614.972	24.5
615.164	24.51
615.356	24.4
615.548	24.53
615.74	24.65
615.932	24.77
616.124	24.88
616.315	24.98
616.507	25.18
616.699	25.21
616.891	25.16
617.083	25.1
617.275	25.13
617.467	25.3
617.659	25.28
617.85	25.43
618.042	25.49
618.234	25.3
618.426	25.08
618.618	25.04
618.809	24.98
619.001	24.89
619.193	24.98
619.384	24.87
619.576	24.79
619.768	24.75
619.959	24.5
620.151	24.48
620.343	24.31
620.534	24.12
620.726	24.39
620.917	24.47
621.109	24.57
621.301	24.63
621.492	24.7
621.684	24.63
621.875	24.66
622.067	24.8
622.258	24.94
622.45	25.1
622.641	25.2
622.832	25.36
623.024	25.6
623.215	25.53
623.407	25.51
623.598	25.45
623.789	25.55
623.981	25.47
624.172	25.54
624.363	25.65
624.555	25.61
624.746	25.47
624.937	25.41
625.129	25.37
625.32	25.34
625.511	25.29
625.702	25.36
625.893	25.4
626.085	25.43
626.276	25.29
626.467	25.43
626.658	25.32
626.849	25.5
627.04	25.61
627.231	25.56
627.422	25.64
627.614	25.59
627.805	25.55
627.996	25.43
628.187	25.33
628.378	25.48
628.569	25.51
628.76	25.59
628.951	25.49
629.142	25.73
629.332	25.66
629.523	25.54
629.714	25.64
629.905	25.45
630.096	25.45
630.287	25.45
630.478	25.63
630.669	25.75
630.859	25.7
631.05	25.58
631.241	25.54
631.432	25.45
631.623	25.37
631.813	25.21
632.004	25.16
632.195	25.13
632.385	25.4
632.576	25.42
632.767	25.46
632.957	25.44
633.148	25.34
633.339	25.24
633.529	25.32
633.72	25.45
633.91	25.53
634.101	25.48
634.292	25.52
634.482	25.65
634.673	25.69
634.863	25.61
635.054	25.61
635.244	25.64
635.435	25.69
635.625	25.73
635.815	25.79
636.006	25.92
636.196	25.91
636.387	25.85
636.577	25.83
636.767	25.84
636.958	25.9
637.148	25.92
637.338	25.92
637.529	25.86
637.719	25.94
637.909	25.82
638.099	25.95
638.29	26.02
638.48	26.02
638.67	26.14
638.86	26.33
639.05	26.46
639.241	26.66
639.431	26.45
639.621	26.62
639.811	26.76
640.001	26.94
640.191	26.87
640.381	27.01
640.571	26.93
640.761	26.94
640.951	26.79
641.141	26.54
641.331	26.47
641.521	26.38
641.711	26.23
641.901	26.5
642.091	26.34
642.281	26.21
642.471	26.27
642.661	26.32
642.851	26.23
643.041	26.08
643.231	26.08
643.42	26.01
643.61	26.09
643.8	26.14
643.99	26.11
644.18	26.07
644.369	25.94
644.559	25.97
644.749	25.93
644.939	25.9
645.128	25.9
645.318	25.92
645.508	26.1
645.697	25.99
645.887	26.27
646.076	26.47
646.266	26.58
646.456	26.79
646.645	26.86
646.835	26.85
647.024	27.13
647.214	27.28
647.403	27.32
647.593	27.34
647.782	27.41
647.972	27.4
648.161	27.49
648.351	27.4
648.54	27.24
648.73	27.08
648.919	26.92
649.108	27
649.298	27.04
649.487	26.95
649.677	26.85
649.866	26.84
650.055	26.94
650.244	26.9
650.434	26.9
650.623	26.99
650.812	26.77
651.002	26.86
651.191	26.96
651.38	27.01
651.569	26.93
651.758	26.96
651.947	26.86
652.137	26.84
652.326	26.75
652.515	26.78
652.704	26.9
652.893	26.86
653.082	26.78
653.271	27.03
653.46	26.95
653.649	26.91
653.838	26.85
654.027	26.95
654.216	27
654.405	27.07
654.594	27.23
654.783	27.29
654.972	27.34
655.161	27.19
655.35	27.23
655.539	27.21
655.728	27.32
655.916	27.35
656.105	27.36
656.294	27.27
656.483	27.38
656.672	27.51
656.86	27.48
657.049	27.49
657.238	27.56
657.427	27.39
657.615	27.5
657.804	27.51
657.993	27.56
658.181	27.39
658.37	27.31
658.559	27.31
658.747	27.37
658.936	27.04
659.125	27
659.313	26.98
659.502	26.89
659.69	26.94
659.879	26.98
660.067	27
660.256	27.01
660.444	27
660.633	27.14
660.821	27.17
661.01	27.11
661.198	26.98
661.387	27.31
661.575	27.26
661.763	27.19
661.952	27.34
662.14	27.1
662.328	27.17
662.517	27.27
662.705	27.21
662.893	27.3
663.082	27.18
663.27	27.18
663.458	27.24
663.646	27.45
663.834	27.48
664.023	27.36
664.211	27.42
664.399	27.39
664.587	27.61
664.775	27.49
664.963	27.37
665.152	27.61
665.34	27.41
665.528	27.48
665.716	27.82
665.904	27.82
666.092	27.95
666.28	27.75
666.468	27.98
666.656	28.05
666.844	28.2
667.032	28.01
667.22	28.16
667.408	28.11
667.596	28.16
667.784	28.28
667.971	28.3
668.159	27.94
668.347	28.02
668.535	28
668.723	28.18
668.911	27.95
669.098	27.93
669.286	27.89
669.474	27.89
669.662	27.85
669.849	27.91
670.037	27.8
670.225	27.83
670.413	27.89
670.6	28.06
670.788	27.97
670.976	27.73
671.163	27.59
671.351	27.77
671.538	27.65
671.726	27.49
671.913	27.74
672.101	27.58
672.289	27.54
672.476	27.47
672.664	27.41
672.851	27.25
673.039	27.3
673.226	27.44
673.413	27.78
673.601	27.61
673.788	27.66
673.976	27.67
674.163	27.64
674.35	27.55
674.538	27.41
674.725	27.2
674.912	27.04
675.1	26.99
675.287	27.22
675.474	27.18
675.662	27.09
675.849	27.18
676.036	27.45
676.223	27.08
676.411	27.28
676.598	27.48
676.785	27.38
676.972	27.74
677.159	27.72
677.346	27.96
677.533	27.84
677.721	27.6
677.908	27.77
678.095	27.85
678.282	27.67
678.469	27.63
678.656	27.91
678.843	27.9
679.03	27.76
679.217	27.9
679.404	27.74
679.591	27.86
679.778	27.74
679.964	27.8
680.151	27.76
680.338	27.69
680.525	27.63
680.712	27.78
680.899	27.9
681.086	27.84
681.272	27.79
681.459	27.91
681.646	27.83
681.833	27.87
682.02	27.84
682.206	27.9
682.393	27.99
682.58	28.07
682.766	27.88
682.953	27.96
683.14	27.99
683.326	27.91
683.513	27.95
683.7	27.94
683.886	27.75
684.073	27.9
684.259	27.91
684.446	27.92
684.632	27.8
684.819	27.71
685.005	27.95
685.192	28.12
685.378	28.01
685.565	27.93
685.751	27.85
685.938	27.85
686.124	27.69
686.31	28
686.497	27.93
686.683	27.76
686.87	27.81
687.056	27.91
687.242	28.29
687.429	28.36
687.615	28.32
687.801	28.51
687.987	28.52
688.174	28.6
688.36	28.5
688.546	28.61
688.732	28.32
688.918	28.33
689.105	28.56
689.291	28.79
689.477	28.95
689.663	28.81
689.849	28.56
690.035	28.62
690.221	28.46
690.407	28.23
690.593	28.51
690.779	28.36
690.965	28.45
691.151	28.65
691.337	28.73
691.523	28.6
691.709	28.38
691.895	28.5
692.081	28.31
692.267	28.47
692.453	28.35
692.639	28.38
692.825	28.57
693.011	28.41
693.196	28.54
693.382	28.5
693.568	28.38
693.754	28.42
693.94	28.69
694.125	28.51
694.311	28.33
694.497	28.41
694.682	28.49
694.868	28.48
695.054	28.42
695.239	28.28
695.425	28.2
695.611	28.13
695.796	28.03
695.982	28.02
696.168	28.05
696.353	28.07
696.539	28.36
696.724	28.34
696.91	28.33
697.095	28.03
697.281	28.05
697.466	28.31
697.652	28.42
697.837	28.37
698.023	28.64
698.208	28.72
698.393	28.7
698.579	28.56
698.764	28.6
698.949	28.58
699.135	28.65
699.32	28.74
699.505	28.84
699.691	28.84
699.876	28.52
700.061	28.39
700.246	28.67
700.432	28.36
700.617	28.05
700.802	28.09
700.987	28.74
701.172	28.57
701.358	28.56
701.543	28.44
701.728	28.4
701.913	28.48
702.098	28.58
702.283	28.75
702.468	28.83
702.653	28.62
702.838	28.78
703.023	28.93
703.208	29.05
703.393	28.38
703.578	28.46
703.763	28.11
703.948	28.22
704.133	28.14
704.318	28.08
704.503	27.93
704.688	27.97
704.873	28
705.057	28.06
705.242	27.92
705.427	28.19
705.612	28.09
705.797	27.94
705.981	28
706.166	28.29
706.351	28.04
706.536	28.12
706.72	27.94
706.905	27.86
707.09	27.75
707.274	27.9
707.459	27.83
707.644	28.05
707.828	27.87
708.013	27.83
708.197	28.02
708.382	27.49
708.567	27.51
708.751	27.77
708.936	27.72
709.12	27.95
709.305	28.07
709.489	28.42
709.673	28.47
709.858	28.47
710.042	28.5
710.227	29.01
710.411	28.95
710.596	28.85
710.78	29.45
710.964	29.42
711.149	29.23
711.333	29.52
711.517	29.86
711.702	29.92
711.886	29.7
712.07	29.51
712.254	29.5
712.438	29.27
712.623	29.07
712.807	29.02
712.991	29.12
713.175	28.85
713.359	29.12
713.544	29.28
713.728	28.93
713.912	28.71
714.096	28.61
714.28	28.39
714.464	28.4
714.648	28.15
714.832	28.41
715.016	28.35
715.2	28.46
715.384	28.54
715.568	28.45
715.752	28.18
715.936	28.21
716.12	28.3
716.304	28.22
716.488	27.94
716.671	28.23
716.855	28.5
717.039	28.68
717.223	28.29
717.407	28.11
717.59	28.25
717.774	28.18
717.958	28.21
718.142	28.21
718.325	28.04
718.509	27.99
718.693	28.31
718.877	28.74
719.06	28.43
719.244	27.92
719.428	28.17
719.611	28.84
719.795	28.77
719.978	28.87
720.162	28.77
720.345	29.17
720.529	28.83
720.713	29.08
720.896	29.14
721.08	29.14
721.263	29.06
721.446	29.16
721.63	29.41
721.813	29.04
721.997	28.57
722.18	28.77
722.364	28.59
722.547	28.7
722.73	28.35
722.914	28.53
723.097	28.39
723.28	28.23
723.464	28.11
723.647	28.35
723.83	28.17
724.013	27.8
724.197	28.08
724.38	28.19
724.563	28.48
724.746	28.38
724.929	28.19
725.112	28.23
725.296	28.59
725.479	28.59
725.662	28.46
725.845	28.3
726.028	28.35
726.211	28.27
726.394	28.54
726.577	28.35
726.76	28.31
726.943	28.23
727.126	28.34
727.309	28.58
727.492	28.44
727.675	28.18
727.858	28.15
728.041	28.3
728.224	28.28
728.407	28.35
728.589	28.86
728.772	28.82
728.955	29.16
729.138	29.17
729.321	29.24
729.503	29.19
729.686	29.27
729.869	29.52
730.052	29.49
730.234	29.61
730.417	29.46
730.6	29.01
730.782	28.69
730.965	28.5
731.148	28.55
731.33	28.25
731.513	28.01
731.695	27.92
731.878	27.79
732.061	27.51
732.243	27.48
732.426	27.8
732.608	27.42
732.791	27.69
732.973	28.33
733.156	28.41
733.338	28.43
733.52	28.76
733.703	28.59
733.885	29.04
734.068	28.76
734.25	29.13
734.432	29.12
734.615	29.31
734.797	29.14
734.979	29.32
735.162	29.29
735.344	28.99
735.526	29.16
735.708	29.13
735.891	28.43
736.073	28.54
736.255	28.47
736.437	28.59
736.619	27.97
736.802	27.97
736.984	27.56
737.166	27.18
737.348	27.1
737.53	27.49
737.712	27.43
737.894	27.21
738.076	27.09
738.258	27.47
738.44	27.65
738.622	27.33
738.804	27.3
738.986	27.18
739.168	27.18
739.35	27.49
739.532	27.9
739.714	28.48
739.896	28.15
740.078	28.63
740.259	28.6
740.441	29.07
740.623	28.91
740.805	29.24
740.987	29.07
741.168	29.1
741.35	29.64
741.532	29.27
741.714	29.16
741.895	28.82
742.077	28.5
742.259	28.52
742.44	28.05
742.622	28.04
742.804	27.41
742.985	26.98
743.167	26.45
743.348	26.96
743.53	26.87
743.711	27.27
743.893	27.9
744.075	27.98
744.256	28.22
744.438	28
744.619	27.84
744.8	27.88
744.982	28.06
745.163	28.5
745.345	29.21
745.526	29.95
745.707	29.78
745.889	30.16
746.07	29.56
746.252	29.72
746.433	28.99
746.614	29.13
746.795	29.29
746.977	29.63
747.158	29.91
747.339	29.48
747.52	29.72
747.702	29.81
747.883	29.68
748.064	30.04
748.245	29.79
748.426	30.1
748.607	29.97
748.788	30.29
748.97	29.92
749.151	30.1
749.332	29.76
749.513	29.49
749.694	29.31
749.875	28.95
750.056	28.19
750.237	27.92
750.418	27.53
750.599	27.52
750.78	27.47
750.96	27.01
751.141	27.14
751.322	27.44
751.503	27.42
751.684	27.35
751.865	27.04
752.046	27.11
752.226	27.2
752.407	27.85
752.588	27.17
752.769	27.23
752.949	27.24
753.13	27.25
753.311	27.53
753.492	27.83
753.672	27.79
753.853	28.11
754.034	27.97
754.214	28.42
754.395	28.38
754.575	27.79
754.756	27.58
754.937	27.94
755.117	27.76
755.298	28
755.478	27.1
755.659	27.1
755.839	26.78
756.02	26.53
756.2	26.37
756.381	26.58
756.561	26.57
756.741	27.28
756.922	27.79
757.102	28.22
757.283	28.19
757.463	28.44
757.643	28.08
757.823	28.79
758.004	29.07
758.184	29.43
758.364	29.34
758.545	29.11
758.725	29.07
758.905	28.78
759.085	28.3
759.265	28.22
759.446	27.81
759.626	28.01
759.806	28.06
759.986	27.7
760.166	28
760.346	27.77
760.526	27.59
760.706	27.91
760.886	28.04
761.066	27.99
761.246	28.46
761.426	28.53
761.606	28.28
761.786	28.09
761.966	27.9
762.146	27.63
762.326	28.03
762.506	27.99
762.686	27.93
762.866	27.76
763.046	27.46
763.225	27.23
763.405	27.15
763.585	26.82
763.765	26.99
763.945	27.01
764.124	27.32
764.304	27.66
764.484	27.37
764.664	27.51
764.843	27.03
765.023	26.62
765.203	26.43
765.382	26.93
765.562	26.99
765.741	27.38
765.921	27.71
766.101	27.85
766.28	28.27
766.46	28.38
766.639	28.13
766.819	29.18
766.998	28.83
767.178	29.16
767.357	29.96
767.537	30.14
767.716	29.72
767.896	29.47
768.075	28.87
768.254	28.97
768.434	29.09
768.613	28.74
768.792	28.44
768.972	28.3
769.151	27.3
769.33	27.31
769.51	27.67
769.689	27.25
769.868	27.61
770.047	27.9
770.226	28.83
770.406	29.95
770.585	29.71
770.764	29.41
770.943	29.32
771.122	29.39
771.301	29.67
771.48	30.36
771.66	30.66
771.839	30.29
772.018	30.77
772.197	30.57
772.376	29.94
772.555	29.23
772.734	28.08
772.913	27.97
773.092	27.44
773.271	27.3
773.449	27.22
773.628	26.96
773.807	27.05
773.986	26.13
774.165	26.42
774.344	25.87
774.523	25.45
774.701	26.5
774.88	26.32
775.059	26.39
775.238	25.35
775.417	26.02
775.595	25.99
775.774	26.25
775.953	25.89
776.131	24.56
776.31	24.75
776.489	24.97
776.667	24.37
776.846	24.32
777.025	23.93
777.203	24.17
777.382	24.32
777.56	25.03
777.739	24.8
777.917	25.03
778.096	25.09
778.274	26.13
778.453	27.55
778.631	27.59
778.81	27.78
778.988	28.73
779.166	29.85
779.345	29.88
779.523	29.5
779.702	30.78
779.88	31.1
780.058	30.95
780.237	31.23
780.415	31.52
780.593	31.12
780.771	31.49
780.95	32.08
781.128	31.34
781.306	31.67
781.484	31.16
781.662	31.89
781.841	32.83
782.019	31.8
782.197	31.37
782.375	31.06
782.553	31.1
782.731	30.23
782.909	30.53
783.087	30.91
783.265	31.05
783.443	30.85
783.621	31.04
783.799	30.88
783.977	29.81
784.155	29.98
784.333	29.58
784.511	30.17
784.689	31.03
784.867	29.97
785.045	29.96
785.223	29.37
785.4	27.87
785.578	27.37
785.756	27.27
785.934	26.01
786.112	25.94
786.289	25.68
786.467	25.04
786.645	24.99
786.823	25.4
787	25.12
787.178	25.95
787.356	26.56
787.533	26.78
787.711	26.96
787.889	27.34
788.066	26.97
788.244	27.13
788.421	27.23
788.599	27.63
788.776	27.82
788.954	27.96
789.131	27.57
789.309	28.21
789.486	28.26
789.664	28.24
789.841	27.49
790.019	27.34
790.196	27.02
790.373	28.47
790.551	28.09
790.728	28.96
790.906	29.05
791.083	28.06
791.26	27.67
791.437	27.23
791.615	26.07
791.792	25.43
791.969	25.04
792.146	26.22
792.324	27.42
792.501	27.55
792.678	26.34
792.855	26.18
793.032	25.59
793.209	25.57
793.387	26.35
793.564	26.95
793.741	27.37
793.918	27.32
794.095	28.03
794.272	27.86
794.449	28.54
794.626	28
794.803	28.97
794.98	29.54
795.157	31.08
795.334	31.36
795.511	31.37
795.688	31.13
795.864	31.57
796.041	31.39
796.218	31.44
796.395	32.08
796.572	32.36
796.749	30.71
796.925	31.07
797.102	29.81
797.279	30.09
797.456	29.61
797.632	29.06
797.809	29.56
797.986	29.96
798.162	29.4
798.339	29.5
798.516	30.16
798.692	30.42
798.869	30.62
799.046	31.19
799.222	30.6
799.399	31.22
799.575	31.46
799.752	31.8
799.928	32.04
800.105	32.06
800.281	32.31
800.458	32.36
800.634	32.08
800.811	32.23
800.987	32.21
801.163	32.17
801.34	32.03
801.516	31.7
801.692	31.35
801.869	31.24
802.045	30.21
802.221	30.48
802.398	29.93
802.574	30.69
802.75	31.03
802.926	31.98
803.103	31.49
803.279	29.71
803.455	30.13
803.631	30.79
803.807	30.88
803.983	31.39
804.16	30.92
804.336	30.61
804.512	30.86
804.688	30.4
804.864	29.84
805.04	29.78
805.216	29.54
805.392	29.64
805.568	30.89
805.744	30.36
805.92	29.01
806.096	29.73
806.272	28.85
806.448	29.1
806.623	29.41
806.799	29.03
806.975	29.76
807.151	28.77
807.327	28.81
807.503	28.12
807.678	28.92
807.854	27.9
808.03	27.91
808.206	28.38
808.381	27.59
808.557	27.7
808.733	26.87
808.908	27.6
809.084	26.61
809.26	26.46
809.435	25.89
809.611	25.44
809.787	26.21
809.962	25.58
810.138	26.31
810.313	26.92
810.489	27.74
810.664	27.06
810.84	27.52
811.015	29.32
811.191	29.99
811.366	30.57
811.542	29.67
811.717	31.8
811.892	32.67
812.068	32.48
812.243	33.65
812.419	33.67
812.594	33.89
812.769	33.81
812.944	33.96
813.12	33.52
813.295	33.27
813.47	33.17
813.645	33
813.821	34.06
813.996	33.5
814.171	33.76
814.346	33.25
814.521	32.91
814.697	32.18
814.872	31.93
815.047	33.55
815.222	33.62
815.397	33.34
815.572	32.22
815.747	31.99
815.922	33.31
816.097	32.9
816.272	32.78
816.447	32.42
816.622	33.09
816.797	31.65
816.972	32.23
817.147	31.7
817.322	30.06
817.496	31.08
817.671	31.56
817.846	31.39
818.021	30.74
818.196	29.7
818.371	29.96
818.545	29.54
818.72	29.74
818.895	29.54
819.069	29.26
819.244	28.8
819.419	28.43
819.594	28.58
819.768	28.06
819.943	27.32
820.117	27.46
820.292	27.44
820.467	27.89
820.641	27.19
820.816	26.86
820.99	26.88
821.165	26.98
821.339	27.07
821.514	27.53
821.688	27.46
821.863	27.28
822.037	27.45
822.212	27.63
822.386	27.48
822.56	27.48
822.735	27.04
822.909	27.18
823.084	27.48
823.258	27.32
823.432	27.13
823.606	27.22
823.781	26.83
823.955	26.86
824.129	27.05
824.303	26.95
824.478	26.92
824.652	27.19
824.826	27.23
825	27.8
825.174	27.86
825.348	27.74
825.523	27.69
825.697	28.11
825.871	28.15
826.045	28.57
826.219	28.73
826.393	28.62
826.567	28.52
826.741	28.27
826.915	28.2
827.089	28.06
827.263	27.93
827.437	28.13
827.611	27.96
827.784	28.01
827.958	27.76
828.132	27.6
828.306	27.15
828.48	27.01
828.654	26.96
828.827	26.98
829.001	27.73
829.175	27.88
829.349	28.14
829.522	28.2
829.696	27.41
829.87	28.44
830.044	29.44
830.217	29.28
830.391	29.36
830.565	28.57
830.738	28.44
830.912	28.46
831.085	29.23
831.259	28.82
831.432	29.61
831.606	29.11
831.779	28.52
831.953	29.54
832.126	27.88
832.3	27.53
832.473	27.97
832.647	28
832.82	28.73
832.994	29.19
833.167	29.13
833.34	28.49
833.514	28.23
833.687	27.88
833.86	27.95
834.034	27.87
834.207	27.66
834.38	28.47
834.553	28.23
834.727	27.55
834.9	27.37
835.073	27.25
835.246	26.95
835.419	27
835.593	27.14
835.766	27.74
835.939	26.86
836.112	27.79
836.285	28.66
836.458	28.94
836.631	28.42
836.804	27.83
836.977	28.09
837.15	29.56
837.323	30.08
837.496	29.43
837.669	29.9
837.842	29.46
838.015	29.46
838.188	30.17
838.361	28.98
838.533	28.22
838.706	27.91
838.879	28.08
839.052	30.68
839.225	32.09
839.398	30.71
839.57	30.22
839.743	31.73
839.916	31.86
840.088	31.54
840.261	30.74
840.434	29.33
840.607	29.65
840.779	30.22
840.952	30.58
841.124	31.47
841.297	29.29
841.47	28.25
841.642	28.61
841.815	29.07
841.987	28.37
842.16	29.05
842.332	31.24
842.505	30.55
842.677	32.76
842.85	32.79
843.022	34.4
843.194	34.94
843.367	34.4
843.539	35.2
843.712	35.27
843.884	36.6
844.056	37.53
844.229	38.52
844.401	35.46
844.573	35.96
844.745	36.66
844.918	36.64
845.09	37.86
845.262	34.7
845.434	33.6
845.606	32.93
845.779	31.8
845.951	35.19
846.123	31.54
846.295	31.71
846.467	29.72
846.639	31.6
846.811	28.87
846.983	30.93
847.155	30.09
847.327	30.3
847.499	30.31
847.671	31.43
847.843	32.93
848.015	34.35
848.187	32.07
848.359	34.19
848.531	33.19
848.703	34.05
848.875	31.78
849.047	30.6
849.218	30.27
849.39	28.99
849.562	27.11
849.734	31.94
849.905	33.12
850.077	32.35
850.249	33.07
850.421	35.89
850.592	34.99
850.764	33.32
850.936	35.4
851.107	33.9
851.279	35.64
851.451	33.24
851.622	34.72
851.794	37.18
851.965	34.8
852.137	33.83
852.308	33.01
852.48	34.89
852.651	31.42
852.823	29.74
852.994	30.21
853.166	26.61
853.337	31.91
853.509	29.5
853.68	30.31
853.851	31.82
854.023	29.84
854.194	28.14
854.365	28.28
854.537	28.11
854.708	26.86
854.879	24.95
855.05	24.76
855.222	24.97
855.393	24.75
855.564	24.69
855.735	24.19
855.906	25.64
856.078	25.08
856.249	24.94
856.42	29.92
856.591	29.98
856.762	31.85
856.933	32.53
857.104	35.05
857.275	33.3
857.446	33.58
857.617	37.17
857.788	34.09
857.959	34.44
858.13	35.72
858.301	36.93
858.472	36.59
858.643	31.11
858.814	28.91
858.985	24.4
859.155	19.82
859.326	17.03
859.497	23.67
859.668	26.98
859.839	25.45
860.009	24.94
860.18	30.14
860.351	32.48
860.522	28.69
860.692	30.04
860.863	34.45
861.034	35.2
861.204	37.46
861.375	39.83
861.546	44.71
861.716	42.83
861.887	41.34
862.057	42.07
862.228	43.64
862.398	39.28
862.569	36.86
862.739	38.08
862.91	36.2
863.08	34.25
863.251	34.35
863.421	33.27
863.592	33.25
863.762	28.51
863.932	27.15
864.103	30.37
864.273	29.72
864.443	28.44
864.614	28.09
864.784	29.26
864.954	29.34
865.125	29.41
865.295	30.89
865.465	31.65
865.635	35.55
865.805	35.47
865.976	39.7
866.146	40
866.316	38.55
866.486	37.83
866.656	35.88
866.826	40.21
866.996	38.91
867.166	36.88
867.336	38.52
867.506	38.73
867.676	36.63
867.846	33.13
868.016	34.16
868.186	28.21
868.356	29.6
868.526	29.55
868.696	32.02
868.866	34.64
869.036	34.77
869.206	35.99
869.376	35.95
869.545	34.76
869.715	36.69
869.885	36.26
870.055	37.26
870.224	39.53
870.394	44.55
870.564	43.78
870.734	43.05
870.903	39.61
871.073	44.26
871.243	42.97
871.412	40.07
871.582	43.87
871.751	43.28
871.921	37.81
872.091	39.87
872.26	40.61
872.43	37.9
872.599	36.3
872.769	33.97
872.938	36.1
873.108	36.38
873.277	31.71
873.446	33.73
873.616	35.2
873.785	33.97
873.955	33.12
874.124	35.87
874.293	37.57
874.463	33.96
874.632	33.62
874.801	37.06
874.971	39.58
875.14	31.73
875.309	30.36
875.478	34.28
875.647	31.07
875.817	31.49
875.986	34.22
876.155	36.17
876.324	31.42
876.493	27.02
876.662	29.58
876.831	26.83
877	21.1
877.17	21.72
877.339	28.49
877.508	35.21
877.677	36.85
877.846	39.73
878.015	36.95
878.184	34.73
878.352	34.17
878.521	37.39
878.69	41.36
878.859	42.29
879.028	42.14
879.197	44.08
879.366	40.5
879.534	36.79
879.703	33.95
879.872	29.44
880.041	27.7
880.21	27.89
880.378	27.51
880.547	27.69
880.716	27.73
880.884	27.19
881.053	26.98
881.222	28.35
881.39	27.14
881.559	26.88
881.727	27.35
881.896	27.27
882.065	28.17
882.233	28.85
882.402	28.97
882.57	28.98
882.739	29.06
882.907	28.67
883.076	28.02
883.244	28.3
883.412	28.23
883.581	29.02
883.749	29.7
883.918	29.51
884.086	29.99
884.254	30.26
884.423	29.88
884.591	29.78
884.759	30.08
884.927	30.46
885.096	32.26
885.264	34.38
885.432	34.32
885.6	32.8
885.769	32.44
885.937	32.94
886.105	35.27
886.273	35.85
886.441	35.39
886.609	34.31
886.777	35.04
886.945	34.6
887.113	33.59
887.281	29.06
887.449	25.89
887.617	28.07
887.785	32.62
887.953	32.67
888.121	32.53
888.289	29.75
888.457	26.2
888.625	25.92
888.793	28.9
888.961	28.95
889.129	30.84
889.296	30.94
889.464	34.53
889.632	36.89
889.8	33.78
889.967	28.3
890.135	29.98
