Data from 2938483_Reflection_2.txt Node
Date: Wed Jun 17 01:04:38 EDT 2015
User: robert
Spectrometer: USB4E03002
Autoset integration time: false
Trigger mode: 4
Integration Time (sec): 1.000000E-1
Scans to average: 10
Electric dark correction enabled: true
Nonlinearity correction enabled: false
Boxcar width: 5
Stray light correction enabled: false
XAxis mode: Wavelengths
Stop averaging: false
Number of Pixels in Spectrum: 3648
>>>>>Begin Spectral Data<<<<<
177.575	-28.15
177.794	54.47
178.014	48.01
178.233	34.88
178.452	81.45
178.672	27.54
178.891	-14.04
179.11	190.06
179.33	324.93
179.549	201.15
179.768	-72.92
179.987	350.32
180.207	-3035.38
180.426	-117.88
180.645	-574.28
180.864	138.37
181.084	270.59
181.303	350.97
181.522	3388.81
181.741	-270.65
181.96	-174.1
182.179	-322.39
182.398	-358.36
182.618	-158.2
182.837	-171.47
183.056	-101.42
183.275	-57.61
183.494	-148.94
183.713	537.69
183.932	96.37
184.151	78.63
184.37	51.28
184.589	-42.79
184.808	-27.68
185.027	77.77
185.246	-6.33
185.465	-16.08
185.684	-57.42
185.903	-139.47
186.122	-250.27
186.341	-88.12
186.56	-50.48
186.779	316.51
186.998	120.78
187.216	224.33
187.435	132.75
187.654	97.78
187.873	93.03
188.092	175.52
188.311	666.21
188.53	344.81
188.748	679.02
188.967	852.45
189.186	-917.95
189.405	-113.41
189.623	-146.38
189.842	-138.29
190.061	13.88
190.28	98.2
190.498	-81.97
190.717	6.79
190.936	50.82
191.154	46.99
191.373	29.24
191.592	-5.64
191.81	-43.26
192.029	-64.71
192.248	-104.65
192.466	-203.89
192.685	-25.82
192.904	-68.22
193.122	33.95
193.341	184.37
193.559	391.7
193.778	161.58
193.996	-301.71
194.215	-90.28
194.433	6.73
194.652	-14.38
194.87	52.57
195.089	-5.83
195.307	11.89
195.526	-2.6
195.744	56.39
195.963	-20.91
196.181	7.93
196.399	-1.99
196.618	211.43
196.836	34.27
197.055	38.46
197.273	-34.83
197.491	1351.58
197.71	-281.38
197.928	-852.7
198.146	-1286.92
198.365	-701.18
198.583	-131.34
198.801	-265.3
199.019	-336.09
199.238	-1468.34
199.456	-221.99
199.674	67.02
199.892	105.33
200.111	141.07
200.329	91.76
200.547	79.84
200.765	77.89
200.983	58.35
201.202	67.49
201.42	57.69
201.638	48.88
201.856	-23.21
202.074	-166.91
202.292	-277.84
202.51	-226.22
202.728	465.2
202.946	-655.49
203.165	-8.64
203.383	-31.77
203.601	70.17
203.819	104.4
204.037	35.9
204.255	57.69
204.473	63.12
204.691	98.55
204.909	74.46
205.127	64.54
205.345	64.85
205.562	281.21
205.78	126.76
205.998	59.62
206.216	-107.4
206.434	5.48
206.652	52.73
206.87	51.77
207.088	-172.85
207.306	-368.34
207.523	234.54
207.741	324.38
207.959	216.8
208.177	306.51
208.395	793.27
208.612	285.46
208.83	-1088.26
209.048	603.66
209.266	184.47
209.483	-53.52
209.701	-0.79
209.919	62.58
210.136	83.81
210.354	63.76
210.572	92.22
210.79	246.52
211.007	225.58
211.225	136.39
211.442	55.34
211.66	35.88
211.878	-37.82
212.095	-1307.45
212.313	-4221.68
212.53	6142.31
212.748	-1801.42
212.966	-1542.49
213.183	-786.69
213.401	-255.38
213.618	-284.77
213.836	-202.86
214.053	-230.77
214.271	-634.12
214.488	-13.6
214.705	23.42
214.923	17.03
215.14	26.8
215.358	22.53
215.575	42.53
215.793	23.95
216.01	-1.22
216.227	0.88
216.445	15.07
216.662	33.95
216.879	38.21
217.097	31.81
217.314	36
217.531	30.01
217.749	33.26
217.966	16.85
218.183	19.52
218.4	18.87
218.618	23.77
218.835	21.02
219.052	10.38
219.269	-10.42
219.487	-11.42
219.704	-13.56
219.921	-18.42
220.138	-10.72
220.355	-2.38
220.572	1.55
220.79	6.52
221.007	4.22
221.224	2.24
221.441	3.35
221.658	13.57
221.875	9.12
222.092	7.13
222.309	11.04
222.526	7.26
222.743	6.28
222.96	7.65
223.177	3.9
223.394	2.44
223.611	1.42
223.828	8.39
224.045	0.88
224.262	5.7
224.479	3.03
224.696	4.94
224.913	4.95
225.13	6.37
225.347	6.66
225.564	8.01
225.781	7.26
225.997	8.76
226.214	6.34
226.431	6.55
226.648	8.1
226.865	8.56
227.082	8.08
227.298	8.36
227.515	8.47
227.732	8.12
227.949	8.22
228.165	8.77
228.382	8.33
228.599	8.9
228.816	9.09
229.032	8.73
229.249	7.6
229.466	5.84
229.682	6.18
229.899	6.43
230.116	6.51
230.332	5.64
230.549	3.98
230.765	3.46
230.982	2.61
231.199	1.43
231.415	2.78
231.632	6.54
231.848	9.6
232.065	8.56
232.281	7.76
232.498	8.62
232.714	7.92
232.931	9.71
233.147	8.07
233.364	9.42
233.58	12.83
233.797	11
234.013	10.68
234.23	10.27
234.446	9.74
234.662	10.36
234.879	8.9
235.095	7.57
235.312	8.27
235.528	10.63
235.744	10
235.961	9.27
236.177	8.62
236.393	11.71
236.61	11.8
236.826	12.9
237.042	11.67
237.258	12.3
237.475	16.45
237.691	13.68
237.907	12.25
238.123	12.22
238.339	12.4
238.556	12.03
238.772	9.89
238.988	9.72
239.204	9.86
239.42	10.06
239.636	10.27
239.853	9.24
240.069	9.48
240.285	9.87
240.501	10.38
240.717	9.97
240.933	10.06
241.149	10.07
241.365	9.86
241.581	9.47
241.797	9.06
242.013	8.2
242.229	8.57
242.445	9.03
242.661	9.01
242.877	9.26
243.093	9.54
243.309	9.73
243.525	9.23
243.741	9.77
243.957	9.33
244.173	9.68
244.388	9.72
244.604	9.02
244.82	8.88
245.036	8.57
245.252	8.44
245.468	8.2
245.683	8.27
245.899	8.06
246.115	7.47
246.331	7.65
246.547	7.67
246.762	7.79
246.978	8.36
247.194	8.8
247.409	8.84
247.625	8.14
247.841	7.69
248.057	7.04
248.272	7.1
248.488	7.54
248.703	7.22
248.919	6.46
249.135	6.6
249.35	5.61
249.566	4.74
249.782	4.88
249.997	4.69
250.213	5.34
250.428	5.86
250.644	6.2
250.859	6.84
251.075	7.63
251.29	7.48
251.506	7.45
251.721	7.45
251.937	7.52
252.152	7.88
252.368	8.43
252.583	8.73
252.798	9.4
253.014	8.9
253.229	9.21
253.445	8.69
253.66	9.58
253.875	9.26
254.091	9.21
254.306	8.84
254.521	8.55
254.737	9.49
254.952	8.59
255.167	7.88
255.383	8.75
255.598	8.08
255.813	8.07
256.028	7.9
256.244	7.43
256.459	7.21
256.674	7.38
256.889	7.26
257.104	6.54
257.32	6.96
257.535	6.93
257.75	6.39
257.965	6.06
258.18	5.69
258.395	5.61
258.61	5.87
258.826	5.9
259.041	5.66
259.256	5.51
259.471	5.53
259.686	5.34
259.901	5.19
260.116	4.97
260.331	4.82
260.546	4.97
260.761	4.69
260.976	4.42
261.191	4.17
261.406	4.77
261.621	4.76
261.836	3.98
262.05	4.2
262.265	4.09
262.48	4.5
262.695	5.31
262.91	5.85
263.125	6.85
263.34	7.49
263.555	7.4
263.769	8.04
263.984	7.77
264.199	8.39
264.414	7.67
264.629	7.11
264.843	7.08
265.058	6.43
265.273	6.1
265.488	5.62
265.702	5.67
265.917	5.73
266.132	5.29
266.346	5.05
266.561	5.25
266.776	5.94
266.99	6.39
267.205	6.11
267.42	6.42
267.634	6.2
267.849	6.61
268.063	6.5
268.278	6.64
268.492	6.18
268.707	6.69
268.922	6.45
269.136	6.16
269.351	6.56
269.565	7.11
269.78	6.76
269.994	6.77
270.209	6.7
270.423	6.17
270.637	6.57
270.852	6.39
271.066	6.45
271.281	6.39
271.495	5.93
271.709	5.83
271.924	5.9
272.138	5.71
272.353	5.79
272.567	5.4
272.781	5.51
272.996	4.93
273.21	5
273.424	4.19
273.638	4.25
273.853	4.43
274.067	4.34
274.281	3.58
274.495	3.79
274.71	3.76
274.924	3.78
275.138	3.72
275.352	4.15
275.566	4.16
275.781	4.66
275.995	4.66
276.209	4.93
276.423	4.95
276.637	4.81
276.851	5.29
277.065	5.27
277.279	5.47
277.493	5.79
277.707	5.14
277.921	4.87
278.135	5.19
278.349	5.14
278.563	4.91
278.777	4.7
278.991	5.06
279.205	4.72
279.419	4.79
279.633	4.88
279.847	4.47
280.061	5.09
280.275	5.34
280.489	5.76
280.703	6.13
280.917	6.12
281.131	6.27
281.344	6.43
281.558	6.29
281.772	6.5
281.986	6.55
282.2	6.53
282.414	6.57
282.627	6.44
282.841	6.01
283.055	5.67
283.269	5.76
283.482	5.53
283.696	5.24
283.91	5.48
284.123	5.3
284.337	5.37
284.551	5.57
284.764	5.22
284.978	5.25
285.192	4.99
285.405	5.35
285.619	5.38
285.833	5.54
286.046	5.48
286.26	5.24
286.473	4.99
286.687	4.73
286.9	4.65
287.114	4.66
287.327	4.64
287.541	4.54
287.754	3.59
287.968	4.14
288.181	3.67
288.395	3.94
288.608	4.41
288.822	4.53
289.035	4.61
289.248	4.89
289.462	4.94
289.675	4.92
289.889	5.43
290.102	5.98
290.315	5.5
290.529	5.88
290.742	6.19
290.955	5.92
291.169	6.44
291.382	6.52
291.595	6.24
291.808	6.2
292.022	6.66
292.235	6.62
292.448	6.3
292.661	5.95
292.875	5.75
293.088	5.42
293.301	5.2
293.514	4.89
293.727	4.68
293.94	4.61
294.153	4.37
294.367	4.41
294.58	3.81
294.793	3.96
295.006	4.16
295.219	4.45
295.432	4.68
295.645	5.3
295.858	4.98
296.071	5.07
296.284	5.04
296.497	5.22
296.71	4.99
296.923	5.58
297.136	5.86
297.349	6.03
297.562	5.66
297.775	5.42
297.988	5.25
298.201	5.3
298.414	5.46
298.626	5.5
298.839	5.07
299.052	5.46
299.265	5.17
299.478	4.84
299.691	4.78
299.903	5.31
300.116	5.8
300.329	5.22
300.542	5.62
300.755	5.88
300.967	6.03
301.18	6.6
301.393	6.03
301.605	6.24
301.818	6.1
302.031	6.05
302.243	6.08
302.456	5.66
302.669	5.75
302.881	5.93
303.094	5.62
303.307	5.48
303.519	5.73
303.732	5.29
303.944	5
304.157	5.31
304.37	5.62
304.582	5.34
304.795	5.45
305.007	5.47
305.22	4.94
305.432	5.02
305.645	5.21
305.857	4.29
306.069	5.04
306.282	5.88
306.494	6.29
306.707	5.98
306.919	5.9
307.132	6.02
307.344	6.12
307.556	6.22
307.769	6.1
307.981	5.76
308.193	6.56
308.406	6.31
308.618	5.96
308.83	5.77
309.043	5.73
309.255	5.83
309.467	5.6
309.679	5.5
309.892	5.97
310.104	5.69
310.316	6.04
310.528	6.06
310.74	6.28
310.953	6.04
311.165	5.92
311.377	5.8
311.589	5.67
311.801	5.8
312.013	6.08
312.225	5.75
312.437	5.82
312.649	5.67
312.862	5.2
313.074	4.87
313.286	4.98
313.498	4.79
313.71	4.71
313.922	5.13
314.134	5.14
314.346	5.11
314.558	4.71
314.77	4.74
314.982	4.42
315.193	4.83
315.405	4.85
315.617	4.63
315.829	4.82
316.041	5.41
316.253	5.13
316.465	5.23
316.677	4.92
316.888	5.24
317.1	5.95
317.312	6.06
317.524	5.62
317.736	6
317.947	5.86
318.159	5.83
318.371	5.27
318.583	5.22
318.794	4.87
319.006	5.1
319.218	5.12
319.43	4.77
319.641	4.61
319.853	4.74
320.064	4.26
320.276	4.89
320.488	5.07
320.699	5.19
320.911	5.35
321.123	5.62
321.334	6.17
321.546	6.11
321.757	5.69
321.969	6.01
322.18	5.9
322.392	6.1
322.603	5.85
322.815	5.94
323.026	6.09
323.238	6.23
323.449	6.01
323.661	5.3
323.872	5.09
324.083	5.36
324.295	5.4
324.506	5.82
324.718	5.92
324.929	6.04
325.14	6.04
325.352	5.79
325.563	6.15
325.774	6.06
325.986	6.37
326.197	7.43
326.408	7.21
326.62	7.09
326.831	6.33
327.042	6.44
327.253	7.02
327.464	7.41
327.676	7.55
327.887	7.12
328.098	7.28
328.309	7.43
328.52	6.37
328.732	6.55
328.943	7.31
329.154	7.61
329.365	7.49
329.576	6.82
329.787	6.35
329.998	6.36
330.209	6.36
330.42	6.78
330.631	6.56
330.842	6.88
331.053	6.87
331.264	6.38
331.475	6.35
331.686	6.34
331.897	5.99
332.108	5.49
332.319	5.68
332.53	5.89
332.741	5.59
332.952	5.46
333.163	5.55
333.374	5.7
333.585	5.44
333.795	5.56
334.006	5.5
334.217	5.46
334.428	5.98
334.639	5.85
334.849	5.95
335.06	5.93
335.271	6.12
335.482	6.14
335.692	6.3
335.903	6
336.114	6.15
336.325	6.67
336.535	7.25
336.746	7.24
336.957	7.26
337.167	7.26
337.378	7.19
337.589	7.02
337.799	6.74
338.01	6.67
338.22	7.1
338.431	7.2
338.642	6.5
338.852	5.97
339.063	5.94
339.273	5.97
339.484	5.66
339.694	5.7
339.905	6.24
340.115	6.44
340.326	6.46
340.536	6.29
340.746	5.76
340.957	6.04
341.167	6.64
341.378	6.76
341.588	6.42
341.799	6.19
342.009	6.54
342.219	5.88
342.43	5.59
342.64	5.64
342.85	5.81
343.061	6.06
343.271	5.56
343.481	5.46
343.691	5.03
343.902	5.27
344.112	5.56
344.322	5.22
344.532	5.7
344.743	5.85
344.953	5.84
345.163	5.79
345.373	5.99
345.583	6.17
345.793	6.25
346.004	6.51
346.214	6.74
346.424	6.7
346.634	6.73
346.844	6.04
347.054	6.29
347.264	6.17
347.474	6.11
347.684	6.25
347.894	6.52
348.104	5.89
348.314	5.91
348.524	5.73
348.734	6.32
348.944	6.1
349.154	6.19
349.364	6.04
349.574	6.13
349.784	6.08
349.994	5.99
350.204	6.25
350.413	6.47
350.623	6.52
350.833	6.51
351.043	6.03
351.253	6.44
351.463	6.15
351.672	6.09
351.882	5.75
352.092	5.78
352.302	5.42
352.511	5.37
352.721	5.27
352.931	5.19
353.141	5.18
353.35	5.16
353.56	5.24
353.77	5.89
353.979	5.82
354.189	5.91
354.399	6.01
354.608	6.18
354.818	6.28
355.027	6.22
355.237	6.22
355.447	6.05
355.656	5.83
355.866	5.58
356.075	5.32
356.285	5.27
356.494	5.29
356.704	5.24
356.913	5.33
357.123	5.02
357.332	5.32
357.542	5.51
357.751	5.55
357.96	5.35
358.17	5.07
358.379	5.25
358.589	5.42
358.798	5.65
359.007	5.72
359.217	5.67
359.426	5.75
359.635	5.49
359.845	5.48
360.054	5.57
360.263	5.74
360.472	6.14
360.682	6.06
360.891	6.12
361.1	5.87
361.309	5.67
361.519	5.63
361.728	5.58
361.937	5.52
362.146	5.21
362.355	5.1
362.564	5.18
362.774	5.06
362.983	5.09
363.192	4.86
363.401	5
363.61	5.21
363.819	5.3
364.028	5.33
364.237	5.81
364.446	5.83
364.655	5.82
364.864	5.63
365.073	5.48
365.282	5.61
365.491	5.59
365.7	5.51
365.909	5.41
366.118	5.18
366.327	5
366.536	4.93
366.745	5.21
366.954	5.12
367.162	5.23
367.371	5.13
367.58	4.69
367.789	4.76
367.998	4.91
368.207	4.91
368.415	4.85
368.624	4.88
368.833	4.46
369.042	4.22
369.25	4.51
369.459	4.24
369.668	4.35
369.877	4.55
370.085	4.3
370.294	3.95
370.503	3.69
370.711	3.91
370.92	4.03
371.129	4.09
371.337	4
371.546	3.92
371.754	4.04
371.963	4.02
372.171	4.07
372.38	4.31
372.589	4.49
372.797	4.81
373.006	4.85
373.214	4.54
373.423	4.61
373.631	4.79
373.84	4.7
374.048	4.67
374.256	4.68
374.465	4.63
374.673	4.55
374.882	4.56
375.09	4.53
375.298	4.29
375.507	4.43
375.715	4.24
375.923	4.34
376.132	4.23
376.34	4.39
376.548	4.29
376.757	4.55
376.965	4.76
377.173	4.66
377.381	4.64
377.59	4.57
377.798	4.55
378.006	4.72
378.214	4.54
378.423	4.83
378.631	4.98
378.839	4.88
379.047	4.7
379.255	4.52
379.463	4.53
379.671	4.86
379.879	4.87
380.088	4.95
380.296	5
380.504	4.97
380.712	4.88
380.92	4.79
381.128	4.95
381.336	4.77
381.544	4.71
381.752	4.7
381.96	4.44
382.168	4.55
382.376	4.58
382.584	4.58
382.791	4.58
382.999	4.36
383.207	4.01
383.415	3.96
383.623	4
383.831	3.78
384.039	3.71
384.247	3.82
384.454	3.73
384.662	3.61
384.87	3.54
385.078	3.4
385.285	3.52
385.493	3.78
385.701	3.75
385.909	3.75
386.116	4.06
386.324	3.82
386.532	3.67
386.739	3.65
386.947	3.86
387.155	3.89
387.362	4.17
387.57	4.22
387.778	4.05
387.985	4.11
388.193	4.06
388.4	4.06
388.608	4.16
388.816	4.17
389.023	4.34
389.231	4.24
389.438	4.16
389.646	4
389.853	3.92
390.061	4
390.268	3.99
390.475	4.18
390.683	4.03
390.89	4.13
391.098	4.06
391.305	3.83
391.512	3.74
391.72	3.87
391.927	3.97
392.135	4.02
392.342	3.96
392.549	3.93
392.756	3.82
392.964	3.86
393.171	4.01
393.378	4.13
393.586	4.18
393.793	4.01
394	4.04
394.207	4
394.414	3.86
394.622	3.82
394.829	3.68
395.036	3.5
395.243	3.48
395.45	3.36
395.657	3.2
395.864	3.32
396.072	3.45
396.279	3.37
396.486	3.22
396.693	3.2
396.9	3.34
397.107	3.52
397.314	3.44
397.521	3.51
397.728	3.39
397.935	3.48
398.142	3.48
398.349	3.5
398.556	3.38
398.763	3.45
398.97	3.48
399.177	3.56
399.383	3.68
399.59	3.92
399.797	3.94
400.004	3.87
400.211	3.67
400.418	3.54
400.625	3.4
400.831	3.52
401.038	3.55
401.245	3.66
401.452	3.37
401.658	3.24
401.865	3.09
402.072	3.03
402.279	3.11
402.485	3.24
402.692	3.31
402.899	3.47
403.105	3.28
403.312	3.21
403.519	3.28
403.725	3.37
403.932	3.1
404.138	3.21
404.345	3.22
404.552	3.19
404.758	2.9
404.965	2.85
405.171	2.79
405.378	2.94
405.584	2.94
405.791	2.62
405.997	2.51
406.204	2.85
406.41	2.76
406.617	2.67
406.823	2.67
407.029	2.88
407.236	2.85
407.442	2.8
407.649	2.86
407.855	2.86
408.061	2.89
408.268	2.96
408.474	2.91
408.68	2.95
408.887	2.93
409.093	3
409.299	3.08
409.505	3.26
409.712	3.29
409.918	3.06
410.124	3.07
410.33	3.22
410.537	3.35
410.743	3.12
410.949	2.96
411.155	2.97
411.361	2.97
411.567	2.94
411.773	2.9
411.98	2.9
412.186	3.06
412.392	3.15
412.598	3.08
412.804	2.94
413.01	3.05
413.216	3.21
413.422	3.31
413.628	3.27
413.834	3.27
414.04	3.23
414.246	3.1
414.452	3.18
414.658	3.06
414.864	3.04
415.07	3.05
415.275	2.95
415.481	2.81
415.687	2.63
415.893	2.55
416.099	2.55
416.305	2.49
416.511	2.57
416.716	2.48
416.922	2.38
417.128	2.4
417.334	2.43
417.539	2.55
417.745	2.55
417.951	2.59
418.157	2.68
418.362	2.6
418.568	2.57
418.774	2.6
418.979	2.59
419.185	2.63
419.391	2.64
419.596	2.57
419.802	2.53
420.008	2.52
420.213	2.5
420.419	2.51
420.624	2.54
420.83	2.59
421.035	2.62
421.241	2.66
421.446	2.61
421.652	2.56
421.857	2.57
422.063	2.53
422.268	2.55
422.474	2.57
422.679	2.5
422.885	2.54
423.09	2.48
423.295	2.44
423.501	2.41
423.706	2.48
423.911	2.48
424.117	2.49
424.322	2.48
424.527	2.51
424.733	2.45
424.938	2.44
425.143	2.36
425.349	2.27
425.554	2.15
425.759	2.08
425.964	2.13
426.169	2.1
426.375	2.04
426.58	2.11
426.785	2.04
426.99	2.01
427.195	2
427.4	1.84
427.605	1.92
427.811	1.94
428.016	1.86
428.221	1.7
428.426	1.72
428.631	1.78
428.836	1.67
429.041	1.65
429.246	1.73
429.451	1.78
429.656	1.94
429.861	1.98
430.066	1.97
430.271	2.08
430.476	2.14
430.681	2.09
430.886	2.17
431.09	2.17
431.295	2.22
431.5	2.28
431.705	2.23
431.91	2.21
432.115	2.21
432.32	2.19
432.524	2.06
432.729	2.12
432.934	2.13
433.139	2.06
433.343	2.14
433.548	2.07
433.753	2.03
433.958	2.04
434.162	2.05
434.367	1.92
434.572	2.02
434.776	2.12
434.981	2.01
435.186	2.05
435.39	1.92
435.595	1.85
435.799	1.92
436.004	2.01
436.209	2.04
436.413	2.09
436.618	2.23
436.822	2.19
437.027	2.2
437.231	2.21
437.436	2.14
437.64	2.24
437.845	2.33
438.049	2.32
438.253	2.22
438.458	2.19
438.662	2.11
438.867	2.02
439.071	1.98
439.275	1.98
439.48	2.04
439.684	2.17
439.888	2.15
440.093	2.1
440.297	2.04
440.501	2.09
440.706	2.13
440.91	2.13
441.114	2.19
441.318	2.25
441.523	2.21
441.727	2.1
441.931	2.02
442.135	2.03
442.339	2.04
442.543	1.99
442.748	1.91
442.952	1.86
443.156	1.91
443.36	1.93
443.564	1.83
443.768	1.78
443.972	1.76
444.176	1.74
444.38	1.8
444.584	1.77
444.788	1.85
444.992	1.92
445.196	1.91
445.4	1.89
445.604	1.83
445.808	1.89
446.012	2.01
446.216	2.01
446.42	2.08
446.624	1.98
446.828	1.99
447.032	1.89
447.235	1.88
447.439	1.85
447.643	1.86
447.847	1.84
448.051	1.88
448.254	1.78
448.458	1.89
448.662	1.81
448.866	1.85
449.069	1.82
449.273	1.87
449.477	1.89
449.681	1.95
449.884	1.91
450.088	2.04
450.292	2.08
450.495	2.2
450.699	2.08
450.902	2.05
451.106	1.98
451.31	2.01
451.513	2.05
451.717	2.1
451.92	2.06
452.124	2.05
452.327	1.89
452.531	1.77
452.734	1.67
452.938	1.74
453.141	1.76
453.345	1.83
453.548	1.82
453.752	1.81
453.955	1.68
454.158	1.72
454.362	1.71
454.565	1.8
454.769	1.72
454.972	1.77
455.175	1.73
455.379	1.68
455.582	1.72
455.785	1.8
455.988	1.81
456.192	1.84
456.395	1.84
456.598	1.84
456.801	1.85
457.005	1.92
457.208	1.88
457.411	1.93
457.614	1.93
457.817	1.91
458.021	1.85
458.224	1.8
458.427	1.82
458.63	1.82
458.833	1.8
459.036	1.76
459.239	1.79
459.442	1.81
459.645	1.77
459.848	1.84
460.051	1.87
460.254	1.82
460.457	1.82
460.66	1.76
460.863	1.63
461.066	1.57
461.269	1.53
461.472	1.48
461.675	1.48
461.878	1.51
462.081	1.32
462.284	1.3
462.486	1.42
462.689	1.47
462.892	1.53
463.095	1.58
463.298	1.71
463.5	1.84
463.703	1.86
463.906	1.73
464.109	1.66
464.311	1.76
464.514	1.71
464.717	1.74
464.92	1.67
465.122	1.56
465.325	1.68
465.528	1.7
465.73	1.71
465.933	1.73
466.135	1.77
466.338	1.82
466.541	1.76
466.743	1.71
466.946	1.67
467.148	1.79
467.351	1.9
467.553	1.86
467.756	1.86
467.958	1.81
468.161	1.79
468.363	1.84
468.566	1.81
468.768	1.92
468.971	2.12
469.173	2.07
469.375	2.03
469.578	1.9
469.78	1.78
469.983	1.79
470.185	1.78
470.387	1.75
470.59	1.84
470.792	1.83
470.994	1.75
471.196	1.65
471.399	1.7
471.601	1.72
471.803	1.9
472.005	1.96
472.208	1.93
472.41	1.91
472.612	1.93
472.814	1.87
473.016	1.93
473.218	1.97
473.421	1.99
473.623	1.99
473.825	1.95
474.027	1.94
474.229	1.97
474.431	1.98
474.633	1.99
474.835	1.89
475.037	1.82
475.239	1.74
475.441	1.65
475.643	1.63
475.845	1.6
476.047	1.64
476.249	1.64
476.451	1.61
476.653	1.62
476.855	1.68
477.057	1.72
477.258	1.8
477.46	1.9
477.662	1.94
477.864	1.88
478.066	1.84
478.268	1.84
478.469	1.82
478.671	1.82
478.873	1.83
479.075	1.84
479.276	1.87
479.478	1.85
479.68	1.79
479.882	1.81
480.083	1.81
480.285	1.87
480.487	1.84
480.688	1.83
480.89	1.82
481.091	1.8
481.293	1.77
481.495	1.82
481.696	1.81
481.898	1.84
482.099	1.84
482.301	1.86
482.502	1.84
482.704	1.87
482.905	1.88
483.107	1.89
483.308	1.88
483.51	1.88
483.711	1.87
483.913	1.88
484.114	1.88
484.315	1.89
484.517	1.88
484.718	1.88
484.92	1.84
485.121	1.86
485.322	1.86
485.524	1.89
485.725	1.85
485.926	1.82
486.127	1.83
486.329	1.83
486.53	1.86
486.731	1.86
486.932	1.88
487.134	1.88
487.335	1.83
487.536	1.83
487.737	1.83
487.938	1.87
488.139	1.87
488.341	1.88
488.542	1.91
488.743	1.89
488.944	1.92
489.145	1.93
489.346	1.91
489.547	1.94
489.748	1.92
489.949	1.97
490.15	1.98
490.351	1.99
490.552	1.97
490.753	1.92
490.954	1.9
491.155	1.9
491.356	1.93
491.557	1.99
491.758	2
491.959	2.06
492.159	2.03
492.36	2.02
492.561	2.04
492.762	2.02
492.963	2.06
493.164	2.03
493.364	2.05
493.565	2.03
493.766	1.92
493.967	1.96
494.167	1.9
494.368	1.94
494.569	1.93
494.769	1.9
494.97	1.97
495.171	1.96
495.371	2.02
495.572	2.04
495.773	2.07
495.973	2.12
496.174	2.07
496.375	2.05
496.575	2
496.776	2.08
496.976	2.11
497.177	2.11
497.377	2.08
497.578	2.11
497.778	2.12
497.979	2.11
498.179	2.18
498.38	2.25
498.58	2.35
498.78	2.36
498.981	2.3
499.181	2.33
499.382	2.29
499.582	2.34
499.782	2.31
499.983	2.32
500.183	2.22
500.383	2.15
500.584	2.18
500.784	2.12
500.984	2.13
501.184	2.18
501.385	2.25
501.585	2.28
501.785	2.33
501.985	2.34
502.185	2.21
502.386	2.32
502.586	2.33
502.786	2.29
502.986	2.3
503.186	2.25
503.386	2.32
503.586	2.33
503.786	2.34
503.987	2.24
504.187	2.27
504.387	2.35
504.587	2.27
504.787	2.34
504.987	2.42
505.187	2.41
505.387	2.51
505.587	2.47
505.786	2.32
505.986	2.38
506.186	2.44
506.386	2.43
506.586	2.47
506.786	2.53
506.986	2.44
507.186	2.38
507.386	2.45
507.585	2.46
507.785	2.39
507.985	2.52
508.185	2.5
508.384	2.59
508.584	2.58
508.784	2.61
508.984	2.66
509.183	2.74
509.383	2.84
509.583	2.92
509.782	2.95
509.982	3.08
510.182	3.11
510.381	3.1
510.581	3.07
510.781	3.11
510.98	3.11
511.18	3.1
511.379	3.16
511.579	3.09
511.778	3.04
511.978	3.09
512.177	3.03
512.377	3.01
512.576	3.1
512.776	3.09
512.975	3.07
513.175	3.09
513.374	3.06
513.573	3.05
513.773	3.1
513.972	3.08
514.172	3.08
514.371	3.16
514.57	3.19
514.77	3.19
514.969	3.34
515.168	3.42
515.367	3.42
515.567	3.53
515.766	3.49
515.965	3.47
516.164	3.55
516.364	3.53
516.563	3.58
516.762	3.59
516.961	3.61
517.16	3.55
517.359	3.55
517.559	3.6
517.758	3.6
517.957	3.65
518.156	3.67
518.355	3.65
518.554	3.68
518.753	3.64
518.952	3.66
519.151	3.68
519.35	3.77
519.549	3.81
519.748	3.8
519.947	3.8
520.146	3.8
520.345	3.91
520.544	3.95
520.743	3.96
520.942	3.98
521.141	3.99
521.339	3.88
521.538	3.9
521.737	3.96
521.936	4.02
522.135	4.02
522.333	4.11
522.532	4.07
522.731	4.13
522.93	4.18
523.129	4.18
523.327	4.18
523.526	4.35
523.725	4.31
523.923	4.24
524.122	4.26
524.321	4.34
524.519	4.27
524.718	4.25
524.917	4.25
525.115	4.32
525.314	4.37
525.512	4.43
525.711	4.41
525.909	4.45
526.108	4.52
526.306	4.56
526.505	4.56
526.703	4.63
526.902	4.7
527.1	4.66
527.299	4.66
527.497	4.69
527.696	4.69
527.894	4.71
528.092	4.71
528.291	4.71
528.489	4.71
528.688	4.74
528.886	4.75
529.084	4.77
529.283	4.89
529.481	4.88
529.679	4.9
529.877	4.96
530.076	4.99
530.274	5.01
530.472	5.05
530.67	5.06
530.869	5.1
531.067	5.14
531.265	5.13
531.463	5.11
531.661	5.15
531.859	5.17
532.057	5.18
532.255	5.17
532.454	5.25
532.652	5.23
532.85	5.29
533.048	5.26
533.246	5.26
533.444	5.29
533.642	5.34
533.84	5.36
534.038	5.35
534.236	5.34
534.434	5.39
534.632	5.4
534.83	5.4
535.027	5.45
535.225	5.49
535.423	5.52
535.621	5.54
535.819	5.48
536.017	5.52
536.215	5.57
536.412	5.65
536.61	5.65
536.808	5.64
537.006	5.76
537.203	5.73
537.401	5.75
537.599	5.78
537.797	5.84
537.994	5.94
538.192	6.04
538.39	6.07
538.587	6.06
538.785	6.15
538.983	6.23
539.18	6.21
539.378	6.24
539.575	6.31
539.773	6.33
539.97	6.33
540.168	6.34
540.366	6.34
540.563	6.35
540.761	6.39
540.958	6.37
541.155	6.39
541.353	6.45
541.55	6.45
541.748	6.44
541.945	6.44
542.143	6.43
542.34	6.47
542.537	6.45
542.735	6.46
542.932	6.48
543.129	6.55
543.327	6.59
543.524	6.56
543.721	6.63
543.919	6.67
544.116	6.68
544.313	6.77
544.51	6.83
544.708	6.86
544.905	6.94
545.102	6.98
545.299	6.97
545.496	6.94
545.693	7.02
545.891	7.05
546.088	7.07
546.285	7.1
546.482	7.13
546.679	7.12
546.876	7.14
547.073	7.1
547.27	7.1
547.467	7.17
547.664	7.26
547.861	7.23
548.058	7.2
548.255	7.27
548.452	7.34
548.649	7.4
548.846	7.5
549.043	7.62
549.24	7.86
549.437	7.93
549.633	8.01
549.83	8.08
550.027	8.19
550.224	8.32
550.421	8.4
550.618	8.45
550.814	8.46
551.011	8.51
551.208	8.52
551.405	8.51
551.601	8.58
551.798	8.56
551.995	8.58
552.191	8.66
552.388	8.63
552.585	8.63
552.781	8.7
552.978	8.79
553.175	8.81
553.371	8.8
553.568	8.84
553.764	8.89
553.961	8.92
554.157	8.9
554.354	8.84
554.55	9.06
554.747	9.14
554.943	9.23
555.14	9.28
555.336	9.32
555.533	9.44
555.729	9.37
555.926	9.4
556.122	9.55
556.318	9.62
556.515	9.7
556.711	9.64
556.907	9.69
557.104	9.7
557.3	9.73
557.496	9.81
557.693	9.82
557.889	9.92
558.085	9.92
558.281	9.89
558.478	10.06
558.674	10.14
558.87	10.17
559.066	10.25
559.262	10.23
559.459	10.29
559.655	10.37
559.851	10.4
560.047	10.48
560.243	10.48
560.439	10.53
560.635	10.49
560.831	10.56
561.027	10.67
561.223	10.64
561.419	10.79
561.615	10.83
561.811	10.85
562.007	10.91
562.203	10.95
562.399	11.06
562.595	11.22
562.791	11.41
562.987	11.37
563.183	11.32
563.379	11.35
563.575	11.41
563.771	11.41
563.966	11.47
564.162	11.55
564.358	11.67
564.554	11.76
564.75	11.72
564.945	11.7
565.141	11.75
565.337	11.82
565.533	11.94
565.728	11.93
565.924	12.01
566.12	12.01
566.315	12.09
566.511	12.13
566.707	12.18
566.902	12.26
567.098	12.29
567.293	12.46
567.489	12.67
567.684	12.71
567.88	12.77
568.076	12.91
568.271	13.06
568.467	13.13
568.662	13.19
568.858	13.2
569.053	13.24
569.248	13.25
569.444	13.21
569.639	13.13
569.835	13.21
570.03	13.36
570.225	13.38
570.421	13.46
570.616	13.47
570.812	13.43
571.007	13.51
571.202	13.53
571.397	13.63
571.593	13.66
571.788	13.78
571.983	13.76
572.178	13.79
572.374	13.76
572.569	13.77
572.764	13.8
572.959	13.93
573.154	13.94
573.35	13.99
573.545	14.05
573.74	14.19
573.935	14.24
574.13	14.34
574.325	14.4
574.52	14.41
574.715	14.44
574.91	14.53
575.105	14.62
575.3	14.74
575.495	14.77
575.69	14.81
575.885	14.72
576.08	14.68
576.275	14.87
576.47	14.94
576.665	15.09
576.86	15.18
577.055	15.22
577.25	15.26
577.444	15.21
577.639	15.3
577.834	15.32
578.029	15.54
578.224	15.65
578.418	15.56
578.613	15.4
578.808	15.47
579.003	15.43
579.197	15.64
579.392	15.58
579.587	15.66
579.781	15.74
579.976	15.77
580.171	15.75
580.365	15.73
580.56	15.71
580.755	15.82
580.949	15.88
581.144	15.95
581.338	15.75
581.533	15.85
581.727	15.92
581.922	15.98
582.116	16.07
582.311	16.24
582.505	16.36
582.7	16.56
582.894	16.55
583.089	16.62
583.283	16.73
583.478	16.91
583.672	17.02
583.866	17.17
584.061	17.22
584.255	17.31
584.449	17.29
584.644	17.4
584.838	17.34
585.032	17.36
585.226	17.27
585.421	17.24
585.615	17.35
585.809	17.18
586.003	17.2
586.198	17.22
586.392	17.27
586.586	17.29
586.78	17.24
586.974	17.2
587.168	17.39
587.363	17.41
587.557	17.33
587.751	17.23
587.945	17.37
588.139	17.44
588.333	17.46
588.527	17.36
588.721	17.46
588.915	17.5
589.109	17.59
589.303	17.64
589.497	17.61
589.691	17.69
589.885	17.81
590.079	17.8
590.273	17.66
590.466	17.67
590.66	17.76
590.854	17.59
591.048	17.57
591.242	17.69
591.436	17.69
591.629	17.73
591.823	17.82
592.017	17.77
592.211	17.95
592.404	18.14
592.598	18.18
592.792	18.13
592.986	18.26
593.179	18.31
593.373	18.23
593.567	18.42
593.76	18.5
593.954	18.57
594.147	18.56
594.341	18.49
594.535	18.56
594.728	18.62
594.922	18.71
595.115	18.86
595.309	18.99
595.502	19.03
595.696	18.85
595.889	18.85
596.083	18.94
596.276	18.99
596.47	18.99
596.663	18.89
596.856	18.92
597.05	18.94
597.243	18.96
597.437	18.96
597.63	19.05
597.823	18.99
598.017	19.21
598.21	19.24
598.403	19.33
598.596	19.46
598.79	19.54
598.983	19.53
599.176	19.61
599.369	19.47
599.563	19.47
599.756	19.51
599.949	19.73
600.142	19.62
600.335	19.55
600.528	19.5
600.722	19.39
600.915	19.6
601.108	19.72
601.301	19.72
601.494	19.8
601.687	19.77
601.88	19.78
602.073	19.81
602.266	19.89
602.459	19.84
602.652	19.9
602.845	20.05
603.038	19.96
603.231	19.99
603.424	20.01
603.617	20.09
603.809	20.19
604.002	20.2
604.195	20.26
604.388	20.27
604.581	20.42
604.774	20.45
604.966	20.43
605.159	20.53
605.352	20.58
605.545	20.67
605.737	20.65
605.93	20.69
606.123	20.8
606.316	20.87
606.508	20.9
606.701	20.92
606.894	21.08
607.086	21.06
607.279	21
607.471	20.95
607.664	20.86
607.857	20.77
608.049	20.73
608.242	20.72
608.434	20.62
608.627	20.58
608.819	20.47
609.012	20.45
609.204	20.57
609.397	20.55
609.589	20.53
609.782	20.57
609.974	20.62
610.166	20.65
610.359	20.54
610.551	20.6
610.743	20.51
610.936	20.42
611.128	20.32
611.32	20.21
611.513	20.2
611.705	20.23
611.897	20.34
612.09	20.31
612.282	20.39
612.474	20.49
612.666	20.51
612.858	20.7
613.051	20.82
613.243	20.84
613.435	20.95
613.627	20.9
613.819	20.89
614.011	20.92
614.203	21.02
614.395	21
614.588	20.95
614.78	21.07
614.972	20.99
615.164	21.11
615.356	21.09
615.548	20.93
615.74	21.08
615.932	21.25
616.124	21.14
616.315	21.23
616.507	21.25
616.699	21.35
616.891	21.19
617.083	21.44
617.275	21.51
617.467	21.74
617.659	22.01
617.85	21.9
618.042	21.8
618.234	21.68
618.426	21.62
618.618	21.71
618.809	21.75
619.001	21.8
619.193	21.53
619.384	21.47
619.576	21.29
619.768	21.28
619.959	21.48
620.151	21.51
620.343	21.69
620.534	21.71
620.726	21.8
620.917	21.73
621.109	21.7
621.301	21.84
621.492	21.92
621.684	22.06
621.875	21.96
622.067	21.92
622.258	21.9
622.45	22.05
622.641	22.12
622.832	22.01
623.024	21.99
623.215	22.09
623.407	22.05
623.598	21.99
623.789	21.95
623.981	22.14
624.172	22.16
624.363	22.21
624.555	22.27
624.746	22.21
624.937	22.22
625.129	22.38
625.32	22.37
625.511	22.55
625.702	22.69
625.893	22.71
626.085	22.47
626.276	22.45
626.467	22.42
626.658	22.33
626.849	22.62
627.04	22.61
627.231	22.58
627.422	22.64
627.614	22.67
627.805	22.69
627.996	22.8
628.187	23.09
628.378	23.17
628.569	23.27
628.76	23.28
628.951	22.97
629.142	23.03
629.332	23.09
629.523	22.96
629.714	22.82
629.905	22.73
630.096	22.8
630.287	22.75
630.478	22.84
630.669	22.74
630.859	22.74
631.05	22.67
631.241	22.57
631.432	22.43
631.623	22.51
631.813	22.5
632.004	22.61
632.195	22.45
632.385	22.39
632.576	22.33
632.767	22.34
632.957	22.32
633.148	22.49
633.339	22.76
633.529	22.81
633.72	22.85
633.91	23.07
634.101	23.13
634.292	23.17
634.482	23.29
634.673	23.3
634.863	23.44
635.054	23.57
635.244	23.66
635.435	23.67
635.625	23.95
635.815	23.94
636.006	23.86
636.196	23.92
636.387	24.01
636.577	24.04
636.767	24.11
636.958	24.17
637.148	24.16
637.338	24.07
637.529	23.97
637.719	23.76
637.909	23.61
638.099	23.68
638.29	23.74
638.48	23.65
638.67	23.58
638.86	23.52
639.05	23.34
639.241	23.38
639.431	23.49
639.621	23.54
639.811	23.72
640.001	24.03
640.191	23.98
640.381	23.77
640.571	23.96
640.761	24.08
640.951	24.14
641.141	24.2
641.331	23.93
641.521	23.89
641.711	23.9
641.901	23.63
642.091	23.5
642.281	23.5
642.471	23.7
642.661	23.6
642.851	23.65
643.041	23.61
643.231	23.76
643.42	24.12
643.61	24.09
643.8	24.02
643.99	24.1
644.18	24.06
644.369	24.15
644.559	24.03
644.749	24.02
644.939	24.03
645.128	24.01
645.318	24.18
645.508	24.02
645.697	24.21
645.887	24.29
646.076	24.46
646.266	24.46
646.456	24.38
646.645	24.44
646.835	24.58
647.024	24.53
647.214	24.63
647.403	24.48
647.593	24.74
647.782	24.65
647.972	24.64
648.161	24.49
648.351	24.64
648.54	24.63
648.73	24.56
648.919	24.49
649.108	24.38
649.298	24.39
649.487	24.54
649.677	24.63
649.866	24.68
650.055	24.53
650.244	24.56
650.434	24.67
650.623	24.86
650.812	25.15
651.002	25.17
651.191	25.17
651.38	25.27
651.569	24.97
651.758	24.84
651.947	24.85
652.137	25.15
652.326	25.36
652.515	25.36
652.704	25.4
652.893	25.22
653.082	25.18
653.271	25.33
653.46	25.3
653.649	25.6
653.838	25.57
654.027	25.52
654.216	25.41
654.405	25.44
654.594	25.37
654.783	25.26
654.972	25.33
655.161	25.24
655.35	25.24
655.539	25.24
655.728	25.27
655.916	25.27
656.105	25.44
656.294	25.61
656.483	25.5
656.672	25.56
656.86	25.7
657.049	25.58
657.238	25.75
657.427	25.65
657.615	25.59
657.804	25.64
657.993	25.68
658.181	25.55
658.37	25.39
658.559	25.43
658.747	25.52
658.936	25.47
659.125	25.56
659.313	25.7
659.502	25.91
659.69	26.03
659.879	25.78
660.067	25.85
660.256	25.92
660.444	25.85
660.633	25.87
660.821	25.86
661.01	25.81
661.198	25.96
661.387	25.91
661.575	25.89
661.763	25.93
661.952	25.97
662.14	25.89
662.328	25.97
662.517	26.19
662.705	26.15
662.893	26.09
663.082	26.26
663.27	26.03
663.458	25.82
663.646	25.82
663.834	25.57
664.023	25.64
664.211	25.62
664.399	25.6
664.587	25.59
664.775	25.64
664.963	25.66
665.152	25.79
665.34	25.72
665.528	25.8
665.716	25.63
665.904	25.97
666.092	26.19
666.28	26.26
666.468	26.27
666.656	26.25
666.844	26.49
667.032	26.42
667.22	26.22
667.408	26.5
667.596	26.65
667.784	26.83
667.971	26.78
668.159	26.82
668.347	26.88
668.535	26.99
668.723	27.17
668.911	27.18
669.098	27.38
669.286	27.29
669.474	27.19
669.662	27.25
669.849	27.22
670.037	27.26
670.225	27.23
670.413	27.31
670.6	27.2
670.788	27.31
670.976	27.04
671.163	27.01
671.351	27.2
671.538	27.35
671.726	27
671.913	27.35
672.101	27.27
672.289	27.37
672.476	27.22
672.664	27.24
672.851	26.88
673.039	27.12
673.226	27.03
673.413	27.11
673.601	26.8
673.788	27.15
673.976	26.77
674.163	27.04
674.35	26.82
674.538	26.94
674.725	27.16
674.912	27.23
675.1	27.22
675.287	27.29
675.474	27
675.662	27.03
675.849	27.12
676.036	27.33
676.223	26.99
676.411	27.01
676.598	27.06
676.785	26.82
676.972	26.94
677.159	26.93
677.346	26.75
677.533	27.08
677.721	27.05
677.908	26.78
678.095	26.69
678.282	26.66
678.469	26.81
678.656	26.85
678.843	26.87
679.03	26.85
679.217	26.69
679.404	26.77
679.591	26.72
679.778	26.86
679.964	26.96
680.151	27.04
680.338	27.3
680.525	27.36
680.712	27.4
680.899	27.52
681.086	27.75
681.272	27.74
681.459	27.77
681.646	27.66
681.833	27.92
682.02	27.85
682.206	27.85
682.393	27.74
682.58	27.67
682.766	27.66
682.953	27.8
683.14	27.64
683.326	27.82
683.513	27.72
683.7	27.91
683.886	27.96
684.073	28.11
684.259	27.98
684.446	27.97
684.632	28.18
684.819	27.94
685.005	27.92
685.192	27.99
685.378	28.21
685.565	28.77
685.751	28.75
685.938	28.63
686.124	28.72
686.31	28.87
686.497	28.79
686.683	28.67
686.87	28.63
687.056	28.5
687.242	28.47
687.429	28.02
687.615	27.75
687.801	27.69
687.987	27.66
688.174	27.6
688.36	27.7
688.546	28.03
688.732	27.79
688.918	27.8
689.105	27.86
689.291	28.09
689.477	28.46
689.663	28.37
689.849	28.45
690.035	28.24
690.221	28.16
690.407	28.36
690.593	27.98
690.779	27.96
690.965	28.31
691.151	28.27
691.337	27.84
691.523	28
691.709	28.18
691.895	28.08
692.081	28.28
692.267	28.23
692.453	27.94
692.639	28.06
692.825	28.51
693.011	28.28
693.196	28.33
693.382	28.5
693.568	28.02
693.754	27.75
693.94	27.7
694.125	27.43
694.311	27.58
694.497	27.78
694.682	27.86
694.868	27.19
695.054	27.58
695.239	27.54
695.425	27.56
695.611	27.95
695.796	28.03
695.982	28.31
696.168	28.56
696.353	28.42
696.539	28.33
696.724	28.25
696.91	28.66
697.095	28.51
697.281	28.39
697.466	28.75
697.652	28.71
697.837	28.74
698.023	28.71
698.208	28.76
698.393	28.81
698.579	28.75
698.764	28.71
698.949	28.71
699.135	28.85
699.32	29.08
699.505	28.89
699.691	28.8
699.876	29.16
700.061	29.04
700.246	29.08
700.432	29.27
700.617	29.45
700.802	29.68
700.987	29.56
701.172	29.55
701.358	29.76
701.543	29.35
701.728	29.29
701.913	28.89
702.098	28.81
702.283	29.01
702.468	28.65
702.653	28.71
702.838	28.68
703.023	29.03
703.208	28.78
703.393	28.22
703.578	28.44
703.763	28.63
703.948	28.34
704.133	28.64
704.318	28.45
704.503	28.44
704.688	28.68
704.873	28.79
705.057	29.06
705.242	29.03
705.427	29.44
705.612	29.48
705.797	29.31
705.981	29.64
706.166	29.42
706.351	29.27
706.536	29.53
706.72	29.24
706.905	29.4
707.09	29.15
707.274	29.46
707.459	29.43
707.644	29.7
707.828	29.93
708.013	29.8
708.197	30.07
708.382	30.2
708.567	30.29
708.751	29.96
708.936	29.95
709.12	29.81
709.305	29.3
709.489	29.51
709.673	29.22
709.858	28.99
710.042	29.01
710.227	28.62
710.411	28.64
710.596	28.68
710.78	28.99
710.964	29.05
711.149	29.31
711.333	29.69
711.517	29.58
711.702	29.62
711.886	29.76
712.07	29.94
712.254	30.49
712.438	30.39
712.623	30.3
712.807	30.28
712.991	30.44
713.175	30.3
713.359	29.97
713.544	29.76
713.728	30
713.912	30.01
714.096	29.99
714.28	29.59
714.464	29.75
714.648	30.14
714.832	30.34
715.016	29.99
715.2	29.94
715.384	30.14
715.568	30.26
715.752	30.07
715.936	29.94
716.12	30.09
716.304	30.57
716.488	30.25
716.671	29.82
716.855	29.75
717.039	29.88
717.223	29.65
717.407	29.48
717.59	29.63
717.774	29.6
717.958	29.82
718.142	29.67
718.325	29.1
718.509	29.2
718.693	29.39
718.877	28.99
719.06	28.99
719.244	29.45
719.428	29.87
719.611	29.77
719.795	29.64
719.978	29.44
720.162	29.62
720.345	30.18
720.529	30.2
720.713	30.39
720.896	30.77
721.08	30.72
721.263	30.09
721.446	30.31
721.63	30.21
721.813	30.55
721.997	30.45
722.18	30.3
722.364	29.81
722.547	30.02
722.73	29.48
722.914	29.55
723.097	29.95
723.28	30.43
723.464	30.04
723.647	30.3
723.83	30.43
724.013	30.88
724.197	30.41
724.38	30.63
724.563	30.66
724.746	30.74
724.929	30.59
725.112	29.85
725.296	30.25
725.479	30.33
725.662	30.19
725.845	29.77
726.028	29.89
726.211	30.47
726.394	30.4
726.577	30.06
726.76	30.29
726.943	30.88
727.126	30.86
727.309	30.41
727.492	30.22
727.675	30.35
727.858	30.5
728.041	30.61
728.224	30.79
728.407	30.66
728.589	30.49
728.772	30.18
728.955	29.52
729.138	29.76
729.321	29.57
729.503	29.97
729.686	30.06
729.869	30.23
730.052	29.87
730.234	29.65
730.417	29.71
730.6	29.96
730.782	30.59
730.965	30.49
731.148	30.75
731.33	30.49
731.513	30.22
731.695	30.11
731.878	29.94
732.061	30.08
732.243	29.85
732.426	29.93
732.608	29.86
732.791	29.64
732.973	29.88
733.156	29.54
733.338	30.19
733.52	30.32
733.703	30.59
733.885	30.61
734.068	30.17
734.25	30.54
734.432	30.99
734.615	31.34
734.797	31.16
734.979	30.61
735.162	31.14
735.344	30.9
735.526	31.09
735.708	30.89
735.891	30.69
736.073	30.87
736.255	30.51
736.437	29.95
736.619	30.14
736.802	29.8
736.984	30.72
737.166	30.18
737.348	30.3
737.53	30.14
737.712	29.27
737.894	30.14
738.076	30.68
738.258	31
738.44	31.11
738.622	31.24
738.804	32.06
738.986	31.19
739.168	31.46
739.35	31.27
739.532	31.45
739.714	32.18
739.896	31.31
740.078	30.89
740.259	30.3
740.441	30.34
740.623	29.87
740.805	29.55
740.987	30.1
741.168	30.17
741.35	30.17
741.532	29.82
741.714	29.64
741.895	29.84
742.077	30.36
742.259	30.78
742.44	30.6
742.622	30.85
742.804	30.65
742.985	30.56
743.167	30.7
743.348	30.86
743.53	31.15
743.711	31.47
743.893	31.5
744.075	30.99
744.256	30.92
744.438	31.54
744.619	31.44
744.8	31.42
744.982	31.47
745.163	31.42
745.345	31.21
745.526	31.31
745.707	31.59
745.889	31.78
746.07	31.52
746.252	31.87
746.433	31.3
746.614	31.72
746.795	32.01
746.977	31.89
747.158	32.34
747.339	32.89
747.52	32.75
747.702	32.31
747.883	31.64
748.064	32.33
748.245	32.55
748.426	32.79
748.607	32.02
748.788	32.38
748.97	32.45
749.151	32.48
749.332	32.68
749.513	32.83
749.694	32.62
749.875	32.83
750.056	32.98
750.237	32.85
750.418	31.99
750.599	32.44
750.78	31.86
750.96	32.07
751.141	31.11
751.322	31.07
751.503	30.46
751.684	30.43
751.865	30.92
752.046	30.86
752.226	29.97
752.407	30.77
752.588	31.41
752.769	32.27
752.949	32.65
753.13	33.53
753.311	32.7
753.492	33.12
753.672	33.35
753.853	33.37
754.034	32.88
754.214	33.86
754.395	34.3
754.575	33.96
754.756	33.42
754.937	33.02
755.117	32.97
755.298	33.77
755.478	33.66
755.659	33.48
755.839	32.89
756.02	33.44
756.2	33.08
756.381	33.14
756.561	32.85
756.741	32.82
756.922	32.75
757.102	31.98
757.283	31.72
757.463	32.17
757.643	32.67
757.823	33.28
758.004	32.55
758.184	33.14
758.364	32.57
758.545	32.68
758.725	32.39
758.905	31.93
759.085	32.2
759.265	32.54
759.446	31.76
759.626	31.99
759.806	31.69
759.986	32.06
760.166	30.88
760.346	31.34
760.526	30.69
760.706	30.8
760.886	30.96
761.066	31
761.246	30.71
761.426	30.87
761.606	30.4
761.786	30.47
761.966	30.21
762.146	30.82
762.326	30.81
762.506	31.24
762.686	31.44
762.866	31.68
763.046	31.48
763.225	31.2
763.405	31.17
763.585	31.35
763.765	31.48
763.945	31.47
764.124	31.51
764.304	31.57
764.484	31.63
764.664	31.61
764.843	32.09
765.023	32.54
765.203	33.47
765.382	33.94
765.562	33.59
765.741	32.89
765.921	33.47
766.101	33.53
766.28	32.95
766.46	33.11
766.639	32.65
766.819	31.71
766.998	30.94
767.178	30.24
767.357	29.28
767.537	29.58
767.716	30.66
767.896	30.41
768.075	30.09
768.254	30.35
768.434	30.07
768.613	30.38
768.792	31.04
768.972	31.42
769.151	31.27
769.33	31.95
769.51	32.09
769.689	32.12
769.868	32.48
770.047	33.33
770.226	33.51
770.406	33.27
770.585	33.96
770.764	33.12
770.943	33.31
771.122	33.09
771.301	33.37
771.48	33.56
771.66	32.77
771.839	32.42
772.018	31.63
772.197	31.43
772.376	31.35
772.555	30.17
772.734	30.69
772.913	30.56
773.092	30.28
773.271	29.26
773.449	29.31
773.628	29.55
773.807	29.31
773.986	30.15
774.165	30.02
774.344	30.78
774.523	30.76
774.701	31.29
774.88	30.31
775.059	30.51
775.238	31.56
775.417	31.72
775.595	31.58
775.774	31.51
775.953	31.1
776.131	30.92
776.31	29.79
776.489	30.07
776.667	29.56
776.846	30.49
777.025	30.71
777.203	30.91
777.382	30.12
777.56	30.44
777.739	30.68
777.917	30.17
778.096	30.9
778.274	31.46
778.453	31.82
778.631	31.83
778.81	31.58
778.988	31.55
779.166	31.32
779.345	31.76
779.523	31.94
779.702	32.06
779.88	32.44
780.058	32.28
780.237	32.54
780.415	32.5
780.593	33.19
780.771	33.48
780.95	34.41
781.128	34.17
781.306	33.85
781.484	33.99
781.662	34.49
781.841	34.39
782.019	33.82
782.197	34.44
782.375	34.48
782.553	33.54
782.731	33.62
782.909	33.79
783.087	33.98
783.265	34.56
783.443	34.2
783.621	33.83
783.799	32.99
783.977	33.55
784.155	32.87
784.333	33.44
784.511	33.91
784.689	33.94
784.867	33.62
785.045	34.05
785.223	33.12
785.4	33.4
785.578	32.92
785.756	33.07
785.934	32.49
786.112	31.36
786.289	30.82
786.467	31
786.645	31.44
786.823	31.45
787	31.18
787.178	32.31
787.356	31.38
787.533	32.06
787.711	32.81
787.889	33.36
788.066	34.24
788.244	33.95
788.421	33.14
788.599	33.07
788.776	31.84
788.954	31.41
789.131	30.75
789.309	31
789.486	30.67
789.664	30.33
789.841	29.71
790.019	29.27
790.196	30.28
790.373	29.96
790.551	30.01
790.728	31.31
790.906	31.49
791.083	30.58
791.26	31.43
791.437	30.37
791.615	29.86
791.792	29.98
791.969	29.7
792.146	28.56
792.324	30.77
792.501	30.32
792.678	30.5
792.855	30.61
793.032	31.84
793.209	31.22
793.387	32.88
793.564	34.27
793.741	34.69
793.918	34.59
794.095	35.64
794.272	34.67
794.449	35.18
794.626	34.46
794.803	34.41
794.98	34.66
795.157	34.72
795.334	33.59
795.511	32.99
795.688	32.88
795.864	32.77
796.041	32.24
796.218	31.99
796.395	31.94
796.572	32.02
796.749	31.91
796.925	31.89
797.102	32.33
797.279	32.46
797.456	32.53
797.632	32.53
797.809	33.47
797.986	33.99
798.162	33.7
798.339	34.58
798.516	34.35
798.692	34.7
798.869	33.33
799.046	32.65
799.222	33.66
799.399	33.85
799.575	33.85
799.752	33.37
799.928	33.19
800.105	33.96
800.281	32.78
800.458	32.75
800.634	32.6
800.811	33.51
800.987	33.8
801.163	32.95
801.34	33.18
801.516	33.17
801.692	33.7
801.869	32.94
802.045	33.12
802.221	34.05
802.398	33.75
802.574	33.58
802.75	33.89
802.926	33.16
803.103	34.82
803.279	33.98
803.455	33.24
803.631	33.52
803.807	34.43
803.983	33.26
804.16	32.19
804.336	32.6
804.512	33.67
804.688	33.33
804.864	33.72
805.04	31.02
805.216	30.84
805.392	30.87
805.568	30.4
805.744	29.33
805.92	29.69
806.096	30.37
806.272	31.28
806.448	30.17
806.623	31.27
806.799	31.41
806.975	32.58
807.151	33.24
807.327	34.96
807.503	34.61
807.678	34.45
807.854	33.81
808.03	32.55
808.206	32.53
808.381	31.86
808.557	30.28
808.733	31.22
808.908	30.88
809.084	30.93
809.26	30.16
809.435	29.96
809.611	32.58
809.787	32.97
809.962	33.81
810.138	32.73
810.313	33.22
810.489	33.97
810.664	33.94
810.84	35.11
811.015	35.47
811.191	35.5
811.366	36.83
811.542	35.12
811.717	34.45
811.892	35.94
812.068	36.28
812.243	36.78
812.419	37.28
812.594	36.9
812.769	35.65
812.944	34.54
813.12	34.81
813.295	34.12
813.47	33.24
813.645	35.16
813.821	32.36
813.996	31.74
814.171	30.63
814.346	30.15
814.521	30.48
814.697	31.01
814.872	31.87
815.047	30.57
815.222	31.38
815.397	31.34
815.572	31.2
815.747	32.87
815.922	33.55
816.097	33.37
816.272	33
816.447	33.3
816.622	34.02
816.797	33.92
816.972	33.98
817.147	32.98
817.322	34.01
817.496	34.11
817.671	33.55
817.846	32.8
818.021	33.49
818.196	33.58
818.371	32.26
818.545	31.32
818.72	30.77
818.895	31.43
819.069	32.16
819.244	31.22
819.419	30.77
819.594	31.46
819.768	32.26
819.943	32.22
820.117	32.15
820.292	32.78
820.467	33.5
820.641	33.52
820.816	33.43
820.99	32.97
821.165	33.22
821.339	33.11
821.514	32.99
821.688	33.11
821.863	33.17
822.037	33.23
822.212	33.46
822.386	33.23
822.56	33.31
822.735	33.42
822.909	33.35
823.084	33.3
823.258	33.22
823.432	33.05
823.606	32.6
823.781	32.84
823.955	32.75
824.129	32.47
824.303	32.65
824.478	32.43
824.652	32.06
824.826	32.18
825	32.1
825.174	32.37
825.348	32.42
825.523	32.55
825.697	32.34
825.871	32.54
826.045	32.31
826.219	32.21
826.393	32.63
826.567	32.81
826.741	33.23
826.915	33.32
827.089	33.6
827.263	33.64
827.437	33.73
827.611	33.81
827.784	33.53
827.958	33.79
828.132	33.41
828.306	33.21
828.48	32.96
828.654	32.85
828.827	33.17
829.001	32.62
829.175	32.46
829.349	32.91
829.522	32.21
829.696	32.6
829.87	32.4
830.044	33.35
830.217	33.12
830.391	34.57
830.565	34.26
830.738	33.95
830.912	33.85
831.085	34.61
831.259	34.35
831.432	34.5
831.606	34.46
831.779	34.03
831.953	33.19
832.126	33.6
832.3	32.98
832.473	32.92
832.647	32.59
832.82	33.65
832.994	34.17
833.167	33.86
833.34	33.85
833.514	33.94
833.687	33.44
833.86	33.37
834.034	32.78
834.207	32.61
834.38	33.16
834.553	33.52
834.727	32.86
834.9	32.92
835.073	33.48
835.246	34.11
835.419	33.79
835.593	35.18
835.766	35.75
835.939	36.64
836.112	36.89
836.285	36.82
836.458	36.38
836.631	37.01
836.804	35.53
836.977	34.49
837.15	34.46
837.323	35.01
837.496	35.15
837.669	34.7
837.842	33.83
838.015	33.51
838.188	32.17
838.361	33.65
838.533	32.6
838.706	32.69
838.879	34.51
839.052	34.7
839.225	34.27
839.398	32.47
839.57	32.45
839.743	33.34
839.916	33.96
840.088	34.76
840.261	34.44
840.434	35.31
840.607	36.18
840.779	36.78
840.952	35.98
841.124	36.27
841.297	37.18
841.47	37.95
841.642	37.62
841.815	36.27
841.987	36.46
842.16	37.04
842.332	36.58
842.505	35.45
842.677	31.69
842.85	31.31
843.022	31.09
843.194	31.43
843.367	31.68
843.539	31.11
843.712	31.74
843.884	31.07
844.056	31.49
844.229	32.07
844.401	34.17
844.573	36.43
844.745	37.02
844.918	37.77
845.09	38.09
845.262	36.42
845.434	36.59
845.606	37.98
845.779	38.82
845.951	38.22
846.123	36.15
846.295	36.05
846.467	34.98
846.639	35.87
846.811	35.73
846.983	36.33
847.155	35.93
847.327	36.83
847.499	35.18
847.671	31.69
847.843	30.54
848.015	32.23
848.187	30.3
848.359	33.2
848.531	31.02
848.703	31.19
848.875	27.71
849.047	26
849.218	27.91
849.39	29.51
849.562	36.18
849.734	35.19
849.905	35.03
850.077	39.41
850.249	38.39
850.421	41.96
850.592	39.74
850.764	37.19
850.936	39.96
851.107	39.21
851.279	34.63
851.451	32.72
851.622	33.58
851.794	32.5
851.965	29.93
852.137	29.15
852.308	25.49
852.48	29.25
852.651	34.42
852.823	35.89
852.994	32.13
853.166	36.43
853.337	34.48
853.509	35.12
853.68	35.34
853.851	35.09
854.023	34.81
854.194	36.92
854.365	35.49
854.537	34.96
854.708	37.37
854.879	42.31
855.05	41.7
855.222	43.97
855.393	45.18
855.564	43.67
855.735	45.3
855.906	46.62
856.078	42.5
856.249	40.04
856.42	39.82
856.591	34.23
856.762	34.39
856.933	36.82
857.104	37.71
857.275	36.47
857.446	41.25
857.617	39.56
857.788	41.41
857.959	47.1
858.13	49.93
858.301	49.87
858.472	50.11
858.643	50.32
858.814	45.5
858.985	42.25
859.155	42.17
859.326	38.92
859.497	32.76
859.668	29.46
859.839	29.34
860.009	27.57
860.18	24.3
860.351	25.22
860.522	25.79
860.692	28.65
860.863	32.97
861.034	32.61
861.204	33.95
861.375	38.25
861.546	40.23
861.716	34.03
861.887	33.72
862.057	40.15
862.228	40.46
862.398	34.58
862.569	34.62
862.739	33.52
862.91	32.52
863.08	27.8
863.251	30.23
863.421	28.74
863.592	32.9
863.762	34.83
863.932	31.64
864.103	33.39
864.273	36.53
864.443	35.94
864.614	34.53
864.784	35.23
864.954	39.93
865.125	38.25
865.295	39.29
865.465	40.3
865.635	39.93
865.805	39.45
865.976	40.16
866.146	37.59
866.316	36.48
866.486	37.03
866.656	39.91
866.826	38.64
866.996	39.64
867.166	38.49
867.336	36.9
867.506	33.78
867.676	31.57
867.846	27.73
868.016	27.69
868.186	27.8
868.356	25.19
868.526	22.66
868.696	23.59
868.866	25.57
869.036	23.17
869.206	19.56
869.376	25.64
869.545	30.91
869.715	35.04
869.885	36.24
870.055	37.17
870.224	37.48
870.394	35.53
870.564	33.43
870.734	32.82
870.903	37.62
871.073	38.22
871.243	31.98
871.412	28.48
871.582	27.29
871.751	25.37
871.921	28.25
872.091	30.44
872.26	34.09
872.43	35.08
872.599	35.83
872.769	34.86
872.938	35.37
873.108	41.45
873.277	40.82
873.446	44.09
873.616	46.57
873.785	45.64
873.955	46.31
874.124	44.17
874.293	41.52
874.463	37.11
874.632	32.89
874.801	34.82
874.971	32.5
875.14	34.86
875.309	33.09
875.478	31.24
875.647	29.3
875.817	25.98
875.986	27.32
876.155	30.63
876.324	32.17
876.493	34.68
876.662	31.93
876.831	29.07
877	30.7
877.17	28.71
877.339	25.98
877.508	28.72
877.677	31.06
877.846	27.61
878.015	26.26
878.184	27.76
878.352	25.3
878.521	27.74
878.69	30.04
878.859	32.04
879.028	30.75
879.197	32.21
879.366	30.55
879.534	29.85
879.703	32.27
879.872	33.35
880.041	34.02
880.21	35.09
880.378	33.9
880.547	34.8
880.716	31.83
880.884	32.6
881.053	33.27
881.222	33.95
881.39	34.37
881.559	34.74
881.727	34.09
881.896	33.74
882.065	33.11
882.233	33.43
882.402	33.29
882.57	34.12
882.739	33.99
882.907	34.38
883.076	34.22
883.244	33.95
883.412	34.06
883.581	33.73
883.749	33.35
883.918	34.04
884.086	34.11
884.254	33.84
884.423	34.04
884.591	35.14
884.759	33.95
884.927	34.96
885.096	35.84
885.264	35.46
885.432	37.36
885.6	38.14
885.769	39.04
885.937	38.37
886.105	38.86
886.273	37.7
886.441	36.69
886.609	37.96
886.777	35.63
886.945	33.47
887.113	33.63
887.281	30.64
887.449	31.43
887.617	31.41
887.785	35.31
887.953	34.3
888.121	35.61
888.289	33.76
888.457	35.98
888.625	31.41
888.793	31.42
888.961	31.93
889.129	32.35
889.296	33.4
889.464	31.33
889.632	28.75
889.8	30.33
889.967	31.83
890.135	33.49
