Data from 2938496_Reflection_2.txt Node
Date: Wed Jun 17 00:29:19 EDT 2015
User: robert
Spectrometer: USB4E03002
Autoset integration time: false
Trigger mode: 4
Integration Time (sec): 1.000000E-1
Scans to average: 10
Electric dark correction enabled: true
Nonlinearity correction enabled: false
Boxcar width: 5
Stray light correction enabled: false
XAxis mode: Wavelengths
Stop averaging: false
Number of Pixels in Spectrum: 3648
>>>>>Begin Spectral Data<<<<<
177.575	9.58
177.794	-2055.56
178.014	-482.02
178.233	-55.43
178.452	-31.57
178.672	-164.81
178.891	65.45
179.11	31.73
179.33	371.55
179.549	475.06
179.768	833.33
179.987	196.8
180.207	279.76
180.426	-275.89
180.645	158.11
180.864	1058.23
181.084	-573.76
181.303	-230.99
181.522	-4930.94
181.741	-1237.18
181.96	258.89
182.179	349.47
182.398	-334.34
182.618	-491.43
182.837	220.86
183.056	362.97
183.275	57.89
183.494	-501.88
183.713	359.37
183.932	59.48
184.151	308.38
184.37	213.38
184.589	533.75
184.808	220.66
185.027	392.61
185.246	279.57
185.465	392.92
185.684	451.15
185.903	427.98
186.122	572.74
186.341	424.15
186.56	3206.21
186.779	-571.23
186.998	-448.72
187.216	-108.84
187.435	-48.14
187.654	-19.91
187.873	-23.37
188.092	-77.56
188.311	-125.62
188.53	-73.94
188.748	-286.34
188.967	-0.61
189.186	-12.32
189.405	37.78
189.623	-133.61
189.842	1726.13
190.061	-1890.48
190.28	322.7
190.498	1143.98
190.717	1525.15
190.936	-3304.42
191.154	-183.42
191.373	10046.38
191.592	13067.44
191.81	690.54
192.029	318.23
192.248	969.64
192.466	335.84
192.685	-403.48
192.904	-62.87
193.122	-72.11
193.341	-235.74
193.559	1518.73
193.778	-636.57
193.996	-325.78
194.215	244.26
194.433	1554.53
194.652	2205.16
194.87	7576.86
195.089	613.51
195.307	427.76
195.526	461.97
195.744	366.41
195.963	529.18
196.181	1015.3
196.399	546.1
196.618	-534.27
196.836	4316.25
197.055	-2491.92
197.273	-383.01
197.491	-196.99
197.71	-267.02
197.928	-261.66
198.146	-137.72
198.365	-219.14
198.583	-272.04
198.801	-190.08
199.019	-257.15
199.238	-155.57
199.456	-168.72
199.674	-236.82
199.892	-73.97
200.111	-130.47
200.329	-162.85
200.547	-7752.08
200.765	-70.28
200.983	3.34
201.202	-6.73
201.42	52.03
201.638	59.63
201.856	90.27
202.074	157
202.292	83.34
202.51	97.85
202.728	76.84
202.946	44.86
203.165	24.69
203.383	9.14
203.601	11.26
203.819	3.03
204.037	-163.74
204.255	-566.64
204.473	-458.15
204.691	-458.82
204.909	-321.82
205.127	-1370.81
205.345	144050
205.562	139.31
205.78	203.25
205.998	449.74
206.216	-8995.45
206.434	-59.86
206.652	11
206.87	64.44
207.088	51.38
207.306	13.72
207.523	7.7
207.741	5.09
207.959	-27.3
208.177	-33.03
208.395	-18.52
208.612	-78.94
208.83	-44.45
209.048	-101
209.266	-200.38
209.483	-288.18
209.701	-489.95
209.919	-229.64
210.136	-177.89
210.354	-168.23
210.572	-87.63
210.79	-195.98
211.007	-121.82
211.225	-56.78
211.442	-79.84
211.66	-71.51
211.878	-33.53
212.095	-24.07
212.313	-36.07
212.53	-51.65
212.748	-44.99
212.966	-81.44
213.183	-26.53
213.401	-23.21
213.618	-90.14
213.836	-84.62
214.053	-46.74
214.271	-26.94
214.488	-182.81
214.705	-551.66
214.923	-131.01
215.14	-173.99
215.358	-601.75
215.575	251.91
215.793	1734.05
216.01	332.5
216.227	262.09
216.445	385.75
216.662	296.89
216.879	426.04
217.097	498.42
217.314	346.27
217.531	438.38
217.749	488.49
217.966	-266.32
218.183	1568.35
218.4	-767.99
218.618	-59.61
218.835	-67.46
219.052	-44.19
219.269	38.45
219.487	38.62
219.704	25.93
219.921	-5.47
220.138	13.58
220.355	1.17
220.572	-11.59
220.79	0.38
221.007	-4.79
221.224	-20.57
221.441	-22.76
221.658	-51.47
221.875	-54.03
222.092	-25.07
222.309	-17.26
222.526	-22.99
222.743	-19.04
222.96	-2.74
223.177	-11.63
223.394	-7.35
223.611	-9.1
223.828	-12.04
224.045	-10.35
224.262	-5.82
224.479	0.34
224.696	3.82
224.913	7.78
225.13	1.56
225.347	1.99
225.564	4.27
225.781	3.98
225.997	7.98
226.214	11.36
226.431	9.61
226.648	9.63
226.865	6.65
227.082	9.03
227.298	6.64
227.515	9.8
227.732	7.93
227.949	6.77
228.165	4.66
228.382	6.71
228.599	7.09
228.816	7.91
229.032	8.66
229.249	8.62
229.466	7.11
229.682	9.41
229.899	8.11
230.116	8.42
230.332	7.2
230.549	9.18
230.765	5.05
230.982	2.5
231.199	2.72
231.415	2.92
231.632	1.78
231.848	0.63
232.065	1.64
232.281	-0.57
232.498	-0.15
232.714	4.98
232.931	2.29
233.147	2.37
233.364	3.69
233.58	4.97
233.797	1.73
234.013	4.98
234.23	4.95
234.446	-0.67
234.662	-1.86
234.879	-0.13
235.095	-2.89
235.312	-1.43
235.528	1.69
235.744	1
235.961	1.77
236.177	2.56
236.393	-0.1
236.61	-3.58
236.826	0.29
237.042	1.1
237.258	0.97
237.475	-0.78
237.691	-1.15
237.907	-3.83
238.123	-6.75
238.339	-7.97
238.556	-4.18
238.772	-4.8
238.988	-2.52
239.204	-2.56
239.42	-0.96
239.636	-1.54
239.853	1.59
240.069	3.42
240.285	3.91
240.501	5.57
240.717	5.56
240.933	5.9
241.149	5.67
241.365	7.15
241.581	7.23
241.797	8.46
242.013	9.2
242.229	9.41
242.445	7.74
242.661	7.35
242.877	7.88
243.093	8.13
243.309	6.94
243.525	8.43
243.741	7.5
243.957	8.58
244.173	7.73
244.388	8.15
244.604	8.36
244.82	9.55
245.036	10.22
245.252	9.82
245.468	10.25
245.683	10.79
245.899	10.84
246.115	11.1
246.331	11.73
246.547	11.88
246.762	12.12
246.978	12.18
247.194	12.52
247.409	12.65
247.625	13.11
247.841	12.55
248.057	12.61
248.272	12.14
248.488	11.94
248.703	10.21
248.919	9.99
249.135	8.82
249.35	7.89
249.566	6.87
249.782	6.12
249.997	5.41
250.213	5.06
250.428	2.68
250.644	3.62
250.859	2.23
251.075	2.82
251.29	3.17
251.506	3.57
251.721	4.08
251.937	2.88
252.152	2.85
252.368	2.36
252.583	1.67
252.798	3.85
253.014	3.4
253.229	6.04
253.445	5.53
253.66	4.84
253.875	4.33
254.091	2.49
254.306	3.69
254.521	4.06
254.737	5.01
254.952	5.3
255.167	5.5
255.383	5.57
255.598	4.24
255.813	3.97
256.028	3.52
256.244	3.8
256.459	4.64
256.674	4.7
256.889	5.17
257.104	5.7
257.32	6.31
257.535	6.2
257.75	6.11
257.965	6.69
258.18	6.71
258.395	6.62
258.61	6.91
258.826	6.52
259.041	6.79
259.256	6.2
259.471	5.89
259.686	5.81
259.901	5.87
260.116	6.27
260.331	5.53
260.546	5.37
260.761	5.3
260.976	4.49
261.191	4.25
261.406	3.51
261.621	4.28
261.836	4.2
262.05	3.12
262.265	3.58
262.48	3.49
262.695	3.7
262.91	3.38
263.125	3.4
263.34	4.18
263.555	5.18
263.769	5.17
263.984	5.4
264.199	4.51
264.414	4.78
264.629	3.81
264.843	2.97
265.058	3.99
265.273	4.5
265.488	4.82
265.702	4.57
265.917	5.6
266.132	5.54
266.346	6.38
266.561	7.18
266.776	8.12
266.99	9.59
267.205	10.59
267.42	10.08
267.634	9.99
267.849	9.79
268.063	9.82
268.278	8.69
268.492	9.34
268.707	9
268.922	8.95
269.136	8.05
269.351	6.62
269.565	6.48
269.78	6.26
269.994	6.04
270.209	5.85
270.423	5.65
270.637	5.74
270.852	5.52
271.066	5.04
271.281	4.49
271.495	4.2
271.709	4.76
271.924	4.06
272.138	4.32
272.353	3.85
272.567	4.3
272.781	4.82
272.996	3.96
273.21	3.94
273.424	2.69
273.638	2.77
273.853	3.45
274.067	2.6
274.281	1.69
274.495	1.73
274.71	3.28
274.924	2.25
275.138	1.43
275.352	2.53
275.566	2.8
275.781	4.94
275.995	5.59
276.209	5.75
276.423	6.07
276.637	7.21
276.851	6.56
277.065	6.6
277.279	6.6
277.493	7.29
277.707	7.07
277.921	6.65
278.135	4.82
278.349	4.7
278.563	5.37
278.777	5.11
278.991	4.24
279.205	5.02
279.419	4.68
279.633	5.67
279.847	5.76
280.061	6.01
280.275	5.88
280.489	7.09
280.703	6.92
280.917	5.93
281.131	5.9
281.344	6.8
281.558	6.89
281.772	6.36
281.986	5.65
282.2	5.46
282.414	4.98
282.627	4.65
282.841	3.87
283.055	4.44
283.269	5.48
283.482	6.36
283.696	6.06
283.91	5.36
284.123	5.6
284.337	6.56
284.551	6.49
284.764	6.43
284.978	6.54
285.192	6.84
285.405	6.45
285.619	5.52
285.833	4.89
286.046	5
286.26	4.91
286.473	5
286.687	4.67
286.9	4.08
287.114	5.01
287.327	5.78
287.541	5.4
287.754	5.29
287.968	5.75
288.181	5.36
288.395	5.27
288.608	5.8
288.822	5.42
289.035	5.37
289.248	5.42
289.462	4.59
289.675	3.85
289.889	4.16
290.102	4.7
290.315	4.83
290.529	5.23
290.742	4.39
290.955	4.51
291.169	4.65
291.382	4.49
291.595	5.18
291.808	5.69
292.022	6.91
292.235	6.9
292.448	6.45
292.661	6.67
292.875	7.12
293.088	7.94
293.301	7.77
293.514	8.35
293.727	7.96
293.94	7.5
294.153	7.31
294.367	6.97
294.58	7
294.793	7.06
295.006	7.07
295.219	7.41
295.432	7.46
295.645	7.47
295.858	7.11
296.071	7.75
296.284	7.9
296.497	7.6
296.71	7.54
296.923	7.36
297.136	7.03
297.349	6.53
297.562	5.8
297.775	5.35
297.988	5.24
298.201	5.1
298.414	4.49
298.626	4.53
298.839	5.2
299.052	4.67
299.265	4.51
299.478	4.79
299.691	4.92
299.903	4.39
300.116	4.79
300.329	5.37
300.542	5.12
300.755	4.84
300.967	4.95
301.18	4.81
301.393	4.96
301.605	4.98
301.818	4.95
302.031	5.47
302.243	5.29
302.456	4.97
302.669	4.74
302.881	4.4
303.094	5.81
303.307	5.89
303.519	5.2
303.732	4.79
303.944	5.24
304.157	5.28
304.37	4.91
304.582	5.8
304.795	5.68
305.007	5.04
305.22	5.46
305.432	4.73
305.645	4.04
305.857	3.93
306.069	4.56
306.282	4.24
306.494	3.91
306.707	3.72
306.919	3.52
307.132	3.74
307.344	4.53
307.556	5.1
307.769	5.04
307.981	5.29
308.193	5.9
308.406	6.19
308.618	6.51
308.83	6.93
309.043	7.18
309.255	7.17
309.467	6.87
309.679	6.04
309.892	5.51
310.104	4.73
310.316	4.82
310.528	4.73
310.74	4.64
310.953	4.59
311.165	4.4
311.377	4.04
311.589	3.82
311.801	3.9
312.013	4.12
312.225	4.02
312.437	4.63
312.649	4.56
312.862	4.59
313.074	4.23
313.286	4.41
313.498	4.09
313.71	4.7
313.922	5.31
314.134	5.15
314.346	6.02
314.558	6.17
314.77	5.98
314.982	6.13
315.193	5.73
315.405	5.13
315.617	5.66
315.829	5.75
316.041	4.88
316.253	5
316.465	5.09
316.677	4.58
316.888	5.11
317.1	5.11
317.312	5.09
317.524	5.09
317.736	5.63
317.947	4.77
318.159	4.81
318.371	5.17
318.583	4.36
318.794	4.38
319.006	3.73
319.218	3.1
319.43	3.34
319.641	2.8
319.853	2.54
320.064	2.58
320.276	2.63
320.488	2.33
320.699	1.76
320.911	2.39
321.123	3.17
321.334	3.67
321.546	3.8
321.757	4.15
321.969	4.95
322.18	5.45
322.392	5.92
322.603	5.46
322.815	5.48
323.026	5.58
323.238	5.62
323.449	5.44
323.661	5.38
323.872	5.85
324.083	5.27
324.295	4.71
324.506	4.9
324.718	4.51
324.929	5.26
325.14	5.67
325.352	5.87
325.563	5.78
325.774	5.86
325.986	5.42
326.197	5
326.408	4.95
326.62	5.23
326.831	4.31
327.042	4.23
327.253	3.78
327.464	3.36
327.676	3.14
327.887	3.24
328.098	3.05
328.309	3.52
328.52	3.75
328.732	4.14
328.943	4.43
329.154	4.98
329.365	4.79
329.576	4.85
329.787	5.16
329.998	6.04
330.209	5.88
330.42	5.69
330.631	6.04
330.842	5.75
331.053	5.57
331.264	5.25
331.475	5.52
331.686	5.62
331.897	5.78
332.108	5.96
332.319	5.03
332.53	4.78
332.741	4.46
332.952	3.89
333.163	3.98
333.374	3.8
333.585	3.58
333.795	3.88
334.006	4.05
334.217	4.01
334.428	4
334.639	4.5
334.849	4.47
335.06	4.35
335.271	4.61
335.482	4.49
335.692	4.68
335.903	4.74
336.114	3.81
336.325	3.92
336.535	3.83
336.746	3.76
336.957	3.6
337.167	3.39
337.378	3.63
337.589	3.37
337.799	3.4
338.01	3.32
338.22	3.05
338.431	3.57
338.642	3.15
338.852	3.02
339.063	2.55
339.273	2.51
339.484	2.98
339.694	3.56
339.905	3.84
340.115	4.57
340.326	4.69
340.536	4.99
340.746	4.82
340.957	4.78
341.167	4.73
341.378	5.19
341.588	5.42
341.799	5.25
342.009	4.73
342.219	4.64
342.43	4.27
342.64	4.34
342.85	4.23
343.061	4.36
343.271	4.38
343.481	4.3
343.691	4.08
343.902	3.91
344.112	4.08
344.322	4.18
344.532	4.04
344.743	3.51
344.953	3.37
345.163	3.42
345.373	3
345.583	3.13
345.793	3.62
346.004	3.79
346.214	3.61
346.424	3.24
346.634	2.95
346.844	2.98
347.054	3.13
347.264	3.21
347.474	2.9
347.684	3.4
347.894	3.19
348.104	2.86
348.314	2.37
348.524	2.51
348.734	2.5
348.944	2.32
349.154	2.44
349.364	2.59
349.574	2.57
349.784	3.01
349.994	2.9
350.204	3.17
350.413	2.84
350.623	3.37
350.833	3.37
351.043	3.62
351.253	4.35
351.463	4.33
351.672	4.59
351.882	4.71
352.092	4.26
352.302	4.24
352.511	4.03
352.721	3.99
352.931	3.58
353.141	3.7
353.35	3.51
353.56	3.06
353.77	3.07
353.979	3.01
354.189	2.78
354.399	3.03
354.608	3.35
354.818	3.39
355.027	3.8
355.237	4.09
355.447	4.03
355.656	3.7
355.866	3.94
356.075	3.93
356.285	3.64
356.494	3.89
356.704	3.71
356.913	3.33
357.123	3.1
357.332	2.8
357.542	2.76
357.751	2.8
357.96	3.39
358.17	3.27
358.379	3.26
358.589	3.67
358.798	3.19
359.007	3.29
359.217	3.48
359.426	3.78
359.635	3.77
359.845	3.72
360.054	3.77
360.263	3.56
360.472	3.68
360.682	3.73
360.891	3.37
361.1	3.51
361.309	3.91
361.519	3.78
361.728	3.52
361.937	3.62
362.146	3.55
362.355	3.31
362.564	3.23
362.774	3.14
362.983	3.32
363.192	3.35
363.401	3.38
363.61	2.91
363.819	2.74
364.028	2.73
364.237	2.69
364.446	2.68
364.655	2.68
364.864	2.88
365.073	2.56
365.282	2.13
365.491	2.1
365.7	1.99
365.909	1.87
366.118	1.9
366.327	1.97
366.536	2.25
366.745	2.18
366.954	2.1
367.162	2.08
367.371	2.45
367.58	2.5
367.789	2.59
367.998	2.71
368.207	2.84
368.415	2.95
368.624	3.28
368.833	2.84
369.042	2.87
369.25	3.09
369.459	2.81
369.668	2.76
369.877	2.79
370.085	2.89
370.294	2.97
370.503	2.9
370.711	2.96
370.92	2.87
371.129	2.99
371.337	3.03
371.546	2.98
371.754	3.1
371.963	2.96
372.171	3
372.38	3.06
372.589	3.09
372.797	3.2
373.006	3.29
373.214	3.04
373.423	3.24
373.631	3.39
373.84	3.34
374.048	3.26
374.256	3.46
374.465	3.5
374.673	3.42
374.882	3.19
375.09	3.32
375.298	3.18
375.507	3.14
375.715	2.82
375.923	2.9
376.132	2.76
376.34	3.08
376.548	2.82
376.757	2.77
376.965	2.76
377.173	3.23
377.381	3.07
377.59	3.17
377.798	3.33
378.006	3.29
378.214	2.78
378.423	2.64
378.631	2.54
378.839	2.77
379.047	2.82
379.255	2.66
379.463	2.12
379.671	2.02
379.879	2.1
380.088	2.08
380.296	2.53
380.504	2.77
380.712	3.11
380.92	3.02
381.128	2.68
381.336	2.81
381.544	3.04
381.752	3.28
381.96	3.32
382.168	3.4
382.376	3.47
382.584	3.31
382.791	3.21
382.999	3.47
383.207	3.45
383.415	3.96
383.623	3.96
383.831	3.94
384.039	3.95
384.247	3.96
384.454	3.67
384.662	3.43
384.87	3.38
385.078	3.74
385.285	3.51
385.493	3.4
385.701	3.07
385.909	2.9
386.116	2.8
386.324	2.96
386.532	2.93
386.739	3.1
386.947	3.31
387.155	3.2
387.362	3.1
387.57	3.12
387.778	3.41
387.985	3.51
388.193	3.69
388.4	3.68
388.608	3.52
388.816	3.6
389.023	3.65
389.231	3.48
389.438	3.62
389.646	3.48
389.853	3.47
390.061	3.16
390.268	3.1
390.475	2.93
390.683	3.11
390.89	3.06
391.098	2.83
391.305	2.84
391.512	3
391.72	3.04
391.927	3.03
392.135	2.9
392.342	3.05
392.549	2.99
392.756	2.94
392.964	2.74
393.171	2.67
393.378	2.94
393.586	2.82
393.793	2.75
394	2.8
394.207	2.99
394.414	3.06
394.622	2.96
394.829	2.94
395.036	3.04
395.243	3.29
395.45	3.19
395.657	3.16
395.864	3.4
396.072	3.36
396.279	3.2
396.486	2.85
396.693	2.66
396.9	2.7
397.107	2.77
397.314	2.74
397.521	2.55
397.728	2.63
397.935	2.71
398.142	2.35
398.349	2.29
398.556	2.31
398.763	2.53
398.97	2.6
399.177	2.68
399.383	2.85
399.59	3.06
399.797	2.88
400.004	2.82
400.211	2.72
400.418	2.79
400.625	2.8
400.831	2.72
401.038	2.88
401.245	2.79
401.452	3.01
401.658	2.98
401.865	2.81
402.072	2.89
402.279	2.92
402.485	2.78
402.692	2.75
402.899	2.81
403.105	2.67
403.312	2.62
403.519	2.73
403.725	2.53
403.932	2.46
404.138	2.62
404.345	2.67
404.552	2.68
404.758	2.65
404.965	2.7
405.171	2.68
405.378	3.01
405.584	2.91
405.791	2.87
405.997	2.91
406.204	2.92
406.41	2.91
406.617	2.88
406.823	2.89
407.029	2.96
407.236	2.93
407.442	3
407.649	2.83
407.855	2.78
408.061	2.91
408.268	2.83
408.474	2.91
408.68	2.68
408.887	2.52
409.093	2.56
409.299	2.76
409.505	2.84
409.712	2.77
409.918	2.8
410.124	2.79
410.33	2.78
410.537	2.73
410.743	2.61
410.949	2.61
411.155	2.79
411.361	2.83
411.567	2.69
411.773	2.63
411.98	2.64
412.186	2.62
412.392	2.55
412.598	2.43
412.804	2.52
413.01	2.46
413.216	2.58
413.422	2.58
413.628	2.37
413.834	2.41
414.04	2.45
414.246	2.4
414.452	2.32
414.658	2.44
414.864	2.54
415.07	2.51
415.275	2.68
415.481	2.69
415.687	2.67
415.893	2.81
416.099	2.76
416.305	2.91
416.511	3.11
416.716	3.24
416.922	3.32
417.128	3.27
417.334	3.34
417.539	3.27
417.745	3.15
417.951	3.24
418.157	3.3
418.362	3.36
418.568	3.26
418.774	3.12
418.979	3.1
419.185	3.03
419.391	3.03
419.596	2.97
419.802	2.94
420.008	3.02
420.213	3.56
420.419	3.51
420.624	3.52
420.83	3.52
421.035	3.58
421.241	3.64
421.446	3.63
421.652	3.65
421.857	3.67
422.063	3.7
422.268	3.68
422.474	3.11
422.679	3.12
422.885	3.07
423.09	3.07
423.295	3.09
423.501	2.96
423.706	3
423.911	2.98
424.117	3.01
424.322	2.97
424.527	2.98
424.733	3
424.938	2.98
425.143	3
425.349	3.06
425.554	3.01
425.759	3.04
425.964	3.1
426.169	3.03
426.375	2.97
426.58	3.05
426.785	3.04
426.99	3
427.195	2.95
427.4	2.94
427.605	2.89
427.811	2.84
428.016	2.76
428.221	2.61
428.426	2.79
428.631	2.8
428.836	2.71
429.041	2.65
429.246	2.62
429.451	2.7
429.656	2.72
429.861	2.78
430.066	2.89
430.271	3.07
430.476	3.1
430.681	3.01
430.886	3.06
431.09	3.16
431.295	3.26
431.5	3.26
431.705	3.27
431.91	3.34
432.115	3.3
432.32	3.25
432.524	3.25
432.729	3.2
432.934	3.32
433.139	3.33
433.343	3.27
433.548	3.33
433.753	3.32
433.958	3.42
434.162	3.34
434.367	3.23
434.572	3.11
434.776	3
434.981	3.05
435.186	3.02
435.39	2.93
435.595	3
435.799	2.95
436.004	3.07
436.209	3.03
436.413	3.08
436.618	3.26
436.822	3.42
437.027	3.44
437.231	3.52
437.436	3.44
437.64	3.45
437.845	3.48
438.049	3.42
438.253	3.38
438.458	3.32
438.662	3.25
438.867	3.1
439.071	2.95
439.275	3.08
439.48	3.07
439.684	2.98
439.888	3.05
440.093	3.01
440.297	2.96
440.501	2.87
440.706	2.84
440.91	2.9
441.114	3.01
441.318	3.07
441.523	2.94
441.727	2.88
441.931	2.94
442.135	2.93
442.339	2.87
442.543	3
442.748	3.01
442.952	3
443.156	3
443.36	2.94
443.564	3
443.768	3.04
443.972	3.16
444.176	3.21
444.38	3.21
444.584	3.26
444.788	3.24
444.992	3.3
445.196	3.38
445.4	3.45
445.604	3.37
445.808	3.36
446.012	3.33
446.216	3.25
446.42	3.27
446.624	3.18
446.828	3.21
447.032	3.07
447.235	3.01
447.439	2.98
447.643	2.87
447.847	2.93
448.051	3.02
448.254	2.98
448.458	3
448.662	2.95
448.866	3.02
449.069	2.97
449.273	3.15
449.477	3.18
449.681	3.11
449.884	3.06
450.088	3.07
450.292	3.05
450.495	3.07
450.699	2.94
450.902	3.03
451.106	3.03
451.31	3.06
451.513	3.09
451.717	2.98
451.92	2.99
452.124	3.03
452.327	3.05
452.531	2.99
452.734	2.91
452.938	2.99
453.141	2.91
453.345	2.83
453.548	2.7
453.752	2.62
453.955	2.65
454.158	2.65
454.362	2.75
454.565	2.67
454.769	2.63
454.972	2.78
455.175	2.68
455.379	2.67
455.582	2.76
455.785	2.82
455.988	2.87
456.192	2.96
456.395	3.07
456.598	3.05
456.801	3.13
457.005	3.15
457.208	3.11
457.411	3.15
457.614	3.01
457.817	2.99
458.021	2.99
458.224	3.03
458.427	3.04
458.63	3
458.833	2.93
459.036	2.91
459.239	2.93
459.442	2.85
459.645	2.84
459.848	2.97
460.051	3.02
460.254	3.04
460.457	2.94
460.66	2.87
460.863	2.81
461.066	2.77
461.269	2.78
461.472	2.66
461.675	2.71
461.878	2.81
462.081	2.8
462.284	2.75
462.486	2.76
462.689	2.79
462.892	2.93
463.095	2.98
463.298	3.08
463.5	3.05
463.703	3.2
463.906	3.17
464.109	3.11
464.311	3.14
464.514	3.11
464.717	3.1
464.92	3.02
465.122	2.86
465.325	2.79
465.528	2.87
465.73	2.91
465.933	2.97
466.135	3.07
466.338	3.12
466.541	3.12
466.743	3.14
466.946	3.22
467.148	3.34
467.351	3.36
467.553	3.35
467.756	3.27
467.958	3.22
468.161	3.04
468.363	3
468.566	3
468.768	3.02
468.971	3.07
469.173	3.03
469.375	2.92
469.578	2.94
469.78	3.08
469.983	2.96
470.185	3
470.387	3.1
470.59	3.12
470.792	3.12
470.994	2.95
471.196	2.94
471.399	2.92
471.601	3.01
471.803	2.99
472.005	2.97
472.208	3.05
472.41	3.07
472.612	3.04
472.814	3.03
473.016	2.96
473.218	3.17
473.421	3.11
473.623	3.12
473.825	3.12
474.027	3.17
474.229	3.16
474.431	3.19
474.633	3.17
474.835	3.29
475.037	3.34
475.239	3.39
475.441	3.28
475.643	3.33
475.845	3.19
476.047	3.12
476.249	3.13
476.451	3.12
476.653	3.12
476.855	3.18
477.057	3.12
477.258	3.14
477.46	3.06
477.662	3.03
477.864	3.06
478.066	3.19
478.268	3.25
478.469	3.24
478.671	3.26
478.873	3.23
479.075	3.17
479.276	3.1
479.478	2.98
479.68	3.07
479.882	3.15
480.083	3.09
480.285	3.09
480.487	3.05
480.688	3.12
480.89	3.1
481.091	3.13
481.293	3.19
481.495	3.23
481.696	3.27
481.898	3.26
482.099	3.19
482.301	3.22
482.502	3.24
482.704	3.26
482.905	3.24
483.107	3.28
483.308	3.3
483.51	3.25
483.711	3.27
483.913	3.25
484.114	3.29
484.315	3.34
484.517	3.33
484.718	3.31
484.92	3.3
485.121	3.3
485.322	3.26
485.524	3.28
485.725	3.34
485.926	3.3
486.127	3.36
486.329	3.31
486.53	3.28
486.731	3.28
486.932	3.29
487.134	3.28
487.335	3.32
487.536	3.37
487.737	3.31
487.938	3.29
488.139	3.31
488.341	3.24
488.542	3.22
488.743	3.24
488.944	3.3
489.145	3.27
489.346	3.28
489.547	3.25
489.748	3.2
489.949	3.21
490.15	3.24
490.351	3.28
490.552	3.34
490.753	3.36
490.954	3.37
491.155	3.33
491.356	3.41
491.557	3.41
491.758	3.39
491.959	3.41
492.159	3.45
492.36	3.44
492.561	3.37
492.762	3.36
492.963	3.4
493.164	3.36
493.364	3.48
493.565	3.49
493.766	3.48
493.967	3.47
494.167	3.44
494.368	3.45
494.569	3.39
494.769	3.42
494.97	3.38
495.171	3.39
495.371	3.43
495.572	3.26
495.773	3.12
495.973	3.09
496.174	3.12
496.375	3.2
496.575	3.2
496.776	3.22
496.976	3.21
497.177	3.27
497.377	3.21
497.578	3.23
497.778	3.32
497.979	3.34
498.179	3.38
498.38	3.34
498.58	3.27
498.78	3.26
498.981	3.33
499.181	3.42
499.382	3.42
499.582	3.5
499.782	3.56
499.983	3.51
500.183	3.49
500.383	3.51
500.584	3.63
500.784	3.59
500.984	3.51
501.184	3.42
501.385	3.39
501.585	3.42
501.785	3.42
501.985	3.3
502.185	3.36
502.386	3.49
502.586	3.51
502.786	3.45
502.986	3.52
503.186	3.63
503.386	3.69
503.586	3.64
503.786	3.53
503.987	3.49
504.187	3.56
504.387	3.59
504.587	3.56
504.787	3.58
504.987	3.59
505.187	3.6
505.387	3.59
505.587	3.5
505.786	3.42
505.986	3.44
506.186	3.44
506.386	3.45
506.586	3.48
506.786	3.49
506.986	3.51
507.186	3.55
507.386	3.49
507.585	3.55
507.785	3.59
507.985	3.73
508.185	3.74
508.384	3.8
508.584	3.76
508.784	3.66
508.984	3.57
509.183	3.58
509.383	3.54
509.583	3.62
509.782	3.5
509.982	3.53
510.182	3.5
510.381	3.53
510.581	3.46
510.781	3.46
510.98	3.61
511.18	3.66
511.379	3.67
511.579	3.68
511.778	3.67
511.978	3.82
512.177	3.82
512.377	3.9
512.576	4
512.776	4.11
512.975	4.18
513.175	4.13
513.374	4.18
513.573	4.12
513.773	4.21
513.972	4.19
514.172	4.12
514.371	4.08
514.57	4.03
514.77	3.96
514.969	3.95
515.168	3.99
515.367	4.08
515.567	4.08
515.766	4.17
515.965	4.06
516.164	4.11
516.364	4.19
516.563	4.24
516.762	4.25
516.961	4.23
517.16	4.21
517.359	4.16
517.559	4.09
517.758	4.07
517.957	4.09
518.156	4.12
518.355	4.17
518.554	4.14
518.753	4.22
518.952	4.2
519.151	4.23
519.35	4.24
519.549	4.31
519.748	4.25
519.947	4.33
520.146	4.3
520.345	4.29
520.544	4.24
520.743	4.27
520.942	4.24
521.141	4.23
521.339	4.14
521.538	4.18
521.737	4.14
521.936	4.15
522.135	4.17
522.333	4.18
522.532	4.22
522.731	4.24
522.93	4.2
523.129	4.2
523.327	4.26
523.526	4.32
523.725	4.35
523.923	4.31
524.122	4.42
524.321	4.42
524.519	4.46
524.718	4.51
524.917	4.52
525.115	4.55
525.314	4.56
525.512	4.58
525.711	4.66
525.909	4.7
526.108	4.76
526.306	4.73
526.505	4.76
526.703	4.72
526.902	4.75
527.1	4.77
527.299	4.8
527.497	4.78
527.696	4.78
527.894	4.77
528.092	4.76
528.291	4.77
528.489	4.8
528.688	4.76
528.886	4.8
529.084	4.73
529.283	4.77
529.481	4.73
529.679	4.8
529.877	4.82
530.076	4.84
530.274	4.83
530.472	4.83
530.67	4.79
530.869	4.83
531.067	4.87
531.265	4.95
531.463	4.91
531.661	4.94
531.859	4.92
532.057	4.87
532.255	4.87
532.454	4.84
532.652	4.81
532.85	4.88
533.048	4.88
533.246	4.87
533.444	4.82
533.642	4.79
533.84	4.78
534.038	4.77
534.236	4.86
534.434	4.84
534.632	4.92
534.83	4.95
535.027	4.96
535.225	4.93
535.423	4.87
535.621	4.96
535.819	5.02
536.017	5.06
536.215	5.07
536.412	5.05
536.61	5.06
536.808	5
537.006	5.06
537.203	5.06
537.401	5.07
537.599	5.2
537.797	5.21
537.994	5.19
538.192	5.26
538.39	5.32
538.587	5.36
538.785	5.43
538.983	5.5
539.18	5.52
539.378	5.56
539.575	5.58
539.773	5.57
539.97	5.59
540.168	5.65
540.366	5.63
540.563	5.65
540.761	5.68
540.958	5.69
541.155	5.7
541.353	5.7
541.55	5.72
541.748	5.72
541.945	5.74
542.143	5.73
542.34	5.68
542.537	5.71
542.735	5.7
542.932	5.68
543.129	5.69
543.327	5.75
543.524	5.77
543.721	5.73
543.919	5.84
544.116	5.84
544.313	5.84
544.51	5.93
544.708	5.91
544.905	5.98
545.102	6.08
545.299	6.14
545.496	6.21
545.693	6.26
545.891	6.2
546.088	6.22
546.285	6.23
546.482	6.29
546.679	6.3
546.876	6.36
547.073	6.37
547.27	6.29
547.467	6.23
547.664	6.16
547.861	6.15
548.058	6.3
548.255	6.27
548.452	6.35
548.649	6.37
548.846	6.36
549.043	6.41
549.24	6.38
549.437	6.5
549.633	6.54
549.83	6.53
550.027	6.55
550.224	6.61
550.421	6.66
550.618	6.68
550.814	6.69
551.011	6.79
551.208	6.81
551.405	6.82
551.601	6.82
551.798	6.87
551.995	6.99
552.191	6.98
552.388	7.01
552.585	7.08
552.781	7.1
552.978	7.18
553.175	7.16
553.371	7.11
553.568	7.22
553.764	7.35
553.961	7.38
554.157	7.32
554.354	7.44
554.55	7.44
554.747	7.39
554.943	7.23
555.14	7.14
555.336	7.28
555.533	7.3
555.729	7.38
555.926	7.27
556.122	7.25
556.318	7.4
556.515	7.37
556.711	7.49
556.907	7.6
557.104	7.89
557.3	8.11
557.496	7.97
557.693	8.08
557.889	8.11
558.085	8.18
558.281	8.2
558.478	8.2
558.674	8.24
558.87	8.33
559.066	8.33
559.262	8.19
559.459	8.08
559.655	8.16
559.851	8.15
560.047	8.14
560.243	8.04
560.439	8.13
560.635	8.22
560.831	8.25
561.027	8.14
561.223	8.15
561.419	8.34
561.615	8.41
561.811	8.54
562.007	8.57
562.203	8.56
562.399	8.71
562.595	8.65
562.791	8.52
562.987	8.58
563.183	8.73
563.379	8.79
563.575	8.82
563.771	8.82
563.966	8.78
564.162	8.75
564.358	8.81
564.554	8.85
564.75	8.89
564.945	8.92
565.141	8.9
565.337	8.87
565.533	8.93
565.728	8.95
565.924	9.03
566.12	9.15
566.315	9.24
566.511	9.23
566.707	9.21
566.902	9.24
567.098	9.23
567.293	9.27
567.489	9.27
567.684	9.3
567.88	9.41
568.076	9.3
568.271	9.26
568.467	9.26
568.662	9.29
568.858	9.35
569.053	9.39
569.248	9.43
569.444	9.37
569.639	9.42
569.835	9.45
570.03	9.33
570.225	9.41
570.421	9.42
570.616	9.44
570.812	9.45
571.007	9.47
571.202	9.54
571.397	9.56
571.593	9.67
571.788	9.75
571.983	9.84
572.178	9.87
572.374	9.92
572.569	9.96
572.764	9.99
572.959	10.07
573.154	10.19
573.35	10.21
573.545	10.33
573.74	10.39
573.935	10.33
574.13	10.24
574.325	10.3
574.52	10.32
574.715	10.38
574.91	10.44
575.105	10.49
575.3	10.4
575.495	10.36
575.69	10.42
575.885	10.4
576.08	10.45
576.275	10.44
576.47	10.44
576.665	10.48
576.86	10.5
577.055	10.49
577.25	10.45
577.444	10.48
577.639	10.63
577.834	10.56
578.029	10.66
578.224	10.67
578.418	10.62
578.613	10.58
578.808	10.61
579.003	10.69
579.197	10.73
579.392	10.83
579.587	10.88
579.781	10.8
579.976	10.83
580.171	10.78
580.365	10.79
580.56	10.87
580.755	10.97
580.949	11.02
581.144	10.96
581.338	10.93
581.533	10.91
581.727	10.8
581.922	10.71
582.116	10.79
582.311	10.72
582.505	10.78
582.7	10.81
582.894	10.82
583.089	10.86
583.283	10.82
583.478	10.87
583.672	10.78
583.866	10.93
584.061	11
584.255	10.97
584.449	11.06
584.644	11.13
584.838	11.29
585.032	11.31
585.226	11.29
585.421	11.31
585.615	11.23
585.809	11.3
586.003	11.28
586.198	11.51
586.392	11.74
586.586	11.67
586.78	11.55
586.974	11.4
587.168	11.34
587.363	11.37
587.557	11.31
587.751	11.49
587.945	11.53
588.139	11.62
588.333	11.58
588.527	11.5
588.721	11.56
588.915	11.55
589.109	11.78
589.303	11.79
589.497	11.85
589.691	11.94
589.885	11.83
590.079	11.84
590.273	11.67
590.466	11.53
590.66	11.46
590.854	11.53
591.048	11.61
591.242	11.45
591.436	11.48
591.629	11.35
591.823	11.37
592.017	11.43
592.211	11.5
592.404	11.76
592.598	11.91
592.792	11.82
592.986	11.87
593.179	11.84
593.373	11.88
593.567	11.84
593.76	11.97
593.954	12.02
594.147	12.1
594.341	12.17
594.535	12.16
594.728	12.11
594.922	12.19
595.115	12.19
595.309	12.19
595.502	12.23
595.696	12.33
595.889	12.3
596.083	12.32
596.276	12.2
596.47	12.14
596.663	12.05
596.856	12.07
597.05	12.11
597.243	12.15
597.437	12.19
597.63	12.2
597.823	12.12
598.017	12.14
598.21	12.04
598.403	12.1
598.596	12.14
598.79	12.21
598.983	12.25
599.176	12.18
599.369	12
599.563	11.92
599.756	11.98
599.949	11.96
600.142	12.01
600.335	12.15
600.528	12.13
600.722	12.1
600.915	12.11
601.108	12.1
601.301	12.1
601.494	12.25
601.687	12.31
601.88	12.15
602.073	12.23
602.266	12.29
602.459	12.25
602.652	12.28
602.845	12.29
603.038	12.3
603.231	12.35
603.424	12.48
603.617	12.52
603.809	12.56
604.002	12.55
604.195	12.6
604.388	12.59
604.581	12.62
604.774	12.61
604.966	12.6
605.159	12.62
605.352	12.53
605.545	12.5
605.737	12.5
605.93	12.73
606.123	12.82
606.316	12.92
606.508	12.86
606.701	12.86
606.894	12.98
607.086	13.07
607.279	12.98
607.471	13.07
607.664	13.07
607.857	13.06
608.049	12.93
608.242	13
608.434	12.97
608.627	13.02
608.819	13.07
609.012	12.93
609.204	12.93
609.397	13.15
609.589	13.04
609.782	13.08
609.974	13.05
610.166	12.96
610.359	12.89
610.551	12.85
610.743	12.72
610.936	12.8
611.128	12.87
611.32	13.02
611.513	12.81
611.705	12.84
611.897	12.74
612.09	12.8
612.282	12.72
612.474	12.69
612.666	12.51
612.858	12.58
613.051	12.53
613.243	12.56
613.435	12.43
613.627	12.45
613.819	12.67
614.011	12.66
614.203	12.51
614.395	12.66
614.588	12.92
614.78	13.09
614.972	13.2
615.164	13.17
615.356	13.1
615.548	13.03
615.74	13.12
615.932	13.03
616.124	13.09
616.315	13.12
616.507	13.14
616.699	12.9
616.891	12.96
617.083	13.1
617.275	13.04
617.467	13.28
617.659	13.27
617.85	13.26
618.042	13.21
618.234	13.24
618.426	13.39
618.618	13.32
618.809	13.28
619.001	13.34
619.193	13.01
619.384	13.13
619.576	12.9
619.768	12.8
619.959	12.85
620.151	12.89
620.343	12.92
620.534	12.75
620.726	12.86
620.917	13.08
621.109	13
621.301	12.96
621.492	12.68
621.684	12.89
621.875	13.07
622.067	12.95
622.258	12.99
622.45	13.02
622.641	13.16
622.832	13.18
623.024	13.25
623.215	13.28
623.407	13.4
623.598	13.67
623.789	13.42
623.981	13.48
624.172	13.66
624.363	13.62
624.555	13.44
624.746	13.45
624.937	13.54
625.129	13.54
625.32	13.53
625.511	13.65
625.702	13.69
625.893	13.76
626.085	13.74
626.276	13.7
626.467	13.76
626.658	13.77
626.849	13.95
627.04	13.81
627.231	13.7
627.422	13.56
627.614	13.5
627.805	13.37
627.996	13.46
628.187	13.39
628.378	13.32
628.569	13.31
628.76	13.33
628.951	13.08
629.142	13.12
629.332	13.16
629.523	13.24
629.714	13.19
629.905	13.24
630.096	13.23
630.287	13.37
630.478	13.44
630.669	13.32
630.859	13.49
631.05	13.43
631.241	13.43
631.432	13.44
631.623	13.4
631.813	13.54
632.004	13.4
632.195	13.35
632.385	13.17
632.576	13.3
632.767	13.4
632.957	13.2
633.148	13.13
633.339	13.11
633.529	13.03
633.72	13.01
633.91	12.91
634.101	13.03
634.292	12.95
634.482	13.13
634.673	12.91
634.863	12.94
635.054	13.04
635.244	13.17
635.435	13.06
635.625	12.92
635.815	12.99
636.006	13.06
636.196	12.88
636.387	12.94
636.577	12.95
636.767	12.91
636.958	12.91
637.148	12.95
637.338	13.11
637.529	13.31
637.719	13.52
637.909	13.62
638.099	13.53
638.29	13.56
638.48	13.64
638.67	13.46
638.86	13.46
639.05	13.33
639.241	13.26
639.431	13.1
639.621	12.92
639.811	12.97
640.001	12.74
640.191	13.13
640.381	13.18
640.571	13.19
640.761	13.2
640.951	13.31
641.141	13.39
641.331	13.37
641.521	13.47
641.711	13.63
641.901	13.69
642.091	13.95
642.281	13.59
642.471	13.61
642.661	13.73
642.851	13.61
643.041	13.62
643.231	13.72
643.42	13.77
643.61	13.72
643.8	13.49
643.99	13.37
644.18	13.17
644.369	13.14
644.559	13.35
644.749	13.18
644.939	13.39
645.128	13.4
645.318	13.53
645.508	13.62
645.697	13.62
645.887	13.88
646.076	13.85
646.266	13.99
646.456	14.08
646.645	13.93
646.835	13.91
647.024	14.03
647.214	13.97
647.403	13.57
647.593	13.69
647.782	13.76
647.972	13.6
648.161	13.49
648.351	13.38
648.54	13.32
648.73	13.27
648.919	13.64
649.108	13.49
649.298	13.57
649.487	13.98
649.677	13.79
649.866	13.88
650.055	13.99
650.244	14.31
650.434	14.61
650.623	14.61
650.812	14.71
651.002	14.34
651.191	14.34
651.38	14.4
651.569	14.36
651.758	14.28
651.947	14.23
652.137	14.25
652.326	13.92
652.515	13.75
652.704	13.74
652.893	13.87
653.082	13.98
653.271	13.78
653.46	13.89
653.649	13.71
653.838	13.74
654.027	13.75
654.216	13.84
654.405	14.02
654.594	13.96
654.783	14.09
654.972	14.09
655.161	13.95
655.35	14.27
655.539	14.19
655.728	14.23
655.916	14.37
656.105	14.23
656.294	14.16
656.483	14.38
656.672	14.43
656.86	14.53
657.049	14.51
657.238	14.64
657.427	14.37
657.615	14.36
657.804	14.38
657.993	14.31
658.181	14.19
658.37	14.14
658.559	14.03
658.747	14.09
658.936	13.93
659.125	13.5
659.313	13.52
659.502	13.74
659.69	13.57
659.879	13.55
660.067	13.64
660.256	13.85
660.444	13.97
660.633	14.04
660.821	13.84
661.01	13.97
661.198	14.42
661.387	14.43
661.575	14.46
661.763	14.58
661.952	14.42
662.14	14.55
662.328	14.65
662.517	14.66
662.705	14.34
662.893	14.71
663.082	14.54
663.27	14.43
663.458	14.52
663.646	14.48
663.834	14.69
664.023	14.72
664.211	14.76
664.399	14.56
664.587	14.29
664.775	14.3
664.963	14
665.152	14.01
665.34	14.31
665.528	14.08
665.716	14.03
665.904	13.86
666.092	14.06
666.28	13.82
666.468	13.76
666.656	13.87
666.844	14.14
667.032	14.38
667.22	14.75
667.408	14.61
667.596	14.68
667.784	14.64
667.971	14.7
668.159	14.74
668.347	14.6
668.535	14.79
668.723	14.76
668.911	14.76
669.098	14.77
669.286	14.48
669.474	14.35
669.662	14.26
669.849	14.41
670.037	14.23
670.225	14.25
670.413	14.31
670.6	14.43
670.788	14.38
670.976	14.32
671.163	14.2
671.351	14.16
671.538	14.19
671.726	14.32
671.913	14.38
672.101	14.55
672.289	14.2
672.476	14.06
672.664	13.9
672.851	13.96
673.039	13.93
673.226	13.81
673.413	13.71
673.601	13.92
673.788	13.91
673.976	13.85
674.163	13.79
674.35	13.81
674.538	14.22
674.725	14.04
674.912	14.24
675.1	14.26
675.287	14.54
675.474	14.68
675.662	14.5
675.849	14.44
676.036	14.36
676.223	14.05
676.411	14.35
676.598	14.25
676.785	14.47
676.972	14.36
677.159	14.5
677.346	14.17
677.533	14.31
677.721	14.43
677.908	14.66
678.095	14.68
678.282	14.9
678.469	15.08
678.656	15.21
678.843	15.31
679.03	15.54
679.217	15.44
679.404	15.54
679.591	15.44
679.778	15.48
679.964	15.33
680.151	15.3
680.338	15.59
680.525	15.21
680.712	15.07
680.899	14.92
681.086	14.73
681.272	14.71
681.459	14.77
681.646	14.86
681.833	14.75
682.02	14.55
682.206	14.56
682.393	14.32
682.58	14.46
682.766	14.51
682.953	14.56
683.14	14.4
683.326	14.53
683.513	14.4
683.7	14.38
683.886	14.4
684.073	14.43
684.259	14.4
684.446	14.48
684.632	14.51
684.819	14.49
685.005	14.79
685.192	15.02
685.378	15.05
685.565	14.88
685.751	14.71
685.938	14.4
686.124	14.72
686.31	14.72
686.497	14.54
686.683	14.34
686.87	14.29
687.056	14.12
687.242	13.98
687.429	13.9
687.615	13.98
687.801	14.1
687.987	14.46
688.174	14.33
688.36	14.53
688.546	14.67
688.732	14.81
688.918	14.79
689.105	14.66
689.291	14.73
689.477	14.83
689.663	15.06
689.849	15.21
690.035	15.09
690.221	15.27
690.407	15.12
690.593	14.82
690.779	14.93
690.965	15.18
691.151	15.28
691.337	15.41
691.523	15.32
691.709	15.14
691.895	15.13
692.081	15.27
692.267	14.99
692.453	14.85
692.639	15.09
692.825	15.15
693.011	15.02
693.196	15.04
693.382	14.68
693.568	14.82
693.754	14.94
693.94	14.79
694.125	14.99
694.311	15.19
694.497	15.38
694.682	15.45
694.868	15.15
695.054	15.34
695.239	15.21
695.425	15.32
695.611	14.97
695.796	15.08
695.982	15.26
696.168	15.02
696.353	15.09
696.539	15.16
696.724	15.13
696.91	15.35
697.095	15.23
697.281	15.1
697.466	15.27
697.652	15.29
697.837	15.38
698.023	15.42
698.208	15.47
698.393	15.38
698.579	15.52
698.764	15.44
698.949	15.39
699.135	15.34
699.32	15.28
699.505	15.2
699.691	15.47
699.876	15.1
700.061	15.01
700.246	15.03
700.432	15.04
700.617	15.15
700.802	14.99
700.987	15.02
701.172	14.97
701.358	15.09
701.543	15.14
701.728	14.94
701.913	14.85
702.098	14.44
702.283	14.32
702.468	14.46
702.653	13.72
702.838	14.38
703.023	14.08
703.208	13.98
703.393	14.14
703.578	14.02
703.763	14.22
703.948	14.78
704.133	15.09
704.318	15.37
704.503	15.24
704.688	15.61
704.873	15.39
705.057	15.45
705.242	15.5
705.427	15.48
705.612	15.51
705.797	14.98
705.981	14.56
706.166	14.84
706.351	14.3
706.536	14.37
706.72	14.18
706.905	14.18
707.09	14.46
707.274	14.56
707.459	14.49
707.644	14.56
707.828	15.17
708.013	15.75
708.197	15.61
708.382	15.95
708.567	16.08
708.751	16.33
708.936	16.42
709.12	16.34
709.305	16.11
709.489	16.06
709.673	15.83
709.858	15.68
710.042	15.3
710.227	15.29
710.411	15.32
710.596	15.13
710.78	14.98
710.964	14.75
711.149	14.59
711.333	14.6
711.517	14.54
711.702	14.83
711.886	14.63
712.07	14.85
712.254	14.78
712.438	14.74
712.623	14.67
712.807	14.39
712.991	14.76
713.175	15.06
713.359	15.34
713.544	15.48
713.728	15.48
713.912	15.72
714.096	15.51
714.28	15.53
714.464	15.68
714.648	15.65
714.832	15.96
715.016	15.58
715.2	15.47
715.384	15.34
715.568	15.67
715.752	15.53
715.936	15.34
716.12	15.48
716.304	15.37
716.488	15.1
716.671	15.33
716.855	15.38
717.039	15.34
717.223	15.21
717.407	15.16
717.59	14.95
717.774	14.63
717.958	14.87
718.142	14.72
718.325	14.6
718.509	14.58
718.693	14.36
718.877	13.9
719.06	13.93
719.244	14.27
719.428	14.37
719.611	14.2
719.795	14.87
719.978	14.56
720.162	14.67
720.345	15.09
720.529	15.29
720.713	15.49
720.896	15.69
721.08	15.55
721.263	15.45
721.446	15.56
721.63	15.79
721.813	15.67
721.997	15.64
722.18	15.72
722.364	15.43
722.547	15.81
722.73	16.04
722.914	15.8
723.097	16.06
723.28	16.26
723.464	16.08
723.647	15.86
723.83	15.86
724.013	16.3
724.197	16.63
724.38	16.74
724.563	16.18
724.746	15.95
724.929	16.27
725.112	16.2
725.296	16.1
725.479	16.04
725.662	15.61
725.845	15.26
726.028	14.79
726.211	14.64
726.394	14.95
726.577	15.1
726.76	14.87
726.943	14.64
727.126	14.66
727.309	14.62
727.492	14.99
727.675	15.47
727.858	15.37
728.041	15.84
728.224	15.56
728.407	15.02
728.589	15.16
728.772	15.15
728.955	15.13
729.138	15.39
729.321	15.29
729.503	15.42
729.686	15.62
729.869	16.05
730.052	16.1
730.234	15.85
730.417	15.91
730.6	16.05
730.782	15.93
730.965	16.08
731.148	16.1
731.33	15.82
731.513	15.44
731.695	15.22
731.878	14.66
732.061	14.57
732.243	14.89
732.426	15.12
732.608	14.94
732.791	15.17
732.973	15.2
733.156	15.24
733.338	15.76
733.52	15.67
733.703	15.68
733.885	16.24
734.068	16.44
734.25	16.16
734.432	15.74
734.615	15.73
734.797	15.71
734.979	16.08
735.162	15.75
735.344	15.3
735.526	15.42
735.708	15.48
735.891	15.5
736.073	14.98
736.255	15.47
736.437	15.75
736.619	15.69
736.802	15.57
736.984	15.22
737.166	15.09
737.348	15.14
737.53	14.97
737.712	14.74
737.894	14.04
738.076	13.67
738.258	13.82
738.44	13.98
738.622	13.58
738.804	13.3
738.986	12.92
739.168	13.08
739.35	13.9
739.532	13.81
739.714	14
739.896	14.22
740.078	14.67
740.259	14.1
740.441	14.02
740.623	13.68
740.805	14.67
740.987	14.55
741.168	14.84
741.35	13.92
741.532	14.1
741.714	14.31
741.895	14.92
742.077	14.27
742.259	14.68
742.44	13.5
742.622	14.64
742.804	14.38
742.985	15.55
743.167	15.11
743.348	14.57
743.53	15.08
743.711	14.94
743.893	14.21
744.075	14.83
744.256	14.77
744.438	16.02
744.619	15.37
744.8	14.76
744.982	14.1
745.163	13.86
745.345	14.43
745.526	13.75
745.707	13.73
745.889	14.59
746.07	14.86
746.252	14.94
746.433	14.97
746.614	15.19
746.795	15.87
746.977	16.16
747.158	16.97
747.339	17.25
747.52	17.55
747.702	16.81
747.883	16.4
748.064	15.94
748.245	15.77
748.426	15.53
748.607	15.44
748.788	14.9
748.97	14.72
749.151	13.94
749.332	13.58
749.513	13.81
749.694	14.33
749.875	14.51
750.056	14.8
750.237	14.54
750.418	14.39
750.599	14.77
750.78	14.66
750.96	14.72
751.141	15.44
751.322	16.1
751.503	15.87
751.684	15.66
751.865	15.24
752.046	14.98
752.226	14.93
752.407	15.33
752.588	14.35
752.769	14.61
752.949	14.09
753.13	13.96
753.311	13.64
753.492	13.72
753.672	14.87
753.853	14.59
754.034	14.76
754.214	14.96
754.395	14.91
754.575	15.74
754.756	15.63
754.937	15.83
755.117	15.3
755.298	15.31
755.478	14.59
755.659	13.19
755.839	13.36
756.02	12.7
756.2	12.55
756.381	12.16
756.561	12.08
756.741	12.15
756.922	12.36
757.102	12.51
757.283	12.3
757.463	12.66
757.643	13.04
757.823	13.36
758.004	13.41
758.184	13.31
758.364	13
758.545	12.72
758.725	12.78
758.905	12.91
759.085	13.64
759.265	13.77
759.446	13.99
759.626	14.58
759.806	14.77
759.986	15.14
760.166	15.54
760.346	15.9
760.526	15.69
760.706	15.87
760.886	16.05
761.066	14.83
761.246	14.62
761.426	14.68
761.606	14.74
761.786	14.68
761.966	14.99
762.146	15.11
762.326	14.9
762.506	15.03
762.686	14.63
762.866	14.46
763.046	14.86
763.225	14.92
763.405	15.4
763.585	15.39
763.765	15.22
763.945	15.42
764.124	15.9
764.304	16.3
764.484	16.94
764.664	17.13
764.843	17.89
765.023	18.25
765.203	18.21
765.382	17.53
765.562	17.7
765.741	17.89
765.921	17.69
766.101	17.16
766.28	17.27
766.46	16.3
766.639	16.65
766.819	16.47
766.998	16.13
767.178	16.5
767.357	16.8
767.537	16.44
767.716	16.45
767.896	16.91
768.075	17.11
768.254	16.99
768.434	17.03
768.613	16.55
768.792	15.92
768.972	15.61
769.151	16.25
769.33	16.53
769.51	16.8
769.689	16.5
769.868	15.86
770.047	15.32
770.226	15.08
770.406	15.55
770.585	17.1
770.764	17.03
770.943	16.88
771.122	16.32
771.301	16.49
771.48	15.52
771.66	15.12
771.839	14.76
772.018	14.42
772.197	14.72
772.376	15.02
772.555	13.58
772.734	13.3
772.913	14.19
773.092	13.28
773.271	12.21
773.449	13.15
773.628	14.2
773.807	13.61
773.986	14.17
774.165	15.08
774.344	14.86
774.523	15.45
774.701	15.27
774.88	15.44
775.059	15.24
775.238	15.49
775.417	15.5
775.595	14.94
775.774	15.67
775.953	15.63
776.131	14.51
776.31	14.29
776.489	13.23
776.667	14.34
776.846	14.06
777.025	15.3
777.203	15.22
777.382	14.96
777.56	15.07
777.739	15.25
777.917	15.54
778.096	15.82
778.274	16.46
778.453	16.89
778.631	16.43
778.81	16.31
778.988	16.51
779.166	16.86
779.345	17.3
779.523	17.61
779.702	17.75
779.88	18.24
780.058	18.18
780.237	17.43
780.415	17.27
780.593	17.63
780.771	18.17
780.95	17.91
781.128	17.93
781.306	17.48
781.484	17.9
781.662	18
781.841	17.39
782.019	17.01
782.197	17.2
782.375	17.58
782.553	17.76
782.731	16.92
782.909	17.12
783.087	15.91
783.265	16.86
783.443	16.47
783.621	16.38
783.799	15.2
783.977	15.2
784.155	15.55
784.333	16.19
784.511	15.22
784.689	15.84
784.867	15.74
785.045	17.55
785.223	16.71
785.4	16.07
785.578	16.28
785.756	17.02
785.934	17.3
786.112	18.3
786.289	17.32
786.467	16.89
786.645	16.07
786.823	16.07
787	14.56
787.178	13.7
787.356	14.29
787.533	13.74
787.711	13.39
787.889	13.09
788.066	12.3
788.244	12.96
788.421	13.7
788.599	13.99
788.776	13.39
788.954	14.13
789.131	14.73
789.309	15.22
789.486	16.11
789.664	16.32
789.841	16.92
790.019	16.39
790.196	16.83
790.373	16.44
790.551	16.4
790.728	16.83
790.906	17.28
791.083	17.39
791.26	16.45
791.437	15.87
791.615	16.34
791.792	16.77
791.969	17.22
792.146	15.89
792.324	15.54
792.501	16.35
792.678	16.76
792.855	16.64
793.032	16.08
793.209	16.66
793.387	16.88
793.564	16.45
793.741	15.74
793.918	15.67
794.095	15.99
794.272	16.56
794.449	15.62
794.626	15.29
794.803	15.1
794.98	15.32
795.157	15.34
795.334	14.87
795.511	15.32
795.688	15.38
795.864	14.88
796.041	14.44
796.218	14.9
796.395	15.74
796.572	15.23
796.749	15.34
796.925	15.63
797.102	15.41
797.279	15.47
797.456	14.49
797.632	15.37
797.809	15.39
797.986	15.56
798.162	15.62
798.339	15.09
798.516	15.11
798.692	15.05
798.869	14.02
799.046	14.16
799.222	14.32
799.399	15.26
799.575	14.26
799.752	14.72
799.928	14.72
800.105	14.82
800.281	15.25
800.458	15.52
800.634	15.39
800.811	17.06
800.987	17.13
801.163	17.51
801.34	17.96
801.516	18.21
801.692	17.25
801.869	18.03
802.045	16.9
802.221	16.79
802.398	16.68
802.574	16.23
802.75	15.46
802.926	14.82
803.103	13.34
803.279	12.41
803.455	12.4
803.631	14.65
803.807	15.47
803.983	16.06
804.16	15.36
804.336	14.42
804.512	15.49
804.688	15.82
804.864	15.7
805.04	16.84
805.216	17.34
805.392	16.52
805.568	15.15
805.744	14.52
805.92	15.47
806.096	15.61
806.272	16.8
806.448	16.04
806.623	15.87
806.799	16.01
806.975	15.15
807.151	14.22
807.327	13.27
807.503	13.42
807.678	12.6
807.854	11.32
808.03	11.67
808.206	9.84
808.381	10.48
808.557	11.54
808.733	11.84
808.908	11.97
809.084	13.02
809.26	14.33
809.435	13.93
809.611	14.52
809.787	14.32
809.962	14.14
810.138	14.91
810.313	14.81
810.489	14.18
810.664	13.87
810.84	15.27
811.015	14.68
811.191	15.02
811.366	14.66
811.542	15.54
811.717	16
811.892	17.06
812.068	18.43
812.243	17.68
812.419	17.56
812.594	18.77
812.769	17.85
812.944	18.63
813.12	18.65
813.295	19.84
813.47	18.45
813.645	18.45
813.821	16.27
813.996	16.19
814.171	17.21
814.346	15.98
814.521	15.29
814.697	16.07
814.872	15.88
815.047	16.61
815.222	15.61
815.397	14.59
815.572	14.11
815.747	16.38
815.922	16.29
816.097	14.81
816.272	15.91
816.447	14.57
816.622	14.35
816.797	14.12
816.972	12.41
817.147	14.11
817.322	15.18
817.496	15.14
817.671	13.78
817.846	13.81
818.021	14.08
818.196	14.41
818.371	16.1
818.545	14.83
818.72	14.76
818.895	15.6
819.069	14.57
819.244	14.49
819.419	15.22
819.594	15.93
819.768	16
819.943	16.85
820.117	16.22
820.292	16.18
820.467	16.52
820.641	16.82
820.816	16.5
820.99	17.11
821.165	17.29
821.339	17.57
821.514	17.47
821.688	17.24
821.863	17.26
822.037	17.42
822.212	17.5
822.386	17.48
822.56	17.57
822.735	17.84
822.909	17.6
823.084	17.49
823.258	17.33
823.432	17.45
823.606	17.49
823.781	17.73
823.955	17.48
824.129	17.45
824.303	17.9
824.478	17.88
824.652	17.99
824.826	18.4
825	18.29
825.174	17.97
825.348	17.86
825.523	18.03
825.697	17.86
825.871	18.67
826.045	18.35
826.219	17.75
826.393	17.51
826.567	17.42
826.741	17.19
826.915	17.62
827.089	18.23
827.263	18.33
827.437	18.29
827.611	18.08
827.784	17.74
827.958	18.15
828.132	18.68
828.306	19.04
828.48	18.99
828.654	19.01
828.827	18.48
829.001	17.77
829.175	17.29
829.349	18.02
829.522	17.88
829.696	17.19
829.87	16.35
830.044	15.83
830.217	15.18
830.391	14.98
830.565	13.79
830.738	15.07
830.912	14.94
831.085	14.57
831.259	13.63
831.432	13.31
831.606	13.79
831.779	15.76
831.953	15.22
832.126	16.05
832.3	15.79
832.473	16.2
832.647	16.53
832.82	17.86
832.994	18.06
833.167	17.65
833.34	17.73
833.514	18.31
833.687	17.02
833.86	17.58
834.034	17.32
834.207	17.12
834.38	17.3
834.553	16.67
834.727	16.09
834.9	16.19
835.073	16.63
835.246	16.08
835.419	15.47
835.593	15.46
835.766	15.04
835.939	14.88
836.112	15.86
836.285	15.6
836.458	15.43
836.631	13.67
836.804	13.39
836.977	13.28
837.15	14.03
837.323	14.64
837.496	15.12
837.669	15.35
837.842	15.75
838.015	14.13
838.188	14.32
838.361	16.29
838.533	17.7
838.706	17.63
838.879	18.27
839.052	18.25
839.225	17.36
839.398	17.21
839.57	15.83
839.743	15.16
839.916	15.65
840.088	16.19
840.261	14.32
840.434	14.54
840.607	14.72
840.779	13.72
840.952	14.17
841.124	13.93
841.297	13.8
841.47	15.45
841.642	15.39
841.815	16.06
841.987	16.6
842.16	16.5
842.332	16.7
842.505	13.28
842.677	11.99
842.85	12.19
843.022	14.35
843.194	13.25
843.367	13.05
843.539	11.8
843.712	10.53
843.884	8.05
844.056	7.97
844.229	8.4
844.401	14.63
844.573	16.13
844.745	13.63
844.918	10.86
845.09	10.6
845.262	11.3
845.434	13.29
845.606	13.54
845.779	12.95
845.951	13.46
846.123	11.05
846.295	6.9
846.467	7.83
846.639	7.7
846.811	10.05
846.983	11.15
847.155	8.52
847.327	4.43
847.499	5.52
847.671	7.8
847.843	4.38
848.015	6.73
848.187	6.9
848.359	3.06
848.531	4.63
848.703	-0.01
848.875	-1.89
849.047	-1.27
849.218	3.76
849.39	3.1
849.562	4.29
849.734	4.47
849.905	1.95
850.077	6.97
850.249	6
850.421	8.41
850.592	7.49
850.764	8.41
850.936	8.33
851.107	9.67
851.279	13.01
851.451	12.39
851.622	14.33
851.794	12.39
851.965	12.78
852.137	11.02
852.308	9.04
852.48	9.69
852.651	9.26
852.823	10.53
852.994	10.2
853.166	3.54
853.337	0.44
853.509	0.44
853.68	-0.12
853.851	-3.84
854.023	-0.69
854.194	-4.6
854.365	-2.15
854.537	-0.21
854.708	-1.6
854.879	-5.22
855.05	-3.1
855.222	-4.18
855.393	-1.7
855.564	3.1
855.735	-0.29
855.906	6.21
856.078	11.56
856.249	6.7
856.42	5.2
856.591	6.05
856.762	7.25
856.933	6.58
857.104	11.84
857.275	9.49
857.446	9.17
857.617	8.07
857.788	1.83
857.959	-0.88
858.13	3.19
858.301	7.09
858.472	7.14
858.643	3.82
858.814	4.6
858.985	5.6
859.155	4.02
859.326	4.49
859.497	6.62
859.668	12.27
859.839	13.63
860.009	11.02
860.18	4.75
860.351	5.66
860.522	6.1
860.692	7.83
860.863	6.03
861.034	6.02
861.204	1.07
861.375	5.38
861.546	1.37
861.716	2.09
861.887	3.23
862.057	2.92
862.228	3.9
862.398	6.43
862.569	2.51
862.739	7.56
862.91	10.69
863.08	11.58
863.251	7.92
863.421	15.19
863.592	14.49
863.762	15.33
863.932	16.38
864.103	13.52
864.273	17.4
864.443	21.59
864.614	13.63
864.784	8.59
864.954	12.07
865.125	14.68
865.295	8.19
865.465	8.1
865.635	9.09
865.805	7.82
865.976	11.27
866.146	8.39
866.316	7.62
866.486	8.75
866.656	11.78
866.826	13.62
866.996	12.72
867.166	10.87
867.336	8.62
867.506	5.63
867.676	5.88
867.846	6.73
868.016	4.14
868.186	0.68
868.356	-0.11
868.526	3.06
868.696	-4.37
868.866	-0.69
869.036	-0.01
869.206	0.42
869.376	5.75
869.545	9.17
869.715	5.35
869.885	6.45
870.055	12.59
870.224	18.13
870.394	16.41
870.564	22
870.734	18.99
870.903	20.08
871.073	19.25
871.243	15.98
871.412	15.26
871.582	15.77
871.751	15.4
871.921	10.38
872.091	1.66
872.26	3.59
872.43	3.32
872.599	0.44
872.769	3.47
872.938	7.23
873.108	11.85
873.277	13.18
873.446	14.54
873.616	17.5
873.785	18.57
873.955	23.17
874.124	20.54
874.293	17.17
874.463	17.85
874.632	16.33
874.801	15
874.971	11.44
875.14	10.42
875.309	10.98
875.478	7.52
875.647	7.7
875.817	8.32
875.986	11.05
876.155	17.74
876.324	21.43
876.493	21.83
876.662	18.12
876.831	21.46
877	21.9
877.17	21.97
877.339	19.16
877.508	16.56
877.677	14.49
877.846	12.61
878.015	9.81
878.184	8.55
878.352	9.88
878.521	12.29
878.69	10.2
878.859	9.55
879.028	10.63
879.197	13.8
879.366	13.08
879.534	11.62
879.703	13.63
879.872	16.25
880.041	15.71
880.21	15.06
880.378	16.33
880.547	16.39
880.716	16.73
880.884	17.12
881.053	17.92
881.222	18.29
881.39	18.58
881.559	18.3
881.727	17.4
881.896	17.49
882.065	18.35
882.233	17.93
882.402	17.63
882.57	17.94
882.739	17.18
882.907	17.04
883.076	17.3
883.244	17.29
883.412	17.21
883.581	17.23
883.749	18.2
883.918	17.48
884.086	17.43
884.254	17.62
884.423	16.9
884.591	17.23
884.759	16.48
884.927	16.57
885.096	17.66
885.264	17.77
885.432	16.63
885.6	14.48
885.769	13.4
885.937	13.51
886.105	12.98
886.273	15.24
886.441	14.11
886.609	14.9
886.777	14.92
886.945	13.14
887.113	10.81
887.281	12.96
887.449	12.87
887.617	10.77
887.785	9.58
887.953	8.08
888.121	5.74
888.289	3.96
888.457	-0.53
888.625	-2.94
888.793	-4.65
888.961	-1.17
889.129	-5.2
889.296	-0.88
889.464	2.63
889.632	2.34
889.8	3.86
889.967	-2.92
890.135	2.41
