Data from 2938483_Reflection_3.txt Node
Date: Wed Jun 17 01:04:50 EDT 2015
User: robert
Spectrometer: USB4E03002
Autoset integration time: false
Trigger mode: 4
Integration Time (sec): 1.000000E-1
Scans to average: 10
Electric dark correction enabled: true
Nonlinearity correction enabled: false
Boxcar width: 5
Stray light correction enabled: false
XAxis mode: Wavelengths
Stop averaging: false
Number of Pixels in Spectrum: 3648
>>>>>Begin Spectral Data<<<<<
177.575	200.63
177.794	156.03
178.014	107
178.233	136.71
178.452	230.55
178.672	162.57
178.891	15.58
179.11	390.71
179.33	1246.68
179.549	1987.69
179.768	-425.4
179.987	-481.37
180.207	11390.77
180.426	595.75
180.645	2001.68
180.864	-144.05
181.084	-214.96
181.303	-157.66
181.522	-995.8
181.741	120.91
181.96	62.16
182.179	2.85
182.398	96.72
182.618	144.72
182.837	55.54
183.056	-9.57
183.275	6.4
183.494	-42.7
183.713	-55.38
183.932	-33.44
184.151	39.65
184.37	28.37
184.589	-191.92
184.808	68.1
185.027	200.56
185.246	69.59
185.465	-7.63
185.684	-15.29
185.903	38.94
186.122	-35.51
186.341	105.73
186.56	44.01
186.779	379.17
186.998	211.17
187.216	242.49
187.435	231.17
187.654	243.17
187.873	727.28
188.092	446.93
188.311	900.9
188.53	476.22
188.748	1162.41
188.967	4295.1
189.186	2097.01
189.405	191.29
189.623	93.91
189.842	114.63
190.061	218.98
190.28	201.18
190.498	-250.51
190.717	-212.29
190.936	7.07
191.154	23.46
191.373	-8.17
191.592	-33.8
191.81	-67.48
192.029	-130.8
192.248	-260.05
192.466	-155.11
192.685	20.31
192.904	-39.88
193.122	12.1
193.341	226.39
193.559	140.12
193.778	48.99
193.996	110.09
194.215	68.99
194.433	148.83
194.652	63.55
194.87	34.32
195.089	-51.98
195.307	-40.89
195.526	-58.94
195.744	34.2
195.963	-98.02
196.181	-124.94
196.399	139.45
196.618	-147.19
196.836	-76.86
197.055	-45.26
197.273	-53.04
197.491	1396.83
197.71	-87.25
197.928	-179.71
198.146	-256.15
198.365	-122.25
198.583	67.05
198.801	-7.16
199.019	-68.09
199.238	-294.08
199.456	48.02
199.674	97.84
199.892	129.4
200.111	183.06
200.329	99.42
200.547	103.06
200.765	64.91
200.983	-16.96
201.202	-18.7
201.42	4.74
201.638	0.14
201.856	-11.92
202.074	-38.25
202.292	-123.56
202.51	-248.37
202.728	404.04
202.946	-1317.58
203.165	36.63
203.383	86.24
203.601	139.87
203.819	116.29
204.037	110.56
204.255	63.96
204.473	30.77
204.691	42.85
204.909	37.61
205.127	29.96
205.345	-12.07
205.562	-306.66
205.78	-101.46
205.998	-121.73
206.216	-463.41
206.434	-699.09
206.652	-166.18
206.87	-99.42
207.088	-1260.18
207.306	-1163.31
207.523	379.91
207.741	630.47
207.959	619.03
208.177	434.1
208.395	973.88
208.612	498.31
208.83	-1170.85
209.048	435.53
209.266	434.83
209.483	-190.82
209.701	-95.76
209.919	13.8
210.136	15.78
210.354	54.62
210.572	72.65
210.79	170.81
211.007	207.42
211.225	126.7
211.442	57.69
211.66	98.96
211.878	69.23
212.095	-960.1
212.313	-2743.01
212.53	3884.13
212.748	-917.52
212.966	-784.86
213.183	-392.41
213.401	-159.86
213.618	-199.82
213.836	-129.72
214.053	-160.68
214.271	-461.76
214.488	74.22
214.705	45.36
214.923	28.46
215.14	14.64
215.358	1.74
215.575	4.91
215.793	5.59
216.01	7.74
216.227	10.95
216.445	18.07
216.662	28.67
216.879	29.08
217.097	12.36
217.314	22.24
217.531	11.46
217.749	9.26
217.966	12.07
218.183	20.03
218.4	10.13
218.618	17.99
218.835	20.01
219.052	7.01
219.269	-8.52
219.487	1.12
219.704	2.77
219.921	-12.77
220.138	-0.98
220.355	2.53
220.572	4.33
220.79	2.4
221.007	0.34
221.224	1.09
221.441	12.74
221.658	19.65
221.875	17.73
222.092	15.06
222.309	24.64
222.526	22.47
222.743	22.01
222.96	15.31
223.177	13.2
223.394	13.53
223.611	13.81
223.828	12.38
224.045	7.95
224.262	13.9
224.479	18.12
224.696	18.49
224.913	19.13
225.13	15.4
225.347	15.9
225.564	18.09
225.781	19.72
225.997	18.32
226.214	15.02
226.431	13.34
226.648	12.96
226.865	12.74
227.082	13.1
227.298	14.2
227.515	16.29
227.732	16.61
227.949	15.94
228.165	14.79
228.382	14.35
228.599	15.28
228.816	16.33
229.032	16.17
229.249	14.15
229.466	14.76
229.682	12.7
229.899	10.92
230.116	11.23
230.332	9.3
230.549	5.57
230.765	5.45
230.982	3.89
231.199	7.15
231.415	5.86
231.632	6.93
231.848	5.32
232.065	7.55
232.281	8.12
232.498	8.98
232.714	9.31
232.931	11.16
233.147	8.54
233.364	10.61
233.58	8.65
233.797	9.13
234.013	9.76
234.23	9.63
234.446	8.99
234.662	10.51
234.879	7.41
235.095	9.5
235.312	9.29
235.528	9.68
235.744	7.59
235.961	7.33
236.177	6.63
236.393	6.51
236.61	4.91
236.826	4.24
237.042	3.62
237.258	5.4
237.475	7
237.691	6.71
237.907	8.49
238.123	8.53
238.339	8.57
238.556	8.76
238.772	9.78
238.988	10.74
239.204	11.23
239.42	11.21
239.636	10.61
239.853	9.91
240.069	10.3
240.285	10.65
240.501	11.22
240.717	11.57
240.933	11.8
241.149	11.62
241.365	11.04
241.581	10.71
241.797	9.34
242.013	9.39
242.229	9.09
242.445	9.65
242.661	9.35
242.877	10.18
243.093	9.64
243.309	9.6
243.525	9.35
243.741	10.21
243.957	10.23
244.173	10.76
244.388	10.94
244.604	11.2
244.82	11.27
245.036	11.03
245.252	10.63
245.468	10.56
245.683	10.59
245.899	10.38
246.115	10.27
246.331	10.41
246.547	11.04
246.762	11.02
246.978	11.09
247.194	10.85
247.409	10.81
247.625	10.42
247.841	10.4
248.057	9.65
248.272	9.27
248.488	9.11
248.703	8.89
248.919	7.57
249.135	7.07
249.35	6.83
249.566	5.73
249.782	5.95
249.997	6.28
250.213	6.4
250.428	6.92
250.644	7.31
250.859	8.17
251.075	8.03
251.29	8.01
251.506	8.29
251.721	7.67
251.937	8.6
252.152	7.59
252.368	7.81
252.583	8
252.798	7.97
253.014	7.76
253.229	6.52
253.445	6.85
253.66	7.33
253.875	7.76
254.091	8.5
254.306	7.96
254.521	10.26
254.737	10.34
254.952	9.5
255.167	9.8
255.383	10.54
255.598	11.58
255.813	10.86
256.028	10.72
256.244	10.16
256.459	9.39
256.674	9.57
256.889	8.92
257.104	8.58
257.32	8.9
257.535	8.64
257.75	8.6
257.965	7.95
258.18	8.01
258.395	7.77
258.61	7.88
258.826	7.91
259.041	7.65
259.256	7.57
259.471	7.44
259.686	7.06
259.901	7.1
260.116	6.59
260.331	6.29
260.546	6.23
260.761	5.96
260.976	5.33
261.191	4.77
261.406	5.52
261.621	5.57
261.836	5.15
262.05	5.66
262.265	5.75
262.48	5.55
262.695	6.52
262.91	6.51
263.125	7.13
263.34	7.5
263.555	8.09
263.769	7.26
263.984	6.8
264.199	7.14
264.414	6.88
264.629	6.4
264.843	6.56
265.058	6.14
265.273	5.95
265.488	5.79
265.702	5.9
265.917	6
266.132	6.01
266.346	6.4
266.561	6.55
266.776	6.48
266.99	6.93
267.205	6.48
267.42	6.47
267.634	6.27
267.849	6.36
268.063	6.49
268.278	6.65
268.492	6.32
268.707	6.17
268.922	6.23
269.136	6.17
269.351	6.22
269.565	6.92
269.78	6.76
269.994	7.29
270.209	7.11
270.423	6.23
270.637	6.45
270.852	6.6
271.066	6.65
271.281	6.65
271.495	6.36
271.709	6.26
271.924	6.32
272.138	6.42
272.353	6.14
272.567	6.15
272.781	6.97
272.996	6.68
273.21	6.93
273.424	6.45
273.638	6.27
273.853	6.55
274.067	6.24
274.281	6.07
274.495	6.25
274.71	6.44
274.924	6.37
275.138	6.38
275.352	6.09
275.566	5.84
275.781	6.13
275.995	5.97
276.209	6.37
276.423	6.09
276.637	6.03
276.851	6.3
277.065	5.99
277.279	6.14
277.493	5.95
277.707	6.32
277.921	6.31
278.135	6.77
278.349	6.66
278.563	6.49
278.777	6.76
278.991	6.6
279.205	5.94
279.419	5.96
279.633	5.89
279.847	5.51
280.061	6.19
280.275	6.58
280.489	6.69
280.703	7.05
280.917	6.64
281.131	6.79
281.344	7.49
281.558	7.74
281.772	7.78
281.986	7.92
282.2	7.96
282.414	7.3
282.627	6.68
282.841	6.51
283.055	6.38
283.269	6.39
283.482	6.01
283.696	5.29
283.91	5.25
284.123	5.23
284.337	5.15
284.551	5.48
284.764	4.97
284.978	5.19
285.192	4.79
285.405	4.47
285.619	4.84
285.833	5.22
286.046	5.61
286.26	5.35
286.473	5.56
286.687	5.13
286.9	5.32
287.114	5.74
287.327	5.81
287.541	5.97
287.754	5.72
287.968	6.2
288.181	5.91
288.395	5.97
288.608	6.24
288.822	6.28
289.035	6.93
289.248	6.62
289.462	6.77
289.675	6.46
289.889	6.72
290.102	7.45
290.315	7.31
290.529	7.63
290.742	7.48
290.955	7.56
291.169	7.35
291.382	6.94
291.595	6.8
291.808	6.58
292.022	6.64
292.235	7.09
292.448	6.59
292.661	6.34
292.875	6.38
293.088	6.56
293.301	6.62
293.514	6.61
293.727	7.1
293.94	7.14
294.153	7.26
294.367	7.6
294.58	6.99
294.793	7.36
295.006	7.39
295.219	7.35
295.432	7.5
295.645	7.4
295.858	7.36
296.071	7.04
296.284	7
296.497	6.92
296.71	6.99
296.923	7.31
297.136	7.18
297.349	7.25
297.562	6.95
297.775	6.46
297.988	6.58
298.201	6.62
298.414	6.48
298.626	6.59
298.839	6.36
299.052	5.95
299.265	5.67
299.478	5.85
299.691	5.99
299.903	6.22
300.116	6.6
300.329	6.71
300.542	6.88
300.755	7.11
300.967	7.34
301.18	8.16
301.393	8.41
301.605	8.71
301.818	8.33
302.031	7.95
302.243	8.02
302.456	7.66
302.669	7.55
302.881	7.63
303.094	7.91
303.307	7.66
303.519	7.1
303.732	7.07
303.944	6.52
304.157	6.49
304.37	6.69
304.582	6.73
304.795	6.79
305.007	6.4
305.22	6.07
305.432	5.89
305.645	5.77
305.857	5.67
306.069	4.95
306.282	5.91
306.494	6.61
306.707	6.29
306.919	6.03
307.132	6.08
307.344	6.4
307.556	6.77
307.769	6.55
307.981	6.45
308.193	6.78
308.406	7.25
308.618	6.53
308.83	6.3
309.043	6.71
309.255	7.14
309.467	7.3
309.679	7.33
309.892	7
310.104	6.77
310.316	7.33
310.528	7.65
310.74	7.87
310.953	8.08
311.165	8.14
311.377	7.88
311.589	7.18
311.801	7.24
312.013	7.48
312.225	7.68
312.437	7.85
312.649	7.61
312.862	7.37
313.074	7.4
313.286	7.19
313.498	7.32
313.71	6.96
313.922	7.29
314.134	6.91
314.346	6.58
314.558	6.26
314.77	6.37
314.982	6.26
315.193	6.47
315.405	6.09
315.617	6.15
315.829	5.5
316.041	6.02
316.253	5.8
316.465	6.38
316.677	6.5
316.888	6.43
317.1	6.99
317.312	7.14
317.524	6.41
317.736	7.12
317.947	6.84
318.159	7.36
318.371	6.83
318.583	6.99
318.794	6.37
319.006	6.21
319.218	6.56
319.43	6.39
319.641	6.37
319.853	6.92
320.064	6.04
320.276	6.95
320.488	6.76
320.699	6.84
320.911	7.15
321.123	7.96
321.334	8.16
321.546	8.36
321.757	8.14
321.969	8.15
322.18	7.36
322.392	7.68
322.603	7.25
322.815	7.43
323.026	8.04
323.238	8.03
323.449	7.45
323.661	7.61
323.872	7.11
324.083	7.46
324.295	7.39
324.506	8.14
324.718	8.16
324.929	8.33
325.14	8.03
325.352	7.6
325.563	7.89
325.774	8.07
325.986	7.71
326.197	8.62
326.408	8.43
326.62	8.66
326.831	8.4
327.042	8.51
327.253	8.72
327.464	8.85
327.676	8.65
327.887	8.37
328.098	8.42
328.309	8.59
328.52	7.82
328.732	7.82
328.943	8.35
329.154	8.2
329.365	7.87
329.576	7.57
329.787	7.81
329.998	8.31
330.209	8.28
330.42	8.01
330.631	8.18
330.842	8.74
331.053	8.33
331.264	7.81
331.475	7.96
331.686	8.13
331.897	7.98
332.108	7.89
332.319	7.79
332.53	8.26
332.741	8.39
332.952	7.81
333.163	7.41
333.374	7.72
333.585	7.53
333.795	7.3
334.006	7.34
334.217	7.18
334.428	7.45
334.639	7.41
334.849	6.93
335.06	7.2
335.271	7.81
335.482	7.92
335.692	8.03
335.903	8.12
336.114	7.96
336.325	8.06
336.535	8.24
336.746	8.12
336.957	8.25
337.167	8.43
337.378	8.25
337.589	7.82
337.799	7.76
338.01	7.88
338.22	7.6
338.431	8.31
338.642	8.01
338.852	8.02
339.063	8.03
339.273	8.35
339.484	8.28
339.694	8.1
339.905	8.48
340.115	7.74
340.326	7.42
340.536	7.58
340.746	6.95
340.957	7.16
341.167	7.38
341.378	7.06
341.588	6.66
341.799	6.44
342.009	6.81
342.219	6.57
342.43	6.93
342.64	6.79
342.85	6.75
343.061	7.07
343.271	6.65
343.481	6.89
343.691	7.08
343.902	7.02
344.112	7.39
344.322	7.17
344.532	7.36
344.743	7.63
344.953	7.8
345.163	7.91
345.373	7.7
345.583	7.73
345.793	8.18
346.004	8.06
346.214	8.37
346.424	7.91
346.634	7.97
346.844	7.81
347.054	8.17
347.264	8.6
347.474	8.36
347.684	8.83
347.894	9.23
348.104	8.19
348.314	8.37
348.524	8.2
348.734	9.01
348.944	8.61
349.154	8.54
349.364	8.13
349.574	7.83
349.784	7.76
349.994	7.6
350.204	7.73
350.413	8.1
350.623	8.05
350.833	8
351.043	7.42
351.253	7.87
351.463	7.56
351.672	7.46
351.882	7.14
352.092	7.35
352.302	7.26
352.511	7.4
352.721	7.27
352.931	7.37
353.141	7.56
353.35	7.9
353.56	8.17
353.77	8.83
353.979	8.81
354.189	8.98
354.399	9.03
354.608	8.86
354.818	8.74
355.027	8.46
355.237	8.21
355.447	8.02
355.656	7.75
355.866	7.32
356.075	6.92
356.285	7.14
356.494	7.1
356.704	7.06
356.913	6.98
357.123	6.97
357.332	7.29
357.542	7.24
357.751	7.28
357.96	7.2
358.17	6.94
358.379	7.04
358.589	7.13
358.798	7.19
359.007	7.17
359.217	7.49
359.426	7.35
359.635	7.15
359.845	7.49
360.054	7.16
360.263	7.17
360.472	7.53
360.682	7.32
360.891	7.16
361.1	7.19
361.309	7.11
361.519	6.78
361.728	6.81
361.937	6.93
362.146	6.51
362.355	6.59
362.564	6.77
362.774	6.76
362.983	7.1
363.192	7.09
363.401	6.88
363.61	7.12
363.819	7.26
364.028	7.28
364.237	7.41
364.446	7.58
364.655	7.67
364.864	7.3
365.073	7.43
365.282	7.24
365.491	7.14
365.7	7.25
365.909	7.02
366.118	6.86
366.327	6.63
366.536	6.47
366.745	6.61
366.954	6.66
367.162	6.84
367.371	6.52
367.58	6.3
367.789	6.15
367.998	6.22
368.207	6.28
368.415	6.41
368.624	6.49
368.833	6.25
369.042	6.11
369.25	5.89
369.459	5.65
369.668	5.58
369.877	5.91
370.085	6
370.294	5.93
370.503	5.81
370.711	5.92
370.92	5.8
371.129	5.78
371.337	5.58
371.546	6.08
371.754	6.24
371.963	6.4
372.171	6.55
372.38	6.97
372.589	7.02
372.797	7.13
373.006	7.03
373.214	7.17
373.423	7.16
373.631	7.39
373.84	7.06
374.048	6.98
374.256	6.72
374.465	6.41
374.673	5.95
374.882	6.03
375.09	5.92
375.298	6.01
375.507	6.07
375.715	6.17
375.923	6.14
376.132	6.11
376.34	6.4
376.548	6.68
376.757	6.8
376.965	6.93
377.173	6.92
377.381	7.19
377.59	7.07
377.798	6.89
378.006	7
378.214	6.79
378.423	7.03
378.631	6.8
378.839	6.49
379.047	6.36
379.255	6.33
379.463	6.17
379.671	5.93
379.879	5.94
380.088	5.98
380.296	5.79
380.504	5.86
380.712	5.73
380.92	5.6
381.128	5.85
381.336	5.7
381.544	5.64
381.752	5.65
381.96	5.62
382.168	5.72
382.376	5.64
382.584	5.75
382.791	5.94
382.999	5.82
383.207	5.77
383.415	5.81
383.623	5.87
383.831	5.84
384.039	5.84
384.247	5.78
384.454	5.72
384.662	5.68
384.87	5.72
385.078	5.37
385.285	5.42
385.493	5.6
385.701	5.42
385.909	5.66
386.116	5.67
386.324	5.59
386.532	5.65
386.739	5.76
386.947	5.97
387.155	5.87
387.362	5.98
387.57	6.09
387.778	5.95
387.985	6.23
388.193	6.06
388.4	6.11
388.608	6.04
388.816	6
389.023	5.88
389.231	6
389.438	6.01
389.646	6.02
389.853	5.99
390.061	6.05
390.268	5.88
390.475	5.85
390.683	5.78
390.89	5.76
391.098	5.71
391.305	5.6
391.512	5.45
391.72	5.57
391.927	5.65
392.135	5.42
392.342	5.24
392.549	5.06
392.756	5.05
392.964	5.12
393.171	5.31
393.378	5.51
393.586	5.45
393.793	5.28
394	5.21
394.207	5.2
394.414	5.33
394.622	5.45
394.829	5.4
395.036	5.33
395.243	5.3
395.45	5.24
395.657	5.22
395.864	5.48
396.072	5.63
396.279	5.57
396.486	5.31
396.693	5.21
396.9	5.28
397.107	5.4
397.314	5.25
397.521	5.25
397.728	5.27
397.935	5.11
398.142	5.09
398.349	5.07
398.556	5.1
398.763	5.27
398.97	5.39
399.177	5.35
399.383	5.4
399.59	5.6
399.797	5.57
400.004	5.4
400.211	5.33
400.418	5.34
400.625	5.02
400.831	4.97
401.038	4.9
401.245	4.65
401.452	4.61
401.658	4.53
401.865	4.48
402.072	4.52
402.279	4.67
402.485	4.71
402.692	4.73
402.899	5.04
403.105	4.88
403.312	4.83
403.519	5.1
403.725	5.09
403.932	4.96
404.138	4.93
404.345	4.95
404.552	4.76
404.758	4.56
404.965	4.33
405.171	4.29
405.378	4.45
405.584	4.54
405.791	4.36
405.997	4.35
406.204	4.53
406.41	4.58
406.617	4.47
406.823	4.58
407.029	4.85
407.236	4.99
407.442	4.91
407.649	4.85
407.855	4.72
408.061	4.68
408.268	4.66
408.474	4.76
408.68	4.8
408.887	4.82
409.093	4.66
409.299	4.82
409.505	4.73
409.712	4.7
409.918	4.76
410.124	4.9
410.33	5.02
410.537	5.12
410.743	4.97
410.949	4.89
411.155	4.92
411.361	5.1
411.567	4.88
411.773	4.99
411.98	4.95
412.186	4.93
412.392	5.02
412.598	5.1
412.804	5
413.01	5
413.216	5.09
413.422	5.02
413.628	5.08
413.834	5.12
414.04	5.2
414.246	5.19
414.452	5.2
414.658	5
414.864	4.96
415.07	4.89
415.275	4.9
415.481	4.89
415.687	4.83
415.893	4.6
416.099	4.54
416.305	4.45
416.511	4.42
416.716	4.38
416.922	4.29
417.128	4.28
417.334	4.4
417.539	4.3
417.745	4.25
417.951	4.22
418.157	4.29
418.362	4.26
418.568	4.18
418.774	4.19
418.979	4.27
419.185	4.37
419.391	4.32
419.596	4.25
419.802	4.23
420.008	4.28
420.213	4.93
420.419	4.98
420.624	5.02
420.83	5.02
421.035	5.02
421.241	4.96
421.446	4.89
421.652	4.91
421.857	4.86
422.063	4.91
422.268	4.79
422.474	4.2
422.679	4.2
422.885	4.18
423.09	4.18
423.295	4.23
423.501	4.18
423.706	4.25
423.911	4.2
424.117	4.2
424.322	4.21
424.527	4.3
424.733	4.21
424.938	4.1
425.143	4.07
425.349	4.12
425.554	4.06
425.759	4.01
425.964	3.94
426.169	3.96
426.375	3.96
426.58	3.99
426.785	4.04
426.99	4.05
427.195	4.06
427.4	3.95
427.605	4
427.811	3.86
428.016	3.85
428.221	3.82
428.426	3.85
428.631	3.79
428.836	3.6
429.041	3.53
429.246	3.57
429.451	3.61
429.656	3.6
429.861	3.53
430.066	3.65
430.271	3.78
430.476	3.76
430.681	3.64
430.886	3.7
431.09	3.71
431.295	3.68
431.5	3.76
431.705	3.75
431.91	3.88
432.115	3.84
432.32	3.87
432.524	3.77
432.729	3.79
432.934	3.9
433.139	3.93
433.343	4.05
433.548	4.08
433.753	4.01
433.958	4.07
434.162	4.1
434.367	4.08
434.572	4.05
434.776	4.01
434.981	3.96
435.186	3.88
435.39	3.78
435.595	3.63
435.799	3.62
436.004	3.66
436.209	3.66
436.413	3.59
436.618	3.64
436.822	3.63
437.027	3.72
437.231	3.74
437.436	3.75
437.64	3.86
437.845	3.97
438.049	3.98
438.253	3.95
438.458	3.9
438.662	3.92
438.867	3.87
439.071	3.94
439.275	3.93
439.48	3.97
439.684	4.02
439.888	3.94
440.093	3.95
440.297	3.88
440.501	3.84
440.706	3.85
440.91	3.88
441.114	3.93
441.318	3.85
441.523	3.85
441.727	3.88
441.931	3.82
442.135	3.8
442.339	3.73
442.543	3.69
442.748	3.67
442.952	3.67
443.156	3.65
443.36	3.61
443.564	3.51
443.768	3.45
443.972	3.4
444.176	3.41
444.38	3.46
444.584	3.5
444.788	3.61
444.992	3.63
445.196	3.63
445.4	3.64
445.604	3.64
445.808	3.75
446.012	3.84
446.216	3.81
446.42	3.78
446.624	3.77
446.828	3.77
447.032	3.68
447.235	3.7
447.439	3.68
447.643	3.65
447.847	3.7
448.051	3.72
448.254	3.66
448.458	3.65
448.662	3.72
448.866	3.66
449.069	3.66
449.273	3.77
449.477	3.84
449.681	3.81
449.884	3.73
450.088	3.76
450.292	3.7
450.495	3.8
450.699	3.79
450.902	3.74
451.106	3.75
451.31	3.7
451.513	3.67
451.717	3.67
451.92	3.68
452.124	3.71
452.327	3.56
452.531	3.48
452.734	3.34
452.938	3.41
453.141	3.39
453.345	3.48
453.548	3.59
453.752	3.62
453.955	3.6
454.158	3.64
454.362	3.66
454.565	3.78
454.769	3.79
454.972	3.79
455.175	3.88
455.379	3.88
455.582	3.8
455.785	3.75
455.988	3.67
456.192	3.66
456.395	3.65
456.598	3.6
456.801	3.59
457.005	3.58
457.208	3.61
457.411	3.55
457.614	3.56
457.817	3.56
458.021	3.53
458.224	3.52
458.427	3.45
458.63	3.45
458.833	3.44
459.036	3.43
459.239	3.49
459.442	3.47
459.645	3.51
459.848	3.53
460.051	3.55
460.254	3.57
460.457	3.57
460.66	3.59
460.863	3.52
461.066	3.45
461.269	3.47
461.472	3.36
461.675	3.43
461.878	3.36
462.081	3.27
462.284	3.25
462.486	3.28
462.689	3.44
462.892	3.48
463.095	3.49
463.298	3.64
463.5	3.63
463.703	3.72
463.906	3.58
464.109	3.59
464.311	3.6
464.514	3.66
464.717	3.65
464.92	3.51
465.122	3.5
465.325	3.56
465.528	3.55
465.73	3.53
465.933	3.58
466.135	3.62
466.338	3.66
466.541	3.68
466.743	3.61
466.946	3.62
467.148	3.68
467.351	3.69
467.553	3.65
467.756	3.65
467.958	3.58
468.161	3.59
468.363	3.62
468.566	3.57
468.768	3.57
468.971	3.58
469.173	3.55
469.375	3.58
469.578	3.39
469.78	3.35
469.983	3.49
470.185	3.57
470.387	3.54
470.59	3.54
470.792	3.46
470.994	3.47
471.196	3.6
471.399	3.65
471.601	3.64
471.803	3.79
472.005	3.83
472.208	3.77
472.41	3.75
472.612	3.75
472.814	3.78
473.016	3.79
473.218	3.8
473.421	3.73
473.623	3.81
473.825	3.73
474.027	3.77
474.229	3.78
474.431	3.83
474.633	3.79
474.835	3.79
475.037	3.76
475.239	3.8
475.441	3.75
475.643	3.76
475.845	3.65
476.047	3.71
476.249	3.7
476.451	3.69
476.653	3.61
476.855	3.69
477.057	3.62
477.258	3.67
477.46	3.72
477.662	3.75
477.864	3.6
478.066	3.64
478.268	3.59
478.469	3.58
478.671	3.62
478.873	3.67
479.075	3.64
479.276	3.7
479.478	3.63
479.68	3.62
479.882	3.58
480.083	3.63
480.285	3.63
480.487	3.61
480.688	3.6
480.89	3.62
481.091	3.56
481.293	3.53
481.495	3.53
481.696	3.54
481.898	3.55
482.099	3.57
482.301	3.6
482.502	3.59
482.704	3.63
482.905	3.65
483.107	3.63
483.308	3.65
483.51	3.7
483.711	3.71
483.913	3.73
484.114	3.72
484.315	3.76
484.517	3.75
484.718	3.74
484.92	3.74
485.121	3.72
485.322	3.74
485.524	3.72
485.725	3.65
485.926	3.61
486.127	3.6
486.329	3.62
486.53	3.6
486.731	3.6
486.932	3.64
487.134	3.61
487.335	3.62
487.536	3.61
487.737	3.63
487.938	3.68
488.139	3.66
488.341	3.69
488.542	3.67
488.743	3.67
488.944	3.7
489.145	3.68
489.346	3.66
489.547	3.63
489.748	3.63
489.949	3.68
490.15	3.69
490.351	3.76
490.552	3.77
490.753	3.79
490.954	3.76
491.155	3.78
491.356	3.81
491.557	3.88
491.758	3.92
491.959	3.99
492.159	3.98
492.36	3.99
492.561	3.98
492.762	3.97
492.963	3.97
493.164	4.04
493.364	4.08
493.565	4.09
493.766	4.06
493.967	4.05
494.167	3.97
494.368	4.03
494.569	3.92
494.769	3.88
494.97	3.89
495.171	3.89
495.371	3.9
495.572	3.85
495.773	3.82
495.973	3.81
496.174	3.82
496.375	3.81
496.575	3.84
496.776	3.98
496.976	3.99
497.177	4.02
497.377	4.07
497.578	4.04
497.778	4.03
497.979	4.1
498.179	4.15
498.38	4.18
498.58	4.2
498.78	4.09
498.981	4.1
499.181	4.15
499.382	4.12
499.582	4.16
499.782	4.17
499.983	4.21
500.183	4.13
500.383	4.13
500.584	4.09
500.784	4.12
500.984	4.16
501.184	4.1
501.385	4.11
501.585	4.19
501.785	4.18
501.985	4.21
502.185	4.09
502.386	4.19
502.586	4.23
502.786	4.36
502.986	4.34
503.186	4.35
503.386	4.46
503.586	4.5
503.786	4.49
503.987	4.45
504.187	4.51
504.387	4.66
504.587	4.62
504.787	4.68
504.987	4.61
505.187	4.6
505.387	4.63
505.587	4.61
505.786	4.5
505.986	4.54
506.186	4.52
506.386	4.48
506.586	4.45
506.786	4.44
506.986	4.37
507.186	4.37
507.386	4.44
507.585	4.5
507.785	4.46
507.985	4.6
508.185	4.6
508.384	4.71
508.584	4.67
508.784	4.67
508.984	4.71
509.183	4.74
509.383	4.85
509.583	4.91
509.782	4.87
509.982	4.95
510.182	4.92
510.381	4.89
510.581	4.8
510.781	4.92
510.98	5.01
511.18	4.99
511.379	4.99
511.579	4.89
511.778	4.9
511.978	4.95
512.177	4.99
512.377	5
512.576	5.05
512.776	5.18
512.975	5.17
513.175	5.13
513.374	5.13
513.573	5.12
513.773	5.12
513.972	5.11
514.172	5.14
514.371	5.17
514.57	5.18
514.77	5.17
514.969	5.15
515.168	5.11
515.367	5.17
515.567	5.27
515.766	5.28
515.965	5.28
516.164	5.27
516.364	5.19
516.563	5.2
516.762	5.2
516.961	5.24
517.16	5.24
517.359	5.31
517.559	5.32
517.758	5.34
517.957	5.42
518.156	5.51
518.355	5.55
518.554	5.64
518.753	5.66
518.952	5.73
519.151	5.76
519.35	5.84
519.549	5.89
519.748	5.91
519.947	5.93
520.146	5.9
520.345	5.94
520.544	6.05
520.743	6.06
520.942	6.04
521.141	6
521.339	6.07
521.538	6.05
521.737	6.12
521.936	6.11
522.135	6.08
522.333	6.16
522.532	6.13
522.731	6.06
522.93	6.13
523.129	6.18
523.327	6.15
523.526	6.17
523.725	6.14
523.923	6.05
524.122	6.11
524.321	6.13
524.519	6.1
524.718	6.07
524.917	6.07
525.115	6.07
525.314	6.06
525.512	6.12
525.711	6.07
525.909	6.09
526.108	6.11
526.306	6.09
526.505	6.09
526.703	6.1
526.902	6.14
527.1	6.14
527.299	6.15
527.497	6.19
527.696	6.21
527.894	6.28
528.092	6.3
528.291	6.35
528.489	6.43
528.688	6.52
528.886	6.64
529.084	6.71
529.283	6.8
529.481	6.85
529.679	6.89
529.877	6.92
530.076	6.96
530.274	6.99
530.472	6.96
530.67	6.91
530.869	6.87
531.067	6.81
531.265	6.79
531.463	6.79
531.661	6.78
531.859	6.75
532.057	6.73
532.255	6.73
532.454	6.81
532.652	6.9
532.85	6.96
533.048	6.98
533.246	7.03
533.444	7.11
533.642	7.18
533.84	7.22
534.038	7.28
534.236	7.36
534.434	7.38
534.632	7.33
534.83	7.28
535.027	7.26
535.225	7.27
535.423	7.26
535.621	7.22
535.819	7.17
536.017	7.2
536.215	7.25
536.412	7.26
536.61	7.3
536.808	7.41
537.006	7.5
537.203	7.48
537.401	7.51
537.599	7.52
537.797	7.58
537.994	7.62
538.192	7.66
538.39	7.64
538.587	7.67
538.785	7.59
538.983	7.53
539.18	7.46
539.378	7.45
539.575	7.51
539.773	7.57
539.97	7.55
540.168	7.57
540.366	7.58
540.563	7.59
540.761	7.66
540.958	7.74
541.155	7.8
541.353	7.92
541.55	7.99
541.748	8.08
541.945	8.1
542.143	8.15
542.34	8.24
542.537	8.27
542.735	8.31
542.932	8.27
543.129	8.38
543.327	8.39
543.524	8.33
543.721	8.33
543.919	8.33
544.116	8.28
544.313	8.37
544.51	8.33
544.708	8.3
544.905	8.43
545.102	8.42
545.299	8.33
545.496	8.32
545.693	8.44
545.891	8.48
546.088	8.48
546.285	8.59
546.482	8.67
546.679	8.75
546.876	8.89
547.073	8.88
547.27	9.03
547.467	9.15
547.664	9.27
547.861	9.25
548.058	9.41
548.255	9.38
548.452	9.43
548.649	9.37
548.846	9.55
549.043	9.61
549.24	9.69
549.437	9.7
549.633	9.64
549.83	9.67
550.027	9.69
550.224	9.67
550.421	9.73
550.618	9.73
550.814	9.79
551.011	9.6
551.208	9.66
551.405	9.71
551.601	9.77
551.798	9.9
551.995	9.97
552.191	9.98
552.388	10.07
552.585	10.16
552.781	10.23
552.978	10.31
553.175	10.43
553.371	10.3
553.568	10.3
553.764	10.35
553.961	10.36
554.157	10.35
554.354	10.41
554.55	10.51
554.747	10.51
554.943	10.53
555.14	10.57
555.336	10.57
555.533	10.75
555.729	10.73
555.926	10.9
556.122	10.93
556.318	11.03
556.515	11.06
556.711	10.95
556.907	11.08
557.104	11.18
557.3	11.29
557.496	11.42
557.693	11.43
557.889	11.54
558.085	11.4
558.281	11.41
558.478	11.45
558.674	11.49
558.87	11.54
559.066	11.57
559.262	11.5
559.459	11.5
559.655	11.47
559.851	11.51
560.047	11.57
560.243	11.66
560.439	11.74
560.635	11.76
560.831	11.85
561.027	11.96
561.223	12
561.419	12.19
561.615	12.22
561.811	12.36
562.007	12.46
562.203	12.52
562.399	12.5
562.595	12.62
562.791	12.66
562.987	12.81
563.183	12.87
563.379	12.84
563.575	12.82
563.771	12.87
563.966	12.85
564.162	12.9
564.358	12.93
564.554	13.09
564.75	13.01
564.945	13.06
565.141	12.97
565.337	13.01
565.533	13.11
565.728	13.25
565.924	13.24
566.12	13.27
566.315	13.29
566.511	13.44
566.707	13.39
566.902	13.55
567.098	13.69
567.293	13.89
567.489	13.92
567.684	13.99
567.88	13.88
568.076	13.97
568.271	14.09
568.467	14.18
568.662	14.19
568.858	14.3
569.053	14.33
569.248	14.24
569.444	14.22
569.639	14.27
569.835	14.29
570.03	14.48
570.225	14.56
570.421	14.61
570.616	14.55
570.812	14.48
571.007	14.57
571.202	14.62
571.397	14.7
571.593	14.71
571.788	14.73
571.983	14.7
572.178	14.74
572.374	14.73
572.569	14.81
572.764	14.9
572.959	15.04
573.154	15.08
573.35	15.13
573.545	15.22
573.74	15.32
573.935	15.39
574.13	15.49
574.325	15.47
574.52	15.58
574.715	15.56
574.91	15.62
575.105	15.62
575.3	15.55
575.495	15.55
575.69	15.58
575.885	15.57
576.08	15.5
576.275	15.56
576.47	15.71
576.665	15.75
576.86	15.81
577.055	15.84
577.25	15.92
577.444	15.95
577.639	15.93
577.834	16.02
578.029	16.19
578.224	16.38
578.418	16.41
578.613	16.25
578.808	16.27
579.003	16.31
579.197	16.55
579.392	16.51
579.587	16.72
579.781	16.92
579.976	16.84
580.171	16.85
580.365	16.91
580.56	16.98
580.755	17.11
580.949	17.11
581.144	17.27
581.338	17.12
581.533	17.09
581.727	17.1
581.922	16.97
582.116	17
582.311	16.98
582.505	17.07
582.7	17.13
582.894	17.25
583.089	17.39
583.283	17.29
583.478	17.39
583.672	17.59
583.866	17.61
584.061	17.76
584.255	17.8
584.449	17.98
584.644	17.98
584.838	18.06
585.032	17.95
585.226	17.99
585.421	18.09
585.615	18.21
585.809	18.18
586.003	18.31
586.198	18.44
586.392	18.56
586.586	18.56
586.78	18.53
586.974	18.46
587.168	18.57
587.363	18.63
587.557	18.59
587.751	18.55
587.945	18.68
588.139	18.65
588.333	18.59
588.527	18.6
588.721	18.66
588.915	18.68
589.109	18.75
589.303	18.84
589.497	18.7
589.691	18.86
589.885	18.84
590.079	18.74
590.273	18.79
590.466	18.82
590.66	18.94
590.854	18.91
591.048	19.06
591.242	19.15
591.436	19.13
591.629	19.28
591.823	19.22
592.017	19.27
592.211	19.45
592.404	19.51
592.598	19.59
592.792	19.57
592.986	19.53
593.179	19.4
593.373	19.42
593.567	19.58
593.76	19.61
593.954	19.75
594.147	19.83
594.341	19.65
594.535	19.58
594.728	19.6
594.922	19.63
595.115	19.69
595.309	19.78
595.502	19.72
595.696	19.6
595.889	19.69
596.083	19.7
596.276	19.73
596.47	19.92
596.663	20
596.856	20.03
597.05	20.14
597.243	20.27
597.437	20.37
597.63	20.59
597.823	20.54
598.017	20.52
598.21	20.56
598.403	20.57
598.596	20.58
598.79	20.6
598.983	20.59
599.176	20.38
599.369	20.16
599.563	20.1
599.756	20.07
599.949	20.25
600.142	20.32
600.335	20.39
600.528	20.46
600.722	20.48
600.915	20.57
601.108	20.51
601.301	20.76
601.494	21.04
601.687	20.98
601.88	20.92
602.073	20.94
602.266	21.04
602.459	20.88
602.652	20.85
602.845	21.04
603.038	21.06
603.231	21.2
603.424	21.27
603.617	21.34
603.809	21.42
604.002	21.43
604.195	21.45
604.388	21.43
604.581	21.59
604.774	21.68
604.966	21.63
605.159	21.69
605.352	21.84
605.545	21.82
605.737	21.85
605.93	21.94
606.123	22.13
606.316	22.17
606.508	22.2
606.701	22.22
606.894	22.27
607.086	22.11
607.279	22.05
607.471	21.96
607.664	21.93
607.857	21.82
608.049	21.85
608.242	21.8
608.434	21.82
608.627	21.83
608.819	21.75
609.012	21.77
609.204	21.75
609.397	21.83
609.589	21.82
609.782	21.91
609.974	21.92
610.166	21.79
610.359	21.75
610.551	21.7
610.743	21.66
610.936	21.73
611.128	21.68
611.32	21.72
611.513	21.78
611.705	21.76
611.897	21.66
612.09	21.69
612.282	21.98
612.474	22.07
612.666	22.25
612.858	22.29
613.051	22.3
613.243	22.45
613.435	22.58
613.627	22.38
613.819	22.48
614.011	22.69
614.203	22.69
614.395	22.59
614.588	22.53
614.78	22.55
614.972	22.51
615.164	22.6
615.356	22.58
615.548	22.39
615.74	22.66
615.932	22.76
616.124	22.48
616.315	22.54
616.507	22.6
616.699	22.68
616.891	22.75
617.083	22.84
617.275	22.76
617.467	22.8
617.659	23.12
617.85	23.11
618.042	23.07
618.234	23.27
618.426	23.15
618.618	23.31
618.809	23.41
619.001	23.46
619.193	23.52
619.384	23.54
619.576	23.41
619.768	23.36
619.959	23.34
620.151	23.24
620.343	23.17
620.534	23.37
620.726	23.33
620.917	23.43
621.109	23.15
621.301	23.04
621.492	23.21
621.684	23.36
621.875	23.15
622.067	23.02
622.258	23.08
622.45	23.17
622.641	23.15
622.832	23.08
623.024	22.91
623.215	23.19
623.407	23.14
623.598	23.09
623.789	23.01
623.981	23.35
624.172	23.41
624.363	23.34
624.555	23.25
624.746	23.24
624.937	23.13
625.129	23.34
625.32	23.18
625.511	23.25
625.702	23.28
625.893	23.38
626.085	23.19
626.276	23.24
626.467	23.34
626.658	23.27
626.849	23.39
627.04	23.49
627.231	23.28
627.422	23.47
627.614	23.51
627.805	23.57
627.996	23.59
628.187	23.71
628.378	23.87
628.569	24.17
628.76	24.35
628.951	24.28
629.142	24.4
629.332	24.69
629.523	24.68
629.714	24.76
629.905	24.65
630.096	24.62
630.287	24.69
630.478	24.58
630.669	24.36
630.859	24.35
631.05	24.32
631.241	24.13
631.432	23.74
631.623	23.8
631.813	23.69
632.004	23.79
632.195	23.62
632.385	23.6
632.576	23.49
632.767	23.36
632.957	23.42
633.148	23.36
633.339	23.45
633.529	23.64
633.72	23.71
633.91	23.81
634.101	23.74
634.292	23.8
634.482	23.86
634.673	24.17
634.863	24.22
635.054	24.11
635.244	24.22
635.435	24.43
635.625	24.59
635.815	24.5
636.006	24.63
636.196	24.68
636.387	24.9
636.577	24.82
636.767	24.99
636.958	24.92
637.148	24.98
637.338	25.05
637.529	25
637.719	24.87
637.909	24.8
638.099	24.61
638.29	24.71
638.48	24.7
638.67	24.76
638.86	24.43
639.05	24.43
639.241	24.5
639.431	24.44
639.621	24.4
639.811	24.58
640.001	24.64
640.191	24.69
640.381	24.62
640.571	24.57
640.761	24.7
640.951	24.64
641.141	24.75
641.331	24.72
641.521	24.63
641.711	24.63
641.901	24.52
642.091	24.5
642.281	24.46
642.471	24.73
642.661	24.88
642.851	24.83
643.041	24.88
643.231	24.88
643.42	24.88
643.61	25.07
643.8	24.93
643.99	24.83
644.18	25
644.369	25.29
644.559	25.02
644.749	24.91
644.939	24.91
645.128	24.83
645.318	25.09
645.508	24.96
645.697	25
645.887	25.09
646.076	25.38
646.266	25.3
646.456	25.07
646.645	25.12
646.835	25.27
647.024	25.47
647.214	25.8
647.403	25.66
647.593	25.96
647.782	26.03
647.972	26.04
648.161	26
648.351	26.08
648.54	26.18
648.73	26.16
648.919	26.1
649.108	25.77
649.298	25.68
649.487	25.66
649.677	25.53
649.866	25.41
650.055	25.42
650.244	25.33
650.434	25.25
650.623	25.28
650.812	25.31
651.002	25.2
651.191	25.3
651.38	25.31
651.569	25.23
651.758	25.41
651.947	25.55
652.137	25.8
652.326	25.97
652.515	25.89
652.704	26.01
652.893	26.04
653.082	26.2
653.271	26.24
653.46	26.21
653.649	26.33
653.838	26.37
654.027	26.32
654.216	26.31
654.405	26.34
654.594	26.55
654.783	26.4
654.972	26.65
655.161	26.61
655.35	26.56
655.539	26.54
655.728	26.5
655.916	26.24
656.105	26.16
656.294	26.06
656.483	25.91
656.672	25.94
656.86	26.17
657.049	26.08
657.238	26.26
657.427	26.43
657.615	26.51
657.804	26.63
657.993	26.79
658.181	26.86
658.37	26.75
658.559	26.71
658.747	26.78
658.936	26.63
659.125	26.56
659.313	26.64
659.502	26.69
659.69	26.71
659.879	26.84
660.067	26.75
660.256	26.76
660.444	26.73
660.633	26.65
660.821	26.52
661.01	26.47
661.198	26.65
661.387	26.57
661.575	26.44
661.763	26.4
661.952	26.22
662.14	26.29
662.328	26.27
662.517	26.42
662.705	26.52
662.893	26.61
663.082	26.89
663.27	26.99
663.458	26.94
663.646	26.96
663.834	26.94
664.023	27.15
664.211	27.28
664.399	27.25
664.587	27.29
664.775	27.49
664.963	27.51
665.152	27.44
665.34	27.23
665.528	26.98
665.716	26.82
665.904	26.98
666.092	26.92
666.28	26.94
666.468	27.11
666.656	27.26
666.844	27.35
667.032	27.24
667.22	27.46
667.408	27.39
667.596	27.65
667.784	27.71
667.971	27.64
668.159	27.57
668.347	27.73
668.535	27.7
668.723	27.7
668.911	27.61
669.098	27.59
669.286	27.15
669.474	27.38
669.662	27.5
669.849	27.54
670.037	27.66
670.225	27.72
670.413	27.56
670.6	27.7
670.788	27.8
670.976	27.79
671.163	28.04
671.351	28.31
671.538	28.3
671.726	28.05
671.913	28.23
672.101	27.9
672.289	27.78
672.476	27.6
672.664	27.53
672.851	27.26
673.039	27.17
673.226	27.07
673.413	27.02
673.601	26.87
673.788	27.23
673.976	27.16
674.163	27.57
674.35	27.62
674.538	27.75
674.725	27.82
674.912	27.97
675.1	28.18
675.287	28.21
675.474	28.1
675.662	28.26
675.849	28.2
676.036	28.21
676.223	28.22
676.411	28.2
676.598	28.23
676.785	28.14
676.972	28.13
677.159	28.11
677.346	27.97
677.533	27.99
677.721	27.98
677.908	28.03
678.095	28.03
678.282	28
678.469	27.99
678.656	28.04
678.843	28.02
679.03	28.23
679.217	28.19
679.404	28
679.591	28.19
679.778	28.11
679.964	27.93
680.151	27.97
680.338	27.91
680.525	27.94
680.712	28.05
680.899	28.15
681.086	28.01
681.272	27.93
681.459	28.36
681.646	28.21
681.833	28.32
682.02	28.27
682.206	28.37
682.393	28.33
682.58	28.3
682.766	28.22
682.953	28.17
683.14	27.97
683.326	28.05
683.513	28
683.7	28.19
683.886	28.18
684.073	28.41
684.259	28.41
684.446	28.46
684.632	28.9
684.819	28.92
685.005	28.83
685.192	28.81
685.378	28.85
685.565	29.01
685.751	28.83
685.938	28.79
686.124	29.06
686.31	29.1
686.497	28.87
686.683	28.86
686.87	28.36
687.056	28.42
687.242	28.65
687.429	28.46
687.615	28.56
687.801	28.57
687.987	28.59
688.174	28.14
688.36	28.23
688.546	28.68
688.732	28.35
688.918	28.99
689.105	29.02
689.291	29.08
689.477	29.23
689.663	29.09
689.849	28.85
690.035	28.69
690.221	28.95
690.407	28.91
690.593	28.68
690.779	28.73
690.965	28.61
691.151	28.61
691.337	28.46
691.523	28.63
691.709	28.61
691.895	29.08
692.081	29.37
692.267	29.25
692.453	29.16
692.639	28.99
692.825	29.21
693.011	28.92
693.196	28.72
693.382	28.75
693.568	28.62
693.754	28.29
693.94	28.36
694.125	28.06
694.311	28.22
694.497	28.34
694.682	28.31
694.868	27.58
695.054	27.79
695.239	28.14
695.425	28.26
695.611	28.48
695.796	28.67
695.982	28.76
696.168	29.19
696.353	29.17
696.539	29.19
696.724	29.19
696.91	29.56
697.095	29.72
697.281	29.54
697.466	29.5
697.652	29.52
697.837	29.47
698.023	29.38
698.208	29.32
698.393	29.35
698.579	29.33
698.764	29.63
698.949	29.73
699.135	29.62
699.32	29.76
699.505	29.9
699.691	29.71
699.876	29.97
700.061	29.61
700.246	29.74
700.432	29.78
700.617	29.56
700.802	29.35
700.987	29.27
701.172	29.24
701.358	29.22
701.543	29.03
701.728	28.92
701.913	28.44
702.098	28.99
702.283	28.59
702.468	28.4
702.653	28.49
702.838	28.67
703.023	29
703.208	28.71
703.393	28.69
703.578	28.9
703.763	28.81
703.948	29.07
704.133	29.1
704.318	29.49
704.503	29.39
704.688	29.74
704.873	29.57
705.057	29.53
705.242	29.74
705.427	30.21
705.612	30.11
705.797	30.68
705.981	30.83
706.166	30.67
706.351	30.41
706.536	30.71
706.72	30.35
706.905	30.55
707.09	30.21
707.274	30.33
707.459	30.04
707.644	30.21
707.828	30
708.013	29.72
708.197	29.51
708.382	29.54
708.567	29.36
708.751	29.19
708.936	29.32
709.12	29.52
709.305	29.39
709.489	29.39
709.673	29.4
709.858	29.52
710.042	30.1
710.227	30.28
710.411	30.44
710.596	30.25
710.78	30.49
710.964	30.36
711.149	30.35
711.333	30.56
711.517	30.18
711.702	30.33
711.886	30.32
712.07	30.11
712.254	30.23
712.438	30.14
712.623	30.45
712.807	30.44
712.991	30.41
713.175	30.48
713.359	30.18
713.544	30.29
713.728	30.09
713.912	29.97
714.096	29.86
714.28	29.88
714.464	29.92
714.648	29.88
714.832	30.12
715.016	30.18
715.2	30.13
715.384	30.21
715.568	30.44
715.752	30.48
715.936	30.23
716.12	30.2
716.304	30.36
716.488	30.15
716.671	30.33
716.855	30.11
717.039	29.96
717.223	29.83
717.407	29.87
717.59	30.13
717.774	30.08
717.958	30.54
718.142	30.56
718.325	30.2
718.509	30.25
718.693	30.23
718.877	29.94
719.06	30.03
719.244	29.96
719.428	30.22
719.611	30.06
719.795	29.8
719.978	29.54
720.162	29.65
720.345	29.74
720.529	29.59
720.713	29.08
720.896	29.24
721.08	29.03
721.263	29.05
721.446	28.95
721.63	28.98
721.813	29.24
721.997	28.95
722.18	29.33
722.364	29.29
722.547	29.5
722.73	29.79
722.914	29.91
723.097	30.49
723.28	30.88
723.464	30.99
723.647	30.91
723.83	31.09
724.013	31.65
724.197	30.84
724.38	30.41
724.563	30.17
724.746	30.19
724.929	30.57
725.112	29.93
725.296	30
725.479	29.98
725.662	30.2
725.845	29.94
726.028	29.65
726.211	29.88
726.394	30.38
726.577	30.51
726.76	30.92
726.943	31.12
727.126	30.89
727.309	30.74
727.492	31.21
727.675	31.13
727.858	31.19
728.041	31.49
728.224	31.66
728.407	31.55
728.589	31.33
728.772	30.69
728.955	30.15
729.138	30.67
729.321	30.36
729.503	29.93
729.686	30.01
729.869	29.93
730.052	29.81
730.234	30.16
730.417	30.11
730.6	30.27
730.782	30.65
730.965	30.48
731.148	30.3
731.33	30.36
731.513	30.22
731.695	30.37
731.878	30.43
732.061	30.48
732.243	30.35
732.426	30.4
732.608	30.45
732.791	30.22
732.973	30.58
733.156	30.71
733.338	30.75
733.52	30.87
733.703	31.06
733.885	31.37
734.068	31.42
734.25	31.27
734.432	31.59
734.615	32.15
734.797	32.34
734.979	31.54
735.162	31.91
735.344	32.01
735.526	32.21
735.708	31.41
735.891	31.07
736.073	30.57
736.255	30.97
736.437	30.62
736.619	30.45
736.802	29.87
736.984	30.89
737.166	30.29
737.348	30.36
737.53	30.14
737.712	30.07
737.894	30.22
738.076	31.01
738.258	30.3
738.44	30.55
738.622	30.54
738.804	31.02
738.986	29.98
739.168	30.32
739.35	30.28
739.532	30.37
739.714	30.51
739.896	30.5
740.078	30.05
740.259	30.42
740.441	30.05
740.623	29.76
740.805	29.79
740.987	30.38
741.168	30.36
741.35	30.35
741.532	30.11
741.714	29.78
741.895	29.79
742.077	30.12
742.259	29.86
742.44	30.27
742.622	30.14
742.804	29.76
742.985	29.8
743.167	30.3
743.348	30.66
743.53	31.11
743.711	31.31
743.893	31.48
744.075	31.08
744.256	31.14
744.438	31.18
744.619	31.21
744.8	31.78
744.982	32.02
745.163	31.96
745.345	31.3
745.526	31.22
745.707	31.65
745.889	31.74
746.07	31.16
746.252	31.16
746.433	30.74
746.614	30.67
746.795	31.03
746.977	30.75
747.158	30.62
747.339	30.67
747.52	30.75
747.702	30.55
747.883	30.03
748.064	31.24
748.245	31.23
748.426	31.76
748.607	32.19
748.788	31.56
748.97	31.5
749.151	31.74
749.332	31.99
749.513	31.36
749.694	31.17
749.875	30.76
750.056	30.25
750.237	30.19
750.418	29.04
750.599	28.82
750.78	29.15
750.96	29.74
751.141	28.73
751.322	29.41
751.503	29.36
751.684	29.68
751.865	29.74
752.046	30.1
752.226	29.88
752.407	31.4
752.588	31.42
752.769	31.07
752.949	31.12
753.13	31.75
753.311	30.66
753.492	31.36
753.672	30.97
753.853	31.76
754.034	31.03
754.214	31.52
754.395	31.61
754.575	31.72
754.756	31.72
754.937	31.05
755.117	31.24
755.298	32.18
755.478	31.8
755.659	32.23
755.839	31.59
756.02	32.41
756.2	31.75
756.381	30.99
756.561	30.63
756.741	31.17
756.922	31.17
757.102	30.69
757.283	30.5
757.463	30.94
757.643	30.69
757.823	31.05
758.004	30.39
758.184	31.1
758.364	31.45
758.545	31.84
758.725	31.47
758.905	31.48
759.085	31.88
759.265	32.47
759.446	31.58
759.626	32.05
759.806	31.74
759.986	31.93
760.166	31.3
760.346	31.27
760.526	30.94
760.706	30.63
760.886	30.93
761.066	30.83
761.246	29.97
761.426	30.26
761.606	30.12
761.786	30.33
761.966	30.22
762.146	30.38
762.326	30.29
762.506	30.56
762.686	31.3
762.866	30.83
763.046	30.73
763.225	30.89
763.405	31.12
763.585	30.93
763.765	30.89
763.945	30.95
764.124	31.21
764.304	31.04
764.484	31.18
764.664	30.6
764.843	31.11
765.023	31.24
765.203	31.19
765.382	31.05
765.562	31.17
765.741	30.62
765.921	30.56
766.101	30.16
766.28	30.01
766.46	29.89
766.639	29.62
766.819	29.09
766.998	28.58
767.178	28.22
767.357	27.73
767.537	27.18
767.716	27.63
767.896	27.61
768.075	27.69
768.254	27.7
768.434	27.85
768.613	29.11
768.792	29.41
768.972	29.94
769.151	30.4
769.33	30.71
769.51	31.52
769.689	31.49
769.868	31.65
770.047	32.35
770.226	32.59
770.406	32.4
770.585	31.77
770.764	31.98
770.943	31.62
771.122	31.78
771.301	32
771.48	31.87
771.66	32.38
771.839	32.48
772.018	31.84
772.197	32.11
772.376	31.42
772.555	30.98
772.734	30.69
772.913	30.64
773.092	30.55
773.271	30.31
773.449	31
773.628	30.73
773.807	30.77
773.986	31.23
774.165	31.27
774.344	32.45
774.523	32.05
774.701	32.41
774.88	32.72
775.059	33.28
775.238	33.27
775.417	32.8
775.595	32.53
775.774	32.28
775.953	31.88
776.131	30.94
776.31	30.06
776.489	30.24
776.667	30.45
776.846	29.74
777.025	29.02
777.203	29.6
777.382	29.02
777.56	29.21
777.739	28.88
777.917	29.82
778.096	30.72
778.274	30.83
778.453	30.96
778.631	30.02
778.81	30.89
778.988	31.38
779.166	30.75
779.345	31.26
779.523	31.47
779.702	32.27
779.88	31.28
780.058	31.26
780.237	31.26
780.415	31.7
780.593	32.21
780.771	31.92
780.95	31.1
781.128	31.52
781.306	31.27
781.484	31.25
781.662	30.57
781.841	31.26
782.019	31.27
782.197	31.84
782.375	31.63
782.553	31.41
782.731	31.18
782.909	32.1
783.087	31.83
783.265	31.11
783.443	30.92
783.621	30.82
783.799	29.95
783.977	29.13
784.155	28.55
784.333	29.03
784.511	29.02
784.689	29.48
784.867	29.86
785.045	30.68
785.223	31.09
785.4	31.76
785.578	31.81
785.756	32.45
785.934	31.83
786.112	31.51
786.289	30.73
786.467	31.15
786.645	31.49
786.823	30.52
787	29.43
787.178	30.23
787.356	29.64
787.533	31.18
787.711	31.08
787.889	31.41
788.066	31.86
788.244	32.25
788.421	31.82
788.599	30.71
788.776	30.68
788.954	30.88
789.131	30.24
789.309	30.55
789.486	28.75
789.664	29.43
789.841	29.92
790.019	29.27
790.196	29.35
790.373	29.19
790.551	30.12
790.728	29.96
790.906	30.6
791.083	30.87
791.26	31.23
791.437	32.34
791.615	31.23
791.792	31.73
791.969	32.33
792.146	32.49
792.324	32.82
792.501	33.11
792.678	33.48
792.855	33.45
793.032	33.64
793.209	33.05
793.387	33.16
793.564	33.8
793.741	33.75
793.918	33.48
794.095	32.53
794.272	32.59
794.449	32.09
794.626	32.2
794.803	32.43
794.98	33.13
795.157	32.62
795.334	32.11
795.511	32.33
795.688	32.18
795.864	31.34
796.041	31.96
796.218	31.95
796.395	31.68
796.572	31.59
796.749	31.13
796.925	30.44
797.102	31.19
797.279	31.5
797.456	30.02
797.632	29.88
797.809	31.14
797.986	31.35
798.162	32
798.339	31.81
798.516	31.75
798.692	31.83
798.869	32.09
799.046	32.06
799.222	32.03
799.399	32.25
799.575	31.59
799.752	30.79
799.928	31.6
800.105	31.1
800.281	32.23
800.458	32.18
800.634	32.37
800.811	31.85
800.987	31.53
801.163	31.87
801.34	33.3
801.516	34.1
801.692	34.98
801.869	33.85
802.045	34.43
802.221	34.8
802.398	34.83
802.574	34.68
802.75	35.25
802.926	34.96
803.103	34.61
803.279	33.97
803.455	34.37
803.631	33.33
803.807	33.37
803.983	32.85
804.16	31.37
804.336	31.65
804.512	32.15
804.688	32.22
804.864	32.89
805.04	32.16
805.216	32.36
805.392	31.67
805.568	32.87
805.744	32.86
805.92	33.04
806.096	33.4
806.272	32.57
806.448	32.76
806.623	32.43
806.799	31.09
806.975	31.27
807.151	31.43
807.327	31.75
807.503	31.25
807.678	30.83
807.854	29.85
808.03	29.86
808.206	30.7
808.381	29.13
808.557	28.94
808.733	30.05
808.908	30.34
809.084	30.14
809.26	29.88
809.435	29.77
809.611	30.53
809.787	31.58
809.962	31.21
810.138	30.33
810.313	30.93
810.489	30.32
810.664	31.54
810.84	31.29
811.015	30.94
811.191	30.48
811.366	30.33
811.542	30.6
811.717	29.8
811.892	31.07
812.068	31.36
812.243	30.91
812.419	31.47
812.594	29.97
812.769	29.49
812.944	29.53
813.12	30.58
813.295	31.15
813.47	31.05
813.645	31.24
813.821	31.53
813.996	31.65
814.171	31.1
814.346	31.44
814.521	33.13
814.697	33.26
814.872	33.24
815.047	33.23
815.222	33.31
815.397	32.46
815.572	33.98
815.747	34.23
815.922	34.14
816.097	35.39
816.272	35.68
816.447	34.88
816.622	35.33
816.797	35.53
816.972	34.46
817.147	34.16
817.322	35.06
817.496	34.35
817.671	32.74
817.846	33.66
818.021	33.88
818.196	33.44
818.371	32.76
818.545	32.06
818.72	31.95
818.895	32.7
819.069	33.25
819.244	31.99
819.419	30.87
819.594	31.23
819.768	31.11
819.943	30.69
820.117	30.57
820.292	30.52
820.467	31.37
820.641	31.67
820.816	31.89
820.99	31.66
821.165	32.48
821.339	32.73
821.514	32.86
821.688	32.58
821.863	32.72
822.037	32.76
822.212	32.99
822.386	32.83
822.56	32.87
822.735	32.9
822.909	33.09
823.084	32.9
823.258	32.94
823.432	32.99
823.606	32.86
823.781	32.99
823.955	32.9
824.129	32.81
824.303	32.83
824.478	32.55
824.652	32.37
824.826	32.06
825	31.93
825.174	32.06
825.348	31.94
825.523	32.71
825.697	32.47
825.871	32.68
826.045	32.6
826.219	32.86
826.393	33.14
826.567	33.17
826.741	33.33
826.915	33.27
827.089	33.66
827.263	33.49
827.437	33.39
827.611	33.07
827.784	33.21
827.958	33.8
828.132	33.68
828.306	33.54
828.48	33.34
828.654	33.53
828.827	33.52
829.001	32.15
829.175	32.69
829.349	32.37
829.522	32.88
829.696	32.22
829.87	31.15
830.044	30.94
830.217	30.77
830.391	31.38
830.565	30.41
830.738	30.72
830.912	31.5
831.085	30.52
831.259	30.04
831.432	30.07
831.606	31.69
831.779	32.32
831.953	31.69
832.126	31.92
832.3	32.29
832.473	33.08
832.647	32.54
832.82	33.39
832.994	33.76
833.167	34.38
833.34	34.65
833.514	34.44
833.687	34.01
833.86	33.83
834.034	33.87
834.207	33.75
834.38	33.63
834.553	33.99
834.727	33.93
834.9	34.39
835.073	34.33
835.246	34.52
835.419	34.93
835.593	35.1
835.766	35.63
835.939	36.3
836.112	36.57
836.285	36.05
836.458	34.41
836.631	33.89
836.804	32.27
836.977	32.33
837.15	31.89
837.323	30.91
837.496	31.21
837.669	30.96
837.842	29.52
838.015	28.66
838.188	28.11
838.361	31.42
838.533	30.66
838.706	31.2
838.879	29.29
839.052	28.99
839.225	26.94
839.398	25.98
839.57	26.03
839.743	26.45
839.916	25.85
840.088	26.94
840.261	26.38
840.434	25.83
840.607	26.47
840.779	28.08
840.952	27.27
841.124	28.45
841.297	28.64
841.47	28.92
841.642	27.18
841.815	25.93
841.987	24.53
842.16	25.18
842.332	26.03
842.505	25.73
842.677	24.71
842.85	24.47
843.022	25.29
843.194	27.81
843.367	28.15
843.539	30.52
843.712	33.42
843.884	34.81
844.056	35.68
844.229	37.57
844.401	38.26
844.573	39.67
844.745	41.27
844.918	40.06
845.09	37.39
845.262	38.19
845.434	38.87
845.606	39.1
845.779	40.2
845.951	37.09
846.123	34.17
846.295	31.26
846.467	31.07
846.639	30.26
846.811	29.39
846.983	32.32
847.155	30.71
847.327	29.08
847.499	29.02
847.671	27.96
847.843	26.92
848.015	25.75
848.187	26.33
848.359	24.26
848.531	21.43
848.703	23.76
848.875	20.76
849.047	21.38
849.218	23.95
849.39	23.19
849.562	24.19
849.734	23.17
849.905	28.02
850.077	32.88
850.249	35.35
850.421	36.27
850.592	31.74
850.764	33.49
850.936	36.59
851.107	36.65
851.279	31.68
851.451	32.64
851.622	35.07
851.794	33.57
851.965	30.91
852.137	28.75
852.308	29.79
852.48	34.98
852.651	34.83
852.823	34.01
852.994	32.81
853.166	39.41
853.337	38.43
853.509	36.49
853.68	36.94
853.851	37.25
854.023	39.31
854.194	42.03
854.365	41.2
854.537	42.2
854.708	42.89
854.879	41.94
855.05	35.92
855.222	35.01
855.393	35.37
855.564	32.78
855.735	33.48
855.906	33.89
856.078	34.08
856.249	31.17
856.42	28.7
856.591	24.45
856.762	26.98
856.933	30.32
857.104	30.76
857.275	30.81
857.446	33.95
857.617	33.97
857.788	33.67
857.959	35.56
858.13	36.33
858.301	38.38
858.472	38.5
858.643	37.12
858.814	36.15
858.985	32.03
859.155	31.76
859.326	28.91
859.497	23.33
859.668	19.52
859.839	17.56
860.009	19.44
860.18	15.6
860.351	17.64
860.522	14.46
860.692	13.61
860.863	19.08
861.034	20.53
861.204	26.55
861.375	31.03
861.546	30.96
861.716	29.82
861.887	28.87
862.057	30.87
862.228	30.88
862.398	33.65
862.569	34.33
862.739	34.11
862.91	33.53
863.08	26.17
863.251	26.84
863.421	26.98
863.592	24.99
863.762	24.29
863.932	23.38
864.103	23.7
864.273	20.26
864.443	20.73
864.614	18.77
864.784	17.3
864.954	23.62
865.125	24.38
865.295	26.2
865.465	26.81
865.635	27.32
865.805	28
865.976	29.92
866.146	31.53
866.316	32.81
866.486	34.43
866.656	38.81
866.826	34.42
866.996	33.66
867.166	34.75
867.336	34.45
867.506	34.42
867.676	31.84
867.846	29.65
868.016	30.76
868.186	25.79
868.356	23.47
868.526	20.92
868.696	23.4
868.866	23.54
869.036	21.31
869.206	19.13
869.376	19.68
869.545	22.27
869.715	23.92
869.885	24.2
870.055	25.71
870.224	31.3
870.394	26
870.564	27.2
870.734	24.38
870.903	25.02
871.073	26.95
871.243	25.88
871.412	27.55
871.582	28.76
871.751	24.66
871.921	27.93
872.091	23.28
872.26	27.54
872.43	27.97
872.599	25.38
872.769	25.65
872.938	29.22
873.108	29.53
873.277	23.37
873.446	25.1
873.616	32.52
873.785	32.73
873.955	38.68
874.124	38.92
874.293	36.5
874.463	44.52
874.632	41.47
874.801	43.98
874.971	45.24
875.14	49.34
875.309	44.94
875.478	42.86
875.647	41.9
875.817	39.96
875.986	43.03
876.155	41.77
876.324	38.41
876.493	40.74
876.662	37.65
876.831	32.68
877	31.5
877.17	35.72
877.339	34.85
877.508	33.13
877.677	28.15
877.846	27.69
878.015	27.27
878.184	25.72
878.352	23.39
878.521	21.3
878.69	25.62
878.859	27.64
879.028	25.14
879.197	23.31
879.366	24.57
879.534	28.32
879.703	26.48
879.872	27.26
880.041	27.73
880.21	29.8
880.378	31.46
880.547	31.99
880.716	32.11
880.884	32.46
881.053	33.32
881.222	32.87
881.39	33.03
881.559	32.98
881.727	33.35
881.896	33.4
882.065	33.22
882.233	32.44
882.402	33.05
882.57	32.77
882.739	32.31
882.907	32.31
883.076	32.34
883.244	32.22
883.412	31.88
883.581	31.85
883.749	31.84
883.918	31.57
884.086	31.88
884.254	30.3
884.423	30.43
884.591	31.1
884.759	30.92
884.927	31.81
885.096	31.32
885.264	31.62
885.432	31.96
885.6	32.44
885.769	33.39
885.937	33.17
886.105	35.52
886.273	35.22
886.441	35.73
886.609	36.74
886.777	35.48
886.945	34.74
887.113	38.14
887.281	36.9
887.449	35.66
887.617	35.8
887.785	37.37
887.953	34.71
888.121	34.25
888.289	32.48
888.457	33.73
888.625	34.42
888.793	38.3
888.961	38.54
889.129	38.78
889.296	42.73
889.464	42.66
889.632	42.31
889.8	43.22
889.967	46.95
890.135	49.18
