Data from 2938578_Reflection_3.txt Node
Date: Sun Jun 14 21:30:25 EDT 2015
User: robert
Spectrometer: USB4E03002
Autoset integration time: false
Trigger mode: 4
Integration Time (sec): 1.000000E-1
Scans to average: 10
Electric dark correction enabled: true
Nonlinearity correction enabled: false
Boxcar width: 5
Stray light correction enabled: false
XAxis mode: Wavelengths
Stop averaging: false
Number of Pixels in Spectrum: 3648
>>>>>Begin Spectral Data<<<<<
177.575	343.92
177.794	435.41
178.014	5762.34
178.233	-15025
178.452	-1180.8
178.672	-661.14
178.891	107.56
179.11	229.9
179.33	227.64
179.549	366.63
179.768	713.18
179.987	467.65
180.207	544.16
180.426	914.16
180.645	890.97
180.864	498.41
181.084	495.26
181.303	587.44
181.522	399.79
181.741	361.58
181.96	225.52
182.179	229.47
182.398	227.67
182.618	213.63
182.837	183.49
183.056	128.17
183.275	160.02
183.494	187.08
183.713	165.77
183.932	167.24
184.151	157.21
184.37	216.25
184.589	209.38
184.808	203.04
185.027	184.35
185.246	245.65
185.465	275.23
185.684	259.63
185.903	297.52
186.122	274.07
186.341	315
186.56	339.38
186.779	254.1
186.998	212.16
187.216	268.48
187.435	284.24
187.654	268.31
187.873	304.15
188.092	375.68
188.311	291.62
188.53	335.54
188.748	390
188.967	841.16
189.186	715.88
189.405	-2621.73
189.623	-55758.33
189.842	-803.15
190.061	-762.69
190.28	-939.62
190.498	-1883.92
190.717	-4148.84
190.936	1427.23
191.154	1495.38
191.373	490.02
191.592	1059.26
191.81	384.58
192.029	445.21
192.248	276.68
192.466	225.85
192.685	171.68
192.904	187.58
193.122	222.5
193.341	231.95
193.559	209.06
193.778	225.85
193.996	197.54
194.215	217.8
194.433	190.45
194.652	188.53
194.87	211.76
195.089	249
195.307	201.45
195.526	187.99
195.744	214.35
195.963	209.34
196.181	244.96
196.399	272.13
196.618	226.12
196.836	204.77
197.055	218.4
197.273	213.35
197.491	232.44
197.71	267.99
197.928	275.51
198.146	251.52
198.365	295.04
198.583	224.94
198.801	191.91
199.019	207
199.238	234.64
199.456	180.97
199.674	189.46
199.892	156.01
200.111	134.29
200.329	120.21
200.547	110.66
200.765	106.3
200.983	91.54
201.202	82.48
201.42	99.65
201.638	101.47
201.856	121.51
202.074	133.03
202.292	169.38
202.51	226.73
202.728	234.68
202.946	227.67
203.165	239.17
203.383	249.78
203.601	242.85
203.819	242.6
204.037	281.37
204.255	304.22
204.473	346.83
204.691	260.65
204.909	249.03
205.127	246.25
205.345	182.81
205.562	163.08
205.78	170.34
205.998	174.43
206.216	149.29
206.434	154.47
206.652	148.72
206.87	142.8
207.088	139.57
207.306	153.34
207.523	163.07
207.741	187.64
207.959	184.47
208.177	153.86
208.395	148.77
208.612	196.48
208.83	157.4
209.048	140.24
209.266	137.22
209.483	151.18
209.701	132.41
209.919	124.84
210.136	134.04
210.354	160.05
210.572	182.4
210.79	203.67
211.007	195.76
211.225	218.14
211.442	198.25
211.66	193.32
211.878	211.93
212.095	214.04
212.313	199.21
212.53	196.35
212.748	169.46
212.966	157.62
213.183	152.73
213.401	136.8
213.618	152.84
213.836	199.71
214.053	181.23
214.271	142.45
214.488	133.29
214.705	138.08
214.923	129.06
215.14	136.96
215.358	124.98
215.575	106.2
215.793	113.95
216.01	108.92
216.227	85.92
216.445	87.34
216.662	77.75
216.879	83.32
217.097	71.1
217.314	72.62
217.531	83.81
217.749	108.07
217.966	135.85
218.183	134.23
218.4	120.88
218.618	139.72
218.835	121.76
219.052	125.04
219.269	115.44
219.487	124.35
219.704	128.86
219.921	122.15
220.138	101.83
220.355	87.56
220.572	87.12
220.79	83.44
221.007	87.1
221.224	92.72
221.441	97.9
221.658	97.01
221.875	89.41
222.092	83.9
222.309	76.07
222.526	76.23
222.743	76.51
222.96	72.71
223.177	74.18
223.394	61.1
223.611	57.36
223.828	56.5
224.045	52.99
224.262	51.02
224.479	48.22
224.696	46.7
224.913	47.16
225.13	40.16
225.347	35.27
225.564	31.83
225.781	29.57
225.997	28.39
226.214	24.49
226.431	24.06
226.648	21.48
226.865	21.11
227.082	20.39
227.298	19.12
227.515	20.01
227.732	20.47
227.949	20.01
228.165	19.68
228.382	19.19
228.599	18.86
228.816	17.68
229.032	18.47
229.249	18.9
229.466	19.22
229.682	20.03
229.899	18.85
230.116	18.66
230.332	19.76
230.549	20.7
230.765	21.89
230.982	21.29
231.199	23
231.415	23.79
231.632	23.24
231.848	22.89
232.065	20.6
232.281	22.85
232.498	23
232.714	24.22
232.931	24.53
233.147	23.68
233.364	24.38
233.58	22.93
233.797	24.78
234.013	24.07
234.23	24.9
234.446	25.9
234.662	25.16
234.879	24.54
235.095	22.12
235.312	22.05
235.528	23.83
235.744	23.65
235.961	24.77
236.177	19.82
236.393	21.82
236.61	21.72
236.826	21.89
237.042	23.71
237.258	22.19
237.475	21.73
237.691	21.18
237.907	19.1
238.123	21.41
238.339	20.64
238.556	23.14
238.772	21.54
238.988	19.41
239.204	19.52
239.42	18.88
239.636	19.43
239.853	19.6
240.069	18.75
240.285	18.16
240.501	16.69
240.717	16.68
240.933	15.9
241.149	16.04
241.365	16.82
241.581	17.24
241.797	16.8
242.013	16.16
242.229	15.71
242.445	16.19
242.661	16.69
242.877	17.1
243.093	17.25
243.309	16.68
243.525	16.97
243.741	16.45
243.957	15.81
244.173	15.19
244.388	15.29
244.604	14.67
244.82	14.62
245.036	14.37
245.252	14.18
245.468	13.98
245.683	14.55
245.899	14.21
246.115	13.93
246.331	13.7
246.547	13.81
246.762	13.83
246.978	14.05
247.194	14.07
247.409	13.91
247.625	14.42
247.841	14.56
248.057	14.08
248.272	14.14
248.488	14.5
248.703	14.41
248.919	14.71
249.135	14.79
249.35	14.92
249.566	14.64
249.782	14.79
249.997	14.4
250.213	14
250.428	13.9
250.644	14.02
250.859	14.01
251.075	13.89
251.29	13.89
251.506	14.13
251.721	14.55
251.937	14.97
252.152	15.44
252.368	15.34
252.583	16.24
252.798	17.06
253.014	16.59
253.229	16.2
253.445	16.57
253.66	16.41
253.875	16.53
254.091	17.12
254.306	16.51
254.521	15.9
254.737	15.2
254.952	13.95
255.167	14.25
255.383	14.73
255.598	15.05
255.813	14.19
256.028	13.78
256.244	13.16
256.459	12
256.674	11.99
256.889	11.96
257.104	11.71
257.32	11.69
257.535	10.99
257.75	10.59
257.965	10.48
258.18	10.65
258.395	10.68
258.61	10.84
258.826	10.6
259.041	10.64
259.256	10.44
259.471	10.4
259.686	10.11
259.901	10.16
260.116	10.36
260.331	10.21
260.546	10.49
260.761	10.41
260.976	9.73
261.191	10.73
261.406	10.97
261.621	11.3
261.836	11.52
262.05	12.22
262.265	12.26
262.48	12.74
262.695	12.72
262.91	13.22
263.125	13.54
263.34	14.59
263.555	14.23
263.769	13.31
263.984	13.03
264.199	13.45
264.414	13.08
264.629	13.14
264.843	12.75
265.058	13.02
265.273	11.81
265.488	12.15
265.702	11.12
265.917	11.21
266.132	11.38
266.346	11.4
266.561	11.57
266.776	11.95
266.99	12.26
267.205	11.79
267.42	11.53
267.634	11.32
267.849	10.63
268.063	11.35
268.278	11.39
268.492	11.97
268.707	11.48
268.922	11.09
269.136	10.45
269.351	10.25
269.565	10.28
269.78	10.15
269.994	10.57
270.209	10.78
270.423	10.72
270.637	10.33
270.852	9.94
271.066	10.67
271.281	10.72
271.495	10.89
271.709	10.71
271.924	10.94
272.138	11.47
272.353	11.62
272.567	11.69
272.781	11.94
272.996	12.15
273.21	12.22
273.424	12.08
273.638	11.8
273.853	12.03
274.067	12.23
274.281	12.74
274.495	12.27
274.71	12.2
274.924	11.8
275.138	11.13
275.352	11.02
275.566	11.49
275.781	11.7
275.995	12.14
276.209	12.23
276.423	12.42
276.637	11.65
276.851	11.85
277.065	11.72
277.279	11.93
277.493	12.81
277.707	12.66
277.921	12.25
278.135	11.61
278.349	11.35
278.563	10.98
278.777	10.9
278.991	10.71
279.205	10.62
279.419	10.55
279.633	10.4
279.847	9.83
280.061	9.45
280.275	9.3
280.489	9.8
280.703	9.9
280.917	10.17
281.131	9.94
281.344	10.44
281.558	10.11
281.772	10.34
281.986	10.27
282.2	10.36
282.414	10.66
282.627	10.41
282.841	10.25
283.055	10.24
283.269	10.16
283.482	10.22
283.696	10.09
283.91	10.14
284.123	9.62
284.337	9.7
284.551	9.5
284.764	9.71
284.978	9.95
285.192	9.56
285.405	9.65
285.619	9.73
285.833	9.9
286.046	9.41
286.26	9.91
286.473	10.05
286.687	10.53
286.9	10.49
287.114	10.19
287.327	10.25
287.541	11.05
287.754	10.88
287.968	10.99
288.181	10.62
288.395	10.97
288.608	10.95
288.822	10.92
289.035	10.23
289.248	10.27
289.462	10.65
289.675	10.69
289.889	10.5
290.102	10.39
290.315	10.37
290.529	10.76
290.742	10.94
290.955	10.64
291.169	11.15
291.382	11.83
291.595	12.4
291.808	12.76
292.022	12.88
292.235	12.62
292.448	13.2
292.661	13.27
292.875	13.32
293.088	13.53
293.301	14.01
293.514	13.94
293.727	13.76
293.94	13.38
294.153	13.12
294.367	12.57
294.58	12.45
294.793	12.22
295.006	12.22
295.219	11.89
295.432	11.75
295.645	11.47
295.858	11.41
296.071	11.08
296.284	10.97
296.497	10.91
296.71	11.26
296.923	11.61
297.136	11.59
297.349	11.47
297.562	11.63
297.775	11.82
297.988	11.92
298.201	12.08
298.414	12.47
298.626	12.78
298.839	12.92
299.052	13.1
299.265	13.19
299.478	13.06
299.691	13.2
299.903	13.32
300.116	13.07
300.329	13.48
300.542	13.4
300.755	13.47
300.967	13.96
301.18	14.15
301.393	13.87
301.605	13.39
301.818	13.72
302.031	13.45
302.243	13.65
302.456	14.19
302.669	13.95
302.881	14.42
303.094	14.37
303.307	14.05
303.519	13.93
303.732	14.45
303.944	14.56
304.157	14.7
304.37	15.04
304.582	14.92
304.795	14.64
305.007	14.88
305.22	14.72
305.432	14.79
305.645	15.12
305.857	14.95
306.069	14.81
306.282	14.95
306.494	14.57
306.707	14.51
306.919	14.06
307.132	14.08
307.344	13.69
307.556	13.64
307.769	13.8
307.981	13.43
308.193	13.5
308.406	13.01
308.618	12.93
308.83	13
309.043	13.13
309.255	13.55
309.467	13.49
309.679	13.84
309.892	13.73
310.104	13.64
310.316	13.44
310.528	13.33
310.74	13.95
310.953	14.37
311.165	14.28
311.377	14.23
311.589	14.36
311.801	14.38
312.013	14.15
312.225	14.47
312.437	14.85
312.649	15.63
312.862	15.98
313.074	15.6
313.286	15.21
313.498	15.29
313.71	15.58
313.922	15.72
314.134	15.7
314.346	15.69
314.558	15.72
314.77	15.74
314.982	15.6
315.193	15.67
315.405	15.7
315.617	15.56
315.829	16.01
316.041	15.74
316.253	15.32
316.465	15.91
316.677	15.84
316.888	15.89
317.1	15.57
317.312	15.28
317.524	15.18
317.736	15.62
317.947	15.77
318.159	15.91
318.371	15.97
318.583	16.6
318.794	16.04
319.006	16.01
319.218	15.92
319.43	15.82
319.641	16.12
319.853	16.12
320.064	16.24
320.276	16.71
320.488	16.42
320.699	16.3
320.911	15.96
321.123	16.22
321.334	16.76
321.546	16.87
321.757	17.25
321.969	17.26
322.18	17.53
322.392	17.16
322.603	16.92
322.815	16.97
323.026	16.81
323.238	16.88
323.449	16.81
323.661	16.62
323.872	16.31
324.083	16.51
324.295	16.47
324.506	16.21
324.718	16.03
324.929	16.37
325.14	16.52
325.352	16.98
325.563	17.06
325.774	17.49
325.986	17.61
326.197	17.74
326.408	17.62
326.62	17.39
326.831	17.92
327.042	18.44
327.253	18.37
327.464	18.34
327.676	18.45
327.887	18.42
328.098	18.12
328.309	18.12
328.52	18.29
328.732	18.46
328.943	18.55
329.154	18.54
329.365	18.57
329.576	18.62
329.787	18.64
329.998	18.69
330.209	18.55
330.42	18.9
330.631	18.89
330.842	19.01
331.053	18.87
331.264	19.33
331.475	19.64
331.686	19.65
331.897	19.56
332.108	20
332.319	19.73
332.53	20.09
332.741	19.85
332.952	19.69
333.163	19.84
333.374	19.97
333.585	19.82
333.795	19.21
334.006	19.58
334.217	19.41
334.428	19.15
334.639	19.63
334.849	19.25
335.06	19.25
335.271	19.3
335.482	19.5
335.692	19.35
335.903	19.48
336.114	19.69
336.325	19.19
336.535	19.69
336.746	19.66
336.957	19.6
337.167	19.98
337.378	19.88
337.589	20.15
337.799	19.82
338.01	20.03
338.22	19.99
338.431	19.83
338.642	20.1
338.852	19.72
339.063	19.75
339.273	19.18
339.484	19.05
339.694	18.9
339.905	18.92
340.115	18.78
340.326	18.48
340.536	18.58
340.746	18.55
340.957	18.63
341.167	18.75
341.378	18.7
341.588	19.14
341.799	19.25
342.009	19.68
342.219	19.53
342.43	19.47
342.64	19.85
342.85	19.5
343.061	19.47
343.271	19.31
343.481	19.04
343.691	18.9
343.902	18.57
344.112	18.19
344.322	17.99
344.532	17.7
344.743	17.53
344.953	17.26
345.163	17.25
345.373	17.44
345.583	17.5
345.793	17.53
346.004	17.4
346.214	17.47
346.424	17.51
346.634	17.25
346.844	17.38
347.054	17.71
347.264	17.81
347.474	18
347.684	17.94
347.894	17.81
348.104	18.21
348.314	18.17
348.524	18.03
348.734	18.08
348.944	18.32
349.154	18.6
349.364	18.34
349.574	18.06
349.784	17.79
349.994	17.92
350.204	17.84
350.413	17.46
350.623	17.89
350.833	18.14
351.043	18.29
351.253	18.39
351.463	17.95
351.672	18.29
351.882	18.42
352.092	18.52
352.302	18.46
352.511	18.36
352.721	18.06
352.931	17.92
353.141	17.87
353.35	17.99
353.56	17.75
353.77	18
353.979	17.76
354.189	17.95
354.399	18.18
354.608	17.73
354.818	17.85
355.027	18.25
355.237	18.16
355.447	18.03
355.656	17.74
355.866	17.73
356.075	17.7
356.285	17.89
356.494	17.61
356.704	17.38
356.913	17.58
357.123	17.43
357.332	17.19
357.542	16.98
357.751	17.01
357.96	16.86
358.17	16.61
358.379	16.55
358.589	16.12
358.798	16.17
359.007	15.93
359.217	15.86
359.426	15.94
359.635	16.21
359.845	16.27
360.054	16.15
360.263	16.3
360.472	16.45
360.682	16.29
360.891	16.32
361.1	16.2
361.309	16.44
361.519	16.62
361.728	16.74
361.937	16.57
362.146	16.59
362.355	16.86
362.564	17.01
362.774	16.9
362.983	16.79
363.192	16.82
363.401	16.83
363.61	16.82
363.819	16.73
364.028	16.51
364.237	16.33
364.446	16.26
364.655	15.88
364.864	15.68
365.073	15.73
365.282	16.09
365.491	16.2
365.7	16.12
365.909	16.16
366.118	16.15
366.327	15.84
366.536	15.96
366.745	16.04
366.954	16.21
367.162	16.34
367.371	16.39
367.58	16.45
367.789	16.24
367.998	16.28
368.207	16.17
368.415	15.92
368.624	16.19
368.833	16.18
369.042	16.14
369.25	16.35
369.459	16.48
369.668	16.33
369.877	15.93
370.085	16.07
370.294	15.91
370.503	15.86
370.711	16.1
370.92	16.19
371.129	16.22
371.337	16.19
371.546	15.74
371.754	15.54
371.963	15.37
372.171	15.4
372.38	15.28
372.589	15.46
372.797	15.34
373.006	14.95
373.214	14.78
373.423	14.61
373.631	14.61
373.84	14.82
374.048	14.55
374.256	14.55
374.465	14.74
374.673	14.87
374.882	14.8
375.09	14.79
375.298	14.93
375.507	14.97
375.715	14.96
375.923	14.77
376.132	14.71
376.34	14.45
376.548	14.68
376.757	14.6
376.965	14.56
377.173	14.49
377.381	14.49
377.59	14.57
377.798	14.5
378.006	14.48
378.214	14.65
378.423	14.77
378.631	15.02
378.839	15.03
379.047	15.05
379.255	14.96
379.463	14.94
379.671	14.77
379.879	14.66
380.088	14.68
380.296	14.77
380.504	14.6
380.712	14.73
380.92	14.69
381.128	14.69
381.336	14.56
381.544	14.67
381.752	14.95
381.96	15.2
382.168	14.97
382.376	15.07
382.584	15.15
382.791	15.17
382.999	14.76
383.207	14.9
383.415	15.01
383.623	15.03
383.831	14.97
384.039	14.7
384.247	14.72
384.454	15.03
384.662	14.83
384.87	14.73
385.078	14.75
385.285	14.73
385.493	14.65
385.701	14.3
385.909	14.43
386.116	14.26
386.324	14.31
386.532	14.07
386.739	13.91
386.947	13.86
387.155	13.85
387.362	13.7
387.57	13.77
387.778	13.58
387.985	13.69
388.193	13.55
388.4	13.66
388.608	13.74
388.816	13.92
389.023	13.82
389.231	13.83
389.438	13.6
389.646	13.84
389.853	13.86
390.061	13.98
390.268	13.85
390.475	13.86
390.683	13.75
390.89	13.6
391.098	13.45
391.305	13.45
391.512	13.22
391.72	13.25
391.927	13
392.135	13.13
392.342	13.22
392.549	13.43
392.756	13.11
392.964	12.96
393.171	13.03
393.378	13.12
393.586	13.11
393.793	13.4
394	13.14
394.207	13.09
394.414	12.96
394.622	12.66
394.829	12.44
395.036	12.72
395.243	12.79
395.45	12.89
395.657	12.74
395.864	12.61
396.072	12.65
396.279	12.72
396.486	12.93
396.693	12.96
396.9	13.2
397.107	13.06
397.314	13.11
397.521	13.23
397.728	12.85
397.935	13.05
398.142	13.17
398.349	12.8
398.556	12.94
398.763	12.73
398.97	12.71
399.177	12.48
399.383	12.61
399.59	12.27
399.797	12.27
400.004	12.49
400.211	12.37
400.418	12.38
400.625	12.52
400.831	12.53
401.038	12.47
401.245	12.31
401.452	12.25
401.658	12.15
401.865	12.36
402.072	12.3
402.279	12.22
402.485	11.94
402.692	11.88
402.899	11.77
403.105	11.73
403.312	11.91
403.519	11.9
403.725	11.97
403.932	12.1
404.138	12
404.345	11.95
404.552	11.82
404.758	12.15
404.965	12.22
405.171	12.17
405.378	11.98
405.584	11.76
405.791	11.77
405.997	11.73
406.204	11.77
406.41	11.89
406.617	11.89
406.823	11.89
407.029	11.66
407.236	11.43
407.442	11.49
407.649	11.79
407.855	11.77
408.061	11.77
408.268	11.77
408.474	11.65
408.68	11.51
408.887	11.57
409.093	11.64
409.299	11.71
409.505	11.63
409.712	11.63
409.918	11.61
410.124	11.58
410.33	11.48
410.537	11.45
410.743	11.5
410.949	11.48
411.155	11.31
411.361	11.29
411.567	11.16
411.773	11.32
411.98	11.31
412.186	11.19
412.392	11.2
412.598	11.28
412.804	11.33
413.01	11.35
413.216	11.23
413.422	11.38
413.628	11.35
413.834	11.35
414.04	11.21
414.246	11.24
414.452	11.21
414.658	11.23
414.864	11.19
415.07	11.05
415.275	10.95
415.481	11.05
415.687	10.87
415.893	10.83
416.099	10.78
416.305	10.76
416.511	10.67
416.716	10.63
416.922	10.61
417.128	10.69
417.334	10.66
417.539	10.62
417.745	10.54
417.951	10.55
418.157	10.55
418.362	10.51
418.568	10.49
418.774	10.45
418.979	10.53
419.185	10.47
419.391	10.33
419.596	10.26
419.802	10.14
420.008	10.13
420.213	9.59
420.419	9.6
420.624	9.64
420.83	9.63
421.035	9.69
421.241	9.63
421.446	9.61
421.652	9.57
421.857	9.69
422.063	9.69
422.268	9.74
422.474	10.22
422.679	10.14
422.885	10.04
423.09	10
423.295	9.96
423.501	9.9
423.706	9.9
423.911	9.91
424.117	9.88
424.322	9.96
424.527	9.86
424.733	9.87
424.938	9.87
425.143	10.02
425.349	10.03
425.554	10.01
425.759	10.08
425.964	10.06
426.169	10.07
426.375	10.13
426.58	10.09
426.785	10.14
426.99	10.2
427.195	10.29
427.4	10.08
427.605	10.16
427.811	10.18
428.016	10.15
428.221	10.2
428.426	10.17
428.631	10.04
428.836	10.07
429.041	10.04
429.246	10.08
429.451	9.98
429.656	10.04
429.861	10
430.066	9.97
430.271	9.87
430.476	9.85
430.681	9.91
430.886	9.93
431.09	9.93
431.295	9.95
431.5	9.79
431.705	9.78
431.91	9.68
432.115	9.61
432.32	9.56
432.524	9.55
432.729	9.6
432.934	9.59
433.139	9.6
433.343	9.51
433.548	9.48
433.753	9.6
433.958	9.72
434.162	9.87
434.367	9.92
434.572	9.89
434.776	9.85
434.981	9.74
435.186	9.63
435.39	9.65
435.595	9.76
435.799	9.76
436.004	9.58
436.209	9.42
436.413	9.37
436.618	9.38
436.822	9.36
437.027	9.39
437.231	9.45
437.436	9.51
437.64	9.44
437.845	9.32
438.049	9.28
438.253	9.36
438.458	9.43
438.662	9.37
438.867	9.42
439.071	9.52
439.275	9.48
439.48	9.47
439.684	9.44
439.888	9.44
440.093	9.49
440.297	9.51
440.501	9.54
440.706	9.49
440.91	9.61
441.114	9.43
441.318	9.42
441.523	9.46
441.727	9.41
441.931	9.39
442.135	9.43
442.339	9.4
442.543	9.38
442.748	9.32
442.952	9.34
443.156	9.25
443.36	9.3
443.564	9.28
443.768	9.29
443.972	9.23
444.176	9.28
444.38	9.23
444.584	9.28
444.788	9.21
444.992	9.17
445.196	9.13
445.4	9.05
445.604	9.05
445.808	9
446.012	8.94
446.216	8.98
446.42	8.95
446.624	8.93
446.828	8.83
447.032	8.88
447.235	8.85
447.439	8.85
447.643	8.97
447.847	8.99
448.051	9.1
448.254	9.11
448.458	9.21
448.662	9.22
448.866	9.28
449.069	9.26
449.273	9.24
449.477	9.32
449.681	9.36
449.884	9.29
450.088	9.26
450.292	9.12
450.495	9.18
450.699	9.12
450.902	9.08
451.106	8.84
451.31	9
451.513	8.99
451.717	8.94
451.92	8.93
452.124	9
452.327	9
452.531	8.92
452.734	8.95
452.938	8.87
453.141	8.83
453.345	8.94
453.548	8.93
453.752	9.02
453.955	9.05
454.158	8.93
454.362	8.81
454.565	8.91
454.769	9.15
454.972	9.14
455.175	9.18
455.379	9.25
455.582	9.35
455.785	9.16
455.988	9.04
456.192	8.95
456.395	9.04
456.598	8.93
456.801	8.87
457.005	8.78
457.208	8.71
457.411	8.7
457.614	8.66
457.817	8.63
458.021	8.56
458.224	8.63
458.427	8.67
458.63	8.67
458.833	8.74
459.036	8.68
459.239	8.61
459.442	8.55
459.645	8.51
459.848	8.54
460.051	8.5
460.254	8.63
460.457	8.58
460.66	8.6
460.863	8.69
461.066	8.78
461.269	8.82
461.472	8.9
461.675	8.97
461.878	9.05
462.081	9.04
462.284	9.06
462.486	9.03
462.689	9.14
462.892	9.13
463.095	9.01
463.298	8.93
463.5	9.04
463.703	9.05
463.906	9.14
464.109	9.09
464.311	9.13
464.514	9.2
464.717	9.29
464.92	9.2
465.122	9.21
465.325	9.36
465.528	9.46
465.73	9.47
465.933	9.5
466.135	9.59
466.338	9.54
466.541	9.54
466.743	9.49
466.946	9.47
467.148	9.53
467.351	9.53
467.553	9.44
467.756	9.28
467.958	9.16
468.161	9.19
468.363	9.07
468.566	9.18
468.768	9.23
468.971	9.23
469.173	9.19
469.375	9.12
469.578	8.92
469.78	8.8
469.983	8.86
470.185	8.88
470.387	8.77
470.59	8.76
470.792	8.81
470.994	8.75
471.196	8.68
471.399	8.79
471.601	8.69
471.803	8.89
472.005	9.02
472.208	8.95
472.41	8.99
472.612	9.02
472.814	9.1
473.016	9.1
473.218	9.21
473.421	9.26
473.623	9.16
473.825	9.25
474.027	9.2
474.229	9.1
474.431	9.18
474.633	9.22
474.835	9.16
475.037	9.08
475.239	9.01
475.441	8.91
475.643	9.01
475.845	9.03
476.047	8.99
476.249	9.01
476.451	9.07
476.653	9.07
476.855	9.01
477.057	9.05
477.258	9.13
477.46	9.07
477.662	9.16
477.864	9.03
478.066	9.02
478.268	9.08
478.469	9.09
478.671	9.11
478.873	9.04
479.075	9.06
479.276	9.03
479.478	8.93
479.68	8.91
479.882	8.82
480.083	8.82
480.285	8.84
480.487	8.81
480.688	8.84
480.89	8.9
481.091	8.85
481.293	8.78
481.495	8.78
481.696	8.77
481.898	8.71
482.099	8.69
482.301	8.72
482.502	8.65
482.704	8.61
482.905	8.54
483.107	8.45
483.308	8.47
483.51	8.46
483.711	8.42
483.913	8.36
484.114	8.4
484.315	8.41
484.517	8.36
484.718	8.38
484.92	8.43
485.121	8.49
485.322	8.53
485.524	8.52
485.725	8.55
485.926	8.54
486.127	8.57
486.329	8.55
486.53	8.52
486.731	8.53
486.932	8.53
487.134	8.53
487.335	8.49
487.536	8.49
487.737	8.48
487.938	8.45
488.139	8.47
488.341	8.51
488.542	8.54
488.743	8.57
488.944	8.59
489.145	8.64
489.346	8.61
489.547	8.63
489.748	8.65
489.949	8.69
490.15	8.7
490.351	8.71
490.552	8.75
490.753	8.73
490.954	8.71
491.155	8.73
491.356	8.69
491.557	8.7
491.758	8.76
491.959	8.77
492.159	8.76
492.36	8.77
492.561	8.84
492.762	8.91
492.963	8.95
493.164	9
493.364	9.01
493.565	9.1
493.766	9.22
493.967	9.17
494.167	9.23
494.368	9.25
494.569	9.32
494.769	9.23
494.97	9.16
495.171	9.22
495.371	9.2
495.572	9.23
495.773	9.24
495.973	9.14
496.174	9.21
496.375	9.2
496.575	9.19
496.776	9.2
496.976	9.3
497.177	9.34
497.377	9.32
497.578	9.39
497.778	9.35
497.979	9.32
498.179	9.44
498.38	9.48
498.58	9.43
498.78	9.54
498.981	9.59
499.181	9.66
499.382	9.66
499.582	9.72
499.782	9.71
499.983	9.79
500.183	9.91
500.383	9.94
500.584	9.93
500.784	10.02
500.984	10.02
501.184	10.01
501.385	9.94
501.585	9.99
501.785	9.96
501.985	10.03
502.185	9.97
502.386	10
502.586	9.92
502.786	9.94
502.986	9.99
503.186	9.95
503.386	9.98
503.586	9.99
503.786	9.99
503.987	10.06
504.187	10.06
504.387	10.14
504.587	10.14
504.787	10.19
504.987	10.25
505.187	10.31
505.387	10.31
505.587	10.39
505.786	10.45
505.986	10.43
506.186	10.45
506.386	10.63
506.586	10.67
506.786	10.64
506.986	10.64
507.186	10.62
507.386	10.58
507.585	10.61
507.785	10.58
507.985	10.53
508.185	10.58
508.384	10.58
508.584	10.47
508.784	10.49
508.984	10.52
509.183	10.6
509.383	10.66
509.583	10.66
509.782	10.68
509.982	10.74
510.182	10.84
510.381	10.92
510.581	11
510.781	11.01
510.98	11.09
511.18	11.21
511.379	11.24
511.579	11.3
511.778	11.42
511.978	11.42
512.177	11.43
512.377	11.43
512.576	11.37
512.776	11.41
512.975	11.52
513.175	11.45
513.374	11.42
513.573	11.51
513.773	11.5
513.972	11.49
514.172	11.61
514.371	11.77
514.57	11.84
514.77	11.86
514.969	11.88
515.168	11.85
515.367	11.94
515.567	11.88
515.766	11.82
515.965	11.8
516.164	11.75
516.364	11.75
516.563	11.67
516.762	11.71
516.961	11.78
517.16	11.75
517.359	11.75
517.559	11.77
517.758	11.85
517.957	11.84
518.156	11.9
518.355	12
518.554	12.03
518.753	12.13
518.952	12.16
519.151	12.12
519.35	12.16
519.549	12.22
519.748	12.21
519.947	12.21
520.146	12.29
520.345	12.32
520.544	12.31
520.743	12.33
520.942	12.25
521.141	12.21
521.339	12.29
521.538	12.34
521.737	12.34
521.936	12.43
522.135	12.42
522.333	12.44
522.532	12.36
522.731	12.33
522.93	12.36
523.129	12.42
523.327	12.4
523.526	12.43
523.725	12.41
523.923	12.48
524.122	12.37
524.321	12.39
524.519	12.39
524.718	12.5
524.917	12.53
525.115	12.53
525.314	12.54
525.512	12.59
525.711	12.57
525.909	12.57
526.108	12.5
526.306	12.56
526.505	12.56
526.703	12.6
526.902	12.59
527.1	12.57
527.299	12.54
527.497	12.52
527.696	12.52
527.894	12.56
528.092	12.56
528.291	12.61
528.489	12.64
528.688	12.71
528.886	12.71
529.084	12.73
529.283	12.81
529.481	12.93
529.679	13.03
529.877	13.1
530.076	13.11
530.274	13.2
530.472	13.21
530.67	13.23
530.869	13.2
531.067	13.21
531.265	13.15
531.463	13.13
531.661	13.11
531.859	13.13
532.057	13.09
532.255	13.11
532.454	13.1
532.652	13.11
532.85	13.15
533.048	13.21
533.246	13.27
533.444	13.38
533.642	13.44
533.84	13.47
534.038	13.5
534.236	13.57
534.434	13.65
534.632	13.62
534.83	13.63
535.027	13.65
535.225	13.56
535.423	13.57
535.621	13.61
535.819	13.6
536.017	13.67
536.215	13.72
536.412	13.75
536.61	13.79
536.808	13.9
537.006	14
537.203	14.08
537.401	14.27
537.599	14.28
537.797	14.32
537.994	14.4
538.192	14.34
538.39	14.31
538.587	14.32
538.785	14.27
538.983	14.29
539.18	14.24
539.378	14.15
539.575	14.09
539.773	14.04
539.97	14.02
540.168	14.01
540.366	14.02
540.563	14.07
540.761	14.07
540.958	14.09
541.155	14.1
541.353	14.17
541.55	14.24
541.748	14.32
541.945	14.38
542.143	14.39
542.34	14.45
542.537	14.47
542.735	14.45
542.932	14.53
543.129	14.56
543.327	14.65
543.524	14.68
543.721	14.72
543.919	14.78
544.116	14.89
544.313	15.03
544.51	15.03
544.708	15.11
544.905	15.16
545.102	15.24
545.299	15.31
545.496	15.31
545.693	15.29
545.891	15.32
546.088	15.3
546.285	15.29
546.482	15.28
546.679	15.31
546.876	15.28
547.073	15.38
547.27	15.37
547.467	15.45
547.664	15.53
547.861	15.69
548.058	15.74
548.255	15.87
548.452	15.96
548.649	16.13
548.846	16.18
549.043	16.32
549.24	16.37
549.437	16.45
549.633	16.36
549.83	16.36
550.027	16.3
550.224	16.33
550.421	16.19
550.618	16.21
550.814	16.14
551.011	16.21
551.208	16.24
551.405	16.26
551.601	16.19
551.798	16.4
551.995	16.4
552.191	16.51
552.388	16.51
552.585	16.57
552.781	16.63
552.978	16.78
553.175	16.89
553.371	16.94
553.568	16.98
553.764	17.1
553.961	16.93
554.157	17.03
554.354	17.03
554.55	17.3
554.747	17.48
554.943	17.53
555.14	17.4
555.336	17.41
555.533	17.43
555.729	17.58
555.926	17.6
556.122	17.8
556.318	17.87
556.515	17.99
556.711	17.82
556.907	17.78
557.104	17.96
557.3	18.05
557.496	18.13
557.693	18.23
557.889	18.2
558.085	18.1
558.281	18.23
558.478	18.33
558.674	18.23
558.87	18.37
559.066	18.48
559.262	18.43
559.459	18.49
559.655	18.51
559.851	18.58
560.047	18.61
560.243	18.78
560.439	18.71
560.635	18.75
560.831	18.82
561.027	18.78
561.223	18.77
561.419	18.75
561.615	18.83
561.811	18.9
562.007	18.97
562.203	19.08
562.399	19.08
562.595	19.09
562.791	19.15
562.987	19.37
563.183	19.44
563.379	19.6
563.575	19.76
563.771	19.83
563.966	19.84
564.162	19.88
564.358	19.82
564.554	19.89
564.75	19.96
564.945	20.01
565.141	19.9
565.337	19.98
565.533	19.91
565.728	19.85
565.924	19.97
566.12	20.05
566.315	20.15
566.511	20.22
566.707	20.33
566.902	20.34
567.098	20.34
567.293	20.55
567.489	20.47
567.684	20.56
567.88	20.63
568.076	20.6
568.271	20.61
568.467	20.53
568.662	20.65
568.858	20.69
569.053	20.71
569.248	20.8
569.444	20.7
569.639	20.89
569.835	20.98
570.03	21.05
570.225	20.93
570.421	21
570.616	21.04
570.812	21.11
571.007	21.13
571.202	21.17
571.397	21.3
571.593	21.33
571.788	21.28
571.983	21.29
572.178	21.48
572.374	21.68
572.569	21.82
572.764	22.02
572.959	21.95
573.154	22.04
573.35	22.14
573.545	22.13
573.74	22.24
573.935	22.33
574.13	22.33
574.325	22.19
574.52	22.2
574.715	22.19
574.91	22.15
575.105	22.36
575.3	22.45
575.495	22.63
575.69	22.68
575.885	22.84
576.08	23.03
576.275	23.2
576.47	23.35
576.665	23.44
576.86	23.58
577.055	23.52
577.25	23.59
577.444	23.63
577.639	23.68
577.834	23.77
578.029	23.68
578.224	23.65
578.418	23.83
578.613	23.96
578.808	24.05
579.003	23.99
579.197	24.17
579.392	24.09
579.587	24.17
579.781	24.15
579.976	24.15
580.171	24.18
580.365	24.14
580.56	24.13
580.755	24.13
580.949	24.17
581.144	24.14
581.338	24.2
581.533	24.36
581.727	24.41
581.922	24.38
582.116	24.48
582.311	24.55
582.505	24.7
582.7	24.54
582.894	24.67
583.089	24.6
583.283	24.82
583.478	24.9
583.672	24.86
583.866	24.81
584.061	24.93
584.255	24.87
584.449	25.04
584.644	25.1
584.838	25.22
585.032	25.19
585.226	25.32
585.421	25.39
585.615	25.36
585.809	25.41
586.003	25.47
586.198	25.49
586.392	25.57
586.586	25.46
586.78	25.42
586.974	25.57
587.168	25.48
587.363	25.46
587.557	25.39
587.751	25.5
587.945	25.53
588.139	25.53
588.333	25.58
588.527	25.73
588.721	25.79
588.915	25.95
589.109	25.97
589.303	26.1
589.497	26.11
589.691	26.17
589.885	26.05
590.079	25.93
590.273	25.96
590.466	25.86
590.66	25.71
590.854	25.9
591.048	25.83
591.242	25.77
591.436	25.61
591.629	25.86
591.823	25.81
592.017	25.93
592.211	26.09
592.404	26.15
592.598	26.25
592.792	26.27
592.986	26.03
593.179	25.92
593.373	25.98
593.567	26.08
593.76	25.88
593.954	25.97
594.147	26.08
594.341	25.93
594.535	25.99
594.728	25.87
594.922	25.87
595.115	25.9
595.309	26.05
595.502	26.08
595.696	26.14
595.889	26.2
596.083	26.13
596.276	26.11
596.47	26.31
596.663	26.25
596.856	26.42
597.05	26.64
597.243	26.8
597.437	26.82
597.63	26.72
597.823	26.75
598.017	26.72
598.21	26.87
598.403	26.89
598.596	26.72
598.79	26.68
598.983	26.58
599.176	26.44
599.369	26.52
599.563	26.5
599.756	26.6
599.949	26.59
600.142	26.55
600.335	26.63
600.528	26.49
600.722	26.72
600.915	26.88
601.108	27.05
601.301	26.96
601.494	26.76
601.687	26.75
601.88	26.87
602.073	26.75
602.266	26.84
602.459	26.69
602.652	26.79
602.845	26.8
603.038	26.84
603.231	26.76
603.424	26.86
603.617	26.98
603.809	27.05
604.002	26.94
604.195	27.12
604.388	27.19
604.581	27.24
604.774	27.27
604.966	27.21
605.159	27.06
605.352	27.07
605.545	27.15
605.737	27.06
605.93	27.16
606.123	27.27
606.316	27.4
606.508	27.4
606.701	27.56
606.894	27.54
607.086	27.65
607.279	27.81
607.471	27.78
607.664	27.76
607.857	27.84
608.049	27.83
608.242	27.86
608.434	27.65
608.627	27.67
608.819	27.55
609.012	27.52
609.204	27.47
609.397	27.4
609.589	27.52
609.782	27.45
609.974	27.5
610.166	27.48
610.359	27.44
610.551	27.49
610.743	27.44
610.936	27.42
611.128	27.48
611.32	27.59
611.513	27.75
611.705	27.72
611.897	27.86
612.09	27.96
612.282	28.03
612.474	28.06
612.666	28.17
612.858	28.52
613.051	28.83
613.243	28.9
613.435	28.94
613.627	28.75
613.819	28.77
614.011	29.26
614.203	29.36
614.395	29.44
614.588	29.44
614.78	29.29
614.972	29.2
615.164	28.97
615.356	28.9
615.548	28.68
615.74	28.99
615.932	28.89
616.124	28.45
616.315	28.6
616.507	28.65
616.699	28.73
616.891	28.82
617.083	28.82
617.275	28.96
617.467	29.06
617.659	29.38
617.85	29.39
618.042	29.68
618.234	29.64
618.426	29.33
618.618	29.25
618.809	29.17
619.001	29.17
619.193	29.09
619.384	29.09
619.576	29.28
619.768	29.16
619.959	28.99
620.151	28.83
620.343	28.92
620.534	28.83
620.726	28.75
620.917	28.93
621.109	28.91
621.301	28.98
621.492	28.95
621.684	28.56
621.875	28.63
622.067	28.61
622.258	28.59
622.45	28.61
622.641	28.57
622.832	28.47
623.024	28.22
623.215	28.38
623.407	28.25
623.598	28.21
623.789	28.41
623.981	28.08
624.172	28.06
624.363	27.91
624.555	27.92
624.746	27.82
624.937	27.96
625.129	28.23
625.32	28.2
625.511	28.17
625.702	28.1
625.893	28.26
626.085	28.53
626.276	28.62
626.467	28.79
626.658	28.66
626.849	28.88
627.04	28.96
627.231	28.95
627.422	28.86
627.614	28.93
627.805	28.99
627.996	28.81
628.187	28.67
628.378	28.56
628.569	28.58
628.76	28.49
628.951	28.49
629.142	28.3
629.332	28.07
629.523	28.2
629.714	28.11
629.905	28.23
630.096	28.19
630.287	28.34
630.478	28.37
630.669	28.38
630.859	28.77
631.05	28.64
631.241	28.8
631.432	28.93
631.623	28.82
631.813	28.82
632.004	28.68
632.195	28.62
632.385	28.52
632.576	28.59
632.767	28.6
632.957	28.46
633.148	28.73
633.339	28.67
633.529	28.8
633.72	28.83
633.91	28.9
634.101	28.94
634.292	29.1
634.482	29.13
634.673	29.3
634.863	29.23
635.054	29.25
635.244	29.04
635.435	29.03
635.625	28.79
635.815	28.8
636.006	28.86
636.196	28.86
636.387	28.79
636.577	28.74
636.767	28.8
636.958	29.11
637.148	29.1
637.338	29.29
637.529	29.26
637.719	29.43
637.909	29.49
638.099	29.59
638.29	29.87
638.48	29.95
638.67	30.19
638.86	30.22
639.05	29.96
639.241	30.04
639.431	29.88
639.621	29.98
639.811	29.88
640.001	29.83
640.191	29.71
640.381	29.37
640.571	29.43
640.761	29.28
640.951	29.07
641.141	29.2
641.331	28.91
641.521	29.12
641.711	29.17
641.901	29.2
642.091	29.39
642.281	29.29
642.471	29.25
642.661	29.39
642.851	29.61
643.041	29.42
643.231	29.36
643.42	29.55
643.61	29.52
643.8	29.35
643.99	29.37
644.18	29.25
644.369	29.43
644.559	30.1
644.749	29.96
644.939	29.47
645.128	29.63
645.318	29.49
645.508	29.64
645.697	29.52
645.887	29.74
646.076	29.83
646.266	29.65
646.456	29.52
646.645	29.35
646.835	29.36
647.024	29.51
647.214	29.63
647.403	29.79
647.593	29.71
647.782	30.02
647.972	29.93
648.161	29.93
648.351	30.07
648.54	30.1
648.73	29.71
648.919	29.65
649.108	29.71
649.298	29.7
649.487	29.76
649.677	29.66
649.866	29.38
650.055	29.5
650.244	29.48
650.434	29.5
650.623	29.35
650.812	29.35
651.002	29.21
651.191	29.24
651.38	29.08
651.569	28.88
651.758	28.93
651.947	29
652.137	28.75
652.326	28.81
652.515	28.77
652.704	29.01
652.893	29.22
653.082	29.31
653.271	29.32
653.46	29.49
653.649	29.67
653.838	29.56
654.027	29.51
654.216	29.52
654.405	29.52
654.594	29.48
654.783	29.28
654.972	29.12
655.161	29.29
655.35	29.2
655.539	29.13
655.728	29.05
655.916	29.23
656.105	29.07
656.294	29.32
656.483	29.29
656.672	29.31
656.86	29.06
657.049	28.89
657.238	28.94
657.427	28.86
657.615	28.8
657.804	28.82
657.993	28.68
658.181	28.73
658.37	28.53
658.559	28.42
658.747	28.49
658.936	28.77
659.125	29.15
659.313	29.09
659.502	29.18
659.69	29.24
659.879	29.56
660.067	29.67
660.256	29.9
660.444	30.16
660.633	30.38
660.821	30.38
661.01	30.43
661.198	30.24
661.387	30.21
661.575	30.35
661.763	30.75
661.952	30.43
662.14	30.51
662.328	30.17
662.517	30.01
662.705	29.84
662.893	29.64
663.082	29.87
663.27	30.14
663.458	30.16
663.646	30.13
663.834	30.01
664.023	29.98
664.211	30.12
664.399	30.42
664.587	30.31
664.775	30.28
664.963	30.55
665.152	30.46
665.34	30.5
665.528	30.38
665.716	30.36
665.904	30.26
666.092	30.21
666.28	29.86
666.468	29.62
666.656	29.66
666.844	29.81
667.032	29.99
667.22	29.98
667.408	29.93
667.596	30.18
667.784	30.21
667.971	30.37
668.159	30.34
668.347	30.56
668.535	30.72
668.723	31.01
668.911	31.11
669.098	31.09
669.286	31.18
669.474	30.98
669.662	30.92
669.849	30.9
670.037	30.83
670.225	30.91
670.413	30.63
670.6	30.65
670.788	30.38
670.976	30.29
671.163	29.91
671.351	29.83
671.538	29.84
671.726	29.72
671.913	29.92
672.101	29.47
672.289	29.31
672.476	29.23
672.664	29.29
672.851	29.2
673.039	29.12
673.226	29.36
673.413	29.24
673.601	29.07
673.788	29.29
673.976	29.26
674.163	29.54
674.35	29.62
674.538	30.01
674.725	30.04
674.912	30.22
675.1	30.22
675.287	30.48
675.474	30.43
675.662	31.04
675.849	30.74
676.036	30.49
676.223	30.72
676.411	30.72
676.598	30.52
676.785	30.43
676.972	30.43
677.159	30.68
677.346	30.41
677.533	30.41
677.721	30.01
677.908	30.23
678.095	30.35
678.282	30.22
678.469	30.36
678.656	30.56
678.843	30.47
679.03	30.32
679.217	30.46
679.404	30.46
679.591	30.49
679.778	30.6
679.964	30.55
680.151	30.5
680.338	30.21
680.525	30.26
680.712	30.36
680.899	30.58
681.086	30.91
681.272	30.71
681.459	30.88
681.646	30.79
681.833	30.63
682.02	30.69
682.206	30.86
682.393	31.44
682.58	31.45
682.766	31.41
682.953	31.46
683.14	31.53
683.326	31.93
683.513	31.76
683.7	32.31
683.886	32.21
684.073	32.43
684.259	32.15
684.446	31.84
684.632	31.9
684.819	31.75
685.005	31.55
685.192	31.24
685.378	30.96
685.565	31.08
685.751	30.54
685.938	30.92
686.124	30.65
686.31	30.81
686.497	30.86
686.683	30.48
686.87	30.59
687.056	30.67
687.242	30.57
687.429	30.4
687.615	30.55
687.801	30.79
687.987	30.6
688.174	30.78
688.36	30.77
688.546	30.89
688.732	31.14
688.918	31
689.105	30.99
689.291	31.09
689.477	31.36
689.663	31.46
689.849	31.32
690.035	31.19
690.221	31
690.407	31.71
690.593	31.75
690.779	31.78
690.965	31.94
691.151	31.98
691.337	32.08
691.523	31.7
691.709	31.22
691.895	31.43
692.081	31.37
692.267	31.38
692.453	30.92
692.639	30.72
692.825	30.88
693.011	30.71
693.196	30.61
693.382	30.48
693.568	30.7
693.754	30.85
693.94	30.7
694.125	31.08
694.311	30.73
694.497	30.34
694.682	30.64
694.868	30.37
695.054	30.34
695.239	30.52
695.425	30.59
695.611	30.62
695.796	30.63
695.982	30.7
696.168	30.43
696.353	30.65
696.539	30.79
696.724	30.39
696.91	30.44
697.095	30.5
697.281	30.41
697.466	30.38
697.652	30.28
697.837	30.1
698.023	30.01
698.208	29.89
698.393	29.8
698.579	29.71
698.764	29.72
698.949	29.55
699.135	29.48
699.32	29.43
699.505	29.4
699.691	29.35
699.876	29.52
700.061	29.82
700.246	30.01
700.432	30.29
700.617	30.36
700.802	30.8
700.987	31.19
701.172	31.66
701.358	31.84
701.543	31.87
701.728	32.13
701.913	31.97
702.098	31.94
702.283	32.21
702.468	32.06
702.653	31.92
702.838	31.79
703.023	31.98
703.208	31.71
703.393	31.45
703.578	31.87
703.763	31.67
703.948	31.83
704.133	31.6
704.318	31.16
704.503	31.32
704.688	31.86
704.873	31.57
705.057	31.12
705.242	30.97
705.427	31.39
705.612	31.33
705.797	31.48
705.981	31.62
706.166	31.66
706.351	32.02
706.536	32.07
706.72	31.83
706.905	31.94
707.09	31.83
707.274	31.96
707.459	31.56
707.644	31.46
707.828	31.28
708.013	31.57
708.197	31.51
708.382	31.24
708.567	31.32
708.751	31.1
708.936	30.96
709.12	31.38
709.305	31.29
709.489	32.04
709.673	32.1
709.858	32.18
710.042	32.24
710.227	32.24
710.411	32.35
710.596	32.38
710.78	32.5
710.964	32.89
711.149	33.16
711.333	33.29
711.517	32.72
711.702	32.75
711.886	32.67
712.07	32.54
712.254	32.66
712.438	32.8
712.623	32.49
712.807	32.55
712.991	32.7
713.175	32.47
713.359	32.33
713.544	32.5
713.728	32.19
713.912	32.21
714.096	32.06
714.28	31.73
714.464	31.41
714.648	31.37
714.832	31.61
715.016	31.59
715.2	31.44
715.384	31.2
715.568	31.07
715.752	31.13
715.936	31.51
716.12	31.5
716.304	31.92
716.488	32.36
716.671	32.76
716.855	32.87
717.039	32.54
717.223	32.49
717.407	32.98
717.59	32.87
717.774	33.23
717.958	32.8
718.142	32.76
718.325	32.35
718.509	32.03
718.693	32.03
718.877	31.18
719.06	31.35
719.244	31.57
719.428	31.56
719.611	31.89
719.795	31.59
719.978	32.23
720.162	32.62
720.345	33.33
720.529	33.49
720.713	33.3
720.896	33.89
721.08	33.88
721.263	34.13
721.446	34.41
721.63	34.24
721.813	34.24
721.997	33.45
722.18	32.96
722.364	32.53
722.547	32.57
722.73	32.72
722.914	32.84
723.097	32.72
723.28	32.42
723.464	32.05
723.647	31.83
723.83	31.66
724.013	32.01
724.197	32
724.38	32.51
724.563	32.75
724.746	32.76
724.929	32.86
725.112	33.08
725.296	32.76
725.479	32.51
725.662	32.65
725.845	33.13
726.028	32.7
726.211	32.63
726.394	32.14
726.577	31.58
726.76	31.37
726.943	31.05
727.126	30.61
727.309	30.91
727.492	31.2
727.675	31.29
727.858	30.74
728.041	31.14
728.224	31.5
728.407	31.16
728.589	31.63
728.772	31.57
728.955	31.88
729.138	31.94
729.321	31.44
729.503	31.73
729.686	31.59
729.869	31.65
730.052	31.68
730.234	31.58
730.417	31.9
730.6	31.75
730.782	31.68
730.965	31.51
731.148	32.1
731.33	32.56
731.513	32.22
731.695	32.61
731.878	32.92
732.061	32.69
732.243	32.82
732.426	32.9
732.608	32.86
732.791	33.18
732.973	32.96
733.156	32.74
733.338	32.94
733.52	32.93
733.703	32.53
733.885	32.74
734.068	32.77
734.25	32.27
734.432	32.27
734.615	32.11
734.797	32.04
734.979	32.03
735.162	31.69
735.344	31.05
735.526	31.15
735.708	31.26
735.891	30.96
736.073	30.93
736.255	31.6
736.437	31.29
736.619	31.19
736.802	31.16
736.984	31.65
737.166	32.15
737.348	32.13
737.53	32.53
737.712	32.24
737.894	32.25
738.076	32.65
738.258	32.25
738.44	32.04
738.622	32.65
738.804	32.47
738.986	32.06
739.168	31.49
739.35	31.82
739.532	31.32
739.714	32.3
739.896	32.18
740.078	31.83
740.259	31.68
740.441	32.25
740.623	31.97
740.805	32.19
740.987	32.89
741.168	33.25
741.35	33.56
741.532	33.68
741.714	32.98
741.895	33.25
742.077	32.87
742.259	33.23
742.44	33.42
742.622	33.69
742.804	33.88
742.985	33.27
743.167	33.19
743.348	32.88
743.53	33.02
743.711	33.07
743.893	33.1
744.075	33.33
744.256	33.77
744.438	34.52
744.619	34.09
744.8	33.99
744.982	33.6
745.163	33.6
745.345	33.63
745.526	33.81
745.707	34.29
745.889	34.16
746.07	34.29
746.252	34.19
746.433	32.76
746.614	33.37
746.795	33.21
746.977	33.53
747.158	33.13
747.339	33.86
747.52	33.94
747.702	33.37
747.883	33.17
748.064	33.54
748.245	33.62
748.426	33.89
748.607	33.41
748.788	33.19
748.97	33.77
749.151	34.02
749.332	33.75
749.513	33.12
749.694	33.3
749.875	34.06
750.056	33.82
750.237	32.89
750.418	33.01
750.599	32.63
750.78	32.29
750.96	31.4
751.141	31.7
751.322	31.08
751.503	30.93
751.684	31.08
751.865	30.21
752.046	30.24
752.226	30.74
752.407	31.07
752.588	31.79
752.769	32.56
752.949	32.13
753.13	32.51
753.311	32.35
753.492	32.41
753.672	32.26
753.853	33.2
754.034	32.94
754.214	33.98
754.395	33.5
754.575	33.98
754.756	33.31
754.937	34.06
755.117	33.06
755.298	33.3
755.478	33.48
755.659	33.17
755.839	32.77
756.02	32.99
756.2	31.98
756.381	31.69
756.561	30.98
756.741	31.59
756.922	32.64
757.102	33.61
757.283	34.57
757.463	34.9
757.643	35.55
757.823	35.48
758.004	35.08
758.184	35.06
758.364	36.19
758.545	36.19
758.725	36.01
758.905	34.77
759.085	34.33
759.265	33.56
759.446	33.31
759.626	32.99
759.806	32.73
759.986	32.95
760.166	32.5
760.346	31.2
760.526	31.19
760.706	31.21
760.886	31.46
761.066	31.99
761.246	32.04
761.426	31.6
761.606	30.86
761.786	31.2
761.966	30.97
762.146	30.72
762.326	31.55
762.506	31.53
762.686	31.5
762.866	31.43
763.046	30.72
763.225	30.76
763.405	30.84
763.585	31
763.765	30.58
763.945	30.36
764.124	30.63
764.304	30.53
764.484	31.34
764.664	31.28
764.843	31.65
765.023	32.11
765.203	31.9
765.382	32.03
765.562	32.51
765.741	32.77
765.921	33.82
766.101	34.29
766.28	34.05
766.46	33.26
766.639	33.17
766.819	32.37
766.998	32.54
767.178	32.43
767.357	32.72
767.537	32.98
767.716	33.26
767.896	32.76
768.075	32.33
768.254	31.6
768.434	32.27
768.613	32.84
768.792	33.39
768.972	33.89
769.151	33.84
769.33	34.02
769.51	34.21
769.689	34.3
769.868	34.34
770.047	34.99
770.226	35.7
770.406	34.75
770.585	35.1
770.764	34.96
770.943	34.7
771.122	34.56
771.301	34.75
771.48	34.38
771.66	34.27
771.839	34.43
772.018	34.28
772.197	34.57
772.376	34.86
772.555	34.55
772.734	35.09
772.913	34.17
773.092	35.06
773.271	34.11
773.449	34.93
773.628	34.68
773.807	34.23
773.986	33.74
774.165	33.55
774.344	33.79
774.523	33.37
774.701	33.44
774.88	34.25
775.059	33.43
775.238	34.23
775.417	33.37
775.595	33.79
775.774	34.03
775.953	34.04
776.131	34.6
776.31	34.54
776.489	34.74
776.667	34.09
776.846	33.37
777.025	33.43
777.203	32.44
777.382	32.17
777.56	30.95
777.739	31.49
777.917	31.51
778.096	31.66
778.274	31.64
778.453	31.84
778.631	32.8
778.81	33.8
778.988	35.03
779.166	35.42
779.345	35.46
779.523	36.76
779.702	37.17
779.88	36.96
780.058	36.05
780.237	36.18
780.415	37.01
780.593	36.5
780.771	35.27
780.95	35.3
781.128	36.51
781.306	37.58
781.484	37.85
781.662	37.78
781.841	38.77
782.019	38.61
782.197	37.62
782.375	35.68
782.553	35.02
782.731	35.67
782.909	35.27
783.087	34.92
783.265	34.08
783.443	32.52
783.621	32.46
783.799	31.56
783.977	32.95
784.155	33.4
784.333	34.53
784.511	36.34
784.689	35.83
784.867	35.46
785.045	34.83
785.223	35.29
785.4	36.51
785.578	36.32
785.756	37.08
785.934	35.38
786.112	35.25
786.289	35.03
786.467	33.65
786.645	34.93
786.823	35.18
787	36.06
787.178	35.6
787.356	35.13
787.533	34.53
787.711	34.55
787.889	35.49
788.066	34.95
788.244	34.31
788.421	34.36
788.599	33.16
788.776	32.99
788.954	32.62
789.131	31.67
789.309	32.61
789.486	33.62
789.664	34.02
789.841	34.67
790.019	35.78
790.196	36.51
790.373	37.48
790.551	39.42
790.728	39.25
790.906	39.86
791.083	41.28
791.26	40.47
791.437	40.34
791.615	38.94
791.792	38.58
791.969	38.32
792.146	38.2
792.324	37.68
792.501	36.05
792.678	36.29
792.855	34.96
793.032	35.07
793.209	35.23
793.387	35.06
793.564	35.1
793.741	34.63
793.918	33.99
794.095	33.9
794.272	33.45
794.449	33.95
794.626	34.08
794.803	34.39
794.98	34.48
795.157	34.21
795.334	34.67
795.511	36.05
795.688	36.4
795.864	36.9
796.041	37.05
796.218	37.79
796.395	37.14
796.572	36.47
796.749	36.63
796.925	36.39
797.102	38.27
797.279	37.4
797.456	36.72
797.632	35.82
797.809	35.66
797.986	36.33
798.162	34.89
798.339	34.66
798.516	35.19
798.692	36.07
798.869	35.26
799.046	33.01
799.222	33.03
799.399	32.66
799.575	33.6
799.752	33.44
799.928	32.62
800.105	34.06
800.281	34.56
800.458	34.06
800.634	32.77
800.811	33.76
800.987	35.07
801.163	35.53
801.34	36.6
801.516	36.55
801.692	37.37
801.869	38.21
802.045	38.85
802.221	38.79
802.398	39.05
802.574	39.48
802.75	39.45
802.926	38.47
803.103	38.87
803.279	37.13
803.455	36.51
803.631	37.5
803.807	38.47
803.983	37.83
804.16	36.91
804.336	37.33
804.512	36.65
804.688	37.78
804.864	38.35
805.04	37.48
805.216	37.75
805.392	38.19
805.568	37.82
805.744	36.77
805.92	37.36
806.096	38.59
806.272	39.63
806.448	41.53
806.623	40.94
806.799	41.5
806.975	41.05
807.151	41.15
807.327	41.38
807.503	39.98
807.678	39.94
807.854	39.57
808.03	39.32
808.206	38.37
808.381	36.87
808.557	37.08
808.733	36.35
808.908	37.62
809.084	38.51
809.26	37.86
809.435	39.18
809.611	39.31
809.787	36.58
809.962	36.94
810.138	36.82
810.313	38.18
810.489	38.2
810.664	38.73
810.84	37.4
811.015	37.69
811.191	38.48
811.366	38.18
811.542	37.3
811.717	40.37
811.892	40.96
812.068	41.82
812.243	39.6
812.419	40.22
812.594	40.78
812.769	41.69
812.944	41.25
813.12	40.96
813.295	40.15
813.47	39.33
813.645	38.64
813.821	37.33
813.996	37.49
814.171	38.82
814.346	37.06
814.521	36.07
814.697	36.63
814.872	35.92
815.047	36.39
815.222	38.57
815.397	40.12
815.572	40.3
815.747	40.3
815.922	39.67
816.097	40.3
816.272	40.29
816.447	41.74
816.622	41.47
816.797	43.36
816.972	43.11
817.147	40.77
817.322	40.34
817.496	39.4
817.671	40.07
817.846	39.62
818.021	38.87
818.196	38.88
818.371	36.91
818.545	36.73
818.72	36.5
818.895	37.09
819.069	36.82
819.244	36.76
819.419	37.83
819.594	37.33
819.768	36.85
819.943	36.3
820.117	35.88
820.292	35.42
820.467	34.67
820.641	33.9
820.816	33.12
820.99	32.8
821.165	32.25
821.339	31.74
821.514	31.34
821.688	31.24
821.863	31.02
822.037	30.52
822.212	30.37
822.386	30.3
822.56	30.3
822.735	30.29
822.909	30.6
823.084	30.84
823.258	30.77
823.432	30.97
823.606	31.03
823.781	31.3
823.955	32.05
824.129	32.21
824.303	32.73
824.478	32.75
824.652	33.29
824.826	33.01
825	33.3
825.174	33.27
825.348	33.16
825.523	33.04
825.697	33.2
825.871	32.66
826.045	33.27
826.219	32.9
826.393	32.58
826.567	31.6
826.741	31.66
826.915	31.1
827.089	31.5
827.263	32.15
827.437	32.46
827.611	32.51
827.784	33.08
827.958	32.88
828.132	32.76
828.306	33.91
828.48	35.13
828.654	35.52
828.827	35.83
829.001	36.28
829.175	36.48
829.349	36.95
829.522	37.5
829.696	37.78
829.87	37.81
830.044	39.75
830.217	38.15
830.391	37.76
830.565	38.81
830.738	40.21
830.912	40.47
831.085	39.96
831.259	40.37
831.432	39.42
831.606	39.17
831.779	38.07
831.953	36.01
832.126	36.43
832.3	35.23
832.473	33.83
832.647	32.82
832.82	32.78
832.994	32.77
833.167	33.02
833.34	33.18
833.514	32.81
833.687	32.99
833.86	32.96
834.034	33.63
834.207	34.69
834.38	35.42
834.553	36.14
834.727	36.25
834.9	35.67
835.073	35.19
835.246	35.08
835.419	35.74
835.593	36.43
835.766	37.74
835.939	37.83
836.112	37.03
836.285	36.72
836.458	37.29
836.631	37.78
836.804	40.15
836.977	39.92
837.15	41.64
837.323	40.96
837.496	42.29
837.669	41.87
837.842	41.42
838.015	43.17
838.188	44.04
838.361	43.02
838.533	40.76
838.706	37.13
838.879	35.73
839.052	35.48
839.225	36.73
839.398	36.01
839.57	35.59
839.743	37.17
839.916	36.36
840.088	35.98
840.261	36.43
840.434	38.2
840.607	39.96
840.779	43.42
840.952	41.53
841.124	38.46
841.297	38.98
841.47	38.57
841.642	35.27
841.815	36.4
841.987	36.77
842.16	37.12
842.332	36.36
842.505	37.42
842.677	35.95
842.85	38.47
843.022	42.52
843.194	43.49
843.367	48
843.539	50.12
843.712	48.58
843.884	50.34
844.056	48.82
844.229	51.45
844.401	50.8
844.573	51.6
844.745	51.4
844.918	49.67
845.09	48.63
845.262	47.05
845.434	47.03
845.606	48.78
845.779	47.52
845.951	48.19
846.123	47.08
846.295	46.98
846.467	49.46
846.639	48.85
846.811	49.91
846.983	49.35
847.155	46.14
847.327	48.57
847.499	47.57
847.671	45.79
847.843	47.58
848.015	49.86
848.187	52.08
848.359	47.33
848.531	48.23
848.703	50.26
848.875	51.6
849.047	50.69
849.218	51.25
849.39	53.43
849.562	55.33
849.734	57.45
849.905	56.66
850.077	56.22
850.249	58.14
850.421	62.72
850.592	62.09
850.764	63.39
850.936	63.54
851.107	63.92
851.279	60.58
851.451	62.18
851.622	59.52
851.794	57.48
851.965	58.53
852.137	59.75
852.308	55.26
852.48	56.42
852.651	55.35
852.823	56.03
852.994	52.72
853.166	55.11
853.337	57.41
853.509	57.4
853.68	58.35
853.851	55.73
854.023	53.58
854.194	54.71
854.365	52.5
854.537	53.36
854.708	55.64
854.879	58.95
855.05	59.14
855.222	54.86
855.393	55.03
855.564	56.48
855.735	56.73
855.906	59.73
856.078	58.63
856.249	58.47
856.42	56.5
856.591	56.6
856.762	55.76
856.933	51.84
857.104	51.07
857.275	51.99
857.446	51.17
857.617	51.65
857.788	48.52
857.959	46.79
858.13	47.3
858.301	51.95
858.472	48.31
858.643	48.68
858.814	52.46
858.985	54.21
859.155	54.92
859.326	54.99
859.497	58.57
859.668	61.05
859.839	62.66
860.009	63.41
860.18	62.72
860.351	68.73
860.522	69.13
860.692	68.62
860.863	68.76
861.034	68.54
861.204	67.88
861.375	62.96
861.546	63.41
861.716	61.55
861.887	60.26
862.057	58.48
862.228	56.11
862.398	51.61
862.569	51.46
862.739	54.27
862.91	51.66
863.08	51.98
863.251	53.37
863.421	51.7
863.592	56.34
863.762	57.54
863.932	55.02
864.103	54.62
864.273	57.82
864.443	62.25
864.614	62.63
864.784	66.7
864.954	65.51
865.125	72.32
865.295	72.11
865.465	70.65
865.635	70.74
865.805	73.45
865.976	71.43
866.146	74.13
866.316	69.55
866.486	67.96
866.656	64.84
866.826	65.52
866.996	60.58
867.166	64.46
867.336	65.03
867.506	63.83
867.676	60.67
867.846	64.46
868.016	58.56
868.186	58.86
868.356	53.3
868.526	52.08
868.696	48.99
868.866	48.36
869.036	44.12
869.206	42.95
869.376	42.2
869.545	47.43
869.715	44.34
869.885	44.7
870.055	42.58
870.224	53.71
870.394	55.8
870.564	59.98
870.734	57.52
870.903	55.99
871.073	55.77
871.243	58.14
871.412	60.59
871.582	63.13
871.751	68.87
871.921	71.52
872.091	63.57
872.26	64.12
872.43	60.51
872.599	63.61
872.769	66.39
872.938	70.79
873.108	69.59
873.277	63.67
873.446	61.11
873.616	57.22
873.785	60.23
873.955	59.96
874.124	59.79
874.293	64.94
874.463	60.33
874.632	59.57
874.801	54.69
874.971	56.14
875.14	57.35
875.309	57.59
875.478	55.96
875.647	50.11
875.817	50.77
875.986	51.11
876.155	50.64
876.324	51.78
876.493	49.59
876.662	50.71
876.831	52.64
877	52.26
877.17	51.28
877.339	51.93
877.508	54.16
877.677	60.75
877.846	60.4
878.015	59.81
878.184	60.36
878.352	61.9
878.521	62.44
878.69	59.82
878.859	62.58
879.028	66.3
879.197	63.71
879.366	59.28
879.534	54.72
879.703	51.11
879.872	48.69
880.041	46.94
880.21	44.54
880.378	42.86
880.547	39.73
880.716	38.78
880.884	36.54
881.053	36.65
881.222	36.93
881.39	36.82
881.559	37.14
881.727	36.85
881.896	37.02
882.065	36.05
882.233	36.21
882.402	36.46
882.57	35.38
882.739	35.91
882.907	36.45
883.076	36.49
883.244	36
883.412	36.03
883.581	36.28
883.749	35.81
883.918	36.57
884.086	37.28
884.254	39.57
884.423	40.27
884.591	40.87
884.759	42.6
884.927	42.69
885.096	42.96
885.264	44.72
885.432	46.22
885.6	46.44
885.769	46.53
885.937	47.72
886.105	45.08
886.273	45.89
886.441	44.97
886.609	42.32
886.777	41.96
886.945	43.83
887.113	42.74
887.281	39.63
887.449	42.28
887.617	46.37
887.785	44.69
887.953	45.54
888.121	45.34
888.289	47.3
888.457	48.32
888.625	51.62
888.793	49.85
888.961	48.69
889.129	50.06
889.296	51.11
889.464	50.39
889.632	50.59
889.8	51.38
889.967	52.63
890.135	52.24
