Data from 2938566_Reflection_1.txt Node
Date: Sun Jun 14 22:22:52 EDT 2015
User: robert
Spectrometer: USB4E03002
Autoset integration time: false
Trigger mode: 4
Integration Time (sec): 1.000000E-1
Scans to average: 10
Electric dark correction enabled: true
Nonlinearity correction enabled: false
Boxcar width: 5
Stray light correction enabled: false
XAxis mode: Wavelengths
Stop averaging: false
Number of Pixels in Spectrum: 3648
>>>>>Begin Spectral Data<<<<<
177.575	71.85
177.794	1.09
178.014	-24.18
178.233	-31.41
178.452	-312.29
178.672	-77475
178.891	-88.08
179.11	94.81
179.33	119.34
179.549	58.84
179.768	108.61
179.987	-34.25
180.207	47.83
180.426	61.19
180.645	80.82
180.864	57.09
181.084	-2.47
181.303	24.98
181.522	125.05
181.741	131.4
181.96	9122.73
182.179	-1514.49
182.398	58.7
182.618	54.91
182.837	102.64
183.056	115.29
183.275	170.07
183.494	96.49
183.713	71.63
183.932	76.86
184.151	58.41
184.37	65.46
184.589	70.49
184.808	57.85
185.027	39.6
185.246	44.81
185.465	45.85
185.684	-23.8
185.903	-118.98
186.122	311.2
186.341	1422.16
186.56	162.66
186.779	103.34
186.998	-892.75
187.216	-458.13
187.435	28.67
187.654	171.76
187.873	109.28
188.092	98.38
188.311	71.56
188.53	68.74
188.748	69.16
188.967	54.17
189.186	28.9
189.405	28.73
189.623	39.75
189.842	66.54
190.061	6.84
190.28	-5.09
190.498	-11.12
190.717	758.12
190.936	83.62
191.154	76.79
191.373	68.6
191.592	97.51
191.81	61.81
192.029	119.86
192.248	71.36
192.466	76.27
192.685	104.6
192.904	114.93
193.122	102.29
193.341	101.23
193.559	107.63
193.778	129.75
193.996	114.42
194.215	104.28
194.433	107.66
194.652	164.52
194.87	130.09
195.089	111.12
195.307	144.96
195.526	121.47
195.744	152.52
195.963	166.77
196.181	159.83
196.399	154.15
196.618	244.3
196.836	290.82
197.055	179.46
197.273	-410.42
197.491	-999.06
197.71	218.04
197.928	820.45
198.146	-361.13
198.365	-31.85
198.583	-60.84
198.801	164.49
199.019	92.59
199.238	100.38
199.456	80.72
199.674	22.57
199.892	32.96
200.111	2.67
200.329	27.93
200.547	-8.09
200.765	30.54
200.983	54.2
201.202	73.25
201.42	40.21
201.638	42.15
201.856	63.69
202.074	86.48
202.292	68.24
202.51	97.55
202.728	233.46
202.946	439.42
203.165	233.21
203.383	38.29
203.601	41.43
203.819	202.03
204.037	150.87
204.255	119.47
204.473	-167.06
204.691	85.37
204.909	75.3
205.127	56.46
205.345	89.01
205.562	73.01
205.78	92.24
205.998	79.12
206.216	76.92
206.434	70.94
206.652	54.98
206.87	46.69
207.088	53.55
207.306	49.73
207.523	39.94
207.741	4.78
207.959	52.63
208.177	47.88
208.395	29.62
208.612	47.84
208.83	49.99
209.048	79.38
209.266	117.57
209.483	141.07
209.701	133.64
209.919	142.32
210.136	135.99
210.354	99.68
210.572	102.18
210.79	87.15
211.007	58.01
211.225	43.53
211.442	47.05
211.66	55.22
211.878	57.48
212.095	92.23
212.313	81.26
212.53	90.91
212.748	93.73
212.966	96.71
213.183	115.33
213.401	128.73
213.618	144.39
213.836	128.72
214.053	90.15
214.271	84.83
214.488	9.04
214.705	52.4
214.923	-72.53
215.14	-41.48
215.358	-11.53
215.575	6.48
215.793	12.92
216.01	41.59
216.227	40.52
216.445	55.11
216.662	51.49
216.879	53.71
217.097	50.05
217.314	52
217.531	56.1
217.749	53.01
217.966	32.65
218.183	31.58
218.4	26.34
218.618	26.94
218.835	19.48
219.052	24.79
219.269	26.18
219.487	16.9
219.704	28.71
219.921	30.4
220.138	40.1
220.355	48.16
220.572	42.91
220.79	33.35
221.007	30.93
221.224	42.39
221.441	34.11
221.658	30.02
221.875	24.74
222.092	15.55
222.309	10.07
222.526	9.25
222.743	16.26
222.96	14.61
223.177	15.68
223.394	17.52
223.611	18.39
223.828	21.74
224.045	21.91
224.262	23.1
224.479	25.58
224.696	26.87
224.913	22.81
225.13	17.78
225.347	19.11
225.564	17.99
225.781	15.84
225.997	13.18
226.214	10.61
226.431	9.62
226.648	9.42
226.865	9.39
227.082	9.44
227.298	9.68
227.515	10.16
227.732	10.74
227.949	10.87
228.165	11.23
228.382	10.68
228.599	11.24
228.816	11.8
229.032	12.84
229.249	12.94
229.466	11.23
229.682	12.16
229.899	11.53
230.116	10.74
230.332	12.38
230.549	11.97
230.765	13.65
230.982	12.1
231.199	11.75
231.415	11.95
231.632	11.97
231.848	14.02
232.065	12.3
232.281	12.7
232.498	11.45
232.714	8.44
232.931	9.16
233.147	8.73
233.364	9.17
233.58	9.47
233.797	8.9
234.013	7.57
234.23	7
234.446	8.49
234.662	8.84
234.879	9.59
235.095	12.12
235.312	11.4
235.528	12.66
235.744	12.74
235.961	12.16
236.177	12.19
236.393	13.64
236.61	14.26
236.826	14.66
237.042	14.49
237.258	14.14
237.475	14.19
237.691	13.55
237.907	12.86
238.123	13.77
238.339	13.46
238.556	13.31
238.772	11.89
238.988	11.48
239.204	10.03
239.42	10.13
239.636	9.95
239.853	9.45
240.069	9.86
240.285	9.99
240.501	10.12
240.717	10.75
240.933	10.01
241.149	10.53
241.365	9.77
241.581	10.65
241.797	10.56
242.013	10.57
242.229	9.82
242.445	9.16
242.661	9.13
242.877	8.97
243.093	8.77
243.309	9.25
243.525	8.57
243.741	10.1
243.957	9.15
244.173	8.89
244.388	9.01
244.604	9.11
244.82	9.47
245.036	9.37
245.252	8.99
245.468	8.53
245.683	8
245.899	8.21
246.115	7.92
246.331	8.18
246.547	8.49
246.762	8.2
246.978	8.22
247.194	7.82
247.409	7.69
247.625	7.77
247.841	7.94
248.057	8.53
248.272	8.18
248.488	8.63
248.703	8.08
248.919	7.33
249.135	7.53
249.35	8.08
249.566	8.31
249.782	8.08
249.997	8.54
250.213	8.41
250.428	8.64
250.644	9.31
250.859	8.09
251.075	8.76
251.29	8.66
251.506	8.91
251.721	9.1
251.937	9.47
252.152	9.45
252.368	8.67
252.583	8.66
252.798	8.3
253.014	8.4
253.229	8.92
253.445	8.64
253.66	9.45
253.875	8.65
254.091	7.41
254.306	7.19
254.521	6.8
254.737	7.58
254.952	8.42
255.167	7.32
255.383	7.63
255.598	8.4
255.813	8.07
256.028	7.99
256.244	9.06
256.459	9.52
256.674	9.49
256.889	9.25
257.104	9.06
257.32	8.96
257.535	8.84
257.75	8.46
257.965	8.24
258.18	8.19
258.395	8.02
258.61	7.79
258.826	7.57
259.041	7.62
259.256	7.62
259.471	7.27
259.686	7.03
259.901	7.34
260.116	7.41
260.331	7.48
260.546	7.69
260.761	7.71
260.976	7.45
261.191	7.36
261.406	6.93
261.621	7.34
261.836	8.24
262.05	8.25
262.265	8.71
262.48	8.55
262.695	7.9
262.91	8.65
263.125	8.41
263.34	8.43
263.555	8.52
263.769	8.82
263.984	8.48
264.199	8.1
264.414	7.93
264.629	7.23
264.843	7.61
265.058	7.57
265.273	6.97
265.488	6.83
265.702	6.67
265.917	6.57
266.132	6.29
266.346	6.28
266.561	6.24
266.776	6.01
266.99	5.88
267.205	5.67
267.42	6.14
267.634	5.46
267.849	6.25
268.063	6.6
268.278	6.69
268.492	6.94
268.707	6.41
268.922	6.37
269.136	6.43
269.351	6.68
269.565	6.64
269.78	6.62
269.994	6.65
270.209	6.76
270.423	6.5
270.637	6.39
270.852	6.37
271.066	6.74
271.281	6.91
271.495	6.64
271.709	6.68
271.924	6.62
272.138	6.68
272.353	6.72
272.567	6.01
272.781	6.34
272.996	6.08
273.21	5.81
273.424	6.16
273.638	5.7
273.853	6.02
274.067	6.03
274.281	5.89
274.495	5.46
274.71	5.46
274.924	5.78
275.138	5.75
275.352	5.94
275.566	5.89
275.781	5.69
275.995	5.92
276.209	6.01
276.423	5.83
276.637	5.88
276.851	6.33
277.065	6.9
277.279	6.9
277.493	6.6
277.707	6.39
277.921	6.65
278.135	6.44
278.349	6.6
278.563	6.72
278.777	6.48
278.991	6.03
279.205	6.23
279.419	5.69
279.633	5.77
279.847	5.88
280.061	5.85
280.275	6.1
280.489	6.11
280.703	5.9
280.917	5.5
281.131	5.93
281.344	6.14
281.558	6.02
281.772	5.91
281.986	5.54
282.2	5.38
282.414	6.09
282.627	6.3
282.841	6.1
283.055	6.39
283.269	6.87
283.482	6.87
283.696	6.99
283.91	6.49
284.123	6.63
284.337	6.95
284.551	7.17
284.764	6.51
284.978	6.18
285.192	6.14
285.405	5.87
285.619	5.58
285.833	5.63
286.046	5.75
286.26	6.03
286.473	5.96
286.687	5.93
286.9	5.81
287.114	6.59
287.327	6.5
287.541	6.61
287.754	6.4
287.968	6.4
288.181	6.17
288.395	5.88
288.608	5.65
288.822	5.8
289.035	5.67
289.248	5.75
289.462	5.56
289.675	5.51
289.889	5.69
290.102	5.96
290.315	6.42
290.529	6.31
290.742	6.54
290.955	6.55
291.169	6.51
291.382	6.7
291.595	6.3
291.808	6.38
292.022	6.44
292.235	6.39
292.448	6.36
292.661	5.87
292.875	6.21
293.088	5.88
293.301	6.11
293.514	6.36
293.727	6.08
293.94	6.2
294.153	5.97
294.367	6.03
294.58	6.09
294.793	5.86
295.006	6.19
295.219	5.89
295.432	6.11
295.645	6.08
295.858	5.81
296.071	5.66
296.284	5.69
296.497	5.66
296.71	5.68
296.923	5.49
297.136	5.35
297.349	5.07
297.562	5.38
297.775	5.58
297.988	5.84
298.201	6.1
298.414	6.44
298.626	6.51
298.839	6.54
299.052	6.58
299.265	6.84
299.478	7.31
299.691	7.02
299.903	6.74
300.116	6.36
300.329	6.12
300.542	6.29
300.755	6.12
300.967	6.26
301.18	6.24
301.393	6.32
301.605	6.23
301.818	6.21
302.031	6.72
302.243	6.53
302.456	6.61
302.669	6.9
302.881	6.69
303.094	6.72
303.307	6.46
303.519	6.39
303.732	6.36
303.944	6.65
304.157	6.71
304.37	6.5
304.582	7.02
304.795	6.98
305.007	6.35
305.22	5.98
305.432	5.98
305.645	6.17
305.857	6.6
306.069	6.71
306.282	6.49
306.494	6.47
306.707	6.6
306.919	6
307.132	5.85
307.344	5.88
307.556	5.91
307.769	6.01
307.981	5.87
308.193	5.46
308.406	5.15
308.618	5
308.83	4.54
309.043	4.33
309.255	4.44
309.467	4.72
309.679	4.94
309.892	5.01
310.104	4.98
310.316	4.82
310.528	5.22
310.74	5.2
310.953	5.03
311.165	5.51
311.377	5.78
311.589	6.12
311.801	6
312.013	6.11
312.225	6.28
312.437	6.67
312.649	7.03
312.862	6.92
313.074	7.3
313.286	7.76
313.498	8.06
313.71	8.23
313.922	7.95
314.134	7.8
314.346	7.64
314.558	7.76
314.77	7.77
314.982	7.6
315.193	7.65
315.405	7.2
315.617	7.12
315.829	6.93
316.041	6.35
316.253	6.67
316.465	6.43
316.677	6.19
316.888	5.95
317.1	5.41
317.312	5.84
317.524	5.72
317.736	5.92
317.947	5.91
318.159	6.02
318.371	5.93
318.583	5.64
318.794	6.16
319.006	6.73
319.218	6.88
319.43	7.22
319.641	6.81
319.853	6.81
320.064	6.98
320.276	7.35
320.488	7.08
320.699	7.35
320.911	7.94
321.123	8.14
321.334	7.44
321.546	7.77
321.757	7.52
321.969	7.93
322.18	7.86
322.392	7.67
322.603	7.4
322.815	7.47
323.026	7.77
323.238	7.6
323.449	7.31
323.661	7.44
323.872	7.05
324.083	7.14
324.295	6.91
324.506	6.88
324.718	6.91
324.929	6.81
325.14	6.94
325.352	6.84
325.563	6.5
325.774	6.63
325.986	7.3
326.197	7.06
326.408	7
326.62	6.88
326.831	7.23
327.042	7.38
327.253	7.12
327.464	6.75
327.676	6.83
327.887	6.49
328.098	6.13
328.309	5.44
328.52	6.01
328.732	6.05
328.943	6.43
329.154	5.86
329.365	5.82
329.576	6.14
329.787	6.5
329.998	5.81
330.209	6.26
330.42	6.61
330.631	7.03
330.842	6.4
331.053	6.31
331.264	5.74
331.475	6.31
331.686	6.32
331.897	6.57
332.108	6.48
332.319	6.9
332.53	7.19
332.741	7.09
332.952	7.06
333.163	7.37
333.374	7.12
333.585	7.51
333.795	7.2
334.006	6.85
334.217	6.81
334.428	6.81
334.639	7.07
334.849	7.02
335.06	7.17
335.271	7.37
335.482	7.38
335.692	7.67
335.903	7.42
336.114	7.54
336.325	7.38
336.535	7.67
336.746	7.65
336.957	7.09
337.167	6.75
337.378	6.6
337.589	6.02
337.799	6.12
338.01	6.34
338.22	6.55
338.431	6.38
338.642	6.77
338.852	6.08
339.063	5.74
339.273	6.2
339.484	6.26
339.694	6.24
339.905	6.58
340.115	6.58
340.326	6.22
340.536	6.39
340.746	6.58
340.957	6.61
341.167	6.93
341.378	7.22
341.588	6.94
341.799	6.95
342.009	6.89
342.219	6.73
342.43	6.6
342.64	6.6
342.85	5.99
343.061	5.6
343.271	5.46
343.481	5.25
343.691	5.42
343.902	5.58
344.112	5.43
344.322	5.4
344.532	5.58
344.743	5.78
344.953	5.77
345.163	6.08
345.373	6.28
345.583	6.31
345.793	6.4
346.004	6.05
346.214	6.14
346.424	6.27
346.634	6.47
346.844	6.35
347.054	6.46
347.264	6.62
347.474	6.42
347.684	5.93
347.894	5.91
348.104	5.69
348.314	5.74
348.524	5.38
348.734	5.65
348.944	5.07
349.154	4.91
349.364	4.39
349.574	4.58
349.784	4.65
349.994	5.1
350.204	5.26
350.413	5.78
350.623	5.87
350.833	5.89
351.043	5.71
351.253	6.21
351.463	6.54
351.672	6.73
351.882	6.53
352.092	6.65
352.302	6.6
352.511	6.13
352.721	5.78
352.931	5.76
353.141	5.67
353.35	5.61
353.56	5.54
353.77	4.79
353.979	4.68
354.189	4.47
354.399	4.31
354.608	4.56
354.818	4.69
355.027	4.75
355.237	4.83
355.447	5.15
355.656	5.15
355.866	5.08
356.075	5.29
356.285	5.41
356.494	5.71
356.704	5.74
356.913	5.62
357.123	5.73
357.332	5.63
357.542	5.59
357.751	5.34
357.96	5.01
358.17	5.14
358.379	5.55
358.589	5.56
358.798	5.49
359.007	5.51
359.217	5.51
359.426	5.66
359.635	5.9
359.845	5.74
360.054	5.89
360.263	6.02
360.472	6
360.682	5.84
360.891	5.85
361.1	5.57
361.309	5.63
361.519	5.37
361.728	5.54
361.937	5.37
362.146	5.38
362.355	5.34
362.564	5.44
362.774	5.43
362.983	5.39
363.192	5.33
363.401	5.41
363.61	5.58
363.819	5.94
364.028	5.61
364.237	5.46
364.446	5.72
364.655	5.36
364.864	5.45
365.073	5.46
365.282	5.61
365.491	5.37
365.7	5.61
365.909	5.45
366.118	5.33
366.327	5.43
366.536	5.67
366.745	5.57
366.954	5.86
367.162	5.93
367.371	5.57
367.58	5.52
367.789	5.62
367.998	5.36
368.207	5.29
368.415	5.27
368.624	5.1
368.833	4.89
369.042	4.71
369.25	4.84
369.459	4.71
369.668	4.88
369.877	4.61
370.085	4.7
370.294	4.81
370.503	4.81
370.711	4.85
370.92	4.95
371.129	5.06
371.337	4.93
371.546	4.66
371.754	4.58
371.963	4.66
372.171	4.77
372.38	4.61
372.589	4.73
372.797	4.66
373.006	4.63
373.214	4.62
373.423	4.46
373.631	4.68
373.84	4.75
374.048	4.82
374.256	4.72
374.465	4.92
374.673	5.16
374.882	4.93
375.09	4.99
375.298	5
375.507	4.96
375.715	5.08
375.923	4.86
376.132	4.97
376.34	5.01
376.548	5.25
376.757	5.29
376.965	5.07
377.173	5.15
377.381	5.01
377.59	5.05
377.798	4.97
378.006	4.89
378.214	5
378.423	4.89
378.631	4.82
378.839	4.78
379.047	4.54
379.255	4.57
379.463	4.61
379.671	4.72
379.879	4.58
380.088	4.67
380.296	4.6
380.504	4.54
380.712	4.56
380.92	4.53
381.128	4.27
381.336	4.22
381.544	4.24
381.752	4.37
381.96	4.41
382.168	4.4
382.376	4.42
382.584	4.71
382.791	4.84
382.999	4.92
383.207	4.84
383.415	5.08
383.623	5.13
383.831	5.21
384.039	5.2
384.247	5.18
384.454	5.08
384.662	4.99
384.87	4.97
385.078	4.94
385.285	4.91
385.493	4.97
385.701	4.87
385.909	4.87
386.116	4.94
386.324	4.94
386.532	4.86
386.739	5.02
386.947	5.14
387.155	4.92
387.362	4.89
387.57	5.02
387.778	5.09
387.985	5.23
388.193	5.27
388.4	5.35
388.608	5.32
388.816	5.36
389.023	5.35
389.231	5.08
389.438	5.08
389.646	5.1
389.853	4.94
390.061	4.84
390.268	4.87
390.475	4.76
390.683	4.73
390.89	4.67
391.098	4.62
391.305	4.62
391.512	4.71
391.72	4.72
391.927	4.76
392.135	4.83
392.342	4.86
392.549	4.68
392.756	4.64
392.964	4.48
393.171	4.52
393.378	4.65
393.586	4.7
393.793	4.73
394	4.77
394.207	4.76
394.414	4.63
394.622	4.55
394.829	4.42
395.036	4.36
395.243	4.28
395.45	4.27
395.657	4.23
395.864	3.95
396.072	3.98
396.279	3.66
396.486	3.42
396.693	3.41
396.9	3.46
397.107	3.78
397.314	4.06
397.521	4.13
397.728	3.92
397.935	3.92
398.142	4.08
398.349	3.87
398.556	4.12
398.763	4.4
398.97	4.53
399.177	4.57
399.383	4.33
399.59	4.2
399.797	4.22
400.004	4.4
400.211	4.32
400.418	4.26
400.625	4.43
400.831	4.27
401.038	3.9
401.245	3.66
401.452	3.72
401.658	3.74
401.865	3.85
402.072	3.78
402.279	3.75
402.485	3.6
402.692	3.65
402.899	3.75
403.105	3.85
403.312	4.07
403.519	4.27
403.725	4.24
403.932	4.18
404.138	4.16
404.345	4.18
404.552	4.21
404.758	4.43
404.965	4.51
405.171	4.42
405.378	4.35
405.584	4.4
405.791	4.2
405.997	4.14
406.204	4.22
406.41	4.08
406.617	4.09
406.823	3.94
407.029	3.97
407.236	3.83
407.442	3.77
407.649	3.89
407.855	3.96
408.061	4.09
408.268	3.96
408.474	4
408.68	4.02
408.887	4.21
409.093	4.36
409.299	4.18
409.505	4.22
409.712	4.13
409.918	4.22
410.124	4.14
410.33	4.26
410.537	4.41
410.743	4.34
410.949	4.32
411.155	4.1
411.361	4.01
411.567	4.14
411.773	3.99
411.98	4.15
412.186	3.85
412.392	3.67
412.598	3.46
412.804	3.57
413.01	3.58
413.216	3.61
413.422	3.69
413.628	3.66
413.834	3.55
414.04	3.71
414.246	3.7
414.452	3.8
414.658	3.84
414.864	3.9
415.07	3.82
415.275	3.8
415.481	3.78
415.687	3.71
415.893	3.76
416.099	3.71
416.305	3.71
416.511	3.68
416.716	3.65
416.922	3.65
417.128	3.68
417.334	3.63
417.539	3.54
417.745	3.49
417.951	3.5
418.157	3.44
418.362	3.47
418.568	3.48
418.774	3.44
418.979	3.43
419.185	3.5
419.391	3.46
419.596	3.42
419.802	3.46
420.008	3.47
420.213	4.14
420.419	4.23
420.624	4.29
420.83	4.23
421.035	4.26
421.241	4.29
421.446	4.18
421.652	4.16
421.857	4.19
422.063	4.22
422.268	4.24
422.474	3.5
422.679	3.43
422.885	3.34
423.09	3.32
423.295	3.29
423.501	3.31
423.706	3.35
423.911	3.33
424.117	3.34
424.322	3.32
424.527	3.32
424.733	3.39
424.938	3.43
425.143	3.47
425.349	3.44
425.554	3.32
425.759	3.32
425.964	3.3
426.169	3.27
426.375	3.27
426.58	3.22
426.785	3.31
426.99	3.26
427.195	3.16
427.4	3.15
427.605	3.13
427.811	3.22
428.016	3.14
428.221	3.18
428.426	3.14
428.631	3.04
428.836	3.15
429.041	3.06
429.246	3.09
429.451	3.16
429.656	3.17
429.861	3.22
430.066	3.24
430.271	3.35
430.476	3.22
430.681	3.24
430.886	3.25
431.09	3.25
431.295	3.17
431.5	3.27
431.705	3.21
431.91	3.14
432.115	3.13
432.32	3.2
432.524	3.09
432.729	3.17
432.934	3.22
433.139	3.37
433.343	3.32
433.548	3.37
433.753	3.3
433.958	3.4
434.162	3.47
434.367	3.52
434.572	3.55
434.776	3.5
434.981	3.55
435.186	3.52
435.39	3.44
435.595	3.47
435.799	3.58
436.004	3.53
436.209	3.41
436.413	3.42
436.618	3.39
436.822	3.34
437.027	3.48
437.231	3.39
437.436	3.43
437.64	3.4
437.845	3.37
438.049	3.26
438.253	3.21
438.458	3.3
438.662	3.28
438.867	3.28
439.071	3.27
439.275	3.18
439.48	3.24
439.684	3.23
439.888	3.25
440.093	3.24
440.297	3.21
440.501	3.25
440.706	3.15
440.91	3.08
441.114	3.09
441.318	3.03
441.523	2.98
441.727	2.93
441.931	2.91
442.135	2.92
442.339	2.96
442.543	2.98
442.748	3.04
442.952	3.01
443.156	2.97
443.36	2.91
443.564	3
443.768	3.06
443.972	3.01
444.176	2.97
444.38	2.9
444.584	2.87
444.788	2.87
444.992	2.85
445.196	2.96
445.4	3.1
445.604	3.14
445.808	3.16
446.012	3.17
446.216	3.2
446.42	3.28
446.624	3.36
446.828	3.37
447.032	3.37
447.235	3.41
447.439	3.35
447.643	3.26
447.847	3.29
448.051	3.24
448.254	3.26
448.458	3.35
448.662	3.23
448.866	3.11
449.069	3.08
449.273	3.1
449.477	3.04
449.681	3.1
449.884	3.29
450.088	3.3
450.292	3.07
450.495	3.15
450.699	3.19
450.902	3.35
451.106	3.45
451.31	3.5
451.513	3.42
451.717	3.43
451.92	3.41
452.124	3.24
452.327	3.14
452.531	3.43
452.734	3.32
452.938	3.21
453.141	2.96
453.345	2.96
453.548	2.94
453.752	2.98
453.955	2.95
454.158	2.88
454.362	2.93
454.565	3.09
454.769	2.98
454.972	2.99
455.175	3.01
455.379	3.17
455.582	3.14
455.785	3.05
455.988	3.08
456.192	3.03
456.395	2.94
456.598	2.93
456.801	2.86
457.005	2.86
457.208	2.83
457.411	2.79
457.614	2.81
457.817	2.78
458.021	2.91
458.224	2.88
458.427	2.92
458.63	3.07
458.833	3.01
459.036	3.03
459.239	3.05
459.442	3.08
459.645	3.1
459.848	3.04
460.051	3.07
460.254	2.97
460.457	2.96
460.66	2.97
460.863	2.89
461.066	2.92
461.269	2.9
461.472	2.91
461.675	3.01
461.878	3.08
462.081	3.22
462.284	3.23
462.486	3.36
462.689	3.45
462.892	3.58
463.095	3.54
463.298	3.62
463.5	3.46
463.703	3.46
463.906	3.28
464.109	3.26
464.311	3.24
464.514	3.29
464.717	3.24
464.92	3.22
465.122	3.08
465.325	3.11
465.528	3.11
465.73	3.21
465.933	3.29
466.135	3.32
466.338	3.37
466.541	3.35
466.743	3.28
466.946	3.29
467.148	3.36
467.351	3.35
467.553	3.34
467.756	3.29
467.958	3.42
468.161	3.4
468.363	3.35
468.566	3.25
468.768	3.36
468.971	3.38
469.173	3.39
469.375	3.27
469.578	3.39
469.78	3.37
469.983	3.36
470.185	3.22
470.387	3.14
470.59	3.14
470.792	3.13
470.994	2.99
471.196	3.03
471.399	2.97
471.601	3
471.803	2.89
472.005	2.94
472.208	2.94
472.41	2.92
472.612	2.95
472.814	3.02
473.016	3.09
473.218	3.06
473.421	2.97
473.623	2.93
473.825	2.92
474.027	2.96
474.229	2.97
474.431	2.95
474.633	3.01
474.835	3.01
475.037	2.94
475.239	2.94
475.441	2.99
475.643	3.08
475.845	3.12
476.047	3.09
476.249	3.11
476.451	3.06
476.653	3.15
476.855	3.11
477.057	3.05
477.258	3.11
477.46	3.14
477.662	3.11
477.864	3.05
478.066	3.04
478.268	3.12
478.469	3.06
478.671	2.97
478.873	2.97
479.075	2.99
479.276	3.02
479.478	3.04
479.68	3.02
479.882	3.04
480.083	3.06
480.285	3.05
480.487	2.96
480.688	2.97
480.89	3
481.091	2.96
481.293	2.93
481.495	2.92
481.696	2.86
481.898	2.84
482.099	2.86
482.301	2.86
482.502	2.87
482.704	2.89
482.905	2.9
483.107	2.92
483.308	2.93
483.51	2.95
483.711	2.97
483.913	3.02
484.114	3.05
484.315	3.04
484.517	3.04
484.718	3.04
484.92	3.02
485.121	3.02
485.322	3.01
485.524	2.98
485.725	2.95
485.926	2.95
486.127	2.94
486.329	2.94
486.53	2.95
486.731	2.96
486.932	2.97
487.134	3
487.335	2.99
487.536	3.02
487.737	3.04
487.938	3.07
488.139	3.1
488.341	3.09
488.542	3.11
488.743	3.08
488.944	3.11
489.145	3.09
489.346	3.05
489.547	3.08
489.748	3.04
489.949	3
490.15	2.96
490.351	2.96
490.552	2.97
490.753	2.96
490.954	2.98
491.155	2.94
491.356	2.96
491.557	3.04
491.758	3.03
491.959	3.1
492.159	3.16
492.36	3.25
492.561	3.23
492.762	3.22
492.963	3.26
493.164	3.24
493.364	3.36
493.565	3.35
493.766	3.27
493.967	3.26
494.167	3.26
494.368	3.24
494.569	3.18
494.769	3.19
494.97	3.24
495.171	3.26
495.371	3.28
495.572	3.17
495.773	3.2
495.973	3.18
496.174	3.17
496.375	3.19
496.575	3.21
496.776	3.2
496.976	3.21
497.177	3.19
497.377	3.2
497.578	3.18
497.778	3.16
497.979	3.14
498.179	3.26
498.38	3.3
498.58	3.24
498.78	3.24
498.981	3.32
499.181	3.29
499.382	3.24
499.582	3.18
499.782	3.17
499.983	3.26
500.183	3.28
500.383	3.23
500.584	3.21
500.784	3.2
500.984	3.24
501.184	3.14
501.385	3.3
501.585	3.42
501.785	3.46
501.985	3.48
502.185	3.42
502.386	3.43
502.586	3.42
502.786	3.45
502.986	3.48
503.186	3.45
503.386	3.5
503.586	3.34
503.786	3.33
503.987	3.28
504.187	3.24
504.387	3.36
504.587	3.36
504.787	3.29
504.987	3.25
505.187	3.27
505.387	3.31
505.587	3.33
505.786	3.42
505.986	3.41
506.186	3.46
506.386	3.54
506.586	3.53
506.786	3.48
506.986	3.54
507.186	3.53
507.386	3.53
507.585	3.53
507.785	3.56
507.985	3.54
508.185	3.54
508.384	3.49
508.584	3.53
508.784	3.51
508.984	3.51
509.183	3.48
509.383	3.41
509.583	3.44
509.782	3.52
509.982	3.5
510.182	3.46
510.381	3.48
510.581	3.5
510.781	3.53
510.98	3.51
511.18	3.54
511.379	3.57
511.579	3.73
511.778	3.68
511.978	3.59
512.177	3.59
512.377	3.68
512.576	3.7
512.776	3.69
512.975	3.65
513.175	3.71
513.374	3.69
513.573	3.77
513.773	3.75
513.972	3.8
514.172	3.84
514.371	3.88
514.57	3.89
514.77	3.85
514.969	3.93
515.168	3.89
515.367	3.81
515.567	3.93
515.766	3.86
515.965	3.87
516.164	3.81
516.364	3.75
516.563	3.71
516.762	3.66
516.961	3.7
517.16	3.7
517.359	3.75
517.559	3.82
517.758	3.77
517.957	3.82
518.156	3.81
518.355	3.92
518.554	3.96
518.753	4
518.952	4.03
519.151	4.06
519.35	4.05
519.549	3.96
519.748	3.97
519.947	4
520.146	4.03
520.345	4.07
520.544	4.05
520.743	4.06
520.942	4.05
521.141	4.03
521.339	3.98
521.538	4.01
521.737	4.09
521.936	4.07
522.135	4.01
522.333	4.03
522.532	4
522.731	4
522.93	3.97
523.129	4.01
523.327	4.09
523.526	4.09
523.725	4.11
523.923	4.12
524.122	4.14
524.321	4.17
524.519	4.15
524.718	4.18
524.917	4.13
525.115	4.22
525.314	4.21
525.512	4.22
525.711	4.27
525.909	4.31
526.108	4.3
526.306	4.26
526.505	4.31
526.703	4.32
526.902	4.32
527.1	4.36
527.299	4.33
527.497	4.38
527.696	4.37
527.894	4.4
528.092	4.42
528.291	4.45
528.489	4.54
528.688	4.53
528.886	4.56
529.084	4.57
529.283	4.62
529.481	4.64
529.679	4.65
529.877	4.66
530.076	4.65
530.274	4.64
530.472	4.62
530.67	4.6
530.869	4.6
531.067	4.58
531.265	4.64
531.463	4.62
531.661	4.68
531.859	4.66
532.057	4.72
532.255	4.77
532.454	4.79
532.652	4.87
532.85	4.81
533.048	4.89
533.246	4.94
533.444	4.97
533.642	4.99
533.84	5.01
534.038	4.99
534.236	4.98
534.434	4.96
534.632	4.94
534.83	4.9
535.027	4.98
535.225	4.97
535.423	5.03
535.621	5.05
535.819	5.12
536.017	5.14
536.215	5.21
536.412	5.24
536.61	5.22
536.808	5.23
537.006	5.31
537.203	5.37
537.401	5.37
537.599	5.35
537.797	5.32
537.994	5.31
538.192	5.33
538.39	5.39
538.587	5.45
538.785	5.46
538.983	5.52
539.18	5.5
539.378	5.47
539.575	5.49
539.773	5.47
539.97	5.49
540.168	5.49
540.366	5.52
540.563	5.55
540.761	5.55
540.958	5.6
541.155	5.64
541.353	5.69
541.55	5.75
541.748	5.78
541.945	5.78
542.143	5.86
542.34	5.9
542.537	5.96
542.735	5.97
542.932	5.96
543.129	5.98
543.327	5.99
543.524	6.04
543.721	6.04
543.919	6.1
544.116	6.24
544.313	6.16
544.51	6.14
544.708	6.1
544.905	6.17
545.102	6.27
545.299	6.33
545.496	6.34
545.693	6.33
545.891	6.41
546.088	6.43
546.285	6.5
546.482	6.56
546.679	6.75
546.876	6.85
547.073	6.8
547.27	6.83
547.467	6.88
547.664	6.91
547.861	7.01
548.058	7.11
548.255	7.07
548.452	7.01
548.649	7.07
548.846	7.06
549.043	7.05
549.24	7.2
549.437	7.22
549.633	7.23
549.83	7.33
550.027	7.33
550.224	7.3
550.421	7.36
550.618	7.45
550.814	7.6
551.011	7.56
551.208	7.65
551.405	7.7
551.601	7.7
551.798	7.76
551.995	7.84
552.191	7.84
552.388	7.91
552.585	8.08
552.781	8.07
552.978	8.09
553.175	8.22
553.371	8.28
553.568	8.27
553.764	8.39
553.961	8.43
554.157	8.4
554.354	8.46
554.55	8.46
554.747	8.47
554.943	8.53
555.14	8.5
555.336	8.45
555.533	8.41
555.729	8.47
555.926	8.53
556.122	8.52
556.318	8.53
556.515	8.59
556.711	8.6
556.907	8.49
557.104	8.49
557.3	8.56
557.496	8.69
557.693	8.78
557.889	8.93
558.085	8.84
558.281	8.97
558.478	9.12
558.674	9.22
558.87	9.37
559.066	9.53
559.262	9.63
559.459	9.69
559.655	9.73
559.851	9.82
560.047	9.86
560.243	9.94
560.439	10.05
560.635	10.05
560.831	10.12
561.027	10.23
561.223	10.34
561.419	10.4
561.615	10.49
561.811	10.53
562.007	10.62
562.203	10.6
562.399	10.73
562.595	10.63
562.791	10.81
562.987	10.83
563.183	10.8
563.379	10.84
563.575	10.98
563.771	11.03
563.966	11.04
564.162	11.09
564.358	11.12
564.554	11.11
564.75	11.2
564.945	11.21
565.141	11.28
565.337	11.39
565.533	11.41
565.728	11.47
565.924	11.55
566.12	11.63
566.315	11.54
566.511	11.74
566.707	11.9
566.902	12.14
567.098	12.15
567.293	12.18
567.489	12.22
567.684	12.3
567.88	12.35
568.076	12.37
568.271	12.41
568.467	12.55
568.662	12.56
568.858	12.57
569.053	12.52
569.248	12.55
569.444	12.7
569.639	12.78
569.835	12.78
570.03	12.71
570.225	12.77
570.421	12.78
570.616	12.89
570.812	12.9
571.007	13.02
571.202	12.97
571.397	13.11
571.593	13.07
571.788	13.08
571.983	13.21
572.178	13.42
572.374	13.45
572.569	13.66
572.764	13.67
572.959	13.67
573.154	13.66
573.35	13.65
573.545	13.61
573.74	13.63
573.935	13.61
574.13	13.67
574.325	13.67
574.52	13.67
574.715	13.58
574.91	13.58
575.105	13.64
575.3	13.76
575.495	13.89
575.69	14.01
575.885	14.09
576.08	14.29
576.275	14.32
576.47	14.3
576.665	14.24
576.86	14.31
577.055	14.37
577.25	14.43
577.444	14.27
577.639	14.37
577.834	14.41
578.029	14.44
578.224	14.29
578.418	14.25
578.613	14.29
578.808	14.52
579.003	14.51
579.197	14.63
579.392	14.7
579.587	14.85
579.781	14.86
579.976	14.8
580.171	15.05
580.365	15.1
580.56	15.22
580.755	15.31
580.949	15.37
581.144	15.48
581.338	15.47
581.533	15.53
581.727	15.52
581.922	15.65
582.116	15.61
582.311	15.53
582.505	15.59
582.7	15.71
582.894	15.79
583.089	15.68
583.283	15.58
583.478	15.64
583.672	15.68
583.866	15.61
584.061	15.57
584.255	15.59
584.449	15.55
584.644	15.6
584.838	15.38
585.032	15.27
585.226	15.35
585.421	15.3
585.615	15.39
585.809	15.32
586.003	15.48
586.198	15.51
586.392	15.75
586.586	15.83
586.78	15.91
586.974	15.93
587.168	16.09
587.363	16.12
587.557	16.31
587.751	16.25
587.945	16.36
588.139	16.23
588.333	16.3
588.527	16.23
588.721	16.2
588.915	16.23
589.109	16.5
589.303	16.46
589.497	16.52
589.691	16.66
589.885	16.72
590.079	16.67
590.273	16.86
590.466	16.77
590.66	16.77
590.854	16.79
591.048	16.83
591.242	16.55
591.436	16.53
591.629	16.49
591.823	16.45
592.017	16.4
592.211	16.47
592.404	16.47
592.598	16.59
592.792	16.85
592.986	16.83
593.179	16.77
593.373	16.93
593.567	16.91
593.76	16.91
593.954	16.96
594.147	17
594.341	17.01
594.535	17.08
594.728	17.04
594.922	16.93
595.115	16.96
595.309	16.99
595.502	16.96
595.696	16.95
595.889	17.04
596.083	17.01
596.276	16.94
596.47	16.97
596.663	17.08
596.856	17.08
597.05	17.14
597.243	17.19
597.437	17.29
597.63	17.46
597.823	17.48
598.017	17.51
598.21	17.58
598.403	17.86
598.596	17.86
598.79	17.61
598.983	17.65
599.176	17.51
599.369	17.67
599.563	17.52
599.756	17.46
599.949	17.62
600.142	17.53
600.335	17.47
600.528	17.44
600.722	17.67
600.915	17.76
601.108	17.68
601.301	17.69
601.494	17.5
601.687	17.57
601.88	17.49
602.073	17.46
602.266	17.58
602.459	17.6
602.652	17.56
602.845	17.34
603.038	17.37
603.231	17.47
603.424	17.43
603.617	17.49
603.809	17.47
604.002	17.57
604.195	17.55
604.388	17.55
604.581	17.61
604.774	17.6
604.966	17.65
605.159	17.66
605.352	17.61
605.545	17.83
605.737	17.92
605.93	18.08
606.123	18.08
606.316	18.15
606.508	18.16
606.701	18.05
606.894	18.06
607.086	18.21
607.279	18.15
607.471	18.19
607.664	18.19
607.857	18.03
608.049	18.05
608.242	18.11
608.434	18.16
608.627	18.19
608.819	18.15
609.012	18.21
609.204	18.11
609.397	18.15
609.589	18.08
609.782	18.1
609.974	18.08
610.166	18.06
610.359	17.93
610.551	17.89
610.743	17.8
610.936	17.82
611.128	17.83
611.32	17.82
611.513	17.82
611.705	17.86
611.897	17.66
612.09	17.9
612.282	17.82
612.474	18.13
612.666	18.05
612.858	18.03
613.051	18.14
613.243	18.07
613.435	18.08
613.627	18.2
613.819	18.2
614.011	18.26
614.203	18.05
614.395	18.04
614.588	17.74
614.78	17.74
614.972	17.72
615.164	17.84
615.356	18.02
615.548	18.13
615.74	18.13
615.932	18.14
616.124	18
616.315	18.11
616.507	18.08
616.699	18.26
616.891	18.22
617.083	18.26
617.275	18.29
617.467	18.13
617.659	18.27
617.85	18.14
618.042	18.23
618.234	18.61
618.426	18.68
618.618	18.77
618.809	18.63
619.001	18.78
619.193	18.77
619.384	18.69
619.576	18.82
619.768	18.79
619.959	18.61
620.151	18.63
620.343	18.34
620.534	18.17
620.726	17.98
620.917	18.2
621.109	18.09
621.301	18.24
621.492	18.23
621.684	18.2
621.875	17.99
622.067	18.17
622.258	18.06
622.45	18.28
622.641	18.31
622.832	18.53
623.024	18.45
623.215	18.4
623.407	18.19
623.598	18.17
623.789	18.08
623.981	18.16
624.172	18.26
624.363	18.29
624.555	18.25
624.746	18.41
624.937	18.35
625.129	18.37
625.32	18.45
625.511	18.5
625.702	18.63
625.893	18.55
626.085	18.55
626.276	18.48
626.467	18.6
626.658	18.69
626.849	18.43
627.04	18.57
627.231	18.54
627.422	18.72
627.614	18.75
627.805	18.72
627.996	18.96
628.187	18.95
628.378	18.9
628.569	18.91
628.76	18.82
628.951	19.17
629.142	19.11
629.332	19.01
629.523	18.8
629.714	19.05
629.905	18.98
630.096	18.9
630.287	18.91
630.478	19.14
630.669	19.15
630.859	19.23
631.05	19.24
631.241	19.37
631.432	19.43
631.623	19.37
631.813	19.15
632.004	19.25
632.195	19.27
632.385	19.24
632.576	19.13
632.767	19.04
632.957	19.09
633.148	19.01
633.339	18.81
633.529	18.93
633.72	19.08
633.91	19.12
634.101	19.07
634.292	18.97
634.482	19
634.673	18.99
634.863	19.06
635.054	19.02
635.244	19
635.435	19.17
635.625	19.04
635.815	19.07
636.006	19.27
636.196	19.15
636.387	19.29
636.577	19.41
636.767	19.46
636.958	19.51
637.148	19.32
637.338	19.12
637.529	18.99
637.719	18.81
637.909	18.72
638.099	18.54
638.29	18.6
638.48	18.56
638.67	18.48
638.86	18.62
639.05	18.57
639.241	18.83
639.431	19.07
639.621	19.18
639.811	19.39
640.001	19.39
640.191	19.34
640.381	19.29
640.571	19.34
640.761	19.4
640.951	19.3
641.141	19.31
641.331	19.28
641.521	19.18
641.711	19.32
641.901	19.4
642.091	19.37
642.281	19.46
642.471	19.47
642.661	19.3
642.851	19.16
643.041	19.01
643.231	19.12
643.42	18.81
643.61	18.9
643.8	18.67
643.99	18.68
644.18	18.74
644.369	18.48
644.559	18.65
644.749	18.55
644.939	18.4
645.128	18.36
645.318	18.29
645.508	18.47
645.697	18.49
645.887	18.38
646.076	18.33
646.266	18.29
646.456	18.69
646.645	18.75
646.835	19.07
647.024	19.32
647.214	19.39
647.403	19.35
647.593	19.38
647.782	19.42
647.972	19.5
648.161	19.41
648.351	19.53
648.54	19.54
648.73	19.52
648.919	19.34
649.108	19.23
649.298	19.29
649.487	19.16
649.677	19.21
649.866	18.98
650.055	19.05
650.244	19.14
650.434	19.11
650.623	19.21
650.812	19.01
651.002	19.08
651.191	19.27
651.38	18.96
651.569	19.11
651.758	19.08
651.947	19.17
652.137	19.19
652.326	19.12
652.515	19.18
652.704	18.82
652.893	18.92
653.082	19.05
653.271	18.9
653.46	19.25
653.649	19.24
653.838	19.31
654.027	19.37
654.216	19.22
654.405	19.44
654.594	19.42
654.783	19.58
654.972	19.56
655.161	19.35
655.35	19.29
655.539	19.52
655.728	19.58
655.916	19.69
656.105	19.67
656.294	19.79
656.483	19.78
656.672	19.79
656.86	19.89
657.049	19.77
657.238	19.85
657.427	19.86
657.615	19.83
657.804	19.76
657.993	19.63
658.181	19.78
658.37	19.67
658.559	19.65
658.747	19.59
658.936	19.49
659.125	19.61
659.313	19.61
659.502	19.76
659.69	19.53
659.879	19.65
660.067	19.77
660.256	19.69
660.444	19.82
660.633	19.98
660.821	20.05
661.01	20.06
661.198	20.18
661.387	20.16
661.575	20.13
661.763	20.36
661.952	20.08
662.14	19.74
662.328	19.64
662.517	19.8
662.705	19.55
662.893	19.21
663.082	19.33
663.27	19.03
663.458	19
663.646	19.13
663.834	18.97
664.023	19.12
664.211	19.17
664.399	19.31
664.587	19.02
664.775	18.92
664.963	19.28
665.152	19.15
665.34	19.16
665.528	19.13
665.716	19.32
665.904	19.23
666.092	19.39
666.28	19.57
666.468	19.42
666.656	19.52
666.844	19.85
667.032	19.78
667.22	19.46
667.408	20.02
667.596	19.96
667.784	19.6
667.971	19.8
668.159	19.77
668.347	19.63
668.535	19.78
668.723	19.87
668.911	19.78
669.098	19.48
669.286	19.88
669.474	19.51
669.662	19.7
669.849	19.63
670.037	19.66
670.225	19.73
670.413	19.66
670.6	19.48
670.788	19.32
670.976	19.23
671.163	19.66
671.351	19.83
671.538	19.77
671.726	19.47
671.913	19.48
672.101	19.29
672.289	19.12
672.476	19.23
672.664	19.04
672.851	19.12
673.039	19.11
673.226	18.86
673.413	18.4
673.601	18.43
673.788	18.69
673.976	18.82
674.163	18.9
674.35	19
674.538	19.48
674.725	19.86
674.912	19.86
675.1	19.99
675.287	20.16
675.474	20.44
675.662	20.59
675.849	20.25
676.036	20.32
676.223	20.35
676.411	20.54
676.598	20.16
676.785	19.98
676.972	19.92
677.159	19.79
677.346	19.83
677.533	19.81
677.721	19.87
677.908	20.35
678.095	20.52
678.282	20.26
678.469	20.1
678.656	20.14
678.843	20.35
679.03	20.51
679.217	20.57
679.404	20.76
679.591	20.62
679.778	20.51
679.964	20.44
680.151	20.03
680.338	20.04
680.525	20.03
680.712	20.02
680.899	19.76
681.086	19.56
681.272	19.47
681.459	19.11
681.646	19.07
681.833	19
682.02	19.14
682.206	19.32
682.393	19.59
682.58	19.44
682.766	19.46
682.953	19.59
683.14	19.71
683.326	19.75
683.513	20.11
683.7	20.35
683.886	20.42
684.073	20.35
684.259	20.28
684.446	20.43
684.632	20.34
684.819	20.43
685.005	20.43
685.192	20.33
685.378	20.53
685.565	19.99
685.751	20.23
685.938	20.59
686.124	20.68
686.31	20.71
686.497	20.52
686.683	20.73
686.87	21.06
687.056	21.12
687.242	21.38
687.429	21.1
687.615	21.36
687.801	21.11
687.987	20.84
688.174	20.39
688.36	20.59
688.546	20.42
688.732	20.52
688.918	19.93
689.105	19.99
689.291	20.01
689.477	20.14
689.663	20.42
689.849	20.38
690.035	20.17
690.221	20.41
690.407	20.43
690.593	20.51
690.779	20.51
690.965	20.6
691.151	20.52
691.337	20.29
691.523	20.18
691.709	20.2
691.895	20.09
692.081	20.04
692.267	19.98
692.453	19.88
692.639	20.2
692.825	20.07
693.011	20.23
693.196	20.28
693.382	20.52
693.568	20.54
693.754	20.2
693.94	20.37
694.125	20.76
694.311	20.9
694.497	20.99
694.682	20.95
694.868	21.15
695.054	20.72
695.239	20.81
695.425	20.78
695.611	20.59
695.796	20.67
695.982	20.65
696.168	20.37
696.353	20.11
696.539	20.15
696.724	20.17
696.91	20.08
697.095	20.33
697.281	20.04
697.466	19.94
697.652	20.08
697.837	20.05
698.023	20.04
698.208	20.01
698.393	19.82
698.579	19.76
698.764	19.67
698.949	19.44
699.135	19.63
699.32	20.02
699.505	20.02
699.691	20.3
699.876	20.55
700.061	20.51
700.246	20.38
700.432	20.72
700.617	20.67
700.802	20.93
700.987	20.99
701.172	20.93
701.358	20.43
701.543	20.32
701.728	19.97
701.913	19.72
702.098	19.72
702.283	19.86
702.468	19.83
702.653	19.87
702.838	19.54
703.023	19.81
703.208	19.67
703.393	19.63
703.578	19.91
703.763	19.66
703.948	19.47
704.133	19.47
704.318	19.44
704.503	19.8
704.688	19.67
704.873	19.64
705.057	19.78
705.242	19.71
705.427	19.82
705.612	19.63
705.797	20.04
705.981	20.27
706.166	20.32
706.351	20.42
706.536	20.47
706.72	20.37
706.905	20.09
707.09	19.58
707.274	19.92
707.459	20.09
707.644	20.46
707.828	20.59
708.013	20.53
708.197	20.57
708.382	20.96
708.567	20.85
708.751	20.78
708.936	21.06
709.12	21.01
709.305	20.57
709.489	20.66
709.673	20.32
709.858	20.12
710.042	19.99
710.227	20.02
710.411	19.88
710.596	19.97
710.78	20.12
710.964	20.59
711.149	21.1
711.333	21.25
711.517	21.4
711.702	21.51
711.886	21.52
712.07	21.42
712.254	21.16
712.438	21.22
712.623	21.09
712.807	21.37
712.991	21.08
713.175	20.57
713.359	20.81
713.544	20.42
713.728	20.22
713.912	20.25
714.096	20.21
714.28	20.45
714.464	20.42
714.648	20.39
714.832	20.25
715.016	19.74
715.2	19.94
715.384	19.75
715.568	20.04
715.752	19.99
715.936	19.68
716.12	19.84
716.304	19.82
716.488	19.95
716.671	19.91
716.855	19.7
717.039	20.08
717.223	20.03
717.407	19.84
717.59	20.17
717.774	20.46
717.958	20.92
718.142	20.57
718.325	20.81
718.509	21.05
718.693	21.37
718.877	21.34
719.06	21.23
719.244	21.41
719.428	21.75
719.611	21.16
719.795	20.83
719.978	20.51
720.162	20.98
720.345	20.8
720.529	20.23
720.713	19.69
720.896	20.15
721.08	20.31
721.263	20.34
721.446	20.1
721.63	20.22
721.813	20.27
721.997	20.47
722.18	20.36
722.364	20.11
722.547	19.84
722.73	20.3
722.914	19.8
723.097	19.96
723.28	20.26
723.464	20.44
723.647	20.47
723.83	20.62
724.013	20.54
724.197	20.64
724.38	20.42
724.563	20.88
724.746	20.74
724.929	21.2
725.112	20.8
725.296	20.44
725.479	20.41
725.662	20.08
725.845	19.79
726.028	19.53
726.211	19.73
726.394	19.72
726.577	19.24
726.76	19.5
726.943	19.3
727.126	19.32
727.309	19.38
727.492	19.31
727.675	19.33
727.858	19.38
728.041	19.83
728.224	19.84
728.407	20.42
728.589	20.63
728.772	20.36
728.955	20.29
729.138	20.51
729.321	20.43
729.503	20.41
729.686	20.75
729.869	20.88
730.052	20.78
730.234	20.42
730.417	20.19
730.6	20.28
730.782	20.22
730.965	20.23
731.148	20.31
731.33	20.43
731.513	20.25
731.695	20.35
731.878	20.89
732.061	21.25
732.243	21.38
732.426	21.37
732.608	21.59
732.791	21.45
732.973	21.62
733.156	21.34
733.338	21.17
733.52	21.46
733.703	21.12
733.885	20.59
734.068	20.17
734.25	20.1
734.432	20.28
734.615	20.17
734.797	19.96
734.979	19.24
735.162	19.41
735.344	19.56
735.526	19.64
735.708	19.78
735.891	19.98
736.073	19.66
736.255	19.81
736.437	19.93
736.619	20.2
736.802	20.37
736.984	21.23
737.166	21.19
737.348	21.6
737.53	21.65
737.712	21.76
737.894	21.84
738.076	22.05
738.258	21.98
738.44	21.83
738.622	21.53
738.804	21.91
738.986	21.17
739.168	21.42
739.35	20.72
739.532	20.34
739.714	20.62
739.896	20.58
740.078	20.71
740.259	20.83
740.441	20.66
740.623	20.39
740.805	20.32
740.987	20.48
741.168	20.4
741.35	21.46
741.532	21.44
741.714	21.06
741.895	20.9
742.077	21.18
742.259	21.42
742.44	21.35
742.622	21.62
742.804	20.98
742.985	21.47
743.167	21.55
743.348	20.94
743.53	21.08
743.711	21.48
743.893	21.55
744.075	20.92
744.256	20.7
744.438	21.37
744.619	21.37
744.8	22.35
744.982	22.41
745.163	22.66
745.345	22.33
745.526	22.87
745.707	22.89
745.889	23.41
746.07	23.51
746.252	23.45
746.433	22.63
746.614	21.82
746.795	21.64
746.977	21.22
747.158	20.58
747.339	20.49
747.52	19.68
747.702	19.28
747.883	19.64
748.064	20.06
748.245	20.21
748.426	20.25
748.607	20.64
748.788	20.22
748.97	19.55
749.151	19.66
749.332	20.3
749.513	20.4
749.694	20.87
749.875	20.27
750.056	20.49
750.237	20.22
750.418	20.1
750.599	20.78
750.78	21.43
750.96	22.05
751.141	22.03
751.322	21.63
751.503	22.05
751.684	21.55
751.865	21.32
752.046	21.28
752.226	21.69
752.407	21.83
752.588	21.45
752.769	21.11
752.949	21.48
753.13	21.96
753.311	22.1
753.492	21.03
753.672	21.22
753.853	21.34
754.034	21.05
754.214	20.56
754.395	20.68
754.575	21.12
754.756	21.37
754.937	21.51
755.117	20.9
755.298	21.24
755.478	22.34
755.659	22.4
755.839	22.04
756.02	21.71
756.2	22.01
756.381	22.32
756.561	21.54
756.741	21.27
756.922	21.11
757.102	21.41
757.283	20.77
757.463	20.21
757.643	20.7
757.823	20.29
758.004	20.48
758.184	20.11
758.364	19.9
758.545	19.85
758.725	19.97
758.905	19.46
759.085	19.76
759.265	20.36
759.446	21.2
759.626	21.35
759.806	22.37
759.986	22.51
760.166	22.59
760.346	22.57
760.526	22.71
760.706	23.25
760.886	23.24
761.066	22.82
761.246	22.57
761.426	22.1
761.606	21.47
761.786	20.99
761.966	20.91
762.146	20.64
762.326	20.53
762.506	20.81
762.686	19.89
762.866	20.24
763.046	19.84
763.225	19.77
763.405	19.65
763.585	19.5
763.765	19.75
763.945	19.7
764.124	20.05
764.304	20.47
764.484	20.71
764.664	20.98
764.843	21.07
765.023	20.51
765.203	20.44
765.382	20.74
765.562	20.83
765.741	20.16
765.921	20.29
766.101	20.42
766.28	19.62
766.46	19.19
766.639	19.32
766.819	18.86
766.998	20.31
767.178	20.67
767.357	20.22
767.537	20.44
767.716	20.48
767.896	19.76
768.075	19.79
768.254	19.83
768.434	19.91
768.613	20.08
768.792	20.07
768.972	19.73
769.151	19.31
769.33	19.69
769.51	19.28
769.689	19.26
769.868	20.39
770.047	20.16
770.226	20.25
770.406	20.08
770.585	20.38
770.764	20.39
770.943	20.25
771.122	20.71
771.301	21.06
771.48	21.05
771.66	21.94
771.839	21.59
772.018	22.06
772.197	22.59
772.376	22.54
772.555	21.7
772.734	21.97
772.913	22.11
773.092	21.6
773.271	20.63
773.449	20.44
773.628	20.78
773.807	20.08
773.986	19.69
774.165	19.26
774.344	19.09
774.523	19.75
774.701	19.96
774.88	20.46
775.059	19.52
775.238	20.49
775.417	20.56
775.595	19.48
775.774	19.75
775.953	19.36
776.131	20.08
776.31	20.18
776.489	19.96
776.667	19.79
776.846	19.83
777.025	21.31
777.203	21.45
777.382	22.05
777.56	22.09
777.739	22.24
777.917	23.1
778.096	22.56
778.274	22.45
778.453	21.6
778.631	21.69
778.81	21.13
778.988	20.64
779.166	20.22
779.345	18.89
779.523	18.6
779.702	19.44
779.88	18.84
780.058	18.96
780.237	19.38
780.415	20.97
780.593	20.64
780.771	22.19
780.95	23.24
781.128	23.05
781.306	24.18
781.484	24.67
781.662	23.33
781.841	23.19
782.019	23.15
782.197	23.46
782.375	22.82
782.553	22.77
782.731	22.36
782.909	21.34
783.087	21.47
783.265	22.41
783.443	21.71
783.621	23.14
783.799	23.56
783.977	23.99
784.155	23.82
784.333	23.8
784.511	23.68
784.689	23.2
784.867	22.42
785.045	23.39
785.223	21.63
785.4	22.04
785.578	20.28
785.756	20.17
785.934	19.48
786.112	18.97
786.289	18.41
786.467	18.49
786.645	18.77
786.823	19.7
787	19.26
787.178	19.34
787.356	19.51
787.533	21.05
787.711	21.32
787.889	21.94
788.066	21.38
788.244	22.49
788.421	22.38
788.599	22.09
788.776	21.76
788.954	21.44
789.131	22.25
789.309	23.12
789.486	21.98
789.664	21.73
789.841	20.44
790.019	21.21
790.196	21.1
790.373	21.22
790.551	20.75
790.728	21.53
790.906	21.66
791.083	23.1
791.26	22.43
791.437	24.28
791.615	24.14
791.792	24.79
791.969	25.36
792.146	25.41
792.324	25.79
792.501	26.32
792.678	25.97
792.855	25.78
793.032	24.32
793.209	24.88
793.387	24.45
793.564	23.82
793.741	24.39
793.918	24.32
794.095	25.12
794.272	24.81
794.449	24.43
794.626	23.59
794.803	22.23
794.98	22.59
795.157	20.77
795.334	20.22
795.511	20.37
795.688	19.94
795.864	19.56
796.041	17.74
796.218	18.22
796.395	18.5
796.572	18.52
796.749	20.36
796.925	21.16
797.102	22.54
797.279	22.31
797.456	22.79
797.632	23.25
797.809	23.25
797.986	24.45
798.162	24.54
798.339	24.37
798.516	25.54
798.692	24.98
798.869	23.95
799.046	23.14
799.222	24.61
799.399	24.43
799.575	24.69
799.752	24.75
799.928	24.32
800.105	23.47
800.281	23.13
800.458	22.97
800.634	23.02
800.811	22.22
800.987	23.23
801.163	21.25
801.34	21.37
801.516	21.02
801.692	21.16
801.869	19.49
802.045	20.16
802.221	20.59
802.398	19.98
802.574	18.68
802.75	20.57
802.926	21.06
803.103	21.54
803.279	22.25
803.455	21.92
803.631	21.74
803.807	22.4
803.983	21.59
804.16	21.33
804.336	21.7
804.512	23.06
804.688	21.83
804.864	20.86
805.04	19.8
805.216	19.35
805.392	20.08
805.568	20
805.744	20.89
805.92	21.1
806.096	21.02
806.272	20.96
806.448	21.28
806.623	21.53
806.799	21.91
806.975	22.55
807.151	22.59
807.327	22.75
807.503	23.32
807.678	23.39
807.854	23.47
808.03	23.53
808.206	23.79
808.381	23.52
808.557	22.56
808.733	23.35
808.908	23.96
809.084	24.09
809.26	23.18
809.435	23.61
809.611	23.37
809.787	24.08
809.962	24.43
810.138	24.59
810.313	25.18
810.489	25.54
810.664	25.82
810.84	26.05
811.015	25.81
811.191	24.35
811.366	23.52
811.542	23.29
811.717	23.3
811.892	22.52
812.068	22.61
812.243	22.07
812.419	21.83
812.594	20.06
812.769	21.3
812.944	21.09
813.12	23.31
813.295	23.82
813.47	25.35
813.645	26.66
813.821	26.76
813.996	26.53
814.171	25.47
814.346	27.51
814.521	28.77
814.697	26.64
814.872	27.56
815.047	27.18
815.222	26.64
815.397	24.85
815.572	24.51
815.747	26.51
815.922	25.22
816.097	26.5
816.272	24.76
816.447	24.29
816.622	25.76
816.797	25.57
816.972	24.59
817.147	24.97
817.322	25.51
817.496	25.54
817.671	23.49
817.846	23.85
818.021	23.04
818.196	24.06
818.371	24.27
818.545	23.87
818.72	23.22
818.895	23.62
819.069	22.29
819.244	22.2
819.419	21.74
819.594	21.98
819.768	22.26
819.943	22.22
820.117	21.8
820.292	21.59
820.467	21.07
820.641	21.4
820.816	21.72
820.99	22.11
821.165	21.93
821.339	21.81
821.514	21.76
821.688	21.99
821.863	22.05
822.037	21.84
822.212	21.67
822.386	21.89
822.56	21.72
822.735	21.41
822.909	21.39
823.084	21.51
823.258	21.35
823.432	21.41
823.606	21.27
823.781	21.4
823.955	21.54
824.129	21.44
824.303	21.35
824.478	21.76
824.652	21.87
824.826	21.63
825	21.46
825.174	21.76
825.348	21.71
825.523	21.62
825.697	21.67
825.871	21.75
826.045	22.33
826.219	22.13
826.393	21.71
826.567	21.93
826.741	22.38
826.915	22.22
827.089	22.34
827.263	22.47
827.437	22.47
827.611	22.15
827.784	22.14
827.958	22.04
828.132	22.39
828.306	22.57
828.48	22.97
828.654	22.96
828.827	23.69
829.001	23.6
829.175	23.7
829.349	24.14
829.522	23.67
829.696	23.19
829.87	23.07
830.044	23.1
830.217	23.28
830.391	22.92
830.565	23.04
830.738	22.49
830.912	22.03
831.085	20.87
831.259	20.63
831.432	20.62
831.606	21.68
831.779	21.43
831.953	20.74
832.126	21.57
832.3	21.07
832.473	20.19
832.647	20.22
832.82	20.29
832.994	21.51
833.167	21.04
833.34	22.4
833.514	22.48
833.687	21.98
833.86	22.01
834.034	21.18
834.207	21.19
834.38	21.38
834.553	21.28
834.727	21.83
834.9	21.81
835.073	22.88
835.246	21.79
835.419	21.9
835.593	22.28
835.766	22.39
835.939	22.97
836.112	23.61
836.285	25.04
836.458	26.64
836.631	26.18
836.804	26.98
836.977	26.25
837.15	26.61
837.323	25.9
837.496	26.91
837.669	28.95
837.842	29.44
838.015	27.52
838.188	25.98
838.361	25.68
838.533	28.2
838.706	27.23
838.879	27.07
839.052	27.27
839.225	28.67
839.398	28.4
839.57	27.68
839.743	26.86
839.916	28.99
840.088	28.93
840.261	27.66
840.434	26.88
840.607	26.18
840.779	27.28
840.952	26.21
841.124	26.21
841.297	25.86
841.47	24.7
841.642	25.57
841.815	24.91
841.987	25.2
842.16	24.7
842.332	21.69
842.505	21.99
842.677	17.69
842.85	21.29
843.022	18.62
843.194	18.91
843.367	19.36
843.539	16.89
843.712	16.38
843.884	17.12
844.056	16.54
844.229	18.72
844.401	20.39
844.573	20.82
844.745	19.2
844.918	20.62
845.09	22.33
845.262	23.2
845.434	22.81
845.606	23.32
845.779	25.41
845.951	24.71
846.123	21.79
846.295	19.84
846.467	23.81
846.639	25.49
846.811	24.86
846.983	24.68
847.155	21.58
847.327	24.34
847.499	20.94
847.671	16.69
847.843	16.8
848.015	18.55
848.187	17.06
848.359	14.89
848.531	17.95
848.703	16.04
848.875	15.23
849.047	16.56
849.218	13.71
849.39	18.51
849.562	19.53
849.734	24.22
849.905	27.08
850.077	28.69
850.249	28.93
850.421	25.79
850.592	26.83
850.764	25.2
850.936	27.45
851.107	30.9
851.279	29.51
851.451	28.88
851.622	21.94
851.794	19.85
851.965	18.38
852.137	18.75
852.308	16.7
852.48	16.66
852.651	17.39
852.823	14.34
852.994	15.54
853.166	14.71
853.337	15.71
853.509	21.31
853.68	20.79
853.851	21.5
854.023	19.59
854.194	19.46
854.365	20.8
854.537	19.18
854.708	21.15
854.879	18.33
855.05	24.18
855.222	27.71
855.393	25.65
855.564	30.43
855.735	32.12
855.906	34.6
856.078	37.75
856.249	39.08
856.42	41.55
856.591	39.86
856.762	41.36
856.933	39.18
857.104	37.26
857.275	36.06
857.446	35.28
857.617	34.98
857.788	31.05
857.959	26.86
858.13	26.87
858.301	29.11
858.472	32.26
858.643	31.45
858.814	28.5
858.985	25.48
859.155	26.2
859.326	24.8
859.497	20.95
859.668	21.45
859.839	22.81
860.009	22.3
860.18	20.99
860.351	19.84
860.522	17.94
860.692	21.39
860.863	25.36
861.034	24.67
861.204	23.19
861.375	23.63
861.546	26.13
861.716	27.94
861.887	28.69
862.057	27.99
862.228	27.62
862.398	29.08
862.569	26.47
862.739	27.51
862.91	25.21
863.08	28.1
863.251	27.74
863.421	26.03
863.592	30.53
863.762	29.27
863.932	24.7
864.103	22.16
864.273	25.22
864.443	27.48
864.614	23.3
864.784	26.01
864.954	27.42
865.125	28.24
865.295	29.24
865.465	26.08
865.635	25.92
865.805	32.78
865.976	34.7
866.146	34
866.316	32.23
866.486	34.41
866.656	38.21
866.826	35.02
866.996	35.69
867.166	34.85
867.336	30.31
867.506	27.39
867.676	21.12
867.846	18.65
868.016	17.62
868.186	18.74
868.356	15.14
868.526	6.1
868.696	3.84
868.866	4.17
869.036	6.6
869.206	7.04
869.376	14.53
869.545	17.3
869.715	21.44
869.885	20.38
870.055	20.24
870.224	22.59
870.394	25.45
870.564	25.98
870.734	24.86
870.903	22.22
871.073	21.87
871.243	20.59
871.412	21.91
871.582	18.02
871.751	22.27
871.921	22.21
872.091	24.43
872.26	26.46
872.43	25.95
872.599	26.46
872.769	31.96
872.938	35.16
873.108	35.07
873.277	31.92
873.446	31.64
873.616	29.31
873.785	31.39
873.955	28.05
874.124	28.69
874.293	31.26
874.463	31.12
874.632	29.42
874.801	26.65
874.971	27.51
875.14	29.59
875.309	32.34
875.478	32.31
875.647	32.08
875.817	35.02
875.986	37
876.155	35.77
876.324	35.31
876.493	39.21
876.662	39.81
876.831	37.4
877	33.88
877.17	26.72
877.339	26.82
877.508	29.28
877.677	30.25
877.846	24.19
878.015	20.92
878.184	23.57
878.352	21.85
878.521	24.97
878.69	24.81
878.859	28.48
879.028	33.17
879.197	29.2
879.366	23.84
879.534	20.55
879.703	24.16
879.872	23.69
880.041	23.23
880.21	22.53
880.378	21.62
880.547	21.48
880.716	21.52
880.884	20.37
881.053	21.56
881.222	23.12
881.39	24.38
881.559	23.71
881.727	24.82
881.896	24.67
882.065	24.64
882.233	25.24
882.402	25.54
882.57	25.25
882.739	26.08
882.907	25.69
883.076	24.73
883.244	24
883.412	23.92
883.581	23.4
883.749	23.7
883.918	23.99
884.086	22.96
884.254	22.47
884.423	23.36
884.591	22.46
884.759	24.01
884.927	25.94
885.096	25.34
885.264	25.49
885.432	26.47
885.6	25.06
885.769	23.99
885.937	24.47
886.105	24.69
886.273	23.02
886.441	24.45
886.609	20.07
886.777	17.49
886.945	20.64
887.113	22.91
887.281	20.43
887.449	20.88
887.617	21.52
887.785	21.13
887.953	23.65
888.121	19.61
888.289	21.09
888.457	25.81
888.625	25.26
888.793	25.86
888.961	21.4
889.129	24.41
889.296	28.48
889.464	28.93
889.632	30.33
889.8	26.72
889.967	33.31
890.135	29.89
