Data from 2938493_Reflection_1.txt Node
Date: Wed Jun 17 00:41:37 EDT 2015
User: robert
Spectrometer: USB4E03002
Autoset integration time: false
Trigger mode: 4
Integration Time (sec): 1.000000E-1
Scans to average: 10
Electric dark correction enabled: true
Nonlinearity correction enabled: false
Boxcar width: 5
Stray light correction enabled: false
XAxis mode: Wavelengths
Stop averaging: false
Number of Pixels in Spectrum: 3648
>>>>>Begin Spectral Data<<<<<
177.575	248.17
177.794	632.87
178.014	-192.66
178.233	-69.63
178.452	-56.5
178.672	795.93
178.891	70.91
179.11	500
179.33	120.19
179.549	-9078.95
179.768	97.92
179.987	107.39
180.207	168.77
180.426	165.84
180.645	139.78
180.864	158.41
181.084	109.12
181.303	249.64
181.522	117.28
181.741	145.94
181.96	157.43
182.179	500.83
182.398	804.29
182.618	232.37
182.837	178.47
183.056	163.78
183.275	142.56
183.494	189.86
183.713	29.02
183.932	1800
184.151	299.58
184.37	-111.64
184.589	-30.4
184.808	59.24
185.027	115.44
185.246	159.92
185.465	-180.78
185.684	-149.68
185.903	-222.49
186.122	-247.65
186.341	552.59
186.56	280.32
186.779	206.95
186.998	158.54
187.216	80.28
187.435	4.63
187.654	15.89
187.873	32.36
188.092	38.34
188.311	63.23
188.53	89.04
188.748	95.22
188.967	113.25
189.186	110.51
189.405	110.98
189.623	119.64
189.842	104.64
190.061	110.12
190.28	191.88
190.498	62.53
190.717	13.06
190.936	-4.62
191.154	38.1
191.373	58.57
191.592	491.33
191.81	383.5
192.029	1549.48
192.248	-808.64
192.466	2582.45
192.685	338.85
192.904	770.12
193.122	548.44
193.341	576.37
193.559	799.38
193.778	346.52
193.996	186.32
194.215	134.71
194.433	121.45
194.652	91.11
194.87	99.72
195.089	82.24
195.307	40.99
195.526	33.97
195.744	7.43
195.963	47.61
196.181	63.14
196.399	47.99
196.618	38.65
196.836	-74.52
197.055	-52.66
197.273	-10.47
197.491	-2.3
197.71	-26.03
197.928	-86.09
198.146	-24.44
198.365	-13.84
198.583	-46.83
198.801	-94.96
199.019	-13.39
199.238	28.09
199.456	64.15
199.674	282.22
199.892	211.83
200.111	3720.72
200.329	2270.87
200.547	1037.72
200.765	724.3
200.983	1441.71
201.202	629.42
201.42	-564.39
201.638	16297.83
201.856	-2198.03
202.074	279.27
202.292	336.55
202.51	226.38
202.728	360.8
202.946	-554.96
203.165	-652.74
203.383	540.66
203.601	286.89
203.819	115.79
204.037	56.22
204.255	56.72
204.473	34.99
204.691	19.23
204.909	25.53
205.127	41.7
205.345	40.22
205.562	33.6
205.78	29.99
205.998	-15.65
206.216	49.19
206.434	350.78
206.652	-76.51
206.87	99.23
207.088	31.72
207.306	-8.8
207.523	-163.47
207.741	1398.66
207.959	107.17
208.177	225.93
208.395	348.13
208.612	-238.51
208.83	17.31
209.048	22.95
209.266	177.58
209.483	-633.92
209.701	-150.5
209.919	212.9
210.136	274.63
210.354	211.18
210.572	277.19
210.79	320.9
211.007	497.55
211.225	338.43
211.442	8950
211.66	-163.83
211.878	-2514.89
212.095	-208.13
212.313	657.12
212.53	366.26
212.748	-74.58
212.966	11.37
213.183	988.5
213.401	253.72
213.618	186.81
213.836	242.61
214.053	1262.77
214.271	1630.8
214.488	-12.38
214.705	8.42
214.923	18.06
215.14	125.86
215.358	146.5
215.575	146.33
215.793	283.08
216.01	542.55
216.227	186.31
216.445	222.67
216.662	154.91
216.879	204.93
217.097	122.79
217.314	128.07
217.531	137.01
217.749	146.51
217.966	139.07
218.183	90.03
218.4	54.53
218.618	72.26
218.835	60.28
219.052	40.31
219.269	27.14
219.487	34.12
219.704	37.5
219.921	27.01
220.138	-1.86
220.355	3.74
220.572	7.79
220.79	9.41
221.007	11.18
221.224	23.26
221.441	30.88
221.658	31.04
221.875	9.31
222.092	2.75
222.309	3.17
222.526	27.94
222.743	24.51
222.96	22.45
223.177	22.84
223.394	12.11
223.611	3.52
223.828	8.74
224.045	9.97
224.262	10.46
224.479	13.31
224.696	18.14
224.913	11.68
225.13	15.36
225.347	12.34
225.564	13.43
225.781	10.57
225.997	12.56
226.214	13.11
226.431	13.97
226.648	15.64
226.865	13.74
227.082	12.72
227.298	11.86
227.515	10.5
227.732	12.34
227.949	10.5
228.165	11.77
228.382	10.15
228.599	9.39
228.816	7.35
229.032	4.99
229.249	6.38
229.466	4.55
229.682	6.21
229.899	5.73
230.116	3.92
230.332	5.21
230.549	5.22
230.765	6.8
230.982	5.27
231.199	6.02
231.415	9.19
231.632	11.41
231.848	12.34
232.065	10.59
232.281	11.67
232.498	11.48
232.714	11.3
232.931	9.7
233.147	8.74
233.364	11.15
233.58	10.53
233.797	11.38
234.013	7.92
234.23	5.43
234.446	6.59
234.662	8.49
234.879	11.61
235.095	13.28
235.312	13.35
235.528	13.78
235.744	11.29
235.961	12.1
236.177	9.66
236.393	10.54
236.61	13.42
236.826	11.09
237.042	9.89
237.258	6.47
237.475	3.54
237.691	6.58
237.907	5.95
238.123	7.06
238.339	10.08
238.556	10.32
238.772	12.96
238.988	12.63
239.204	14.35
239.42	14.46
239.636	14.75
239.853	15.23
240.069	14.75
240.285	14.37
240.501	14.08
240.717	12.58
240.933	12.7
241.149	11.59
241.365	12.04
241.581	11.71
241.797	11.57
242.013	11.97
242.229	12.16
242.445	11.06
242.661	10.67
242.877	11.12
243.093	11.66
243.309	12.23
243.525	11.33
243.741	11.69
243.957	11.46
244.173	12.14
244.388	11.8
244.604	11.45
244.82	11.69
245.036	11.95
245.252	11.55
245.468	11.35
245.683	11.19
245.899	11
246.115	10.62
246.331	10.79
246.547	10.11
246.762	10.02
246.978	9.8
247.194	9.82
247.409	10
247.625	9.91
247.841	10.11
248.057	9.54
248.272	10.38
248.488	9.78
248.703	10.47
248.919	10.8
249.135	10.3
249.35	11.11
249.566	10.36
249.782	10.34
249.997	12.04
250.213	12.33
250.428	12.07
250.644	11.88
250.859	12.69
251.075	11.34
251.29	11.32
251.506	11.01
251.721	10.57
251.937	11.44
252.152	11
252.368	9.34
252.583	8.64
252.798	8.44
253.014	7.83
253.229	7.14
253.445	6.45
253.66	6.69
253.875	6.92
254.091	7.22
254.306	6.89
254.521	6.6
254.737	6.21
254.952	6.47
255.167	7.19
255.383	7.71
255.598	6.85
255.813	7.67
256.028	7.74
256.244	8.71
256.459	7.76
256.674	7.49
256.889	8.21
257.104	7.72
257.32	7.6
257.535	7.54
257.75	7.47
257.965	7.98
258.18	8.04
258.395	7.92
258.61	8
258.826	8.01
259.041	8.27
259.256	7.81
259.471	8.13
259.686	8.42
259.901	8.38
260.116	8.05
260.331	8.16
260.546	8.25
260.761	7.94
260.976	6.94
261.191	7.17
261.406	7.67
261.621	8.01
261.836	8.38
262.05	8.3
262.265	8.46
262.48	9.39
262.695	9.09
262.91	9.53
263.125	10.33
263.34	10
263.555	9.89
263.769	8.16
263.984	8.37
264.199	8.22
264.414	7.85
264.629	6.73
264.843	5.9
265.058	6.71
265.273	5.91
265.488	5.58
265.702	6.29
265.917	6.13
266.132	6.59
266.346	6.29
266.561	6.28
266.776	5.72
266.99	6.98
267.205	7.14
267.42	6.54
267.634	6.74
267.849	6.81
268.063	7.01
268.278	6.92
268.492	7.31
268.707	7.49
268.922	7.12
269.136	7.7
269.351	7.39
269.565	7.31
269.78	7.39
269.994	7.63
270.209	7.64
270.423	7.48
270.637	7.46
270.852	7.32
271.066	7.24
271.281	7.53
271.495	7.85
271.709	7.4
271.924	7.37
272.138	6.93
272.353	6.61
272.567	6.66
272.781	6.29
272.996	6.12
273.21	6.1
273.424	5.98
273.638	5.52
273.853	4.97
274.067	5.53
274.281	6.11
274.495	6.09
274.71	6.19
274.924	5.52
275.138	5.92
275.352	6.72
275.566	6.84
275.781	7.1
275.995	7.83
276.209	8.14
276.423	8.18
276.637	7.72
276.851	8.01
277.065	8.24
277.279	8.89
277.493	8.5
277.707	8.36
277.921	8.44
278.135	8.35
278.349	7.69
278.563	7.7
278.777	7.36
278.991	7.68
279.205	7.61
279.419	7.27
279.633	7.13
279.847	7.36
280.061	7.38
280.275	7.31
280.489	7.49
280.703	7.89
280.917	7.86
281.131	8.35
281.344	7.98
281.558	7.58
281.772	7.82
281.986	7.81
282.2	8.05
282.414	8.17
282.627	7.91
282.841	8.06
283.055	7.88
283.269	7.6
283.482	7.01
283.696	7.2
283.91	7.77
284.123	7.79
284.337	7.88
284.551	7.94
284.764	7.78
284.978	8.07
285.192	7.76
285.405	7.9
285.619	8.04
285.833	8.2
286.046	8.45
286.26	8.58
286.473	7.99
286.687	7.98
286.9	7.97
287.114	7.7
287.327	7.3
287.541	7.16
287.754	6.95
287.968	6.5
288.181	6.68
288.395	6.7
288.608	6.38
288.822	6.55
289.035	6.45
289.248	6.12
289.462	6.24
289.675	6.37
289.889	6.74
290.102	6.89
290.315	6.82
290.529	6.7
290.742	6.18
290.955	6.23
291.169	6.31
291.382	6.15
291.595	6.23
291.808	6.6
292.022	6.2
292.235	5.69
292.448	5.34
292.661	6.27
292.875	6.17
293.088	6.35
293.301	6.64
293.514	6.76
293.727	7.35
293.94	7.69
294.153	7.29
294.367	7.82
294.58	7.86
294.793	8.14
295.006	7.49
295.219	7.72
295.432	7.65
295.645	7.24
295.858	7.57
296.071	7.23
296.284	6.96
296.497	6.76
296.71	6.46
296.923	6.91
297.136	6.47
297.349	7
297.562	6.92
297.775	6.93
297.988	6.93
298.201	6.63
298.414	6.26
298.626	6.17
298.839	6.69
299.052	7.14
299.265	6.9
299.478	7.32
299.691	7.17
299.903	6.9
300.116	6.72
300.329	7.16
300.542	6.73
300.755	7.3
300.967	7.3
301.18	7.4
301.393	7.12
301.605	7.07
301.818	7.19
302.031	7.26
302.243	7.94
302.456	7.7
302.669	7.42
302.881	7.61
303.094	7.89
303.307	8.13
303.519	7.51
303.732	7.44
303.944	7.41
304.157	7.07
304.37	7.13
304.582	6.59
304.795	6.82
305.007	7.08
305.22	7
305.432	7.02
305.645	6.78
305.857	6.88
306.069	6.61
306.282	6.25
306.494	6.63
306.707	6.8
306.919	6.87
307.132	6.86
307.344	6.59
307.556	6.99
307.769	6.66
307.981	7.16
308.193	7.84
308.406	7.92
308.618	8.18
308.83	8.27
309.043	8.03
309.255	7.93
309.467	8.37
309.679	8.8
309.892	8.69
310.104	8.78
310.316	8.6
310.528	8.33
310.74	8.54
310.953	8.38
311.165	8.37
311.377	8.28
311.589	8.22
311.801	7.89
312.013	7.47
312.225	7.39
312.437	7.17
312.649	7.2
312.862	7.31
313.074	7.32
313.286	7.24
313.498	6.97
313.71	6.97
313.922	7.49
314.134	7.46
314.346	7.19
314.558	6.74
314.77	6.71
314.982	6.61
315.193	6.24
315.405	5.71
315.617	6.2
315.829	5.97
316.041	5.92
316.253	5.3
316.465	5.79
316.677	5.68
316.888	6.16
317.1	6.54
317.312	6.61
317.524	6.76
317.736	7.51
317.947	7.57
318.159	7.74
318.371	7.68
318.583	7.85
318.794	7.37
319.006	7.9
319.218	8.49
319.43	8.36
319.641	8.15
319.853	8.15
320.064	7.77
320.276	7.56
320.488	7.55
320.699	7.95
320.911	8.24
321.123	7.97
321.334	7.67
321.546	7.31
321.757	7.03
321.969	7.18
322.18	6.71
322.392	6.59
322.603	6.41
322.815	6.52
323.026	6.61
323.238	6.2
323.449	6.41
323.661	6.33
323.872	6.59
324.083	6.58
324.295	5.82
324.506	6.12
324.718	6.5
324.929	6.33
325.14	6.34
325.352	5.92
325.563	6.64
325.774	6.54
325.986	6.84
326.197	6.77
326.408	6.35
326.62	7.04
326.831	7.18
327.042	7.25
327.253	7.19
327.464	7.65
327.676	7.4
327.887	6.77
328.098	7.11
328.309	7.14
328.52	6.9
328.732	7.6
328.943	7.42
329.154	7
329.365	6.14
329.576	6.1
329.787	5.7
329.998	6.21
330.209	6.13
330.42	6.56
330.631	6.5
330.842	6.51
331.053	6.54
331.264	6.9
331.475	7.12
331.686	8.19
331.897	8.67
332.108	8.75
332.319	8.73
332.53	9.03
332.741	8.46
332.952	8.16
333.163	8.55
333.374	8.16
333.585	7.91
333.795	8.16
334.006	7.79
334.217	7.13
334.428	6.91
334.639	6.99
334.849	7.27
335.06	7.22
335.271	7.27
335.482	6.69
335.692	6.68
335.903	6.36
336.114	6.07
336.325	5.73
336.535	6.55
336.746	6.83
336.957	6.88
337.167	6.66
337.378	6.73
337.589	6.88
337.799	6.9
338.01	7.36
338.22	7.58
338.431	7.35
338.642	7.47
338.852	7.45
339.063	7.3
339.273	6.81
339.484	6.58
339.694	6.82
339.905	6.94
340.115	7.21
340.326	6.84
340.536	7.05
340.746	7.31
340.957	7.2
341.167	6.85
341.378	6.5
341.588	6.67
341.799	6.92
342.009	6.76
342.219	6.43
342.43	6.19
342.64	6.22
342.85	6.73
343.061	7.09
343.271	7.34
343.481	7.48
343.691	7.78
343.902	7.82
344.112	7.55
344.322	7.4
344.532	7.49
344.743	7.6
344.953	7.61
345.163	6.81
345.373	6.79
345.583	6.74
345.793	6.36
346.004	6.14
346.214	6.19
346.424	6.61
346.634	7.3
346.844	7.34
347.054	7.68
347.264	7.53
347.474	7.69
347.684	7.5
347.894	7.48
348.104	7.95
348.314	7.84
348.524	7.63
348.734	7.56
348.944	6.74
349.154	7.02
349.364	6.72
349.574	6.79
349.784	6.67
349.994	6.46
350.204	6.33
350.413	6.08
350.623	6.05
350.833	6.37
351.043	6.14
351.253	6.32
351.463	6.2
351.672	5.86
351.882	6.52
352.092	6.47
352.302	6.61
352.511	6.67
352.721	6.88
352.931	7
353.141	6.78
353.35	6.78
353.56	6.73
353.77	6.81
353.979	7.2
354.189	6.44
354.399	6.48
354.608	6.54
354.818	6.25
355.027	6.12
355.237	6.13
355.447	6.31
355.656	6.08
355.866	5.94
356.075	5.85
356.285	5.72
356.494	5.72
356.704	5.67
356.913	5.65
357.123	5.61
357.332	5.68
357.542	5.49
357.751	5.48
357.96	5.72
358.17	5.95
358.379	5.89
358.589	5.9
358.798	6.29
359.007	6.28
359.217	6.43
359.426	6.66
359.635	6.39
359.845	6.48
360.054	6.3
360.263	6.42
360.472	6.33
360.682	6.23
360.891	6.1
361.1	6.1
361.309	6.16
361.519	6.01
361.728	5.94
361.937	5.95
362.146	6.06
362.355	6.2
362.564	6.09
362.774	6.08
362.983	6.04
363.192	6.06
363.401	5.91
363.61	5.94
363.819	5.87
364.028	5.78
364.237	5.8
364.446	5.78
364.655	5.55
364.864	5.32
365.073	5.47
365.282	5.72
365.491	5.86
365.7	5.84
365.909	5.73
366.118	5.49
366.327	5.5
366.536	5.7
366.745	5.66
366.954	5.6
367.162	5.42
367.371	5.23
367.58	4.95
367.789	4.97
367.998	5.1
368.207	5.01
368.415	4.93
368.624	5.23
368.833	5.03
369.042	5.07
369.25	5.22
369.459	5.22
369.668	5.1
369.877	5.14
370.085	5.15
370.294	4.92
370.503	5.07
370.711	5.05
370.92	4.81
371.129	4.95
371.337	4.87
371.546	4.8
371.754	5.02
371.963	5.02
372.171	4.91
372.38	4.96
372.589	4.99
372.797	4.79
373.006	5.07
373.214	5.1
373.423	4.82
373.631	4.66
373.84	4.66
374.048	4.78
374.256	5
374.465	5.44
374.673	5.18
374.882	5.13
375.09	5.13
375.298	5.06
375.507	4.98
375.715	5.3
375.923	5.42
376.132	5.46
376.34	5.56
376.548	5.55
376.757	5.19
376.965	5.14
377.173	5.25
377.381	5.31
377.59	5.26
377.798	5.18
378.006	5.01
378.214	4.99
378.423	5.07
378.631	4.79
378.839	4.62
379.047	4.79
379.255	4.91
379.463	4.87
379.671	4.84
379.879	4.77
380.088	4.85
380.296	4.55
380.504	4.64
380.712	4.28
380.92	4.36
381.128	4.4
381.336	4.37
381.544	4.16
381.752	4.08
381.96	4.06
382.168	4.21
382.376	4.36
382.584	4.54
382.791	4.55
382.999	4.58
383.207	4.55
383.415	4.64
383.623	4.51
383.831	4.41
384.039	4.52
384.247	4.49
384.454	4.5
384.662	4.61
384.87	4.52
385.078	4.39
385.285	4.41
385.493	4.59
385.701	4.47
385.909	4.57
386.116	4.76
386.324	4.77
386.532	4.71
386.739	4.65
386.947	4.38
387.155	4.43
387.362	4.48
387.57	4.54
387.778	4.24
387.985	4.2
388.193	4.05
388.4	3.83
388.608	3.55
388.816	3.61
389.023	3.6
389.231	3.73
389.438	3.8
389.646	3.89
389.853	4
390.061	4.01
390.268	3.96
390.475	3.89
390.683	4.22
390.89	4.31
391.098	4.21
391.305	4.13
391.512	3.97
391.72	3.95
391.927	3.77
392.135	3.76
392.342	3.65
392.549	3.67
392.756	3.89
392.964	3.91
393.171	3.93
393.378	4.03
393.586	3.94
393.793	3.91
394	3.9
394.207	3.87
394.414	3.79
394.622	3.88
394.829	3.9
395.036	3.72
395.243	3.5
395.45	3.42
395.657	3.36
395.864	3.59
396.072	3.41
396.279	3.29
396.486	3.44
396.693	3.56
396.9	3.62
397.107	3.59
397.314	3.47
397.521	3.62
397.728	3.51
397.935	3.72
398.142	3.76
398.349	4.14
398.556	4.12
398.763	4.05
398.97	4.02
399.177	4.18
399.383	4.28
399.59	4.33
399.797	4.19
400.004	4.24
400.211	4.07
400.418	4.03
400.625	4.08
400.831	3.93
401.038	3.94
401.245	3.94
401.452	4.03
401.658	3.86
401.865	4
402.072	3.87
402.279	3.9
402.485	4.05
402.692	4.03
402.899	3.77
403.105	3.92
403.312	3.82
403.519	3.84
403.725	3.58
403.932	3.75
404.138	3.64
404.345	3.83
404.552	3.96
404.758	3.76
404.965	3.71
405.171	3.72
405.378	3.64
405.584	3.63
405.791	3.51
405.997	3.55
406.204	3.46
406.41	3.62
406.617	3.39
406.823	3.3
407.029	3.43
407.236	3.4
407.442	3.54
407.649	3.56
407.855	3.71
408.061	3.58
408.268	3.55
408.474	3.58
408.68	3.4
408.887	3.51
409.093	3.43
409.299	3.41
409.505	3.46
409.712	3.43
409.918	3.45
410.124	3.53
410.33	3.56
410.537	3.64
410.743	3.58
410.949	3.69
411.155	3.71
411.361	3.71
411.567	3.73
411.773	3.7
411.98	3.74
412.186	3.74
412.392	3.51
412.598	3.67
412.804	3.55
413.01	3.6
413.216	3.67
413.422	3.77
413.628	3.72
413.834	3.64
414.04	3.57
414.246	3.44
414.452	3.56
414.658	3.59
414.864	3.46
415.07	3.32
415.275	3.33
415.481	3.2
415.687	3.15
415.893	3.18
416.099	3.08
416.305	3.07
416.511	3.14
416.716	3.02
416.922	2.98
417.128	2.98
417.334	3.12
417.539	3.11
417.745	3.09
417.951	3.07
418.157	3.11
418.362	3.14
418.568	3.21
418.774	3.12
418.979	3.11
419.185	3.08
419.391	3.11
419.596	3.06
419.802	3.03
420.008	3.05
420.213	3.03
420.419	3.05
420.624	3.05
420.83	3.03
421.035	3.13
421.241	3.11
421.446	3.15
421.652	3.12
421.857	3.19
422.063	3.27
422.268	3.28
422.474	3.33
422.679	3.21
422.885	3.21
423.09	3.22
423.295	3.13
423.501	3.21
423.706	3.15
423.911	3.25
424.117	3.18
424.322	3.12
424.527	3.08
424.733	2.98
424.938	3.01
425.143	3.02
425.349	2.93
425.554	2.98
425.759	3.04
425.964	3.15
426.169	3.01
426.375	3.03
426.58	2.98
426.785	3.02
426.99	3.04
427.195	3.03
427.4	3.02
427.605	3.06
427.811	2.98
428.016	2.93
428.221	2.94
428.426	2.92
428.631	2.8
428.836	2.86
429.041	2.8
429.246	2.95
429.451	3.01
429.656	2.89
429.861	2.81
430.066	2.9
430.271	2.87
430.476	2.86
430.681	2.87
430.886	3
431.09	2.8
431.295	2.83
431.5	2.77
431.705	2.75
431.91	2.89
432.115	2.91
432.32	2.82
432.524	2.82
432.729	2.79
432.934	2.79
433.139	2.78
433.343	3
433.548	2.95
433.753	2.94
433.958	3.03
434.162	2.86
434.367	2.84
434.572	2.82
434.776	2.67
434.981	2.7
435.186	2.67
435.39	2.63
435.595	2.62
435.799	2.69
436.004	2.64
436.209	2.63
436.413	2.62
436.618	2.67
436.822	2.75
437.027	2.77
437.231	2.71
437.436	2.76
437.64	2.79
437.845	2.69
438.049	2.72
438.253	2.75
438.458	2.74
438.662	2.88
438.867	2.9
439.071	2.89
439.275	2.97
439.48	2.98
439.684	3.02
439.888	3.04
440.093	3.08
440.297	3.13
440.501	3.18
440.706	3.1
440.91	3.12
441.114	3.1
441.318	3.17
441.523	3.11
441.727	3.19
441.931	3.16
442.135	3.14
442.339	3.17
442.543	3.07
442.748	2.96
442.952	3
443.156	2.99
443.36	2.99
443.564	3
443.768	3.03
443.972	3.01
444.176	3.05
444.38	3.09
444.584	3.08
444.788	3.15
444.992	3.17
445.196	3.19
445.4	3.2
445.604	3.23
445.808	3.22
446.012	3.13
446.216	3.21
446.42	3.08
446.624	3.09
446.828	3.12
447.032	3.05
447.235	3.01
447.439	3
447.643	3.02
447.847	3
448.051	2.92
448.254	3.09
448.458	2.89
448.662	2.91
448.866	2.82
449.069	2.81
449.273	2.75
449.477	2.8
449.681	2.77
449.884	2.78
450.088	2.59
450.292	2.59
450.495	2.55
450.699	2.64
450.902	2.73
451.106	2.8
451.31	2.76
451.513	2.81
451.717	2.8
451.92	2.84
452.124	2.67
452.327	2.77
452.531	2.73
452.734	2.74
452.938	2.72
453.141	2.7
453.345	2.54
453.548	2.5
453.752	2.54
453.955	2.51
454.158	2.58
454.362	2.7
454.565	2.75
454.769	2.9
454.972	2.99
455.175	2.93
455.379	2.91
455.582	3
455.785	2.94
455.988	2.82
456.192	2.88
456.395	2.75
456.598	2.82
456.801	2.8
457.005	2.72
457.208	2.54
457.411	2.63
457.614	2.63
457.817	2.63
458.021	2.76
458.224	2.77
458.427	2.81
458.63	2.83
458.833	2.73
459.036	2.7
459.239	2.72
459.442	2.76
459.645	2.72
459.848	2.76
460.051	2.78
460.254	2.66
460.457	2.68
460.66	2.55
460.863	2.54
461.066	2.59
461.269	2.64
461.472	2.66
461.675	2.61
461.878	2.59
462.081	2.44
462.284	2.41
462.486	2.4
462.689	2.45
462.892	2.55
463.095	2.44
463.298	2.44
463.5	2.41
463.703	2.44
463.906	2.57
464.109	2.59
464.311	2.61
464.514	2.57
464.717	2.57
464.92	2.55
465.122	2.54
465.325	2.7
465.528	2.72
465.73	2.68
465.933	2.55
466.135	2.47
466.338	2.46
466.541	2.47
466.743	2.56
466.946	2.65
467.148	2.63
467.351	2.61
467.553	2.58
467.756	2.63
467.958	2.79
468.161	2.86
468.363	2.86
468.566	2.85
468.768	2.84
468.971	2.87
469.173	2.81
469.375	2.79
469.578	2.82
469.78	2.83
469.983	2.67
470.185	2.53
470.387	2.48
470.59	2.62
470.792	2.7
470.994	2.79
471.196	2.67
471.399	2.74
471.601	2.73
471.803	2.77
472.005	2.72
472.208	2.78
472.41	2.9
472.612	2.9
472.814	2.9
473.016	2.93
473.218	2.97
473.421	3.04
473.623	2.92
473.825	2.9
474.027	2.98
474.229	3
474.431	2.98
474.633	3.01
474.835	3.04
475.037	2.94
475.239	2.91
475.441	2.88
475.643	2.8
475.845	2.95
476.047	2.93
476.249	2.74
476.451	2.74
476.653	2.74
476.855	2.66
477.057	2.76
477.258	2.73
477.46	2.61
477.662	2.61
477.864	2.66
478.066	2.56
478.268	2.68
478.469	2.69
478.671	2.63
478.873	2.65
479.075	2.67
479.276	2.57
479.478	2.65
479.68	2.77
479.882	2.76
480.083	2.71
480.285	2.7
480.487	2.69
480.688	2.73
480.89	2.82
481.091	2.88
481.293	2.87
481.495	2.9
481.696	2.85
481.898	2.81
482.099	2.82
482.301	2.82
482.502	2.81
482.704	2.83
482.905	2.84
483.107	2.81
483.308	2.79
483.51	2.79
483.711	2.77
483.913	2.79
484.114	2.8
484.315	2.83
484.517	2.89
484.718	2.91
484.92	2.89
485.121	2.88
485.322	2.88
485.524	2.88
485.725	2.9
485.926	2.93
486.127	2.93
486.329	2.91
486.53	2.88
486.731	2.86
486.932	2.85
487.134	2.82
487.335	2.83
487.536	2.82
487.737	2.79
487.938	2.78
488.139	2.74
488.341	2.76
488.542	2.77
488.743	2.78
488.944	2.77
489.145	2.8
489.346	2.85
489.547	2.8
489.748	2.82
489.949	2.8
490.15	2.8
490.351	2.83
490.552	2.81
490.753	2.82
490.954	2.82
491.155	2.83
491.356	2.78
491.557	2.76
491.758	2.79
491.959	2.78
492.159	2.83
492.36	2.85
492.561	2.83
492.762	2.79
492.963	2.72
493.164	2.68
493.364	2.67
493.565	2.76
493.766	2.69
493.967	2.72
494.167	2.78
494.368	2.69
494.569	2.72
494.769	2.67
494.97	2.77
495.171	2.85
495.371	2.91
495.572	2.97
495.773	2.89
495.973	2.94
496.174	2.91
496.375	2.93
496.575	2.95
496.776	2.93
496.976	2.97
497.177	3
497.377	2.94
497.578	2.9
497.778	2.81
497.979	2.79
498.179	2.82
498.38	2.93
498.58	2.86
498.78	2.91
498.981	2.88
499.181	2.9
499.382	2.89
499.582	2.9
499.782	2.97
499.983	3.04
500.183	3.14
500.383	3.11
500.584	3.08
500.784	3.04
500.984	2.91
501.184	3.01
501.385	2.97
501.585	2.9
501.785	2.84
501.985	2.78
502.185	2.79
502.386	2.81
502.586	2.87
502.786	2.9
502.986	2.99
503.186	3.02
503.386	3.02
503.586	3.09
503.786	3.1
503.987	3.23
504.187	3.27
504.387	3.24
504.587	3.24
504.787	3.2
504.987	3.15
505.187	3.09
505.387	3.17
505.587	3.15
505.786	3.19
505.986	3.16
506.186	3.18
506.386	3.13
506.586	3.16
506.786	3.17
506.986	3.26
507.186	3.27
507.386	3.25
507.585	3.23
507.785	3.24
507.985	3.19
508.185	3.23
508.384	3.22
508.584	3.3
508.784	3.32
508.984	3.34
509.183	3.32
509.383	3.37
509.583	3.45
509.782	3.53
509.982	3.47
510.182	3.5
510.381	3.52
510.581	3.54
510.781	3.49
510.98	3.46
511.18	3.39
511.379	3.37
511.579	3.37
511.778	3.39
511.978	3.36
512.177	3.37
512.377	3.41
512.576	3.43
512.776	3.42
512.975	3.4
513.175	3.46
513.374	3.52
513.573	3.52
513.773	3.54
513.972	3.56
514.172	3.6
514.371	3.75
514.57	3.78
514.77	3.8
514.969	3.79
515.168	3.81
515.367	3.85
515.567	3.86
515.766	3.92
515.965	3.92
516.164	3.91
516.364	3.88
516.563	3.89
516.762	3.83
516.961	3.81
517.16	3.83
517.359	3.88
517.559	3.88
517.758	3.88
517.957	3.84
518.156	3.83
518.355	3.85
518.554	3.89
518.753	3.79
518.952	3.81
519.151	3.84
519.35	3.86
519.549	3.87
519.748	3.84
519.947	3.93
520.146	3.97
520.345	4
520.544	3.93
520.743	3.96
520.942	4.03
521.141	4.09
521.339	4.08
521.538	4.12
521.737	4.13
521.936	4.19
522.135	4.16
522.333	4.19
522.532	4.17
522.731	4.28
522.93	4.25
523.129	4.29
523.327	4.23
523.526	4.2
523.725	4.26
523.923	4.25
524.122	4.26
524.321	4.28
524.519	4.25
524.718	4.25
524.917	4.21
525.115	4.2
525.314	4.22
525.512	4.22
525.711	4.31
525.909	4.24
526.108	4.3
526.306	4.26
526.505	4.27
526.703	4.34
526.902	4.37
527.1	4.41
527.299	4.4
527.497	4.38
527.696	4.4
527.894	4.38
528.092	4.39
528.291	4.35
528.489	4.38
528.688	4.39
528.886	4.39
529.084	4.4
529.283	4.38
529.481	4.4
529.679	4.4
529.877	4.47
530.076	4.49
530.274	4.54
530.472	4.62
530.67	4.7
530.869	4.68
531.067	4.63
531.265	4.7
531.463	4.74
531.661	4.78
531.859	4.8
532.057	4.74
532.255	4.78
532.454	4.79
532.652	4.8
532.85	4.76
533.048	4.78
533.246	4.86
533.444	4.84
533.642	4.85
533.84	4.88
534.038	4.92
534.236	4.99
534.434	4.94
534.632	5.01
534.83	5.04
535.027	5.01
535.225	5.01
535.423	4.98
535.621	4.99
535.819	4.99
536.017	5.05
536.215	5.02
536.412	5.03
536.61	5.09
536.808	5.1
537.006	5.04
537.203	5.16
537.401	5.21
537.599	5.32
537.797	5.33
537.994	5.41
538.192	5.42
538.39	5.56
538.587	5.58
538.785	5.63
538.983	5.63
539.18	5.66
539.378	5.67
539.575	5.66
539.773	5.62
539.97	5.59
540.168	5.61
540.366	5.6
540.563	5.59
540.761	5.59
540.958	5.59
541.155	5.59
541.353	5.64
541.55	5.66
541.748	5.66
541.945	5.68
542.143	5.76
542.34	5.83
542.537	5.84
542.735	5.86
542.932	5.9
543.129	5.92
543.327	5.95
543.524	5.9
543.721	5.87
543.919	5.94
544.116	6.03
544.313	6.09
544.51	6.12
544.708	6.22
544.905	6.22
545.102	6.29
545.299	6.37
545.496	6.34
545.693	6.42
545.891	6.51
546.088	6.52
546.285	6.51
546.482	6.43
546.679	6.38
546.876	6.38
547.073	6.41
547.27	6.47
547.467	6.5
547.664	6.59
547.861	6.62
548.058	6.67
548.255	6.81
548.452	6.81
548.649	6.93
548.846	6.97
549.043	6.96
549.24	7.04
549.437	7.07
549.633	7.05
549.83	7.17
550.027	7.22
550.224	7.2
550.421	7.11
550.618	7.17
550.814	7.26
551.011	7.19
551.208	7.19
551.405	7.21
551.601	7.17
551.798	7.12
551.995	7.12
552.191	7.08
552.388	7.07
552.585	7.23
552.781	7.28
552.978	7.17
553.175	7.34
553.371	7.49
553.568	7.5
553.764	7.58
553.961	7.69
554.157	7.81
554.354	7.82
554.55	7.93
554.747	8.03
554.943	8.05
555.14	8.18
555.336	8.16
555.533	8.15
555.729	8.19
555.926	8.26
556.122	8.33
556.318	8.3
556.515	8.47
556.711	8.49
556.907	8.42
557.104	8.43
557.3	8.5
557.496	8.5
557.693	8.62
557.889	8.68
558.085	8.69
558.281	8.74
558.478	8.66
558.674	8.83
558.87	8.82
559.066	8.81
559.262	8.92
559.459	8.99
559.655	9.19
559.851	9.2
560.047	9.22
560.243	9.18
560.439	9.21
560.635	9.33
560.831	9.26
561.027	9.42
561.223	9.54
561.419	9.62
561.615	9.61
561.811	9.58
562.007	9.65
562.203	9.59
562.399	9.63
562.595	9.61
562.791	9.58
562.987	9.63
563.183	9.59
563.379	9.68
563.575	9.72
563.771	9.89
563.966	9.95
564.162	9.96
564.358	10.13
564.554	10.22
564.75	10.34
564.945	10.51
565.141	10.51
565.337	10.67
565.533	10.63
565.728	10.68
565.924	10.69
566.12	10.76
566.315	10.75
566.511	10.69
566.707	10.75
566.902	10.79
567.098	10.74
567.293	10.76
567.489	10.69
567.684	10.72
567.88	10.77
568.076	10.74
568.271	10.67
568.467	10.76
568.662	10.87
568.858	10.83
569.053	10.77
569.248	10.8
569.444	10.94
569.639	10.96
569.835	11.08
570.03	11.12
570.225	11.21
570.421	11.33
570.616	11.43
570.812	11.54
571.007	11.67
571.202	11.81
571.397	11.93
571.593	11.93
571.788	12.04
571.983	12.09
572.178	12.17
572.374	12.24
572.569	12.2
572.764	12.29
572.959	12.25
573.154	12.33
573.35	12.4
573.545	12.46
573.74	12.48
573.935	12.47
574.13	12.46
574.325	12.44
574.52	12.43
574.715	12.57
574.91	12.55
575.105	12.64
575.3	12.58
575.495	12.61
575.69	12.64
575.885	12.65
576.08	12.78
576.275	12.78
576.47	12.75
576.665	12.75
576.86	12.77
577.055	12.78
577.25	12.93
577.444	12.96
577.639	12.92
577.834	12.95
578.029	13.04
578.224	12.94
578.418	13.06
578.613	13.15
578.808	13.21
579.003	13.23
579.197	13.16
579.392	12.98
579.587	13.01
579.781	13.23
579.976	13.21
580.171	13.42
580.365	13.53
580.56	13.52
580.755	13.64
580.949	13.66
581.144	13.74
581.338	13.85
581.533	13.94
581.727	14.17
581.922	14.04
582.116	13.97
582.311	13.86
582.505	13.96
582.7	14.01
582.894	13.98
583.089	14
583.283	13.95
583.478	13.86
583.672	13.95
583.866	13.79
584.061	13.78
584.255	13.94
584.449	13.89
584.644	13.83
584.838	13.83
585.032	13.95
585.226	14.01
585.421	14.1
585.615	14.28
585.809	14.26
586.003	14.15
586.198	14.38
586.392	14.34
586.586	14.4
586.78	14.36
586.974	14.42
587.168	14.33
587.363	14.16
587.557	14.21
587.751	14.21
587.945	14.21
588.139	14.32
588.333	14.29
588.527	14.4
588.721	14.44
588.915	14.57
589.109	14.62
589.303	14.66
589.497	14.83
589.691	14.82
589.885	14.77
590.079	14.81
590.273	14.86
590.466	14.84
590.66	14.78
590.854	14.72
591.048	14.57
591.242	14.5
591.436	14.53
591.629	14.72
591.823	14.82
592.017	14.93
592.211	14.97
592.404	15.1
592.598	15.08
592.792	15.07
592.986	15.14
593.179	15.34
593.373	15.31
593.567	15.38
593.76	15.34
593.954	15.33
594.147	15.42
594.341	15.52
594.535	15.52
594.728	15.55
594.922	15.62
595.115	15.7
595.309	15.65
595.502	15.79
595.696	15.77
595.889	15.75
596.083	15.64
596.276	15.59
596.47	15.57
596.663	15.57
596.856	15.65
597.05	15.67
597.243	15.56
597.437	15.51
597.63	15.47
597.823	15.44
598.017	15.41
598.21	15.44
598.403	15.53
598.596	15.47
598.79	15.57
598.983	15.62
599.176	15.7
599.369	15.95
599.563	16.16
599.756	16.15
599.949	16.2
600.142	16.23
600.335	16.3
600.528	16.3
600.722	16.36
600.915	16.23
601.108	16.16
601.301	16.11
601.494	15.99
601.687	15.99
601.88	16.11
602.073	16.06
602.266	16.02
602.459	16
602.652	16
602.845	15.98
603.038	15.94
603.231	15.95
603.424	16.03
603.617	16.03
603.809	16.02
604.002	15.89
604.195	16.02
604.388	16.06
604.581	16.08
604.774	16.01
604.966	16.08
605.159	16.29
605.352	16.34
605.545	16.31
605.737	16.24
605.93	16.22
606.123	16.32
606.316	16.2
606.508	16.29
606.701	16.44
606.894	16.67
607.086	16.6
607.279	16.55
607.471	16.51
607.664	16.41
607.857	16.57
608.049	16.6
608.242	16.59
608.434	16.61
608.627	16.46
608.819	16.39
609.012	16.24
609.204	16.26
609.397	16.18
609.589	16.13
609.782	16.16
609.974	16.05
610.166	15.99
610.359	15.97
610.551	16.03
610.743	16.18
610.936	16.26
611.128	16.34
611.32	16.33
611.513	16.31
611.705	16.34
611.897	16.37
612.09	16.69
612.282	16.66
612.474	16.61
612.666	16.6
612.858	16.8
613.051	16.88
613.243	16.74
613.435	16.84
613.627	17.03
613.819	17.15
614.011	17.26
614.203	16.96
614.395	17.07
614.588	17.17
614.78	17.17
614.972	16.96
615.164	16.78
615.356	16.98
615.548	16.84
615.74	16.72
615.932	16.58
616.124	16.67
616.315	16.85
616.507	16.75
616.699	17.02
616.891	17.07
617.083	16.89
617.275	16.9
617.467	16.85
617.659	17.01
617.85	17.16
618.042	17.25
618.234	17.05
618.426	16.94
618.618	16.93
618.809	16.65
619.001	16.74
619.193	17.06
619.384	16.95
619.576	17.17
619.768	17.06
619.959	16.94
620.151	16.97
620.343	17.08
620.534	17.13
620.726	17.32
620.917	17.46
621.109	17.32
621.301	17.23
621.492	17.24
621.684	17.09
621.875	17.13
622.067	17.18
622.258	17.13
622.45	17.11
622.641	17.21
622.832	17.13
623.024	17.03
623.215	17.15
623.407	17.21
623.598	17.39
623.789	17.37
623.981	17.44
624.172	17.5
624.363	17.64
624.555	17.59
624.746	17.48
624.937	17.44
625.129	17.49
625.32	17.38
625.511	17.36
625.702	17.39
625.893	17.52
626.085	17.55
626.276	17.55
626.467	17.55
626.658	17.48
626.849	17.53
627.04	17.52
627.231	17.62
627.422	17.75
627.614	17.78
627.805	17.76
627.996	17.65
628.187	17.64
628.378	17.51
628.569	17.43
628.76	17.45
628.951	17.65
629.142	17.73
629.332	17.7
629.523	17.73
629.714	17.74
629.905	17.68
630.096	17.64
630.287	17.62
630.478	17.73
630.669	17.74
630.859	17.99
631.05	17.8
631.241	17.84
631.432	17.83
631.623	17.91
631.813	17.92
632.004	17.92
632.195	17.99
632.385	17.91
632.576	17.91
632.767	17.82
632.957	17.67
633.148	17.74
633.339	17.83
633.529	17.86
633.72	17.61
633.91	17.7
634.101	17.8
634.292	17.74
634.482	17.89
634.673	17.93
634.863	17.87
635.054	18.12
635.244	18.12
635.435	18.1
635.625	17.98
635.815	18.05
636.006	17.74
636.196	17.86
636.387	18.04
636.577	17.98
636.767	18
636.958	18.3
637.148	18.14
637.338	18.05
637.529	17.98
637.719	18.15
637.909	18.24
638.099	18.5
638.29	18.48
638.48	18.54
638.67	18.49
638.86	18.68
639.05	18.64
639.241	18.52
639.431	18.46
639.621	18.61
639.811	18.54
640.001	18.57
640.191	18.52
640.381	18.49
640.571	18.38
640.761	18.37
640.951	18.19
641.141	18.09
641.331	18.37
641.521	18.53
641.711	18.18
641.901	18.21
642.091	18.23
642.281	18.05
642.471	17.71
642.661	17.79
642.851	17.82
643.041	17.88
643.231	17.96
643.42	17.81
643.61	17.73
643.8	18.01
643.99	17.98
644.18	17.91
644.369	18.18
644.559	18.74
644.749	18.62
644.939	18.67
645.128	18.61
645.318	18.6
645.508	18.64
645.697	18.85
645.887	18.91
646.076	18.98
646.266	19.09
646.456	19.01
646.645	18.96
646.835	18.89
647.024	18.95
647.214	19.07
647.403	19.09
647.593	18.98
647.782	19.07
647.972	18.89
648.161	18.81
648.351	18.88
648.54	18.9
648.73	18.65
648.919	18.82
649.108	18.69
649.298	18.57
649.487	18.51
649.677	18.76
649.866	18.52
650.055	18.74
650.244	18.77
650.434	18.76
650.623	18.93
650.812	19.24
651.002	19.12
651.191	19.32
651.38	19.36
651.569	19.49
651.758	19.37
651.947	19.31
652.137	19.12
652.326	18.92
652.515	18.97
652.704	18.7
652.893	18.32
653.082	18.27
653.271	18.07
653.46	17.93
653.649	18.11
653.838	18.12
654.027	18.21
654.216	18.19
654.405	18.48
654.594	18.31
654.783	18.38
654.972	18.58
655.161	18.81
655.35	18.81
655.539	18.87
655.728	18.61
655.916	18.72
656.105	18.63
656.294	18.63
656.483	18.47
656.672	18.61
656.86	18.68
657.049	18.67
657.238	18.58
657.427	18.73
657.615	18.87
657.804	19.03
657.993	19.06
658.181	19.27
658.37	19.39
658.559	19.57
658.747	19.56
658.936	19.39
659.125	19.57
659.313	19.59
659.502	19.55
659.69	19.6
659.879	19.56
660.067	19.51
660.256	19.45
660.444	19.38
660.633	19.37
660.821	19.31
661.01	19.41
661.198	19.14
661.387	19.04
661.575	19
661.763	19
661.952	18.9
662.14	18.75
662.328	18.63
662.517	18.54
662.705	18.25
662.893	18.43
663.082	18.53
663.27	18.52
663.458	18.59
663.646	18.57
663.834	18.54
664.023	18.67
664.211	18.84
664.399	19.05
664.587	19.21
664.775	19.22
664.963	19.06
665.152	19.04
665.34	19.08
665.528	19.16
665.716	19.12
665.904	18.96
666.092	18.87
666.28	18.77
666.468	18.73
666.656	18.8
666.844	18.9
667.032	19.01
667.22	19.13
667.408	19.18
667.596	19.02
667.784	19.22
667.971	19.13
668.159	19.01
668.347	19.27
668.535	19.03
668.723	19.07
668.911	19.31
669.098	19.08
669.286	19.28
669.474	19.26
669.662	19.5
669.849	19.45
670.037	19.48
670.225	19.54
670.413	19.39
670.6	19.64
670.788	19.81
670.976	19.63
671.163	19.87
671.351	19.57
671.538	19.55
671.726	19.58
671.913	19.43
672.101	19.74
672.289	19.95
672.476	19.81
672.664	19.58
672.851	19.35
673.039	19.53
673.226	19.59
673.413	19.55
673.601	19.7
673.788	19.53
673.976	19.57
674.163	19.56
674.35	19.45
674.538	19.58
674.725	19.52
674.912	19.49
675.1	19.3
675.287	19.16
675.474	19.46
675.662	19.27
675.849	19.42
676.036	19.31
676.223	19.46
676.411	19.47
676.598	19.56
676.785	19.97
676.972	20.03
677.159	19.96
677.346	19.91
677.533	19.73
677.721	19.82
677.908	19.77
678.095	19.77
678.282	19.42
678.469	19.38
678.656	19.37
678.843	19.31
679.03	19.35
679.217	19.57
679.404	19.68
679.591	19.58
679.778	19.51
679.964	19.49
680.151	19.57
680.338	19.78
680.525	19.92
680.712	19.7
680.899	19.82
681.086	19.76
681.272	19.46
681.459	19.5
681.646	19.46
681.833	19.73
682.02	19.75
682.206	19.55
682.393	19.39
682.58	19.33
682.766	19.37
682.953	19.36
683.14	19.52
683.326	19.61
683.513	19.58
683.7	19.88
683.886	19.88
684.073	19.99
684.259	20.31
684.446	20.44
684.632	20.46
684.819	20.65
685.005	20.37
685.192	20.31
685.378	20.21
685.565	20.2
685.751	19.91
685.938	19.72
686.124	19.6
686.31	19.54
686.497	19.43
686.683	19.29
686.87	19.12
687.056	18.95
687.242	18.96
687.429	19.12
687.615	18.85
687.801	18.97
687.987	19.06
688.174	18.89
688.36	18.75
688.546	18.97
688.732	18.94
688.918	19.02
689.105	19.22
689.291	19.09
689.477	19
689.663	19.31
689.849	19.61
690.035	19.55
690.221	19.66
690.407	19.67
690.593	19.57
690.779	19.31
690.965	19.3
691.151	19.31
691.337	19.26
691.523	19.45
691.709	19.56
691.895	19.18
692.081	19.11
692.267	19
692.453	19.27
692.639	19.11
692.825	19.09
693.011	18.89
693.196	18.92
693.382	18.94
693.568	19.01
693.754	19.04
693.94	19.3
694.125	19.27
694.311	19.47
694.497	19.1
694.682	19.26
694.868	19.68
695.054	19.88
695.239	19.59
695.425	19.47
695.611	19.3
695.796	19.37
695.982	19.54
696.168	19.83
696.353	19.92
696.539	20.09
696.724	20.17
696.91	20.41
697.095	20.54
697.281	20.86
697.466	21
697.652	21.03
697.837	20.67
698.023	20.64
698.208	20.5
698.393	20.59
698.579	20.88
698.764	20.88
698.949	20.71
699.135	20.71
699.32	20.76
699.505	20.62
699.691	20.55
699.876	20.88
700.061	20.61
700.246	20.89
700.432	20.83
700.617	20.47
700.802	20.63
700.987	20.63
701.172	20.68
701.358	20.61
701.543	20.64
701.728	20.86
701.913	20.62
702.098	20.83
702.283	20.52
702.468	20.48
702.653	20.69
702.838	20.58
703.023	20.37
703.208	19.99
703.393	19.9
703.578	20.2
703.763	20.11
703.948	20.17
704.133	19.78
704.318	19.78
704.503	19.45
704.688	19.62
704.873	19.45
705.057	19.55
705.242	19.84
705.427	19.96
705.612	19.84
705.797	20.25
705.981	20.25
706.166	20.74
706.351	20.89
706.536	21.38
706.72	21.2
706.905	20.99
707.09	21
707.274	20.94
707.459	20.59
707.644	20.48
707.828	19.94
708.013	20.06
708.197	19.72
708.382	19.14
708.567	18.83
708.751	18.67
708.936	18.92
709.12	19.28
709.305	19.4
709.489	19.68
709.673	19.83
709.858	20.14
710.042	20.09
710.227	20.36
710.411	20.79
710.596	21
710.78	21.17
710.964	21.4
711.149	21.16
711.333	21.38
711.517	21.61
711.702	21.49
711.886	21.41
712.07	21.29
712.254	21.25
712.438	21.26
712.623	21.02
712.807	21.06
712.991	20.97
713.175	21.04
713.359	20.55
713.544	20.48
713.728	20.44
713.912	20.38
714.096	20.5
714.28	20.78
714.464	20.6
714.648	20.52
714.832	20.47
715.016	20.1
715.2	20.09
715.384	20.31
715.568	20.12
715.752	20.11
715.936	19.97
716.12	19.83
716.304	19.23
716.488	19.36
716.671	19.84
716.855	19.67
717.039	19.7
717.223	19.61
717.407	19.57
717.59	19.39
717.774	19.42
717.958	19.73
718.142	19.87
718.325	20.06
718.509	19.77
718.693	19.41
718.877	19.56
719.06	19.64
719.244	19.62
719.428	19.39
719.611	19.6
719.795	19.92
719.978	20.19
720.162	20.6
720.345	20.63
720.529	21.19
720.713	21.25
720.896	21.47
721.08	21.36
721.263	21.03
721.446	21.63
721.63	21.51
721.813	21.15
721.997	20.58
722.18	20.01
722.364	19.46
722.547	19.05
722.73	19.05
722.914	18.78
723.097	18.49
723.28	18.4
723.464	17.91
723.647	18.03
723.83	18.08
724.013	18.34
724.197	18.13
724.38	18.77
724.563	18.84
724.746	18.82
724.929	18.83
725.112	19.57
725.296	20.57
725.479	21
725.662	21.08
725.845	21.41
726.028	21.08
726.211	21.55
726.394	21.79
726.577	21.97
726.76	22.39
726.943	22.26
727.126	22.06
727.309	21.56
727.492	21.66
727.675	21.67
727.858	21.71
728.041	21.42
728.224	21.3
728.407	20.93
728.589	20.71
728.772	20.33
728.955	20.21
729.138	19.98
729.321	20.21
729.503	19.99
729.686	19.95
729.869	19.48
730.052	19.96
730.234	20.08
730.417	20.28
730.6	20.42
730.782	20.74
730.965	20.94
731.148	21
731.33	20.84
731.513	20.65
731.695	20.55
731.878	20.82
732.061	20.63
732.243	20.31
732.426	20.56
732.608	20.54
732.791	20.2
732.973	20.24
733.156	20.26
733.338	20.29
733.52	20.24
733.703	20.44
733.885	20.24
734.068	20.8
734.25	20.9
734.432	20.4
734.615	20.43
734.797	19.97
734.979	20.01
735.162	20.31
735.344	19.91
735.526	20.11
735.708	19.92
735.891	19.98
736.073	19.95
736.255	20.2
736.437	19.96
736.619	19.83
736.802	20.19
736.984	19.87
737.166	19.46
737.348	19.39
737.53	19.66
737.712	19.33
737.894	19.12
738.076	18.46
738.258	18.61
738.44	19.07
738.622	18.53
738.804	18.59
738.986	18.92
739.168	19.5
739.35	19.96
739.532	19.73
739.714	19.4
739.896	19.95
740.078	19.99
740.259	19.79
740.441	19.97
740.623	20.8
740.805	20.63
740.987	20.76
741.168	20.23
741.35	19.74
741.532	19.56
741.714	20.29
741.895	20.22
742.077	21.06
742.259	20.94
742.44	20.87
742.622	20.84
742.804	21.01
742.985	20.43
743.167	20.7
743.348	21.33
743.53	21.65
743.711	21.65
743.893	21.27
744.075	20.51
744.256	20.44
744.438	20.5
744.619	20.15
744.8	19.87
744.982	20.49
745.163	19.92
745.345	19.7
745.526	20.11
745.707	19.95
745.889	20.48
746.07	20.56
746.252	20.45
746.433	20.47
746.614	20.49
746.795	20.92
746.977	20.56
747.158	20.97
747.339	20.41
747.52	19.62
747.702	19.41
747.883	19.32
748.064	19.81
748.245	20.24
748.426	19.95
748.607	20.22
748.788	19.38
748.97	19.74
749.151	20.2
749.332	20.26
749.513	20.16
749.694	20.58
749.875	20.52
750.056	20.09
750.237	20.31
750.418	20.05
750.599	20.1
750.78	20.52
750.96	20.14
751.141	19.75
751.322	20.21
751.503	19.85
751.684	20.08
751.865	20.32
752.046	20
752.226	19.62
752.407	20.21
752.588	20.12
752.769	20.97
752.949	20.88
753.13	21.17
753.311	20.23
753.492	20.49
753.672	20.06
753.853	18.97
754.034	18.72
754.214	18.29
754.395	17.82
754.575	17.92
754.756	17.73
754.937	18.43
755.117	18.36
755.298	19.31
755.478	19.54
755.659	19.88
755.839	20.74
756.02	21.32
756.2	21.94
756.381	22.08
756.561	22.29
756.741	22.46
756.922	21.4
757.102	22.1
757.283	22.13
757.463	22.12
757.643	22.03
757.823	22.07
758.004	21.84
758.184	21.84
758.364	21.84
758.545	21.29
758.725	20.81
758.905	21.25
759.085	20.2
759.265	19.74
759.446	19.76
759.626	19.81
759.806	19.79
759.986	20.19
760.166	19.63
760.346	19.42
760.526	19.91
760.706	20.42
760.886	20.63
761.066	20.74
761.246	21.58
761.426	21.89
761.606	21.59
761.786	21.16
761.966	21.33
762.146	22.19
762.326	22.48
762.506	22.11
762.686	21.98
762.866	22.2
763.046	22.3
763.225	21.98
763.405	22.18
763.585	22.32
763.765	22.45
763.945	22.59
764.124	22.11
764.304	22.18
764.484	22.54
764.664	22.44
764.843	22.21
765.023	22.41
765.203	22.02
765.382	21.59
765.562	21.8
765.741	22.1
765.921	21.65
766.101	20.99
766.28	20.58
766.46	20.14
766.639	20.55
766.819	20.8
766.998	20.36
767.178	20.7
767.357	20.52
767.537	19.9
767.716	20.04
767.896	20.32
768.075	21.12
768.254	21.28
768.434	21.03
768.613	19.99
768.792	19.5
768.972	20.05
769.151	20.25
769.33	19.95
769.51	20.4
769.689	20.17
769.868	20.42
770.047	20.63
770.226	20.67
770.406	21.09
770.585	20.67
770.764	19.92
770.943	19.69
771.122	19.53
771.301	20.16
771.48	20.55
771.66	19.88
771.839	18.87
772.018	18.57
772.197	19.25
772.376	19.46
772.555	20.05
772.734	20.6
772.913	19.65
773.092	19.75
773.271	19.68
773.449	18.8
773.628	20.05
773.807	19.95
773.986	20.24
774.165	19.56
774.344	19.7
774.523	19.98
774.701	21
774.88	22.16
775.059	21.71
775.238	21.53
775.417	22.52
775.595	21.96
775.774	22.68
775.953	23
776.131	23.19
776.31	22.8
776.489	22.82
776.667	22.69
776.846	21.58
777.025	22.69
777.203	23.28
777.382	22.89
777.56	22.27
777.739	22.18
777.917	22.4
778.096	22.26
778.274	22.26
778.453	21.91
778.631	21.69
778.81	22.72
778.988	21.38
779.166	21.32
779.345	21.49
779.523	22.06
779.702	23.07
779.88	22.67
780.058	21.84
780.237	23.01
780.415	23.55
780.593	23.63
780.771	23.42
780.95	25.17
781.128	24.39
781.306	24.49
781.484	25.41
781.662	24.7
781.841	24.17
782.019	25.55
782.197	23.96
782.375	23.57
782.553	23.04
782.731	23.04
782.909	21.61
783.087	21.8
783.265	21.49
783.443	20.83
783.621	20.34
783.799	20.9
783.977	21
784.155	21.97
784.333	22.93
784.511	22.71
784.689	22.83
784.867	22.7
785.045	23.66
785.223	23.4
785.4	23.45
785.578	23.1
785.756	21.95
785.934	20.96
786.112	20.84
786.289	19.64
786.467	19.96
786.645	20.31
786.823	21.01
787	20.22
787.178	19.63
787.356	19.07
787.533	19.2
787.711	19.62
787.889	20.91
788.066	20.88
788.244	21.71
788.421	21.83
788.599	21.53
788.776	20.72
788.954	20.1
789.131	20.77
789.309	20.36
789.486	20.48
789.664	20.72
789.841	19.52
790.019	19.63
790.196	19.47
790.373	19.41
790.551	19.28
790.728	20.37
790.906	20.94
791.083	21.66
791.26	21.65
791.437	21.51
791.615	20.94
791.792	20.6
791.969	20.24
792.146	18.52
792.324	18.91
792.501	19.59
792.678	18.6
792.855	18.73
793.032	18.59
793.209	19.26
793.387	19.12
793.564	20.35
793.741	20.93
793.918	20.03
794.095	22.67
794.272	21.83
794.449	21.51
794.626	21.76
794.803	22.22
794.98	22.12
795.157	23.17
795.334	23.54
795.511	22.98
795.688	22.86
795.864	23.79
796.041	24.27
796.218	25.63
796.395	26.24
796.572	26.16
796.749	25.62
796.925	25.34
797.102	24.59
797.279	24.32
797.456	24.15
797.632	24.05
797.809	24.01
797.986	22.75
798.162	22.2
798.339	20.94
798.516	21.57
798.692	21.63
798.869	20.64
799.046	21.37
799.222	21.74
799.399	21.41
799.575	20.91
799.752	21.51
799.928	21.41
800.105	21.63
800.281	21.56
800.458	21.2
800.634	21.35
800.811	23.21
800.987	22.24
801.163	22.04
801.34	22.61
801.516	23.19
801.692	22.41
801.869	23.34
802.045	22.86
802.221	22.97
802.398	23.25
802.574	22.73
802.75	21.64
802.926	20.25
803.103	20.33
803.279	19.17
803.455	18.9
803.631	19.28
803.807	18.09
803.983	18.58
804.16	19.01
804.336	18.52
804.512	18.62
804.688	19.43
804.864	21.28
805.04	21.49
805.216	22.31
805.392	21.69
805.568	22.2
805.744	21.6
805.92	21.53
806.096	20.9
806.272	21.09
806.448	22.8
806.623	21.75
806.799	20.86
806.975	20.56
807.151	20.7
807.327	21.7
807.503	20.62
807.678	20.96
807.854	19.79
808.03	19.58
808.206	20.01
808.381	19.15
808.557	19.3
808.733	19.21
808.908	18.71
809.084	18.64
809.26	19.43
809.435	19.65
809.611	19.69
809.787	19.3
809.962	20.24
810.138	19.64
810.313	18.82
810.489	20.72
810.664	22.59
810.84	22.8
811.015	23.72
811.191	23.65
811.366	24.21
811.542	24.56
811.717	25.25
811.892	25.11
812.068	24.74
812.243	24.42
812.419	22.25
812.594	21.19
812.769	21.99
812.944	20.74
813.12	20.43
813.295	20.72
813.47	20.86
813.645	21.38
813.821	20.94
813.996	23.07
814.171	24.8
814.346	24.6
814.521	23.96
814.697	22.31
814.872	23.7
815.047	23.44
815.222	22.42
815.397	22.37
815.572	21.17
815.747	21.6
815.922	19.91
816.097	20.38
816.272	20.66
816.447	21.19
816.622	22.41
816.797	21.17
816.972	20.5
817.147	20.44
817.322	21.14
817.496	22.63
817.671	23.25
817.846	23.91
818.021	21.99
818.196	21.97
818.371	21.54
818.545	21.84
818.72	22.33
818.895	23.37
819.069	23.69
819.244	24.11
819.419	23.53
819.594	22.79
819.768	22.55
819.943	23.01
820.117	23.14
820.292	23.1
820.467	23.19
820.641	22.52
820.816	22.24
820.99	21.94
821.165	21.57
821.339	21.61
821.514	21.6
821.688	21.63
821.863	21.41
822.037	21.63
822.212	21.52
822.386	21.47
822.56	21.74
822.735	21.94
822.909	22.19
823.084	22.03
823.258	21.89
823.432	21.96
823.606	22.08
823.781	22.53
823.955	22.21
824.129	22.45
824.303	22.55
824.478	22.55
824.652	22.27
824.826	22.24
825	22.28
825.174	22.79
825.348	22.65
825.523	22.43
825.697	21.68
825.871	21.88
826.045	21.86
826.219	21.86
826.393	22.18
826.567	22.02
826.741	22.17
826.915	22.64
827.089	22.41
827.263	22.61
827.437	22.84
827.611	23.11
827.784	22.69
827.958	22.49
828.132	22.31
828.306	22.07
828.48	22.62
828.654	22.63
828.827	22.54
829.001	21.86
829.175	21.81
829.349	21.15
829.522	21.21
829.696	21.65
829.87	22.11
830.044	22.32
830.217	21.93
830.391	20.39
830.565	20.24
830.738	19.84
830.912	21.47
831.085	22.75
831.259	23.26
831.432	24.62
831.606	24.3
831.779	23.52
831.953	24.19
832.126	23.36
832.3	23.61
832.473	22.56
832.647	22.23
832.82	21.3
832.994	20.43
833.167	20.88
833.34	19.73
833.514	20.39
833.687	20.11
833.86	19.19
834.034	18.76
834.207	19.11
834.38	19.7
834.553	20.21
834.727	20.24
834.9	20.91
835.073	20.22
835.246	19.74
835.419	19.6
835.593	20.51
835.766	20.3
835.939	22.2
836.112	22.18
836.285	21.77
836.458	20.82
836.631	20.5
836.804	17.94
836.977	19.09
837.15	20.86
837.323	20.82
837.496	20.85
837.669	20.74
837.842	19.64
838.015	19.39
838.188	19.2
838.361	20.04
838.533	21.61
838.706	22.74
838.879	20.64
839.052	18.4
839.225	20.11
839.398	19.24
839.57	22.56
839.743	22.68
839.916	24.06
840.088	24.06
840.261	23.13
840.434	22.03
840.607	24.93
840.779	25.85
840.952	28.65
841.124	25.32
841.297	27.62
841.47	25.2
841.642	26.08
841.815	24.48
841.987	26.32
842.16	26.76
842.332	28.14
842.505	23.15
842.677	22.48
842.85	22.44
843.022	24.34
843.194	22.3
843.367	24.21
843.539	23.01
843.712	23.71
843.884	21.97
844.056	22.45
844.229	21.21
844.401	23.7
844.573	22.64
844.745	18.82
844.918	18.55
845.09	15.67
845.262	10.32
845.434	9.06
845.606	11.28
845.779	9.29
845.951	11.25
846.123	13.34
846.295	11.97
846.467	12.11
846.639	15.34
846.811	15.42
846.983	15.19
847.155	20.64
847.327	26.29
847.499	21.58
847.671	24.05
847.843	19.52
848.015	19.25
848.187	21.3
848.359	22.25
848.531	17.7
848.703	18.89
848.875	21.84
849.047	18.44
849.218	16.2
849.39	18.36
849.562	19.85
849.734	23.45
849.905	22.06
850.077	20.58
850.249	18.73
850.421	21.91
850.592	23.08
850.764	22.56
850.936	25.42
851.107	19.73
851.279	22.2
851.451	13.94
851.622	10.02
851.794	5.94
851.965	13.97
852.137	17.5
852.308	18.09
852.48	19.77
852.651	19.49
852.823	19.31
852.994	23.89
853.166	22
853.337	26.22
853.509	28.41
853.68	33.6
853.851	29.99
854.023	30.97
854.194	31.18
854.365	27.7
854.537	26.88
854.708	29.2
854.879	28.64
855.05	28.63
855.222	29.22
855.393	29.05
855.564	27.33
855.735	26.32
855.906	25.65
856.078	21.8
856.249	24.68
856.42	31.66
856.591	28.94
856.762	28.14
856.933	25.23
857.104	26.67
857.275	27.13
857.446	25.61
857.617	22.48
857.788	20.44
857.959	25.04
858.13	25.56
858.301	20.1
858.472	16.83
858.643	15.92
858.814	19.55
858.985	22.07
859.155	22.39
859.326	24.7
859.497	30.66
859.668	36.33
859.839	35.98
860.009	29.68
860.18	29.4
860.351	31.62
860.522	33.2
860.692	32.14
860.863	29.75
861.034	28.01
861.204	29.16
861.375	26.76
861.546	21.76
861.716	20.35
861.887	25.99
862.057	28.16
862.228	28.24
862.398	26.82
862.569	30.51
862.739	29.69
862.91	29.34
863.08	27.66
863.251	30.22
863.421	29.93
863.592	26.98
863.762	23.89
863.932	20.51
864.103	22.05
864.273	28.71
864.443	22.59
864.614	14.93
864.784	18.98
864.954	21.78
865.125	17.7
865.295	21.6
865.465	23.64
865.635	29.65
865.805	30.88
865.976	29.32
866.146	21.21
866.316	20.01
866.486	25.01
866.656	20.34
866.826	19.64
866.996	18.85
867.166	17.13
867.336	19.7
867.506	10.76
867.676	12.85
867.846	12.44
868.016	18.39
868.186	21.72
868.356	22.93
868.526	23.03
868.696	20.03
868.866	25.16
869.036	24.24
869.206	23.28
869.376	25.79
869.545	22.03
869.715	24.21
869.885	25.64
870.055	25.32
870.224	21.9
870.394	27.67
870.564	36.21
870.734	34.67
870.903	33.05
871.073	32.62
871.243	32.65
871.412	36.14
871.582	32.45
871.751	26.52
871.921	27.27
872.091	32.52
872.26	33.84
872.43	23.32
872.599	22.34
872.769	24.44
872.938	23.51
873.108	25.49
873.277	23.25
873.446	22.9
873.616	20.22
873.785	19.03
873.955	20.12
874.124	11.23
874.293	11.46
874.463	8.27
874.632	8.56
874.801	12.27
874.971	9.22
875.14	11.48
875.309	18.29
875.478	22.39
875.647	21.42
875.817	18.39
875.986	26.02
876.155	27.79
876.324	33.71
876.493	34.79
876.662	30
876.831	27.77
877	25
877.17	22.28
877.339	19.69
877.508	22.3
877.677	21.44
877.846	23.01
878.015	23.54
878.184	18.1
878.352	16.51
878.521	17.59
878.69	21.72
878.859	25.31
879.028	23.84
879.197	24.93
879.366	24.43
879.534	25.35
879.703	22.67
879.872	20.09
880.041	22.31
880.21	22.39
880.378	21.6
880.547	22.76
880.716	22.66
880.884	23.02
881.053	24.15
881.222	24.12
881.39	23.21
881.559	23.51
881.727	24.78
881.896	24.32
882.065	24.24
882.233	24.76
882.402	24.11
882.57	24.5
882.739	25.13
882.907	24.97
883.076	24.57
883.244	25.45
883.412	25.26
883.581	24.91
883.749	25.7
883.918	26.11
884.086	25.74
884.254	24.9
884.423	24.21
884.591	23.15
884.759	22.37
884.927	23.38
885.096	21.86
885.264	22.29
885.432	22.58
885.6	22.26
885.769	21.75
885.937	21.79
886.105	24.7
886.273	24.76
886.441	24.13
886.609	25.22
886.777	22.35
886.945	25.02
887.113	22.25
887.281	21.02
887.449	19.64
887.617	19.53
887.785	22.05
887.953	16.74
888.121	17.7
888.289	17.62
888.457	20.31
888.625	25.41
888.793	21.31
888.961	24.16
889.129	23.33
889.296	22.34
889.464	22.81
889.632	21.35
889.8	25.76
889.967	22.83
890.135	26.1
