Data from 2938513_Reflection_1.txt Node
Date: Tue Jun 16 22:41:12 EDT 2015
User: robert
Spectrometer: USB4E03002
Autoset integration time: false
Trigger mode: 4
Integration Time (sec): 1.000000E-1
Scans to average: 10
Electric dark correction enabled: true
Nonlinearity correction enabled: false
Boxcar width: 5
Stray light correction enabled: false
XAxis mode: Wavelengths
Stop averaging: false
Number of Pixels in Spectrum: 3648
>>>>>Begin Spectral Data<<<<<
177.575	33.81
177.794	29.02
178.014	26.47
178.233	17.63
178.452	32.6
178.672	49.94
178.891	86.35
179.11	-240.91
179.33	-929.03
179.549	-44.6
179.768	19.26
179.987	32.95
180.207	-13.62
180.426	-56.68
180.645	-1004.71
180.864	598.84
181.084	89.47
181.303	93.27
181.522	64.38
181.741	51.65
181.96	43.35
182.179	59.67
182.398	75.83
182.618	64.67
182.837	40.37
183.056	41.12
183.275	40.08
183.494	-116.93
183.713	326.64
183.932	364.59
184.151	310.18
184.37	924.27
184.589	-3.87
184.808	43.87
185.027	60.5
185.246	59.44
185.465	60.29
185.684	67.5
185.903	119.68
186.122	112.17
186.341	109.26
186.56	115.98
186.779	182.46
186.998	241.98
187.216	236.96
187.435	156.86
187.654	97.95
187.873	161.01
188.092	112.06
188.311	100.19
188.53	63.57
188.748	31.71
188.967	-2075.27
189.186	-129.29
189.405	32.2
189.623	52.04
189.842	55.39
190.061	107.83
190.28	79
190.498	53.39
190.717	68.76
190.936	82.75
191.154	92.79
191.373	117.08
191.592	117.4
191.81	102.56
192.029	88.47
192.248	81.22
192.466	87.79
192.685	97.83
192.904	201.83
193.122	293.85
193.341	2.99
193.559	-3.12
193.778	46.63
193.996	-32.66
194.215	-435.08
194.433	-264.19
194.652	-720.73
194.87	2367.87
195.089	357.38
195.307	345.84
195.526	139.27
195.744	168.23
195.963	141
196.181	102.42
196.399	87.09
196.618	77.79
196.836	79.72
197.055	49.51
197.273	58.83
197.491	86.63
197.71	39.95
197.928	61.64
198.146	63.96
198.365	19.26
198.583	67.05
198.801	58.69
199.019	56.87
199.238	47.59
199.456	42.51
199.674	34.6
199.892	78.19
200.111	93.03
200.329	66.51
200.547	63.2
200.765	54.34
200.983	52.95
201.202	42.57
201.42	32.76
201.638	29.11
201.856	54.93
202.074	46.39
202.292	33.11
202.51	50.63
202.728	52.76
202.946	45.79
203.165	72.76
203.383	49.36
203.601	61.85
203.819	108.03
204.037	110.83
204.255	82.65
204.473	96.16
204.691	85.61
204.909	84.12
205.127	78.08
205.345	82.03
205.562	55.37
205.78	84.52
205.998	86.01
206.216	48.12
206.434	47.21
206.652	63.04
206.87	92.4
207.088	109.09
207.306	55.28
207.523	66.69
207.741	52.32
207.959	81.15
208.177	79.32
208.395	83.26
208.612	70.62
208.83	70.77
209.048	72.37
209.266	71.33
209.483	57.89
209.701	60.75
209.919	76.36
210.136	79.74
210.354	76.84
210.572	69.24
210.79	59.5
211.007	75.45
211.225	66.68
211.442	62.96
211.66	51.97
211.878	55.53
212.095	72.71
212.313	71.85
212.53	69.7
212.748	71.22
212.966	76.21
213.183	82.59
213.401	86.42
213.618	91.09
213.836	88.85
214.053	96.96
214.271	106.41
214.488	104.53
214.705	103.42
214.923	110.63
215.14	102.97
215.358	69.68
215.575	57.81
215.793	44.42
216.01	38.52
216.227	52.34
216.445	13.92
216.662	12.56
216.879	16.79
217.097	6.71
217.314	-4.3
217.531	-6.55
217.749	5.22
217.966	24.27
218.183	17.96
218.4	11.21
218.618	1.61
218.835	24.09
219.052	4.66
219.269	3.22
219.487	15.34
219.704	16.28
219.921	17.97
220.138	25.25
220.355	20.38
220.572	25.62
220.79	28.09
221.007	23.02
221.224	23.2
221.441	43.47
221.658	44.4
221.875	44.6
222.092	45.46
222.309	42.99
222.526	34.6
222.743	39.63
222.96	41.63
223.177	46.79
223.394	49.39
223.611	44.87
223.828	40.62
224.045	41.87
224.262	32.83
224.479	31.33
224.696	33.09
224.913	30.15
225.13	26.04
225.347	22.69
225.564	17.52
225.781	16.03
225.997	14.83
226.214	12.68
226.431	10.93
226.648	12.95
226.865	12.7
227.082	11.85
227.298	12.78
227.515	11.79
227.732	11.87
227.949	11.6
228.165	10.56
228.382	11.07
228.599	11.94
228.816	11.9
229.032	11.77
229.249	12.28
229.466	11.39
229.682	9.77
229.899	10.66
230.116	11.68
230.332	12.77
230.549	12.12
230.765	12.74
230.982	10.61
231.199	10.99
231.415	8.37
231.632	6.62
231.848	8.3
232.065	9.8
232.281	9.9
232.498	7.04
232.714	6.82
232.931	9.06
233.147	5.29
233.364	6.55
233.58	4.97
233.797	5.38
234.013	5.53
234.23	3.54
234.446	3.84
234.662	1.41
234.879	4.06
235.095	6.12
235.312	6.69
235.528	10.28
235.744	9.56
235.961	10.76
236.177	13.35
236.393	13.46
236.61	15.19
236.826	13.43
237.042	14.55
237.258	11.09
237.475	8.82
237.691	8.45
237.907	8.93
238.123	8.79
238.339	10.66
238.556	10.6
238.772	9.63
238.988	10.55
239.204	11.94
239.42	12.06
239.636	13.28
239.853	13.66
240.069	13.06
240.285	11.54
240.501	12.11
240.717	11.48
240.933	11.4
241.149	11.69
241.365	10.6
241.581	10.54
241.797	10.17
242.013	10.06
242.229	9.25
242.445	9.45
242.661	9.94
242.877	9.59
243.093	10.18
243.309	10.56
243.525	10.5
243.741	10.91
243.957	10.65
244.173	10.9
244.388	10.39
244.604	10.56
244.82	10.26
245.036	9.86
245.252	9.83
245.468	9.43
245.683	9.09
245.899	9.06
246.115	9.21
246.331	9.23
246.547	8.9
246.762	8.94
246.978	9.09
247.194	9.37
247.409	10.1
247.625	10.05
247.841	10.08
248.057	10.37
248.272	10.72
248.488	10.64
248.703	10.06
248.919	11.07
249.135	11.05
249.35	10.84
249.566	10.67
249.782	9.61
249.997	9.89
250.213	10.26
250.428	9.78
250.644	9.19
250.859	9.56
251.075	9.97
251.29	9.24
251.506	8.66
251.721	8.55
251.937	8.54
252.152	8.93
252.368	8.53
252.583	8.42
252.798	8.36
253.014	9.72
253.229	9.26
253.445	9.08
253.66	8.49
253.875	9.38
254.091	9.49
254.306	9.97
254.521	9.72
254.737	9.69
254.952	9.8
255.167	9.59
255.383	8.3
255.598	7.84
255.813	7.69
256.028	7.33
256.244	7.96
256.459	7.9
256.674	6.82
256.889	7.6
257.104	7.33
257.32	7.11
257.535	7.25
257.75	7.15
257.965	7.28
258.18	7.26
258.395	7.47
258.61	7.27
258.826	7.41
259.041	8.08
259.256	7.67
259.471	7.82
259.686	7.95
259.901	7.76
260.116	8.2
260.331	8.5
260.546	8.48
260.761	8.21
260.976	8.24
261.191	7.95
261.406	6.69
261.621	6.77
261.836	6.4
262.05	5.94
262.265	6.12
262.48	5.78
262.695	5.21
262.91	4.68
263.125	5.09
263.34	5.48
263.555	4.9
263.769	5.9
263.984	5.39
264.199	5.98
264.414	6.14
264.629	6.41
264.843	6.54
265.058	7.22
265.273	8.03
265.488	8.13
265.702	8.08
265.917	8.58
266.132	8.52
266.346	8.88
266.561	8.6
266.776	8.43
266.99	8.49
267.205	8.57
267.42	7.89
267.634	7.73
267.849	7.55
268.063	7.65
268.278	6.73
268.492	6.42
268.707	6.69
268.922	6.56
269.136	7.09
269.351	7.17
269.565	6.9
269.78	6.93
269.994	6.96
270.209	6.87
270.423	6.33
270.637	7.15
270.852	7.17
271.066	6.88
271.281	6.95
271.495	7.17
271.709	6.68
271.924	6.5
272.138	6.43
272.353	6.51
272.567	6.8
272.781	7.08
272.996	6.86
273.21	6.92
273.424	6.77
273.638	6.52
273.853	5.96
274.067	6.42
274.281	6.45
274.495	6.88
274.71	6.56
274.924	6.07
275.138	6.19
275.352	5.76
275.566	5.94
275.781	6.21
275.995	6.79
276.209	6.43
276.423	6.35
276.637	5.96
276.851	6.03
277.065	5.94
277.279	6.18
277.493	6.1
277.707	6.26
277.921	6.18
278.135	6.29
278.349	6.04
278.563	6
278.777	5.96
278.991	6.73
279.205	6.74
279.419	6.93
279.633	6.89
279.847	7.04
280.061	6.81
280.275	6.78
280.489	6.98
280.703	6.86
280.917	7.07
281.131	6.73
281.344	6.44
281.558	6.63
281.772	6.79
281.986	6.87
282.2	7.03
282.414	7.48
282.627	7.82
282.841	7.44
283.055	7.53
283.269	7.21
283.482	7.81
283.696	8.06
283.91	7.55
284.123	7.41
284.337	7.47
284.551	7.32
284.764	7.1
284.978	6.87
285.192	7.12
285.405	7.31
285.619	7.26
285.833	7.16
286.046	7.09
286.26	6.84
286.473	6.79
286.687	7.28
286.9	7.21
287.114	7.87
287.327	7.7
287.541	7.5
287.754	7.52
287.968	7.94
288.181	7.8
288.395	7.75
288.608	8.23
288.822	8.35
289.035	7.72
289.248	8.18
289.462	7.95
289.675	7.82
289.889	7.78
290.102	7.48
290.315	7.61
290.529	7.61
290.742	7.75
290.955	7.84
291.169	8.33
291.382	8.78
291.595	8.4
291.808	8.71
292.022	8.96
292.235	9.46
292.448	9.84
292.661	10.11
292.875	10.13
293.088	9.97
293.301	10.21
293.514	9.87
293.727	9.87
293.94	9.74
294.153	9.49
294.367	9.56
294.58	9.44
294.793	9.6
295.006	9.39
295.219	9.32
295.432	9.4
295.645	9.36
295.858	9.47
296.071	9.43
296.284	9.44
296.497	9.63
296.71	9.89
296.923	9.83
297.136	9.96
297.349	10.23
297.562	10.61
297.775	10.84
297.988	10.7
298.201	10.88
298.414	10.88
298.626	11.04
298.839	11.24
299.052	10.93
299.265	11.12
299.478	10.82
299.691	10.66
299.903	10.21
300.116	10.4
300.329	10.25
300.542	10.24
300.755	10.64
300.967	10.56
301.18	10.07
301.393	9.93
301.605	10.11
301.818	10.27
302.031	10.2
302.243	10.84
302.456	10.25
302.669	10.93
302.881	10.55
303.094	10.5
303.307	10.6
303.519	11.02
303.732	11.73
303.944	11.61
304.157	11.67
304.37	11.67
304.582	11.26
304.795	11.3
305.007	10.94
305.22	11.53
305.432	11.57
305.645	11.63
305.857	11.3
306.069	10.86
306.282	11.06
306.494	10.84
306.707	10.68
306.919	10.85
307.132	10.88
307.344	10.53
307.556	10.17
307.769	10.03
307.981	10.53
308.193	10.49
308.406	10.5
308.618	10.44
308.83	10.77
309.043	11.14
309.255	11.37
309.467	11.6
309.679	12.13
309.892	12.34
310.104	12.37
310.316	11.95
310.528	12.13
310.74	12.37
310.953	12.18
311.165	12.28
311.377	11.95
311.589	11.69
311.801	11.59
312.013	11.56
312.225	11.52
312.437	11.47
312.649	11.41
312.862	11.31
313.074	11.21
313.286	11.57
313.498	11.4
313.71	11.65
313.922	11.83
314.134	11.66
314.346	11.63
314.558	11.59
314.77	11.69
314.982	11.66
315.193	12.12
315.405	12.12
315.617	11.73
315.829	11.3
316.041	11.4
316.253	10.97
316.465	11.11
316.677	10.62
316.888	10.92
317.1	10.97
317.312	11.75
317.524	11.4
317.736	11.03
317.947	11.47
318.159	11.96
318.371	11.97
318.583	12.24
318.794	12.27
319.006	12.63
319.218	12.17
319.43	12.08
319.641	11.51
319.853	11.39
320.064	11.65
320.276	11.24
320.488	10.99
320.699	10.58
320.911	10.37
321.123	10.8
321.334	11.19
321.546	11.51
321.757	11.51
321.969	11.52
322.18	11.36
322.392	11.66
322.603	11.98
322.815	11.52
323.026	11.85
323.238	12.05
323.449	12.13
323.661	11.33
323.872	11.27
324.083	11.26
324.295	11.56
324.506	12.37
324.718	12.34
324.929	11.92
325.14	12.42
325.352	12.24
325.563	11.93
325.774	11.88
325.986	12.22
326.197	12.49
326.408	12.43
326.62	12.12
326.831	11.16
327.042	10.87
327.253	10.98
327.464	10.54
327.676	10.74
327.887	10.83
328.098	10.61
328.309	10.83
328.52	10.74
328.732	10.46
328.943	10.72
329.154	10.71
329.365	10.47
329.576	10.5
329.787	10.96
329.998	10.67
330.209	10.97
330.42	11.09
330.631	10.49
330.842	10.05
331.053	10.71
331.264	10.32
331.475	10.66
331.686	10.78
331.897	10.56
332.108	10.47
332.319	10.67
332.53	10.9
332.741	10.64
332.952	10.74
333.163	10.73
333.374	10.26
333.585	10.16
333.795	10.07
334.006	10.27
334.217	10.47
334.428	10.63
334.639	10.61
334.849	10.22
335.06	10.38
335.271	10.04
335.482	9.81
335.692	9.85
335.903	10.01
336.114	10.38
336.325	10.18
336.535	10.48
336.746	9.86
336.957	9.85
337.167	10.34
337.378	10.46
337.589	10.82
337.799	11.44
338.01	11.58
338.22	11.25
338.431	10.76
338.642	10.83
338.852	10.62
339.063	10.96
339.273	10.82
339.484	10.18
339.694	9.71
339.905	9.7
340.115	9.63
340.326	9.32
340.536	9.59
340.746	9.58
340.957	9.13
341.167	8.8
341.378	8.87
341.588	8.99
341.799	8.84
342.009	9.21
342.219	9.2
342.43	8.8
342.64	9.02
342.85	9.03
343.061	9.41
343.271	9.86
343.481	10.24
343.691	9.83
343.902	9.78
344.112	10.1
344.322	9.95
344.532	10.06
344.743	10.11
344.953	10
345.163	10.69
345.373	10.34
345.583	10.16
345.793	9.86
346.004	10.39
346.214	9.97
346.424	9.75
346.634	9.93
346.844	9.59
347.054	9.53
347.264	9.86
347.474	9.06
347.684	9.39
347.894	9.63
348.104	9.84
348.314	9.24
348.524	9.75
348.734	9.78
348.944	9.6
349.154	10.02
349.364	9.86
349.574	9.76
349.784	9.64
349.994	9.62
350.204	9.42
350.413	9.27
350.623	9.72
350.833	9.33
351.043	9.29
351.253	9.2
351.463	8.87
351.672	9.07
351.882	8.8
352.092	8.96
352.302	8.78
352.511	8.94
352.721	8.94
352.931	8.99
353.141	9.17
353.35	9.05
353.56	9.26
353.77	9.42
353.979	9.3
354.189	9.54
354.399	9.17
354.608	9.15
354.818	9.02
355.027	9.31
355.237	9.09
355.447	9.03
355.656	9.17
355.866	9.07
356.075	8.98
356.285	9.28
356.494	9.28
356.704	9.25
356.913	9.36
357.123	9.42
357.332	9.25
357.542	9.31
357.751	9.18
357.96	9.4
358.17	9.1
358.379	9.26
358.589	9.06
358.798	8.6
359.007	8.89
359.217	8.68
359.426	8.41
359.635	8.19
359.845	8
360.054	8
360.263	7.87
360.472	7.91
360.682	7.79
360.891	7.77
361.1	8.1
361.309	7.88
361.519	7.97
361.728	8.11
361.937	8.28
362.146	8.07
362.355	8.28
362.564	8.18
362.774	8.28
362.983	8.35
363.192	8.35
363.401	8.26
363.61	8.47
363.819	8.17
364.028	7.97
364.237	7.83
364.446	8.31
364.655	8.26
364.864	8.15
365.073	7.78
365.282	7.48
365.491	7.65
365.7	7.61
365.909	7.35
366.118	7.41
366.327	7.51
366.536	7.61
366.745	7.35
366.954	7.11
367.162	7.07
367.371	7.31
367.58	7.41
367.789	7.04
367.998	7.01
368.207	7.14
368.415	7.14
368.624	7.27
368.833	7.24
369.042	7.42
369.25	7.45
369.459	7.5
369.668	7.57
369.877	7.69
370.085	7.61
370.294	7.71
370.503	7.82
370.711	7.83
370.92	7.85
371.129	7.88
371.337	7.65
371.546	7.75
371.754	7.57
371.963	7.65
372.171	7.4
372.38	7.47
372.589	7.4
372.797	7.21
373.006	7.24
373.214	6.97
373.423	6.62
373.631	6.63
373.84	6.89
374.048	6.91
374.256	6.85
374.465	6.97
374.673	7.09
374.882	6.93
375.09	7.07
375.298	6.82
375.507	6.97
375.715	7.13
375.923	7.45
376.132	7.26
376.34	7.23
376.548	6.97
376.757	6.88
376.965	6.62
377.173	6.58
377.381	6.33
377.59	6.58
377.798	6.48
378.006	6.38
378.214	6.25
378.423	6.53
378.631	6.6
378.839	6.74
379.047	6.67
379.255	6.79
379.463	6.86
379.671	7
379.879	6.81
380.088	6.88
380.296	6.92
380.504	6.73
380.712	6.43
380.92	6.29
381.128	6.25
381.336	6.41
381.544	6.38
381.752	6.3
381.96	6.11
382.168	6.29
382.376	6.16
382.584	6
382.791	6.09
382.999	5.77
383.207	6.08
383.415	5.88
383.623	5.79
383.831	5.92
384.039	5.81
384.247	5.99
384.454	6
384.662	5.88
384.87	5.97
385.078	5.83
385.285	5.94
385.493	5.56
385.701	5.72
385.909	5.73
386.116	5.5
386.324	5.55
386.532	5.49
386.739	5.45
386.947	5.63
387.155	5.46
387.362	5.59
387.57	5.7
387.778	5.84
387.985	6.05
388.193	6.11
388.4	6.24
388.608	6.26
388.816	6.22
389.023	6.28
389.231	6.36
389.438	6.55
389.646	6.48
389.853	6.35
390.061	6.37
390.268	6.14
390.475	6.18
390.683	6
390.89	6.08
391.098	6.1
391.305	6.15
391.512	6.1
391.72	5.91
391.927	6.03
392.135	6.03
392.342	5.99
392.549	6.17
392.756	6.16
392.964	6.37
393.171	6.22
393.378	6.29
393.586	5.96
393.793	5.93
394	5.99
394.207	5.93
394.414	5.92
394.622	5.82
394.829	5.55
395.036	5.23
395.243	5.13
395.45	5.34
395.657	5.18
395.864	5.37
396.072	5.36
396.279	5.51
396.486	5.34
396.693	5.51
396.9	5.44
397.107	5.46
397.314	5.43
397.521	5.32
397.728	5.15
397.935	5.07
398.142	5.08
398.349	5.1
398.556	4.81
398.763	4.93
398.97	4.79
399.177	5.12
399.383	5.19
399.59	5.4
399.797	5.36
400.004	5.19
400.211	5.2
400.418	5.15
400.625	5.15
400.831	5.21
401.038	5
401.245	4.94
401.452	4.71
401.658	4.62
401.865	4.44
402.072	4.57
402.279	4.63
402.485	4.6
402.692	4.55
402.899	4.36
403.105	4.4
403.312	4.36
403.519	4.44
403.725	4.33
403.932	4.58
404.138	4.64
404.345	4.56
404.552	4.74
404.758	4.78
404.965	4.67
405.171	4.7
405.378	4.9
405.584	4.97
405.791	4.91
405.997	5.01
406.204	4.63
406.41	4.7
406.617	4.61
406.823	4.55
407.029	4.54
407.236	4.53
407.442	4.52
407.649	4.43
407.855	4.65
408.061	4.62
408.268	4.54
408.474	4.72
408.68	4.73
408.887	4.74
409.093	4.61
409.299	4.54
409.505	4.73
409.712	4.81
409.918	4.64
410.124	4.53
410.33	4.52
410.537	4.54
410.743	4.51
410.949	4.5
411.155	4.66
411.361	4.73
411.567	4.79
411.773	4.73
411.98	4.63
412.186	4.63
412.392	4.55
412.598	4.66
412.804	4.76
413.01	4.93
413.216	4.95
413.422	5.05
413.628	5.08
413.834	5.09
414.04	5.05
414.246	5.16
414.452	5.23
414.658	5.23
414.864	5.14
415.07	5.11
415.275	5.04
415.481	4.87
415.687	4.68
415.893	4.68
416.099	4.71
416.305	4.65
416.511	4.56
416.716	4.49
416.922	4.54
417.128	4.44
417.334	4.47
417.539	4.44
417.745	4.44
417.951	4.49
418.157	4.42
418.362	4.31
418.568	4.27
418.774	4.24
418.979	4.27
419.185	4.26
419.391	4.34
419.596	4.28
419.802	4.24
420.008	4.24
420.213	4.55
420.419	4.56
420.624	4.57
420.83	4.64
421.035	4.78
421.241	4.78
421.446	4.71
421.652	4.61
421.857	4.52
422.063	4.53
422.268	4.48
422.474	4.14
422.679	4.17
422.885	4.12
423.09	4.13
423.295	4.02
423.501	3.93
423.706	3.89
423.911	3.96
424.117	4.09
424.322	4.09
424.527	4.16
424.733	4.13
424.938	4.09
425.143	4.2
425.349	4.18
425.554	4.21
425.759	4.23
425.964	4.34
426.169	4.38
426.375	4.37
426.58	4.36
426.785	4.44
426.99	4.46
427.195	4.53
427.4	4.54
427.605	4.48
427.811	4.47
428.016	4.64
428.221	4.49
428.426	4.43
428.631	4.34
428.836	4.45
429.041	4.41
429.246	4.44
429.451	4.31
429.656	4.32
429.861	4.33
430.066	4.37
430.271	4.31
430.476	4.39
430.681	4.27
430.886	4.34
431.09	4.25
431.295	4.12
431.5	4.1
431.705	4.11
431.91	4.11
432.115	4.15
432.32	4.12
432.524	3.96
432.729	4.11
432.934	4.26
433.139	4.21
433.343	4.22
433.548	4.26
433.753	4.21
433.958	4.22
434.162	4.13
434.367	4.02
434.572	3.9
434.776	4.04
434.981	3.79
435.186	3.77
435.39	3.72
435.595	3.6
435.799	3.55
436.004	3.67
436.209	3.69
436.413	3.73
436.618	3.8
436.822	3.94
437.027	3.9
437.231	3.92
437.436	3.89
437.64	3.92
437.845	3.99
438.049	4.09
438.253	4.01
438.458	4
438.662	3.91
438.867	3.93
439.071	3.88
439.275	3.87
439.48	3.95
439.684	3.97
439.888	4.01
440.093	4
440.297	3.95
440.501	3.93
440.706	3.98
440.91	4.01
441.114	3.95
441.318	3.93
441.523	3.91
441.727	3.92
441.931	3.94
442.135	3.98
442.339	3.92
442.543	3.91
442.748	3.96
442.952	3.98
443.156	4.09
443.36	4.14
443.564	4.14
443.768	4.19
443.972	4.06
444.176	3.97
444.38	3.88
444.584	3.96
444.788	3.96
444.992	3.86
445.196	3.86
445.4	3.76
445.604	3.77
445.808	3.81
446.012	3.77
446.216	3.77
446.42	3.76
446.624	3.83
446.828	3.81
447.032	3.85
447.235	3.94
447.439	3.85
447.643	3.89
447.847	3.88
448.051	3.83
448.254	3.9
448.458	3.99
448.662	3.88
448.866	3.77
449.069	3.78
449.273	3.77
449.477	3.86
449.681	3.81
449.884	3.82
450.088	3.78
450.292	3.75
450.495	3.67
450.699	3.63
450.902	3.79
451.106	3.85
451.31	3.7
451.513	3.65
451.717	3.51
451.92	3.48
452.124	3.42
452.327	3.46
452.531	3.39
452.734	3.38
452.938	3.4
453.141	3.4
453.345	3.28
453.548	3.44
453.752	3.45
453.955	3.5
454.158	3.6
454.362	3.64
454.565	3.72
454.769	3.83
454.972	3.88
455.175	3.88
455.379	3.89
455.582	3.92
455.785	3.88
455.988	3.87
456.192	3.94
456.395	3.86
456.598	3.84
456.801	3.74
457.005	3.66
457.208	3.61
457.411	3.61
457.614	3.59
457.817	3.66
458.021	3.66
458.224	3.69
458.427	3.62
458.63	3.57
458.833	3.63
459.036	3.63
459.239	3.65
459.442	3.63
459.645	3.65
459.848	3.64
460.051	3.55
460.254	3.51
460.457	3.48
460.66	3.44
460.863	3.57
461.066	3.49
461.269	3.53
461.472	3.57
461.675	3.57
461.878	3.51
462.081	3.46
462.284	3.52
462.486	3.53
462.689	3.53
462.892	3.52
463.095	3.51
463.298	3.48
463.5	3.45
463.703	3.48
463.906	3.59
464.109	3.64
464.311	3.58
464.514	3.48
464.717	3.52
464.92	3.52
465.122	3.58
465.325	3.46
465.528	3.52
465.73	3.6
465.933	3.53
466.135	3.51
466.338	3.44
466.541	3.54
466.743	3.65
466.946	3.63
467.148	3.64
467.351	3.6
467.553	3.69
467.756	3.69
467.958	3.58
468.161	3.6
468.363	3.64
468.566	3.78
468.768	3.88
468.971	3.86
469.173	3.9
469.375	3.86
469.578	3.82
469.78	3.81
469.983	3.74
470.185	3.81
470.387	3.85
470.59	3.77
470.792	3.72
470.994	3.6
471.196	3.57
471.399	3.52
471.601	3.53
471.803	3.53
472.005	3.5
472.208	3.48
472.41	3.42
472.612	3.32
472.814	3.36
473.016	3.27
473.218	3.41
473.421	3.5
473.623	3.52
473.825	3.45
474.027	3.61
474.229	3.66
474.431	3.64
474.633	3.64
474.835	3.71
475.037	3.67
475.239	3.76
475.441	3.63
475.643	3.62
475.845	3.49
476.047	3.53
476.249	3.42
476.451	3.3
476.653	3.34
476.855	3.34
477.057	3.17
477.258	3.19
477.46	3.16
477.662	3.18
477.864	3.17
478.066	3.28
478.268	3.28
478.469	3.3
478.671	3.46
478.873	3.46
479.075	3.49
479.276	3.64
479.478	3.62
479.68	3.66
479.882	3.66
480.083	3.66
480.285	3.62
480.487	3.59
480.688	3.64
480.89	3.62
481.091	3.62
481.293	3.58
481.495	3.57
481.696	3.57
481.898	3.54
482.099	3.51
482.301	3.51
482.502	3.54
482.704	3.56
482.905	3.53
483.107	3.51
483.308	3.51
483.51	3.51
483.711	3.5
483.913	3.49
484.114	3.5
484.315	3.48
484.517	3.49
484.718	3.51
484.92	3.48
485.121	3.48
485.322	3.49
485.524	3.52
485.725	3.56
485.926	3.58
486.127	3.57
486.329	3.56
486.53	3.61
486.731	3.57
486.932	3.57
487.134	3.62
487.335	3.63
487.536	3.65
487.737	3.67
487.938	3.61
488.139	3.59
488.341	3.65
488.542	3.63
488.743	3.61
488.944	3.63
489.145	3.62
489.346	3.59
489.547	3.54
489.748	3.55
489.949	3.53
490.15	3.54
490.351	3.52
490.552	3.52
490.753	3.54
490.954	3.54
491.155	3.52
491.356	3.49
491.557	3.53
491.758	3.61
491.959	3.58
492.159	3.57
492.36	3.56
492.561	3.64
492.762	3.61
492.963	3.61
493.164	3.57
493.364	3.6
493.565	3.67
493.766	3.53
493.967	3.41
494.167	3.4
494.368	3.39
494.569	3.43
494.769	3.38
494.97	3.34
495.171	3.35
495.371	3.42
495.572	3.43
495.773	3.41
495.973	3.49
496.174	3.64
496.375	3.65
496.575	3.63
496.776	3.64
496.976	3.64
497.177	3.68
497.377	3.73
497.578	3.7
497.778	3.64
497.979	3.56
498.179	3.59
498.38	3.49
498.58	3.53
498.78	3.57
498.981	3.57
499.181	3.55
499.382	3.47
499.582	3.45
499.782	3.45
499.983	3.5
500.183	3.65
500.383	3.63
500.584	3.66
500.784	3.59
500.984	3.6
501.184	3.65
501.385	3.71
501.585	3.75
501.785	3.78
501.985	3.82
502.185	3.89
502.386	3.83
502.586	3.8
502.786	3.74
502.986	3.84
503.186	3.82
503.386	3.75
503.586	3.72
503.786	3.77
503.987	3.74
504.187	3.77
504.387	3.8
504.587	3.78
504.787	3.83
504.987	3.88
505.187	3.8
505.387	3.89
505.587	3.93
505.786	4.04
505.986	4.04
506.186	4.03
506.386	4.04
506.586	3.99
506.786	3.96
506.986	3.99
507.186	4.03
507.386	4.1
507.585	4.05
507.785	4.07
507.985	3.99
508.185	4.12
508.384	4.14
508.584	4.15
508.784	4.17
508.984	4.31
509.183	4.29
509.383	4.3
509.583	4.33
509.782	4.36
509.982	4.39
510.182	4.45
510.381	4.32
510.581	4.34
510.781	4.29
510.98	4.34
511.18	4.31
511.379	4.31
511.579	4.23
511.778	4.21
511.978	4.15
512.177	4.16
512.377	4.07
512.576	4.09
512.776	4.14
512.975	4.22
513.175	4.34
513.374	4.38
513.573	4.52
513.773	4.5
513.972	4.52
514.172	4.56
514.371	4.59
514.57	4.71
514.77	4.78
514.969	4.77
515.168	4.72
515.367	4.63
515.567	4.56
515.766	4.48
515.965	4.57
516.164	4.57
516.364	4.65
516.563	4.69
516.762	4.7
516.961	4.68
517.16	4.7
517.359	4.8
517.559	4.84
517.758	4.89
517.957	4.95
518.156	4.99
518.355	5.11
518.554	5.12
518.753	5.04
518.952	5.05
519.151	5.09
519.35	5.09
519.549	5.08
519.748	5.07
519.947	5.16
520.146	5.18
520.345	5.23
520.544	5.22
520.743	5.21
520.942	5.3
521.141	5.28
521.339	5.35
521.538	5.33
521.737	5.37
521.936	5.51
522.135	5.48
522.333	5.49
522.532	5.51
522.731	5.47
522.93	5.54
523.129	5.58
523.327	5.66
523.526	5.67
523.725	5.74
523.923	5.75
524.122	5.71
524.321	5.71
524.519	5.78
524.718	5.82
524.917	5.86
525.115	5.82
525.314	5.84
525.512	5.88
525.711	5.94
525.909	5.99
526.108	6.03
526.306	6.06
526.505	6.09
526.703	6.08
526.902	6.07
527.1	6.1
527.299	6.17
527.497	6.19
527.696	6.22
527.894	6.26
528.092	6.29
528.291	6.31
528.489	6.34
528.688	6.36
528.886	6.4
529.084	6.46
529.283	6.49
529.481	6.52
529.679	6.59
529.877	6.64
530.076	6.62
530.274	6.68
530.472	6.72
530.67	6.75
530.869	6.79
531.067	6.83
531.265	6.86
531.463	6.88
531.661	6.88
531.859	6.89
532.057	6.89
532.255	6.93
532.454	6.92
532.652	6.98
532.85	6.99
533.048	7.04
533.246	7.05
533.444	7.1
533.642	7.17
533.84	7.23
534.038	7.29
534.236	7.34
534.434	7.33
534.632	7.34
534.83	7.37
535.027	7.4
535.225	7.43
535.423	7.48
535.621	7.51
535.819	7.51
536.017	7.55
536.215	7.6
536.412	7.64
536.61	7.78
536.808	7.81
537.006	7.8
537.203	7.91
537.401	7.96
537.599	8.02
537.797	8.01
537.994	8.07
538.192	8.13
538.39	8.07
538.587	8.01
538.785	8
538.983	8.07
539.18	8.07
539.378	8.03
539.575	8.02
539.773	8.03
539.97	8.06
540.168	8.06
540.366	8.06
540.563	8.13
540.761	8.2
540.958	8.23
541.155	8.27
541.353	8.34
541.55	8.41
541.748	8.44
541.945	8.46
542.143	8.47
542.34	8.54
542.537	8.56
542.735	8.56
542.932	8.6
543.129	8.63
543.327	8.64
543.524	8.59
543.721	8.63
543.919	8.7
544.116	8.81
544.313	8.9
544.51	8.84
544.708	8.92
544.905	8.97
545.102	8.95
545.299	9
545.496	9
545.693	9.09
545.891	9.08
546.088	9.15
546.285	9.11
546.482	9.09
546.679	9.26
546.876	9.28
547.073	9.34
547.27	9.42
547.467	9.41
547.664	9.55
547.861	9.53
548.058	9.6
548.255	9.6
548.452	9.66
548.649	9.81
548.846	9.91
549.043	9.86
549.24	9.91
549.437	9.99
549.633	10.06
549.83	10.03
550.027	10.22
550.224	10.26
550.421	10.41
550.618	10.45
550.814	10.51
551.011	10.43
551.208	10.5
551.405	10.59
551.601	10.65
551.798	10.6
551.995	10.69
552.191	10.69
552.388	10.72
552.585	10.7
552.781	10.76
552.978	10.64
553.175	10.73
553.371	10.88
553.568	10.86
553.764	10.91
553.961	11.13
554.157	11.09
554.354	11.08
554.55	11.14
554.747	11.2
554.943	11.23
555.14	11.46
555.336	11.45
555.533	11.5
555.729	11.55
555.926	11.53
556.122	11.58
556.318	11.73
556.515	11.84
556.711	11.93
556.907	12.02
557.104	12.1
557.3	12.11
557.496	12.17
557.693	12.2
557.889	12.31
558.085	12.43
558.281	12.41
558.478	12.51
558.674	12.44
558.87	12.44
559.066	12.48
559.262	12.6
559.459	12.63
559.655	12.75
559.851	12.67
560.047	12.71
560.243	12.66
560.439	12.62
560.635	12.62
560.831	12.8
561.027	12.83
561.223	12.81
561.419	12.81
561.615	12.97
561.811	13.08
562.007	13.33
562.203	13.27
562.399	13.5
562.595	13.64
562.791	13.61
562.987	13.56
563.183	13.71
563.379	13.82
563.575	13.8
563.771	13.81
563.966	13.93
564.162	13.88
564.358	14
564.554	14.01
564.75	14.09
564.945	14.22
565.141	14.39
565.337	14.35
565.533	14.32
565.728	14.35
565.924	14.38
566.12	14.29
566.315	14.38
566.511	14.35
566.707	14.34
566.902	14.43
567.098	14.49
567.293	14.49
567.489	14.47
567.684	14.49
567.88	14.59
568.076	14.6
568.271	14.7
568.467	14.73
568.662	14.85
568.858	15
569.053	15.06
569.248	15.16
569.444	15.25
569.639	15.45
569.835	15.58
570.03	15.65
570.225	15.73
570.421	15.83
570.616	15.82
570.812	15.98
571.007	15.94
571.202	15.95
571.397	15.95
571.593	15.96
571.788	16
571.983	16.08
572.178	16.1
572.374	16.11
572.569	16.15
572.764	16.27
572.959	16.21
573.154	16.21
573.35	16.25
573.545	16.38
573.74	16.39
573.935	16.42
574.13	16.41
574.325	16.49
574.52	16.48
574.715	16.5
574.91	16.52
575.105	16.55
575.3	16.64
575.495	16.67
575.69	16.58
575.885	16.66
576.08	16.69
576.275	16.69
576.47	16.77
576.665	16.83
576.86	16.94
577.055	16.96
577.25	17.02
577.444	17.11
577.639	17.27
577.834	17.24
578.029	17.21
578.224	17.25
578.418	17.27
578.613	17.23
578.808	17.34
579.003	17.24
579.197	17.25
579.392	17.26
579.587	17.27
579.781	17.27
579.976	17.46
580.171	17.51
580.365	17.67
580.56	17.83
580.755	17.88
580.949	18.03
581.144	18.09
581.338	18.3
581.533	18.44
581.727	18.43
581.922	18.5
582.116	18.51
582.311	18.47
582.505	18.38
582.7	18.39
582.894	18.43
583.089	18.19
583.283	18.25
583.478	18.32
583.672	18.31
583.866	18.34
584.061	18.22
584.255	18.25
584.449	18.44
584.644	18.45
584.838	18.35
585.032	18.49
585.226	18.67
585.421	18.81
585.615	18.67
585.809	18.67
586.003	18.75
586.198	18.93
586.392	18.83
586.586	18.72
586.78	18.65
586.974	18.7
587.168	18.67
587.363	18.61
587.557	18.61
587.751	18.66
587.945	18.61
588.139	18.7
588.333	18.61
588.527	18.79
588.721	18.91
588.915	19.03
589.109	19.06
589.303	19.11
589.497	19.26
589.691	19.31
589.885	19.38
590.079	19.59
590.273	19.58
590.466	19.64
590.66	19.53
590.854	19.51
591.048	19.55
591.242	19.47
591.436	19.44
591.629	19.54
591.823	19.48
592.017	19.54
592.211	19.28
592.404	19.29
592.598	19.22
592.792	19.31
592.986	19.41
593.179	19.52
593.373	19.68
593.567	19.81
593.76	19.81
593.954	19.78
594.147	19.91
594.341	20.25
594.535	20.3
594.728	20.44
594.922	20.44
595.115	20.44
595.309	20.36
595.502	20.42
595.696	20.44
595.889	20.43
596.083	20.52
596.276	20.36
596.47	20.3
596.663	20.34
596.856	20.22
597.05	20.32
597.243	20.34
597.437	20.42
597.63	20.4
597.823	20.42
598.017	20.46
598.21	20.51
598.403	20.44
598.596	20.38
598.79	20.41
598.983	20.49
599.176	20.51
599.369	20.43
599.563	20.44
599.756	20.65
599.949	20.62
600.142	20.51
600.335	20.36
600.528	20.57
600.722	20.66
600.915	20.86
601.108	21.02
601.301	20.83
601.494	20.9
601.687	20.98
601.88	20.91
602.073	20.96
602.266	21.02
602.459	21.05
602.652	21.04
602.845	20.96
603.038	20.85
603.231	20.94
603.424	20.98
603.617	20.97
603.809	20.92
604.002	20.85
604.195	20.76
604.388	20.83
604.581	20.96
604.774	21.04
604.966	21.05
605.159	21.13
605.352	20.96
605.545	21.11
605.737	21.3
605.93	21.42
606.123	21.46
606.316	21.55
606.508	21.62
606.701	21.57
606.894	21.53
607.086	21.66
607.279	21.41
607.471	21.54
607.664	21.57
607.857	21.37
608.049	21.3
608.242	21.37
608.434	21.49
608.627	21.43
608.819	21.54
609.012	21.47
609.204	21.51
609.397	21.69
609.589	21.74
609.782	21.78
609.974	21.9
610.166	21.93
610.359	21.92
610.551	21.8
610.743	21.78
610.936	21.68
611.128	21.77
611.32	21.7
611.513	21.65
611.705	21.47
611.897	21.57
612.09	21.55
612.282	21.6
612.474	21.69
612.666	21.65
612.858	21.91
613.051	21.96
613.243	21.92
613.435	21.79
613.627	21.81
613.819	21.9
614.011	21.72
614.203	21.78
614.395	21.87
614.588	21.84
614.78	21.85
614.972	21.63
615.164	21.79
615.356	21.75
615.548	21.99
615.74	21.98
615.932	22
616.124	21.96
616.315	22.05
616.507	22.17
616.699	22.18
616.891	22.42
617.083	22.33
617.275	22.3
617.467	22.29
617.659	22.14
617.85	22.27
618.042	22.37
618.234	22.33
618.426	22.34
618.618	22.11
618.809	22.13
619.001	21.95
619.193	22.15
619.384	21.95
619.576	22.25
619.768	22.5
619.959	22.47
620.151	22.33
620.343	22.54
620.534	22.64
620.726	22.65
620.917	22.67
621.109	22.69
621.301	22.65
621.492	22.73
621.684	22.48
621.875	22.42
622.067	22.42
622.258	22.63
622.45	22.62
622.641	22.5
622.832	22.52
623.024	22.52
623.215	22.65
623.407	22.62
623.598	22.75
623.789	22.87
623.981	22.69
624.172	22.71
624.363	22.51
624.555	22.46
624.746	22.58
624.937	22.64
625.129	22.68
625.32	22.59
625.511	22.65
625.702	22.6
625.893	22.56
626.085	22.6
626.276	22.52
626.467	22.57
626.658	22.62
626.849	22.59
627.04	22.56
627.231	22.67
627.422	22.65
627.614	22.42
627.805	22.51
627.996	22.5
628.187	22.67
628.378	22.85
628.569	22.82
628.76	22.77
628.951	22.71
629.142	22.58
629.332	22.47
629.523	22.53
629.714	22.79
629.905	22.62
630.096	22.6
630.287	22.57
630.478	22.59
630.669	22.71
630.859	22.85
631.05	22.78
631.241	22.82
631.432	22.84
631.623	22.83
631.813	22.86
632.004	22.82
632.195	22.94
632.385	22.91
632.576	23
632.767	22.79
632.957	22.74
633.148	23.07
633.339	23.16
633.529	23.1
633.72	22.97
633.91	22.94
634.101	23.05
634.292	22.98
634.482	22.88
634.673	22.68
634.863	22.9
635.054	22.7
635.244	22.48
635.435	22.45
635.625	22.57
635.815	22.68
636.006	22.6
636.196	22.4
636.387	22.38
636.577	22.53
636.767	22.83
636.958	22.88
637.148	23.23
637.338	23.29
637.529	23.44
637.719	23.37
637.909	23.43
638.099	23.47
638.29	23.9
638.48	24
638.67	23.96
638.86	23.7
639.05	23.65
639.241	23.57
639.431	23.43
639.621	23.38
639.811	23.45
640.001	23.58
640.191	23.75
640.381	23.68
640.571	23.61
640.761	23.68
640.951	23.63
641.141	23.53
641.331	23.7
641.521	23.66
641.711	23.73
641.901	23.78
642.091	23.8
642.281	23.58
642.471	23.54
642.661	23.54
642.851	23.56
643.041	23.61
643.231	23.85
643.42	23.77
643.61	24.07
643.8	24.16
643.99	24.04
644.18	23.95
644.369	24.08
644.559	24.1
644.749	24.07
644.939	24.14
645.128	24.21
645.318	24.14
645.508	23.86
645.697	23.59
645.887	23.68
646.076	23.34
646.266	23.21
646.456	23.1
646.645	22.94
646.835	23
647.024	22.84
647.214	22.8
647.403	22.67
647.593	22.79
647.782	22.91
647.972	22.75
648.161	23.2
648.351	23.24
648.54	23.27
648.73	23.46
648.919	23.63
649.108	23.76
649.298	23.79
649.487	23.85
649.677	23.99
649.866	23.86
650.055	23.94
650.244	23.89
650.434	24.03
650.623	24.17
650.812	24.21
651.002	24.2
651.191	24.23
651.38	24.34
651.569	24.29
651.758	24.22
651.947	24.47
652.137	24.4
652.326	24.44
652.515	24.35
652.704	24.29
652.893	24.11
653.082	24.02
653.271	23.83
653.46	23.72
653.649	23.93
653.838	23.73
654.027	23.56
654.216	23.48
654.405	23.47
654.594	23.54
654.783	23.57
654.972	23.85
655.161	23.96
655.35	24.11
655.539	23.83
655.728	24.01
655.916	24.05
656.105	24.02
656.294	24.07
656.483	23.98
656.672	23.93
656.86	23.98
657.049	23.82
657.238	23.87
657.427	23.77
657.615	24.05
657.804	23.78
657.993	24.04
658.181	24.19
658.37	24.3
658.559	24.38
658.747	24.39
658.936	24.37
659.125	24.3
659.313	24.23
659.502	24.34
659.69	24.25
659.879	24.33
660.067	24.17
660.256	24.07
660.444	24.19
660.633	24.04
660.821	24.13
661.01	24.25
661.198	24.38
661.387	24.48
661.575	24.51
661.763	24.72
661.952	24.78
662.14	24.77
662.328	24.96
662.517	24.75
662.705	24.97
662.893	24.92
663.082	24.86
663.27	24.8
663.458	24.59
663.646	24.5
663.834	24.59
664.023	24.52
664.211	24.51
664.399	24.52
664.587	24.47
664.775	24.41
664.963	24.49
665.152	24.49
665.34	24.67
665.528	24.64
665.716	24.82
665.904	24.56
666.092	24.62
666.28	24.58
666.468	24.26
666.656	24.25
666.844	24.3
667.032	24.19
667.22	23.88
667.408	23.6
667.596	23.79
667.784	23.66
667.971	23.65
668.159	23.47
668.347	23.77
668.535	23.93
668.723	23.88
668.911	23.97
669.098	23.95
669.286	24.32
669.474	24.63
669.662	24.45
669.849	24.59
670.037	24.58
670.225	24.81
670.413	24.62
670.6	24.57
670.788	24.79
670.976	24.86
671.163	24.96
671.351	24.84
671.538	25
671.726	25.29
671.913	25.14
672.101	25.06
672.289	25.05
672.476	25.14
672.664	25.35
672.851	25.06
673.039	24.72
673.226	24.83
673.413	24.92
673.601	24.61
673.788	24.41
673.976	24.56
674.163	24.6
674.35	24.48
674.538	24.27
674.725	24.08
674.912	24.24
675.1	24.13
675.287	23.96
675.474	24.22
675.662	24.23
675.849	24.44
676.036	24.25
676.223	24.32
676.411	24.62
676.598	24.64
676.785	24.69
676.972	24.97
677.159	25.13
677.346	25.28
677.533	25.09
677.721	25.1
677.908	25.04
678.095	25.12
678.282	25.22
678.469	24.84
678.656	24.98
678.843	25.02
679.03	24.84
679.217	24.82
679.404	24.78
679.591	24.67
679.778	24.72
679.964	24.67
680.151	24.92
680.338	25.04
680.525	25.11
680.712	25.11
680.899	25.29
681.086	24.96
681.272	24.91
681.459	24.99
681.646	25.07
681.833	25.07
682.02	25.24
682.206	25.05
682.393	24.9
682.58	25.25
682.766	25.42
682.953	25.16
683.14	25.72
683.326	25.91
683.513	26.01
683.7	25.69
683.886	25.77
684.073	25.52
684.259	25.68
684.446	25.44
684.632	25.29
684.819	25.19
685.005	25.26
685.192	24.84
685.378	25.04
685.565	24.89
685.751	24.9
685.938	24.94
686.124	25.11
686.31	24.75
686.497	25.06
686.683	25.03
686.87	25.02
687.056	25.12
687.242	25.46
687.429	25.41
687.615	25.46
687.801	25.69
687.987	25.91
688.174	26.04
688.36	26.31
688.546	26.33
688.732	26.59
688.918	26.26
689.105	26.09
689.291	26.12
689.477	26.39
689.663	26.68
689.849	26.72
690.035	26.53
690.221	26.51
690.407	26.44
690.593	26.39
690.779	26.1
690.965	26.29
691.151	26.4
691.337	26.32
691.523	25.94
691.709	25.73
691.895	25.74
692.081	25.55
692.267	25.27
692.453	25.29
692.639	25.35
692.825	25.62
693.011	25.79
693.196	25.95
693.382	25.93
693.568	25.95
693.754	25.93
693.94	25.91
694.125	26.07
694.311	26.25
694.497	26.03
694.682	26
694.868	25.78
695.054	25.68
695.239	25.7
695.425	25.9
695.611	26.08
695.796	25.9
695.982	26.06
696.168	25.84
696.353	25.78
696.539	26.07
696.724	25.7
696.91	25.71
697.095	25.72
697.281	25.54
697.466	25.54
697.652	25.53
697.837	25.65
698.023	25.77
698.208	26.01
698.393	25.91
698.579	25.86
698.764	26.09
698.949	26.25
699.135	26.21
699.32	26.27
699.505	25.94
699.691	25.77
699.876	25.84
700.061	25.62
700.246	25.21
700.432	25.44
700.617	25.37
700.802	25.32
700.987	24.96
701.172	25.15
701.358	25.39
701.543	25.95
701.728	26.06
701.913	25.73
702.098	26.04
702.283	26.52
702.468	26.84
702.653	27.26
702.838	27.61
703.023	27.92
703.208	27.98
703.393	27.77
703.578	27.41
703.763	27.26
703.948	27.57
704.133	27.01
704.318	27.19
704.503	26.8
704.688	26.44
704.873	26.28
705.057	26.24
705.242	26.04
705.427	26.07
705.612	25.99
705.797	25.87
705.981	25.71
706.166	26.15
706.351	26.13
706.536	25.87
706.72	25.79
706.905	25.74
707.09	25.72
707.274	25.79
707.459	25.57
707.644	25.67
707.828	25.67
708.013	25.53
708.197	25.74
708.382	25.39
708.567	25.66
708.751	25.52
708.936	25.55
709.12	25.64
709.305	25.39
709.489	25.41
709.673	25.66
709.858	25.63
710.042	25.92
710.227	25.49
710.411	25.3
710.596	25.25
710.78	25.21
710.964	25.17
711.149	25.13
711.333	25.45
711.517	25.66
711.702	25.28
711.886	25.45
712.07	25.45
712.254	25.54
712.438	25.67
712.623	25.57
712.807	25.47
712.991	25.55
713.175	25.34
713.359	25.16
713.544	24.95
713.728	25.11
713.912	25.15
714.096	24.84
714.28	24.9
714.464	25.52
714.648	25.47
714.832	25.51
715.016	25.55
715.2	25.64
715.384	25.57
715.568	25.44
715.752	25.3
715.936	25.37
716.12	25.58
716.304	25.57
716.488	25.21
716.671	25.39
716.855	25.36
717.039	25.16
717.223	25.51
717.407	25.69
717.59	25.7
717.774	25.54
717.958	25.5
718.142	25.57
718.325	25.53
718.509	25.11
718.693	25.06
718.877	25.43
719.06	25.5
719.244	24.93
719.428	24.97
719.611	25.65
719.795	26.23
719.978	26.02
720.162	26.05
720.345	26.41
720.529	26.8
720.713	26.94
720.896	26.86
721.08	26.72
721.263	27
721.446	26.85
721.63	26.62
721.813	26.38
721.997	26.32
722.18	26.11
722.364	25.99
722.547	25.5
722.73	24.97
722.914	25.09
723.097	25.07
723.28	24.79
723.464	25.08
723.647	24.6
723.83	24.61
724.013	24.7
724.197	24.79
724.38	25.01
724.563	25.29
724.746	25.46
724.929	25.1
725.112	25.46
725.296	25.92
725.479	25.66
725.662	26.01
725.845	25.56
726.028	25.94
726.211	26.29
726.394	26.12
726.577	26.21
726.76	26.16
726.943	26.48
727.126	26.24
727.309	25.91
727.492	26.14
727.675	26.12
727.858	26.4
728.041	26.07
728.224	25.46
728.407	25.54
728.589	25.18
728.772	25.25
728.955	25.16
729.138	25.31
729.321	25.42
729.503	25.27
729.686	25.29
729.869	25.41
730.052	25.45
730.234	25.7
730.417	25.19
730.6	25.4
730.782	25.46
730.965	25.55
731.148	25.44
731.33	25.27
731.513	25.53
731.695	25.55
731.878	24.9
732.061	25.17
732.243	25.05
732.426	25.07
732.608	25.37
732.791	25.23
732.973	25.05
733.156	25.53
733.338	25.69
733.52	25.42
733.703	25.45
733.885	26.15
734.068	25.93
734.25	25.79
734.432	26.17
734.615	26
734.797	26.14
734.979	26.71
735.162	26.28
735.344	26.5
735.526	26.41
735.708	26.38
735.891	26.24
736.073	26.51
736.255	26.76
736.437	26.47
736.619	26.26
736.802	26.33
736.984	25.57
737.166	25.91
737.348	25.95
737.53	26.31
737.712	26.58
737.894	26.88
738.076	26.91
738.258	26.84
738.44	27.19
738.622	27.49
738.804	27.7
738.986	28.27
739.168	27.71
739.35	27.82
739.532	27.13
739.714	26.97
739.896	27.08
740.078	27.02
740.259	27.48
740.441	27.25
740.623	27.3
740.805	27.32
740.987	27.13
741.168	27.37
741.35	26.95
741.532	27.14
741.714	27
741.895	27.2
742.077	27.15
742.259	26.79
742.44	27.12
742.622	26.64
742.804	26.2
742.985	26.21
743.167	26.22
743.348	26.67
743.53	26.55
743.711	27.17
743.893	26.38
744.075	25.91
744.256	25.85
744.438	25.35
744.619	25.81
744.8	26.12
744.982	26.49
745.163	26.57
745.345	26.25
745.526	26.68
745.707	26.27
745.889	26.87
746.07	26.64
746.252	26.74
746.433	26.8
746.614	26.42
746.795	26.76
746.977	27.09
747.158	26.79
747.339	26.3
747.52	26.17
747.702	26.48
747.883	25.94
748.064	25.97
748.245	25.75
748.426	26.29
748.607	26.73
748.788	26.13
748.97	24.98
749.151	25.38
749.332	25.31
749.513	25.37
749.694	25.25
749.875	25.19
750.056	25.78
750.237	26.24
750.418	25.87
750.599	25.64
750.78	25.67
750.96	25.74
751.141	25.75
751.322	26.06
751.503	25.66
751.684	25.28
751.865	25.34
752.046	25.28
752.226	25.63
752.407	25.25
752.588	24.94
752.769	25.63
752.949	26.12
753.13	26.35
753.311	26.58
753.492	26.98
753.672	27.33
753.853	27.55
754.034	27.5
754.214	27.12
754.395	27.49
754.575	28.17
754.756	27.59
754.937	27.42
755.117	27.38
755.298	27.75
755.478	27.96
755.659	27.75
755.839	27.37
756.02	27.27
756.2	27.22
756.381	26.78
756.561	26.47
756.741	26.79
756.922	26.81
757.102	27.01
757.283	26.93
757.463	26.92
757.643	26.55
757.823	27.37
758.004	27.89
758.184	27.62
758.364	27.97
758.545	28.24
758.725	27.96
758.905	28.19
759.085	27.37
759.265	27.07
759.446	27.02
759.626	27.26
759.806	26.55
759.986	25.89
760.166	26.24
760.346	25.71
760.526	25.63
760.706	25.73
760.886	25.36
761.066	26.27
761.246	26.87
761.426	26.82
761.606	26.24
761.786	26.46
761.966	26.4
762.146	26.52
762.326	26.76
762.506	26.84
762.686	26.92
762.866	27.08
763.046	26.86
763.225	26.48
763.405	26.44
763.585	27
763.765	26.88
763.945	27.15
764.124	26.94
764.304	26.95
764.484	26.76
764.664	26.88
764.843	26.82
765.023	26.7
765.203	26.39
765.382	26.33
765.562	26.35
765.741	26.24
765.921	26.31
766.101	26.33
766.28	26.13
766.46	26.06
766.639	25.7
766.819	25.42
766.998	25.78
767.178	26.11
767.357	26.68
767.537	26.55
767.716	26.91
767.896	26.55
768.075	27.06
768.254	27.81
768.434	27.3
768.613	27.7
768.792	27.9
768.972	27.73
769.151	27.37
769.33	26.77
769.51	25.95
769.689	26.04
769.868	25.82
770.047	25.44
770.226	24.84
770.406	25.65
770.585	26.12
770.764	26.24
770.943	25.43
771.122	26.03
771.301	25.94
771.48	26.87
771.66	26.67
771.839	27.1
772.018	27.13
772.197	27.22
772.376	27.59
772.555	26.24
772.734	26.76
772.913	26.77
773.092	26.44
773.271	27.47
773.449	27.09
773.628	27.42
773.807	27.6
773.986	27.11
774.165	27.26
774.344	26.42
774.523	26.86
774.701	26.35
774.88	27.18
775.059	27.94
775.238	27.52
775.417	28
775.595	27.96
775.774	28.03
775.953	28.61
776.131	28.47
776.31	28.74
776.489	28.64
776.667	28.89
776.846	28.41
777.025	27.43
777.203	26.82
777.382	26.14
777.56	25.61
777.739	25.28
777.917	25.03
778.096	25.79
778.274	25.54
778.453	25.94
778.631	25.88
778.81	25.69
778.988	25.04
779.166	25.13
779.345	26.1
779.523	26.32
779.702	26.42
779.88	26.11
780.058	25.37
780.237	25.57
780.415	25.02
780.593	25.35
780.771	25.76
780.95	27.1
781.128	27.61
781.306	27.3
781.484	27.48
781.662	27.41
781.841	27.37
782.019	27.3
782.197	27.43
782.375	27.88
782.553	27.87
782.731	27.85
782.909	27.84
783.087	27.35
783.265	27.28
783.443	27.2
783.621	28.02
783.799	28.17
783.977	28.55
784.155	28.87
784.333	29.06
784.511	28.76
784.689	28.71
784.867	28.47
785.045	28.69
785.223	27.19
785.4	27.28
785.578	26.64
785.756	27.33
785.934	27.11
786.112	27.51
786.289	27.86
786.467	26.76
786.645	27.15
786.823	27.38
787	27.46
787.178	28.78
787.356	29.39
787.533	29.47
787.711	28.57
787.889	28.33
788.066	27.45
788.244	27.15
788.421	28.01
788.599	27.75
788.776	27.75
788.954	27.6
789.131	27.22
789.309	26.55
789.486	26.47
789.664	27.17
789.841	28.23
790.019	28.45
790.196	28.92
790.373	29.07
790.551	29.38
790.728	28.52
790.906	27.99
791.083	27.15
791.26	26.92
791.437	26.59
791.615	26.4
791.792	25.91
791.969	26.07
792.146	25.27
792.324	25.05
792.501	24.41
792.678	24.5
792.855	25.1
793.032	26
793.209	25.84
793.387	25.97
793.564	25.05
793.741	24.77
793.918	25.86
794.095	26.35
794.272	26.6
794.449	27.11
794.626	27.53
794.803	27.95
794.98	28.46
795.157	28.69
795.334	29.01
795.511	30.61
795.688	31.42
795.864	30.63
796.041	30.56
796.218	30.4
796.395	29.64
796.572	30.24
796.749	30.04
796.925	30.04
797.102	30.25
797.279	30.5
797.456	29.9
797.632	29.16
797.809	29.59
797.986	29.98
798.162	29.76
798.339	30.2
798.516	30.18
798.692	30.06
798.869	28.85
799.046	29.47
799.222	28.79
799.399	29
799.575	29.47
799.752	28.61
799.928	28.18
800.105	28.76
800.281	29.04
800.458	28.67
800.634	28.73
800.811	29.6
800.987	28.73
801.163	29.6
801.34	27.97
801.516	27.25
801.692	28.66
801.869	27.78
802.045	28.35
802.221	28.23
802.398	28.74
802.574	28.81
802.75	28.66
802.926	29.34
803.103	29.52
803.279	29.83
803.455	30.75
803.631	30.02
803.807	29.92
803.983	28.66
804.16	28.52
804.336	27.9
804.512	27.64
804.688	27.67
804.864	27.31
805.04	26.48
805.216	27.77
805.392	27.13
805.568	26.86
805.744	27.17
805.92	27.13
806.096	27.41
806.272	26.13
806.448	26.18
806.623	26.42
806.799	26.03
806.975	27.05
807.151	26.52
807.327	26.84
807.503	26.79
807.678	26.69
807.854	27.44
808.03	27.3
808.206	29.34
808.381	29.29
808.557	30.84
808.733	30.61
808.908	29.42
809.084	29.61
809.26	29.21
809.435	28.42
809.611	27.99
809.787	27.3
809.962	27.87
810.138	26.55
810.313	26.35
810.489	24.75
810.664	25.98
810.84	26.21
811.015	27.17
811.191	26.5
811.366	28.03
811.542	28.21
811.717	29.47
811.892	29.4
812.068	30
812.243	29.98
812.419	29.16
812.594	27.75
812.769	28.25
812.944	26.77
813.12	27.07
813.295	27.21
813.47	28.2
813.645	26.69
813.821	25.88
813.996	26.18
814.171	25.74
814.346	26.96
814.521	28.66
814.697	29.77
814.872	31.32
815.047	32.32
815.222	30.82
815.397	30.61
815.572	31.17
815.747	30.72
815.922	29.81
816.097	30.66
816.272	31.06
816.447	30.45
816.622	30.16
816.797	29.43
816.972	29.12
817.147	30.69
817.322	30.51
817.496	31.33
817.671	32.27
817.846	33.76
818.021	34.18
818.196	34.45
818.371	33.68
818.545	32.32
818.72	30.78
818.895	30.05
819.069	29.23
819.244	29.99
819.419	28.97
819.594	28.6
819.768	27.83
819.943	27.79
820.117	26.4
820.292	26.77
820.467	26.9
820.641	27.45
820.816	27.61
820.99	27.37
821.165	26.97
821.339	26.85
821.514	26.98
821.688	26.88
821.863	26.85
822.037	27.21
822.212	27.26
822.386	27.42
822.56	27.28
822.735	27.46
822.909	27.59
823.084	27.66
823.258	28.04
823.432	27.72
823.606	27.79
823.781	27.8
823.955	27.96
824.129	27.86
824.303	27.87
824.478	28.17
824.652	27.33
824.826	27.37
825	27.7
825.174	27.79
825.348	27.88
825.523	27.43
825.697	27.32
825.871	26.8
826.045	26.79
826.219	26.88
826.393	26.74
826.567	27.59
826.741	27.87
826.915	27.56
827.089	27.83
827.263	28.1
827.437	28.55
827.611	28.61
827.784	28.76
827.958	29.01
828.132	28.78
828.306	28.72
828.48	28.86
828.654	28.71
828.827	28.51
829.001	27.85
829.175	27.7
829.349	28.46
829.522	28.56
829.696	29.32
829.87	29.11
830.044	28.65
830.217	28.83
830.391	28.67
830.565	27.92
830.738	29.26
830.912	28.49
831.085	28.88
831.259	27.22
831.432	26.36
831.606	26.8
831.779	26.28
831.953	26.66
832.126	26.33
832.3	26.52
832.473	26.87
832.647	24.98
832.82	25.44
832.994	25.1
833.167	25.94
833.34	26.04
833.514	25.36
833.687	25.99
833.86	26.47
834.034	26.99
834.207	26.76
834.38	27.49
834.553	28.49
834.727	28.94
834.9	29.63
835.073	29.74
835.246	30.31
835.419	30.26
835.593	30.06
835.766	30.36
835.939	30.91
836.112	30.54
836.285	29.29
836.458	29.24
836.631	28.4
836.804	27.28
836.977	26.81
837.15	26.27
837.323	25.92
837.496	27.49
837.669	26.7
837.842	25.13
838.015	26.06
838.188	27.62
838.361	28.55
838.533	28.52
838.706	29.75
838.879	30.54
839.052	31.49
839.225	32.04
839.398	30.67
839.57	31.09
839.743	31.08
839.916	30.66
840.088	28.54
840.261	28.22
840.434	29.59
840.607	28.96
840.779	28.75
840.952	28.08
841.124	28.26
841.297	28.27
841.47	28.1
841.642	29.88
841.815	30.1
841.987	31.52
842.16	30.2
842.332	30.27
842.505	30.56
842.677	27.55
842.85	29.27
843.022	28.18
843.194	27.9
843.367	27.86
843.539	26.75
843.712	25.02
843.884	25.8
844.056	28.93
844.229	27.91
844.401	30.87
844.573	35.82
844.745	34.44
844.918	34.56
845.09	34.85
845.262	34.57
845.434	34.69
845.606	34.38
845.779	33.92
845.951	32.45
846.123	31.19
846.295	26.99
846.467	23.43
846.639	22.29
846.811	19.55
846.983	22.2
847.155	23.13
847.327	23.12
847.499	27.63
847.671	28.62
847.843	29.07
848.015	30.93
848.187	34.09
848.359	35.46
848.531	36.31
848.703	40.51
848.875	39.22
849.047	40.37
849.218	40.95
849.39	39.59
849.562	40.63
849.734	38.52
849.905	38.51
850.077	37.72
850.249	38.76
850.421	40.09
850.592	40.6
850.764	40.09
850.936	37.5
851.107	35.73
851.279	37.08
851.451	34.38
851.622	35.07
851.794	33.46
851.965	32.92
852.137	34.2
852.308	33.62
852.48	34.6
852.651	32.77
852.823	33.12
852.994	33.41
853.166	30.35
853.337	31.72
853.509	33.77
853.68	37.32
853.851	37.47
854.023	37.45
854.194	38.1
854.365	36.23
854.537	39.98
854.708	39.29
854.879	40.99
855.05	41.01
855.222	40.97
855.393	38.02
855.564	35.71
855.735	35.04
855.906	32.42
856.078	31.15
856.249	30.81
856.42	29.05
856.591	26.78
856.762	24.89
856.933	26.38
857.104	29.43
857.275	30.58
857.446	32.11
857.617	33.39
857.788	35.23
857.959	34.32
858.13	35.7
858.301	33.71
858.472	35.53
858.643	35.95
858.814	32.52
858.985	29.1
859.155	30.04
859.326	30.91
859.497	34.37
859.668	33.72
859.839	31.43
860.009	28.84
860.18	30.27
860.351	30.1
860.522	28.18
860.692	31.95
860.863	29.5
861.034	28.76
861.204	26.08
861.375	20.92
861.546	15.73
861.716	19.31
861.887	25.44
862.057	20.87
862.228	21
862.398	20.82
862.569	19.66
862.739	17.06
862.91	14.4
863.08	12.58
863.251	15.21
863.421	21.52
863.592	21.12
863.762	15.25
863.932	21.07
864.103	20.98
864.273	22.14
864.443	25.19
864.614	27.55
864.784	31.56
864.954	30.42
865.125	29.37
865.295	30.09
865.465	28.44
865.635	27.25
865.805	25.19
865.976	23.86
866.146	24.09
866.316	21.97
866.486	24.26
866.656	23.71
866.826	27.65
866.996	27.54
867.166	28.01
867.336	29.63
867.506	31.78
867.676	32.24
867.846	31.84
868.016	34.72
868.186	35.35
868.356	32.1
868.526	29.78
868.696	25.19
868.866	21.15
869.036	17.45
869.206	18.42
869.376	16.43
869.545	19.43
869.715	19.67
869.885	17.04
870.055	17.05
870.224	23.71
870.394	21.11
870.564	28.35
870.734	31.44
870.903	33.55
871.073	36.64
871.243	39.51
871.412	40.1
871.582	42.8
871.751	41.88
871.921	43.75
872.091	41.39
872.26	45.39
872.43	42.62
872.599	47.05
872.769	44.15
872.938	41.21
873.108	43.2
873.277	42.05
873.446	39.32
873.616	38.26
873.785	33.77
873.955	33.46
874.124	31.23
874.293	33.67
874.463	25.92
874.632	25.99
874.801	28.57
874.971	24.4
875.14	23.04
875.309	22.28
875.478	23.29
875.647	25.94
875.817	24.89
875.986	26.24
876.155	21.17
876.324	26.13
876.493	26.74
876.662	24.44
876.831	26.71
877	27.58
877.17	31.37
877.339	35.88
877.508	33.95
877.677	35.84
877.846	35.55
878.015	36.03
878.184	36.72
878.352	38.81
878.521	37.58
878.69	36.22
878.859	39.45
879.028	38.38
879.197	36.39
879.366	35.22
879.534	33.61
879.703	32.43
879.872	35
880.041	32.85
880.21	31.06
880.378	30.66
880.547	29.95
880.716	27.95
880.884	27.99
881.053	27.34
881.222	28.38
881.39	28.06
881.559	28.17
881.727	28.18
881.896	28.85
882.065	28.94
882.233	28.43
882.402	29.02
882.57	28.59
882.739	28.43
882.907	29.06
883.076	28.33
883.244	28.62
883.412	27.93
883.581	27.13
883.749	26.5
883.918	25.93
884.086	27.16
884.254	26.57
884.423	27.08
884.591	26.56
884.759	25.47
884.927	25.96
885.096	25.76
885.264	25.92
885.432	26.7
885.6	27.48
885.769	27.77
885.937	25.91
886.105	27.43
886.273	27.59
886.441	27.65
886.609	27.3
886.777	27.22
886.945	26.2
887.113	28.81
887.281	25.18
887.449	24.94
887.617	26.61
887.785	28.66
887.953	26.77
888.121	27.17
888.289	31.74
888.457	33.26
888.625	32.15
888.793	32.83
888.961	32.62
889.129	36.11
889.296	36.11
889.464	37.18
889.632	36.29
889.8	37.85
889.967	37.66
890.135	31.75
