Data from 2938551_Reflection_1.txt Node
Date: Sun Jun 14 23:58:31 EDT 2015
User: robert
Spectrometer: USB4E03002
Autoset integration time: false
Trigger mode: 4
Integration Time (sec): 1.000000E-1
Scans to average: 10
Electric dark correction enabled: true
Nonlinearity correction enabled: false
Boxcar width: 5
Stray light correction enabled: false
XAxis mode: Wavelengths
Stop averaging: false
Number of Pixels in Spectrum: 3648
>>>>>Begin Spectral Data<<<<<
177.575	42.82
177.794	49.47
178.014	62.41
178.233	60.67
178.452	52.4
178.672	27.11
178.891	58.51
179.11	4.1
179.33	-153.22
179.549	-51.61
179.768	-24.74
179.987	-26.02
180.207	-31.9
180.426	-107.41
180.645	-52.43
180.864	-139.77
181.084	-165.01
181.303	-546.96
181.522	579.13
181.741	-223.33
181.96	418.75
182.179	62.33
182.398	13.57
182.618	-33.27
182.837	277.4
183.056	136.84
183.275	168.14
183.494	-552.65
183.713	202.46
183.932	-106.95
184.151	-15.5
184.37	5.55
184.589	-69.42
184.808	-22.33
185.027	57.07
185.246	46.43
185.465	79.95
185.684	117.49
185.903	163.12
186.122	153.67
186.341	630
186.56	681.89
186.779	-174.68
186.998	-115.5
187.216	-56.13
187.435	-24.94
187.654	32.45
187.873	47.54
188.092	35.48
188.311	40.8
188.53	43.32
188.748	43.37
188.967	36.62
189.186	31.07
189.405	33.2
189.623	5.41
189.842	26.05
190.061	8.81
190.28	-22.89
190.498	6.41
190.717	-0.31
190.936	-49.69
191.154	-100.72
191.373	-334.17
191.592	-15.46
191.81	84.31
192.029	46.98
192.248	122.6
192.466	137.36
192.685	102.69
192.904	79.85
193.122	89.01
193.341	127.66
193.559	59.37
193.778	55.99
193.996	51.9
194.215	54.79
194.433	90.09
194.652	12.79
194.87	-90.87
195.089	1205.08
195.307	120.25
195.526	347.99
195.744	3148.87
195.963	-345.82
196.181	-1186.83
196.399	-388.72
196.618	-417.05
196.836	-1054.19
197.055	-134.12
197.273	-66.62
197.491	6.82
197.71	63.59
197.928	25.99
198.146	103.85
198.365	134.7
198.583	66.67
198.801	160.98
199.019	-80.32
199.238	1172.41
199.456	78.25
199.674	94.22
199.892	-2
200.111	107.05
200.329	35.92
200.547	113.43
200.765	-114.33
200.983	54.93
201.202	-300.53
201.42	-107.34
201.638	-13.41
201.856	258.91
202.074	454.12
202.292	-83.17
202.51	28.01
202.728	47.66
202.946	-341
203.165	-144.5
203.383	105.8
203.601	56.91
203.819	109.92
204.037	32.67
204.255	17.7
204.473	33.73
204.691	26.4
204.909	47.58
205.127	22.17
205.345	14.95
205.562	-14.77
205.78	-45.97
205.998	-72.69
206.216	-165.56
206.434	-2171.65
206.652	274
206.87	164.11
207.088	140.36
207.306	76.37
207.523	33.87
207.741	13.33
207.959	15.61
208.177	-715.97
208.395	-70.42
208.612	-151.09
208.83	640.92
209.048	261.57
209.266	142.8
209.483	88.6
209.701	98.63
209.919	81.95
210.136	60.31
210.354	67.98
210.572	67.89
210.79	78.92
211.007	79.12
211.225	100.02
211.442	72.91
211.66	92.9
211.878	149.07
212.095	83.62
212.313	59.01
212.53	67.8
212.748	76.22
212.966	49.1
213.183	35.49
213.401	31.28
213.618	0.94
213.836	8.41
214.053	21.84
214.271	30.44
214.488	6.45
214.705	-14.11
214.923	31.06
215.14	59.25
215.358	71.8
215.575	79.78
215.793	86.81
216.01	100.39
216.227	120.26
216.445	102.24
216.662	97.31
216.879	146.06
217.097	144.79
217.314	95.64
217.531	70.37
217.749	58.98
217.966	46.55
218.183	31.59
218.4	25.31
218.618	19.92
218.835	22.68
219.052	27.17
219.269	16.42
219.487	10.2
219.704	12.08
219.921	7.09
220.138	0.25
220.355	1.36
220.572	-14.51
220.79	-7.11
221.007	-7.77
221.224	-22.99
221.441	-17.08
221.658	-0.78
221.875	-5.98
222.092	5.5
222.309	1.28
222.526	7.28
222.743	0.15
222.96	8.83
223.177	5.19
223.394	13.05
223.611	16.84
223.828	9.66
224.045	1.15
224.262	1.62
224.479	-4.98
224.696	3.42
224.913	2.2
225.13	6.27
225.347	8.89
225.564	8.49
225.781	5.4
225.997	4.23
226.214	6.22
226.431	6.19
226.648	6.47
226.865	7.84
227.082	6.18
227.298	8.14
227.515	9.11
227.732	8.41
227.949	9.33
228.165	10.68
228.382	11.43
228.599	10.19
228.816	10.68
229.032	12.09
229.249	11.55
229.466	11.88
229.682	10.67
229.899	9.97
230.116	10.48
230.332	10.54
230.549	6.73
230.765	5.31
230.982	7.78
231.199	7.2
231.415	7.39
231.632	6.97
231.848	8.33
232.065	8.94
232.281	7.7
232.498	7.67
232.714	4.98
232.931	6.49
233.147	7.58
233.364	6.07
233.58	5.45
233.797	6.95
234.013	9.33
234.23	10.53
234.446	8.53
234.662	10.69
234.879	10.47
235.095	11.77
235.312	12.45
235.528	13.72
235.744	14.58
235.961	15.15
236.177	13.53
236.393	12.2
236.61	11.21
236.826	12.83
237.042	11.02
237.258	10.24
237.475	10.33
237.691	10.25
237.907	8.68
238.123	8.19
238.339	8.63
238.556	7.25
238.772	7.98
238.988	9.33
239.204	8.13
239.42	7.87
239.636	8.15
239.853	8.25
240.069	8.26
240.285	7.92
240.501	8.99
240.717	9.25
240.933	10.05
241.149	9.57
241.365	8.57
241.581	9.58
241.797	9.92
242.013	9.95
242.229	10.04
242.445	10.22
242.661	10.72
242.877	10.21
243.093	10.04
243.309	10.53
243.525	10.29
243.741	10.87
243.957	10.19
244.173	10.11
244.388	10.1
244.604	9.79
244.82	10.06
245.036	9.82
245.252	9.27
245.468	9.13
245.683	9.02
245.899	8.88
246.115	8.52
246.331	8.43
246.547	8.17
246.762	7.74
246.978	7.58
247.194	7.47
247.409	7.29
247.625	7.47
247.841	7.7
248.057	7.47
248.272	7.53
248.488	7.64
248.703	7.5
248.919	8.27
249.135	8.44
249.35	9.2
249.566	8.96
249.782	9.89
249.997	9.37
250.213	8.82
250.428	8.11
250.644	8.87
250.859	8.64
251.075	9.48
251.29	9.31
251.506	9.96
251.721	9.23
251.937	9.07
252.152	8.4
252.368	9.03
252.583	8.69
252.798	7.96
253.014	7.54
253.229	6.72
253.445	5.39
253.66	4.68
253.875	5.25
254.091	5.93
254.306	5.61
254.521	6.52
254.737	6.56
254.952	7.43
255.167	8.99
255.383	8.98
255.598	9.32
255.813	9.05
256.028	8.97
256.244	7.56
256.459	7.25
256.674	7.01
256.889	6.27
257.104	6.37
257.32	6.45
257.535	5.89
257.75	5.86
257.965	6.07
258.18	6.04
258.395	5.98
258.61	6.31
258.826	6.28
259.041	6.64
259.256	6.76
259.471	6.66
259.686	6.64
259.901	7.11
260.116	6.76
260.331	6.93
260.546	7.02
260.761	7.4
260.976	7.2
261.191	7.17
261.406	6.25
261.621	5.95
261.836	5.85
262.05	6.3
262.265	5.75
262.48	6.78
262.695	6.3
262.91	6.25
263.125	5.78
263.34	6.18
263.555	6
263.769	6.64
263.984	6.77
264.199	6.54
264.414	5.66
264.629	6.35
264.843	6.09
265.058	5.97
265.273	5.69
265.488	5.8
265.702	5.54
265.917	6.17
266.132	6.04
266.346	6.17
266.561	5.74
266.776	6.07
266.99	5.54
267.205	5.59
267.42	5.49
267.634	6.29
267.849	6.41
268.063	6.14
268.278	5.87
268.492	5.83
268.707	5.83
268.922	6.71
269.136	6.46
269.351	6.36
269.565	6.09
269.78	6.59
269.994	6.24
270.209	6.09
270.423	6.25
270.637	6.05
270.852	6.26
271.066	5.97
271.281	5.66
271.495	5.95
271.709	6.36
271.924	6.61
272.138	6.27
272.353	6.6
272.567	6.36
272.781	6.45
272.996	6.41
273.21	6.51
273.424	6.78
273.638	7.18
273.853	6.96
274.067	6.54
274.281	6.35
274.495	6.12
274.71	5.88
274.924	6.03
275.138	6.11
275.352	6.23
275.566	6.03
275.781	6.09
275.995	6.05
276.209	5.96
276.423	6.22
276.637	6.39
276.851	6.97
277.065	6.9
277.279	7.29
277.493	7.08
277.707	6.97
277.921	7.18
278.135	7.4
278.349	7.11
278.563	6.66
278.777	6.27
278.991	6.07
279.205	5.42
279.419	5.2
279.633	5.16
279.847	5.47
280.061	5.54
280.275	5.37
280.489	5.27
280.703	5.49
280.917	5.91
281.131	6.14
281.344	6.14
281.558	6.54
281.772	6.4
281.986	6.66
282.2	6.88
282.414	6.95
282.627	6.95
282.841	7.01
283.055	6.61
283.269	6.07
283.482	6.15
283.696	6.23
283.91	6.25
284.123	6.55
284.337	6.23
284.551	5.85
284.764	5.82
284.978	5.78
285.192	5.18
285.405	5.04
285.619	5.11
285.833	4.57
286.046	4.45
286.26	4.42
286.473	4.22
286.687	4.3
286.9	4.16
287.114	4.54
287.327	4.59
287.541	5.16
287.754	5.37
287.968	5.71
288.181	6.17
288.395	6.04
288.608	6.07
288.822	5.78
289.035	5.21
289.248	5.2
289.462	5.13
289.675	5.32
289.889	5.74
290.102	5.9
290.315	5.97
290.529	5.93
290.742	6.1
290.955	5.63
291.169	5.33
291.382	5.98
291.595	6.2
291.808	5.67
292.022	5.91
292.235	5.18
292.448	5.06
292.661	4.93
292.875	4.81
293.088	4.79
293.301	4.79
293.514	5.38
293.727	5.37
293.94	5.29
294.153	5.5
294.367	4.77
294.58	4.97
294.793	4.79
295.006	4.7
295.219	4.53
295.432	4.47
295.645	4.95
295.858	4.93
296.071	4.71
296.284	4.75
296.497	4.78
296.71	4.7
296.923	4.68
297.136	4.74
297.349	4.59
297.562	4.63
297.775	4.39
297.988	4.02
298.201	3.87
298.414	3.79
298.626	3.52
298.839	3.62
299.052	3.89
299.265	4.11
299.478	4.36
299.691	4.44
299.903	4.55
300.116	4.92
300.329	5.19
300.542	5.27
300.755	5.4
300.967	5.89
301.18	5.47
301.393	5.49
301.605	5.07
301.818	4.98
302.031	5.35
302.243	5.62
302.456	5.13
302.669	5
302.881	5.01
303.094	5.33
303.307	5
303.519	5.41
303.732	5.58
303.944	5.89
304.157	5.99
304.37	5.83
304.582	5.57
304.795	6.12
305.007	5.97
305.22	6.25
305.432	6.02
305.645	6.27
305.857	6.15
306.069	6.28
306.282	6.36
306.494	6.27
306.707	6.3
306.919	6.53
307.132	6.33
307.344	6.52
307.556	6.68
307.769	6.59
307.981	6.47
308.193	6.34
308.406	6.23
308.618	5.96
308.83	5.78
309.043	5.47
309.255	5.4
309.467	5.4
309.679	5.43
309.892	4.82
310.104	4.6
310.316	4.64
310.528	4.45
310.74	4.43
310.953	4.76
311.165	4.81
311.377	5.35
311.589	5.14
311.801	5.23
312.013	5.07
312.225	5.25
312.437	5.33
312.649	5.14
312.862	5.51
313.074	5.7
313.286	5.12
313.498	5.28
313.71	4.73
313.922	4.91
314.134	4.6
314.346	4.35
314.558	4.48
314.77	4.84
314.982	4.94
315.193	4.56
315.405	4.48
315.617	4.94
315.829	4.69
316.041	4.65
316.253	4.18
316.465	4.5
316.677	4.43
316.888	4.4
317.1	4.07
317.312	4.07
317.524	4.5
317.736	3.85
317.947	3.85
318.159	3.74
318.371	3.93
318.583	4.53
318.794	4.47
319.006	4.49
319.218	4.78
319.43	5.07
319.641	5.25
319.853	5.19
320.064	5.64
320.276	5.17
320.488	5.64
320.699	5.58
320.911	5.36
321.123	5.61
321.334	5.37
321.546	5.35
321.757	5.15
321.969	5.03
322.18	4.5
322.392	4.14
322.603	4.32
322.815	3.88
323.026	3.89
323.238	3.44
323.449	3.37
323.661	3.8
323.872	3.62
324.083	3.74
324.295	3.8
324.506	4.23
324.718	4.52
324.929	4.29
325.14	4.66
325.352	4.97
325.563	5.64
325.774	5.57
325.986	5.56
326.197	5.54
326.408	5.75
326.62	5.68
326.831	5.58
327.042	5.34
327.253	5.54
327.464	5.37
327.676	5.46
327.887	5.04
328.098	4.9
328.309	4.81
328.52	4.64
328.732	4.29
328.943	4.26
329.154	4.18
329.365	4.73
329.576	4.37
329.787	4.72
329.998	4.61
330.209	4.96
330.42	5.09
330.631	4.92
330.842	5.06
331.053	5.55
331.264	5.21
331.475	5.26
331.686	5.27
331.897	5.44
332.108	4.73
332.319	4.75
332.53	4.71
332.741	5.02
332.952	5.14
333.163	5.15
333.374	4.83
333.585	5.05
333.795	5.1
334.006	4.76
334.217	5.21
334.428	5.85
334.639	5.85
334.849	5.85
335.06	5.18
335.271	5.37
335.482	5.19
335.692	5.21
335.903	5.16
336.114	5.07
336.325	5.37
336.535	5.16
336.746	4.89
336.957	4.68
337.167	4.75
337.378	5.14
337.589	4.65
337.799	4.63
338.01	4.79
338.22	4.92
338.431	5.06
338.642	4.41
338.852	4.38
339.063	4.53
339.273	4.74
339.484	4.53
339.694	4.46
339.905	4.69
340.115	5.26
340.326	4.96
340.536	4.99
340.746	4.93
340.957	5.27
341.167	4.9
341.378	4.96
341.588	4.56
341.799	4.8
342.009	4.97
342.219	5.21
342.43	5.25
342.64	5.26
342.85	4.96
343.061	4.91
343.271	5.05
343.481	5.19
343.691	5.04
343.902	5.36
344.112	5.29
344.322	5.17
344.532	5.01
344.743	4.73
344.953	5.04
345.163	5.08
345.373	5.04
345.583	4.77
345.793	4.72
346.004	4.67
346.214	4.68
346.424	4.64
346.634	4.7
346.844	4.72
347.054	4.72
347.264	4.5
347.474	4.78
347.684	4.92
347.894	5.23
348.104	5.1
348.314	5.15
348.524	5.17
348.734	5
348.944	4.79
349.154	5.09
349.364	4.95
349.574	5.04
349.784	5.21
349.994	5.02
350.204	5.05
350.413	5.42
350.623	5.06
350.833	5.07
351.043	5.09
351.253	5.4
351.463	5.2
351.672	5.16
351.882	5.23
352.092	5.21
352.302	5.07
352.511	4.71
352.721	4.61
352.931	5.05
353.141	4.89
353.35	4.93
353.56	5.06
353.77	5.04
353.979	5.01
354.189	5.02
354.399	4.92
354.608	4.96
354.818	4.99
355.027	5.08
355.237	4.84
355.447	4.82
355.656	4.88
355.866	4.46
356.075	4.26
356.285	4.56
356.494	4.43
356.704	4.34
356.913	4.29
357.123	4.52
357.332	4.53
357.542	4.71
357.751	4.74
357.96	4.44
358.17	4.55
358.379	4.72
358.589	4.4
358.798	4.36
359.007	4.12
359.217	4.45
359.426	4.26
359.635	4.24
359.845	4.27
360.054	4.33
360.263	4.61
360.472	4.55
360.682	4.45
360.891	4.63
361.1	4.58
361.309	4.67
361.519	4.41
361.728	4.37
361.937	4.51
362.146	4.49
362.355	4.22
362.564	3.74
362.774	3.81
362.983	3.94
363.192	3.87
363.401	3.88
363.61	3.93
363.819	3.96
364.028	4.03
364.237	3.74
364.446	3.49
364.655	3.65
364.864	3.83
365.073	3.73
365.282	3.62
365.491	3.38
365.7	3.43
365.909	3.4
366.118	3.53
366.327	3.56
366.536	3.61
366.745	3.82
366.954	3.71
367.162	3.84
367.371	4.18
367.58	4.07
367.789	4.18
367.998	4.11
368.207	4.11
368.415	3.91
368.624	4.17
368.833	3.85
369.042	3.61
369.25	3.81
369.459	3.87
369.668	3.68
369.877	3.89
370.085	3.87
370.294	3.86
370.503	3.57
370.711	3.74
370.92	3.51
371.129	3.79
371.337	3.9
371.546	3.75
371.754	3.63
371.963	3.58
372.171	3.43
372.38	3.37
372.589	3.23
372.797	3.51
373.006	3.46
373.214	3.59
373.423	3.71
373.631	3.81
373.84	3.78
374.048	3.65
374.256	3.7
374.465	3.71
374.673	3.6
374.882	3.68
375.09	3.73
375.298	3.6
375.507	3.63
375.715	3.36
375.923	3.32
376.132	3.55
376.34	3.63
376.548	3.51
376.757	3.66
376.965	3.74
377.173	3.7
377.381	3.61
377.59	3.67
377.798	3.52
378.006	3.76
378.214	3.7
378.423	3.69
378.631	3.67
378.839	3.48
379.047	3.15
379.255	3.43
379.463	3.61
379.671	3.52
379.879	3.49
380.088	3.44
380.296	3.41
380.504	3.33
380.712	3.22
380.92	3.44
381.128	3.43
381.336	3.63
381.544	3.34
381.752	3.26
381.96	3.39
382.168	3.33
382.376	3.41
382.584	3.37
382.791	3.46
382.999	3.46
383.207	3.33
383.415	3.65
383.623	3.45
383.831	3.61
384.039	3.86
384.247	3.74
384.454	3.91
384.662	3.74
384.87	3.79
385.078	3.77
385.285	3.8
385.493	3.66
385.701	3.63
385.909	3.74
386.116	3.57
386.324	3.4
386.532	3.6
386.739	3.52
386.947	3.59
387.155	3.56
387.362	3.61
387.57	3.26
387.778	3.27
387.985	3.08
388.193	3.19
388.4	3.14
388.608	2.99
388.816	2.87
389.023	3.01
389.231	3.02
389.438	3
389.646	3
389.853	3.04
390.061	3.28
390.268	3.54
390.475	3.49
390.683	3.51
390.89	3.5
391.098	3.51
391.305	3.42
391.512	3.3
391.72	3.38
391.927	3.33
392.135	3.73
392.342	3.44
392.549	3.2
392.756	3.25
392.964	3.31
393.171	3.25
393.378	3.16
393.586	3.08
393.793	3.3
394	3.2
394.207	3.26
394.414	2.87
394.622	3.08
394.829	3.21
395.036	3
395.243	2.95
395.45	3.05
395.657	3.08
395.864	3.1
396.072	2.93
396.279	2.99
396.486	3.1
396.693	3.33
396.9	3.18
397.107	3.04
397.314	2.92
397.521	2.93
397.728	2.96
397.935	3.15
398.142	3.29
398.349	3.32
398.556	3.18
398.763	2.85
398.97	2.81
399.177	2.75
399.383	2.87
399.59	3.17
399.797	3.2
400.004	3.03
400.211	2.94
400.418	2.7
400.625	2.67
400.831	2.66
401.038	2.89
401.245	2.56
401.452	2.55
401.658	2.41
401.865	2.3
402.072	2.21
402.279	2.2
402.485	2.07
402.692	2.12
402.899	2.09
403.105	2.06
403.312	1.85
403.519	2.01
403.725	2
403.932	2.11
404.138	2.05
404.345	2.04
404.552	2.26
404.758	2.18
404.965	2.12
405.171	2.17
405.378	2.05
405.584	2.35
405.791	2.21
405.997	2.07
406.204	1.98
406.41	2.23
406.617	2.3
406.823	2.1
407.029	2.17
407.236	2.29
407.442	2.31
407.649	2.4
407.855	2.28
408.061	2.41
408.268	2.77
408.474	2.82
408.68	2.79
408.887	2.64
409.093	2.61
409.299	2.73
409.505	2.66
409.712	2.72
409.918	2.73
410.124	2.81
410.33	2.82
410.537	2.72
410.743	2.79
410.949	2.52
411.155	2.48
411.361	2.42
411.567	2.32
411.773	2.21
411.98	2.22
412.186	2.39
412.392	2.28
412.598	2.36
412.804	2.49
413.01	2.3
413.216	2.43
413.422	2.6
413.628	2.63
413.834	2.73
414.04	2.92
414.246	2.81
414.452	2.75
414.658	2.73
414.864	2.79
415.07	2.73
415.275	2.8
415.481	2.85
415.687	2.73
415.893	2.72
416.099	2.68
416.305	2.67
416.511	2.67
416.716	2.67
416.922	2.59
417.128	2.47
417.334	2.4
417.539	2.32
417.745	2.3
417.951	2.38
418.157	2.46
418.362	2.56
418.568	2.48
418.774	2.34
418.979	2.31
419.185	2.34
419.391	2.42
419.596	2.39
419.802	2.48
420.008	2.47
420.213	2.48
420.419	2.37
420.624	2.33
420.83	2.44
421.035	2.55
421.241	2.58
421.446	2.6
421.652	2.52
421.857	2.55
422.063	2.5
422.268	2.58
422.474	2.57
422.679	2.68
422.885	2.62
423.09	2.61
423.295	2.58
423.501	2.5
423.706	2.49
423.911	2.53
424.117	2.51
424.322	2.42
424.527	2.27
424.733	2.2
424.938	2.13
425.143	2.14
425.349	2.02
425.554	2.07
425.759	2.18
425.964	2.12
426.169	2.09
426.375	2.11
426.58	2.2
426.785	2.31
426.99	2.3
427.195	2.35
427.4	2.4
427.605	2.36
427.811	2.51
428.016	2.51
428.221	2.53
428.426	2.56
428.631	2.53
428.836	2.56
429.041	2.61
429.246	2.65
429.451	2.61
429.656	2.47
429.861	2.64
430.066	2.52
430.271	2.47
430.476	2.42
430.681	2.32
430.886	2.32
431.09	2.35
431.295	2.31
431.5	2.44
431.705	2.44
431.91	2.56
432.115	2.37
432.32	2.34
432.524	2.28
432.729	2.34
432.934	2.4
433.139	2.48
433.343	2.48
433.548	2.43
433.753	2.27
433.958	2.2
434.162	2.12
434.367	2.05
434.572	2.07
434.776	2.02
434.981	2
435.186	1.9
435.39	1.92
435.595	1.9
435.799	1.85
436.004	1.92
436.209	2.12
436.413	2.1
436.618	2.31
436.822	2.21
437.027	2.24
437.231	2.24
437.436	2.29
437.64	2.14
437.845	2.13
438.049	2.18
438.253	2.15
438.458	2.05
438.662	2.12
438.867	2.11
439.071	2.18
439.275	2.23
439.48	2.21
439.684	2.25
439.888	2.34
440.093	2.32
440.297	2.34
440.501	2.44
440.706	2.5
440.91	2.41
441.114	2.36
441.318	2.39
441.523	2.35
441.727	2.38
441.931	2.43
442.135	2.49
442.339	2.55
442.543	2.51
442.748	2.47
442.952	2.37
443.156	2.4
443.36	2.42
443.564	2.35
443.768	2.34
443.972	2.36
444.176	2.37
444.38	2.3
444.584	2.29
444.788	2.3
444.992	2.3
445.196	2.38
445.4	2.39
445.604	2.44
445.808	2.45
446.012	2.46
446.216	2.46
446.42	2.38
446.624	2.35
446.828	2.34
447.032	2.36
447.235	2.37
447.439	2.27
447.643	2.32
447.847	2.32
448.051	2.27
448.254	2.31
448.458	2.22
448.662	2.26
448.866	2.4
449.069	2.39
449.273	2.31
449.477	2.21
449.681	2.25
449.884	2.24
450.088	2.2
450.292	2.19
450.495	2.22
450.699	2.32
450.902	2.27
451.106	2.18
451.31	2.21
451.513	2.2
451.717	2.24
451.92	2.3
452.124	2.37
452.327	2.36
452.531	2.43
452.734	2.48
452.938	2.46
453.141	2.57
453.345	2.65
453.548	2.67
453.752	2.69
453.955	2.61
454.158	2.61
454.362	2.58
454.565	2.49
454.769	2.46
454.972	2.36
455.175	2.39
455.379	2.31
455.582	2.2
455.785	2.21
455.988	2.26
456.192	2.32
456.395	2.3
456.598	2.24
456.801	2.4
457.005	2.41
457.208	2.44
457.411	2.43
457.614	2.43
457.817	2.47
458.021	2.39
458.224	2.37
458.427	2.41
458.63	2.38
458.833	2.32
459.036	2.25
459.239	2.28
459.442	2.27
459.645	2.21
459.848	2.27
460.051	2.28
460.254	2.45
460.457	2.41
460.66	2.4
460.863	2.42
461.066	2.48
461.269	2.5
461.472	2.4
461.675	2.43
461.878	2.53
462.081	2.39
462.284	2.27
462.486	2.08
462.689	2.13
462.892	2.2
463.095	2.21
463.298	2.2
463.5	2.19
463.703	2.22
463.906	2.22
464.109	2.12
464.311	2.15
464.514	2.19
464.717	2.16
464.92	2.17
465.122	2.16
465.325	2.24
465.528	2.33
465.73	2.35
465.933	2.35
466.135	2.34
466.338	2.41
466.541	2.47
466.743	2.51
466.946	2.6
467.148	2.59
467.351	2.41
467.553	2.33
467.756	2.14
467.958	2.14
468.161	2.15
468.363	2.12
468.566	2.05
468.768	2.06
468.971	2.04
469.173	1.97
469.375	1.96
469.578	2.06
469.78	2.07
469.983	2.21
470.185	2.21
470.387	2.18
470.59	2.26
470.792	2.3
470.994	2.2
471.196	2.22
471.399	2.29
471.601	2.19
471.803	2.24
472.005	2.18
472.208	2.13
472.41	2.14
472.612	2.2
472.814	2.24
473.016	2.24
473.218	2.33
473.421	2.29
473.623	2.27
473.825	2.42
474.027	2.37
474.229	2.43
474.431	2.51
474.633	2.45
474.835	2.47
475.037	2.34
475.239	2.34
475.441	2.29
475.643	2.33
475.845	2.24
476.047	2.21
476.249	2.21
476.451	2.28
476.653	2.23
476.855	2.19
477.057	2.11
477.258	2.18
477.46	2.23
477.662	2.31
477.864	2.27
478.066	2.41
478.268	2.42
478.469	2.36
478.671	2.28
478.873	2.26
479.075	2.39
479.276	2.32
479.478	2.29
479.68	2.25
479.882	2.23
480.083	2.29
480.285	2.19
480.487	2.22
480.688	2.3
480.89	2.29
481.091	2.27
481.293	2.22
481.495	2.26
481.696	2.26
481.898	2.22
482.099	2.19
482.301	2.17
482.502	2.2
482.704	2.21
482.905	2.2
483.107	2.23
483.308	2.24
483.51	2.24
483.711	2.26
483.913	2.26
484.114	2.28
484.315	2.31
484.517	2.33
484.718	2.35
484.92	2.35
485.121	2.29
485.322	2.26
485.524	2.29
485.725	2.32
485.926	2.32
486.127	2.32
486.329	2.35
486.53	2.37
486.731	2.38
486.932	2.38
487.134	2.39
487.335	2.41
487.536	2.42
487.737	2.41
487.938	2.38
488.139	2.39
488.341	2.39
488.542	2.36
488.743	2.32
488.944	2.26
489.145	2.2
489.346	2.18
489.547	2.19
489.748	2.2
489.949	2.15
490.15	2.14
490.351	2.17
490.552	2.2
490.753	2.24
490.954	2.26
491.155	2.28
491.356	2.3
491.557	2.24
491.758	2.27
491.959	2.29
492.159	2.3
492.36	2.35
492.561	2.28
492.762	2.32
492.963	2.24
493.164	2.27
493.364	2.28
493.565	2.27
493.766	2.35
493.967	2.39
494.167	2.36
494.368	2.38
494.569	2.47
494.769	2.48
494.97	2.38
495.171	2.34
495.371	2.35
495.572	2.38
495.773	2.42
495.973	2.39
496.174	2.34
496.375	2.3
496.575	2.25
496.776	2.16
496.976	2.23
497.177	2.3
497.377	2.31
497.578	2.31
497.778	2.3
497.979	2.23
498.179	2.21
498.38	2.33
498.58	2.36
498.78	2.45
498.981	2.51
499.181	2.45
499.382	2.43
499.582	2.46
499.782	2.51
499.983	2.46
500.183	2.55
500.383	2.64
500.584	2.49
500.784	2.54
500.984	2.59
501.184	2.55
501.385	2.58
501.585	2.61
501.785	2.62
501.985	2.59
502.185	2.56
502.386	2.55
502.586	2.51
502.786	2.59
502.986	2.57
503.186	2.51
503.386	2.57
503.586	2.64
503.786	2.64
503.987	2.64
504.187	2.64
504.387	2.75
504.587	2.77
504.787	2.87
504.987	2.87
505.187	2.83
505.387	2.87
505.587	2.82
505.786	2.71
505.986	2.66
506.186	2.76
506.386	2.8
506.586	2.82
506.786	2.81
506.986	2.76
507.186	2.75
507.386	2.77
507.585	2.79
507.785	2.8
507.985	2.87
508.185	2.97
508.384	2.94
508.584	2.97
508.784	2.96
508.984	2.96
509.183	2.93
509.383	2.98
509.583	3.01
509.782	2.96
509.982	3.03
510.182	3.03
510.381	3.04
510.581	3.01
510.781	3
510.98	3.06
511.18	3.09
511.379	3.16
511.579	3.17
511.778	3.19
511.978	3.31
512.177	3.3
512.377	3.23
512.576	3.26
512.776	3.28
512.975	3.29
513.175	3.26
513.374	3.26
513.573	3.29
513.773	3.3
513.972	3.31
514.172	3.27
514.371	3.3
514.57	3.37
514.77	3.26
514.969	3.33
515.168	3.31
515.367	3.33
515.567	3.35
515.766	3.29
515.965	3.28
516.164	3.32
516.364	3.32
516.563	3.27
516.762	3.3
516.961	3.38
517.16	3.4
517.359	3.46
517.559	3.46
517.758	3.5
517.957	3.51
518.156	3.57
518.355	3.6
518.554	3.64
518.753	3.65
518.952	3.66
519.151	3.67
519.35	3.65
519.549	3.73
519.748	3.76
519.947	3.67
520.146	3.72
520.345	3.76
520.544	3.79
520.743	3.83
520.942	3.92
521.141	3.91
521.339	3.96
521.538	3.9
521.737	3.84
521.936	3.84
522.135	3.93
522.333	3.95
522.532	3.97
522.731	4.03
522.93	4.1
523.129	4.13
523.327	4.16
523.526	4.14
523.725	4.23
523.923	4.27
524.122	4.29
524.321	4.35
524.519	4.4
524.718	4.39
524.917	4.34
525.115	4.27
525.314	4.27
525.512	4.33
525.711	4.4
525.909	4.38
526.108	4.41
526.306	4.43
526.505	4.42
526.703	4.42
526.902	4.42
527.1	4.44
527.299	4.47
527.497	4.48
527.696	4.5
527.894	4.49
528.092	4.55
528.291	4.55
528.489	4.55
528.688	4.58
528.886	4.6
529.084	4.62
529.283	4.66
529.481	4.7
529.679	4.72
529.877	4.68
530.076	4.73
530.274	4.67
530.472	4.7
530.67	4.76
530.869	4.83
531.067	4.88
531.265	4.93
531.463	4.91
531.661	4.9
531.859	4.95
532.057	5.03
532.255	5.04
532.454	5.13
532.652	5.13
532.85	5.14
533.048	5.1
533.246	5.15
533.444	5.18
533.642	5.24
533.84	5.27
534.038	5.28
534.236	5.28
534.434	5.34
534.632	5.31
534.83	5.36
535.027	5.4
535.225	5.47
535.423	5.46
535.621	5.49
535.819	5.45
536.017	5.48
536.215	5.52
536.412	5.63
536.61	5.6
536.808	5.66
537.006	5.69
537.203	5.73
537.401	5.76
537.599	5.77
537.797	5.81
537.994	5.97
538.192	5.99
538.39	6.05
538.587	5.95
538.785	5.98
538.983	6
539.18	6.02
539.378	6.01
539.575	6
539.773	6.06
539.97	6.04
540.168	6.04
540.366	6.09
540.563	6.09
540.761	6.13
540.958	6.21
541.155	6.23
541.353	6.29
541.55	6.32
541.748	6.37
541.945	6.42
542.143	6.49
542.34	6.48
542.537	6.53
542.735	6.57
542.932	6.67
543.129	6.7
543.327	6.75
543.524	6.72
543.721	6.82
543.919	6.84
544.116	6.88
544.313	6.91
544.51	7.01
544.708	6.98
544.905	7.06
545.102	7.03
545.299	7.02
545.496	7.06
545.693	7.06
545.891	7.05
546.088	7.08
546.285	7.07
546.482	7.12
546.679	7.14
546.876	7.29
547.073	7.3
547.27	7.39
547.467	7.45
547.664	7.55
547.861	7.62
548.058	7.77
548.255	7.88
548.452	7.96
548.649	7.96
548.846	7.94
549.043	7.86
549.24	7.87
549.437	7.91
549.633	7.96
549.83	7.9
550.027	7.97
550.224	7.86
550.421	7.81
550.618	7.75
550.814	7.83
551.011	7.96
551.208	8.08
551.405	8.1
551.601	8.2
551.798	8.23
551.995	8.32
552.191	8.41
552.388	8.38
552.585	8.58
552.781	8.7
552.978	8.8
553.175	8.89
553.371	8.94
553.568	9.03
553.764	9.09
553.961	9.09
554.157	9.03
554.354	9.12
554.55	9.41
554.747	9.37
554.943	9.38
555.14	9.37
555.336	9.4
555.533	9.45
555.729	9.48
555.926	9.44
556.122	9.53
556.318	9.73
556.515	9.73
556.711	9.6
556.907	9.63
557.104	9.71
557.3	9.65
557.496	9.6
557.693	9.5
557.889	9.5
558.085	9.58
558.281	9.6
558.478	9.57
558.674	9.69
558.87	9.8
559.066	9.84
559.262	9.88
559.459	10.06
559.655	10.11
559.851	10.27
560.047	10.39
560.243	10.39
560.439	10.46
560.635	10.53
560.831	10.5
561.027	10.49
561.223	10.59
561.419	10.68
561.615	10.7
561.811	10.68
562.007	10.69
562.203	10.68
562.399	10.63
562.595	10.65
562.791	10.72
562.987	10.88
563.183	11.04
563.379	11.1
563.575	11.06
563.771	11.13
563.966	11.21
564.162	11.27
564.358	11.3
564.554	11.42
564.75	11.48
564.945	11.51
565.141	11.53
565.337	11.53
565.533	11.54
565.728	11.6
565.924	11.65
566.12	11.77
566.315	11.87
566.511	11.97
566.707	12.02
566.902	12.11
567.098	12.16
567.293	12.17
567.489	12.27
567.684	12.31
567.88	12.39
568.076	12.48
568.271	12.47
568.467	12.53
568.662	12.68
568.858	12.79
569.053	12.83
569.248	12.88
569.444	12.95
569.639	12.83
569.835	12.9
570.03	12.93
570.225	12.89
570.421	12.93
570.616	12.96
570.812	12.99
571.007	13.09
571.202	13.18
571.397	13.19
571.593	13.25
571.788	13.41
571.983	13.53
572.178	13.53
572.374	13.54
572.569	13.61
572.764	13.71
572.959	13.68
573.154	13.64
573.35	13.62
573.545	13.64
573.74	13.68
573.935	13.67
574.13	13.58
574.325	13.7
574.52	13.73
574.715	13.75
574.91	13.74
575.105	13.81
575.3	13.86
575.495	13.86
575.69	13.93
575.885	13.89
576.08	13.93
576.275	14.06
576.47	14.13
576.665	14.29
576.86	14.34
577.055	14.42
577.25	14.41
577.444	14.38
577.639	14.38
577.834	14.36
578.029	14.5
578.224	14.54
578.418	14.66
578.613	14.52
578.808	14.54
579.003	14.56
579.197	14.56
579.392	14.59
579.587	14.62
579.781	14.74
579.976	14.84
580.171	14.78
580.365	14.73
580.56	14.77
580.755	14.88
580.949	14.98
581.144	15.09
581.338	15.01
581.533	14.99
581.727	15.06
581.922	15.21
582.116	15.26
582.311	15.36
582.505	15.46
582.7	15.46
582.894	15.5
583.089	15.48
583.283	15.47
583.478	15.49
583.672	15.6
583.866	15.69
584.061	15.55
584.255	15.54
584.449	15.54
584.644	15.52
584.838	15.3
585.032	15.33
585.226	15.31
585.421	15.24
585.615	15.34
585.809	15.31
586.003	15.38
586.198	15.44
586.392	15.46
586.586	15.53
586.78	15.62
586.974	15.73
587.168	15.77
587.363	15.84
587.557	15.98
587.751	15.95
587.945	15.97
588.139	15.89
588.333	16.01
588.527	16.02
588.721	16.06
588.915	16.11
589.109	16.05
589.303	16.01
589.497	16.06
589.691	15.98
589.885	15.98
590.079	16.17
590.273	16.09
590.466	16.06
590.66	16.12
590.854	16.06
591.048	16.02
591.242	16.18
591.436	16.26
591.629	16.21
591.823	16.3
592.017	16.36
592.211	16.24
592.404	16.34
592.598	16.29
592.792	16.26
592.986	16.36
593.179	16.39
593.373	16.34
593.567	16.47
593.76	16.63
593.954	16.65
594.147	16.76
594.341	16.84
594.535	17.05
594.728	17.09
594.922	17.23
595.115	17.26
595.309	17.29
595.502	17.45
595.696	17.36
595.889	17.26
596.083	17.32
596.276	17.34
596.47	17.32
596.663	17.29
596.856	17.32
597.05	17.37
597.243	17.4
597.437	17.47
597.63	17.57
597.823	17.71
598.017	17.75
598.21	17.67
598.403	17.68
598.596	17.7
598.79	17.59
598.983	17.65
599.176	17.41
599.369	17.38
599.563	17.42
599.756	17.26
599.949	17.18
600.142	17.18
600.335	17.27
600.528	17.31
600.722	17.36
600.915	17.31
601.108	17.25
601.301	17.38
601.494	17.39
601.687	17.4
601.88	17.54
602.073	17.52
602.266	17.61
602.459	17.6
602.652	17.56
602.845	17.64
603.038	17.67
603.231	17.77
603.424	17.71
603.617	17.68
603.809	17.6
604.002	17.46
604.195	17.57
604.388	17.52
604.581	17.52
604.774	17.59
604.966	17.62
605.159	17.72
605.352	17.71
605.545	17.94
605.737	18.03
605.93	18.13
606.123	18.08
606.316	18.02
606.508	18.03
606.701	18.2
606.894	18.25
607.086	18.18
607.279	18.12
607.471	18.08
607.664	18.17
607.857	18.26
608.049	18.43
608.242	18.64
608.434	18.8
608.627	18.93
608.819	19
609.012	19.05
609.204	19.04
609.397	19.17
609.589	19.2
609.782	18.95
609.974	18.96
610.166	18.82
610.359	18.91
610.551	18.93
610.743	18.8
610.936	18.64
611.128	18.64
611.32	18.61
611.513	18.73
611.705	18.8
611.897	18.94
612.09	19
612.282	19.06
612.474	19.06
612.666	19.03
612.858	19.19
613.051	19.42
613.243	19.28
613.435	19.54
613.627	19.35
613.819	19.37
614.011	19.51
614.203	19.19
614.395	19.22
614.588	19.09
614.78	19.06
614.972	18.98
615.164	18.94
615.356	19.09
615.548	19.05
615.74	19.12
615.932	19.21
616.124	19.11
616.315	19.37
616.507	19.39
616.699	19.38
616.891	19.14
617.083	19.18
617.275	19.11
617.467	19.08
617.659	18.98
617.85	18.81
618.042	18.79
618.234	18.81
618.426	18.77
618.618	18.85
618.809	18.85
619.001	19.17
619.193	19.19
619.384	19.06
619.576	19.03
619.768	19.22
619.959	19.5
620.151	19.76
620.343	19.69
620.534	19.67
620.726	19.64
620.917	19.55
621.109	19.65
621.301	19.63
621.492	19.75
621.684	19.74
621.875	19.96
622.067	19.98
622.258	19.74
622.45	19.86
622.641	19.87
622.832	19.79
623.024	19.87
623.215	19.79
623.407	19.68
623.598	19.7
623.789	19.79
623.981	19.53
624.172	19.54
624.363	19.58
624.555	19.59
624.746	19.63
624.937	19.8
625.129	19.7
625.32	19.89
625.511	20.06
625.702	20.17
625.893	20.18
626.085	20.33
626.276	20.33
626.467	20.33
626.658	20.43
626.849	20.31
627.04	20.16
627.231	20.39
627.422	20.25
627.614	20.29
627.805	20.24
627.996	20.38
628.187	20.36
628.378	20.35
628.569	20.41
628.76	20.24
628.951	20.55
629.142	20.63
629.332	20.69
629.523	20.7
629.714	20.53
629.905	20.54
630.096	20.36
630.287	20.32
630.478	20.2
630.669	20.3
630.859	20.39
631.05	20.17
631.241	20.2
631.432	20.06
631.623	20.01
631.813	20.31
632.004	20.3
632.195	20.29
632.385	20.27
632.576	20.47
632.767	20.2
632.957	20.17
633.148	20.21
633.339	20.28
633.529	20.36
633.72	20.44
633.91	20.31
634.101	20.42
634.292	20.41
634.482	20.27
634.673	20.26
634.863	20.52
635.054	20.56
635.244	20.88
635.435	20.8
635.625	20.62
635.815	20.58
636.006	20.67
636.196	20.68
636.387	20.85
636.577	20.98
636.767	20.97
636.958	21.02
637.148	21.07
637.338	21.02
637.529	21.28
637.719	21.4
637.909	21.51
638.099	21.32
638.29	21.22
638.48	21.11
638.67	21.09
638.86	20.98
639.05	20.72
639.241	20.71
639.431	20.62
639.621	20.36
639.811	20.5
640.001	20.42
640.191	20.7
640.381	20.92
640.571	20.97
640.761	21.05
640.951	21.27
641.141	21.43
641.331	21.44
641.521	21.26
641.711	21.27
641.901	21.26
642.091	21.33
642.281	21.25
642.471	21.24
642.661	21.36
642.851	21.24
643.041	21.1
643.231	21.07
643.42	20.94
643.61	20.85
643.8	21.08
643.99	21.25
644.18	21.28
644.369	21.42
644.559	21.42
644.749	21.36
644.939	21.58
645.128	21.64
645.318	21.52
645.508	21.78
645.697	21.98
645.887	21.6
646.076	21.62
646.266	21.54
646.456	21.35
646.645	21.36
646.835	21.3
647.024	21.25
647.214	21.26
647.403	21.52
647.593	21.49
647.782	21.62
647.972	21.78
648.161	21.67
648.351	21.71
648.54	21.8
648.73	21.82
648.919	21.96
649.108	22.01
649.298	21.93
649.487	21.86
649.677	22.19
649.866	21.99
650.055	22.11
650.244	22.12
650.434	22.18
650.623	22.18
650.812	22.12
651.002	22.14
651.191	22.01
651.38	22.09
651.569	22.29
651.758	22.01
651.947	22.4
652.137	22.53
652.326	22.6
652.515	22.45
652.704	22.56
652.893	22.55
653.082	22.44
653.271	22.44
653.46	22.31
653.649	22.25
653.838	22.45
654.027	22.02
654.216	21.89
654.405	21.89
654.594	22.38
654.783	22.22
654.972	22.1
655.161	22.09
655.35	22.22
655.539	22.3
655.728	22.19
655.916	22.06
656.105	22.44
656.294	22.46
656.483	22.45
656.672	22.12
656.86	22.05
657.049	22.13
657.238	22.34
657.427	22.17
657.615	22.45
657.804	22.41
657.993	22.49
658.181	22.44
658.37	22.55
658.559	22.38
658.747	22.56
658.936	22.69
659.125	22.68
659.313	22.45
659.502	22.69
659.69	22.44
659.879	22.51
660.067	22.4
660.256	22.39
660.444	22.42
660.633	22.52
660.821	22.46
661.01	22.56
661.198	22.71
661.387	22.82
661.575	22.81
661.763	22.94
661.952	22.88
662.14	22.84
662.328	22.94
662.517	22.83
662.705	23.08
662.893	22.84
663.082	22.69
663.27	22.53
663.458	22.73
663.646	22.64
663.834	22.58
664.023	22.85
664.211	23.11
664.399	23.04
664.587	22.95
664.775	22.49
664.963	22.96
665.152	23.07
665.34	23.28
665.528	23.29
665.716	23.53
665.904	23.49
666.092	23.43
666.28	23.38
666.468	23.37
666.656	23.55
666.844	23.84
667.032	23.47
667.22	23.77
667.408	23.83
667.596	23.59
667.784	23.29
667.971	23.44
668.159	23.35
668.347	23.18
668.535	23.16
668.723	22.96
668.911	23.03
669.098	23.17
669.286	22.9
669.474	22.82
669.662	22.86
669.849	22.94
670.037	23.12
670.225	23.28
670.413	23.29
670.6	23.52
670.788	23.67
670.976	23.65
671.163	23.46
671.351	23.53
671.538	23.73
671.726	24.05
671.913	24.14
672.101	23.99
672.289	24.08
672.476	24.38
672.664	24.17
672.851	24.08
673.039	24.33
673.226	24.18
673.413	24.02
673.601	23.92
673.788	23.84
673.976	23.71
674.163	23.99
674.35	23.72
674.538	23.76
674.725	23.63
674.912	23.71
675.1	23.6
675.287	24.04
675.474	24.07
675.662	23.85
675.849	23.95
676.036	24.1
676.223	23.86
676.411	24.04
676.598	23.9
676.785	24.26
676.972	24.32
677.159	24.31
677.346	24.36
677.533	24.49
677.721	24.65
677.908	24.51
678.095	24.67
678.282	24.84
678.469	24.69
678.656	24.77
678.843	24.49
679.03	24.66
679.217	24.61
679.404	24.5
679.591	24.43
679.778	24.54
679.964	24.63
680.151	24.64
680.338	24.37
680.525	24.58
680.712	24.3
680.899	24.33
681.086	24.07
681.272	24.24
681.459	24.5
681.646	24.58
681.833	24.47
682.02	24.53
682.206	24.36
682.393	24.27
682.58	24.18
682.766	24.27
682.953	24.46
683.14	24.7
683.326	24.44
683.513	24.3
683.7	24.58
683.886	24.83
684.073	24.65
684.259	24.77
684.446	24.98
684.632	25.19
684.819	25.41
685.005	25.31
685.192	25.26
685.378	25.22
685.565	25.14
685.751	24.65
685.938	24.62
686.124	25.04
686.31	25.13
686.497	25.13
686.683	25.14
686.87	25.08
687.056	25.23
687.242	25.48
687.429	25.67
687.615	25.52
687.801	25.69
687.987	25.5
688.174	25.2
688.36	25.19
688.546	25.33
688.732	25.19
688.918	24.96
689.105	24.92
689.291	24.77
689.477	24.85
689.663	24.78
689.849	24.8
690.035	24.87
690.221	24.89
690.407	24.71
690.593	24.74
690.779	24.7
690.965	24.84
691.151	24.78
691.337	24.49
691.523	24.49
691.709	24.7
691.895	24.79
692.081	24.92
692.267	24.95
692.453	24.95
692.639	25.22
692.825	25.27
693.011	25.44
693.196	25.67
693.382	25.89
693.568	26.03
693.754	25.99
693.94	25.59
694.125	25.49
694.311	25.58
694.497	25.81
694.682	25.21
694.868	25.24
695.054	25.33
695.239	25.15
695.425	25.2
695.611	24.96
695.796	25.22
695.982	25.66
696.168	25.59
696.353	25.71
696.539	25.49
696.724	25.85
696.91	25.61
697.095	25.39
697.281	25.3
697.466	25.28
697.652	25.48
697.837	25.23
698.023	25.19
698.208	25.39
698.393	25.18
698.579	25.1
698.764	25.02
698.949	25.14
699.135	25.36
699.32	25.59
699.505	25.6
699.691	25.45
699.876	25.7
700.061	25.69
700.246	25.18
700.432	25.12
700.617	25.38
700.802	25.37
700.987	25.41
701.172	25.36
701.358	25.04
701.543	25.21
701.728	25.3
701.913	24.83
702.098	24.64
702.283	25.03
702.468	25.42
702.653	25.19
702.838	25.23
703.023	25.27
703.208	25.36
703.393	25.05
703.578	25.05
703.763	25.17
703.948	25.56
704.133	25.73
704.318	25.97
704.503	25.66
704.688	25.74
704.873	25.71
705.057	25.84
705.242	25.73
705.427	26.08
705.612	25.94
705.797	25.61
705.981	25.61
706.166	25.96
706.351	25.8
706.536	25.89
706.72	25.73
706.905	25.56
707.09	25.59
707.274	25.49
707.459	26.01
707.644	26.3
707.828	26.45
708.013	26.31
708.197	25.97
708.382	25.73
708.567	25.51
708.751	25.65
708.936	25.75
709.12	25.62
709.305	25.85
709.489	25.25
709.673	24.83
709.858	24.76
710.042	24.92
710.227	25.21
710.411	25.74
710.596	25.84
710.78	26.12
710.964	26.13
711.149	26.19
711.333	26.2
711.517	26.59
711.702	26.8
711.886	27.02
712.07	27.09
712.254	26.85
712.438	26.66
712.623	26.75
712.807	26.62
712.991	26.93
713.175	26.99
713.359	26.86
713.544	26.77
713.728	26.53
713.912	26.36
714.096	26.34
714.28	26.49
714.464	26.39
714.648	26.57
714.832	26.62
715.016	26.7
715.2	26.32
715.384	26.41
715.568	26.52
715.752	26.92
715.936	26.86
716.12	26.86
716.304	26.96
716.488	27.03
716.671	27.28
716.855	27.17
717.039	26.56
717.223	26.91
717.407	26.81
717.59	26.48
717.774	26.22
717.958	26.45
718.142	26.63
718.325	26.87
718.509	26.97
718.693	26.73
718.877	27.24
719.06	27.29
719.244	27.35
719.428	27.24
719.611	27.41
719.795	27.25
719.978	27.1
720.162	26.8
720.345	25.82
720.529	25.32
720.713	25.05
720.896	24.35
721.08	24.43
721.263	24.35
721.446	24.67
721.63	25.07
721.813	25.31
721.997	25.26
722.18	25.27
722.364	25.79
722.547	26.18
722.73	26.55
722.914	26.72
723.097	26.9
723.28	26.82
723.464	26.79
723.647	26.31
723.83	26.31
724.013	26.19
724.197	26.34
724.38	26.19
724.563	26.67
724.746	26.49
724.929	26.81
725.112	27.23
725.296	27.34
725.479	27.29
725.662	27.44
725.845	27.6
726.028	27.92
726.211	28.21
726.394	28.53
726.577	27.74
726.76	28.03
726.943	27.46
727.126	27.39
727.309	27.14
727.492	26.99
727.675	26.97
727.858	27.16
728.041	26.85
728.224	26.57
728.407	26.4
728.589	26.62
728.772	26.23
728.955	26.55
729.138	26.3
729.321	26.5
729.503	26.41
729.686	26.45
729.869	26.09
730.052	26.27
730.234	26.16
730.417	26.23
730.6	25.81
730.782	25.54
730.965	26.06
731.148	26.02
731.33	26.36
731.513	26.34
731.695	26.68
731.878	26.88
732.061	27.26
732.243	27.75
732.426	27.54
732.608	28.09
732.791	28.12
732.973	27.24
733.156	27.39
733.338	27.04
733.52	27.6
733.703	27.41
733.885	27.29
734.068	26.98
734.25	26.76
734.432	26.91
734.615	27.07
734.797	27.07
734.979	27.8
735.162	27.76
735.344	27.81
735.526	27.2
735.708	27.35
735.891	27.42
736.073	27.31
736.255	27.38
736.437	26.96
736.619	26.32
736.802	26.53
736.984	25.99
737.166	25.77
737.348	25.96
737.53	25.94
737.712	25.69
737.894	25.91
738.076	25.34
738.258	24.87
738.44	25.15
738.622	25.29
738.804	25.68
738.986	26.33
739.168	26.56
739.35	26.18
739.532	26.35
739.714	26.43
739.896	25.95
740.078	26.87
740.259	27.3
740.441	27.23
740.623	27.68
740.805	27.87
740.987	27.29
741.168	27.29
741.35	27.31
741.532	27.68
741.714	27.64
741.895	27.91
742.077	28.04
742.259	27.42
742.44	27.77
742.622	27.99
742.804	27.16
742.985	27.26
743.167	27.6
743.348	27.66
743.53	27.41
743.711	27.24
743.893	27.29
744.075	27.13
744.256	27.39
744.438	27.29
744.619	27.14
744.8	28.01
744.982	28.06
745.163	27.68
745.345	28
745.526	28.14
745.707	28.47
745.889	29
746.07	29.06
746.252	29.23
746.433	29.17
746.614	29.19
746.795	28.1
746.977	28.58
747.158	27.94
747.339	27.74
747.52	27.66
747.702	27.57
747.883	27.6
748.064	27.25
748.245	27.73
748.426	27.75
748.607	26.37
748.788	26.78
748.97	26.71
749.151	27.12
749.332	27.7
749.513	27.34
749.694	27.28
749.875	27.14
750.056	27.79
750.237	27.32
750.418	27.54
750.599	28.36
750.78	28.7
750.96	29.1
751.141	29.53
751.322	29.07
751.503	29.54
751.684	29.43
751.865	29.42
752.046	29.15
752.226	29.61
752.407	29.53
752.588	29.81
752.769	29.63
752.949	28.31
753.13	27.98
753.311	27.72
753.492	27.5
753.672	27.51
753.853	26.83
754.034	26.46
754.214	25.7
754.395	25.85
754.575	25.13
754.756	25.72
754.937	26.15
755.117	26.68
755.298	26.7
755.478	27.17
755.659	27.59
755.839	27.21
756.02	28.01
756.2	28.88
756.381	28.36
756.561	29.31
756.741	28.97
756.922	28.69
757.102	28.14
757.283	28.18
757.463	28.33
757.643	27.63
757.823	28.44
758.004	28.23
758.184	27.49
758.364	27.71
758.545	27.72
758.725	27.88
758.905	28.62
759.085	28.67
759.265	29.23
759.446	29.44
759.626	30.08
759.806	29.9
759.986	29.75
760.166	30.23
760.346	30.51
760.526	30.41
760.706	29.81
760.886	29.33
761.066	29.84
761.246	29.48
761.426	29.3
761.606	29.18
761.786	28.79
761.966	28.89
762.146	29.2
762.326	28.84
762.506	28.73
762.686	29.09
762.866	29.39
763.046	29.21
763.225	29.04
763.405	28.6
763.585	28.37
763.765	28.69
763.945	28.39
764.124	28.29
764.304	28.16
764.484	27.6
764.664	27.56
764.843	27.49
765.023	27.33
765.203	27.26
765.382	27.7
765.562	27.45
765.741	26.98
765.921	26.77
766.101	25.79
766.28	26.13
766.46	26.92
766.639	26.82
766.819	27.26
766.998	27.09
767.178	27.55
767.357	27.12
767.537	27.52
767.716	27.9
767.896	28.44
768.075	28.85
768.254	28.75
768.434	29.2
768.613	28.44
768.792	27.87
768.972	28.31
769.151	28.67
769.33	28.82
769.51	28.75
769.689	28.48
769.868	29.31
770.047	29.32
770.226	29.67
770.406	29.64
770.585	29.77
770.764	29.99
770.943	30.14
771.122	30.01
771.301	30.08
771.48	29.66
771.66	30.49
771.839	29.61
772.018	29.88
772.197	29.51
772.376	28.94
772.555	29.46
772.734	28.87
772.913	28.81
773.092	28.36
773.271	28.9
773.449	29.19
773.628	28.97
773.807	29.63
773.986	30.08
774.165	30.35
774.344	31.5
774.523	31.99
774.701	32.78
774.88	32.02
775.059	31.46
775.238	31.02
775.417	31.58
775.595	31.36
775.774	31.39
775.953	30.25
776.131	29.77
776.31	29.3
776.489	29.28
776.667	29.27
776.846	29.66
777.025	30.44
777.203	30.48
777.382	30.65
777.56	31.7
777.739	30.71
777.917	31.63
778.096	31.91
778.274	32.41
778.453	31.86
778.631	31.79
778.81	31.33
778.988	31.28
779.166	30.95
779.345	31.2
779.523	30.39
779.702	30.6
779.88	29.77
780.058	29.85
780.237	29.79
780.415	29.4
780.593	29.23
780.771	30.06
780.95	30.01
781.128	29.73
781.306	29.64
781.484	29.14
781.662	29.35
781.841	29.8
782.019	29.9
782.197	28.52
782.375	29.65
782.553	29.63
782.731	30.04
782.909	29.63
783.087	30.05
783.265	29.49
783.443	30.02
783.621	29.96
783.799	29.38
783.977	29.17
784.155	29.94
784.333	29.87
784.511	29.82
784.689	29.06
784.867	28.93
785.045	28.54
785.223	28.63
785.4	28.76
785.578	29.1
785.756	31.37
785.934	32.38
786.112	31.25
786.289	31.58
786.467	32.69
786.645	33.37
786.823	34.15
787	33.98
787.178	33.85
787.356	33.74
787.533	32.6
787.711	31.27
787.889	30.77
788.066	32.27
788.244	31.79
788.421	30.26
788.599	29.14
788.776	28.64
788.954	29.21
789.131	29.22
789.309	28.61
789.486	29.99
789.664	29.88
789.841	28.03
790.019	27.01
790.196	27.34
790.373	28.36
790.551	29.38
790.728	29.53
790.906	30
791.083	29.3
791.26	29.66
791.437	28.92
791.615	29.24
791.792	30.91
791.969	30.3
792.146	30.12
792.324	29.61
792.501	29.27
792.678	29.14
792.855	28.69
793.032	29.57
793.209	29.91
793.387	30.03
793.564	30.5
793.741	30.47
793.918	31.14
794.095	31.38
794.272	31.23
794.449	30.6
794.626	30.36
794.803	30.8
794.98	30.63
795.157	29.07
795.334	28.39
795.511	27.76
795.688	28.29
795.864	28.68
796.041	28.37
796.218	28.95
796.395	29.71
796.572	30.3
796.749	30.4
796.925	31.32
797.102	32.77
797.279	33.51
797.456	32.51
797.632	31.69
797.809	30.69
797.986	29.89
798.162	29.21
798.339	28.77
798.516	28.15
798.692	27.21
798.869	26.55
799.046	26.05
799.222	26.24
799.399	27.86
799.575	28.17
799.752	29
799.928	29.16
800.105	28.38
800.281	27.88
800.458	29.01
800.634	29.76
800.811	28.74
800.987	27.86
801.163	27.44
801.34	26.63
801.516	26.84
801.692	27.09
801.869	27.21
802.045	28.05
802.221	29.36
802.398	29.58
802.574	29.08
802.75	29.26
802.926	31.02
803.103	31.08
803.279	31.39
803.455	31.4
803.631	30.89
803.807	31.25
803.983	31.33
804.16	30.72
804.336	29.52
804.512	29.07
804.688	29.63
804.864	29.18
805.04	28.39
805.216	28.18
805.392	28.66
805.568	29.85
805.744	29.81
805.92	29.95
806.096	29.7
806.272	29.73
806.448	29.6
806.623	29.7
806.799	28.7
806.975	29.58
807.151	29.38
807.327	27.9
807.503	26.93
807.678	26.41
807.854	27.35
808.03	27.64
808.206	27.73
808.381	28.56
808.557	28.42
808.733	29.51
808.908	29.99
809.084	30.31
809.26	31.28
809.435	31
809.611	30.8
809.787	30.42
809.962	30.47
810.138	30.44
810.313	30.5
810.489	30.73
810.664	31.24
810.84	30.45
811.015	29.82
811.191	29.03
811.366	28.69
811.542	28.62
811.717	28.26
811.892	28.49
812.068	29.48
812.243	28.69
812.419	29.65
812.594	27.76
812.769	27.46
812.944	27.32
813.12	27.06
813.295	28.09
813.47	28.51
813.645	28.21
813.821	27.46
813.996	26.18
814.171	26.51
814.346	25.4
814.521	26.52
814.697	27.16
814.872	27.9
815.047	28.62
815.222	28.23
815.397	28.57
815.572	28.86
815.747	29.35
815.922	30.44
816.097	31.04
816.272	30.62
816.447	30.07
816.622	30.6
816.797	31.14
816.972	30.87
817.147	30.2
817.322	31.15
817.496	31.06
817.671	30.73
817.846	29.54
818.021	30.46
818.196	31.33
818.371	31.26
818.545	30.78
818.72	32.02
818.895	32.41
819.069	32.76
819.244	31.43
819.419	31.34
819.594	31.44
819.768	32.28
819.943	31.4
820.117	31.06
820.292	30.6
820.467	30.88
820.641	30.29
820.816	30.28
820.99	30.23
821.165	30.69
821.339	30.61
821.514	30.2
821.688	30.08
821.863	30.11
822.037	30.08
822.212	30.41
822.386	30.18
822.56	30.23
822.735	30.42
822.909	30.31
823.084	30.26
823.258	30.24
823.432	30.54
823.606	30.4
823.781	30.22
823.955	30.15
824.129	30.18
824.303	30.34
824.478	30.37
824.652	30.15
824.826	30.29
825	30.18
825.174	30.18
825.348	30.3
825.523	30.19
825.697	30.3
825.871	30.57
826.045	30.05
826.219	30.24
826.393	29.83
826.567	29.38
826.741	29.25
826.915	29.5
827.089	29.6
827.263	29.95
827.437	30.47
827.611	30.62
827.784	30.31
827.958	30.94
828.132	30.46
828.306	30.09
828.48	30.61
828.654	30.65
828.827	30.36
829.001	29.61
829.175	29.15
829.349	28.55
829.522	28.62
829.696	28.52
829.87	28.28
830.044	28.78
830.217	30.07
830.391	30.41
830.565	31.58
830.738	31.38
830.912	32.54
831.085	31.18
831.259	31.44
831.432	31.22
831.606	31.5
831.779	31.63
831.953	30.68
832.126	30.4
832.3	30.53
832.473	30.33
832.647	30.66
832.82	30.64
832.994	31.57
833.167	31.01
833.34	30.91
833.514	30.85
833.687	30.36
833.86	30.75
834.034	29.96
834.207	30.08
834.38	29.67
834.553	28.83
834.727	29.16
834.9	29.29
835.073	29.52
835.246	29.5
835.419	30.05
835.593	30.34
835.766	29.61
835.939	29.93
836.112	29.39
836.285	28.66
836.458	29.12
836.631	27.74
836.804	27.81
836.977	27.91
837.15	27.92
837.323	28.53
837.496	27.58
837.669	29.33
837.842	29.6
838.015	29.56
838.188	31.31
838.361	32.85
838.533	32.91
838.706	32.03
838.879	33.59
839.052	33.61
839.225	30.69
839.398	29.72
839.57	28.96
839.743	28.8
839.916	29.94
840.088	30.78
840.261	28.29
840.434	28.65
840.607	28.87
840.779	28.64
840.952	27.13
841.124	28.92
841.297	31.66
841.47	31.1
841.642	32.98
841.815	30.06
841.987	27.87
842.16	32.29
842.332	34.31
842.505	36.03
842.677	35.05
842.85	35.98
843.022	37.03
843.194	34.42
843.367	35.45
843.539	34.36
843.712	35.34
843.884	34.82
844.056	32.06
844.229	31.19
844.401	28.33
844.573	25.76
844.745	24.07
844.918	23.21
845.09	25.64
845.262	27.11
845.434	25.67
845.606	26.51
845.779	29.43
845.951	26.86
846.123	25.65
846.295	25.45
846.467	27.05
846.639	31.07
846.811	32.51
846.983	34.48
847.155	34.23
847.327	36.88
847.499	36.43
847.671	32.23
847.843	35.27
848.015	37.77
848.187	38.11
848.359	38.36
848.531	34.55
848.703	31.58
848.875	29.76
849.047	28.95
849.218	24.54
849.39	25.51
849.562	28.1
849.734	27.73
849.905	26.56
850.077	24.94
850.249	26.7
850.421	28.99
850.592	31.56
850.764	31.01
850.936	33.98
851.107	35.91
851.279	34.53
851.451	37.34
851.622	39.27
851.794	43.66
851.965	46.16
852.137	47.53
852.308	42.49
852.48	39.85
852.651	39.56
852.823	34.78
852.994	30.46
853.166	29.94
853.337	26.85
853.509	23.62
853.68	20.05
853.851	16.93
854.023	14.57
854.194	19.46
854.365	18.6
854.537	17.78
854.708	20.69
854.879	24.32
855.05	21.82
855.222	22.56
855.393	23.59
855.564	19.73
855.735	20.98
855.906	22.94
856.078	23.7
856.249	28.27
856.42	28.51
856.591	30.11
856.762	31.37
856.933	31.41
857.104	28.28
857.275	26.74
857.446	31.62
857.617	36.2
857.788	39.04
857.959	39.72
858.13	35.32
858.301	37.23
858.472	35.84
858.643	32.11
858.814	37.73
858.985	41.05
859.155	41.66
859.326	41.16
859.497	37.08
859.668	35.9
859.839	35.84
860.009	35.21
860.18	32.71
860.351	33.12
860.522	43.25
860.692	43.23
860.863	39.92
861.034	36.91
861.204	33.68
861.375	31.13
861.546	28.03
861.716	28.17
861.887	27.59
862.057	32.35
862.228	32.31
862.398	28.25
862.569	27.16
862.739	29.78
862.91	37.15
863.08	40.32
863.251	44.99
863.421	43.94
863.592	45.53
863.762	50.71
863.932	48.59
864.103	45.84
864.273	43.05
864.443	39.82
864.614	37.17
864.784	30.27
864.954	29.88
865.125	27.35
865.295	31.07
865.465	31.4
865.635	28.5
865.805	24.84
865.976	27.1
866.146	28
866.316	30.73
866.486	34.27
866.656	41.34
866.826	42.61
866.996	40.64
867.166	37.08
867.336	36.07
867.506	37.2
867.676	41.31
867.846	36.23
868.016	40.41
868.186	37.02
868.356	37.54
868.526	32.49
868.696	33.31
868.866	36.07
869.036	35.5
869.206	35.46
869.376	29.06
869.545	23.02
869.715	26.47
869.885	25.87
870.055	29.07
870.224	26.62
870.394	29.6
870.564	31.39
870.734	29.42
870.903	33.44
871.073	33.24
871.243	35.73
871.412	40.12
871.582	39.06
871.751	33.81
871.921	32.65
872.091	36.39
872.26	30.25
872.43	29.66
872.599	30.12
872.769	30.63
872.938	30.18
873.108	31.86
873.277	31.95
873.446	31.69
873.616	31.52
873.785	35.5
873.955	31.75
874.124	33.46
874.293	31.38
874.463	32.36
874.632	32.37
874.801	31.67
874.971	23.6
875.14	26.27
875.309	27.5
875.478	25.87
875.647	20.07
875.817	20.73
875.986	21.5
876.155	26.18
876.324	29.85
876.493	28.9
876.662	29.33
876.831	37.63
877	33.64
877.17	33.05
877.339	35.47
877.508	41.95
877.677	41.47
877.846	43.24
878.015	39.59
878.184	32.02
878.352	29
878.521	28.7
878.69	22.41
878.859	23.96
879.028	22.5
879.197	24.11
879.366	19.54
879.534	21.29
879.703	24.8
879.872	25.73
880.041	29.91
880.21	30.67
880.378	30.43
880.547	32.02
880.716	31.89
880.884	33.09
881.053	32.76
881.222	33.46
881.39	33.92
881.559	32.51
881.727	32.13
881.896	31.64
882.065	32.19
882.233	32.53
882.402	31.83
882.57	31.88
882.739	31.86
882.907	31.89
883.076	31.55
883.244	30.72
883.412	31.39
883.581	31.14
883.749	31.21
883.918	31.41
884.086	31.06
884.254	31.92
884.423	31.21
884.591	31.18
884.759	31.12
884.927	31.04
885.096	32.6
885.264	31.01
885.432	31.05
885.6	32.08
885.769	30.82
885.937	31.06
886.105	31.12
886.273	32.92
886.441	32.94
886.609	34.75
886.777	36.16
886.945	34.43
887.113	37.87
887.281	36.61
887.449	34.61
887.617	33.61
887.785	35.15
887.953	37.14
888.121	38.11
888.289	35.34
888.457	33.27
888.625	34.6
888.793	36.9
888.961	31.46
889.129	37.64
889.296	41.71
889.464	45.53
889.632	44.28
889.8	41.57
889.967	39.93
890.135	45.76
