Data from 2938495_Reflection_2.txt Node
Date: Wed Jun 17 00:33:38 EDT 2015
User: robert
Spectrometer: USB4E03002
Autoset integration time: false
Trigger mode: 4
Integration Time (sec): 1.000000E-1
Scans to average: 10
Electric dark correction enabled: true
Nonlinearity correction enabled: false
Boxcar width: 5
Stray light correction enabled: false
XAxis mode: Wavelengths
Stop averaging: false
Number of Pixels in Spectrum: 3648
>>>>>Begin Spectral Data<<<<<
177.575	89.9
177.794	136.44
178.014	68.8
178.233	98.93
178.452	160.67
178.672	112.69
178.891	69.88
179.11	-4.42
179.33	18.84
179.549	-41.71
179.768	33.97
179.987	271.16
180.207	189.86
180.426	-602.82
180.645	215.28
180.864	-275.59
181.084	-25.06
181.303	-4.85
181.522	9.11
181.741	1.61
181.96	20.63
182.179	18.33
182.398	20.12
182.618	20.81
182.837	19.35
183.056	38.34
183.275	76.77
183.494	37.6
183.713	57.27
183.932	67.36
184.151	26.75
184.37	-2.49
184.589	16.18
184.808	-43.93
185.027	-45.09
185.246	-308.82
185.465	-242.3
185.684	-1353.7
185.903	747.57
186.122	-627.4
186.341	-218.57
186.56	-242.92
186.779	-530.8
186.998	-385.41
187.216	-1139.76
187.435	-213.44
187.654	-101.33
187.873	-143.24
188.092	-223.54
188.311	-418.63
188.53	-2543.35
188.748	-860.22
188.967	348.22
189.186	500.56
189.405	157.89
189.623	125.55
189.842	80.36
190.061	52.17
190.28	24.21
190.498	46.3
190.717	8.99
190.936	20.09
191.154	21.41
191.373	-1.47
191.592	20.4
191.81	17.36
192.029	-19.41
192.248	207.68
192.466	121.3
192.685	-108.74
192.904	31.43
193.122	-38.26
193.341	-15.83
193.559	-53.04
193.778	-62.51
193.996	12.57
194.215	13.71
194.433	-20.27
194.652	70.2
194.87	-49.82
195.089	126.94
195.307	-23.73
195.526	245.29
195.744	-1132.82
195.963	226.42
196.181	142.69
196.399	115.56
196.618	143.04
196.836	73.09
197.055	24.72
197.273	-115.26
197.491	-460.69
197.71	-279.3
197.928	-211.26
198.146	-237.52
198.365	881.45
198.583	364.04
198.801	369.56
199.019	489.27
199.238	963.98
199.456	308.85
199.674	923.46
199.892	-1986.87
200.111	-222.24
200.329	-101.37
200.547	-84.17
200.765	-43.73
200.983	2.46
201.202	40.08
201.42	67.64
201.638	82.12
201.856	14.89
202.074	46.93
202.292	40.07
202.51	9.52
202.728	-28.2
202.946	-46.06
203.165	-98.46
203.383	5650
203.601	383.97
203.819	883.33
204.037	894.58
204.255	177.67
204.473	216.24
204.691	101.4
204.909	91.22
205.127	83.11
205.345	72.52
205.562	59.07
205.78	19.34
205.998	57.18
206.216	23.23
206.434	-456.44
206.652	-34.15
206.87	-9.58
207.088	-16.42
207.306	13.79
207.523	20.13
207.741	13.18
207.959	17.84
208.177	2.09
208.395	-15.23
208.612	-37.4
208.83	-70.16
209.048	-63.71
209.266	-93.06
209.483	-108.17
209.701	-93.4
209.919	-48.25
210.136	-77.45
210.354	-161.35
210.572	-172.54
210.79	-265.24
211.007	-124.92
211.225	-126.63
211.442	-79.47
211.66	-70.72
211.878	-53.25
212.095	-22.63
212.313	-8.06
212.53	15.5
212.748	4.88
212.966	26.41
213.183	28.2
213.401	10.56
213.618	-3.34
213.836	3.62
214.053	13.63
214.271	12.22
214.488	-17.18
214.705	-46.62
214.923	-59.66
215.14	-7.18
215.358	-15.61
215.575	-3.41
215.793	5.78
216.01	12.16
216.227	1.7
216.445	5.43
216.662	-6.79
216.879	2.08
217.097	-22.42
217.314	-58.85
217.531	-61.98
217.749	-55.27
217.966	-49.98
218.183	-48.12
218.4	-42.69
218.618	-22.31
218.835	-31.44
219.052	-5.22
219.269	-6.71
219.487	16.54
219.704	28.15
219.921	23.83
220.138	24.2
220.355	22.06
220.572	22.16
220.79	27.97
221.007	11.43
221.224	14.08
221.441	9.27
221.658	7.88
221.875	2.08
222.092	0.54
222.309	10.8
222.526	4.95
222.743	5.56
222.96	5.78
223.177	2.81
223.394	10.72
223.611	12.07
223.828	9.41
224.045	14.96
224.262	17.53
224.479	14.53
224.696	12.65
224.913	12.62
225.13	9.84
225.347	14.72
225.564	14.01
225.781	9.33
225.997	9.18
226.214	9.78
226.431	6.41
226.648	6.78
226.865	7.13
227.082	7.07
227.298	8.58
227.515	10.32
227.732	10.32
227.949	10.15
228.165	9.79
228.382	10.18
228.599	10.52
228.816	13.01
229.032	12.75
229.249	13.96
229.466	13.56
229.682	11.73
229.899	10.46
230.116	11.53
230.332	12.02
230.549	13.73
230.765	14.96
230.982	15.09
231.199	14.13
231.415	14.38
231.632	12.49
231.848	12.82
232.065	14.03
232.281	15.01
232.498	10.69
232.714	13.15
232.931	12.72
233.147	12.45
233.364	10.83
233.58	9.21
233.797	7.91
234.013	10.28
234.23	9.84
234.446	12.67
234.662	12.75
234.879	15.38
235.095	15.31
235.312	13.34
235.528	11.77
235.744	11.46
235.961	13.18
236.177	13.91
236.393	9.95
236.61	9.7
236.826	7.24
237.042	8.72
237.258	5.62
237.475	4.1
237.691	5.87
237.907	6.41
238.123	9.79
238.339	10.45
238.556	11.59
238.772	12.76
238.988	13.18
239.204	13.79
239.42	11.94
239.636	12.84
239.853	12.83
240.069	14.14
240.285	14.13
240.501	12.96
240.717	12.08
240.933	12.43
241.149	12.97
241.365	12.26
241.581	11.88
241.797	12.9
242.013	12.85
242.229	12.75
242.445	11.55
242.661	10.99
242.877	11.13
243.093	11.13
243.309	9.7
243.525	10.48
243.741	11.64
243.957	11.42
244.173	10.63
244.388	10.82
244.604	10.93
244.82	11.11
245.036	10.65
245.252	10.39
245.468	10.39
245.683	10.29
245.899	9.82
246.115	9.48
246.331	10.12
246.547	9.99
246.762	9.89
246.978	9.74
247.194	9.8
247.409	10.23
247.625	10.43
247.841	10.1
248.057	10.35
248.272	10.1
248.488	9.56
248.703	8.57
248.919	8.16
249.135	8.17
249.35	7.73
249.566	7.51
249.782	7.64
249.997	7.33
250.213	6.82
250.428	7.32
250.644	7.21
250.859	8.08
251.075	6.93
251.29	7.02
251.506	6.65
251.721	7.02
251.937	6.88
252.152	6.01
252.368	6.71
252.583	6.79
252.798	6.21
253.014	6.22
253.229	5.9
253.445	6.83
253.66	7.93
253.875	9.02
254.091	7.91
254.306	8.34
254.521	9.12
254.737	8.26
254.952	8.68
255.167	8.4
255.383	8.8
255.598	9.05
255.813	8.85
256.028	7.78
256.244	6.99
256.459	7.61
256.674	6.96
256.889	6.42
257.104	6.03
257.32	6.68
257.535	6.67
257.75	6.37
257.965	6.06
258.18	6.14
258.395	6.54
258.61	6.59
258.826	6.26
259.041	6.08
259.256	6.47
259.471	6.57
259.686	6.41
259.901	6.9
260.116	7.09
260.331	7.12
260.546	6.9
260.761	6.68
260.976	6.46
261.191	7.08
261.406	7.36
261.621	7.4
261.836	7.81
262.05	7.6
262.265	6.81
262.48	6.28
262.695	6.36
262.91	6.43
263.125	5.89
263.34	6.36
263.555	6.35
263.769	6.79
263.984	6.22
264.199	5.82
264.414	6.53
264.629	6.91
264.843	7.2
265.058	7.41
265.273	7.62
265.488	7.98
265.702	8.13
265.917	8.39
266.132	8.41
266.346	8.72
266.561	8.4
266.776	7.57
266.99	7.65
267.205	7.49
267.42	7.29
267.634	7.23
267.849	7.48
268.063	7.38
268.278	7.04
268.492	7
268.707	6.36
268.922	7.17
269.136	7.36
269.351	6.62
269.565	6.85
269.78	7.09
269.994	6.69
270.209	6.16
270.423	6.21
270.637	6.32
270.852	6.29
271.066	6.36
271.281	6
271.495	5.91
271.709	6.2
271.924	6.34
272.138	6.04
272.353	6.24
272.567	6.32
272.781	6.31
272.996	6.15
273.21	5.48
273.424	5.84
273.638	5.98
273.853	5.92
274.067	5.07
274.281	4.55
274.495	4.78
274.71	4.69
274.924	4.38
275.138	4.16
275.352	4.24
275.566	5.65
275.781	5.57
275.995	4.86
276.209	5.97
276.423	6.16
276.637	6.54
276.851	6.06
277.065	7.18
277.279	7.14
277.493	7.27
277.707	6.96
277.921	6.31
278.135	6.43
278.349	7.55
278.563	6.85
278.777	7.04
278.991	6.69
279.205	6.9
279.419	6.2
279.633	6.67
279.847	6.84
280.061	7.2
280.275	7.22
280.489	6.97
280.703	6.62
280.917	6.66
281.131	7.03
281.344	7.35
281.558	7.5
281.772	7.83
281.986	7.72
282.2	7.57
282.414	7.47
282.627	7.35
282.841	7.6
283.055	7.46
283.269	7.45
283.482	7.5
283.696	7.25
283.91	7.35
284.123	6.92
284.337	6.94
284.551	6.55
284.764	6.71
284.978	6.94
285.192	6.36
285.405	6.58
285.619	6.58
285.833	6.72
286.046	6.86
286.26	6.69
286.473	7.29
286.687	7.49
286.9	7.84
287.114	7.55
287.327	7.55
287.541	8.03
287.754	7.78
287.968	7.79
288.181	7.57
288.395	7.68
288.608	8.15
288.822	7.95
289.035	7.95
289.248	8.09
289.462	8.56
289.675	8.7
289.889	8.88
290.102	9.27
290.315	9.02
290.529	9.06
290.742	8.57
290.955	7.78
291.169	7.89
291.382	8.17
291.595	8.03
291.808	7.92
292.022	7.81
292.235	8.11
292.448	8.13
292.661	8.13
292.875	8.35
293.088	8.83
293.301	9.3
293.514	9.05
293.727	8.72
293.94	9.02
294.153	8.79
294.367	8.51
294.58	8.4
294.793	7.97
295.006	8.1
295.219	7.81
295.432	7.85
295.645	7.82
295.858	7.93
296.071	7.96
296.284	7.78
296.497	7.94
296.71	7.82
296.923	7.75
297.136	8.09
297.349	8.25
297.562	8.41
297.775	8.28
297.988	8.28
298.201	8.18
298.414	7.95
298.626	7.86
298.839	7.37
299.052	7.97
299.265	7.86
299.478	7.47
299.691	7.31
299.903	7.48
300.116	7.11
300.329	6.92
300.542	7.21
300.755	7.5
300.967	7.37
301.18	7.55
301.393	7.38
301.605	7.52
301.818	7.31
302.031	7.5
302.243	7.24
302.456	7.56
302.669	8.04
302.881	7.56
303.094	7.68
303.307	8.04
303.519	8.14
303.732	8.36
303.944	8.26
304.157	8.08
304.37	7.82
304.582	7.9
304.795	8.22
305.007	8.21
305.22	8.53
305.432	8.45
305.645	8.28
305.857	8.19
306.069	7.88
306.282	7.88
306.494	9.14
306.707	9.31
306.919	9.13
307.132	8.96
307.344	8.88
307.556	9.05
307.769	8.94
307.981	8.72
308.193	8.79
308.406	8.9
308.618	8.94
308.83	8.77
309.043	9.1
309.255	9.13
309.467	9.09
309.679	9.2
309.892	8.67
310.104	8.9
310.316	9.42
310.528	9.58
310.74	9.13
310.953	9.23
311.165	9.1
311.377	8.53
311.589	8.4
311.801	8.37
312.013	8.21
312.225	8.75
312.437	8.51
312.649	8.4
312.862	8.04
313.074	8.78
313.286	8.73
313.498	8.65
313.71	8.69
313.922	9.32
314.134	9.58
314.346	9.42
314.558	9.05
314.77	9.52
314.982	9.13
315.193	9.24
315.405	9.14
315.617	8.77
315.829	8.63
316.041	8.51
316.253	8.62
316.465	8.4
316.677	8.3
316.888	8.62
317.1	8.29
317.312	8.3
317.524	8.65
317.736	8.11
317.947	8.5
318.159	8.97
318.371	8.83
318.583	7.82
318.794	7.61
319.006	7.69
319.218	7.49
319.43	7.65
319.641	7.94
319.853	8.29
320.064	8.61
320.276	8.8
320.488	8.48
320.699	9.36
320.911	9.97
321.123	10.13
321.334	9.88
321.546	10.16
321.757	9.32
321.969	8.99
322.18	8.45
322.392	8.87
322.603	8.26
322.815	8.21
323.026	7.71
323.238	7.72
323.449	7.81
323.661	8.14
323.872	7.95
324.083	8.3
324.295	8.05
324.506	8.15
324.718	7.86
324.929	8.18
325.14	8.13
325.352	8.7
325.563	8.62
325.774	8.62
325.986	8.37
326.197	8.79
326.408	8.71
326.62	9.03
326.831	9.01
327.042	9.07
327.253	8.99
327.464	8.9
327.676	8.92
327.887	8.37
328.098	8.04
328.309	8.35
328.52	7.69
328.732	8.11
328.943	7.87
329.154	7.58
329.365	7.5
329.576	7.43
329.787	7.87
329.998	7.62
330.209	8.39
330.42	8.43
330.631	8.53
330.842	8.65
331.053	9.01
331.264	9.06
331.475	9.31
331.686	9.19
331.897	9.1
332.108	8.98
332.319	8.79
332.53	8.62
332.741	8.46
332.952	8.38
333.163	8.76
333.374	8.38
333.585	8.28
333.795	8.29
334.006	7.95
334.217	8.27
334.428	8.03
334.639	7.88
334.849	7.79
335.06	7.82
335.271	7.97
335.482	7.8
335.692	7.66
335.903	7.81
336.114	7.84
336.325	8.31
336.535	7.87
336.746	8.03
336.957	8.27
337.167	8.4
337.378	8.65
337.589	8.39
337.799	8.1
338.01	8.14
338.22	7.84
338.431	8.04
338.642	7.73
338.852	7.92
339.063	8.21
339.273	7.9
339.484	7.5
339.694	7.58
339.905	7.55
340.115	7.39
340.326	7.37
340.536	7.91
340.746	7.45
340.957	7.43
341.167	7.55
341.378	7.09
341.588	7.17
341.799	7.36
342.009	7.22
342.219	7.13
342.43	7.32
342.64	7.42
342.85	7
343.061	7.33
343.271	7.32
343.481	7.38
343.691	7.12
343.902	6.8
344.112	6.62
344.322	6.6
344.532	7.13
344.743	7.22
344.953	7.1
345.163	7.35
345.373	7.38
345.583	7.21
345.793	7.1
346.004	7.56
346.214	8.18
346.424	8.33
346.634	8.69
346.844	8.14
347.054	7.96
347.264	8.03
347.474	7.7
347.684	7.51
347.894	7.89
348.104	7.95
348.314	7.59
348.524	7.34
348.734	7.43
348.944	7.22
349.154	7.24
349.364	7.54
349.574	7.43
349.784	7.54
349.994	7.5
350.204	7.18
350.413	7.1
350.623	7.25
350.833	7.1
351.043	7.03
351.253	6.88
351.463	6.65
351.672	6.29
351.882	6.4
352.092	6.37
352.302	6.36
352.511	6.61
352.721	6.48
352.931	6.4
353.141	6.46
353.35	6.65
353.56	6.53
353.77	6.78
353.979	7
354.189	6.98
354.399	7.13
354.608	7.09
354.818	7.03
355.027	7.12
355.237	7.09
355.447	7.11
355.656	6.91
355.866	7.01
356.075	6.84
356.285	6.77
356.494	6.66
356.704	6.58
356.913	6.39
357.123	6.34
357.332	6.42
357.542	6.63
357.751	6.55
357.96	6.61
358.17	6.63
358.379	6.7
358.589	6.53
358.798	6.32
359.007	6.29
359.217	6.6
359.426	6.54
359.635	6.39
359.845	6.14
360.054	6.33
360.263	6.26
360.472	6.21
360.682	6.18
360.891	6.12
361.1	6.3
361.309	6.23
361.519	5.99
361.728	6
361.937	6.01
362.146	6.02
362.355	5.75
362.564	5.58
362.774	5.59
362.983	5.72
363.192	5.95
363.401	5.77
363.61	5.92
363.819	5.91
364.028	5.93
364.237	5.93
364.446	5.86
364.655	5.88
364.864	5.97
365.073	5.94
365.282	5.9
365.491	5.82
365.7	6.07
365.909	5.99
366.118	5.96
366.327	6.01
366.536	6.02
366.745	5.85
366.954	5.73
367.162	5.7
367.371	5.67
367.58	5.62
367.789	5.33
367.998	5.14
368.207	4.98
368.415	4.78
368.624	4.81
368.833	4.78
369.042	5.13
369.25	5.09
369.459	5.14
369.668	5.08
369.877	4.96
370.085	4.98
370.294	5.23
370.503	5.36
370.711	5.68
370.92	5.68
371.129	5.54
371.337	5.36
371.546	5.4
371.754	5.58
371.963	5.62
372.171	5.64
372.38	5.83
372.589	5.7
372.797	5.28
373.006	5.28
373.214	5.35
373.423	5.75
373.631	5.71
373.84	5.71
374.048	5.72
374.256	5.52
374.465	5.64
374.673	5.58
374.882	5.44
375.09	5.81
375.298	5.61
375.507	5.54
375.715	5.31
375.923	5.5
376.132	5.51
376.34	5.28
376.548	5.41
376.757	5.29
376.965	5.44
377.173	5.66
377.381	5.55
377.59	5.58
377.798	5.42
378.006	5.33
378.214	5.32
378.423	5.53
378.631	5.36
378.839	5.2
379.047	5.14
379.255	5.27
379.463	5.08
379.671	5.24
379.879	5.12
380.088	5.12
380.296	5.14
380.504	4.8
380.712	4.74
380.92	4.99
381.128	5.08
381.336	4.99
381.544	4.58
381.752	4.33
381.96	4.2
382.168	4.23
382.376	4.37
382.584	4.45
382.791	4.69
382.999	4.62
383.207	4.47
383.415	4.56
383.623	4.61
383.831	4.81
384.039	5.02
384.247	4.88
384.454	4.86
384.662	4.78
384.87	4.69
385.078	4.68
385.285	4.59
385.493	4.71
385.701	4.68
385.909	4.81
386.116	4.57
386.324	4.65
386.532	4.81
386.739	4.94
386.947	4.87
387.155	4.86
387.362	4.74
387.57	4.91
387.778	4.75
387.985	4.71
388.193	4.6
388.4	4.79
388.608	4.59
388.816	4.68
389.023	4.69
389.231	4.63
389.438	4.7
389.646	4.67
389.853	4.64
390.061	4.8
390.268	4.75
390.475	4.71
390.683	4.66
390.89	4.56
391.098	4.58
391.305	4.58
391.512	4.45
391.72	4.42
391.927	4.5
392.135	4.41
392.342	4.47
392.549	4.6
392.756	4.59
392.964	4.74
393.171	4.9
393.378	4.62
393.586	4.59
393.793	4.79
394	4.92
394.207	5.02
394.414	5.01
394.622	4.83
394.829	4.87
395.036	4.83
395.243	4.53
395.45	4.46
395.657	4.42
395.864	4.49
396.072	4.37
396.279	4.03
396.486	3.95
396.693	3.85
396.9	3.92
397.107	3.92
397.314	4.05
397.521	4.29
397.728	4.26
397.935	4.65
398.142	4.6
398.349	4.73
398.556	4.92
398.763	4.93
398.97	5.04
399.177	4.99
399.383	4.88
399.59	4.84
399.797	4.91
400.004	4.98
400.211	4.77
400.418	4.82
400.625	4.88
400.831	4.98
401.038	4.87
401.245	4.79
401.452	4.72
401.658	4.62
401.865	4.38
402.072	4.3
402.279	4.22
402.485	4.16
402.692	4.13
402.899	3.91
403.105	3.83
403.312	3.85
403.519	3.86
403.725	3.9
403.932	4
404.138	4.29
404.345	4.23
404.552	4.3
404.758	4.24
404.965	4.24
405.171	4.28
405.378	4.39
405.584	4.37
405.791	4.26
405.997	4.22
406.204	4.13
406.41	3.98
406.617	3.97
406.823	4
407.029	4.15
407.236	4.02
407.442	3.82
407.649	3.54
407.855	3.51
408.061	3.55
408.268	3.64
408.474	3.43
408.68	3.56
408.887	3.6
409.093	3.54
409.299	3.38
409.505	3.54
409.712	3.95
409.918	4.07
410.124	4.01
410.33	4.1
410.537	4.16
410.743	4.36
410.949	4.02
411.155	3.96
411.361	3.98
411.567	4.19
411.773	3.9
411.98	3.71
412.186	3.73
412.392	3.68
412.598	3.74
412.804	3.69
413.01	3.83
413.216	4.14
413.422	4.05
413.628	4
413.834	3.9
414.04	4.03
414.246	4.1
414.452	3.97
414.658	4.09
414.864	4.07
415.07	4.09
415.275	3.9
415.481	3.87
415.687	3.96
415.893	3.95
416.099	3.98
416.305	3.91
416.511	3.92
416.716	3.94
416.922	4.04
417.128	3.93
417.334	3.91
417.539	3.93
417.745	3.91
417.951	3.84
418.157	3.89
418.362	3.9
418.568	3.98
418.774	3.97
418.979	4.02
419.185	3.92
419.391	3.95
419.596	3.97
419.802	3.92
420.008	3.93
420.213	3.35
420.419	3.32
420.624	3.21
420.83	3.14
421.035	3.05
421.241	2.99
421.446	3.05
421.652	3.08
421.857	3.03
422.063	3.13
422.268	3.11
422.474	3.68
422.679	3.68
422.885	3.73
423.09	3.8
423.295	3.91
423.501	3.9
423.706	3.86
423.911	3.85
424.117	3.85
424.322	3.75
424.527	3.73
424.733	3.7
424.938	3.69
425.143	3.59
425.349	3.58
425.554	3.46
425.759	3.43
425.964	3.39
426.169	3.43
426.375	3.41
426.58	3.38
426.785	3.29
426.99	3.33
427.195	3.31
427.4	3.49
427.605	3.47
427.811	3.47
428.016	3.48
428.221	3.53
428.426	3.5
428.631	3.62
428.836	3.64
429.041	3.67
429.246	3.7
429.451	3.68
429.656	3.52
429.861	3.5
430.066	3.48
430.271	3.57
430.476	3.51
430.681	3.45
430.886	3.33
431.09	3.38
431.295	3.5
431.5	3.43
431.705	3.49
431.91	3.51
432.115	3.46
432.32	3.5
432.524	3.36
432.729	3.35
432.934	3.3
433.139	3.31
433.343	3.36
433.548	3.31
433.753	3.33
433.958	3.23
434.162	3.37
434.367	3.43
434.572	3.35
434.776	3.4
434.981	3.38
435.186	3.51
435.39	3.55
435.595	3.51
435.799	3.52
436.004	3.45
436.209	3.5
436.413	3.35
436.618	3.29
436.822	3.36
437.027	3.34
437.231	3.34
437.436	3.31
437.64	3.26
437.845	3.26
438.049	3.21
438.253	3.33
438.458	3.34
438.662	3.46
438.867	3.49
439.071	3.46
439.275	3.52
439.48	3.53
439.684	3.46
439.888	3.49
440.093	3.54
440.297	3.61
440.501	3.59
440.706	3.62
440.91	3.56
441.114	3.53
441.318	3.44
441.523	3.43
441.727	3.45
441.931	3.48
442.135	3.51
442.339	3.47
442.543	3.43
442.748	3.39
442.952	3.39
443.156	3.39
443.36	3.37
443.564	3.39
443.768	3.4
443.972	3.39
444.176	3.29
444.38	3.26
444.584	3.3
444.788	3.24
444.992	3.21
445.196	3.21
445.4	3.22
445.604	3.19
445.808	3.29
446.012	3.28
446.216	3.16
446.42	3.23
446.624	3.26
446.828	3.18
447.032	3.2
447.235	3.3
447.439	3.2
447.643	3.2
447.847	3.21
448.051	3.18
448.254	3.19
448.458	3.31
448.662	3.33
448.866	3.25
449.069	3.2
449.273	3.17
449.477	3.11
449.681	3.16
449.884	3.18
450.088	3.29
450.292	3.06
450.495	3.03
450.699	2.98
450.902	2.95
451.106	3.02
451.31	3.13
451.513	3.2
451.717	3.25
451.92	3.32
452.124	3.32
452.327	3.27
452.531	3.42
452.734	3.43
452.938	3.57
453.141	3.52
453.345	3.51
453.548	3.49
453.752	3.44
453.955	3.28
454.158	3.18
454.362	2.99
454.565	3
454.769	3.15
454.972	3.01
455.175	2.97
455.379	3.1
455.582	2.92
455.785	2.89
455.988	2.87
456.192	2.92
456.395	2.96
456.598	3.08
456.801	3.16
457.005	2.99
457.208	3.08
457.411	3.02
457.614	3.01
457.817	3.17
458.021	3.16
458.224	3.19
458.427	3.22
458.63	3.24
458.833	3.21
459.036	3.15
459.239	3.21
459.442	3.21
459.645	3.25
459.848	3.25
460.051	3.2
460.254	3.1
460.457	3.12
460.66	3.13
460.863	3.03
461.066	3.03
461.269	2.98
461.472	3.02
461.675	3.09
461.878	3.07
462.081	3
462.284	3.02
462.486	3.16
462.689	3.14
462.892	3.05
463.095	3.08
463.298	3.01
463.5	3.01
463.703	2.92
463.906	2.81
464.109	2.77
464.311	2.85
464.514	2.84
464.717	2.82
464.92	2.79
465.122	2.86
465.325	2.88
465.528	2.92
465.73	2.99
465.933	2.99
466.135	2.95
466.338	3.02
466.541	2.93
466.743	2.93
466.946	2.98
467.148	3
467.351	3.02
467.553	2.92
467.756	3
467.958	3
468.161	2.99
468.363	3.1
468.566	3.02
468.768	2.99
468.971	3.01
469.173	2.98
469.375	2.98
469.578	2.96
469.78	3.04
469.983	2.95
470.185	2.92
470.387	2.87
470.59	2.77
470.792	2.91
470.994	2.85
471.196	2.73
471.399	2.79
471.601	2.81
471.803	2.79
472.005	2.85
472.208	2.94
472.41	3.01
472.612	3.05
472.814	3.12
473.016	3.02
473.218	3.22
473.421	3.25
473.623	3.17
473.825	3.21
474.027	3.18
474.229	3.25
474.431	3.25
474.633	3.13
474.835	3.19
475.037	3.25
475.239	3.31
475.441	3.24
475.643	3.31
475.845	3.4
476.047	3.38
476.249	3.34
476.451	3.23
476.653	3.25
476.855	3.27
477.057	3.22
477.258	3.12
477.46	3.08
477.662	3.16
477.864	3.1
478.066	3.04
478.268	2.98
478.469	3.08
478.671	3.12
478.873	3.07
479.075	3.1
479.276	3.11
479.478	3.16
479.68	3.11
479.882	3.05
480.083	3.07
480.285	3.07
480.487	3.04
480.688	3
480.89	3.06
481.091	3.07
481.293	3.08
481.495	3.12
481.696	3.1
481.898	3.1
482.099	3.1
482.301	3.1
482.502	3.08
482.704	3.12
482.905	3.1
483.107	3.09
483.308	3.11
483.51	3.12
483.711	3.1
483.913	3.11
484.114	3.16
484.315	3.17
484.517	3.18
484.718	3.19
484.92	3.17
485.121	3.21
485.322	3.19
485.524	3.19
485.725	3.2
485.926	3.21
486.127	3.21
486.329	3.17
486.53	3.16
486.731	3.14
486.932	3.16
487.134	3.16
487.335	3.17
487.536	3.16
487.737	3.1
487.938	3.06
488.139	3.05
488.341	3.05
488.542	3.07
488.743	3.03
488.944	3.05
489.145	3.08
489.346	3.09
489.547	3.09
489.748	3.11
489.949	3.15
490.15	3.13
490.351	3.14
490.552	3.12
490.753	3.09
490.954	3.15
491.155	3.14
491.356	3.14
491.557	3.13
491.758	3.13
491.959	3.08
492.159	3.14
492.36	3.15
492.561	3.09
492.762	3.11
492.963	3.13
493.164	3.1
493.364	3.06
493.565	3.05
493.766	3.01
493.967	3.04
494.167	3.09
494.368	2.96
494.569	3.01
494.769	3.01
494.97	3.06
495.171	3.07
495.371	3.05
495.572	3.13
495.773	3.13
495.973	3.11
496.174	3.12
496.375	3.16
496.575	3.13
496.776	3.19
496.976	3.14
497.177	3.13
497.377	3.12
497.578	3.15
497.778	3.1
497.979	3.07
498.179	3.12
498.38	3.15
498.58	3.15
498.78	3.18
498.981	3.08
499.181	3.18
499.382	3.28
499.582	3.3
499.782	3.35
499.983	3.29
500.183	3.29
500.383	3.28
500.584	3.19
500.784	3.15
500.984	3.19
501.184	3.27
501.385	3.25
501.585	3.18
501.785	3.2
501.985	3.23
502.185	3.28
502.386	3.33
502.586	3.36
502.786	3.45
502.986	3.45
503.186	3.5
503.386	3.44
503.586	3.4
503.786	3.39
503.987	3.33
504.187	3.23
504.387	3.29
504.587	3.24
504.787	3.19
504.987	3.21
505.187	3.22
505.387	3.23
505.587	3.28
505.786	3.33
505.986	3.32
506.186	3.5
506.386	3.53
506.586	3.52
506.786	3.58
506.986	3.61
507.186	3.57
507.386	3.51
507.585	3.52
507.785	3.56
507.985	3.56
508.185	3.56
508.384	3.45
508.584	3.44
508.784	3.4
508.984	3.35
509.183	3.4
509.383	3.36
509.583	3.35
509.782	3.38
509.982	3.34
510.182	3.3
510.381	3.27
510.581	3.21
510.781	3.2
510.98	3.21
511.18	3.19
511.379	3.18
511.579	3.24
511.778	3.31
511.978	3.3
512.177	3.31
512.377	3.36
512.576	3.44
512.776	3.52
512.975	3.56
513.175	3.64
513.374	3.67
513.573	3.68
513.773	3.64
513.972	3.62
514.172	3.65
514.371	3.6
514.57	3.6
514.77	3.5
514.969	3.5
515.168	3.48
515.367	3.48
515.567	3.57
515.766	3.53
515.965	3.58
516.164	3.7
516.364	3.6
516.563	3.66
516.762	3.66
516.961	3.66
517.16	3.65
517.359	3.64
517.559	3.59
517.758	3.6
517.957	3.59
518.156	3.6
518.355	3.57
518.554	3.57
518.753	3.48
518.952	3.49
519.151	3.53
519.35	3.58
519.549	3.64
519.748	3.67
519.947	3.68
520.146	3.71
520.345	3.68
520.544	3.62
520.743	3.68
520.942	3.74
521.141	3.71
521.339	3.73
521.538	3.69
521.737	3.67
521.936	3.75
522.135	3.7
522.333	3.73
522.532	3.79
522.731	3.82
522.93	3.8
523.129	3.83
523.327	3.92
523.526	3.92
523.725	3.95
523.923	3.94
524.122	3.9
524.321	3.88
524.519	3.87
524.718	3.82
524.917	3.82
525.115	3.81
525.314	3.81
525.512	3.82
525.711	3.81
525.909	3.83
526.108	3.89
526.306	3.88
526.505	3.91
526.703	3.94
526.902	3.95
527.1	3.95
527.299	3.96
527.497	3.97
527.696	4
527.894	4
528.092	3.99
528.291	3.98
528.489	3.99
528.688	4.03
528.886	4
529.084	3.99
529.283	3.99
529.481	4.02
529.679	4.04
529.877	4.02
530.076	4
530.274	4.01
530.472	4.08
530.67	4.1
530.869	4.07
531.067	4.1
531.265	4.16
531.463	4.19
531.661	4.24
531.859	4.24
532.057	4.2
532.255	4.25
532.454	4.27
532.652	4.25
532.85	4.23
533.048	4.24
533.246	4.26
533.444	4.24
533.642	4.27
533.84	4.24
534.038	4.3
534.236	4.38
534.434	4.41
534.632	4.45
534.83	4.45
535.027	4.53
535.225	4.57
535.423	4.61
535.621	4.71
535.819	4.69
536.017	4.7
536.215	4.63
536.412	4.59
536.61	4.55
536.808	4.51
537.006	4.49
537.203	4.45
537.401	4.44
537.599	4.42
537.797	4.36
537.994	4.4
538.192	4.44
538.39	4.49
538.587	4.57
538.785	4.61
538.983	4.65
539.18	4.74
539.378	4.76
539.575	4.77
539.773	4.85
539.97	4.86
540.168	4.91
540.366	4.94
540.563	4.95
540.761	4.96
540.958	4.98
541.155	4.99
541.353	4.95
541.55	5.01
541.748	5.03
541.945	5
542.143	5.05
542.34	4.96
542.537	4.97
542.735	5.04
542.932	5.03
543.129	5.09
543.327	5.12
543.524	5.15
543.721	5.15
543.919	5.18
544.116	5.16
544.313	5.23
544.51	5.37
544.708	5.4
544.905	5.45
545.102	5.57
545.299	5.57
545.496	5.6
545.693	5.69
545.891	5.74
546.088	5.79
546.285	5.85
546.482	5.7
546.679	5.72
546.876	5.72
547.073	5.71
547.27	5.62
547.467	5.64
547.664	5.67
547.861	5.62
548.058	5.65
548.255	5.73
548.452	5.84
548.649	6.07
548.846	6.05
549.043	6.01
549.24	5.99
549.437	6.16
549.633	6.16
549.83	6.15
550.027	6.15
550.224	6.13
550.421	6.11
550.618	6.11
550.814	6.2
551.011	6.23
551.208	6.32
551.405	6.53
551.601	6.5
551.798	6.56
551.995	6.65
552.191	6.74
552.388	6.68
552.585	6.76
552.781	6.75
552.978	6.77
553.175	6.85
553.371	6.88
553.568	6.76
553.764	6.68
553.961	6.67
554.157	6.75
554.354	6.82
554.55	6.99
554.747	7.03
554.943	7.13
555.14	7.07
555.336	6.97
555.533	7.14
555.729	7.23
555.926	7.4
556.122	7.42
556.318	7.42
556.515	7.43
556.711	7.42
556.907	7.47
557.104	7.49
557.3	7.61
557.496	7.7
557.693	7.69
557.889	7.6
558.085	7.65
558.281	7.9
558.478	7.93
558.674	7.96
558.87	8.18
559.066	8.12
559.262	8.19
559.459	8.14
559.655	8.17
559.851	8.17
560.047	8.29
560.243	8.38
560.439	8.21
560.635	8.29
560.831	8.42
561.027	8.39
561.223	8.44
561.419	8.49
561.615	8.6
561.811	8.74
562.007	8.93
562.203	9.06
562.399	9.13
562.595	9.38
562.791	9.39
562.987	9.41
563.183	9.47
563.379	9.55
563.575	9.53
563.771	9.54
563.966	9.57
564.162	9.53
564.358	9.6
564.554	9.64
564.75	9.73
564.945	9.81
565.141	9.88
565.337	9.89
565.533	9.92
565.728	10.11
565.924	10.22
566.12	10.2
566.315	10.32
566.511	10.39
566.707	10.4
566.902	10.32
567.098	10.35
567.293	10.43
567.489	10.5
567.684	10.65
567.88	10.61
568.076	10.71
568.271	10.77
568.467	10.68
568.662	10.74
568.858	10.8
569.053	10.87
569.248	11.02
569.444	11.14
569.639	11.26
569.835	11.25
570.03	11.29
570.225	11.35
570.421	11.55
570.616	11.73
570.812	11.75
571.007	11.8
571.202	11.8
571.397	11.73
571.593	11.74
571.788	11.79
571.983	11.89
572.178	11.95
572.374	11.93
572.569	12.04
572.764	12.07
572.959	12.08
573.154	12.14
573.35	12.31
573.545	12.45
573.74	12.42
573.935	12.48
574.13	12.41
574.325	12.54
574.52	12.64
574.715	12.55
574.91	12.62
575.105	12.69
575.3	12.77
575.495	12.71
575.69	12.66
575.885	12.71
576.08	12.69
576.275	12.72
576.47	12.75
576.665	12.75
576.86	12.85
577.055	12.85
577.25	12.84
577.444	12.92
577.639	13.03
577.834	13.17
578.029	13.22
578.224	13.11
578.418	13.36
578.613	13.4
578.808	13.49
579.003	13.43
579.197	13.49
579.392	13.62
579.587	13.74
579.781	13.81
579.976	13.81
580.171	13.91
580.365	14.13
580.56	13.97
580.755	13.93
580.949	13.91
581.144	14.11
581.338	14.18
581.533	14.04
581.727	14.03
581.922	14.11
582.116	14.06
582.311	14.03
582.505	14.1
582.7	14.18
582.894	14.25
583.089	14.35
583.283	14.2
583.478	14.14
583.672	14.45
583.866	14.46
584.061	14.5
584.255	14.62
584.449	14.73
584.644	14.85
584.838	14.81
585.032	14.8
585.226	14.72
585.421	14.94
585.615	15
585.809	14.99
586.003	15
586.198	14.98
586.392	15.1
586.586	15.11
586.78	15
586.974	15.23
587.168	15.31
587.363	15.44
587.557	15.42
587.751	15.41
587.945	15.38
588.139	15.38
588.333	15.41
588.527	15.45
588.721	15.63
588.915	15.86
589.109	15.8
589.303	15.88
589.497	15.98
589.691	15.95
589.885	15.95
590.079	16.07
590.273	16.21
590.466	16.26
590.66	16.19
590.854	16.1
591.048	16.01
591.242	16.19
591.436	16.28
591.629	16.19
591.823	16.27
592.017	16.4
592.211	16.5
592.404	16.43
592.598	16.44
592.792	16.47
592.986	16.48
593.179	16.45
593.373	16.45
593.567	16.44
593.76	16.49
593.954	16.46
594.147	16.45
594.341	16.4
594.535	16.4
594.728	16.3
594.922	16.34
595.115	16.36
595.309	16.36
595.502	16.36
595.696	16.44
595.889	16.57
596.083	16.69
596.276	16.72
596.47	16.71
596.663	16.77
596.856	17.03
597.05	17.05
597.243	17.14
597.437	17.29
597.63	17.27
597.823	17.17
598.017	17.1
598.21	17.11
598.403	17.21
598.596	17.23
598.79	17.2
598.983	16.99
599.176	17.04
599.369	17.02
599.563	16.95
599.756	17.01
599.949	17.05
600.142	16.95
600.335	16.91
600.528	17.05
600.722	17.14
600.915	17.3
601.108	17.42
601.301	17.45
601.494	17.44
601.687	17.37
601.88	17.5
602.073	17.51
602.266	17.59
602.459	17.72
602.652	17.67
602.845	17.68
603.038	17.55
603.231	17.46
603.424	17.5
603.617	17.57
603.809	17.66
604.002	17.58
604.195	17.66
604.388	17.66
604.581	17.55
604.774	17.58
604.966	17.64
605.159	17.81
605.352	17.88
605.545	17.87
605.737	17.76
605.93	17.73
606.123	17.71
606.316	17.61
606.508	17.71
606.701	17.86
606.894	17.78
607.086	17.61
607.279	17.55
607.471	17.74
607.664	17.7
607.857	17.88
608.049	17.98
608.242	18.02
608.434	18.09
608.627	18.14
608.819	18.11
609.012	18.25
609.204	18.48
609.397	18.65
609.589	18.59
609.782	18.69
609.974	18.72
610.166	18.75
610.359	18.77
610.551	18.88
610.743	18.88
610.936	19.02
611.128	18.84
611.32	18.67
611.513	18.6
611.705	18.62
611.897	18.7
612.09	18.66
612.282	18.74
612.474	19.01
612.666	19.14
612.858	19.07
613.051	18.99
613.243	19
613.435	19.1
613.627	19.2
613.819	19.24
614.011	19.11
614.203	18.97
614.395	18.82
614.588	18.66
614.78	18.58
614.972	18.69
615.164	18.69
615.356	18.89
615.548	18.88
615.74	18.88
615.932	18.82
616.124	18.93
616.315	19.1
616.507	19.16
616.699	19.19
616.891	19.15
617.083	19.17
617.275	19.18
617.467	19.09
617.659	19.08
617.85	18.99
618.042	19.17
618.234	19.06
618.426	19.04
618.618	19.1
618.809	19.07
619.001	19.04
619.193	18.95
619.384	18.93
619.576	19.06
619.768	19
619.959	18.96
620.151	18.87
620.343	18.94
620.534	18.97
620.726	18.99
620.917	19
621.109	19.13
621.301	19.03
621.492	18.99
621.684	18.8
621.875	18.88
622.067	19.04
622.258	19.16
622.45	19.27
622.641	19.21
622.832	19.31
623.024	19.41
623.215	19.22
623.407	19.2
623.598	19.11
623.789	19.18
623.981	19.29
624.172	19.29
624.363	19.15
624.555	19.16
624.746	19.19
624.937	18.97
625.129	18.97
625.32	19.18
625.511	19.18
625.702	19.47
625.893	19.57
626.085	19.56
626.276	19.57
626.467	19.64
626.658	19.71
626.849	19.83
627.04	19.93
627.231	19.92
627.422	19.94
627.614	20.08
627.805	19.91
627.996	19.98
628.187	20.02
628.378	20.06
628.569	20.07
628.76	19.97
628.951	19.85
629.142	19.82
629.332	19.76
629.523	19.83
629.714	19.92
629.905	20.13
630.096	20.07
630.287	19.9
630.478	19.77
630.669	19.61
630.859	19.4
631.05	19.37
631.241	19.41
631.432	19.36
631.623	19.2
631.813	19.18
632.004	18.99
632.195	18.87
632.385	19
632.576	19.06
632.767	19.34
632.957	19.5
633.148	19.62
633.339	19.71
633.529	19.78
633.72	19.89
633.91	19.76
634.101	19.88
634.292	20
634.482	19.89
634.673	20.01
634.863	19.96
635.054	20.11
635.244	19.94
635.435	19.95
635.625	19.92
635.815	19.66
636.006	19.89
636.196	19.92
636.387	19.87
636.577	19.95
636.767	20.09
636.958	20.1
637.148	20.03
637.338	20.22
637.529	20.21
637.719	20.37
637.909	20.66
638.099	20.61
638.29	20.66
638.48	20.66
638.67	20.5
638.86	20.49
639.05	20.46
639.241	20.47
639.431	20.58
639.621	20.61
639.811	20.72
640.001	20.55
640.191	20.4
640.381	20.17
640.571	20.16
640.761	20.3
640.951	20.03
641.141	19.91
641.331	19.87
641.521	19.73
641.711	19.84
641.901	19.75
642.091	19.83
642.281	20.01
642.471	20.12
642.661	20.23
642.851	20.33
643.041	20.5
643.231	20.65
643.42	20.63
643.61	20.6
643.8	20.47
643.99	20.43
644.18	20.5
644.369	20.78
644.559	20.92
644.749	20.87
644.939	20.82
645.128	20.73
645.318	20.72
645.508	20.93
645.697	21.02
645.887	21.04
646.076	21.03
646.266	20.93
646.456	20.57
646.645	20.67
646.835	20.95
647.024	20.93
647.214	20.92
647.403	20.8
647.593	20.77
647.782	20.74
647.972	21
648.161	21.04
648.351	21.15
648.54	21.32
648.73	21.11
648.919	21
649.108	21.19
649.298	21.22
649.487	21.24
649.677	21.33
649.866	21.41
650.055	21.29
650.244	21.49
650.434	21.37
650.623	21.19
650.812	21.31
651.002	21.23
651.191	21.18
651.38	21.1
651.569	21.23
651.758	21.19
651.947	21.15
652.137	21.09
652.326	21.04
652.515	21.03
652.704	21.27
652.893	21.26
653.082	21.28
653.271	21.25
653.46	21.38
653.649	21.53
653.838	21.51
654.027	21.48
654.216	21.51
654.405	21.33
654.594	21.33
654.783	21.27
654.972	21.29
655.161	21.27
655.35	21.31
655.539	21.24
655.728	21.04
655.916	21.08
656.105	21.14
656.294	21.01
656.483	21.13
656.672	21.26
656.86	21.21
657.049	21.38
657.238	21.4
657.427	21.37
657.615	21.61
657.804	21.68
657.993	21.68
658.181	21.72
658.37	22.09
658.559	22.13
658.747	22.21
658.936	22.36
659.125	21.96
659.313	21.98
659.502	22.24
659.69	22.13
659.879	22.34
660.067	22.4
660.256	22.5
660.444	22.28
660.633	22.24
660.821	22.2
661.01	22.21
661.198	22.72
661.387	22.72
661.575	22.59
661.763	22.53
661.952	22.38
662.14	22.41
662.328	22.23
662.517	22.08
662.705	22.18
662.893	22.39
663.082	22.29
663.27	22.19
663.458	22.09
663.646	22.11
663.834	22.15
664.023	22.1
664.211	22.05
664.399	22.1
664.587	22.29
664.775	22.06
664.963	21.93
665.152	22.13
665.34	22.47
665.528	22.76
665.716	22.65
665.904	22.57
666.092	22.55
666.28	22.38
666.468	22.52
666.656	22.37
666.844	22.72
667.032	22.83
667.22	22.64
667.408	22.54
667.596	22.55
667.784	22.66
667.971	22.7
668.159	22.79
668.347	22.94
668.535	22.74
668.723	22.73
668.911	22.58
669.098	22.66
669.286	22.71
669.474	22.41
669.662	22.2
669.849	22.12
670.037	22.11
670.225	21.75
670.413	21.7
670.6	21.89
670.788	22.18
670.976	22.12
671.163	21.87
671.351	21.82
671.538	22.08
671.726	22.07
671.913	21.87
672.101	21.9
672.289	21.98
672.476	21.94
672.664	21.92
672.851	21.9
673.039	22.23
673.226	22.34
673.413	22.24
673.601	21.9
673.788	22.21
673.976	22.31
674.163	22.32
674.35	22.82
674.538	23.1
674.725	23.1
674.912	23.35
675.1	22.94
675.287	22.83
675.474	22.78
675.662	23
675.849	22.95
676.036	22.96
676.223	23.25
676.411	22.62
676.598	22.39
676.785	22.39
676.972	22.08
677.159	22.27
677.346	22.16
677.533	22.22
677.721	22.17
677.908	21.91
678.095	22.11
678.282	22.08
678.469	22.41
678.656	22.56
678.843	22.57
679.03	22.67
679.217	22.71
679.404	22.9
679.591	23.08
679.778	23.01
679.964	23.19
680.151	23.18
680.338	22.91
680.525	23.12
680.712	23.12
680.899	23.13
681.086	23.04
681.272	22.91
681.459	23.09
681.646	23.24
681.833	23.21
682.02	23.22
682.206	23.21
682.393	23.5
682.58	23.23
682.766	23.05
682.953	23.27
683.14	23.27
683.326	23.56
683.513	23.13
683.7	23.03
683.886	23.17
684.073	22.98
684.259	22.81
684.446	22.7
684.632	22.83
684.819	22.75
685.005	22.58
685.192	22.49
685.378	22.56
685.565	22.84
685.751	22.77
685.938	22.63
686.124	22.9
686.31	23.08
686.497	23
686.683	22.94
686.87	23.05
687.056	23.1
687.242	23.22
687.429	23.07
687.615	22.9
687.801	22.77
687.987	23.16
688.174	23.22
688.36	23.2
688.546	23.26
688.732	23.24
688.918	23.63
689.105	23.83
689.291	23.79
689.477	23.56
689.663	23.67
689.849	23.88
690.035	23.8
690.221	23.86
690.407	23.75
690.593	23.8
690.779	24.03
690.965	23.81
691.151	23.36
691.337	23.3
691.523	23.26
691.709	23.16
691.895	22.96
692.081	22.66
692.267	22.46
692.453	22.62
692.639	22.53
692.825	22.49
693.011	22.55
693.196	22.85
693.382	23.17
693.568	23.39
693.754	23.75
693.94	23.86
694.125	23.83
694.311	23.94
694.497	23.76
694.682	23.83
694.868	23.71
695.054	23.83
695.239	23.77
695.425	23.7
695.611	23.89
695.796	23.64
695.982	23.52
696.168	23.72
696.353	23.72
696.539	23.94
696.724	24.06
696.91	24.22
697.095	23.92
697.281	23.94
697.466	23.91
697.652	24
697.837	24.13
698.023	24.16
698.208	24.12
698.393	24.11
698.579	24.15
698.764	24.21
698.949	24.11
699.135	24.05
699.32	23.96
699.505	24.03
699.691	23.96
699.876	23.86
700.061	24.05
700.246	24.18
700.432	24.21
700.617	24.08
700.802	24.08
700.987	23.91
701.172	23.99
701.358	24.41
701.543	24.31
701.728	24.02
701.913	23.8
702.098	23.59
702.283	23.45
702.468	23.32
702.653	23.29
702.838	23.25
703.023	23.51
703.208	23.7
703.393	23.36
703.578	23.53
703.763	23.96
703.948	24.36
704.133	24.38
704.318	24.49
704.503	25.06
704.688	25.16
704.873	25.07
705.057	24.94
705.242	24.83
705.427	24.91
705.612	24.45
705.797	24.03
705.981	24.06
706.166	24.43
706.351	24.24
706.536	23.98
706.72	23.85
706.905	23.97
707.09	24.06
707.274	24.73
707.459	24.76
707.644	25.3
707.828	25.17
708.013	24.82
708.197	24.35
708.382	24.45
708.567	24.35
708.751	24.36
708.936	24.33
709.12	24.38
709.305	23.59
709.489	23.73
709.673	23.45
709.858	23.65
710.042	23.79
710.227	23.88
710.411	24.23
710.596	24.12
710.78	24.29
710.964	24.33
711.149	24.23
711.333	24.69
711.517	24.76
711.702	24.49
711.886	24.47
712.07	24.47
712.254	25
712.438	24.63
712.623	24.79
712.807	24.58
712.991	24.69
713.175	24.53
713.359	24.46
713.544	24.16
713.728	24.54
713.912	24.65
714.096	24.47
714.28	24.42
714.464	24.61
714.648	24.46
714.832	24.62
715.016	24.59
715.2	24.93
715.384	24.92
715.568	24.86
715.752	24.75
715.936	24.77
716.12	24.76
716.304	24.55
716.488	24.43
716.671	24.46
716.855	24.15
717.039	23.86
717.223	23.52
717.407	23.47
717.59	23.41
717.774	23.68
717.958	23.64
718.142	23.97
718.325	23.81
718.509	23.68
718.693	23.63
718.877	23.81
719.06	23.58
719.244	23.4
719.428	23.18
719.611	23.51
719.795	23.32
719.978	23.03
720.162	22.99
720.345	23.12
720.529	23.26
720.713	23.16
720.896	23.06
721.08	23.39
721.263	23.55
721.446	23.5
721.63	23.27
721.813	23.33
721.997	23.51
722.18	23.27
722.364	23.1
722.547	23.05
722.73	23.04
722.914	23.41
723.097	23.64
723.28	24.13
723.464	24
723.647	24.29
723.83	24.41
724.013	24.82
724.197	25.14
724.38	25.55
724.563	25.94
724.746	25.79
724.929	25.62
725.112	25.32
725.296	25.01
725.479	25.26
725.662	24.92
725.845	25.04
726.028	24.67
726.211	24.81
726.394	24
726.577	23.93
726.76	24.41
726.943	24.72
727.126	24.97
727.309	24.99
727.492	25.5
727.675	25.49
727.858	24.95
728.041	24.67
728.224	24.76
728.407	25.13
728.589	25.11
728.772	24.82
728.955	24.56
729.138	24.7
729.321	25.02
729.503	24.29
729.686	24.78
729.869	25.11
730.052	25.51
730.234	25.17
730.417	25.49
730.6	25.13
730.782	25.1
730.965	25.1
731.148	24.63
731.33	23.94
731.513	24.24
731.695	23.51
731.878	23.77
732.061	23.68
732.243	23.98
732.426	23.9
732.608	24.12
732.791	24.24
732.973	24.21
733.156	24.42
733.338	25.16
733.52	25.19
733.703	25.54
733.885	24.86
734.068	24.96
734.25	24.78
734.432	24.38
734.615	24.27
734.797	24.57
734.979	24.55
735.162	24.47
735.344	24.35
735.526	24.31
735.708	24.31
735.891	24.72
736.073	24.51
736.255	24.25
736.437	24.57
736.619	24.89
736.802	24.74
736.984	24.5
737.166	24.51
737.348	24.02
737.53	24.19
737.712	24.12
737.894	24.18
738.076	24.55
738.258	24.48
738.44	24.47
738.622	24.43
738.804	24.8
738.986	25.21
739.168	25.57
739.35	25.7
739.532	25.67
739.714	26.13
739.896	26.23
740.078	25.55
740.259	25.35
740.441	25.1
740.623	24.62
740.805	24.49
740.987	24.27
741.168	23.87
741.35	23.89
741.532	23.86
741.714	23.55
741.895	23.48
742.077	23.8
742.259	24.1
742.44	23.69
742.622	23.87
742.804	22.84
742.985	22.82
743.167	22.82
743.348	23.27
743.53	22.92
743.711	22.63
743.893	22.19
744.075	22.49
744.256	22.61
744.438	23.22
744.619	23.37
744.8	24.49
744.982	24.5
745.163	25.15
745.345	24.37
745.526	24.61
745.707	24.68
745.889	24.53
746.07	24.59
746.252	24.79
746.433	25.31
746.614	25.32
746.795	24.44
746.977	24.44
747.158	23.87
747.339	24.31
747.52	24.02
747.702	23.92
747.883	24.03
748.064	23.97
748.245	24
748.426	23.82
748.607	23.74
748.788	24.06
748.97	24.84
749.151	24.81
749.332	24.73
749.513	25.44
749.694	25.87
749.875	26.07
750.056	26.47
750.237	26.58
750.418	25.86
750.599	26.09
750.78	26.5
750.96	26.48
751.141	26.59
751.322	26.4
751.503	26.4
751.684	26.24
751.865	26.49
752.046	25.7
752.226	25.27
752.407	26.05
752.588	25.46
752.769	24.61
752.949	24.41
753.13	24.17
753.311	25.28
753.492	25.02
753.672	25.29
753.853	24.79
754.034	25.16
754.214	25.55
754.395	25.52
754.575	26.16
754.756	26.01
754.937	26.06
755.117	25.93
755.298	24.99
755.478	25.35
755.659	24.86
755.839	24.91
756.02	24.46
756.2	24.3
756.381	23.6
756.561	23.73
756.741	24.69
756.922	24.11
757.102	23.84
757.283	24.22
757.463	24.2
757.643	24.31
757.823	24.42
758.004	24.57
758.184	24.33
758.364	24.31
758.545	23.73
758.725	23.72
758.905	23.44
759.085	24.02
759.265	23.45
759.446	23.49
759.626	23.47
759.806	23.52
759.986	23.39
760.166	23.21
760.346	23.12
760.526	23.78
760.706	23.83
760.886	23.9
761.066	23.93
761.246	23.79
761.426	23.18
761.606	23.9
761.786	24.13
761.966	24.49
762.146	25.02
762.326	25.14
762.506	24.97
762.686	24.94
762.866	25.21
763.046	25.07
763.225	24.95
763.405	25.22
763.585	24.78
763.765	24.64
763.945	24.63
764.124	24.24
764.304	24.72
764.484	24.7
764.664	24.72
764.843	24.74
765.023	24.71
765.203	25.15
765.382	25.27
765.562	25.34
765.741	25.74
765.921	25.8
766.101	26.16
766.28	26.37
766.46	26.93
766.639	26.4
766.819	26.57
766.998	26.59
767.178	26.37
767.357	26.29
767.537	25.42
767.716	25.17
767.896	25.5
768.075	25.03
768.254	23.86
768.434	23.26
768.613	23.38
768.792	23.23
768.972	23.68
769.151	23.68
769.33	23.83
769.51	24.7
769.689	25
769.868	24.53
770.047	25.59
770.226	25.79
770.406	25.63
770.585	26.37
770.764	26.98
770.943	26.44
771.122	27.03
771.301	27.54
771.48	27.83
771.66	27.84
771.839	29.02
772.018	28.37
772.197	27.97
772.376	28.37
772.555	28.62
772.734	27.68
772.913	27.75
773.092	27.68
773.271	26.75
773.449	25.93
773.628	25.96
773.807	24.58
773.986	23.84
774.165	24.78
774.344	24.49
774.523	24.39
774.701	24.8
774.88	26.14
775.059	25.79
775.238	26.13
775.417	27.02
775.595	26.19
775.774	26.38
775.953	26.79
776.131	26.83
776.31	27.17
776.489	26.77
776.667	26.3
776.846	24.84
777.025	25.27
777.203	25.13
777.382	24.23
777.56	23.45
777.739	24.09
777.917	24.33
778.096	23.71
778.274	23.65
778.453	23.46
778.631	24.4
778.81	24.73
778.988	25.28
779.166	24.31
779.345	25.42
779.523	27.03
779.702	26.61
779.88	26.27
780.058	26.83
780.237	26.18
780.415	26.22
780.593	25.87
780.771	25.93
780.95	25.69
781.128	25.31
781.306	25
781.484	24.39
781.662	23.81
781.841	24.11
782.019	23.8
782.197	23.97
782.375	24.29
782.553	23.2
782.731	22.68
782.909	21.39
783.087	23.17
783.265	22.35
783.443	22.72
783.621	21.9
783.799	21.99
783.977	21.26
784.155	20.91
784.333	21.13
784.511	21.83
784.689	22.45
784.867	22.91
785.045	22.98
785.223	24.07
785.4	24.41
785.578	25.85
785.756	26.3
785.934	26.79
786.112	27.62
786.289	26.18
786.467	26.95
786.645	25.88
786.823	26.16
787	25.69
787.178	24.93
787.356	24.26
787.533	24.19
787.711	23.89
787.889	24.48
788.066	23.47
788.244	23.97
788.421	22.82
788.599	23.81
788.776	24.02
788.954	23.79
789.131	24.03
789.309	23.45
789.486	22.88
789.664	22.32
789.841	22.41
790.019	24.05
790.196	24.87
790.373	25.09
790.551	25.2
790.728	24.65
790.906	24.68
791.083	25.61
791.26	26.04
791.437	26
791.615	26.89
791.792	26.37
791.969	24.25
792.146	23.98
792.324	23.49
792.501	24.65
792.678	25.39
792.855	26.75
793.032	25.85
793.209	25.75
793.387	26.62
793.564	25.9
793.741	26.37
793.918	28.49
794.095	27.54
794.272	28.28
794.449	27.08
794.626	26.88
794.803	26.31
794.98	26.39
795.157	27.23
795.334	27.13
795.511	26.68
795.688	26.53
795.864	25.97
796.041	26.34
796.218	25.88
796.395	26.56
796.572	25.19
796.749	25.45
796.925	25.38
797.102	24.88
797.279	23.62
797.456	24.57
797.632	24.39
797.809	23.89
797.986	24.29
798.162	24.53
798.339	24.21
798.516	26.26
798.692	24.99
798.869	24.88
799.046	25.96
799.222	26.37
799.399	25.93
799.575	26.27
799.752	26.77
799.928	27.76
800.105	27.39
800.281	27.52
800.458	26.48
800.634	27.74
800.811	28.8
800.987	28.12
801.163	28.42
801.34	30
801.516	30.03
801.692	29.78
801.869	29.36
802.045	30.12
802.221	29.43
802.398	29.78
802.574	28.95
802.75	27.31
802.926	26.94
803.103	27.01
803.279	25.37
803.455	23.44
803.631	23.11
803.807	23.13
803.983	23.44
804.16	23.13
804.336	22.57
804.512	23.84
804.688	24.74
804.864	24.67
805.04	26.02
805.216	26.71
805.392	28.94
805.568	28.84
805.744	27.66
805.92	27.35
806.096	27.94
806.272	27.15
806.448	26.23
806.623	25.08
806.799	24.41
806.975	24
807.151	23.45
807.327	22.34
807.503	22.76
807.678	23.86
807.854	24.11
808.03	24.24
808.206	25.53
808.381	24.95
808.557	26.2
808.733	26.5
808.908	25.34
809.084	25.32
809.26	25.79
809.435	25.93
809.611	25.6
809.787	26.67
809.962	27.97
810.138	27.53
810.313	27.94
810.489	26.98
810.664	27.62
810.84	28.22
811.015	28.63
811.191	28.8
811.366	29.6
811.542	29.04
811.717	28.13
811.892	26.34
812.068	26.3
812.243	25.88
812.419	26.66
812.594	26.2
812.769	26.45
812.944	26.7
813.12	27.41
813.295	26.51
813.47	26.69
813.645	26.04
813.821	26.87
813.996	27.48
814.171	27.98
814.346	27.89
814.521	27.19
814.697	26.59
814.872	25.32
815.047	22.56
815.222	21.68
815.397	22.18
815.572	21.91
815.747	22.15
815.922	22.11
816.097	22.59
816.272	23.45
816.447	23.29
816.622	22.96
816.797	23.82
816.972	27.18
817.147	27.72
817.322	26.68
817.496	26.07
817.671	24.9
817.846	23.49
818.021	22.59
818.196	22.1
818.371	22.89
818.545	23.63
818.72	23.95
818.895	22.76
819.069	22.74
819.244	23.3
819.419	23.98
819.594	24.11
819.768	25.65
819.943	26.94
820.117	27.33
820.292	27.6
820.467	27.58
820.641	27.28
820.816	27.42
820.99	27.36
821.165	27.16
821.339	27.25
821.514	27.26
821.688	26.89
821.863	26.87
822.037	26.9
822.212	26.9
822.386	26.84
822.56	26.83
822.735	26.67
822.909	26.6
823.084	26.76
823.258	26.61
823.432	26.61
823.606	26.75
823.781	26.26
823.955	26.34
824.129	26.2
824.303	26.24
824.478	26.32
824.652	26.43
824.826	26.08
825	26.16
825.174	26.16
825.348	26.28
825.523	26.12
825.697	26.34
825.871	26.06
826.045	26.42
826.219	26.61
826.393	26.63
826.567	26.69
826.741	27.24
826.915	27.36
827.089	27.54
827.263	26.87
827.437	27.2
827.611	27.07
827.784	26.78
827.958	26.22
828.132	25.7
828.306	25.61
828.48	25.32
828.654	25.62
828.827	25.31
829.001	25.24
829.175	26.07
829.349	25.72
829.522	26.07
829.696	26.39
829.87	26.61
830.044	26.94
830.217	26.93
830.391	27.29
830.565	26.01
830.738	25.68
830.912	24.9
831.085	24.76
831.259	24.96
831.432	25.1
831.606	25.33
831.779	25.18
831.953	24.92
832.126	25.08
832.3	24.92
832.473	25.98
832.647	26.33
832.82	26.37
832.994	26.79
833.167	26.57
833.34	26.53
833.514	25.78
833.687	26.48
833.86	26.97
834.034	26.59
834.207	26.54
834.38	26.28
834.553	26.45
834.727	27.13
834.9	27.49
835.073	27.01
835.246	27.14
835.419	28.12
835.593	28.49
835.766	29.06
835.939	29.64
836.112	29.9
836.285	30.87
836.458	30.83
836.631	31.02
836.804	31.04
836.977	32.29
837.15	33.04
837.323	32.29
837.496	31.85
837.669	29.32
837.842	30.41
838.015	28.97
838.188	26.61
838.361	26.4
838.533	24.32
838.706	23.32
838.879	23.9
839.052	23.04
839.225	24.21
839.398	24.48
839.57	27.52
839.743	26.85
839.916	28.59
840.088	29.2
840.261	28.93
840.434	30.56
840.607	30.07
840.779	31.25
840.952	32.14
841.124	30.54
841.297	29.74
841.47	28.81
841.642	25.76
841.815	24.3
841.987	26.93
842.16	26.74
842.332	26.87
842.505	26.23
842.677	24.51
842.85	21.97
843.022	23.53
843.194	23.54
843.367	22.77
843.539	26.03
843.712	24.85
843.884	22.43
844.056	23.34
844.229	22.91
844.401	22.52
844.573	22.69
844.745	25.83
844.918	23.98
845.09	21.54
845.262	21.2
845.434	22.85
845.606	24.54
845.779	25.88
845.951	25.48
846.123	26.63
846.295	29.78
846.467	28.43
846.639	24.66
846.811	25.58
846.983	26.32
847.155	25.95
847.327	25.02
847.499	24.97
847.671	26.07
847.843	24.76
848.015	24.06
848.187	22.9
848.359	27.76
848.531	26.23
848.703	30.98
848.875	32.04
849.047	31.41
849.218	30.49
849.39	30.28
849.562	27.21
849.734	28.85
849.905	27.03
850.077	26.76
850.249	23.12
850.421	27.7
850.592	22.61
850.764	21.62
850.936	20.99
851.107	16.39
851.279	18.63
851.451	18.81
851.622	15.45
851.794	16.56
851.965	15.41
852.137	11.94
852.308	9.81
852.48	11.73
852.651	10.03
852.823	10.65
852.994	15.27
853.166	15.31
853.337	17.06
853.509	18.99
853.68	17.26
853.851	16.98
854.023	19.93
854.194	20.06
854.365	19
854.537	22.37
854.708	23.06
854.879	26.1
855.05	22.82
855.222	19.78
855.393	18.67
855.564	22.02
855.735	22.55
855.906	21.65
856.078	22.06
856.249	19.21
856.42	15.95
856.591	16.26
856.762	12.68
856.933	12.84
857.104	15.36
857.275	12.61
857.446	10.32
857.617	14.08
857.788	14.51
857.959	14.36
858.13	18.04
858.301	17.99
858.472	20.02
858.643	20.03
858.814	24.41
858.985	21.41
859.155	27.84
859.326	27.9
859.497	25.06
859.668	21.04
859.839	18.14
860.009	15.33
860.18	19.35
860.351	17.37
860.522	16.85
860.692	16.72
860.863	18.93
861.034	16.01
861.204	17.28
861.375	17.61
861.546	18.87
861.716	19.28
861.887	21.59
862.057	20.27
862.228	20.69
862.398	22.26
862.569	22.39
862.739	22.14
862.91	21.68
863.08	16.31
863.251	18.21
863.421	26.93
863.592	27.79
863.762	25.31
863.932	24.54
864.103	22.76
864.273	21.55
864.443	18.32
864.614	17.15
864.784	20.95
864.954	22.15
865.125	23.29
865.295	16.7
865.465	15.18
865.635	19.42
865.805	19.75
865.976	19.5
866.146	20.7
866.316	20.4
866.486	20.71
866.656	17.83
866.826	23.36
866.996	22.11
867.166	24.25
867.336	27.78
867.506	24.46
867.676	23.49
867.846	22.83
868.016	22.54
868.186	24.65
868.356	23.76
868.526	22.33
868.696	21.06
868.866	20.32
869.036	14.41
869.206	15.7
869.376	22.16
869.545	24.6
869.715	29.3
869.885	29.31
870.055	30.52
870.224	32.84
870.394	32.76
870.564	31.06
870.734	30.91
870.903	35.27
871.073	34.9
871.243	30.84
871.412	31.76
871.582	29.35
871.751	25.38
871.921	20.68
872.091	17.8
872.26	20.9
872.43	24.1
872.599	23.64
872.769	24.24
872.938	26.73
873.108	29.78
873.277	24.79
873.446	27.05
873.616	33.83
873.785	34.23
873.955	34.22
874.124	31.52
874.293	28.29
874.463	30.85
874.632	29.77
874.801	28.93
874.971	29.3
875.14	29.25
875.309	25.46
875.478	22.03
875.647	28.11
875.817	27.25
875.986	31.22
876.155	36.86
876.324	29.18
876.493	28.38
876.662	22.73
876.831	19.3
877	23.53
877.17	28.02
877.339	28.01
877.508	27.24
877.677	30.5
877.846	28.77
878.015	20.14
878.184	24.52
878.352	27.55
878.521	30.95
878.69	32.28
878.859	32.14
879.028	27.92
879.197	26.16
879.366	24.71
879.534	25.19
879.703	26.1
879.872	28.21
880.041	28.97
880.21	28.31
880.378	28.31
880.547	27.93
880.716	27.39
880.884	28.2
881.053	29.19
881.222	28.84
881.39	28.67
881.559	29.13
881.727	29.19
881.896	29.51
882.065	30.24
882.233	30.08
882.402	29.26
882.57	29.37
882.739	28.79
882.907	27.57
883.076	27.71
883.244	28.29
883.412	28.13
883.581	27.82
883.749	26.92
883.918	26.73
884.086	26.65
884.254	27.63
884.423	27.42
884.591	28.7
884.759	29.52
884.927	29.52
885.096	28.49
885.264	28.83
885.432	29.66
885.6	29.38
885.769	26.26
885.937	25.96
886.105	25.6
886.273	27.15
886.441	24.82
886.609	24.75
886.777	23.53
886.945	21.09
887.113	18.71
887.281	16.72
887.449	19.04
887.617	24
887.785	25.69
887.953	24.55
888.121	22.72
888.289	24.54
888.457	28.44
888.625	32.76
888.793	37.72
888.961	40.48
889.129	39.11
889.296	39.51
889.464	38.8
889.632	37.69
889.8	39.66
889.967	39.85
890.135	42.01
