Data from 2938444_Reflection_1.txt Node
Date: Fri Jun 19 18:13:46 EDT 2015
User: robert
Spectrometer: USB4E03002
Autoset integration time: false
Trigger mode: 4
Integration Time (sec): 1.000000E-1
Scans to average: 10
Electric dark correction enabled: true
Nonlinearity correction enabled: false
Boxcar width: 5
Stray light correction enabled: false
XAxis mode: Wavelengths
Stop averaging: false
Number of Pixels in Spectrum: 3648
>>>>>Begin Spectral Data<<<<<
177.575	-220.95
177.794	-180.16
178.014	-268.8
178.233	1260.18
178.452	412.39
178.672	176.53
178.891	-16.49
179.11	155.24
179.33	202.3
179.549	-127.57
179.768	113.65
179.987	97.32
180.207	-690.52
180.426	422.38
180.645	87.02
180.864	18.14
181.084	26.38
181.303	5.65
181.522	10.14
181.741	44.36
181.96	-5.19
182.179	25.68
182.398	28.02
182.618	2.02
182.837	-4.4
183.056	-20.71
183.275	3868
183.494	108.27
183.713	-663.23
183.932	546.7
184.151	123.93
184.37	-298.97
184.589	-49.59
184.808	-47.2
185.027	10.96
185.246	-0.38
185.465	-108.91
185.684	-910.07
185.903	-909.81
186.122	-185.57
186.341	-249.11
186.56	-289.46
186.779	13.05
186.998	-23.25
187.216	-24.25
187.435	65.1
187.654	45.52
187.873	-512.45
188.092	3667.65
188.311	931.88
188.53	-487.16
188.748	-108.16
188.967	-26.23
189.186	-63.32
189.405	-73.74
189.623	-275.42
189.842	124.18
190.061	168.11
190.28	140.56
190.498	186.74
190.717	20386.67
190.936	520.45
191.154	893.02
191.373	1554.62
191.592	160.24
191.81	107.24
192.029	122.23
192.248	133.06
192.466	173.92
192.685	163.53
192.904	127.44
193.122	93.05
193.341	75.46
193.559	63.75
193.778	31.49
193.996	6.48
194.215	32.74
194.433	29.76
194.652	9.81
194.87	27.26
195.089	78.55
195.307	85.02
195.526	92.3
195.744	122.53
195.963	115.15
196.181	128.07
196.399	140.72
196.618	928.01
196.836	-884.13
197.055	-1333.92
197.273	-886.37
197.491	-12.8
197.71	-64.46
197.928	30.68
198.146	-15.69
198.365	-411.05
198.583	-51.54
198.801	-34.13
199.019	-466.56
199.238	-316.47
199.456	-731.11
199.674	-379.21
199.892	221.76
200.111	94.21
200.329	-13.39
200.547	183.56
200.765	321.05
200.983	-21.45
201.202	32.22
201.42	-79.16
201.638	-60.55
201.856	-36.53
202.074	-45.88
202.292	-70.04
202.51	64.52
202.728	227.88
202.946	188.24
203.165	282.46
203.383	68.39
203.601	71.41
203.819	14.71
204.037	0.11
204.255	-9.03
204.473	570.12
204.691	400.7
204.909	-1695.07
205.127	-147.78
205.345	-96.96
205.562	-5.7
205.78	-66.19
205.998	29.12
206.216	97.16
206.434	382.22
206.652	271.32
206.87	189.17
207.088	177.26
207.306	215.95
207.523	305.61
207.741	355.13
207.959	1344.53
208.177	682.45
208.395	2208.33
208.612	780.03
208.83	439.73
209.048	291.57
209.266	382.63
209.483	232.45
209.701	286.78
209.919	127.81
210.136	137.92
210.354	103.13
210.572	190.29
210.79	144.58
211.007	255.58
211.225	163.87
211.442	188.61
211.66	147.92
211.878	179.4
212.095	-10.49
212.313	-3.84
212.53	-19.8
212.748	-10.21
212.966	-33.64
213.183	-30.68
213.401	-7.46
213.618	-18.9
213.836	-22.51
214.053	11.13
214.271	25.47
214.488	65.97
214.705	59.02
214.923	69.77
215.14	66.16
215.358	77.94
215.575	85.44
215.793	85.05
216.01	86.94
216.227	84.2
216.445	65.54
216.662	64.65
216.879	73.02
217.097	93.26
217.314	67.22
217.531	31.67
217.749	-131.06
217.966	-214.29
218.183	-327.77
218.4	-107.38
218.618	-55.32
218.835	-47.85
219.052	-76.64
219.269	20.98
219.487	29.83
219.704	61.57
219.921	88.25
220.138	92.59
220.355	99.43
220.572	92.98
220.79	88.84
221.007	67.03
221.224	62.17
221.441	54.67
221.658	52.63
221.875	52.49
222.092	45.32
222.309	54.29
222.526	38.58
222.743	31.72
222.96	31.77
223.177	28.05
223.394	35.76
223.611	39.29
223.828	44.53
224.045	41.1
224.262	39.78
224.479	33.23
224.696	28.45
224.913	29.94
225.13	30.21
225.347	29.98
225.564	29.73
225.781	26.96
225.997	25.07
226.214	20.85
226.431	22.04
226.648	19.12
226.865	19.51
227.082	18.99
227.298	20.04
227.515	19.5
227.732	18.88
227.949	20.55
228.165	21.71
228.382	23.23
228.599	22.43
228.816	20.75
229.032	21.43
229.249	20.53
229.466	22.15
229.682	22.81
229.899	23.55
230.116	21.96
230.332	19.36
230.549	20.56
230.765	17.92
230.982	21.32
231.199	25.4
231.415	26.58
231.632	30.76
231.848	27.63
232.065	28.57
232.281	28.85
232.498	32.4
232.714	32.41
232.931	30.43
233.147	28.96
233.364	25.81
233.58	25.96
233.797	27.35
234.013	25.17
234.23	25.83
234.446	26.45
234.662	27.55
234.879	26.95
235.095	26.59
235.312	26.86
235.528	28.16
235.744	31.13
235.961	29.38
236.177	26.72
236.393	26.68
236.61	29.05
236.826	24.73
237.042	22.7
237.258	22.67
237.475	21.52
237.691	22.55
237.907	22.55
238.123	19.45
238.339	19.09
238.556	21.74
238.772	21.74
238.988	18.67
239.204	20.18
239.42	20.71
239.636	20.16
239.853	20.37
240.069	20.29
240.285	19.69
240.501	20.18
240.717	20.29
240.933	17.58
241.149	16.94
241.365	16.51
241.581	16.24
241.797	15.65
242.013	15.41
242.229	15.54
242.445	13.72
242.661	14.6
242.877	13.9
243.093	13.73
243.309	14.89
243.525	15.35
243.741	16.29
243.957	16.63
244.173	16.87
244.388	16.68
244.604	16.4
244.82	16.57
245.036	15.8
245.252	15.62
245.468	15.1
245.683	15.42
245.899	15.41
246.115	15.35
246.331	15.19
246.547	15.14
246.762	15.03
246.978	14.72
247.194	14.85
247.409	14.39
247.625	14.77
247.841	15.59
248.057	15.64
248.272	15.4
248.488	15.24
248.703	15.28
248.919	15.25
249.135	14.85
249.35	15.89
249.566	15.98
249.782	16.13
249.997	16.67
250.213	15.58
250.428	14.74
250.644	14.89
250.859	14.73
251.075	14.15
251.29	12.85
251.506	13.04
251.721	11.56
251.937	11.3
252.152	12.19
252.368	11.34
252.583	12.29
252.798	13.01
253.014	12.4
253.229	11.67
253.445	11.79
253.66	12.9
253.875	12.89
254.091	13.3
254.306	12.77
254.521	13.13
254.737	13.2
254.952	12.96
255.167	13.48
255.383	14.96
255.598	17.39
255.813	16.81
256.028	16.4
256.244	14.77
256.459	14.52
256.674	14.9
256.889	13.93
257.104	13.37
257.32	12.79
257.535	12.07
257.75	11.3
257.965	10.79
258.18	10.95
258.395	10.8
258.61	11.18
258.826	11.09
259.041	10.58
259.256	10.16
259.471	9.52
259.686	9.45
259.901	9.75
260.116	9.79
260.331	9.5
260.546	9.34
260.761	9.66
260.976	9.41
261.191	10.07
261.406	9.62
261.621	10.83
261.836	11.55
262.05	11.71
262.265	11.18
262.48	10.31
262.695	10.09
262.91	10.16
263.125	11.26
263.34	12.25
263.555	11.94
263.769	11.91
263.984	11.43
264.199	11.93
264.414	11.1
264.629	11.45
264.843	12.43
265.058	11.93
265.273	11.49
265.488	10.16
265.702	9.54
265.917	9.85
266.132	11.07
266.346	10.42
266.561	10.37
266.776	12.15
266.99	11.1
267.205	10.99
267.42	11.46
267.634	11.46
267.849	11.8
268.063	11.58
268.278	10.93
268.492	10.08
268.707	9.91
268.922	10
269.136	8.96
269.351	8.9
269.565	8.73
269.78	8.43
269.994	8.88
270.209	9.25
270.423	8.91
270.637	9.12
270.852	9.07
271.066	9.54
271.281	9.2
271.495	9.52
271.709	10.1
271.924	10.03
272.138	10.42
272.353	10.56
272.567	10.02
272.781	10.8
272.996	10.59
273.21	11.18
273.424	12.37
273.638	13.03
273.853	12.65
274.067	12.64
274.281	12.23
274.495	12.2
274.71	12.37
274.924	12.24
275.138	12.76
275.352	12.47
275.566	12.49
275.781	11.5
275.995	11.42
276.209	11.86
276.423	11.91
276.637	12.72
276.851	12.74
277.065	12.23
277.279	12.89
277.493	12.5
277.707	13.2
277.921	13.08
278.135	13.24
278.349	12.64
278.563	11.99
278.777	12.53
278.991	12.78
279.205	12.52
279.419	11.77
279.633	11.26
279.847	10.69
280.061	11.07
280.275	11.06
280.489	10.6
280.703	10.95
280.917	11.78
281.131	11
281.344	10.57
281.558	11.23
281.772	11.6
281.986	11.79
282.2	12.32
282.414	11.57
282.627	11.87
282.841	12.33
283.055	12.48
283.269	12.22
283.482	12.85
283.696	13.3
283.91	12.63
284.123	12.55
284.337	11.94
284.551	11.84
284.764	11.72
284.978	10.81
285.192	10.28
285.405	10.29
285.619	9.76
285.833	9.58
286.046	9.04
286.26	9.45
286.473	10.03
286.687	10.79
286.9	10.61
287.114	10.89
287.327	11.25
287.541	11.69
287.754	11.72
287.968	12.43
288.181	12.43
288.395	12.42
288.608	12
288.822	12.06
289.035	11.69
289.248	12.01
289.462	12.07
289.675	12.53
289.889	12.72
290.102	12.53
290.315	12.51
290.529	12
290.742	12.19
290.955	12.58
291.169	12.23
291.382	12.59
291.595	12.45
291.808	13.02
292.022	12.39
292.235	11.32
292.448	12.24
292.661	11.44
292.875	11.8
293.088	12.23
293.301	12.03
293.514	12.43
293.727	12.9
293.94	12.71
294.153	12.39
294.367	13.74
294.58	14.56
294.793	13.59
295.006	13.95
295.219	14.09
295.432	13.79
295.645	14.28
295.858	13.37
296.071	12.77
296.284	12.69
296.497	13.15
296.71	12.66
296.923	12.77
297.136	13.26
297.349	13.28
297.562	13.32
297.775	14.14
297.988	13.6
298.201	14.82
298.414	15.34
298.626	15.69
298.839	15.34
299.052	15.18
299.265	14.99
299.478	15.09
299.691	15.42
299.903	15.36
300.116	13.95
300.329	14.54
300.542	14.71
300.755	14.36
300.967	15.05
301.18	15.89
301.393	15.85
301.605	15.9
301.818	15.12
302.031	15.13
302.243	15.49
302.456	15.88
302.669	16.52
302.881	16.29
303.094	16.67
303.307	15.85
303.519	15.35
303.732	15.24
303.944	15.74
304.157	17.04
304.37	16.33
304.582	16.8
304.795	17.57
305.007	17.37
305.22	16.49
305.432	16.39
305.645	17.08
305.857	17.03
306.069	17.51
306.282	16.85
306.494	15.96
306.707	16.78
306.919	16.44
307.132	14.75
307.344	14.55
307.556	14.62
307.769	15.91
307.981	15.97
308.193	16.25
308.406	15.57
308.618	16.25
308.83	16.02
309.043	15.52
309.255	15.02
309.467	16.23
309.679	15.37
309.892	16.09
310.104	14.71
310.316	14.67
310.528	14.22
310.74	14.54
310.953	13.76
311.165	13.96
311.377	13.87
311.589	13.8
311.801	13.58
312.013	13.96
312.225	13.76
312.437	14.7
312.649	14.99
312.862	13.77
313.074	13.48
313.286	13.27
313.498	13.55
313.71	14.37
313.922	14.27
314.134	14.85
314.346	15.08
314.558	14.68
314.77	14.34
314.982	13.58
315.193	15.46
315.405	15.91
315.617	16.36
315.829	15.7
316.041	14.75
316.253	16.02
316.465	16.33
316.677	16.2
316.888	16.37
317.1	16.35
317.312	16.8
317.524	15.33
317.736	15.76
317.947	16.06
318.159	16.8
318.371	17.16
318.583	16.72
318.794	15.57
319.006	15.66
319.218	15.57
319.43	15.16
319.641	14.87
319.853	15.32
320.064	15.78
320.276	15.3
320.488	14.54
320.699	14.19
320.911	14.12
321.123	14.85
321.334	14.73
321.546	14.28
321.757	14.75
321.969	15.2
322.18	14.97
322.392	14.32
322.603	14.17
322.815	15.13
323.026	15.24
323.238	15
323.449	15.02
323.661	14.71
323.872	15.86
324.083	15.47
324.295	15.65
324.506	15.45
324.718	15.38
324.929	15.5
325.14	14.79
325.352	15.07
325.563	14.91
325.774	14.56
325.986	14.43
326.197	13.85
326.408	14.52
326.62	13.7
326.831	14.33
327.042	13.35
327.253	13.35
327.464	13.52
327.676	14.21
327.887	14.54
328.098	14.97
328.309	15.15
328.52	15.32
328.732	14.98
328.943	15.89
329.154	15.87
329.365	17.27
329.576	17.55
329.787	17.24
329.998	16.23
330.209	15.22
330.42	14.59
330.631	15.17
330.842	15.14
331.053	14.57
331.264	14.03
331.475	14.35
331.686	15.13
331.897	14.86
332.108	14.99
332.319	15.3
332.53	16.72
332.741	17.29
332.952	17.08
333.163	16.07
333.374	17.53
333.585	16.94
333.795	16.98
334.006	15.99
334.217	16.06
334.428	16.19
334.639	15.83
334.849	15.58
335.06	14.81
335.271	15.48
335.482	15.82
335.692	14.93
335.903	16.07
336.114	15.45
336.325	15.5
336.535	15.5
336.746	14.97
336.957	14.83
337.167	14.3
337.378	14.8
337.589	14.34
337.799	14.61
338.01	14.32
338.22	13.91
338.431	14.18
338.642	13.79
338.852	13.23
339.063	14.24
339.273	13.77
339.484	13.98
339.694	13.68
339.905	13.27
340.115	13.94
340.326	13.35
340.536	13.06
340.746	13.13
340.957	14.22
341.167	14.53
341.378	13.84
341.588	14.61
341.799	14.97
342.009	15.05
342.219	15.75
342.43	15.82
342.64	16.66
342.85	16.6
343.061	16.25
343.271	15.41
343.481	15.7
343.691	15.49
343.902	15.02
344.112	14.81
344.322	14.61
344.532	14.59
344.743	14.23
344.953	13.82
345.163	13.91
345.373	14.03
345.583	14
345.793	13.75
346.004	14.08
346.214	14.37
346.424	14.25
346.634	14.37
346.844	14.87
347.054	14.15
347.264	14.05
347.474	14.11
347.684	13.97
347.894	13.44
348.104	13.59
348.314	13.82
348.524	13.64
348.734	13.63
348.944	13.51
349.154	12.45
349.364	13.2
349.574	13.43
349.784	13.82
349.994	14.6
350.204	14.67
350.413	14.89
350.623	15.45
350.833	15.51
351.043	15.52
351.253	15.88
351.463	15.97
351.672	15.38
351.882	15.69
352.092	15.4
352.302	14.79
352.511	15.39
352.721	15.16
352.931	14.35
353.141	14.81
353.35	14.63
353.56	14.65
353.77	14.56
353.979	14.63
354.189	14.24
354.399	14.51
354.608	14.87
354.818	14.68
355.027	14.76
355.237	14.34
355.447	13.89
355.656	14.53
355.866	14
356.075	14.12
356.285	14.76
356.494	14.98
356.704	14.11
356.913	13.98
357.123	14.31
357.332	14.04
357.542	14.89
357.751	14.94
357.96	14.37
358.17	14.11
358.379	13.73
358.589	13.22
358.798	12.88
359.007	13.06
359.217	12.32
359.426	12.02
359.635	12.05
359.845	11.66
360.054	11.64
360.263	11.6
360.472	12.11
360.682	12.09
360.891	12.01
361.1	12.38
361.309	12.39
361.519	12.23
361.728	12.43
361.937	12.41
362.146	12.62
362.355	12.25
362.564	12.27
362.774	12.07
362.983	11.94
363.192	11.48
363.401	10.97
363.61	10.73
363.819	11.47
364.028	11.25
364.237	11.2
364.446	10.95
364.655	11.41
364.864	11.54
365.073	11.71
365.282	11.85
365.491	12.19
365.7	12.27
365.909	12.45
366.118	12.39
366.327	12.44
366.536	12.04
366.745	11.98
366.954	11.59
367.162	11.75
367.371	11.64
367.58	11.37
367.789	11.06
367.998	11.37
368.207	11.27
368.415	11.21
368.624	10.54
368.833	11.31
369.042	11.06
369.25	11.35
369.459	10.79
369.668	10.02
369.877	9.94
370.085	10.17
370.294	9.62
370.503	9.74
370.711	9.5
370.92	10.02
371.129	9.8
371.337	9.78
371.546	9.48
371.754	9.66
371.963	10.11
372.171	10.44
372.38	10.55
372.589	10.39
372.797	10.26
373.006	10.67
373.214	10.6
373.423	10.44
373.631	10.32
373.84	10.13
374.048	10.23
374.256	10.38
374.465	10.01
374.673	9.52
374.882	9.75
375.09	9.53
375.298	9.16
375.507	9.03
375.715	8.99
375.923	8.89
376.132	9.19
376.34	9.02
376.548	9.09
376.757	9.28
376.965	9.55
377.173	9.63
377.381	9.64
377.59	9.69
377.798	9.73
378.006	9.79
378.214	9.73
378.423	9.22
378.631	9.2
378.839	8.76
379.047	8.74
379.255	8.87
379.463	9.04
379.671	9.16
379.879	9.22
380.088	9.38
380.296	9.29
380.504	9.48
380.712	9.99
380.92	9.55
381.128	9.71
381.336	9.28
381.544	9.43
381.752	8.97
381.96	9.17
382.168	9.11
382.376	8.71
382.584	8.46
382.791	8.46
382.999	8.24
383.207	8.12
383.415	7.72
383.623	7.94
383.831	7.7
384.039	7.63
384.247	7.25
384.454	6.9
384.662	6.59
384.87	6.8
385.078	6.45
385.285	6.43
385.493	6.92
385.701	7.05
385.909	6.88
386.116	6.78
386.324	6.82
386.532	6.7
386.739	7.1
386.947	7.07
387.155	6.65
387.362	6.48
387.57	6.37
387.778	6.09
387.985	5.97
388.193	6.14
388.4	6.04
388.608	6.07
388.816	5.98
389.023	5.71
389.231	5.68
389.438	5.79
389.646	6.18
389.853	6.16
390.061	6.09
390.268	6.1
390.475	5.82
390.683	5.73
390.89	5.63
391.098	5.76
391.305	5.68
391.512	5.92
391.72	5.76
391.927	5.58
392.135	5.58
392.342	5.56
392.549	5.55
392.756	5.5
392.964	5.38
393.171	5.56
393.378	5.6
393.586	5.63
393.793	5.69
394	5.67
394.207	5.44
394.414	5.32
394.622	5.27
394.829	5.13
395.036	5.3
395.243	5.42
395.45	5.24
395.657	5.08
395.864	4.99
396.072	4.82
396.279	4.95
396.486	5.19
396.693	5.01
396.9	5.11
397.107	5.11
397.314	5.07
397.521	5.01
397.728	4.96
397.935	5.07
398.142	4.94
398.349	4.7
398.556	4.56
398.763	4.33
398.97	4.44
399.177	4.43
399.383	4.42
399.59	4.24
399.797	4.22
400.004	4.33
400.211	4.12
400.418	4.33
400.625	4.59
400.831	4.77
401.038	4.83
401.245	4.76
401.452	4.59
401.658	4.56
401.865	4.55
402.072	4.62
402.279	4.41
402.485	4.53
402.692	4.47
402.899	4.33
403.105	4.13
403.312	4.28
403.519	4.48
403.725	4.53
403.932	4.74
404.138	4.72
404.345	4.73
404.552	4.94
404.758	4.86
404.965	4.85
405.171	4.92
405.378	4.88
405.584	4.84
405.791	4.67
405.997	4.72
406.204	4.52
406.41	4.59
406.617	4.34
406.823	4.24
407.029	4.23
407.236	4.18
407.442	4.14
407.649	4.34
407.855	4.11
408.061	4.17
408.268	4.01
408.474	3.98
408.68	3.93
408.887	4.06
409.093	3.98
409.299	4.01
409.505	3.95
409.712	3.77
409.918	3.82
410.124	3.94
410.33	3.72
410.537	3.79
410.743	3.82
410.949	3.98
411.155	4.02
411.361	3.98
411.567	3.81
411.773	3.89
411.98	4.01
412.186	3.95
412.392	3.88
412.598	4.12
412.804	3.97
413.01	3.88
413.216	3.72
413.422	3.8
413.628	3.84
413.834	4.07
414.04	4.08
414.246	3.92
414.452	4
414.658	3.88
414.864	3.85
415.07	3.94
415.275	4.16
415.481	4.07
415.687	4.06
415.893	4.06
416.099	3.99
416.305	3.94
416.511	4
416.716	3.8
416.922	3.95
417.128	3.95
417.334	3.97
417.539	3.88
417.745	3.95
417.951	3.86
418.157	3.89
418.362	3.86
418.568	3.8
418.774	3.78
418.979	3.89
419.185	3.85
419.391	3.74
419.596	3.78
419.802	3.72
420.008	3.65
420.213	4.31
420.419	4.21
420.624	4.25
420.83	4.31
421.035	4.34
421.241	4.26
421.446	4.27
421.652	4.34
421.857	4.27
422.063	4.3
422.268	4.33
422.474	3.61
422.679	3.64
422.885	3.61
423.09	3.52
423.295	3.49
423.501	3.5
423.706	3.5
423.911	3.52
424.117	3.48
424.322	3.38
424.527	3.41
424.733	3.52
424.938	3.58
425.143	3.49
425.349	3.49
425.554	3.5
425.759	3.48
425.964	3.34
426.169	3.22
426.375	3.3
426.58	3.53
426.785	3.43
426.99	3.33
427.195	3.28
427.4	3.35
427.605	3.44
427.811	3.58
428.016	3.61
428.221	3.71
428.426	3.8
428.631	3.76
428.836	3.66
429.041	3.64
429.246	3.73
429.451	3.83
429.656	3.84
429.861	3.85
430.066	3.79
430.271	3.64
430.476	3.58
430.681	3.51
430.886	3.49
431.09	3.35
431.295	3.42
431.5	3.39
431.705	3.27
431.91	3.27
432.115	3.28
432.32	3.26
432.524	3.31
432.729	3.23
432.934	3.33
433.139	3.34
433.343	3.4
433.548	3.4
433.753	3.29
433.958	3.3
434.162	3.25
434.367	3.26
434.572	3.2
434.776	3.3
434.981	3.39
435.186	3.34
435.39	3.33
435.595	3.38
435.799	3.35
436.004	3.42
436.209	3.42
436.413	3.51
436.618	3.48
436.822	3.6
437.027	3.53
437.231	3.5
437.436	3.49
437.64	3.33
437.845	3.33
438.049	3.35
438.253	3.36
438.458	3.34
438.662	3.29
438.867	3.19
439.071	3.2
439.275	3.18
439.48	3.22
439.684	3.22
439.888	3.26
440.093	3.28
440.297	3.27
440.501	3.31
440.706	3.26
440.91	3.26
441.114	3.31
441.318	3.27
441.523	3.32
441.727	3.37
441.931	3.33
442.135	3.47
442.339	3.39
442.543	3.43
442.748	3.37
442.952	3.42
443.156	3.38
443.36	3.35
443.564	3.33
443.768	3.28
443.972	3.18
444.176	3.18
444.38	3.11
444.584	3.16
444.788	3.19
444.992	3.24
445.196	3.21
445.4	3.25
445.604	3.21
445.808	3.18
446.012	3.2
446.216	3.22
446.42	3.27
446.624	3.24
446.828	3.21
447.032	3.15
447.235	3.07
447.439	3.06
447.643	2.98
447.847	3.07
448.051	3.06
448.254	3.09
448.458	3.09
448.662	2.99
448.866	3.1
449.069	3.15
449.273	3.16
449.477	3.09
449.681	3.19
449.884	3.28
450.088	3.25
450.292	3.29
450.495	3.16
450.699	3.26
450.902	3.27
451.106	3.19
451.31	3.14
451.513	3.12
451.717	3.08
451.92	3.03
452.124	3.03
452.327	3.06
452.531	3.08
452.734	3.16
452.938	2.97
453.141	2.97
453.345	3.06
453.548	3.07
453.752	3.11
453.955	3.22
454.158	3.24
454.362	3.29
454.565	3.35
454.769	3.35
454.972	3.44
455.175	3.41
455.379	3.45
455.582	3.37
455.785	3.4
455.988	3.31
456.192	3.37
456.395	3.41
456.598	3.3
456.801	3.17
457.005	3.11
457.208	3.07
457.411	3.13
457.614	3.12
457.817	3.13
458.021	3.09
458.224	3.16
458.427	3.08
458.63	3.06
458.833	3.11
459.036	3.07
459.239	3.06
459.442	3.06
459.645	3.11
459.848	3.15
460.051	3.2
460.254	3.19
460.457	3.19
460.66	3.2
460.863	3.13
461.066	3.1
461.269	3.12
461.472	3.19
461.675	3.18
461.878	3.2
462.081	3.17
462.284	3.11
462.486	3.13
462.689	3.13
462.892	3.24
463.095	3.27
463.298	3.26
463.5	3.36
463.703	3.32
463.906	3.27
464.109	3.14
464.311	3.15
464.514	3.24
464.717	3.28
464.92	3.28
465.122	3.23
465.325	3.26
465.528	3.3
465.73	3.3
465.933	3.34
466.135	3.37
466.338	3.45
466.541	3.46
466.743	3.4
466.946	3.43
467.148	3.41
467.351	3.4
467.553	3.46
467.756	3.4
467.958	3.48
468.161	3.49
468.363	3.44
468.566	3.35
468.768	3.3
468.971	3.25
469.173	3.08
469.375	3.12
469.578	3.12
469.78	2.93
469.983	2.99
470.185	2.88
470.387	2.83
470.59	2.94
470.792	3.08
470.994	3.18
471.196	3.24
471.399	3.41
471.601	3.36
471.803	3.4
472.005	3.51
472.208	3.47
472.41	3.47
472.612	3.48
472.814	3.38
473.016	3.28
473.218	3.14
473.421	3.14
473.623	3.14
473.825	3.11
474.027	3.07
474.229	3.06
474.431	3.12
474.633	3.1
474.835	3.12
475.037	3.13
475.239	3.09
475.441	3.23
475.643	3.21
475.845	3.12
476.047	3.09
476.249	3.12
476.451	3.13
476.653	3.09
476.855	3.09
477.057	3.08
477.258	3.21
477.46	3.37
477.662	3.27
477.864	3.25
478.066	3.23
478.268	3.24
478.469	3.13
478.671	3.09
478.873	3.07
479.075	3.12
479.276	3.07
479.478	2.94
479.68	2.84
479.882	2.85
480.083	2.89
480.285	2.95
480.487	2.98
480.688	3.08
480.89	3.11
481.091	3.11
481.293	3.1
481.495	3.1
481.696	3.09
481.898	3.12
482.099	3.13
482.301	3.11
482.502	3.11
482.704	3.1
482.905	3.06
483.107	3.04
483.308	3.06
483.51	3.06
483.711	3.08
483.913	3.07
484.114	3.04
484.315	3.03
484.517	3.06
484.718	3.06
484.92	3.1
485.121	3.18
485.322	3.21
485.524	3.19
485.725	3.2
485.926	3.22
486.127	3.24
486.329	3.25
486.53	3.25
486.731	3.25
486.932	3.25
487.134	3.23
487.335	3.22
487.536	3.25
487.737	3.22
487.938	3.22
488.139	3.16
488.341	3.2
488.542	3.28
488.743	3.3
488.944	3.27
489.145	3.27
489.346	3.28
489.547	3.22
489.748	3.18
489.949	3.22
490.15	3.22
490.351	3.26
490.552	3.24
490.753	3.2
490.954	3.18
491.155	3.2
491.356	3.2
491.557	3.19
491.758	3.25
491.959	3.25
492.159	3.23
492.36	3.21
492.561	3.25
492.762	3.24
492.963	3.19
493.164	3.25
493.364	3.33
493.565	3.33
493.766	3.35
493.967	3.33
494.167	3.33
494.368	3.33
494.569	3.38
494.769	3.32
494.97	3.36
495.171	3.35
495.371	3.33
495.572	3.27
495.773	3.27
495.973	3.25
496.174	3.29
496.375	3.3
496.575	3.37
496.776	3.35
496.976	3.44
497.177	3.42
497.377	3.47
497.578	3.44
497.778	3.46
497.979	3.51
498.179	3.55
498.38	3.49
498.58	3.56
498.78	3.54
498.981	3.44
499.181	3.38
499.382	3.4
499.582	3.43
499.782	3.51
499.983	3.51
500.183	3.41
500.383	3.51
500.584	3.48
500.784	3.42
500.984	3.43
501.184	3.49
501.385	3.51
501.585	3.55
501.785	3.46
501.985	3.43
502.185	3.42
502.386	3.41
502.586	3.32
502.786	3.45
502.986	3.49
503.186	3.49
503.386	3.56
503.586	3.59
503.786	3.59
503.987	3.77
504.187	3.81
504.387	3.88
504.587	3.97
504.787	3.97
504.987	3.85
505.187	3.93
505.387	3.94
505.587	3.88
505.786	3.92
505.986	3.84
506.186	3.75
506.386	3.79
506.586	3.77
506.786	3.77
506.986	3.8
507.186	3.84
507.386	3.75
507.585	3.76
507.785	3.81
507.985	3.76
508.185	3.77
508.384	3.8
508.584	3.77
508.784	3.65
508.984	3.61
509.183	3.59
509.383	3.58
509.583	3.61
509.782	3.61
509.982	3.64
510.182	3.61
510.381	3.73
510.581	3.67
510.781	3.67
510.98	3.81
511.18	3.83
511.379	3.85
511.579	3.86
511.778	3.89
511.978	3.91
512.177	3.88
512.377	3.94
512.576	3.84
512.776	3.83
512.975	3.83
513.175	3.78
513.374	3.83
513.573	3.82
513.773	3.77
513.972	3.72
514.172	3.72
514.371	3.74
514.57	3.7
514.77	3.83
514.969	3.97
515.168	4.03
515.367	4.04
515.567	4.05
515.766	4.11
515.965	4.21
516.164	4.25
516.364	4.2
516.563	4.14
516.762	4.11
516.961	4.13
517.16	4.09
517.359	4.02
517.559	4.04
517.758	4.07
517.957	4.05
518.156	4.03
518.355	3.98
518.554	4.05
518.753	4.17
518.952	4.24
519.151	4.17
519.35	4.19
519.549	4.27
519.748	4.26
519.947	4.24
520.146	4.21
520.345	4.19
520.544	4.28
520.743	4.29
520.942	4.29
521.141	4.37
521.339	4.4
521.538	4.37
521.737	4.33
521.936	4.37
522.135	4.42
522.333	4.46
522.532	4.48
522.731	4.48
522.93	4.4
523.129	4.35
523.327	4.36
523.526	4.39
523.725	4.42
523.923	4.5
524.122	4.47
524.321	4.48
524.519	4.5
524.718	4.48
524.917	4.48
525.115	4.51
525.314	4.53
525.512	4.5
525.711	4.45
525.909	4.43
526.108	4.41
526.306	4.41
526.505	4.38
526.703	4.38
526.902	4.43
527.1	4.44
527.299	4.46
527.497	4.5
527.696	4.54
527.894	4.61
528.092	4.62
528.291	4.63
528.489	4.64
528.688	4.67
528.886	4.71
529.084	4.72
529.283	4.81
529.481	4.8
529.679	4.76
529.877	4.74
530.076	4.74
530.274	4.74
530.472	4.78
530.67	4.81
530.869	4.77
531.067	4.73
531.265	4.77
531.463	4.73
531.661	4.77
531.859	4.81
532.057	4.83
532.255	4.81
532.454	4.83
532.652	4.82
532.85	4.84
533.048	4.9
533.246	4.96
533.444	4.94
533.642	4.97
533.84	4.99
534.038	5.02
534.236	4.96
534.434	5.08
534.632	5.1
534.83	5.15
535.027	5.2
535.225	5.24
535.423	5.22
535.621	5.26
535.819	5.26
536.017	5.28
536.215	5.35
536.412	5.4
536.61	5.35
536.808	5.42
537.006	5.42
537.203	5.46
537.401	5.47
537.599	5.53
537.797	5.59
537.994	5.64
538.192	5.64
538.39	5.61
538.587	5.69
538.785	5.78
538.983	5.81
539.18	5.8
539.378	5.81
539.575	5.8
539.773	5.78
539.97	5.76
540.168	5.74
540.366	5.78
540.563	5.78
540.761	5.82
540.958	5.75
541.155	5.75
541.353	5.83
541.55	5.84
541.748	5.93
541.945	6.01
542.143	6.03
542.34	6.07
542.537	6.12
542.735	6.2
542.932	6.22
543.129	6.3
543.327	6.32
543.524	6.26
543.721	6.27
543.919	6.24
544.116	6.26
544.313	6.41
544.51	6.43
544.708	6.46
544.905	6.48
545.102	6.47
545.299	6.48
545.496	6.52
545.693	6.59
545.891	6.66
546.088	6.75
546.285	6.73
546.482	6.77
546.679	6.83
546.876	6.95
547.073	6.97
547.27	7.1
547.467	7.2
547.664	7.3
547.861	7.4
548.058	7.37
548.255	7.42
548.452	7.52
548.649	7.55
548.846	7.63
549.043	7.6
549.24	7.69
549.437	7.6
549.633	7.56
549.83	7.47
550.027	7.53
550.224	7.65
550.421	7.7
550.618	7.73
550.814	7.72
551.011	7.71
551.208	7.77
551.405	7.92
551.601	8.09
551.798	8.24
551.995	8.41
552.191	8.37
552.388	8.36
552.585	8.38
552.781	8.41
552.978	8.42
553.175	8.47
553.371	8.38
553.568	8.26
553.764	8.28
553.961	8.24
554.157	8.37
554.354	8.52
554.55	8.69
554.747	8.65
554.943	8.68
555.14	8.71
555.336	8.83
555.533	9.03
555.729	9.08
555.926	9.11
556.122	9.2
556.318	9.16
556.515	9.21
556.711	9.19
556.907	9.32
557.104	9.46
557.3	9.53
557.496	9.69
557.693	9.67
557.889	9.67
558.085	9.63
558.281	9.78
558.478	9.86
558.674	9.88
558.87	9.88
559.066	9.91
559.262	9.94
559.459	10.12
559.655	10.07
559.851	10.12
560.047	10.25
560.243	10.37
560.439	10.3
560.635	10.32
560.831	10.39
561.027	10.45
561.223	10.49
561.419	10.5
561.615	10.36
561.811	10.27
562.007	10.45
562.203	10.47
562.399	10.52
562.595	10.66
562.791	10.66
562.987	10.76
563.183	10.8
563.379	10.91
563.575	10.96
563.771	11.17
563.966	11.32
564.162	11.29
564.358	11.41
564.554	11.42
564.75	11.44
564.945	11.55
565.141	11.57
565.337	11.75
565.533	11.72
565.728	11.86
565.924	11.86
566.12	12.01
566.315	12.06
566.511	12.1
566.707	12.26
566.902	12.32
567.098	12.3
567.293	12.33
567.489	12.37
567.684	12.53
567.88	12.63
568.076	12.6
568.271	12.61
568.467	12.68
568.662	12.78
568.858	12.8
569.053	12.88
569.248	12.98
569.444	13.03
569.639	12.92
569.835	12.86
570.03	12.82
570.225	12.93
570.421	12.95
570.616	13.04
570.812	13.1
571.007	13.13
571.202	13.16
571.397	13.23
571.593	13.22
571.788	13.36
571.983	13.48
572.178	13.48
572.374	13.59
572.569	13.56
572.764	13.6
572.959	13.62
573.154	13.66
573.35	13.68
573.545	13.71
573.74	13.69
573.935	13.8
574.13	13.85
574.325	13.96
574.52	13.98
574.715	14.18
574.91	14.18
575.105	14.15
575.3	14.22
575.495	14.3
575.69	14.33
575.885	14.42
576.08	14.44
576.275	14.56
576.47	14.6
576.665	14.64
576.86	14.52
577.055	14.65
577.25	14.86
577.444	14.87
577.639	14.98
577.834	14.95
578.029	15.12
578.224	15.03
578.418	15.06
578.613	15.14
578.808	15.2
579.003	15.31
579.197	15.16
579.392	15.08
579.587	15.11
579.781	15.16
579.976	15.3
580.171	15.38
580.365	15.49
580.56	15.35
580.755	15.38
580.949	15.34
581.144	15.34
581.338	15.49
581.533	15.56
581.727	15.53
581.922	15.49
582.116	15.55
582.311	15.49
582.505	15.44
582.7	15.44
582.894	15.29
583.089	15.21
583.283	15.32
583.478	15.45
583.672	15.43
583.866	15.49
584.061	15.31
584.255	15.3
584.449	15.27
584.644	15.37
584.838	15.46
585.032	15.61
585.226	15.92
585.421	15.95
585.615	15.85
585.809	15.83
586.003	15.95
586.198	16.08
586.392	16.05
586.586	16.05
586.78	16.12
586.974	16.06
587.168	16.09
587.363	16.03
587.557	16.01
587.751	16.07
587.945	16.22
588.139	16.15
588.333	16.19
588.527	16.27
588.721	16.31
588.915	16.36
589.109	16.44
589.303	16.51
589.497	16.39
589.691	16.37
589.885	16.39
590.079	16.17
590.273	16.16
590.466	16.13
590.66	16.24
590.854	16.37
591.048	16.37
591.242	16.43
591.436	16.37
591.629	16.54
591.823	16.59
592.017	16.63
592.211	16.89
592.404	17.02
592.598	17.08
592.792	16.96
592.986	16.98
593.179	16.92
593.373	16.98
593.567	17.02
593.76	17
593.954	17.04
594.147	17.19
594.341	17.08
594.535	16.88
594.728	17
594.922	17.1
595.115	17.08
595.309	17.16
595.502	17.08
595.696	17.14
595.889	17.12
596.083	17.19
596.276	17.04
596.47	17.17
596.663	17.38
596.856	17.38
597.05	17.39
597.243	17.34
597.437	17.32
597.63	17.34
597.823	17.26
598.017	17.34
598.21	17.34
598.403	17.38
598.596	17.25
598.79	17.12
598.983	17.03
599.176	16.94
599.369	16.95
599.563	16.77
599.756	16.77
599.949	16.83
600.142	16.78
600.335	16.65
600.528	16.8
600.722	17.03
600.915	17.04
601.108	17.16
601.301	17.2
601.494	17.25
601.687	17.49
601.88	17.58
602.073	17.56
602.266	17.52
602.459	17.67
602.652	17.55
602.845	17.46
603.038	17.55
603.231	17.54
603.424	17.55
603.617	17.64
603.809	17.58
604.002	17.51
604.195	17.57
604.388	17.59
604.581	17.44
604.774	17.48
604.966	17.43
605.159	17.37
605.352	17.23
605.545	17.35
605.737	17.27
605.93	17.26
606.123	17.37
606.316	17.32
606.508	17.44
606.701	17.57
606.894	17.67
607.086	17.69
607.279	17.73
607.471	17.84
607.664	17.79
607.857	17.79
608.049	17.85
608.242	17.73
608.434	17.92
608.627	17.87
608.819	17.79
609.012	17.66
609.204	17.75
609.397	17.92
609.589	18.06
609.782	18.14
609.974	18.2
610.166	18.15
610.359	18.43
610.551	18.22
610.743	18.22
610.936	18.33
611.128	18.25
611.32	18.27
611.513	18
611.705	17.79
611.897	17.64
612.09	17.49
612.282	17.59
612.474	17.26
612.666	17.29
612.858	17.42
613.051	17.53
613.243	17.51
613.435	17.48
613.627	17.57
613.819	17.55
614.011	17.56
614.203	17.79
614.395	17.94
614.588	18.25
614.78	18.22
614.972	18.26
615.164	18.01
615.356	18.31
615.548	18.28
615.74	18.29
615.932	18.53
616.124	18.58
616.315	18.68
616.507	18.48
616.699	18.31
616.891	18.41
617.083	18.3
617.275	18.41
617.467	18.25
617.659	18.34
617.85	18.19
618.042	17.93
618.234	17.93
618.426	17.7
618.618	17.68
618.809	17.75
619.001	17.73
619.193	17.7
619.384	17.8
619.576	17.81
619.768	17.76
619.959	18.11
620.151	18.41
620.343	18.18
620.534	18.23
620.726	18.18
620.917	18.1
621.109	18.08
621.301	18.19
621.492	18.09
621.684	18.13
621.875	18.34
622.067	18.13
622.258	18
622.45	18.38
622.641	18.48
622.832	18.46
623.024	18.58
623.215	18.7
623.407	18.67
623.598	18.66
623.789	18.73
623.981	18.59
624.172	18.58
624.363	18.45
624.555	18.33
624.746	18.35
624.937	18.3
625.129	18.26
625.32	18.19
625.511	18.21
625.702	18.29
625.893	18.23
626.085	18.26
626.276	18.38
626.467	18.48
626.658	18.55
626.849	18.52
627.04	18.65
627.231	18.81
627.422	18.95
627.614	19.01
627.805	19.09
627.996	19.1
628.187	19.11
628.378	19.04
628.569	18.96
628.76	19.02
628.951	18.91
629.142	18.95
629.332	18.71
629.523	18.51
629.714	18.64
629.905	18.5
630.096	18.62
630.287	18.57
630.478	18.69
630.669	18.67
630.859	18.8
631.05	18.83
631.241	18.84
631.432	18.85
631.623	18.88
631.813	18.73
632.004	18.81
632.195	18.66
632.385	18.73
632.576	18.67
632.767	18.76
632.957	18.65
633.148	18.8
633.339	18.77
633.529	18.94
633.72	19
633.91	19.14
634.101	19.04
634.292	19.31
634.482	19.34
634.673	19.43
634.863	19.6
635.054	19.58
635.244	19.41
635.435	19.37
635.625	19.4
635.815	19.4
636.006	19.32
636.196	19.34
636.387	19.21
636.577	19.02
636.767	18.85
636.958	18.59
637.148	18.66
637.338	18.83
637.529	18.87
637.719	18.85
637.909	18.71
638.099	18.79
638.29	18.81
638.48	18.81
638.67	19.08
638.86	19.36
639.05	19.63
639.241	19.46
639.431	19.35
639.621	19.39
639.811	19.35
640.001	19.47
640.191	19.22
640.381	19.28
640.571	19.18
640.761	19.05
640.951	18.65
641.141	18.49
641.331	18.56
641.521	18.65
641.711	18.58
641.901	18.44
642.091	18.47
642.281	18.58
642.471	18.55
642.661	18.61
642.851	18.66
643.041	18.81
643.231	18.95
643.42	18.95
643.61	18.81
643.8	19.03
643.99	19.26
644.18	19.21
644.369	19.13
644.559	19.27
644.749	19.25
644.939	19.11
645.128	19.4
645.318	19.18
645.508	19.1
645.697	19.05
645.887	19.01
646.076	18.78
646.266	18.79
646.456	18.93
646.645	18.6
646.835	18.63
647.024	18.64
647.214	18.44
647.403	18.45
647.593	18.47
647.782	18.75
647.972	18.61
648.161	18.99
648.351	19.14
648.54	19.01
648.73	19.25
648.919	19.2
649.108	19.36
649.298	19.43
649.487	19.69
649.677	19.78
649.866	19.66
650.055	19.72
650.244	19.47
650.434	19.55
650.623	19.62
650.812	19.6
651.002	19.71
651.191	19.69
651.38	19.71
651.569	19.57
651.758	19.59
651.947	19.6
652.137	19.68
652.326	19.53
652.515	19.24
652.704	19.3
652.893	19.21
653.082	19.06
653.271	19
653.46	18.7
653.649	18.63
653.838	18.67
654.027	18.54
654.216	18.67
654.405	18.97
654.594	19.35
654.783	19.27
654.972	19.59
655.161	19.7
655.35	19.7
655.539	20.07
655.728	20.13
655.916	19.94
656.105	20.05
656.294	19.89
656.483	19.78
656.672	19.64
656.86	19.66
657.049	19.4
657.238	19.19
657.427	19.25
657.615	19.06
657.804	19
657.993	19.17
658.181	19.35
658.37	19.18
658.559	19.11
658.747	19.09
658.936	19.23
659.125	19.66
659.313	19.8
659.502	19.72
659.69	19.89
659.879	19.85
660.067	19.76
660.256	19.55
660.444	19.65
660.633	19.63
660.821	19.77
661.01	19.62
661.198	19.24
661.387	19.35
661.575	19.25
661.763	19.02
661.952	19.06
662.14	19.26
662.328	19.32
662.517	19.46
662.705	19.56
662.893	19.48
663.082	19.51
663.27	19.53
663.458	19.56
663.646	19.69
663.834	20.09
664.023	20.26
664.211	20.12
664.399	20.24
664.587	20.15
664.775	20.28
664.963	20.12
665.152	20.09
665.34	20.18
665.528	20.18
665.716	20.26
665.904	20.07
666.092	19.92
666.28	19.85
666.468	19.85
666.656	20.04
666.844	19.83
667.032	19.99
667.22	19.99
667.408	20.03
667.596	19.99
667.784	20.06
667.971	20.14
668.159	20.19
668.347	20.4
668.535	20.45
668.723	20.36
668.911	20.58
669.098	20.49
669.286	20.71
669.474	20.64
669.662	20.64
669.849	20.5
670.037	20.38
670.225	20.64
670.413	20.6
670.6	20.52
670.788	20.44
670.976	20.22
671.163	20.4
671.351	20.11
671.538	20.08
671.726	20.06
671.913	20.21
672.101	20.12
672.289	19.68
672.476	19.4
672.664	19.46
672.851	19.52
673.039	19.64
673.226	19.65
673.413	19.64
673.601	19.38
673.788	19.38
673.976	19.48
674.163	19.99
674.35	20.29
674.538	20.52
674.725	20.5
674.912	20.67
675.1	20.83
675.287	20.63
675.474	20.81
675.662	20.95
675.849	21.08
676.036	21.06
676.223	20.82
676.411	20.71
676.598	20.61
676.785	20.59
676.972	20.72
677.159	20.75
677.346	20.85
677.533	20.72
677.721	20.78
677.908	20.52
678.095	20.37
678.282	20.15
678.469	20.24
678.656	20.35
678.843	20.19
679.03	19.85
679.217	19.78
679.404	19.86
679.591	19.84
679.778	19.95
679.964	19.75
680.151	19.85
680.338	20.1
680.525	20.12
680.712	19.9
680.899	20
681.086	20.22
681.272	20.07
681.459	20.02
681.646	20.16
681.833	20.04
682.02	20.54
682.206	20.31
682.393	20.24
682.58	20.27
682.766	20.51
682.953	20.7
683.14	20.7
683.326	20.7
683.513	20.8
683.7	20.9
683.886	20.8
684.073	20.62
684.259	20.56
684.446	20.3
684.632	20.19
684.819	20.08
685.005	19.65
685.192	19.65
685.378	19.68
685.565	19.42
685.751	19.23
685.938	19.57
686.124	19.81
686.31	19.83
686.497	19.96
686.683	19.88
686.87	19.81
687.056	19.95
687.242	19.79
687.429	19.96
687.615	20.23
687.801	20.27
687.987	19.9
688.174	19.71
688.36	20.02
688.546	20.02
688.732	20.39
688.918	20.71
689.105	21.04
689.291	21.22
689.477	21.14
689.663	21.03
689.849	21.09
690.035	21.38
690.221	21.41
690.407	21.4
690.593	21.75
690.779	21.78
690.965	21.57
691.151	21.34
691.337	21.2
691.523	21.37
691.709	21.83
691.895	22.09
692.081	21.99
692.267	22.01
692.453	21.99
692.639	21.63
692.825	21.12
693.011	21.15
693.196	21.24
693.382	21.2
693.568	21.04
693.754	20.18
693.94	20.24
694.125	20.2
694.311	19.92
694.497	19.77
694.682	19.56
694.868	19.91
695.054	19.92
695.239	19.98
695.425	20.16
695.611	20.46
695.796	20.78
695.982	20.15
696.168	19.99
696.353	20.28
696.539	20.27
696.724	20.45
696.91	20.48
697.095	20.5
697.281	20.49
697.466	20.4
697.652	20.15
697.837	20.04
698.023	20.39
698.208	20.57
698.393	20.63
698.579	20.74
698.764	20.64
698.949	20.62
699.135	20.55
699.32	20.46
699.505	20.56
699.691	20.74
699.876	21
700.061	20.94
700.246	20.76
700.432	20.74
700.617	20.47
700.802	20.63
700.987	20.58
701.172	20.57
701.358	20.64
701.543	20.63
701.728	20.35
701.913	19.95
702.098	19.42
702.283	19.42
702.468	19.35
702.653	19.59
702.838	19.45
703.023	19.29
703.208	19.48
703.393	19.75
703.578	19.46
703.763	19.71
703.948	20.27
704.133	20.71
704.318	20.96
704.503	21
704.688	20.75
704.873	20.86
705.057	21.06
705.242	21.14
705.427	20.99
705.612	21.41
705.797	21.5
705.981	21.29
706.166	21.36
706.351	21.05
706.536	20.99
706.72	21.08
706.905	21.06
707.09	20.93
707.274	20.94
707.459	20.89
707.644	20.58
707.828	20.45
708.013	20.28
708.197	20.43
708.382	20.8
708.567	20.88
708.751	20.96
708.936	21.4
709.12	21.78
709.305	21.62
709.489	21.63
709.673	21.84
709.858	21.59
710.042	21.95
710.227	22
710.411	22.01
710.596	22.08
710.78	21.89
710.964	21.43
711.149	21.28
711.333	21.31
711.517	21.29
711.702	21.11
711.886	21.35
712.07	21.2
712.254	21.46
712.438	21.24
712.623	21.03
712.807	21.15
712.991	21.61
713.175	21.76
713.359	21.74
713.544	21.7
713.728	21.89
713.912	21.89
714.096	21.52
714.28	21.13
714.464	21.01
714.648	21.03
714.832	21.2
715.016	21.03
715.2	20.69
715.384	20.74
715.568	20.86
715.752	20.74
715.936	20.96
716.12	21.13
716.304	21.23
716.488	21.5
716.671	21.77
716.855	21.93
717.039	21.62
717.223	21.69
717.407	21.51
717.59	21.51
717.774	21.52
717.958	21.54
718.142	21.38
718.325	21.41
718.509	21.3
718.693	21.21
718.877	20.92
719.06	20.97
719.244	21.29
719.428	21.67
719.611	21.45
719.795	21.66
719.978	21.06
720.162	21
720.345	20.9
720.529	21.38
720.713	21.51
720.896	22.07
721.08	21.71
721.263	21.63
721.446	21.5
721.63	21.7
721.813	21.59
721.997	21.75
722.18	21.86
722.364	21.61
722.547	20.9
722.73	21.15
722.914	21.22
723.097	21.92
723.28	21.55
723.464	21.52
723.647	21.65
723.83	21.45
724.013	21.84
724.197	22.23
724.38	22.09
724.563	22.16
724.746	21.87
724.929	21.43
725.112	21.14
725.296	21.26
725.479	21.12
725.662	21.13
725.845	21.63
726.028	21.49
726.211	21.23
726.394	21.55
726.577	21.7
726.76	21.04
726.943	21.24
727.126	21.07
727.309	21.45
727.492	21.65
727.675	21.49
727.858	21.43
728.041	21.42
728.224	21.57
728.407	21.21
728.589	21.15
728.772	21.75
728.955	21.47
729.138	21.63
729.321	21.45
729.503	21.31
729.686	20.96
729.869	20.72
730.052	20.57
730.234	20.44
730.417	20.58
730.6	20.82
730.782	20.45
730.965	20.44
731.148	20.38
731.33	20.31
731.513	20.19
731.695	20.61
731.878	20.46
732.061	20.57
732.243	20.68
732.426	20.97
732.608	21.06
732.791	21.09
732.973	21.28
733.156	21.36
733.338	21.67
733.52	21.8
733.703	21.67
733.885	21.98
734.068	21.65
734.25	21.59
734.432	21.49
734.615	21.24
734.797	21.43
734.979	21.3
735.162	21.42
735.344	20.71
735.526	20.9
735.708	21.12
735.891	20.65
736.073	21.48
736.255	21.43
736.437	21.25
736.619	21.19
736.802	21.18
736.984	21.18
737.166	21.8
737.348	21.54
737.53	21.44
737.712	21.02
737.894	21.37
738.076	21.02
738.258	21.08
738.44	21.63
738.622	21.82
738.804	22.03
738.986	21.93
739.168	21.14
739.35	21.75
739.532	21.5
739.714	21.52
739.896	21.49
740.078	21.37
740.259	21.49
740.441	21.07
740.623	20.96
740.805	20.86
740.987	21.11
741.168	21.44
741.35	21.44
741.532	21.85
741.714	22.05
741.895	22.14
742.077	22.39
742.259	22.35
742.44	22.9
742.622	23.13
742.804	22.57
742.985	22.64
743.167	22.29
743.348	22.26
743.53	21.73
743.711	21.64
743.893	21.07
744.075	20.88
744.256	20.94
744.438	20.74
744.619	20.21
744.8	20.69
744.982	20.51
745.163	20.55
745.345	20.27
745.526	20.8
745.707	21.32
745.889	21.34
746.07	21.49
746.252	21.41
746.433	21.24
746.614	21.39
746.795	21.08
746.977	21.33
747.158	21.53
747.339	21.96
747.52	21.95
747.702	21.89
747.883	22.08
748.064	21.96
748.245	21.85
748.426	21.8
748.607	22.43
748.788	23.15
748.97	23.7
749.151	23.95
749.332	23.92
749.513	23.9
749.694	23.69
749.875	24.49
750.056	24.5
750.237	24.85
750.418	24.93
750.599	24.2
750.78	23.68
750.96	23.06
751.141	23
751.322	22.58
751.503	22.44
751.684	22.72
751.865	22.1
752.046	22.17
752.226	21.92
752.407	21.98
752.588	22.45
752.769	22.51
752.949	22.65
753.13	22.96
753.311	24.04
753.492	24.45
753.672	24
753.853	24.33
754.034	23.67
754.214	23.41
754.395	23.34
754.575	23.41
754.756	23.71
754.937	23.9
755.117	23.37
755.298	22.74
755.478	22.13
755.659	22.19
755.839	22.41
756.02	22.67
756.2	22.6
756.381	22.35
756.561	21.48
756.741	22.01
756.922	21.88
757.102	21.53
757.283	21.28
757.463	21.34
757.643	22.16
757.823	22.06
758.004	21.64
758.184	22.32
758.364	22.59
758.545	22.91
758.725	22.56
758.905	22.36
759.085	22.77
759.265	23.06
759.446	23.28
759.626	22.52
759.806	22.52
759.986	23.75
760.166	23.4
760.346	23.23
760.526	23.18
760.706	23.18
760.886	22.68
761.066	22.72
761.246	22.73
761.426	22.53
761.606	22.64
761.786	22.27
761.966	21.83
762.146	22.04
762.326	21.84
762.506	21.88
762.686	22.19
762.866	22.67
763.046	22.5
763.225	22.02
763.405	21.67
763.585	21.43
763.765	21.67
763.945	21.71
764.124	22.1
764.304	22.61
764.484	23.07
764.664	22.76
764.843	22.76
765.023	22.92
765.203	23.16
765.382	23.56
765.562	23.55
765.741	23.54
765.921	24.06
766.101	23.87
766.28	23.21
766.46	23.06
766.639	22.46
766.819	21.98
766.998	21.8
767.178	22.03
767.357	21.85
767.537	22.58
767.716	22.94
767.896	22.98
768.075	22.16
768.254	22.33
768.434	21.85
768.613	22.64
768.792	22.85
768.972	23.22
769.151	23.64
769.33	24.3
769.51	23.74
769.689	23.89
769.868	23.65
770.047	24.26
770.226	24.6
770.406	24.96
770.585	24.03
770.764	23.68
770.943	23.35
771.122	22.87
771.301	22.53
771.48	22.62
771.66	21.86
771.839	20.63
772.018	19.52
772.197	19.68
772.376	20.13
772.555	20.87
772.734	21.21
772.913	21.55
773.092	21.6
773.271	21.62
773.449	21.48
773.628	22.14
773.807	23.24
773.986	23.97
774.165	23.7
774.344	23.93
774.523	23.39
774.701	23.72
774.88	23.65
775.059	24.36
775.238	24.43
775.417	24.22
775.595	23.42
775.774	22.15
775.953	21.74
776.131	21.79
776.31	20.8
776.489	21.62
776.667	20.87
776.846	20.22
777.025	19.44
777.203	19.31
777.382	19.99
777.56	20.54
777.739	21.93
777.917	22.13
778.096	21.59
778.274	21.87
778.453	21.53
778.631	22.45
778.81	22.73
778.988	23.1
779.166	23.33
779.345	22.94
779.523	23.05
779.702	21.91
779.88	22.54
780.058	22.94
780.237	22.85
780.415	23.22
780.593	22.46
780.771	23.03
780.95	22.27
781.128	22.44
781.306	22.86
781.484	22.46
781.662	23.79
781.841	22.94
782.019	22.95
782.197	22.66
782.375	21.64
782.553	21.92
782.731	20.59
782.909	21.2
783.087	21.39
783.265	21.66
783.443	22.19
783.621	22.17
783.799	23.03
783.977	23.29
784.155	24.71
784.333	25.72
784.511	25.92
784.689	26.8
784.867	27.2
785.045	27.18
785.223	26.21
785.4	26.36
785.578	25.54
785.756	24.42
785.934	24.25
786.112	24.38
786.289	24.92
786.467	23.86
786.645	24.08
786.823	23.89
787	24.46
787.178	24.28
787.356	22.86
787.533	22.84
787.711	22.97
787.889	23.37
788.066	22.07
788.244	21.31
788.421	22.18
788.599	21.84
788.776	21.47
788.954	20.57
789.131	21.08
789.309	22.1
789.486	21.65
789.664	21.65
789.841	21.41
790.019	21.46
790.196	22.1
790.373	21.77
790.551	22.5
790.728	22.47
790.906	22.82
791.083	22.3
791.26	22.2
791.437	23.24
791.615	23.58
791.792	23.5
791.969	23.61
792.146	22.08
792.324	22.66
792.501	23.66
792.678	23.21
792.855	23.53
793.032	24.72
793.209	23.66
793.387	23.21
793.564	23.31
793.741	24.59
793.918	24.88
794.095	25.19
794.272	25.54
794.449	24.21
794.626	25
794.803	24.49
794.98	23.79
795.157	24.46
795.334	24.43
795.511	23.78
795.688	22.4
795.864	23.01
796.041	22.93
796.218	21.94
796.395	21.81
796.572	21.69
796.749	22.12
796.925	21.73
797.102	21.82
797.279	22.14
797.456	22.96
797.632	23.14
797.809	22.78
797.986	22.51
798.162	23.02
798.339	22.65
798.516	22.74
798.692	22.18
798.869	23.3
799.046	23.27
799.222	22.84
799.399	23.15
799.575	22.86
799.752	22.28
799.928	22.33
800.105	21.66
800.281	21.89
800.458	22.17
800.634	22.12
800.811	21.3
800.987	21.49
801.163	21.21
801.34	20.37
801.516	20.52
801.692	21.42
801.869	22.04
802.045	22.94
802.221	23.47
802.398	21.98
802.574	21.3
802.75	20.57
802.926	20.6
803.103	20.16
803.279	21.44
803.455	21.61
803.631	21
803.807	20.55
803.983	21.19
804.16	21.08
804.336	22.37
804.512	23.24
804.688	23.62
804.864	22.56
805.04	23.38
805.216	21.73
805.392	21.76
805.568	21.76
805.744	22.66
805.92	22
806.096	21.76
806.272	21.3
806.448	20.77
806.623	20.86
806.799	21.6
806.975	22.43
807.151	22.74
807.327	22.95
807.503	23.03
807.678	23.26
807.854	23.27
808.03	23.49
808.206	23.68
808.381	23.76
808.557	25.16
808.733	25.7
808.908	24.65
809.084	25.31
809.26	25.93
809.435	25.84
809.611	25.05
809.787	24.69
809.962	24.24
810.138	24.66
810.313	24.51
810.489	23.05
810.664	22.4
810.84	22.49
811.015	22.71
811.191	21.7
811.366	22.25
811.542	21.58
811.717	22.42
811.892	22.84
812.068	23.37
812.243	22.46
812.419	22.62
812.594	24.34
812.769	26.15
812.944	25.1
813.12	24.81
813.295	25.46
813.47	25.9
813.645	25.75
813.821	25.27
813.996	24.77
814.171	25.63
814.346	25.76
814.521	24.58
814.697	22.07
814.872	21.4
815.047	21.41
815.222	21.31
815.397	23.25
815.572	22.26
815.747	22.91
815.922	22.21
816.097	23.92
816.272	24.37
816.447	23.64
816.622	25.68
816.797	26.96
816.972	27.8
817.147	26.6
817.322	25.43
817.496	25.43
817.671	25.64
817.846	25.26
818.021	23.82
818.196	22.44
818.371	22.3
818.545	22.2
818.72	23.23
818.895	22.45
819.069	22.24
819.244	21.46
819.419	21.91
819.594	21.99
819.768	23.39
819.943	23.39
820.117	23.44
820.292	23.3
820.467	22.92
820.641	22.64
820.816	22.19
820.99	22.44
821.165	22.35
821.339	22.31
821.514	22.03
821.688	21.87
821.863	21.8
822.037	21.89
822.212	22.01
822.386	21.88
822.56	21.78
822.735	22.21
822.909	22.36
823.084	22.41
823.258	22.51
823.432	22.54
823.606	22.51
823.781	22.46
823.955	22.42
824.129	22.21
824.303	22.3
824.478	22.36
824.652	22.29
824.826	21.79
825	21.71
825.174	21.64
825.348	21.46
825.523	21.24
825.697	21.6
825.871	22.04
826.045	22.45
826.219	22.7
826.393	22.85
826.567	22.67
826.741	23.09
826.915	23.18
827.089	23.11
827.263	23.46
827.437	23.72
827.611	23.77
827.784	23.76
827.958	23.74
828.132	23.41
828.306	23.07
828.48	23.18
828.654	23.07
828.827	23.74
829.001	23.76
829.175	24.36
829.349	24.47
829.522	24.28
829.696	23.75
829.87	24.22
830.044	24.09
830.217	23.87
830.391	24.25
830.565	23.74
830.738	22.82
830.912	22.56
831.085	21.07
831.259	20.37
831.432	20.63
831.606	21.24
831.779	21.16
831.953	21.58
832.126	22.05
832.3	22.97
832.473	23.69
832.647	24.02
832.82	24.08
832.994	24.21
833.167	24.48
833.34	24.97
833.514	25.44
833.687	25.35
833.86	25.6
834.034	25.94
834.207	24.71
834.38	24.25
834.553	24.74
834.727	24.95
834.9	25.3
835.073	25.36
835.246	25.02
835.419	24.34
835.593	24.65
835.766	24.15
835.939	23.8
836.112	23.75
836.285	23.64
836.458	23.38
836.631	22.27
836.804	22.29
836.977	22.84
837.15	22.74
837.323	23.55
837.496	23.16
837.669	23.55
837.842	23.67
838.015	25.01
838.188	25.39
838.361	25.04
838.533	25.71
838.706	26.06
838.879	25.03
839.052	26.06
839.225	24.9
839.398	23.78
839.57	24.56
839.743	24.44
839.916	23.4
840.088	25.53
840.261	26.6
840.434	26.23
840.607	26.61
840.779	26.6
840.952	25.85
841.124	27.83
841.297	29.43
841.47	28.7
841.642	29.12
841.815	30.2
841.987	27.2
842.16	26.55
842.332	28.57
842.505	27.8
842.677	24.73
842.85	22.97
843.022	21.96
843.194	20.7
843.367	21.34
843.539	23.16
843.712	23.13
843.884	23.32
844.056	23.04
844.229	21.34
844.401	19.36
844.573	21.64
844.745	20.67
844.918	17.19
845.09	16.65
845.262	15.76
845.434	13.3
845.606	11.04
845.779	15.19
845.951	14.85
846.123	14.92
846.295	17.39
846.467	23.44
846.639	26.35
846.811	29.8
846.983	34.03
847.155	34.72
847.327	32.48
847.499	33.74
847.671	30.11
847.843	29.34
848.015	31.8
848.187	31.91
848.359	29.39
848.531	30.58
848.703	33.77
848.875	29.49
849.047	30.33
849.218	30.58
849.39	31.87
849.562	34.76
849.734	35.73
849.905	34.19
850.077	34.42
850.249	34.07
850.421	32.21
850.592	28.39
850.764	31.47
850.936	28.7
851.107	32.89
851.279	31.74
851.451	28.22
851.622	23.49
851.794	23.75
851.965	22.64
852.137	21.53
852.308	20.44
852.48	22.14
852.651	18.85
852.823	23.52
852.994	22.44
853.166	21.14
853.337	21.49
853.509	23.33
853.68	26.23
853.851	27.14
854.023	28.66
854.194	29.51
854.365	30.52
854.537	34.5
854.708	31.88
854.879	30.02
855.05	34.46
855.222	36.18
855.393	36.85
855.564	33.71
855.735	29.1
855.906	25.89
856.078	22.22
856.249	17.94
856.42	21.45
856.591	23.41
856.762	20.73
856.933	15.63
857.104	13.97
857.275	15.43
857.446	15.64
857.617	20.91
857.788	25.09
857.959	30.67
858.13	32.22
858.301	28.59
858.472	27.53
858.643	29.73
858.814	29.31
858.985	28.62
859.155	27.12
859.326	23.52
859.497	21.45
859.668	20.43
859.839	21.5
860.009	21.05
860.18	19.84
860.351	19.32
860.522	21.61
860.692	20.61
860.863	23.8
861.034	23.01
861.204	27.35
861.375	30.33
861.546	31.71
861.716	27.86
861.887	28.43
862.057	28.68
862.228	31.86
862.398	32.09
862.569	36.69
862.739	36.36
862.91	37.78
863.08	37.98
863.251	32.03
863.421	24.68
863.592	25.98
863.762	28.04
863.932	28.3
864.103	25.82
864.273	21.16
864.443	17.19
864.614	15.21
864.784	18.58
864.954	15.16
865.125	22.63
865.295	30.59
865.465	35.76
865.635	34.39
865.805	35.28
865.976	36.05
866.146	39.69
866.316	42.65
866.486	44.39
866.656	41.56
866.826	45.63
866.996	41.6
867.166	37.63
867.336	32
867.506	33.62
867.676	34.08
867.846	32.56
868.016	33.52
868.186	30.79
868.356	28.05
868.526	28.25
868.696	26.45
868.866	31.52
869.036	32.21
869.206	36.15
869.376	28.5
869.545	26.18
869.715	26.18
869.885	27.3
870.055	26.52
870.224	27.13
870.394	30.94
870.564	35.02
870.734	29.39
870.903	26.51
871.073	23.46
871.243	30.07
871.412	32.17
871.582	29.47
871.751	31.86
871.921	38.79
872.091	42.81
872.26	36.32
872.43	32.69
872.599	32.66
872.769	34.53
872.938	36.3
873.108	31.79
873.277	32.83
873.446	35.71
873.616	28.3
873.785	25.87
873.955	27.58
874.124	31.95
874.293	33.26
874.463	34.49
874.632	39.44
874.801	34.27
874.971	36.9
875.14	36.1
875.309	32.39
875.478	34.3
875.647	34.53
875.817	30.07
875.986	29.86
876.155	29.3
876.324	28.92
876.493	26.61
876.662	28.85
876.831	25.12
877	25.21
877.17	28.51
877.339	31
877.508	30.74
877.677	30.06
877.846	26.66
878.015	25.84
878.184	20.25
878.352	17.4
878.521	20.42
878.69	22.25
878.859	21.49
879.028	23.35
879.197	24.37
879.366	24.2
879.534	23.99
879.703	24.19
879.872	25.15
880.041	28.58
880.21	29.15
880.378	29.02
880.547	28.26
880.716	27.69
880.884	28.45
881.053	27.19
881.222	27.87
881.39	28.48
881.559	28.48
881.727	28.01
881.896	28.07
882.065	27.73
882.233	26.83
882.402	26.96
882.57	27.18
882.739	26.23
882.907	26.31
883.076	25.57
883.244	25.77
883.412	26.12
883.581	26.31
883.749	26.23
883.918	25.42
884.086	25.1
884.254	24.89
884.423	24.86
884.591	24.75
884.759	23.79
884.927	24.07
885.096	22.62
885.264	22.2
885.432	21.47
885.6	20.45
885.769	22.46
885.937	23.91
886.105	24.98
886.273	26.33
886.441	25.3
886.609	26.71
886.777	24.23
886.945	25.7
887.113	24.93
887.281	26.41
887.449	26.44
887.617	28.72
887.785	28.28
887.953	29.12
888.121	24.84
888.289	28.6
888.457	30.66
888.625	33.86
888.793	32.02
888.961	33.14
889.129	31.92
889.296	29
889.464	25.24
889.632	25.52
889.8	21.55
889.967	23.81
890.135	18.23
