Data from 2938448_Reflection_1.txt Node
Date: Fri Jun 19 18:04:26 EDT 2015
User: robert
Spectrometer: USB4E03002
Autoset integration time: false
Trigger mode: 4
Integration Time (sec): 1.000000E-1
Scans to average: 10
Electric dark correction enabled: true
Nonlinearity correction enabled: false
Boxcar width: 5
Stray light correction enabled: false
XAxis mode: Wavelengths
Stop averaging: false
Number of Pixels in Spectrum: 3648
>>>>>Begin Spectral Data<<<<<
177.575	-410.28
177.794	-65.32
178.014	-65.59
178.233	-58.9
178.452	-16.22
178.672	-91.15
178.891	108.53
179.11	-558.69
179.33	-632.48
179.549	-208.94
179.768	-121.49
179.987	-136.27
180.207	-103.51
180.426	-163.31
180.645	-184.56
180.864	-381.09
181.084	656.06
181.303	366.9
181.522	241.36
181.741	287.09
181.96	218.11
182.179	206.85
182.398	177.24
182.618	213.18
182.837	246.06
183.056	246.56
183.275	251.4
183.494	208.63
183.713	233.61
183.932	268.85
184.151	275.43
184.37	384.36
184.589	609.06
184.808	541.64
185.027	469.53
185.246	408.67
185.465	857.31
185.684	546400
185.903	-356.05
186.122	-267.17
186.341	-240.41
186.56	-216.95
186.779	-161.97
186.998	-124.17
187.216	-35.5
187.435	-25.61
187.654	-17.51
187.873	13.67
188.092	-32.65
188.311	36.19
188.53	23.03
188.748	-56.89
188.967	40.85
189.186	-75.5
189.405	-321.32
189.623	-10557.14
189.842	-1195.01
190.061	-205.96
190.28	-576.85
190.498	-474.29
190.717	632.08
190.936	523.83
191.154	426.03
191.373	291.78
191.592	310.84
191.81	880.05
192.029	1507.79
192.248	359.73
192.466	359.9
192.685	424.9
192.904	275.88
193.122	568.26
193.341	-1748.88
193.559	4042.71
193.778	-8100.71
193.996	-1611.58
194.215	745.47
194.433	323.34
194.652	-831.39
194.87	-100.79
195.089	-55.59
195.307	-77.23
195.526	-390.43
195.744	243.46
195.963	365700
196.181	1350.07
196.399	529.01
196.618	389.9
196.836	457.39
197.055	311.24
197.273	276.6
197.491	295.03
197.71	222.64
197.928	287.17
198.146	267.89
198.365	153.21
198.583	165.81
198.801	212.95
199.019	342.79
199.238	238.02
199.456	266.56
199.674	311.52
199.892	-2703.88
200.111	-271.98
200.329	-201.25
200.547	-103.47
200.765	-48.94
200.983	-43.73
201.202	-47.53
201.42	-88.46
201.638	-150.11
201.856	-126.52
202.074	-167.15
202.292	-147.37
202.51	-221.56
202.728	-255.71
202.946	-1465.13
203.165	-14840.79
203.383	1582.77
203.601	411.41
203.819	1076.2
204.037	-675.49
204.255	-383.36
204.473	-224.34
204.691	-292.99
204.909	-214.97
205.127	-79.07
205.345	-62.97
205.562	-38.17
205.78	-32.74
205.998	-85.81
206.216	-208.04
206.434	-1257.82
206.652	654.69
206.87	415.48
207.088	3915.83
207.306	556.22
207.523	224.07
207.741	169.34
207.959	174.28
208.177	162.68
208.395	143.29
208.612	150.9
208.83	126.32
209.048	123.58
209.266	93.47
209.483	77.22
209.701	72.27
209.919	86.45
210.136	113.81
210.354	92.15
210.572	108.24
210.79	152.48
211.007	162.77
211.225	166.05
211.442	168.14
211.66	144.3
211.878	99.82
212.095	137.87
212.313	132.63
212.53	120.61
212.748	119.54
212.966	144.99
213.183	117.3
213.401	126.12
213.618	161.3
213.836	163.58
214.053	160.81
214.271	336.37
214.488	223.12
214.705	258.59
214.923	272.84
215.14	264.99
215.358	232.1
215.575	562.23
215.793	381.54
216.01	211.36
216.227	184.39
216.445	262.73
216.662	179.61
216.879	169.53
217.097	143.68
217.314	114.02
217.531	134.91
217.749	101.86
217.966	95.38
218.183	95.25
218.4	97.73
218.618	89.16
218.835	74.79
219.052	86.56
219.269	71.26
219.487	72.8
219.704	66.21
219.921	49.2
220.138	65.99
220.355	77.11
220.572	72.82
220.79	47.33
221.007	51.06
221.224	54.72
221.441	50.39
221.658	53.34
221.875	44.27
222.092	14.87
222.309	25.75
222.526	31.47
222.743	25.04
222.96	22.4
223.177	31.29
223.394	29.48
223.611	27.77
223.828	29.74
224.045	28.74
224.262	28.96
224.479	41.02
224.696	35.07
224.913	28.9
225.13	28.81
225.347	26.95
225.564	24.4
225.781	23.56
225.997	23.57
226.214	21.76
226.431	21.29
226.648	18.76
226.865	16.91
227.082	16.31
227.298	15.72
227.515	14.34
227.732	14.58
227.949	15.18
228.165	15.21
228.382	15.26
228.599	13.14
228.816	11.05
229.032	9.85
229.249	10.46
229.466	11.56
229.682	12.43
229.899	11.97
230.116	12.51
230.332	11.36
230.549	11.9
230.765	11.85
230.982	13.52
231.199	17.41
231.415	21.98
231.632	21.33
231.848	21.35
232.065	20.46
232.281	21.34
232.498	19.53
232.714	19.65
232.931	19.63
233.147	19.58
233.364	21.31
233.58	18.19
233.797	20.67
234.013	22.26
234.23	20.69
234.446	21.62
234.662	18.64
234.879	19.86
235.095	18.57
235.312	18.52
235.528	20.68
235.744	17.98
235.961	18.95
236.177	14.12
236.393	14.21
236.61	15.42
236.826	14.74
237.042	17.17
237.258	16.12
237.475	15.69
237.691	15.14
237.907	13.89
238.123	14.87
238.339	15.4
238.556	15.88
238.772	15.14
238.988	14.47
239.204	14.39
239.42	14.47
239.636	15.43
239.853	15.28
240.069	15.02
240.285	15.21
240.501	14.89
240.717	13.95
240.933	13.82
241.149	14.08
241.365	14.26
241.581	14.48
241.797	14.72
242.013	14.36
242.229	14.38
242.445	14.07
242.661	12.52
242.877	12.12
243.093	12.44
243.309	12.13
243.525	11.69
243.741	11.72
243.957	11.36
244.173	10.64
244.388	9.89
244.604	9.66
244.82	10
245.036	10.2
245.252	10.32
245.468	9.86
245.683	9.53
245.899	9.33
246.115	8.94
246.331	8.67
246.547	8.48
246.762	8.75
246.978	8.9
247.194	8.76
247.409	8.64
247.625	8.73
247.841	8.28
248.057	8.95
248.272	8.77
248.488	8.38
248.703	7.94
248.919	8.88
249.135	8.4
249.35	8.99
249.566	8.53
249.782	9.3
249.997	9.41
250.213	10.09
250.428	8.85
250.644	9.31
250.859	9.74
251.075	11.06
251.29	10.43
251.506	10.41
251.721	10.78
251.937	11.44
252.152	10.83
252.368	9.81
252.583	11.03
252.798	13.02
253.014	12.75
253.229	12.65
253.445	10.99
253.66	10.75
253.875	11.61
254.091	9.95
254.306	8.78
254.521	9.14
254.737	9.93
254.952	8.05
255.167	7.25
255.383	7.94
255.598	9.05
255.813	9.37
256.028	9.8
256.244	8.94
256.459	8.87
256.674	8.28
256.889	7.46
257.104	7.43
257.32	7.54
257.535	6.84
257.75	6.21
257.965	5.49
258.18	5.65
258.395	5.59
258.61	5.83
258.826	5.9
259.041	6
259.256	6.38
259.471	6.24
259.686	6.53
259.901	7.05
260.116	7.39
260.331	8.1
260.546	8.55
260.761	8.43
260.976	8.56
261.191	8.86
261.406	9.72
261.621	9.51
261.836	8.95
262.05	8.23
262.265	8.29
262.48	8.73
262.695	8.66
262.91	8.42
263.125	8.24
263.34	8.43
263.555	7.54
263.769	6.1
263.984	7.01
264.199	7.67
264.414	8.53
264.629	8.29
264.843	7.04
265.058	7.14
265.273	7
265.488	7.52
265.702	7.04
265.917	7.77
266.132	8.75
266.346	8.6
266.561	8.85
266.776	8.86
266.99	8.81
267.205	9.74
267.42	9.43
267.634	9.03
267.849	8.47
268.063	8.74
268.278	8.16
268.492	7.97
268.707	7.21
268.922	6.76
269.136	6.16
269.351	5.99
269.565	5.93
269.78	5.7
269.994	6
270.209	6.45
270.423	6.11
270.637	6.62
270.852	6.69
271.066	7.28
271.281	8.04
271.495	8.65
271.709	8.69
271.924	8.9
272.138	9.55
272.353	9.74
272.567	9.71
272.781	10.22
272.996	9.86
273.21	10.17
273.424	10
273.638	9.04
273.853	8.76
274.067	8.43
274.281	8.06
274.495	7.77
274.71	7.54
274.924	7.57
275.138	7.44
275.352	7.43
275.566	7.48
275.781	7.26
275.995	8.06
276.209	8.33
276.423	8.72
276.637	8.68
276.851	7.95
277.065	8.52
277.279	8.84
277.493	8.65
277.707	8.3
277.921	7.93
278.135	8.34
278.349	7.63
278.563	7.21
278.777	6.95
278.991	7.13
279.205	7.3
279.419	6.59
279.633	6.87
279.847	6.87
280.061	7.49
280.275	7.43
280.489	6.95
280.703	6.98
280.917	6.83
281.131	6.65
281.344	6.73
281.558	6.13
281.772	6.25
281.986	5.6
282.2	5.76
282.414	5.14
282.627	4.63
282.841	4.98
283.055	5.6
283.269	6.09
283.482	6.56
283.696	6.39
283.91	7.44
284.123	6.88
284.337	6.62
284.551	6.23
284.764	6.44
284.978	6.92
285.192	6.66
285.405	6.99
285.619	6.8
285.833	6.9
286.046	6.79
286.26	6.68
286.473	7.24
286.687	7.5
286.9	7.83
287.114	7.82
287.327	7.82
287.541	7.31
287.754	6.41
287.968	6.14
288.181	5.76
288.395	5.97
288.608	5.91
288.822	6.23
289.035	6.46
289.248	6.28
289.462	6.48
289.675	6.47
289.889	7.58
290.102	7.35
290.315	7.62
290.529	8.22
290.742	8.14
290.955	8.3
291.169	7.9
291.382	7.66
291.595	7.69
291.808	8.21
292.022	7.9
292.235	7.21
292.448	7.51
292.661	7.15
292.875	6.75
293.088	7.08
293.301	7.82
293.514	7.8
293.727	7.99
293.94	8.13
294.153	7.5
294.367	7.85
294.58	7.99
294.793	7.54
295.006	8.09
295.219	8.38
295.432	8.55
295.645	7.73
295.858	7.9
296.071	7.76
296.284	8.17
296.497	8.37
296.71	8.3
296.923	8.41
297.136	8.85
297.349	8.41
297.562	8
297.775	7.62
297.988	7.91
298.201	8.2
298.414	8.27
298.626	7.82
298.839	7.63
299.052	7.53
299.265	7.43
299.478	7.03
299.691	6.94
299.903	7.34
300.116	7.18
300.329	6.79
300.542	6.65
300.755	7.22
300.967	7.59
301.18	7.95
301.393	7.93
301.605	8.07
301.818	8.8
302.031	8.85
302.243	8.95
302.456	8.84
302.669	9.18
302.881	9.75
303.094	9.5
303.307	9.26
303.519	9.11
303.732	9.54
303.944	10
304.157	10.65
304.37	10.98
304.582	10.84
304.795	11.24
305.007	11.56
305.22	10.57
305.432	10.28
305.645	10.2
305.857	10.71
306.069	10.86
306.282	10.07
306.494	9.29
306.707	8.75
306.919	8.54
307.132	8.29
307.344	8.13
307.556	8.4
307.769	8.83
307.981	9.05
308.193	8.53
308.406	8.02
308.618	8.45
308.83	8.16
309.043	8.34
309.255	7.98
309.467	7.93
309.679	7.63
309.892	7.2
310.104	6.58
310.316	6.93
310.528	7.27
310.74	7.25
310.953	7.02
311.165	7.31
311.377	7.28
311.589	7.77
311.801	8.64
312.013	8.35
312.225	8.97
312.437	9.83
312.649	9.61
312.862	8.91
313.074	8.89
313.286	9.05
313.498	9.18
313.71	9.53
313.922	9.63
314.134	9.43
314.346	9.95
314.558	9.61
314.77	9.38
314.982	9.22
315.193	9.91
315.405	9.93
315.617	9.48
315.829	10.24
316.041	9.83
316.253	10.27
316.465	9.52
316.677	9.13
316.888	9.29
317.1	9.24
317.312	9.18
317.524	8.54
317.736	9.42
317.947	10.72
318.159	9.86
318.371	10.1
318.583	9.59
318.794	10.54
319.006	10.71
319.218	10.46
319.43	9.8
319.641	9.58
319.853	9.87
320.064	9.81
320.276	9.54
320.488	9.47
320.699	9.44
320.911	9.07
321.123	8.07
321.334	8.67
321.546	9.09
321.757	9.63
321.969	9.88
322.18	9.91
322.392	9.14
322.603	8.27
322.815	8.36
323.026	8.31
323.238	8.55
323.449	8.46
323.661	8.14
323.872	7.71
324.083	7.52
324.295	7.62
324.506	7.83
324.718	7.91
324.929	7.75
325.14	7.69
325.352	8.38
325.563	8.34
325.774	9.08
325.986	9.18
326.197	9.32
326.408	9.77
326.62	10.11
326.831	9.89
327.042	9.48
327.253	10.07
327.464	10.78
327.676	10.09
327.887	10.04
328.098	9.84
328.309	10.03
328.52	10.02
328.732	9.42
328.943	9.45
329.154	9.58
329.365	10.25
329.576	9.97
329.787	9.1
329.998	9.31
330.209	9.74
330.42	9.78
330.631	9.16
330.842	9.98
331.053	10.11
331.264	9.81
331.475	10.07
331.686	9.88
331.897	10.22
332.108	10.66
332.319	10.95
332.53	10.72
332.741	10.5
332.952	11.08
333.163	10.82
333.374	11.12
333.585	10.76
333.795	10.93
334.006	11.08
334.217	11.06
334.428	11.02
334.639	11.15
334.849	11.12
335.06	11.11
335.271	11.09
335.482	10.71
335.692	10.55
335.903	10.38
336.114	9.75
336.325	9.78
336.535	9.66
336.746	9.92
336.957	10.17
337.167	10.55
337.378	10.71
337.589	11.2
337.799	11.1
338.01	11.56
338.22	12.19
338.431	12.34
338.642	12.79
338.852	13.13
339.063	12.8
339.273	12.27
339.484	11.54
339.694	11.36
339.905	11.31
340.115	11.43
340.326	10.73
340.536	10.64
340.746	10.6
340.957	9.8
341.167	9.57
341.378	9.57
341.588	9.41
341.799	9.38
342.009	8.94
342.219	7.78
342.43	7.66
342.64	7.87
342.85	7.4
343.061	7.2
343.271	7.74
343.481	7.71
343.691	7.57
343.902	7.67
344.112	7.88
344.322	8.13
344.532	8.7
344.743	8.64
344.953	8.48
345.163	8.5
345.373	8.69
345.583	8.58
345.793	8.36
346.004	8.37
346.214	8.55
346.424	9.02
346.634	9.11
346.844	8.7
347.054	8.8
347.264	9.35
347.474	9.89
347.684	10.07
347.894	9.95
348.104	10.3
348.314	9.8
348.524	9.11
348.734	8.67
348.944	8.74
349.154	9.46
349.364	9.81
349.574	8.89
349.784	8.83
349.994	9.02
350.204	8.96
350.413	8.73
350.623	9.31
350.833	9.34
351.043	9.32
351.253	8.87
351.463	8.63
351.672	8.25
351.882	9.12
352.092	9.01
352.302	9.24
352.511	9.11
352.721	8.8
352.931	8.83
353.141	9.12
353.35	9.08
353.56	9.53
353.77	9.69
353.979	9.43
354.189	9
354.399	8.88
354.608	8.44
354.818	8.42
355.027	8.68
355.237	8.44
355.447	8.31
355.656	8.07
355.866	7.79
356.075	7.49
356.285	7.48
356.494	7.8
356.704	7.85
356.913	7.92
357.123	7.7
357.332	7.5
357.542	7.67
357.751	7.79
357.96	8.43
358.17	8.62
358.379	8.56
358.589	8.89
358.798	8.64
359.007	8.42
359.217	8.16
359.426	8.09
359.635	8.24
359.845	8.07
360.054	8
360.263	7.58
360.472	7.46
360.682	7.57
360.891	7.28
361.1	7.06
361.309	7.42
361.519	7.22
361.728	7.55
361.937	7.34
362.146	7.29
362.355	7.25
362.564	7.44
362.774	7.66
362.983	7.2
363.192	7.43
363.401	7.62
363.61	7.21
363.819	7.76
364.028	7.54
364.237	7.18
364.446	7.26
364.655	7.09
364.864	6.9
365.073	7.01
365.282	6.95
365.491	6.93
365.7	7.19
365.909	7.18
366.118	6.81
366.327	6.92
366.536	7.37
366.745	7.57
366.954	7.53
367.162	7.7
367.371	7.43
367.58	7.71
367.789	7.59
367.998	6.96
368.207	6.86
368.415	7.24
368.624	7.16
368.833	7.32
369.042	6.9
369.25	7.38
369.459	7.3
369.668	7.14
369.877	7.1
370.085	7.16
370.294	7.49
370.503	7.32
370.711	7.17
370.92	7.09
371.129	7.03
371.337	6.68
371.546	6.24
371.754	5.92
371.963	5.73
372.171	5.63
372.38	5.31
372.589	5.25
372.797	5.43
373.006	5.69
373.214	5.45
373.423	5.2
373.631	5.68
373.84	5.77
374.048	5.92
374.256	6.07
374.465	6.12
374.673	6.15
374.882	6.03
375.09	5.96
375.298	5.49
375.507	5.86
375.715	5.9
375.923	5.86
376.132	5.91
376.34	5.79
376.548	5.75
376.757	5.78
376.965	5.81
377.173	6.02
377.381	6.17
377.59	6.51
377.798	6.37
378.006	6
378.214	6.11
378.423	6.14
378.631	6.11
378.839	6.3
379.047	6.31
379.255	6.1
379.463	5.95
379.671	5.7
379.879	5.46
380.088	5.38
380.296	5.72
380.504	5.48
380.712	5.59
380.92	5.6
381.128	5.15
381.336	4.61
381.544	4.51
381.752	4.31
381.96	3.98
382.168	3.98
382.376	4.15
382.584	3.86
382.791	4.29
382.999	4.11
383.207	4.05
383.415	4.33
383.623	5.06
383.831	5.33
384.039	5.56
384.247	5.88
384.454	5.81
384.662	5.5
384.87	5.67
385.078	5.09
385.285	5.07
385.493	5.24
385.701	5.18
385.909	4.91
386.116	4.87
386.324	4.69
386.532	4.82
386.739	4.79
386.947	4.65
387.155	4.75
387.362	5.09
387.57	5.14
387.778	5.06
387.985	5.02
388.193	4.96
388.4	4.74
388.608	4.75
388.816	4.5
389.023	4.25
389.231	4.37
389.438	4.17
389.646	4.04
389.853	3.77
390.061	3.67
390.268	3.61
390.475	3.67
390.683	3.89
390.89	3.77
391.098	3.78
391.305	4.16
391.512	4.13
391.72	4.17
391.927	4.04
392.135	3.95
392.342	3.99
392.549	4
392.756	4.02
392.964	3.85
393.171	4.12
393.378	4.23
393.586	4.04
393.793	4.1
394	3.91
394.207	4.01
394.414	4.23
394.622	4.28
394.829	4.21
395.036	4.06
395.243	4.12
395.45	3.81
395.657	3.64
395.864	3.71
396.072	3.66
396.279	3.65
396.486	3.54
396.693	3.47
396.9	3.28
397.107	3.39
397.314	3.35
397.521	3.22
397.728	3.31
397.935	3.39
398.142	3.24
398.349	3.32
398.556	3.23
398.763	3.21
398.97	3.16
399.177	3.27
399.383	3.24
399.59	3.34
399.797	3.45
400.004	3.34
400.211	3.35
400.418	3.32
400.625	3.2
400.831	3.35
401.038	3.46
401.245	3.52
401.452	3.3
401.658	3.23
401.865	3.07
402.072	3.01
402.279	3.15
402.485	2.99
402.692	2.93
402.899	2.84
403.105	2.97
403.312	2.94
403.519	3.02
403.725	3.16
403.932	3.18
404.138	3.22
404.345	3.17
404.552	3.05
404.758	3.18
404.965	3.24
405.171	3.1
405.378	2.96
405.584	2.78
405.791	2.7
405.997	2.72
406.204	2.73
406.41	2.68
406.617	2.84
406.823	2.83
407.029	2.78
407.236	2.9
407.442	3.14
407.649	3.38
407.855	3.52
408.061	3.52
408.268	3.51
408.474	3.47
408.68	3.43
408.887	3.48
409.093	3.6
409.299	3.61
409.505	3.42
409.712	3.31
409.918	3.05
410.124	3
410.33	2.89
410.537	2.84
410.743	2.83
410.949	2.98
411.155	2.93
411.361	2.82
411.567	2.78
411.773	2.74
411.98	2.75
412.186	2.92
412.392	2.75
412.598	2.86
412.804	2.82
413.01	2.73
413.216	2.67
413.422	2.69
413.628	2.63
413.834	2.6
414.04	2.72
414.246	2.68
414.452	2.63
414.658	2.63
414.864	2.51
415.07	2.54
415.275	2.62
415.481	2.57
415.687	2.37
415.893	2.35
416.099	2.22
416.305	2.21
416.511	2.34
416.716	2.27
416.922	2.31
417.128	2.37
417.334	2.24
417.539	2.13
417.745	2.12
417.951	2.14
418.157	2.13
418.362	2.19
418.568	2.11
418.774	2.04
418.979	1.97
419.185	1.97
419.391	1.95
419.596	2.05
419.802	2.03
420.008	2.07
420.213	1.65
420.419	1.74
420.624	1.75
420.83	1.67
421.035	1.67
421.241	1.67
421.446	1.72
421.652	1.72
421.857	1.7
422.063	1.76
422.268	1.73
422.474	2.14
422.679	2.08
422.885	2.07
423.09	2.08
423.295	2.11
423.501	2.13
423.706	2.07
423.911	1.99
424.117	1.95
424.322	1.93
424.527	1.96
424.733	2.02
424.938	1.97
425.143	1.99
425.349	2.14
425.554	2.16
425.759	2.31
425.964	2.34
426.169	2.42
426.375	2.55
426.58	2.58
426.785	2.65
426.99	2.65
427.195	2.76
427.4	2.61
427.605	2.57
427.811	2.53
428.016	2.34
428.221	2.39
428.426	2.36
428.631	2.25
428.836	2.2
429.041	2.06
429.246	1.92
429.451	1.86
429.656	1.93
429.861	1.87
430.066	1.83
430.271	1.92
430.476	1.94
430.681	1.95
430.886	1.94
431.09	1.92
431.295	1.92
431.5	2.05
431.705	2.01
431.91	2.07
432.115	2.02
432.32	2.03
432.524	2.02
432.729	2.03
432.934	2.11
433.139	2.13
433.343	2.19
433.548	2.16
433.753	2.11
433.958	2.16
434.162	2.21
434.367	2.35
434.572	2.36
434.776	2.31
434.981	2.15
435.186	2.08
435.39	2.09
435.595	2.16
435.799	2.22
436.004	2.34
436.209	2.34
436.413	2.24
436.618	2.09
436.822	1.93
437.027	1.87
437.231	1.91
437.436	1.9
437.64	1.88
437.845	1.78
438.049	1.72
438.253	1.64
438.458	1.61
438.662	1.65
438.867	1.67
439.071	1.82
439.275	1.78
439.48	1.74
439.684	1.81
439.888	1.7
440.093	1.74
440.297	1.77
440.501	1.77
440.706	1.83
440.91	1.79
441.114	1.77
441.318	1.77
441.523	1.84
441.727	1.84
441.931	1.77
442.135	1.84
442.339	1.86
442.543	1.94
442.748	1.84
442.952	1.72
443.156	1.76
443.36	1.73
443.564	1.7
443.768	1.78
443.972	1.87
444.176	1.93
444.38	1.95
444.584	1.84
444.788	1.76
444.992	1.72
445.196	1.77
445.4	1.75
445.604	1.79
445.808	1.84
446.012	1.74
446.216	1.69
446.42	1.63
446.624	1.68
446.828	1.78
447.032	1.79
447.235	1.91
447.439	1.95
447.643	1.83
447.847	1.87
448.051	1.81
448.254	1.91
448.458	1.93
448.662	1.97
448.866	1.8
449.069	1.73
449.273	1.75
449.477	1.74
449.681	1.73
449.884	1.94
450.088	1.96
450.292	1.94
450.495	1.77
450.699	1.74
450.902	1.74
451.106	1.81
451.31	1.8
451.513	1.78
451.717	1.71
451.92	1.7
452.124	1.56
452.327	1.58
452.531	1.49
452.734	1.62
452.938	1.48
453.141	1.46
453.345	1.49
453.548	1.54
453.752	1.59
453.955	1.68
454.158	1.67
454.362	1.73
454.565	1.77
454.769	1.85
454.972	1.85
455.175	2.08
455.379	2.05
455.582	1.93
455.785	1.86
455.988	1.8
456.192	1.66
456.395	1.65
456.598	1.65
456.801	1.54
457.005	1.57
457.208	1.62
457.411	1.59
457.614	1.61
457.817	1.69
458.021	1.73
458.224	1.74
458.427	1.83
458.63	1.77
458.833	1.82
459.036	1.84
459.239	1.84
459.442	1.81
459.645	1.82
459.848	1.84
460.051	1.89
460.254	1.88
460.457	1.94
460.66	1.91
460.863	1.92
461.066	1.82
461.269	1.86
461.472	1.86
461.675	1.91
461.878	1.85
462.081	1.8
462.284	1.67
462.486	1.64
462.689	1.55
462.892	1.6
463.095	1.69
463.298	1.71
463.5	1.74
463.703	1.7
463.906	1.61
464.109	1.53
464.311	1.49
464.514	1.65
464.717	1.73
464.92	1.77
465.122	1.6
465.325	1.61
465.528	1.59
465.73	1.66
465.933	1.76
466.135	1.69
466.338	1.76
466.541	1.9
466.743	1.9
466.946	1.87
467.148	1.92
467.351	2.03
467.553	2.01
467.756	2.09
467.958	1.95
468.161	1.94
468.363	1.94
468.566	1.93
468.768	1.8
468.971	1.72
469.173	1.79
469.375	1.71
469.578	1.66
469.78	1.59
469.983	1.53
470.185	1.56
470.387	1.64
470.59	1.7
470.792	1.79
470.994	1.92
471.196	2.04
471.399	1.95
471.601	1.94
471.803	1.95
472.005	2
472.208	2.04
472.41	2.07
472.612	1.99
472.814	2.09
473.016	2.04
473.218	1.94
473.421	1.88
473.623	1.84
473.825	1.91
474.027	1.86
474.229	1.89
474.431	1.89
474.633	1.85
474.835	1.79
475.037	1.72
475.239	1.72
475.441	1.73
475.643	1.66
475.845	1.65
476.047	1.62
476.249	1.72
476.451	1.75
476.653	1.73
476.855	1.71
477.057	1.72
477.258	1.75
477.46	1.67
477.662	1.69
477.864	1.75
478.066	1.87
478.268	1.82
478.469	1.9
478.671	1.84
478.873	1.83
479.075	1.82
479.276	1.9
479.478	1.83
479.68	1.91
479.882	1.85
480.083	1.83
480.285	1.8
480.487	1.79
480.688	1.76
480.89	1.76
481.091	1.73
481.293	1.73
481.495	1.72
481.696	1.73
481.898	1.69
482.099	1.71
482.301	1.68
482.502	1.68
482.704	1.68
482.905	1.66
483.107	1.66
483.308	1.68
483.51	1.68
483.711	1.65
483.913	1.64
484.114	1.63
484.315	1.62
484.517	1.64
484.718	1.63
484.92	1.64
485.121	1.6
485.322	1.6
485.524	1.56
485.725	1.6
485.926	1.63
486.127	1.64
486.329	1.7
486.53	1.69
486.731	1.7
486.932	1.7
487.134	1.69
487.335	1.72
487.536	1.74
487.737	1.78
487.938	1.71
488.139	1.65
488.341	1.67
488.542	1.66
488.743	1.66
488.944	1.62
489.145	1.64
489.346	1.66
489.547	1.67
489.748	1.68
489.949	1.64
490.15	1.68
490.351	1.68
490.552	1.65
490.753	1.62
490.954	1.6
491.155	1.61
491.356	1.57
491.557	1.55
491.758	1.55
491.959	1.51
492.159	1.52
492.36	1.56
492.561	1.59
492.762	1.61
492.963	1.65
493.164	1.73
493.364	1.78
493.565	1.76
493.766	1.71
493.967	1.71
494.167	1.75
494.368	1.78
494.569	1.69
494.769	1.72
494.97	1.78
495.171	1.81
495.371	1.75
495.572	1.7
495.773	1.76
495.973	1.79
496.174	1.77
496.375	1.79
496.575	1.75
496.776	1.78
496.976	1.78
497.177	1.69
497.377	1.67
497.578	1.7
497.778	1.75
497.979	1.81
498.179	1.86
498.38	1.88
498.58	1.96
498.78	1.96
498.981	2.05
499.181	2.12
499.382	2.22
499.582	2.18
499.782	2.18
499.983	2.21
500.183	2.14
500.383	2.18
500.584	2.15
500.784	2.02
500.984	2.15
501.184	2.06
501.385	2.04
501.585	2.02
501.785	2.05
501.985	2.11
502.185	2
502.386	2.01
502.586	1.98
502.786	2.03
502.986	2
503.186	2
503.386	1.94
503.586	1.91
503.786	1.94
503.987	1.96
504.187	1.95
504.387	2
504.587	2.02
504.787	1.97
504.987	1.99
505.187	1.99
505.387	1.96
505.587	2.03
505.786	2.05
505.986	1.98
506.186	1.99
506.386	1.95
506.586	1.98
506.786	1.97
506.986	2.1
507.186	2.05
507.386	2.18
507.585	2.2
507.785	2.2
507.985	2.15
508.185	2.25
508.384	2.27
508.584	2.31
508.784	2.31
508.984	2.3
509.183	2.24
509.383	2.23
509.583	2.15
509.782	2.14
509.982	2.17
510.182	2.23
510.381	2.17
510.581	2.18
510.781	2.25
510.98	2.23
511.18	2.29
511.379	2.32
511.579	2.33
511.778	2.36
511.978	2.29
512.177	2.31
512.377	2.4
512.576	2.37
512.776	2.36
512.975	2.34
513.175	2.38
513.374	2.35
513.573	2.42
513.773	2.5
513.972	2.53
514.172	2.63
514.371	2.65
514.57	2.53
514.77	2.65
514.969	2.68
515.168	2.66
515.367	2.63
515.567	2.66
515.766	2.59
515.965	2.47
516.164	2.47
516.364	2.47
516.563	2.44
516.762	2.4
516.961	2.35
517.16	2.37
517.359	2.32
517.559	2.35
517.758	2.35
517.957	2.34
518.156	2.48
518.355	2.52
518.554	2.59
518.753	2.56
518.952	2.64
519.151	2.71
519.35	2.7
519.549	2.8
519.748	2.85
519.947	2.94
520.146	2.96
520.345	2.93
520.544	2.87
520.743	2.81
520.942	2.89
521.141	2.83
521.339	2.85
521.538	2.89
521.737	2.88
521.936	2.88
522.135	2.85
522.333	2.9
522.532	2.83
522.731	2.84
522.93	2.85
523.129	2.81
523.327	2.91
523.526	2.87
523.725	2.87
523.923	2.81
524.122	2.73
524.321	2.68
524.519	2.66
524.718	2.73
524.917	2.74
525.115	2.78
525.314	2.8
525.512	2.79
525.711	2.79
525.909	2.82
526.108	2.88
526.306	2.96
526.505	2.98
526.703	3
526.902	3
527.1	3.02
527.299	3.01
527.497	3.02
527.696	3.05
527.894	3.03
528.092	3.01
528.291	3.01
528.489	3.01
528.688	3.03
528.886	3.02
529.084	3.02
529.283	3.03
529.481	3.06
529.679	3.09
529.877	3.08
530.076	3.13
530.274	3.15
530.472	3.2
530.67	3.24
530.869	3.24
531.067	3.29
531.265	3.29
531.463	3.26
531.661	3.21
531.859	3.19
532.057	3.2
532.255	3.23
532.454	3.2
532.652	3.2
532.85	3.16
533.048	3.17
533.246	3.15
533.444	3.23
533.642	3.31
533.84	3.38
534.038	3.42
534.236	3.44
534.434	3.47
534.632	3.62
534.83	3.67
535.027	3.71
535.225	3.78
535.423	3.81
535.621	3.78
535.819	3.79
536.017	3.79
536.215	3.78
536.412	3.84
536.61	3.81
536.808	3.8
537.006	3.82
537.203	3.88
537.401	3.84
537.599	3.9
537.797	3.89
537.994	3.93
538.192	3.99
538.39	4.06
538.587	4.08
538.785	4.19
538.983	4.17
539.18	4.19
539.378	4.17
539.575	4.2
539.773	4.21
539.97	4.26
540.168	4.26
540.366	4.29
540.563	4.3
540.761	4.29
540.958	4.3
541.155	4.33
541.353	4.33
541.55	4.38
541.748	4.37
541.945	4.41
542.143	4.39
542.34	4.47
542.537	4.49
542.735	4.53
542.932	4.58
543.129	4.54
543.327	4.59
543.524	4.65
543.721	4.65
543.919	4.75
544.116	4.77
544.313	4.91
544.51	4.86
544.708	4.92
544.905	4.89
545.102	4.98
545.299	5.09
545.496	5.09
545.693	5.06
545.891	5.11
546.088	5.13
546.285	5.14
546.482	5.11
546.679	5.16
546.876	5.26
547.073	5.32
547.27	5.33
547.467	5.35
547.664	5.47
547.861	5.53
548.058	5.62
548.255	5.67
548.452	5.84
548.649	5.92
548.846	6.07
549.043	5.98
549.24	6.06
549.437	6.09
549.633	6.1
549.83	6.09
550.027	6.19
550.224	6.3
550.421	6.46
550.618	6.31
550.814	6.42
551.011	6.37
551.208	6.4
551.405	6.5
551.601	6.59
551.798	6.75
551.995	6.82
552.191	6.82
552.388	6.85
552.585	6.84
552.781	7.04
552.978	7.05
553.175	7.16
553.371	7.31
553.568	7.37
553.764	7.39
553.961	7.32
554.157	7.35
554.354	7.4
554.55	7.37
554.747	7.41
554.943	7.32
555.14	7.34
555.336	7.38
555.533	7.39
555.729	7.54
555.926	7.56
556.122	7.71
556.318	7.77
556.515	7.95
556.711	8.13
556.907	8.19
557.104	8.35
557.3	8.38
557.496	8.37
557.693	8.46
557.889	8.47
558.085	8.63
558.281	8.72
558.478	8.73
558.674	8.75
558.87	8.69
559.066	8.86
559.262	8.92
559.459	8.98
559.655	9.08
559.851	9.1
560.047	9.06
560.243	9.08
560.439	9.16
560.635	9.26
560.831	9.32
561.027	9.39
561.223	9.33
561.419	9.4
561.615	9.57
561.811	9.76
562.007	9.89
562.203	9.98
562.399	10.03
562.595	10.13
562.791	10.37
562.987	10.46
563.183	10.56
563.379	10.59
563.575	10.65
563.771	10.67
563.966	10.69
564.162	10.75
564.358	10.87
564.554	10.96
564.75	10.9
564.945	10.72
565.141	10.76
565.337	10.9
565.533	10.99
565.728	11.04
565.924	10.97
566.12	11.08
566.315	11.19
566.511	11.26
566.707	11.33
566.902	11.44
567.098	11.66
567.293	11.68
567.489	11.62
567.684	11.73
567.88	11.8
568.076	11.98
568.271	11.94
568.467	11.96
568.662	12.01
568.858	11.99
569.053	12.06
569.248	11.99
569.444	12.13
569.639	12.27
569.835	12.3
570.03	12.34
570.225	12.35
570.421	12.35
570.616	12.3
570.812	12.27
571.007	12.41
571.202	12.48
571.397	12.58
571.593	12.56
571.788	12.6
571.983	12.63
572.178	12.65
572.374	12.78
572.569	12.85
572.764	12.98
572.959	13.03
573.154	13.03
573.35	13.02
573.545	13.08
573.74	13.09
573.935	13.04
574.13	13.06
574.325	13.16
574.52	13.22
574.715	13.21
574.91	13.16
575.105	13.27
575.3	13.3
575.495	13.39
575.69	13.55
575.885	13.61
576.08	13.75
576.275	13.82
576.47	13.77
576.665	13.82
576.86	13.92
577.055	14.02
577.25	14.08
577.444	14.19
577.639	14.25
577.834	14.12
578.029	14.27
578.224	14.23
578.418	14.41
578.613	14.48
578.808	14.42
579.003	14.55
579.197	14.63
579.392	14.6
579.587	14.62
579.781	14.63
579.976	14.78
580.171	14.87
580.365	14.81
580.56	14.72
580.755	14.85
580.949	14.87
581.144	14.81
581.338	14.8
581.533	14.77
581.727	14.75
581.922	14.71
582.116	14.59
582.311	14.57
582.505	14.67
582.7	14.76
582.894	14.8
583.089	14.65
583.283	14.7
583.478	14.83
583.672	14.86
583.866	14.89
584.061	14.85
584.255	14.79
584.449	14.77
584.644	14.88
584.838	14.97
585.032	14.92
585.226	15.04
585.421	15.07
585.615	15.05
585.809	15.06
586.003	15.17
586.198	15.22
586.392	15.35
586.586	15.52
586.78	15.57
586.974	15.48
587.168	15.5
587.363	15.59
587.557	15.52
587.751	15.53
587.945	15.74
588.139	15.82
588.333	15.99
588.527	15.92
588.721	15.76
588.915	15.69
589.109	15.67
589.303	15.6
589.497	15.67
589.691	15.78
589.885	15.77
590.079	15.76
590.273	15.68
590.466	15.66
590.66	15.76
590.854	15.86
591.048	15.77
591.242	15.81
591.436	15.84
591.629	15.81
591.823	15.94
592.017	15.91
592.211	15.75
592.404	15.74
592.598	15.67
592.792	15.66
592.986	15.66
593.179	15.72
593.373	15.8
593.567	16.06
593.76	16.12
593.954	16.05
594.147	16.01
594.341	16.12
594.535	16.15
594.728	16.08
594.922	16.24
595.115	16.15
595.309	16.14
595.502	16.04
595.696	15.9
595.889	15.9
596.083	15.88
596.276	15.97
596.47	16.05
596.663	16.06
596.856	16.23
597.05	16.15
597.243	16.27
597.437	16.47
597.63	16.5
597.823	16.52
598.017	16.48
598.21	16.54
598.403	16.59
598.596	16.52
598.79	16.37
598.983	16.21
599.176	16.2
599.369	16.14
599.563	16.06
599.756	16.19
599.949	16.25
600.142	16.33
600.335	16.38
600.528	16.26
600.722	16.37
600.915	16.61
601.108	16.75
601.301	16.88
601.494	16.88
601.687	16.92
601.88	16.94
602.073	16.89
602.266	16.85
602.459	16.75
602.652	16.86
602.845	16.85
603.038	16.79
603.231	16.71
603.424	16.68
603.617	16.77
603.809	16.75
604.002	16.73
604.195	16.78
604.388	16.86
604.581	16.9
604.774	16.98
604.966	16.91
605.159	16.88
605.352	16.81
605.545	16.75
605.737	16.71
605.93	16.61
606.123	16.6
606.316	16.51
606.508	16.5
606.701	16.48
606.894	16.24
607.086	16.42
607.279	16.42
607.471	16.63
607.664	16.61
607.857	16.68
608.049	16.83
608.242	16.87
608.434	16.92
608.627	16.95
608.819	17
609.012	17.18
609.204	17.07
609.397	17.03
609.589	16.97
609.782	17.19
609.974	17.26
610.166	17.24
610.359	17.23
610.551	17.28
610.743	17.1
610.936	17.17
611.128	17.08
611.32	17.14
611.513	17.24
611.705	17.37
611.897	17.24
612.09	17.17
612.282	17.23
612.474	17.26
612.666	17.29
612.858	17.52
613.051	17.45
613.243	17.59
613.435	17.55
613.627	17.62
613.819	17.56
614.011	17.94
614.203	17.99
614.395	17.98
614.588	17.86
614.78	17.72
614.972	17.7
615.164	17.64
615.356	17.4
615.548	17.5
615.74	17.48
615.932	17.46
616.124	16.92
616.315	17.01
616.507	16.99
616.699	17.07
616.891	17.16
617.083	17.1
617.275	17.35
617.467	17.43
617.659	17.3
617.85	17.38
618.042	17.45
618.234	17.64
618.426	17.4
618.618	17.31
618.809	17.32
619.001	17.32
619.193	17.39
619.384	17.11
619.576	17.19
619.768	17.05
619.959	16.86
620.151	16.84
620.343	16.82
620.534	16.74
620.726	16.89
620.917	16.92
621.109	16.92
621.301	16.9
621.492	17.09
621.684	17.04
621.875	17.26
622.067	17.33
622.258	17.2
622.45	17.2
622.641	17.21
622.832	17.04
623.024	16.98
623.215	17.06
623.407	16.89
623.598	16.89
623.789	17
623.981	16.94
624.172	17.02
624.363	17.14
624.555	17.1
624.746	17.24
624.937	17.29
625.129	17.2
625.32	17.1
625.511	17.28
625.702	17.28
625.893	17.23
626.085	17.18
626.276	17.07
626.467	17.13
626.658	17.07
626.849	16.98
627.04	16.88
627.231	17.04
627.422	17.01
627.614	16.94
627.805	16.9
627.996	16.77
628.187	16.7
628.378	16.81
628.569	16.98
628.76	17.08
628.951	17.06
629.142	17.24
629.332	17.08
629.523	17.19
629.714	17.05
629.905	17.02
630.096	17.24
630.287	17.33
630.478	17.35
630.669	17
630.859	16.92
631.05	16.98
631.241	16.89
631.432	17
631.623	17.04
631.813	17.34
632.004	17.27
632.195	17.13
632.385	17.14
632.576	17.17
632.767	17.24
632.957	17.41
633.148	17.53
633.339	17.58
633.529	17.6
633.72	17.55
633.91	17.52
634.101	17.35
634.292	17.45
634.482	17.54
634.673	17.57
634.863	17.61
635.054	17.5
635.244	17.42
635.435	17.4
635.625	17.33
635.815	17.4
636.006	17.26
636.196	17.48
636.387	17.42
636.577	17.37
636.767	17.15
636.958	17.14
637.148	17.05
637.338	16.97
637.529	17.09
637.719	17.15
637.909	17.07
638.099	17.21
638.29	17.33
638.48	17.28
638.67	17.4
638.86	17.55
639.05	17.35
639.241	17.56
639.431	17.62
639.621	17.53
639.811	17.5
640.001	17.5
640.191	17.52
640.381	17.34
640.571	17.32
640.761	17.35
640.951	17.19
641.141	17.31
641.331	17.26
641.521	17.34
641.711	17.48
641.901	17.59
642.091	17.4
642.281	17.25
642.471	17.19
642.661	17.27
642.851	17.14
643.041	17.29
643.231	17.39
643.42	17.34
643.61	17.48
643.8	17.39
643.99	17.51
644.18	17.6
644.369	17.56
644.559	17.81
644.749	17.89
644.939	17.91
645.128	17.98
645.318	17.98
645.508	17.95
645.697	17.67
645.887	17.59
646.076	17.29
646.266	17.25
646.456	17.54
646.645	17.7
646.835	17.51
647.024	17.56
647.214	17.46
647.403	17.28
647.593	17.43
647.782	17.52
647.972	17.43
648.161	17.44
648.351	17.54
648.54	17.29
648.73	17.12
648.919	17.31
649.108	17.32
649.298	17.58
649.487	17.69
649.677	17.71
649.866	17.71
650.055	17.93
650.244	18.04
650.434	18.16
650.623	18.32
650.812	18.41
651.002	18.43
651.191	18.44
651.38	18.04
651.569	18.1
651.758	18
651.947	18.18
652.137	18.12
652.326	18.08
652.515	18.01
652.704	18
652.893	17.8
653.082	17.88
653.271	17.81
653.46	18.01
653.649	18.01
653.838	18.04
654.027	17.73
654.216	17.7
654.405	17.84
654.594	17.85
654.783	17.72
654.972	17.86
655.161	17.72
655.35	17.64
655.539	17.7
655.728	17.6
655.916	17.65
656.105	17.59
656.294	17.69
656.483	17.46
656.672	17.41
656.86	17.34
657.049	17.33
657.238	17.33
657.427	17.41
657.615	17.37
657.804	17.38
657.993	17.3
658.181	17.47
658.37	17.41
658.559	17.45
658.747	17.55
658.936	17.44
659.125	17.51
659.313	17.58
659.502	17.86
659.69	17.76
659.879	17.88
660.067	17.91
660.256	17.75
660.444	17.86
660.633	18.08
660.821	18.1
661.01	18.21
661.198	18.17
661.387	17.99
661.575	17.5
661.763	17.66
661.952	17.29
662.14	17.53
662.328	17.61
662.517	17.56
662.705	17.4
662.893	17.29
663.082	17.6
663.27	17.48
663.458	17.8
663.646	18.16
663.834	18.14
664.023	18.57
664.211	18.52
664.399	18.59
664.587	18.61
664.775	18.64
664.963	18.81
665.152	18.58
665.34	18.71
665.528	18.53
665.716	18.54
665.904	18.48
666.092	18.23
666.28	18.29
666.468	18.18
666.656	18.21
666.844	18.34
667.032	18.46
667.22	18.74
667.408	18.82
667.596	18.79
667.784	18.54
667.971	18.8
668.159	19.08
668.347	18.83
668.535	18.91
668.723	18.78
668.911	18.7
669.098	18.35
669.286	18.28
669.474	18.17
669.662	18.21
669.849	18.51
670.037	18.34
670.225	18.12
670.413	18.37
670.6	18.14
670.788	18.36
670.976	18.32
671.163	18.41
671.351	18.2
671.538	18.39
671.726	18.41
671.913	18.1
672.101	17.8
672.289	17.79
672.476	17.56
672.664	17.98
672.851	17.67
673.039	17.66
673.226	17.6
673.413	17.63
673.601	17.57
673.788	17.77
673.976	17.74
674.163	17.96
674.35	18.32
674.538	18.42
674.725	18.34
674.912	18.45
675.1	18.61
675.287	18.56
675.474	18.48
675.662	18.53
675.849	18.65
676.036	18.76
676.223	18.79
676.411	18.54
676.598	18.41
676.785	18.57
676.972	18.57
677.159	18.57
677.346	18.66
677.533	18.94
677.721	18.72
677.908	18.34
678.095	18.24
678.282	18.29
678.469	18.15
678.656	18.31
678.843	18.16
679.03	18.36
679.217	18.35
679.404	18.43
679.591	18.19
679.778	18.4
679.964	18.73
680.151	18.63
680.338	18.76
680.525	18.77
680.712	18.75
680.899	18.75
681.086	18.56
681.272	18.39
681.459	18.07
681.646	18.16
681.833	17.89
682.02	17.73
682.206	18.26
682.393	18.27
682.58	18.29
682.766	18.06
682.953	18.21
683.14	18.09
683.326	18.6
683.513	18.94
683.7	18.9
683.886	19.17
684.073	19
684.259	18.34
684.446	18.16
684.632	18.4
684.819	18.42
685.005	18.2
685.192	18.43
685.378	18.12
685.565	18.12
685.751	18.05
685.938	17.91
686.124	17.95
686.31	18.19
686.497	18.43
686.683	18.41
686.87	18.47
687.056	18.55
687.242	18.41
687.429	18.37
687.615	18.65
687.801	18.78
687.987	18.57
688.174	18.42
688.36	18.32
688.546	18.22
688.732	18.36
688.918	18.32
689.105	18.18
689.291	18.44
689.477	18.3
689.663	17.9
689.849	17.63
690.035	18.1
690.221	18.09
690.407	18.32
690.593	18
690.779	17.68
690.965	17.73
691.151	17.88
691.337	17.94
691.523	18.47
691.709	18.38
691.895	18.5
692.081	18.36
692.267	18.34
692.453	18.36
692.639	18.4
692.825	18.46
693.011	18.64
693.196	18.66
693.382	18.14
693.568	17.63
693.754	17.86
693.94	18.2
694.125	18.19
694.311	18.44
694.497	18.18
694.682	18.44
694.868	18.53
695.054	18.08
695.239	18.27
695.425	18.32
695.611	18.46
695.796	18.45
695.982	18.19
696.168	18.31
696.353	18.14
696.539	18.25
696.724	18.08
696.91	18
697.095	18.17
697.281	17.76
697.466	17.97
697.652	18.03
697.837	18.05
698.023	18.3
698.208	18.09
698.393	17.92
698.579	18.03
698.764	17.95
698.949	17.82
699.135	17.91
699.32	18.03
699.505	17.77
699.691	17.58
699.876	17.45
700.061	17.22
700.246	17.02
700.432	17.5
700.617	17.47
700.802	17.73
700.987	18.07
701.172	18.39
701.358	18.47
701.543	18.97
701.728	19.04
701.913	19.18
702.098	19.14
702.283	19.73
702.468	19.6
702.653	19.5
702.838	19.77
703.023	19.47
703.208	18.68
703.393	18.96
703.578	18.71
703.763	19.06
703.948	18.91
704.133	19.37
704.318	19.09
704.503	19.23
704.688	19.09
704.873	18.62
705.057	18.52
705.242	18.5
705.427	18.19
705.612	17.91
705.797	17.92
705.981	18.28
706.166	18.04
706.351	17.8
706.536	17.66
706.72	17.98
706.905	18.06
707.09	18.43
707.274	18.68
707.459	18.94
707.644	19.06
707.828	18.96
708.013	18.91
708.197	18.76
708.382	18.99
708.567	19.19
708.751	18.68
708.936	18.85
709.12	19.03
709.305	19.01
709.489	18.77
709.673	19.09
709.858	18.77
710.042	18.76
710.227	18.48
710.411	18.51
710.596	18.24
710.78	18.42
710.964	18.13
711.149	18.02
711.333	18.22
711.517	18.31
711.702	18.69
711.886	18.91
712.07	18.81
712.254	19.12
712.438	19.02
712.623	19.15
712.807	19.3
712.991	19.62
713.175	19.68
713.359	19.63
713.544	19.9
713.728	19.23
713.912	18.9
714.096	18.99
714.28	18.76
714.464	18.99
714.648	18.89
714.832	19.06
715.016	18.82
715.2	18.61
715.384	18.56
715.568	18.52
715.752	18.6
715.936	18.77
716.12	18.55
716.304	19.05
716.488	18.72
716.671	18.8
716.855	18.76
717.039	19.07
717.223	18.9
717.407	18.92
717.59	18.8
717.774	18.82
717.958	19.08
718.142	19.32
718.325	19.17
718.509	19.38
718.693	19.43
718.877	19.16
719.06	18.84
719.244	19.25
719.428	19.27
719.611	19.22
719.795	18.89
719.978	18.67
720.162	18.73
720.345	18.64
720.529	19.01
720.713	19.1
720.896	18.99
721.08	18.83
721.263	19.02
721.446	19.2
721.63	19.31
721.813	19.59
721.997	19.69
722.18	19.86
722.364	19.62
722.547	19.27
722.73	18.61
722.914	19.39
723.097	19.58
723.28	19.35
723.464	19.35
723.647	19
723.83	19.14
724.013	18.75
724.197	18.52
724.38	18.82
724.563	18.71
724.746	19.3
724.929	18.59
725.112	18.87
725.296	18.99
725.479	18.7
725.662	19.46
725.845	19.45
726.028	19.42
726.211	19.22
726.394	19.23
726.577	19.53
726.76	19.03
726.943	19.56
727.126	19.34
727.309	19.03
727.492	19.07
727.675	18.44
727.858	18.2
728.041	18.75
728.224	19
728.407	18.79
728.589	18.54
728.772	19.18
728.955	19.12
729.138	19.13
729.321	19.52
729.503	19.94
729.686	20.23
729.869	20.37
730.052	20.14
730.234	20.2
730.417	20.44
730.6	20.3
730.782	19.83
730.965	19.76
731.148	19.53
731.33	19.4
731.513	19.17
731.695	19.14
731.878	18.93
732.061	18.79
732.243	18.58
732.426	18.47
732.608	18.79
732.791	19.01
732.973	18.76
733.156	18.88
733.338	18.54
733.52	18.61
733.703	18.47
733.885	18.51
734.068	18.75
734.25	18.9
734.432	19.08
734.615	19.09
734.797	19.16
734.979	18.95
735.162	19.17
735.344	19.16
735.526	18.95
735.708	19.1
735.891	19.62
736.073	19.4
736.255	18.89
736.437	18.46
736.619	17.93
736.802	17.79
736.984	18.41
737.166	18.45
737.348	18.87
737.53	19.12
737.712	18.38
737.894	18.37
738.076	18.96
738.258	19.82
738.44	20.22
738.622	20.83
738.804	21.31
738.986	21.51
739.168	21.19
739.35	20.78
739.532	20.46
739.714	21.18
739.896	21.09
740.078	20.92
740.259	19.92
740.441	19.38
740.623	18.85
740.805	18.25
740.987	17.96
741.168	18.1
741.35	18.84
741.532	19.49
741.714	19.08
741.895	19.02
742.077	19.6
742.259	20.13
742.44	20.13
742.622	20.44
742.804	20.38
742.985	20.11
743.167	20.3
743.348	19.75
743.53	18.89
743.711	19.34
743.893	19.36
744.075	18.07
744.256	18.25
744.438	18.93
744.619	18.78
744.8	19.17
744.982	19
745.163	18.59
745.345	19.04
745.526	19.89
745.707	20.42
745.889	20.01
746.07	20.6
746.252	21
746.433	20.93
746.614	21.05
746.795	20.47
746.977	20.77
747.158	20.88
747.339	20.26
747.52	20.17
747.702	19.32
747.883	20.21
748.064	20.22
748.245	19.81
748.426	19.8
748.607	19.21
748.788	20.16
748.97	20.3
749.151	20.64
749.332	21.09
749.513	20.45
749.694	21.1
749.875	20.44
750.056	20.62
750.237	20.93
750.418	20.59
750.599	21.32
750.78	21.53
750.96	21.39
751.141	21.65
751.322	21.12
751.503	21.37
751.684	21.53
751.865	21.32
752.046	21.46
752.226	21.31
752.407	21.77
752.588	21.34
752.769	20.79
752.949	20.73
753.13	20.86
753.311	20.87
753.492	20.83
753.672	20.42
753.853	21.29
754.034	20.61
754.214	20.39
754.395	19.96
754.575	20.6
754.756	19.93
754.937	20.83
755.117	19.77
755.298	20.46
755.478	20.82
755.659	20.6
755.839	19.79
756.02	20.85
756.2	21.5
756.381	21.23
756.561	20.96
756.741	20.81
756.922	20.21
757.102	21.35
757.283	21.37
757.463	21.24
757.643	21.63
757.823	21.97
758.004	20.88
758.184	20.38
758.364	20.9
758.545	21.33
758.725	21.95
758.905	21.56
759.085	21.16
759.265	20.78
759.446	20.7
759.626	20.25
759.806	20.61
759.986	21.01
760.166	21.41
760.346	21.41
760.526	20.68
760.706	20.47
760.886	20.62
761.066	20.82
761.246	20.65
761.426	20.89
761.606	20.68
761.786	20.31
761.966	20.29
762.146	19.95
762.326	19.53
762.506	19.63
762.686	20.19
762.866	20.09
763.046	19.84
763.225	19.77
763.405	19.54
763.585	19.53
763.765	18.89
763.945	18.6
764.124	18.81
764.304	19.48
764.484	20.12
764.664	19.04
764.843	18.47
765.023	18.66
765.203	18.76
765.382	18.74
765.562	19.51
765.741	20.45
765.921	20.52
766.101	20.26
766.28	19.3
766.46	18.65
766.639	19.41
766.819	20.04
766.998	19.42
767.178	19.56
767.357	19.64
767.537	19.13
767.716	19.02
767.896	19.37
768.075	19.63
768.254	19.7
768.434	19.86
768.613	20.06
768.792	20.14
768.972	21.11
769.151	21.15
769.33	21.08
769.51	21.16
769.689	21.23
769.868	21.92
770.047	21.77
770.226	22.75
770.406	22.42
770.585	22.75
770.764	22.69
770.943	22.64
771.122	22.85
771.301	23
771.48	22.79
771.66	23.54
771.839	22.94
772.018	22.82
772.197	22.16
772.376	22.76
772.555	21.55
772.734	21.51
772.913	21.3
773.092	21.36
773.271	21.1
773.449	21.45
773.628	20.2
773.807	20.44
773.986	20.02
774.165	20.55
774.344	20.29
774.523	21.35
774.701	21.16
774.88	21.39
775.059	21.65
775.238	22.46
775.417	22.85
775.595	23.25
775.774	22.84
775.953	22.94
776.131	22.39
776.31	22.42
776.489	21.84
776.667	21.69
776.846	21.48
777.025	20.97
777.203	20.31
777.382	20.1
777.56	19.46
777.739	19.35
777.917	19.37
778.096	19.86
778.274	19.85
778.453	20.05
778.631	20.6
778.81	20.22
778.988	19.89
779.166	20.09
779.345	20.12
779.523	20.5
779.702	21.33
779.88	21.51
780.058	21.6
780.237	22.06
780.415	22.02
780.593	22.55
780.771	23.08
780.95	23.66
781.128	23.06
781.306	22.59
781.484	24.09
781.662	23.18
781.841	23.86
782.019	24.17
782.197	23.74
782.375	24.4
782.553	24.46
782.731	23.31
782.909	23.79
783.087	24.81
783.265	26.04
783.443	24.49
783.621	25.06
783.799	24.48
783.977	23.89
784.155	23.63
784.333	23.86
784.511	23.25
784.689	24.29
784.867	22.9
785.045	22.27
785.223	21.65
785.4	21.91
785.578	21.69
785.756	22.01
785.934	22.85
786.112	22.97
786.289	21.28
786.467	20.98
786.645	20.37
786.823	20.74
787	21.28
787.178	20.83
787.356	21.47
787.533	21.13
787.711	20.03
787.889	18.99
788.066	19.19
788.244	20.74
788.421	21.38
788.599	21
788.776	21.62
788.954	21.31
789.131	21.63
789.309	20.7
789.486	21.51
789.664	22.29
789.841	22.91
790.019	23.38
790.196	22.66
790.373	22.66
790.551	24.09
790.728	23.04
790.906	22.95
791.083	23.6
791.26	24.76
791.437	24.44
791.615	24.55
791.792	23.25
791.969	22.83
792.146	23.31
792.324	23.07
792.501	22.91
792.678	23.37
792.855	24.69
793.032	23.89
793.209	22.9
793.387	22.85
793.564	22.64
793.741	23.41
793.918	23.11
794.095	22.81
794.272	22.59
794.449	22.46
794.626	23.91
794.803	22.44
794.98	21.51
795.157	21.74
795.334	21.68
795.511	22.27
795.688	22.49
795.864	22.12
796.041	22.45
796.218	23.32
796.395	22.69
796.572	22
796.749	22.96
796.925	23.82
797.102	23.67
797.279	22.97
797.456	22.52
797.632	22.54
797.809	23.84
797.986	23.6
798.162	22.44
798.339	22.18
798.516	21.47
798.692	20.92
798.869	19.83
799.046	20.29
799.222	21.9
799.399	22.58
799.575	22.31
799.752	20.91
799.928	20.5
800.105	21.31
800.281	21.56
800.458	22.28
800.634	21.81
800.811	22.79
800.987	22.52
801.163	21.06
801.34	19.77
801.516	20.74
801.692	22.59
801.869	22.47
802.045	21.61
802.221	22.87
802.398	22.15
802.574	23.28
802.75	24.29
802.926	24.18
803.103	24.73
803.279	25.4
803.455	24.66
803.631	24.6
803.807	25.48
803.983	26.79
804.16	26.31
804.336	26.83
804.512	26.93
804.688	25.66
804.864	26.21
805.04	25.86
805.216	25.85
805.392	26.84
805.568	26.89
805.744	25.48
805.92	24.8
806.096	24.38
806.272	24.51
806.448	24.92
806.623	25.31
806.799	25.56
806.975	25.11
807.151	25.63
807.327	24.44
807.503	22.62
807.678	23.49
807.854	23.23
808.03	23.37
808.206	22.21
808.381	21.07
808.557	21.75
808.733	20.6
808.908	20.94
809.084	20.53
809.26	20.3
809.435	21.25
809.611	20.79
809.787	20.11
809.962	20.14
810.138	20.67
810.313	20.87
810.489	21
810.664	20.59
810.84	19.56
811.015	20.66
811.191	22.56
811.366	23.19
811.542	24.12
811.717	25.14
811.892	25.87
812.068	26.73
812.243	26.47
812.419	26.45
812.594	27.07
812.769	28.91
812.944	27.69
813.12	25.92
813.295	25.2
813.47	24.69
813.645	25.12
813.821	23.27
813.996	23.89
814.171	23.89
814.346	23.22
814.521	24.72
814.697	24.25
814.872	25.08
815.047	24.11
815.222	24.6
815.397	23.5
815.572	22.98
815.747	23.65
815.922	22.79
816.097	23.21
816.272	23.64
816.447	22.24
816.622	22.82
816.797	23.19
816.972	23.75
817.147	22.97
817.322	23.9
817.496	24.28
817.671	24.98
817.846	25.49
818.021	25.28
818.196	24.46
818.371	23.97
818.545	23.96
818.72	23.29
818.895	23.86
819.069	22.51
819.244	22.7
819.419	22.13
819.594	21.83
819.768	20.44
819.943	19.83
820.117	19.97
820.292	20.45
820.467	20.04
820.641	19.73
820.816	19.44
820.99	19.72
821.165	19.62
821.339	19.46
821.514	19.21
821.688	19.63
821.863	19.77
822.037	19.57
822.212	19.49
822.386	19.46
822.56	19.45
822.735	19.48
822.909	19.54
823.084	19.32
823.258	19.42
823.432	19.44
823.606	19
823.781	19.1
823.955	19.02
824.129	18.98
824.303	19.18
824.478	19.17
824.652	18.98
824.826	18.8
825	19
825.174	18.79
825.348	18.76
825.523	18.99
825.697	19.14
825.871	19.48
826.045	19.34
826.219	18.82
826.393	18.64
826.567	19.29
826.741	20.09
826.915	20.11
827.089	20.81
827.263	20.94
827.437	21.11
827.611	20.83
827.784	21.38
827.958	21.21
828.132	21.38
828.306	22.08
828.48	21.75
828.654	21.65
828.827	21.47
829.001	21.16
829.175	21.83
829.349	22.08
829.522	21.94
829.696	20.98
829.87	21.32
830.044	22.65
830.217	21.89
830.391	22.06
830.565	20.79
830.738	21.3
830.912	21.16
831.085	19.6
831.259	19.27
831.432	19.97
831.606	20.39
831.779	20.97
831.953	19.48
832.126	19.63
832.3	19.7
832.473	20.07
832.647	20.14
832.82	20.15
832.994	20.65
833.167	21.31
833.34	21.09
833.514	21.64
833.687	21.18
833.86	21.81
834.034	22.78
834.207	23.07
834.38	22.56
834.553	22.45
834.727	22.49
834.9	22.56
835.073	22.2
835.246	22.27
835.419	21.55
835.593	21.83
835.766	21.94
835.939	21.28
836.112	20.14
836.285	21.62
836.458	22.02
836.631	21.79
836.804	22.15
836.977	21.58
837.15	22.28
837.323	23.08
837.496	22.96
837.669	21.76
837.842	21.01
838.015	23.24
838.188	23.37
838.361	22.19
838.533	21.83
838.706	21.02
838.879	21.47
839.052	19.99
839.225	18.86
839.398	19.12
839.57	19.48
839.743	22.35
839.916	21.53
840.088	21.65
840.261	24.75
840.434	26.49
840.607	26.88
840.779	27.47
840.952	28.6
841.124	29.88
841.297	29.25
841.47	30.01
841.642	26.63
841.815	27.81
841.987	29.13
842.16	26.78
842.332	26.92
842.505	28.45
842.677	27.36
842.85	28.55
843.022	29.27
843.194	31.4
843.367	32.8
843.539	35.59
843.712	34.16
843.884	31.89
844.056	34.28
844.229	35.6
844.401	34.95
844.573	37.36
844.745	35.61
844.918	33.85
845.09	33.33
845.262	33.44
845.434	32.31
845.606	31.31
845.779	33.37
845.951	33.9
846.123	31.2
846.295	32.62
846.467	32.93
846.639	32.93
846.811	33.39
846.983	32.76
847.155	32.2
847.327	29.46
847.499	33.4
847.671	34.2
847.843	30.36
848.015	32.04
848.187	31.45
848.359	28.32
848.531	29.2
848.703	29.63
848.875	31.14
849.047	31.61
849.218	37.29
849.39	34.4
849.562	33.11
849.734	36.83
849.905	34.21
850.077	35.46
850.249	38.26
850.421	39.48
850.592	35.88
850.764	32.42
850.936	32.54
851.107	30.49
851.279	33.62
851.451	35.7
851.622	39.08
851.794	40.8
851.965	41.95
852.137	37.65
852.308	35.62
852.48	36.73
852.651	40.72
852.823	40.3
852.994	38.96
853.166	37.09
853.337	33.84
853.509	31.15
853.68	32.71
853.851	32.74
854.023	37.9
854.194	37.9
854.365	40.49
854.537	38.78
854.708	40.21
854.879	41.9
855.05	38.61
855.222	35.41
855.393	34.58
855.564	34.25
855.735	31.52
855.906	31.74
856.078	33.64
856.249	35.95
856.42	38.34
856.591	38.13
856.762	37.38
856.933	39.45
857.104	42.21
857.275	44.63
857.446	47.77
857.617	50.22
857.788	49.13
857.959	49.75
858.13	49.54
858.301	49.56
858.472	45.15
858.643	46.15
858.814	51.19
858.985	55.43
859.155	49.14
859.326	42.79
859.497	39.91
859.668	39.48
859.839	37.48
860.009	35.17
860.18	31.15
860.351	33.21
860.522	33.17
860.692	25.92
860.863	22.64
861.034	26.61
861.204	26.08
861.375	29.96
861.546	28.47
861.716	31.48
861.887	34.66
862.057	33.25
862.228	31.01
862.398	31.38
862.569	35.38
862.739	37.62
862.91	35.81
863.08	38.11
863.251	35.16
863.421	38.33
863.592	39.29
863.762	34.01
863.932	37.12
864.103	42.02
864.273	38.52
864.443	36.28
864.614	34.73
864.784	36.17
864.954	36.87
865.125	38.67
865.295	37.02
865.465	34.73
865.635	33.8
865.805	33.81
865.976	31.03
866.146	33.14
866.316	37.45
866.486	36.97
866.656	35.63
866.826	33.78
866.996	34.24
867.166	36.02
867.336	35.52
867.506	37.49
867.676	37.4
867.846	37.12
868.016	35.55
868.186	33.91
868.356	35.36
868.526	34.58
868.696	33.71
868.866	29.6
869.036	30.37
869.206	26.18
869.376	28.23
869.545	30.07
869.715	33.89
869.885	32.33
870.055	33.33
870.224	35.52
870.394	37.28
870.564	42.63
870.734	42.8
870.903	34.75
871.073	32.13
871.243	36.67
871.412	40.94
871.582	44.1
871.751	46.8
871.921	46.57
872.091	45.73
872.26	43.47
872.43	39.14
872.599	41.53
872.769	46.45
872.938	53.62
873.108	49.11
873.277	44.15
873.446	37.2
873.616	34.36
873.785	32.11
873.955	29.91
874.124	30.66
874.293	31.73
874.463	29.03
874.632	29.72
874.801	26.97
874.971	27.88
875.14	30.1
875.309	31.14
875.478	36.42
875.647	38.63
875.817	41.43
875.986	42.49
876.155	42.13
876.324	44.81
876.493	48.07
876.662	48.26
876.831	48.53
877	45.28
877.17	45.04
877.339	41.15
877.508	36.41
877.677	31.62
877.846	29.14
878.015	31.58
878.184	29.18
878.352	26.44
878.521	23.37
878.69	21.82
878.859	22.37
879.028	22.13
879.197	24.03
879.366	27.94
879.534	30.53
879.703	31.23
879.872	27.8
880.041	26.65
880.21	24.77
880.378	27.04
880.547	26.69
880.716	26.21
880.884	26.6
881.053	24.52
881.222	24.8
881.39	23.21
881.559	23.86
881.727	23.09
881.896	23.22
882.065	23.44
882.233	22.75
882.402	22.23
882.57	21.97
882.739	21.98
882.907	22.47
883.076	22.38
883.244	22.5
883.412	21.92
883.581	22.91
883.749	22.28
883.918	21.91
884.086	22.68
884.254	24.1
884.423	25.22
884.591	24.42
884.759	24.6
884.927	23.33
885.096	23.92
885.264	25.91
885.432	27.14
885.6	28.29
885.769	29.94
885.937	28.36
886.105	27.58
886.273	28.24
886.441	29.34
886.609	31.03
886.777	32.6
886.945	32
887.113	29.48
887.281	28.05
887.449	31.14
887.617	29.08
887.785	29.5
887.953	30.5
888.121	24.55
888.289	26.27
888.457	24.88
888.625	21.85
888.793	21.74
888.961	20.69
889.129	25.66
889.296	25.44
889.464	27.73
889.632	31.36
889.8	29.89
889.967	38.21
890.135	35.43
