Data from 2938481_Reflection_3.txt Node
Date: Wed Jun 17 01:11:10 EDT 2015
User: robert
Spectrometer: USB4E03002
Autoset integration time: false
Trigger mode: 4
Integration Time (sec): 1.000000E-1
Scans to average: 10
Electric dark correction enabled: true
Nonlinearity correction enabled: false
Boxcar width: 5
Stray light correction enabled: false
XAxis mode: Wavelengths
Stop averaging: false
Number of Pixels in Spectrum: 3648
>>>>>Begin Spectral Data<<<<<
177.575	-662.96
177.794	121.25
178.014	-234.91
178.233	-13.02
178.452	-1523.17
178.672	-394.83
178.891	137.5
179.11	6.18
179.33	12.97
179.549	89.19
179.768	377.48
179.987	-551.39
180.207	-78.8
180.426	-70.08
180.645	-154.78
180.864	-60.53
181.084	-58.99
181.303	-449.74
181.522	-11.85
181.741	-22.26
181.96	-17.03
182.179	-14.24
182.398	26.05
182.618	-148.73
182.837	-10.64
183.056	-33.98
183.275	-56.97
183.494	125.04
183.713	-84.63
183.932	-420.35
184.151	91.96
184.37	25.82
184.589	26.69
184.808	12.3
185.027	24.71
185.246	27.32
185.465	30.28
185.684	30.02
185.903	2.16
186.122	31.06
186.341	24.94
186.56	25.38
186.779	67.19
186.998	13.78
187.216	78.16
187.435	73.17
187.654	75.22
187.873	102.66
188.092	116.58
188.311	70.05
188.53	175.51
188.748	148.15
188.967	41.33
189.186	13950
189.405	-20.08
189.623	-50.34
189.842	-130.98
190.061	-599.75
190.28	-151.13
190.498	-148.54
190.717	-55.02
190.936	-98.39
191.154	-32.25
191.373	15.45
191.592	46.31
191.81	54.56
192.029	67.84
192.248	58.31
192.466	64.17
192.685	90.84
192.904	104.32
193.122	80.74
193.341	-128.62
193.559	-62.44
193.778	18.35
193.996	-82
194.215	-196.82
194.433	208.61
194.652	-299.06
194.87	-15.3
195.089	-12.44
195.307	-14.86
195.526	-0.26
195.744	20.2
195.963	15.84
196.181	-23.32
196.399	-43.68
196.618	-98.05
196.836	-79.95
197.055	-496.77
197.273	-593.65
197.491	1272.02
197.71	98.66
197.928	78.56
198.146	25.78
198.365	6.78
198.583	-18.44
198.801	-33.8
199.019	-121.97
199.238	-92.34
199.456	105.56
199.674	161.65
199.892	222.14
200.111	90.67
200.329	79.14
200.547	57.2
200.765	58.27
200.983	73.45
201.202	57.95
201.42	65.33
201.638	79.93
201.856	83.54
202.074	37.87
202.292	45.39
202.51	31.48
202.728	41.91
202.946	49.53
203.165	33.49
203.383	26.99
203.601	30.92
203.819	37.95
204.037	14.6
204.255	8.87
204.473	16.12
204.691	8.95
204.909	-12.38
205.127	-18.48
205.345	-65.65
205.562	-18.17
205.78	1.29
205.998	18.48
206.216	-2.67
206.434	28.57
206.652	42.52
206.87	45.78
207.088	46.52
207.306	51.62
207.523	29.32
207.741	40.34
207.959	60.94
208.177	-21.6
208.395	-313.48
208.612	544.08
208.83	-970.64
209.048	-6571.43
209.266	1495.64
209.483	-320.23
209.701	-1392.79
209.919	-2337.79
210.136	-1926.28
210.354	-457.44
210.572	-155.41
210.79	-63.9
211.007	-40.4
211.225	-10.32
211.442	-24
211.66	-16.45
211.878	-28.8
212.095	-18.1
212.313	8.23
212.53	16.81
212.748	2.29
212.966	-25.83
213.183	-29.04
213.401	-22.64
213.618	-39.43
213.836	-13.79
214.053	-10.72
214.271	7.52
214.488	33.32
214.705	15.94
214.923	14.23
215.14	-1.79
215.358	16.44
215.575	13.36
215.793	5.53
216.01	-4.06
216.227	-11.14
216.445	-9.72
216.662	6.03
216.879	-22.78
217.097	-33.3
217.314	-30.05
217.531	0.04
217.749	2.47
217.966	6.9
218.183	10.67
218.4	12.81
218.618	28.58
218.835	30.47
219.052	20.07
219.269	26.05
219.487	40.12
219.704	28.63
219.921	14.57
220.138	13.58
220.355	10.27
220.572	2.75
220.79	-8.32
221.007	-15.84
221.224	-26.15
221.441	-15.52
221.658	-11.25
221.875	-10
222.092	-3.4
222.309	-2.75
222.526	-5.13
222.743	-1.52
222.96	-0.31
223.177	6.62
223.394	4.39
223.611	7.99
223.828	-0.45
224.045	0.15
224.262	1.26
224.479	3.36
224.696	3.79
224.913	2.59
225.13	0.83
225.347	4.35
225.564	6.12
225.781	6.71
225.997	7.67
226.214	10.12
226.431	9.89
226.648	7.53
226.865	6.61
227.082	5.38
227.298	6.4
227.515	4.62
227.732	4.28
227.949	3.49
228.165	3.87
228.382	3.25
228.599	3.48
228.816	3.16
229.032	2.24
229.249	2.55
229.466	5.15
229.682	3.56
229.899	5.36
230.116	5.14
230.332	7.31
230.549	6.6
230.765	6.6
230.982	6.6
231.199	7.59
231.415	8.39
231.632	8.04
231.848	5.98
232.065	7.24
232.281	8.72
232.498	8.36
232.714	7.03
232.931	6.57
233.147	4.87
233.364	4.01
233.58	0.97
233.797	3.11
234.013	4.2
234.23	3.43
234.446	5.13
234.662	3.02
234.879	4.71
235.095	2.41
235.312	2.77
235.528	4.4
235.744	3.7
235.961	5.85
236.177	5.22
236.393	5.68
236.61	6.83
236.826	4.35
237.042	4.67
237.258	2.52
237.475	2.67
237.691	2.19
237.907	1.27
238.123	1.5
238.339	1
238.556	1.5
238.772	-0.29
238.988	0.4
239.204	1.85
239.42	2.62
239.636	3.88
239.853	4.22
240.069	5.21
240.285	5.92
240.501	5.7
240.717	6.61
240.933	6.28
241.149	6.2
241.365	6.39
241.581	6.14
241.797	6.28
242.013	6.33
242.229	6.44
242.445	6.18
242.661	5.55
242.877	5.6
243.093	4.62
243.309	5.32
243.525	6.88
243.741	6.64
243.957	6.98
244.173	6.56
244.388	6.48
244.604	5.94
244.82	6.36
245.036	7.06
245.252	7.1
245.468	7.15
245.683	6.69
245.899	6.37
246.115	6.54
246.331	6.57
246.547	6.51
246.762	6.4
246.978	6.92
247.194	6.55
247.409	6.11
247.625	6.01
247.841	5.45
248.057	5.38
248.272	5.28
248.488	4.79
248.703	3.69
248.919	3.52
249.135	3.12
249.35	2.95
249.566	3.19
249.782	3.78
249.997	3.47
250.213	3.84
250.428	3.85
250.644	3.54
250.859	3.71
251.075	4.6
251.29	4.55
251.506	5.58
251.721	6.44
251.937	6.58
252.152	6.29
252.368	7.2
252.583	7.54
252.798	8.26
253.014	8.55
253.229	8.44
253.445	8.16
253.66	8.39
253.875	7.4
254.091	6.3
254.306	5.21
254.521	4.47
254.737	2.98
254.952	3.29
255.167	3.19
255.383	3.45
255.598	3.59
255.813	3.1
256.028	3.91
256.244	4.22
256.459	4.32
256.674	4.24
256.889	4.56
257.104	5.7
257.32	5.28
257.535	5.09
257.75	4.69
257.965	4.52
258.18	4.82
258.395	4.55
258.61	4.34
258.826	4.31
259.041	4.55
259.256	4.66
259.471	4.42
259.686	4.55
259.901	4.6
260.116	4.93
260.331	5.02
260.546	5.2
260.761	5.41
260.976	5.63
261.191	5.32
261.406	4.98
261.621	4.71
261.836	4.36
262.05	4.61
262.265	5.05
262.48	5.42
262.695	6
262.91	5.39
263.125	4.49
263.34	4.36
263.555	4.6
263.769	4.69
263.984	4.37
264.199	4.34
264.414	4.13
264.629	3.92
264.843	3.71
265.058	2.93
265.273	3.13
265.488	3.02
265.702	3.01
265.917	2.71
266.132	2.88
266.346	2.66
266.561	2.72
266.776	2.36
266.99	2.1
267.205	2.09
267.42	2.53
267.634	2.71
267.849	3.42
268.063	3.94
268.278	4.44
268.492	5.02
268.707	5.24
268.922	4.94
269.136	5.07
269.351	5.09
269.565	4.83
269.78	4.49
269.994	4.46
270.209	4.62
270.423	4.25
270.637	4.17
270.852	3.72
271.066	3.98
271.281	3.92
271.495	4.3
271.709	4.21
271.924	4.46
272.138	4.64
272.353	4.28
272.567	3.95
272.781	4.16
272.996	3.77
273.21	3.97
273.424	3.63
273.638	3.94
273.853	3.97
274.067	3.72
274.281	3.27
274.495	2.74
274.71	3.36
274.924	3.38
275.138	2.81
275.352	2.98
275.566	2.89
275.781	2.6
275.995	2.91
276.209	2.65
276.423	2.76
276.637	3.14
276.851	3.63
277.065	3.33
277.279	3.75
277.493	3.6
277.707	3.73
277.921	3.47
278.135	4.35
278.349	3.56
278.563	3.64
278.777	4.07
278.991	3.78
279.205	3.54
279.419	3.69
279.633	2.66
279.847	3.26
280.061	3.47
280.275	3.59
280.489	3.66
280.703	4.35
280.917	3.84
281.131	3.81
281.344	4.18
281.558	4.46
281.772	4.35
281.986	4.9
282.2	4.95
282.414	5.13
282.627	5.21
282.841	4.71
283.055	4.62
283.269	5.09
283.482	5.06
283.696	4.54
283.91	4.36
284.123	4.44
284.337	4.66
284.551	4.42
284.764	4.2
284.978	4.09
285.192	3.99
285.405	4
285.619	3.81
285.833	3.86
286.046	4.34
286.26	4.43
286.473	4.25
286.687	3.81
286.9	3.7
287.114	3.84
287.327	3.85
287.541	4.04
287.754	4.12
287.968	3.91
288.181	3.66
288.395	3.12
288.608	2.98
288.822	3.12
289.035	3.77
289.248	3.4
289.462	3.3
289.675	3.02
289.889	3.33
290.102	2.95
290.315	3.03
290.529	3.14
290.742	3.32
290.955	3.35
291.169	3.29
291.382	2.63
291.595	3.16
291.808	3.02
292.022	3.29
292.235	3.35
292.448	3.35
292.661	3.67
292.875	3.69
293.088	3.93
293.301	4.28
293.514	4.41
293.727	4.77
293.94	4.83
294.153	5.04
294.367	5.28
294.58	5.1
294.793	5.37
295.006	5.39
295.219	5.43
295.432	5.57
295.645	5.59
295.858	5.59
296.071	5.69
296.284	5.49
296.497	5.48
296.71	5.57
296.923	5.43
297.136	5.6
297.349	5.56
297.562	5.95
297.775	5.76
297.988	5.72
298.201	5.74
298.414	5.51
298.626	5.95
298.839	6
299.052	5.6
299.265	5.73
299.478	5.37
299.691	5.34
299.903	5.25
300.116	5.13
300.329	5.02
300.542	4.7
300.755	4.83
300.967	5.03
301.18	4.5
301.393	4.47
301.605	4.49
301.818	4.51
302.031	4.36
302.243	3.87
302.456	4.08
302.669	4
302.881	4.28
303.094	4.07
303.307	3.98
303.519	4.42
303.732	4.73
303.944	4.71
304.157	4.49
304.37	4.39
304.582	4.7
304.795	4.61
305.007	4.96
305.22	4.99
305.432	5.16
305.645	5.1
305.857	5.21
306.069	5.28
306.282	5.32
306.494	5.62
306.707	6.21
306.919	5.8
307.132	6
307.344	5.78
307.556	5.63
307.769	5.63
307.981	5.62
308.193	5.58
308.406	5.58
308.618	5.76
308.83	5.7
309.043	5.38
309.255	5.9
309.467	5.87
309.679	5.88
309.892	6.02
310.104	5.92
310.316	5.93
310.528	5.84
310.74	6.17
310.953	6.07
311.165	6.02
311.377	6.02
311.589	5.8
311.801	5.82
312.013	5.88
312.225	5.75
312.437	5.89
312.649	6.06
312.862	6.58
313.074	6.1
313.286	6.2
313.498	6.4
313.71	6.98
313.922	7.19
314.134	7.52
314.346	7.65
314.558	7.61
314.77	7.82
314.982	7.27
315.193	6.2
315.405	6.2
315.617	5.86
315.829	5.89
316.041	5.76
316.253	5.6
316.465	5.02
316.677	4.99
316.888	5.49
317.1	5.52
317.312	6.2
317.524	6.71
317.736	6.37
317.947	7.06
318.159	7.03
318.371	6.89
318.583	6.87
318.794	6.89
319.006	6.72
319.218	6.37
319.43	6.59
319.641	6.4
319.853	6.81
320.064	7.49
320.276	6.72
320.488	6.81
320.699	6.78
320.911	6.83
321.123	7.55
321.334	7.81
321.546	8.44
321.757	8.54
321.969	8.37
322.18	8.19
322.392	7.88
322.603	8.67
322.815	8.8
323.026	8.7
323.238	8.84
323.449	8.71
323.661	8.83
323.872	8.09
324.083	7.94
324.295	8.68
324.506	9.2
324.718	10.14
324.929	10.32
325.14	10.28
325.352	10.93
325.563	11.02
325.774	10.6
325.986	10.7
326.197	11.55
326.408	11.9
326.62	11.81
326.831	11.84
327.042	11.37
327.253	11.16
327.464	11.57
327.676	11.6
327.887	11.11
328.098	11.98
328.309	12.39
328.52	12.36
328.732	12.18
328.943	12.3
329.154	12.29
329.365	12.43
329.576	12.92
329.787	13.13
329.998	12.81
330.209	13.86
330.42	13.79
330.631	13.56
330.842	13.09
331.053	13.29
331.264	13.21
331.475	13.37
331.686	13.19
331.897	13.09
332.108	12.65
332.319	13.11
332.53	12.66
332.741	12.77
332.952	13.1
333.163	13.47
333.374	14
333.585	14.05
333.795	13.83
334.006	13.78
334.217	14.09
334.428	14.53
334.639	14.71
334.849	14.61
335.06	14.46
335.271	14.43
335.482	14.89
335.692	14.72
335.903	14.64
336.114	14.78
336.325	15.19
336.535	14.88
336.746	14.79
336.957	14.57
337.167	14.85
337.378	14.43
337.589	14.77
337.799	14.64
338.01	14.41
338.22	14.67
338.431	14.87
338.642	15.02
338.852	14.77
339.063	14.92
339.273	14.79
339.484	14.86
339.694	15.1
339.905	14.23
340.115	13.91
340.326	13.72
340.536	13.5
340.746	13.31
340.957	12.76
341.167	12.83
341.378	12.76
341.588	12.7
341.799	12.88
342.009	13.22
342.219	13.57
342.43	13.52
342.64	13.53
342.85	13.2
343.061	13.28
343.271	13.22
343.481	13.43
343.691	13.09
343.902	12.97
344.112	12.71
344.322	12.39
344.532	12.23
344.743	12.37
344.953	12.11
345.163	12.43
345.373	12.28
345.583	12.61
345.793	12.35
346.004	12.48
346.214	12.47
346.424	12.6
346.634	12.72
346.844	12.79
347.054	12.95
347.264	13.14
347.474	12.7
347.684	12.89
347.894	13.09
348.104	13.23
348.314	13.15
348.524	13.22
348.734	13.07
348.944	13.32
349.154	13.46
349.364	13.27
349.574	13.44
349.784	13.9
349.994	13.67
350.204	13.47
350.413	13.27
350.623	13.46
350.833	13.79
351.043	13.6
351.253	13.03
351.463	12.82
351.672	12.89
351.882	12.84
352.092	13.11
352.302	13.4
352.511	13.29
352.721	13.52
352.931	13.48
353.141	13.26
353.35	13.3
353.56	13.66
353.77	13.78
353.979	13.82
354.189	13.94
354.399	13.69
354.608	13.49
354.818	13.63
355.027	13.82
355.237	13.98
355.447	13.99
355.656	13.99
355.866	14
356.075	14.04
356.285	13.82
356.494	13.66
356.704	13.8
356.913	13.97
357.123	14.02
357.332	13.89
357.542	13.91
357.751	13.83
357.96	13.76
358.17	13.63
358.379	13.63
358.589	13.75
358.798	13.61
359.007	13.41
359.217	13.1
359.426	12.98
359.635	12.88
359.845	12.41
360.054	12.49
360.263	12.71
360.472	12.64
360.682	12.48
360.891	12.35
361.1	12.41
361.309	12.46
361.519	12.44
361.728	12.58
361.937	12.46
362.146	12.73
362.355	12.56
362.564	12.55
362.774	12.72
362.983	12.69
363.192	12.68
363.401	12.61
363.61	12.43
363.819	12.57
364.028	12.32
364.237	12.4
364.446	12.6
364.655	12.54
364.864	12.46
365.073	12.29
365.282	12.45
365.491	12.47
365.7	12.48
365.909	12.7
366.118	12.64
366.327	12.53
366.536	12.32
366.745	11.97
366.954	11.91
367.162	11.87
367.371	11.68
367.58	11.68
367.789	11.51
367.998	11.72
368.207	11.53
368.415	11.83
368.624	11.87
368.833	12.1
369.042	11.97
369.25	12.09
369.459	12.1
369.668	12.09
369.877	12.11
370.085	12.32
370.294	11.98
370.503	11.91
370.711	11.49
370.92	11.66
371.129	11.79
371.337	12.08
371.546	12.19
371.754	12.25
371.963	12.37
372.171	12.18
372.38	12.11
372.589	12.41
372.797	12.62
373.006	12.81
373.214	12.42
373.423	12.33
373.631	12.24
373.84	12.2
374.048	11.69
374.256	11.65
374.465	11.64
374.673	11.61
374.882	11.24
375.09	10.98
375.298	11.07
375.507	11.28
375.715	11.12
375.923	11.05
376.132	10.92
376.34	11.27
376.548	11.48
376.757	11.41
376.965	11.28
377.173	11.38
377.381	11.43
377.59	11.28
377.798	11.21
378.006	11.28
378.214	11.27
378.423	11.11
378.631	11.08
378.839	10.68
379.047	10.57
379.255	10.59
379.463	10.37
379.671	10.04
379.879	10.06
380.088	9.78
380.296	9.64
380.504	9.59
380.712	9.76
380.92	9.51
381.128	9.5
381.336	9.54
381.544	9.62
381.752	9.99
381.96	10.2
382.168	10.05
382.376	10.28
382.584	10.35
382.791	9.96
382.999	9.54
383.207	9.61
383.415	9.79
383.623	9.77
383.831	9.49
384.039	9.15
384.247	9.07
384.454	9.06
384.662	9.11
384.87	9.29
385.078	9.69
385.285	9.96
385.493	10.08
385.701	9.94
385.909	9.88
386.116	9.91
386.324	10.05
386.532	10.11
386.739	10.23
386.947	10.11
387.155	9.72
387.362	9.72
387.57	9.73
387.778	9.57
387.985	9.63
388.193	9.89
388.4	9.99
388.608	9.91
388.816	9.83
389.023	9.74
389.231	9.73
389.438	10.01
389.646	9.78
389.853	9.75
390.061	9.86
390.268	9.78
390.475	9.58
390.683	9.56
390.89	9.64
391.098	9.58
391.305	9.62
391.512	9.66
391.72	9.3
391.927	9.28
392.135	9.09
392.342	8.8
392.549	8.63
392.756	8.63
392.964	8.55
393.171	8.37
393.378	8.45
393.586	8.23
393.793	7.97
394	7.99
394.207	7.91
394.414	8.08
394.622	8.09
394.829	8.15
395.036	8.06
395.243	7.91
395.45	7.92
395.657	7.78
395.864	7.82
396.072	7.79
396.279	7.81
396.486	7.84
396.693	7.87
396.9	7.96
397.107	8.05
397.314	8.03
397.521	8.23
397.728	8.28
397.935	8.44
398.142	8.32
398.349	8.52
398.556	8.54
398.763	8.61
398.97	8.54
399.177	8.63
399.383	8.65
399.59	8.67
399.797	8.44
400.004	8.35
400.211	8.32
400.418	8.32
400.625	8.26
400.831	8.15
401.038	8.2
401.245	8.01
401.452	7.93
401.658	7.87
401.865	7.82
402.072	7.94
402.279	7.99
402.485	7.72
402.692	7.8
402.899	7.74
403.105	7.72
403.312	7.73
403.519	7.89
403.725	7.97
403.932	7.96
404.138	8.04
404.345	7.98
404.552	8.01
404.758	8.04
404.965	8
405.171	8.04
405.378	8.09
405.584	7.94
405.791	7.79
405.997	7.5
406.204	7.57
406.41	7.44
406.617	7.62
406.823	7.42
407.029	7.53
407.236	7.42
407.442	7.39
407.649	7.4
407.855	7.51
408.061	7.54
408.268	7.59
408.474	7.21
408.68	7.34
408.887	7.12
409.093	7.31
409.299	7.39
409.505	7.53
409.712	7.59
409.918	7.39
410.124	7.29
410.33	7.35
410.537	7.32
410.743	7.42
410.949	7.28
411.155	7.28
411.361	7.19
411.567	7.06
411.773	6.81
411.98	6.51
412.186	6.78
412.392	6.84
412.598	6.8
412.804	6.88
413.01	7.06
413.216	7.13
413.422	7.13
413.628	6.88
413.834	6.91
414.04	7.07
414.246	7.29
414.452	7.26
414.658	7.15
414.864	7.08
415.07	7.12
415.275	7.17
415.481	7.09
415.687	7.02
415.893	7.13
416.099	6.98
416.305	6.94
416.511	6.8
416.716	6.72
416.922	6.69
417.128	6.76
417.334	6.68
417.539	6.52
417.745	6.48
417.951	6.53
418.157	6.68
418.362	6.74
418.568	6.63
418.774	6.6
418.979	6.55
419.185	6.56
419.391	6.54
419.596	6.45
419.802	6.47
420.008	6.48
420.213	6.41
420.419	6.27
420.624	6.17
420.83	6.3
421.035	6.34
421.241	6.39
421.446	6.4
421.652	6.3
421.857	6.32
422.063	6.33
422.268	6.25
422.474	6.28
422.679	6.32
422.885	6.34
423.09	6.22
423.295	6.22
423.501	6.15
423.706	6.08
423.911	6.13
424.117	6.16
424.322	6.12
424.527	6.16
424.733	6.16
424.938	5.98
425.143	6.01
425.349	6.03
425.554	6.06
425.759	6.09
425.964	6.08
426.169	6.08
426.375	6.12
426.58	6.01
426.785	6.05
426.99	6.02
427.195	6.11
427.4	6.13
427.605	6.2
427.811	6.14
428.016	6.22
428.221	6.23
428.426	6.18
428.631	6.19
428.836	6.3
429.041	6.13
429.246	6.13
429.451	6.17
429.656	6.15
429.861	6.15
430.066	6.24
430.271	6.23
430.476	6.17
430.681	6.21
430.886	6.08
431.09	6.16
431.295	6.27
431.5	6.32
431.705	6.36
431.91	6.23
432.115	6.28
432.32	6.26
432.524	6.16
432.729	6.17
432.934	6.09
433.139	6.05
433.343	5.95
433.548	5.98
433.753	5.99
433.958	6.01
434.162	6.21
434.367	6.15
434.572	6.01
434.776	6.09
434.981	6.16
435.186	6.16
435.39	6.25
435.595	6.34
435.799	6.36
436.004	6.28
436.209	6.25
436.413	6.15
436.618	6.11
436.822	6.09
437.027	6.14
437.231	6.09
437.436	6.12
437.64	6.1
437.845	6.01
438.049	5.93
438.253	5.96
438.458	5.88
438.662	5.86
438.867	5.86
439.071	5.94
439.275	5.93
439.48	6.01
439.684	5.96
439.888	5.94
440.093	5.97
440.297	5.93
440.501	5.99
440.706	6.04
440.91	6.13
441.114	6.11
441.318	6.08
441.523	6.03
441.727	5.89
441.931	6
442.135	5.99
442.339	6.02
442.543	6.08
442.748	5.96
442.952	5.94
443.156	5.84
443.36	5.91
443.564	5.91
443.768	5.89
443.972	5.91
444.176	5.79
444.38	5.87
444.584	5.79
444.788	5.83
444.992	5.8
445.196	5.78
445.4	5.84
445.604	5.81
445.808	5.83
446.012	5.81
446.216	5.86
446.42	5.89
446.624	5.87
446.828	5.91
447.032	5.85
447.235	5.83
447.439	5.85
447.643	5.81
447.847	5.83
448.051	5.82
448.254	5.72
448.458	5.8
448.662	5.91
448.866	5.93
449.069	5.82
449.273	5.95
449.477	5.95
449.681	5.92
449.884	5.93
450.088	5.94
450.292	5.93
450.495	6.04
450.699	5.91
450.902	5.82
451.106	5.76
451.31	5.87
451.513	5.68
451.717	5.77
451.92	5.77
452.124	5.73
452.327	5.64
452.531	5.59
452.734	5.47
452.938	5.52
453.141	5.49
453.345	5.46
453.548	5.46
453.752	5.52
453.955	5.49
454.158	5.53
454.362	5.57
454.565	5.51
454.769	5.53
454.972	5.58
455.175	5.58
455.379	5.56
455.582	5.74
455.785	5.72
455.988	5.71
456.192	5.68
456.395	5.71
456.598	5.65
456.801	5.64
457.005	5.7
457.208	5.73
457.411	5.71
457.614	5.7
457.817	5.62
458.021	5.58
458.224	5.54
458.427	5.55
458.63	5.52
458.833	5.52
459.036	5.59
459.239	5.54
459.442	5.5
459.645	5.47
459.848	5.5
460.051	5.45
460.254	5.52
460.457	5.55
460.66	5.62
460.863	5.61
461.066	5.67
461.269	5.74
461.472	5.74
461.675	5.82
461.878	5.83
462.081	5.77
462.284	5.81
462.486	5.79
462.689	5.88
462.892	5.84
463.095	5.86
463.298	5.79
463.5	5.74
463.703	5.68
463.906	5.64
464.109	5.68
464.311	5.84
464.514	5.86
464.717	5.76
464.92	5.74
465.122	5.6
465.325	5.68
465.528	5.85
465.73	5.83
465.933	5.85
466.135	5.85
466.338	5.89
466.541	5.68
466.743	5.58
466.946	5.65
467.148	5.6
467.351	5.79
467.553	5.73
467.756	5.6
467.958	5.61
468.161	5.69
468.363	5.77
468.566	5.64
468.768	5.78
468.971	5.87
469.173	5.79
469.375	5.78
469.578	5.86
469.78	5.9
469.983	5.91
470.185	5.98
470.387	6
470.59	6.02
470.792	6
470.994	5.99
471.196	6
471.399	6.14
471.601	6.2
471.803	6.04
472.005	5.99
472.208	5.97
472.41	5.89
472.612	5.92
472.814	5.89
473.016	5.96
473.218	6.02
473.421	6.02
473.623	5.95
473.825	5.92
474.027	5.95
474.229	6
474.431	5.98
474.633	6.05
474.835	5.98
475.037	6.05
475.239	6.16
475.441	6.18
475.643	6.25
475.845	6.23
476.047	6.26
476.249	6.32
476.451	6.25
476.653	6.35
476.855	6.21
477.057	6.22
477.258	6.16
477.46	6.03
477.662	5.97
477.864	5.94
478.066	6.05
478.268	6.1
478.469	6.03
478.671	6.05
478.873	6.14
479.075	6.22
479.276	6.27
479.478	6.27
479.68	6.31
479.882	6.3
480.083	6.24
480.285	6.16
480.487	6.21
480.688	6.19
480.89	6.14
481.091	6.03
481.293	6.03
481.495	5.98
481.696	5.98
481.898	5.95
482.099	5.92
482.301	5.9
482.502	5.89
482.704	5.85
482.905	5.86
483.107	5.86
483.308	5.89
483.51	5.88
483.711	5.89
483.913	5.92
484.114	5.98
484.315	5.98
484.517	6.01
484.718	6.02
484.92	6.04
485.121	6.01
485.322	6.01
485.524	5.95
485.725	5.95
485.926	5.94
486.127	5.9
486.329	5.8
486.53	5.81
486.731	5.83
486.932	5.8
487.134	5.79
487.335	5.84
487.536	5.86
487.737	5.94
487.938	5.94
488.139	5.97
488.341	6.02
488.542	6.13
488.743	6.21
488.944	6.22
489.145	6.25
489.346	6.24
489.547	6.21
489.748	6.22
489.949	6.19
490.15	6.21
490.351	6.19
490.552	6.12
490.753	6.14
490.954	6.14
491.155	6.16
491.356	6.23
491.557	6.29
491.758	6.28
491.959	6.31
492.159	6.3
492.36	6.35
492.561	6.4
492.762	6.5
492.963	6.46
493.164	6.41
493.364	6.46
493.565	6.48
493.766	6.4
493.967	6.42
494.167	6.36
494.368	6.44
494.569	6.42
494.769	6.5
494.97	6.58
495.171	6.6
495.371	6.59
495.572	6.62
495.773	6.69
495.973	6.66
496.174	6.69
496.375	6.74
496.575	6.78
496.776	6.78
496.976	6.76
497.177	6.71
497.377	6.75
497.578	6.82
497.778	6.87
497.979	6.78
498.179	6.9
498.38	7
498.58	7.05
498.78	7.02
498.981	7.11
499.181	7.13
499.382	7.18
499.582	7.16
499.782	7.18
499.983	7.01
500.183	7.12
500.383	7.12
500.584	7.04
500.784	7.12
500.984	7.12
501.184	7.18
501.385	7.1
501.585	7.11
501.785	7.16
501.985	7.21
502.185	7.26
502.386	7.29
502.586	7.41
502.786	7.43
502.986	7.36
503.186	7.36
503.386	7.27
503.586	7.31
503.786	7.37
503.987	7.4
504.187	7.41
504.387	7.45
504.587	7.44
504.787	7.44
504.987	7.46
505.187	7.57
505.387	7.75
505.587	7.77
505.786	7.83
505.986	7.86
506.186	7.81
506.386	7.88
506.586	8.01
506.786	8.13
506.986	8.21
507.186	8.41
507.386	8.4
507.585	8.36
507.785	8.51
507.985	8.58
508.185	8.64
508.384	8.79
508.584	8.78
508.784	8.83
508.984	8.89
509.183	8.91
509.383	8.82
509.583	8.93
509.782	8.99
509.982	9
510.182	9.01
510.381	9.08
510.581	9.15
510.781	9.22
510.98	9.27
511.18	9.31
511.379	9.36
511.579	9.5
511.778	9.51
511.978	9.68
512.177	9.78
512.377	9.9
512.576	9.91
512.776	9.87
512.975	9.93
513.175	9.91
513.374	9.89
513.573	9.84
513.773	9.98
513.972	10.08
514.172	10.02
514.371	10.1
514.57	10.11
514.77	10.26
514.969	10.38
515.168	10.45
515.367	10.46
515.567	10.57
515.766	10.7
515.965	10.66
516.164	10.63
516.364	10.66
516.563	10.66
516.762	10.68
516.961	10.69
517.16	10.74
517.359	10.78
517.559	10.91
517.758	10.9
517.957	10.97
518.156	10.98
518.355	11.08
518.554	11.2
518.753	11.19
518.952	11.27
519.151	11.31
519.35	11.35
519.549	11.39
519.748	11.47
519.947	11.59
520.146	11.6
520.345	11.63
520.544	11.71
520.743	11.75
520.942	11.88
521.141	11.96
521.339	12.05
521.538	12.05
521.737	12.2
521.936	12.23
522.135	12.29
522.333	12.4
522.532	12.55
522.731	12.58
522.93	12.61
523.129	12.64
523.327	12.68
523.526	12.67
523.725	12.76
523.923	12.78
524.122	12.79
524.321	12.8
524.519	12.81
524.718	12.9
524.917	12.93
525.115	13.04
525.314	13.11
525.512	13.2
525.711	13.24
525.909	13.22
526.108	13.24
526.306	13.31
526.505	13.34
526.703	13.38
526.902	13.39
527.1	13.41
527.299	13.41
527.497	13.43
527.696	13.47
527.894	13.54
528.092	13.63
528.291	13.7
528.489	13.74
528.688	13.83
528.886	13.88
529.084	13.94
529.283	14.03
529.481	14.09
529.679	14.21
529.877	14.25
530.076	14.27
530.274	14.3
530.472	14.32
530.67	14.36
530.869	14.37
531.067	14.36
531.265	14.37
531.463	14.4
531.661	14.45
531.859	14.42
532.057	14.44
532.255	14.45
532.454	14.5
532.652	14.54
532.85	14.6
533.048	14.64
533.246	14.74
533.444	14.8
533.642	14.88
533.84	14.92
534.038	15
534.236	15.05
534.434	15.12
534.632	15.18
534.83	15.23
535.027	15.3
535.225	15.32
535.423	15.35
535.621	15.32
535.819	15.31
536.017	15.34
536.215	15.38
536.412	15.42
536.61	15.43
536.808	15.48
537.006	15.49
537.203	15.5
537.401	15.56
537.599	15.61
537.797	15.78
537.994	15.87
538.192	15.89
538.39	15.97
538.587	16.01
538.785	15.99
538.983	16
539.18	15.99
539.378	16
539.575	16.02
539.773	16.03
539.97	16.04
540.168	16.03
540.366	16.06
540.563	16.04
540.761	16.02
540.958	16.12
541.155	16.17
541.353	16.27
541.55	16.33
541.748	16.38
541.945	16.4
542.143	16.37
542.34	16.39
542.537	16.44
542.735	16.55
542.932	16.65
543.129	16.67
543.327	16.79
543.524	16.79
543.721	16.82
543.919	16.78
544.116	16.95
544.313	17
544.51	17.04
544.708	17.11
544.905	17.09
545.102	17.13
545.299	17.21
545.496	17.18
545.693	17.15
545.891	17.22
546.088	17.31
546.285	17.31
546.482	17.4
546.679	17.44
546.876	17.51
547.073	17.44
547.27	17.47
547.467	17.43
547.664	17.44
547.861	17.47
548.058	17.45
548.255	17.47
548.452	17.43
548.649	17.41
548.846	17.49
549.043	17.56
549.24	17.78
549.437	17.91
549.633	18.08
549.83	18.18
550.027	18.13
550.224	18.2
550.421	18.19
550.618	18.31
550.814	18.34
551.011	18.33
551.208	18.32
551.405	18.32
551.601	18.25
551.798	18.2
551.995	18.23
552.191	18.37
552.388	18.42
552.585	18.47
552.781	18.5
552.978	18.6
553.175	18.63
553.371	18.65
553.568	18.66
553.764	18.84
553.961	18.86
554.157	18.89
554.354	18.91
554.55	19.06
554.747	19.14
554.943	19.12
555.14	19.19
555.336	19.31
555.533	19.37
555.729	19.5
555.926	19.49
556.122	19.5
556.318	19.51
556.515	19.7
556.711	19.6
556.907	19.59
557.104	19.64
557.3	19.66
557.496	19.76
557.693	19.76
557.889	19.84
558.085	19.84
558.281	19.89
558.478	19.91
558.674	19.84
558.87	19.98
559.066	19.87
559.262	20.03
559.459	19.96
559.655	19.87
559.851	19.94
560.047	19.97
560.243	20.05
560.439	20.05
560.635	20.17
560.831	20.34
561.027	20.34
561.223	20.5
561.419	20.45
561.615	20.64
561.811	20.75
562.007	20.82
562.203	20.76
562.399	20.78
562.595	20.92
562.791	20.89
562.987	20.81
563.183	20.72
563.379	20.83
563.575	20.87
563.771	20.72
563.966	20.79
564.162	20.7
564.358	20.72
564.554	20.81
564.75	20.85
564.945	20.99
565.141	21.06
565.337	21.23
565.533	21.3
565.728	21.41
565.924	21.66
566.12	21.66
566.315	21.85
566.511	21.94
566.707	21.82
566.902	21.8
567.098	21.69
567.293	21.82
567.489	21.83
567.684	21.82
567.88	21.89
568.076	21.84
568.271	21.84
568.467	21.9
568.662	22.03
568.858	22.23
569.053	22.28
569.248	22.44
569.444	22.37
569.639	22.37
569.835	22.41
570.03	22.38
570.225	22.47
570.421	22.52
570.616	22.62
570.812	22.63
571.007	22.63
571.202	22.7
571.397	22.61
571.593	22.66
571.788	22.68
571.983	22.69
572.178	22.73
572.374	22.7
572.569	22.71
572.764	22.54
572.959	22.53
573.154	22.57
573.35	22.63
573.545	22.79
573.74	22.71
573.935	22.81
574.13	22.89
574.325	22.79
574.52	22.86
574.715	22.92
574.91	22.97
575.105	23.01
575.3	23.03
575.495	23.06
575.69	23.08
575.885	23.21
576.08	23.18
576.275	23.13
576.47	23.3
576.665	23.4
576.86	23.51
577.055	23.64
577.25	23.79
577.444	23.76
577.639	23.73
577.834	23.79
578.029	23.91
578.224	24.04
578.418	24.16
578.613	24.2
578.808	24.15
579.003	24.15
579.197	24.11
579.392	23.97
579.587	24.08
579.781	24.2
579.976	24.2
580.171	24.26
580.365	24.33
580.56	24.44
580.755	24.47
580.949	24.48
581.144	24.52
581.338	24.55
581.533	24.66
581.727	24.66
581.922	24.55
582.116	24.67
582.311	24.57
582.505	24.46
582.7	24.42
582.894	24.42
583.089	24.42
583.283	24.47
583.478	24.62
583.672	24.64
583.866	24.71
584.061	24.78
584.255	24.76
584.449	24.88
584.644	25
584.838	25.08
585.032	25.17
585.226	25.18
585.421	25.24
585.615	25.22
585.809	25.17
586.003	25.34
586.198	25.26
586.392	25.23
586.586	25.27
586.78	25.32
586.974	25.31
587.168	25.41
587.363	25.4
587.557	25.28
587.751	25.24
587.945	25.42
588.139	25.36
588.333	25.53
588.527	25.59
588.721	25.57
588.915	25.51
589.109	25.46
589.303	25.44
589.497	25.56
589.691	25.64
589.885	25.75
590.079	25.83
590.273	25.8
590.466	25.88
590.66	25.98
590.854	25.97
591.048	25.99
591.242	26.05
591.436	26.16
591.629	26.23
591.823	26.25
592.017	26.3
592.211	26.2
592.404	26.36
592.598	26.26
592.792	26.13
592.986	26.22
593.179	26.29
593.373	26.33
593.567	26.24
593.76	26.17
593.954	26.22
594.147	26.26
594.341	26.37
594.535	26.24
594.728	26.36
594.922	26.53
595.115	26.58
595.309	26.62
595.502	26.64
595.696	26.71
595.889	26.71
596.083	26.81
596.276	26.8
596.47	26.86
596.663	26.88
596.856	26.83
597.05	26.74
597.243	26.64
597.437	26.73
597.63	26.74
597.823	26.72
598.017	26.87
598.21	26.83
598.403	26.73
598.596	26.62
598.79	26.69
598.983	26.85
599.176	26.83
599.369	26.97
599.563	27.01
599.756	27.1
599.949	27.22
600.142	27.24
600.335	27.38
600.528	27.57
600.722	27.65
600.915	27.72
601.108	27.87
601.301	28.12
601.494	28.07
601.687	28.12
601.88	28.09
602.073	28.11
602.266	28.17
602.459	28.12
602.652	27.98
602.845	28.01
603.038	27.96
603.231	27.8
603.424	27.77
603.617	27.84
603.809	27.76
604.002	27.86
604.195	27.83
604.388	27.72
604.581	27.77
604.774	27.9
604.966	27.87
605.159	28.04
605.352	28.01
605.545	27.99
605.737	27.99
605.93	28.01
606.123	28.06
606.316	28.2
606.508	28.24
606.701	28.32
606.894	28.41
607.086	28.41
607.279	28.19
607.471	28.3
607.664	28.33
607.857	28.31
608.049	28.38
608.242	28.4
608.434	28.3
608.627	28.33
608.819	28.13
609.012	28.06
609.204	28.08
609.397	28.19
609.589	28.28
609.782	28.24
609.974	28.24
610.166	28.28
610.359	28.16
610.551	28.13
610.743	28.29
610.936	28.48
611.128	28.63
611.32	28.57
611.513	28.64
611.705	28.64
611.897	28.64
612.09	28.64
612.282	28.61
612.474	28.57
612.666	28.49
612.858	28.12
613.051	28.1
613.243	28.02
613.435	28.07
613.627	28.08
613.819	28.18
614.011	28.36
614.203	28.48
614.395	28.4
614.588	28.38
614.78	28.64
614.972	29.01
615.164	29.09
615.356	29.19
615.548	29.32
615.74	29.32
615.932	29.16
616.124	29.11
616.315	29.25
616.507	29.22
616.699	29.36
616.891	29.33
617.083	29.33
617.275	29.35
617.467	29.28
617.659	29.36
617.85	29.4
618.042	29.57
618.234	29.52
618.426	29.43
618.618	29.62
618.809	29.64
619.001	29.73
619.193	29.59
619.384	29.5
619.576	29.53
619.768	29.27
619.959	29.23
620.151	29.19
620.343	29.14
620.534	29.31
620.726	29.33
620.917	29.48
621.109	29.3
621.301	29.41
621.492	29.63
621.684	29.75
621.875	29.97
622.067	29.97
622.258	29.87
622.45	29.89
622.641	29.77
622.832	29.69
623.024	29.65
623.215	29.74
623.407	29.59
623.598	29.51
623.789	29.36
623.981	29.33
624.172	29.62
624.363	29.64
624.555	29.76
624.746	29.86
624.937	29.91
625.129	29.96
625.32	29.98
625.511	30.14
625.702	30.09
625.893	30.07
626.085	30.19
626.276	30
626.467	30.03
626.658	29.98
626.849	29.93
627.04	29.93
627.231	29.87
627.422	29.86
627.614	29.82
627.805	29.89
627.996	29.93
628.187	29.8
628.378	29.78
628.569	29.93
628.76	29.97
628.951	29.99
629.142	30
629.332	30.02
629.523	29.89
629.714	30
629.905	29.99
630.096	30
630.287	30.25
630.478	30.16
630.669	30.1
630.859	30.11
631.05	30.02
631.241	30.18
631.432	30.17
631.623	30.34
631.813	30.3
632.004	30.11
632.195	30.08
632.385	29.87
632.576	29.98
632.767	30.01
632.957	30.06
633.148	30.16
633.339	30.13
633.529	30.1
633.72	30.1
633.91	30.04
634.101	30.32
634.292	30.45
634.482	30.53
634.673	30.49
634.863	30.49
635.054	30.41
635.244	30.43
635.435	30.38
635.625	30.48
635.815	30.62
636.006	30.74
636.196	30.69
636.387	30.73
636.577	30.73
636.767	30.8
636.958	30.73
637.148	30.93
637.338	30.92
637.529	30.81
637.719	30.84
637.909	30.74
638.099	30.79
638.29	30.84
638.48	30.73
638.67	30.77
638.86	30.96
639.05	31.16
639.241	31.19
639.431	31.06
639.621	31.18
639.811	31.2
640.001	31.33
640.191	31.28
640.381	31.38
640.571	31.6
640.761	31.47
640.951	31.4
641.141	31.06
641.331	30.97
641.521	31.12
641.711	31.24
641.901	31.15
642.091	31.21
642.281	31.1
642.471	31.05
642.661	30.9
642.851	30.97
643.041	30.88
643.231	30.9
643.42	30.91
643.61	31.02
643.8	31.01
643.99	31.14
644.18	31.03
644.369	31.09
644.559	31.04
644.749	31.25
644.939	31.35
645.128	31.35
645.318	31.49
645.508	31.49
645.697	31.67
645.887	31.53
646.076	31.6
646.266	31.46
646.456	31.6
646.645	31.62
646.835	31.4
647.024	31.56
647.214	31.73
647.403	31.61
647.593	31.54
647.782	31.54
647.972	31.75
648.161	31.6
648.351	31.8
648.54	31.62
648.73	31.79
648.919	31.99
649.108	31.73
649.298	31.62
649.487	32.03
649.677	32.26
649.866	32.11
650.055	31.82
650.244	31.87
650.434	31.71
650.623	31.99
650.812	31.83
651.002	31.75
651.191	31.93
651.38	32.16
651.569	31.94
651.758	31.84
651.947	31.83
652.137	32.08
652.326	31.97
652.515	31.99
652.704	31.8
652.893	32.11
653.082	32.1
653.271	32.16
653.46	32.02
653.649	32.18
653.838	32.08
654.027	32.3
654.216	32.51
654.405	32.6
654.594	32.57
654.783	32.56
654.972	32.12
655.161	32.13
655.35	32.02
655.539	31.87
655.728	31.86
655.916	31.86
656.105	31.68
656.294	31.54
656.483	31.56
656.672	31.75
656.86	31.97
657.049	32.21
657.238	32.19
657.427	32.46
657.615	32.45
657.804	32.51
657.993	32.5
658.181	32.57
658.37	32.7
658.559	32.71
658.747	32.75
658.936	32.62
659.125	32.59
659.313	32.68
659.502	32.41
659.69	32.61
659.879	32.44
660.067	32.43
660.256	32.58
660.444	32.27
660.633	32.37
660.821	32.2
661.01	32.3
661.198	32.39
661.387	32.46
661.575	32.61
661.763	32.81
661.952	32.92
662.14	33.06
662.328	32.84
662.517	33.02
662.705	32.87
662.893	32.77
663.082	32.71
663.27	32.8
663.458	32.46
663.646	32.57
663.834	32.45
664.023	32.26
664.211	32.17
664.399	32.15
664.587	32.09
664.775	32.03
664.963	32.13
665.152	32.15
665.34	31.88
665.528	32.14
665.716	31.74
665.904	31.58
666.092	31.83
666.28	31.88
666.468	31.78
666.656	31.89
666.844	32.11
667.032	32.19
667.22	31.96
667.408	32
667.596	31.92
667.784	31.94
667.971	31.92
668.159	31.9
668.347	32.05
668.535	32.32
668.723	32.35
668.911	32.33
669.098	32.53
669.286	32.62
669.474	32.48
669.662	32.47
669.849	32.67
670.037	32.8
670.225	33.14
670.413	33.07
670.6	32.9
670.788	32.81
670.976	32.89
671.163	32.76
671.351	32.81
671.538	33.05
671.726	33.34
671.913	33.23
672.101	33.36
672.289	32.88
672.476	32.77
672.664	32.51
672.851	32.8
673.039	32.64
673.226	32.62
673.413	32.76
673.601	32.91
673.788	32.65
673.976	32.76
674.163	32.59
674.35	32.85
674.538	33.09
674.725	33.21
674.912	32.71
675.1	32.82
675.287	33.11
675.474	33.37
675.662	33.16
675.849	33.44
676.036	33.38
676.223	33.51
676.411	33.47
676.598	33.48
676.785	33.68
676.972	34.06
677.159	34.06
677.346	33.82
677.533	33.52
677.721	33.74
677.908	33.71
678.095	33.86
678.282	33.69
678.469	33.74
678.656	33.64
678.843	33.65
679.03	33.56
679.217	33.68
679.404	33.8
679.591	33.88
679.778	33.82
679.964	33.75
680.151	33.82
680.338	33.63
680.525	33.5
680.712	33.76
680.899	33.98
681.086	33.97
681.272	33.68
681.459	33.64
681.646	33.34
681.833	33.39
682.02	33.46
682.206	33.38
682.393	33.57
682.58	33.63
682.766	33.41
682.953	33.17
683.14	33.09
683.326	33.27
683.513	33.18
683.7	33.47
683.886	33.54
684.073	33.43
684.259	33.55
684.446	33.52
684.632	33.58
684.819	33.71
685.005	33.54
685.192	33.55
685.378	33.81
685.565	33.74
685.751	33.67
685.938	33.26
686.124	33.29
686.31	33.1
686.497	33.18
686.683	33.07
686.87	33.09
687.056	33.21
687.242	33.37
687.429	33.08
687.615	33.11
687.801	33.01
687.987	33.33
688.174	33.67
688.36	33.85
688.546	33.99
688.732	34.07
688.918	33.92
689.105	33.93
689.291	33.89
689.477	33.84
689.663	33.86
689.849	34.38
690.035	34.29
690.221	33.55
690.407	33.81
690.593	33.93
690.779	33.89
690.965	33.84
691.151	33.71
691.337	33.87
691.523	34.01
691.709	34.17
691.895	33.58
692.081	33.78
692.267	34.32
692.453	33.5
692.639	33.52
692.825	33.23
693.011	33.48
693.196	33.39
693.382	33.16
693.568	33.14
693.754	33.15
693.94	33.47
694.125	33.66
694.311	33.4
694.497	33.82
694.682	33.54
694.868	33.76
695.054	33.76
695.239	34.11
695.425	33.9
695.611	33.95
695.796	34.04
695.982	34.23
696.168	33.87
696.353	34.15
696.539	34.44
696.724	34.58
696.91	34.55
697.095	34.43
697.281	34.45
697.466	34.61
697.652	34.46
697.837	34.39
698.023	34.09
698.208	34.28
698.393	34.16
698.579	33.99
698.764	33.93
698.949	34.09
699.135	34.05
699.32	34.02
699.505	34.14
699.691	34.43
699.876	34.49
700.061	34.71
700.246	34.46
700.432	34.6
700.617	34.53
700.802	34.34
700.987	34.04
701.172	34.23
701.358	34.21
701.543	34.33
701.728	34.25
701.913	34.06
702.098	33.77
702.283	34.05
702.468	33.81
702.653	33.75
702.838	34.16
703.023	34.42
703.208	34.13
703.393	34.07
703.578	33.74
703.763	33.63
703.948	33.91
704.133	34.21
704.318	34.18
704.503	34.35
704.688	34.35
704.873	34.29
705.057	34.35
705.242	34.19
705.427	34.16
705.612	34.38
705.797	34.58
705.981	34.74
706.166	34.73
706.351	34.41
706.536	34.01
706.72	33.84
706.905	33.71
707.09	33.56
707.274	34.12
707.459	34.29
707.644	34.11
707.828	33.95
708.013	33.77
708.197	33.89
708.382	33.89
708.567	34.44
708.751	34.71
708.936	35
709.12	35.07
709.305	34.88
709.489	34.54
709.673	34.51
709.858	34.59
710.042	34.47
710.227	34.39
710.411	34.53
710.596	34.52
710.78	34.38
710.964	34.06
711.149	33.97
711.333	34.03
711.517	34.29
711.702	34.53
711.886	34.48
712.07	34.32
712.254	34.27
712.438	34.22
712.623	34.15
712.807	34.12
712.991	34.19
713.175	34.48
713.359	34.45
713.544	34.33
713.728	34.14
713.912	34.06
714.096	34.18
714.28	34.19
714.464	34.39
714.648	34.27
714.832	34.43
715.016	34.41
715.2	34.16
715.384	34.28
715.568	34.27
715.752	34.59
715.936	34.83
716.12	34.8
716.304	34.84
716.488	34.65
716.671	34.76
716.855	34.69
717.039	34.62
717.223	34.55
717.407	34.1
717.59	33.93
717.774	33.33
717.958	33.05
718.142	33.03
718.325	33.11
718.509	33.03
718.693	33.07
718.877	33.08
719.06	33.26
719.244	33.59
719.428	33.54
719.611	33.83
719.795	34.28
719.978	34.84
720.162	35.03
720.345	34.67
720.529	35.13
720.713	35.05
720.896	35.39
721.08	35.38
721.263	35.13
721.446	35.43
721.63	35.04
721.813	35.07
721.997	34.88
722.18	34.9
722.364	35.38
722.547	35.39
722.73	35.22
722.914	34.8
723.097	34.94
723.28	34.82
723.464	34.52
723.647	35.32
723.83	35.44
724.013	34.85
724.197	34.7
724.38	34.57
724.563	34.15
724.746	34.31
724.929	34.78
725.112	34.4
725.296	34.14
725.479	34.47
725.662	34.21
725.845	34.2
726.028	34.37
726.211	34.43
726.394	34.29
726.577	34.37
726.76	34.53
726.943	34.1
727.126	34.2
727.309	34.65
727.492	35.2
727.675	35.06
727.858	34.63
728.041	34.89
728.224	34.57
728.407	34.88
728.589	34.75
728.772	34.54
728.955	35.15
729.138	35.36
729.321	34.98
729.503	34.74
729.686	34.74
729.869	34.89
730.052	34.67
730.234	34.84
730.417	34.36
730.6	34.31
730.782	34.68
730.965	33.7
731.148	33.6
731.33	33.98
731.513	33.6
731.695	33.41
731.878	33.61
732.061	33.86
732.243	33.88
732.426	34.23
732.608	34.79
732.791	34.61
732.973	35.44
733.156	35.81
733.338	35.8
733.52	35.91
733.703	36.15
733.885	36.35
734.068	36.21
734.25	35.97
734.432	35.69
734.615	35.02
734.797	34.73
734.979	34.54
735.162	34.45
735.344	34.63
735.526	34.98
735.708	35.31
735.891	34.73
736.073	34.42
736.255	34.48
736.437	34.56
736.619	35.5
736.802	35.64
736.984	35.51
737.166	35.31
737.348	34.82
737.53	34.32
737.712	34.13
737.894	34.11
738.076	34.5
738.258	34.6
738.44	34.3
738.622	33.59
738.804	33.93
738.986	34.17
739.168	34.11
739.35	34.26
739.532	34.51
739.714	34.31
739.896	34.41
740.078	34.25
740.259	34.73
740.441	34.81
740.623	34.72
740.805	34.73
740.987	34.23
741.168	34.19
741.35	34.07
741.532	33.6
741.714	33.18
741.895	33.26
742.077	33.26
742.259	33.25
742.44	33.19
742.622	33.98
742.804	33.51
742.985	32.91
743.167	32.76
743.348	32.69
743.53	32.88
743.711	33.63
743.893	33.45
744.075	33.43
744.256	33.15
744.438	33.74
744.619	32.85
744.8	33.02
744.982	33.66
745.163	33.79
745.345	33.84
745.526	34.03
745.707	33.99
745.889	35.02
746.07	35.11
746.252	34.96
746.433	35.1
746.614	35.28
746.795	34.25
746.977	34.5
747.158	33.98
747.339	34.14
747.52	34.44
747.702	34.53
747.883	33.68
748.064	34.08
748.245	33.94
748.426	32.95
748.607	33.14
748.788	33.64
748.97	33.66
749.151	33.82
749.332	34.17
749.513	33.4
749.694	33.17
749.875	32.99
750.056	32.73
750.237	32.74
750.418	33.3
750.599	33.65
750.78	34.01
750.96	33.31
751.141	33.17
751.322	33
751.503	33.52
751.684	33.83
751.865	34.3
752.046	33.97
752.226	33.98
752.407	34.67
752.588	33.76
752.769	34.03
752.949	34.7
753.13	35.78
753.311	35.91
753.492	36.02
753.672	35.47
753.853	35.17
754.034	35.14
754.214	34.51
754.395	33.52
754.575	34.04
754.756	33.59
754.937	33.79
755.117	32.7
755.298	32.39
755.478	31.82
755.659	31.61
755.839	32.11
756.02	32.28
756.2	33.37
756.381	33.57
756.561	33.58
756.741	33.51
756.922	33.15
757.102	33.65
757.283	33.61
757.463	34.12
757.643	34.33
757.823	34.04
758.004	34.19
758.184	33.36
758.364	33.66
758.545	33.39
758.725	33.32
758.905	32.79
759.085	32.17
759.265	32.33
759.446	31.84
759.626	31.23
759.806	30.63
759.986	30.24
760.166	31.61
760.346	31.5
760.526	31.63
760.706	32.06
760.886	32.29
761.066	33.11
761.246	33.47
761.426	33.64
761.606	34.27
761.786	34.28
761.966	34.35
762.146	33.59
762.326	33.76
762.506	33.5
762.686	33.37
762.866	33.67
763.046	33.22
763.225	32.87
763.405	32.9
763.585	32.79
763.765	33.17
763.945	33.23
764.124	33.65
764.304	33.75
764.484	34.62
764.664	34.91
764.843	34.92
765.023	35.24
765.203	35.3
765.382	35.03
765.562	35.23
765.741	35.19
765.921	34.98
766.101	34.39
766.28	33.91
766.46	33.25
766.639	33.14
766.819	33.57
766.998	33.79
767.178	33.36
767.357	34.08
767.537	34.01
767.716	34.55
767.896	34.58
768.075	34.73
768.254	35.35
768.434	35.36
768.613	35.57
768.792	34.71
768.972	33.86
769.151	34.62
769.33	34.53
769.51	34.63
769.689	33.94
769.868	33.82
770.047	33.9
770.226	33.75
770.406	33.24
770.585	33.04
770.764	33.87
770.943	33.85
771.122	34.14
771.301	34.41
771.48	33.94
771.66	34.74
771.839	34.22
772.018	34.5
772.197	34.33
772.376	35.24
772.555	35.54
772.734	35.4
772.913	35.75
773.092	35.81
773.271	34.67
773.449	35
773.628	34.39
773.807	35.17
773.986	35.03
774.165	35.22
774.344	34.01
774.523	33.68
774.701	32.98
774.88	33.43
775.059	33.17
775.238	33.71
775.417	33.75
775.595	33.78
775.774	33.8
775.953	34.19
776.131	34.16
776.31	34.66
776.489	34.74
776.667	34.86
776.846	34.7
777.025	34.35
777.203	33.87
777.382	33.73
777.56	34.15
777.739	34.83
777.917	34.9
778.096	34.07
778.274	34.1
778.453	33.34
778.631	33.6
778.81	34.01
778.988	34.79
779.166	35.75
779.345	36.21
779.523	34.89
779.702	34.4
779.88	33.95
780.058	35.03
780.237	34.7
780.415	35.26
780.593	35.42
780.771	35.35
780.95	35.13
781.128	34.36
781.306	34.47
781.484	36.02
781.662	35.29
781.841	35.44
782.019	35.78
782.197	35.59
782.375	35.85
782.553	35.88
782.731	35.38
782.909	34.37
783.087	34.76
783.265	34.06
783.443	32.76
783.621	33.24
783.799	32.51
783.977	32.19
784.155	33.04
784.333	32.49
784.511	31.47
784.689	32.04
784.867	33.14
785.045	33.35
785.223	33.86
785.4	34.69
785.578	34
785.756	34.15
785.934	32.67
786.112	32.41
786.289	32.09
786.467	32.2
786.645	32.18
786.823	30.92
787	30.64
787.178	30.49
787.356	30.15
787.533	31.31
787.711	31.3
787.889	31.79
788.066	31.66
788.244	31.29
788.421	31.54
788.599	31.03
788.776	31.65
788.954	31.47
789.131	31.48
789.309	31.74
789.486	31.8
789.664	32.22
789.841	32.36
790.019	32.48
790.196	32.96
790.373	33.12
790.551	33.18
790.728	33.6
790.906	33.53
791.083	33.97
791.26	34.02
791.437	33.6
791.615	33.04
791.792	33.49
791.969	33.29
792.146	33.31
792.324	32.99
792.501	33.01
792.678	33.43
792.855	33.93
793.032	32.84
793.209	33.24
793.387	33.13
793.564	33.38
793.741	32.93
793.918	32.91
794.095	33.19
794.272	33.61
794.449	33.29
794.626	33.22
794.803	33.73
794.98	34.1
795.157	33.66
795.334	33.51
795.511	33.75
795.688	34.06
795.864	34.82
796.041	35.34
796.218	35.64
796.395	36.59
796.572	35.62
796.749	35.22
796.925	34.54
797.102	34.43
797.279	35.5
797.456	35.4
797.632	34.74
797.809	34.81
797.986	34.58
798.162	34.58
798.339	33.62
798.516	33.73
798.692	33.09
798.869	33.68
799.046	33.62
799.222	31.92
799.399	32.29
799.575	32.33
799.752	31.91
799.928	31.68
800.105	31.45
800.281	32.25
800.458	32.58
800.634	33.57
800.811	34.36
800.987	34.65
801.163	35.88
801.34	35.6
801.516	37.14
801.692	36.35
801.869	36.87
802.045	37.12
802.221	36.65
802.398	37.03
802.574	36.64
802.75	35.56
802.926	34.57
803.103	34.62
803.279	34.52
803.455	33.16
803.631	33.85
803.807	33.54
803.983	33.9
804.16	34.86
804.336	34.03
804.512	33.83
804.688	34.44
804.864	34.42
805.04	33.71
805.216	34.14
805.392	34.96
805.568	34.38
805.744	33.33
805.92	32.48
806.096	31.67
806.272	31.35
806.448	31.14
806.623	31.07
806.799	32.3
806.975	32.35
807.151	32.26
807.327	31.52
807.503	31.6
807.678	33.56
807.854	34.66
808.03	34.63
808.206	35.34
808.381	36.39
808.557	35.9
808.733	34.64
808.908	35.71
809.084	35.92
809.26	36.05
809.435	36.34
809.611	35.09
809.787	33.08
809.962	33.2
810.138	34.16
810.313	33.07
810.489	32.54
810.664	34.32
810.84	32.53
811.015	32.38
811.191	32.87
811.366	34.36
811.542	35.17
811.717	36.02
811.892	36.5
812.068	34.7
812.243	34.8
812.419	36.68
812.594	35.91
812.769	36.09
812.944	35.17
813.12	34.86
813.295	34.21
813.47	33.78
813.645	34.07
813.821	33.42
813.996	32.94
814.171	31.81
814.346	31.78
814.521	31.41
814.697	32.12
814.872	33.74
815.047	33.64
815.222	33.54
815.397	32.99
815.572	31.93
815.747	31.26
815.922	32.15
816.097	33.5
816.272	32.47
816.447	33.15
816.622	33.1
816.797	31.42
816.972	30.93
817.147	31.06
817.322	31.27
817.496	31.91
817.671	31.05
817.846	31.25
818.021	31.64
818.196	30.66
818.371	30.02
818.545	29.54
818.72	30.39
818.895	30.96
819.069	30.77
819.244	31.15
819.419	31.77
819.594	33.21
819.768	33.88
819.943	34.03
820.117	34.14
820.292	34.77
820.467	34.93
820.641	34.73
820.816	34.64
820.99	34.6
821.165	34.5
821.339	34.54
821.514	34.56
821.688	34.45
821.863	34.2
822.037	34.38
822.212	34.17
822.386	34.09
822.56	34.05
822.735	34.09
822.909	33.98
823.084	33.99
823.258	33.84
823.432	33.55
823.606	33.52
823.781	33.86
823.955	33.88
824.129	34.02
824.303	34.26
824.478	34.42
824.652	34.26
824.826	34.68
825	34.68
825.174	34.92
825.348	35.05
825.523	34.68
825.697	34.35
825.871	34.44
826.045	34.05
826.219	33.87
826.393	33.92
826.567	33.97
826.741	33.77
826.915	33.73
827.089	33.37
827.263	33.52
827.437	34.14
827.611	34.02
827.784	33.34
827.958	33.28
828.132	33.35
828.306	32.91
828.48	32.98
828.654	32.8
828.827	33.25
829.001	33.44
829.175	33.06
829.349	32.92
829.522	32.67
829.696	33.58
829.87	33.96
830.044	33.84
830.217	34.2
830.391	33.8
830.565	32.95
830.738	32.63
830.912	32.42
831.085	32.92
831.259	32.36
831.432	32.69
831.606	33.04
831.779	33.73
831.953	32.98
832.126	33.12
832.3	33.56
832.473	33.91
832.647	33.59
832.82	33.04
832.994	32.79
833.167	32.69
833.34	32.16
833.514	31.84
833.687	31.67
833.86	32.05
834.034	32.24
834.207	32.26
834.38	32.35
834.553	32.68
834.727	32.6
834.9	33.38
835.073	33.21
835.246	33.85
835.419	34.24
835.593	33.73
835.766	34.37
835.939	33.41
836.112	33.36
836.285	33.48
836.458	31.71
836.631	31.69
836.804	30.39
836.977	30.84
837.15	30.96
837.323	28.71
837.496	29.3
837.669	29.23
837.842	28.91
838.015	27.91
838.188	28.37
838.361	30.7
838.533	32.16
838.706	32.86
838.879	32.66
839.052	31.96
839.225	33.81
839.398	32.43
839.57	31.93
839.743	34.33
839.916	35.28
840.088	34.14
840.261	33.69
840.434	33.19
840.607	33.3
840.779	33.72
840.952	32.63
841.124	31.28
841.297	31.79
841.47	31.18
841.642	29.78
841.815	29.19
841.987	30.76
842.16	30.39
842.332	29.79
842.505	28.53
842.677	25.81
842.85	27.32
843.022	29.61
843.194	30.7
843.367	29.13
843.539	29.39
843.712	29.16
843.884	30.4
844.056	30.75
844.229	28.99
844.401	30
844.573	33.86
844.745	32.64
844.918	34.37
845.09	36.18
845.262	37.41
845.434	38.27
845.606	36.21
845.779	33.12
845.951	33.09
846.123	35.11
846.295	35.25
846.467	33.03
846.639	32.85
846.811	30.72
846.983	30.54
847.155	30.04
847.327	30.22
847.499	32.35
847.671	31.92
847.843	32.28
848.015	33.82
848.187	35.01
848.359	36.39
848.531	41.59
848.703	38.42
848.875	36.29
849.047	39.26
849.218	34.83
849.39	36.37
849.562	38.39
849.734	36.9
849.905	36.44
850.077	34.16
850.249	32.21
850.421	28.7
850.592	29.32
850.764	29.19
850.936	30.47
851.107	33.51
851.279	33.63
851.451	32.58
851.622	33.87
851.794	33.21
851.965	33.98
852.137	34.36
852.308	35.83
852.48	38.91
852.651	39.08
852.823	40.05
852.994	38.45
853.166	34.95
853.337	36.12
853.509	36.41
853.68	39.25
853.851	41.77
854.023	43.59
854.194	42.26
854.365	41.34
854.537	42.1
854.708	34.49
854.879	33.61
855.05	33.63
855.222	33.26
855.393	32.28
855.564	30.25
855.735	26.56
855.906	24.87
856.078	25.51
856.249	26.08
856.42	25.62
856.591	28.4
856.762	30.92
856.933	33.77
857.104	29.86
857.275	28.05
857.446	27.14
857.617	30.43
857.788	29.73
857.959	28.49
858.13	29.48
858.301	30.77
858.472	29.32
858.643	30.78
858.814	30.1
858.985	31.76
859.155	33.03
859.326	37.29
859.497	35.68
859.668	35.04
859.839	34.59
860.009	34.8
860.18	32.71
860.351	33
860.522	32.42
860.692	30.96
860.863	31.5
861.034	31.79
861.204	27.8
861.375	28.22
861.546	29.95
861.716	29.06
861.887	22.44
862.057	22.91
862.228	21.7
862.398	18.41
862.569	22.91
862.739	23.37
862.91	22.65
863.08	23.44
863.251	25.8
863.421	25.78
863.592	31.25
863.762	35.76
863.932	34.73
864.103	38.58
864.273	41.01
864.443	37.52
864.614	36.57
864.784	36.65
864.954	34.39
865.125	28.88
865.295	28.1
865.465	23.57
865.635	22.99
865.805	23.62
865.976	22.95
866.146	24.21
866.316	24.18
866.486	23.75
866.656	24.89
866.826	22.48
866.996	20.96
867.166	23.49
867.336	21.94
867.506	21.77
867.676	19.76
867.846	21.75
868.016	18.89
868.186	19.68
868.356	16.84
868.526	16.71
868.696	18.1
868.866	19.69
869.036	18.22
869.206	21.53
869.376	21.01
869.545	20.91
869.715	20.46
869.885	21.55
870.055	20.78
870.224	29.71
870.394	29.92
870.564	32.71
870.734	31.93
870.903	32.17
871.073	30.13
871.243	28.02
871.412	32.52
871.582	28.2
871.751	22.36
871.921	23.58
872.091	17.99
872.26	17.76
872.43	16.67
872.599	19.39
872.769	21.73
872.938	25.9
873.108	27.74
873.277	27.75
873.446	26.93
873.616	33.14
873.785	33.66
873.955	33.41
874.124	34.98
874.293	35.45
874.463	37.51
874.632	36.35
874.801	31.73
874.971	31.73
875.14	34.07
875.309	38.05
875.478	37.5
875.647	35.23
875.817	35.31
875.986	34.46
876.155	37.28
876.324	33.24
876.493	33.63
876.662	33.29
876.831	34.79
877	30.03
877.17	27.44
877.339	29.6
877.508	35.56
877.677	35.53
877.846	35.26
878.015	32.67
878.184	32.94
878.352	32.45
878.521	36.04
878.69	34.75
878.859	34.22
879.028	35.25
879.197	37.42
879.366	34.16
879.534	34.66
879.703	35.96
879.872	36.02
880.041	35.81
880.21	34.63
880.378	33.71
880.547	33.38
880.716	34.31
880.884	33.45
881.053	31.55
881.222	31.97
881.39	32.12
881.559	32.62
881.727	33.03
881.896	33.18
882.065	33.67
882.233	33.9
882.402	34.53
882.57	34.25
882.739	34.62
882.907	34.8
883.076	35.1
883.244	34.67
883.412	33.93
883.581	34.25
883.749	34.09
883.918	34.51
884.086	34.56
884.254	34.51
884.423	34.81
884.591	34.37
884.759	33.36
884.927	32.46
885.096	32.83
885.264	33.04
885.432	31.75
885.6	31.64
885.769	30.7
885.937	28.93
886.105	28.11
886.273	25.36
886.441	25.14
886.609	26.44
886.777	25.73
886.945	25.37
887.113	24.25
887.281	25.4
887.449	25.27
887.617	24.38
887.785	22.25
887.953	19.06
888.121	20.54
888.289	22.49
888.457	25.91
888.625	27.41
888.793	29.83
888.961	30.79
889.129	26.79
889.296	28.29
889.464	28.78
889.632	35.12
889.8	39.34
889.967	41.64
890.135	41.71
