Data from 2938490_Reflection_1.txt Node
Date: Wed Jun 17 00:46:27 EDT 2015
User: robert
Spectrometer: USB4E03002
Autoset integration time: false
Trigger mode: 4
Integration Time (sec): 1.000000E-1
Scans to average: 10
Electric dark correction enabled: true
Nonlinearity correction enabled: false
Boxcar width: 5
Stray light correction enabled: false
XAxis mode: Wavelengths
Stop averaging: false
Number of Pixels in Spectrum: 3648
>>>>>Begin Spectral Data<<<<<
177.575	-70.74
177.794	-549.1
178.014	392.28
178.233	269.75
178.452	62.41
178.672	180.49
178.891	-9.01
179.11	-480.39
179.33	-122.03
179.549	20463.16
179.768	-45.98
179.987	-6.82
180.207	-159.61
180.426	-64.72
180.645	-29.58
180.864	-26.67
181.084	5.24
181.303	-116.36
181.522	-32.04
181.741	-21.48
181.96	1.24
182.179	-49.01
182.398	-216.2
182.618	-70.18
182.837	-125.74
183.056	-122.47
183.275	35.34
183.494	-43.31
183.713	47.92
183.932	-4305.26
184.151	444.58
184.37	-88.69
184.589	-61.49
184.808	-73.34
185.027	47.63
185.246	44.72
185.465	63.81
185.684	206.45
185.903	192.02
186.122	336.77
186.341	-521.84
186.56	-241.96
186.779	-155.93
186.998	-114.48
187.216	-36.87
187.435	-342.52
187.654	-192.61
187.873	-39.88
188.092	-45.63
188.311	-45.53
188.53	-27.93
188.748	-43.26
188.967	-35.69
189.186	-12.48
189.405	-39.6
189.623	-80.58
189.842	-41.27
190.061	-45.73
190.28	-394.74
190.498	-88.05
190.717	-98.8
190.936	-196.03
191.154	-136.71
191.373	-118.14
191.592	-4394.67
191.81	-566.7
192.029	-1330.73
192.248	567.33
192.466	-1349.22
192.685	-93.92
192.904	-4.96
193.122	78.25
193.341	53.59
193.559	125.5
193.778	78.4
193.996	60.68
194.215	32.49
194.433	63.49
194.652	77.3
194.87	93.14
195.089	123.66
195.307	90.81
195.526	16.72
195.744	44.03
195.963	16.16
196.181	-17.93
196.399	-54.07
196.618	-65.66
196.836	-164.12
197.055	-129.27
197.273	-84.49
197.491	-127.01
197.71	-139.44
197.928	-203.84
198.146	-127.18
198.365	-69.48
198.583	-65.17
198.801	-101.96
199.019	-53.51
199.238	-47.9
199.456	-3.45
199.674	-36.94
199.892	74.41
200.111	139.64
200.329	178.74
200.547	-16.64
200.765	-10.8
200.983	-142.93
201.202	16.09
201.42	4.83
201.638	2682.61
201.856	567.21
202.074	-36.15
202.292	-18.57
202.51	-54.68
202.728	-216.87
202.946	695.97
203.165	738.76
203.383	-163.86
203.601	4.34
203.819	71.66
204.037	54.01
204.255	91.91
204.473	97.43
204.691	60.35
204.909	67.06
205.127	61.52
205.345	58.88
205.562	67.29
205.78	27.22
205.998	-17.3
206.216	-56.77
206.434	-862.65
206.652	500.73
206.87	-418.93
207.088	-424.81
207.306	-271.37
207.523	-782.66
207.741	4659.73
207.959	748.28
208.177	872.01
208.395	3590.65
208.612	-1290.63
208.83	-422.52
209.048	-90.55
209.266	-298.02
209.483	1386.34
209.701	174.01
209.919	19.72
210.136	60.41
210.354	97.23
210.572	232.35
210.79	199.92
211.007	237.41
211.225	152.77
211.442	676.09
211.66	136.52
211.878	947.87
212.095	-689.7
212.313	2255.56
212.53	1098.93
212.748	-491.85
212.966	-470.03
213.183	2664.27
213.401	509.23
213.618	358.23
213.836	548.39
214.053	2521.64
214.271	2634.06
214.488	171.64
214.705	241.77
214.923	499.43
215.14	313.12
215.358	230.67
215.575	179.93
215.793	660.05
216.01	671.39
216.227	482.68
216.445	947.15
216.662	563.58
216.879	473.56
217.097	215.39
217.314	236.26
217.531	173.99
217.749	193.84
217.966	292.21
218.183	164.01
218.4	172.03
218.618	121.33
218.835	76.61
219.052	71.93
219.269	90.78
219.487	91.26
219.704	86.23
219.921	86.53
220.138	80.42
220.355	93.21
220.572	123.2
220.79	105.03
221.007	92.99
221.224	95.11
221.441	94.5
221.658	83.99
221.875	81.72
222.092	65.64
222.309	48.24
222.526	37.21
222.743	34.28
222.96	22.06
223.177	13.18
223.394	28.99
223.611	34.29
223.828	27.42
224.045	26.03
224.262	26.47
224.479	25.11
224.696	30.67
224.913	31.51
225.13	30.52
225.347	22.34
225.564	20.4
225.781	17.44
225.997	16.2
226.214	16.25
226.431	15.31
226.648	14.64
226.865	13.55
227.082	12.62
227.298	8.48
227.515	7.98
227.732	9.71
227.949	9.24
228.165	9.49
228.382	8.6
228.599	7.96
228.816	7.08
229.032	7.45
229.249	7.16
229.466	6.15
229.682	9.34
229.899	8.59
230.116	8.34
230.332	7.13
230.549	6.5
230.765	7.08
230.982	7.88
231.199	8.03
231.415	9.67
231.632	12.65
231.848	13.84
232.065	13.97
232.281	16.08
232.498	14.96
232.714	15.23
232.931	14.25
233.147	14.22
233.364	12.66
233.58	10.01
233.797	9.59
234.013	8.13
234.23	6.01
234.446	8.79
234.662	6.06
234.879	7.88
235.095	8.71
235.312	8.84
235.528	9.19
235.744	9.21
235.961	11.26
236.177	10.22
236.393	10.05
236.61	7
236.826	5.34
237.042	6.71
237.258	7.74
237.475	5.99
237.691	10.28
237.907	9.34
238.123	9.04
238.339	11.11
238.556	12.96
238.772	14.19
238.988	16.83
239.204	15.85
239.42	16.13
239.636	15.44
239.853	16.58
240.069	14.61
240.285	14.83
240.501	15.07
240.717	14.07
240.933	13.06
241.149	11.96
241.365	11.66
241.581	11.48
241.797	11.09
242.013	10.6
242.229	10.45
242.445	10.66
242.661	10.75
242.877	11.46
243.093	11.4
243.309	12.22
243.525	11.56
243.741	11.91
243.957	11.45
244.173	11.8
244.388	12.53
244.604	11.44
244.82	11.63
245.036	11.5
245.252	10.86
245.468	10.82
245.683	10.93
245.899	11.16
246.115	11
246.331	11.28
246.547	10.56
246.762	10.55
246.978	10.91
247.194	10.71
247.409	11.3
247.625	11.8
247.841	12.28
248.057	11.7
248.272	12.02
248.488	11.45
248.703	11.55
248.919	12.3
249.135	11.75
249.35	11.25
249.566	11.61
249.782	11.01
249.997	10.63
250.213	10.41
250.428	9.68
250.644	9.51
250.859	10.42
251.075	10.36
251.29	10.29
251.506	8.99
251.721	9.36
251.937	9.11
252.152	8.37
252.368	8.04
252.583	9.12
252.798	8.58
253.014	9.21
253.229	8.19
253.445	8.43
253.66	8.74
253.875	9.02
254.091	8.76
254.306	7.42
254.521	6.88
254.737	7
254.952	5.89
255.167	7.28
255.383	6.18
255.598	6.9
255.813	7.33
256.028	6.91
256.244	7.04
256.459	7.21
256.674	7.65
256.889	8.03
257.104	7.68
257.32	7.39
257.535	7.47
257.75	7.62
257.965	7.57
258.18	7.3
258.395	7.58
258.61	7.97
258.826	8.22
259.041	8.16
259.256	7.77
259.471	7.74
259.686	7.86
259.901	7.72
260.116	7.46
260.331	7.71
260.546	7.77
260.761	6.87
260.976	6.81
261.191	5.94
261.406	6.5
261.621	7.95
261.836	8.69
262.05	9.11
262.265	9.18
262.48	10.46
262.695	10.25
262.91	10.47
263.125	12.25
263.34	11.82
263.555	12.01
263.769	10.82
263.984	10.05
264.199	9.88
264.414	9.03
264.629	7.95
264.843	7.4
265.058	7.63
265.273	6.94
265.488	6.7
265.702	6.84
265.917	6.77
266.132	7.17
266.346	6.75
266.561	6.28
266.776	5.88
266.99	6.76
267.205	6.8
267.42	6.1
267.634	6.07
267.849	5.56
268.063	5.19
268.278	4.93
268.492	5.29
268.707	4.54
268.922	4.82
269.136	5.58
269.351	5.58
269.565	5.2
269.78	5.53
269.994	5.91
270.209	6.27
270.423	6.35
270.637	6.49
270.852	6.44
271.066	7.16
271.281	7.07
271.495	6.99
271.709	6.36
271.924	6.67
272.138	6.5
272.353	6.8
272.567	6.5
272.781	6.76
272.996	6.93
273.21	6.6
273.424	6.73
273.638	6.72
273.853	6.92
274.067	7.51
274.281	7.78
274.495	8.43
274.71	7.92
274.924	7.55
275.138	7.19
275.352	7.43
275.566	7.58
275.781	7.9
275.995	8.25
276.209	8.15
276.423	8.63
276.637	8.57
276.851	8.06
277.065	8.2
277.279	8.94
277.493	8.97
277.707	8.85
277.921	8.24
278.135	7.69
278.349	7.62
278.563	7.57
278.777	7.24
278.991	7.14
279.205	7.22
279.419	7.21
279.633	6.89
279.847	7.03
280.061	6.91
280.275	7.84
280.489	7.74
280.703	8.07
280.917	8.1
281.131	8.57
281.344	7.77
281.558	7.43
281.772	7.93
281.986	8.14
282.2	8.1
282.414	7.94
282.627	7.31
282.841	8.05
283.055	7.72
283.269	7.71
283.482	6.97
283.696	7.4
283.91	7.4
284.123	7.11
284.337	6.89
284.551	6.81
284.764	6.67
284.978	6.99
285.192	6.31
285.405	6.43
285.619	6.27
285.833	6.23
286.046	6.55
286.26	6.93
286.473	6.79
286.687	6.84
286.9	6.57
287.114	6.9
287.327	6.82
287.541	7.03
287.754	6.55
287.968	6.41
288.181	6.77
288.395	6.79
288.608	6.49
288.822	7.05
289.035	7.08
289.248	7.46
289.462	7.4
289.675	7.06
289.889	7.07
290.102	7.22
290.315	7.24
290.529	7.15
290.742	6.92
290.955	6.97
291.169	6.38
291.382	6.59
291.595	6.83
291.808	7.4
292.022	6.95
292.235	6.69
292.448	6.46
292.661	6.97
292.875	7.09
293.088	7.25
293.301	7.41
293.514	7.15
293.727	6.83
293.94	7.02
294.153	6.64
294.367	7.09
294.58	7.25
294.793	7.54
295.006	7.25
295.219	7.33
295.432	7.52
295.645	7.52
295.858	7.77
296.071	7.72
296.284	7.5
296.497	7.41
296.71	7.66
296.923	8.08
297.136	7.83
297.349	8.16
297.562	8.19
297.775	8.05
297.988	7.76
298.201	8.24
298.414	8.3
298.626	8.21
298.839	8.8
299.052	9.14
299.265	8.78
299.478	9.16
299.691	9.21
299.903	8.97
300.116	9.14
300.329	9.93
300.542	8.94
300.755	9.46
300.967	9.54
301.18	9.08
301.393	8.85
301.605	9.35
301.818	9.4
302.031	9.24
302.243	9.71
302.456	8.93
302.669	8.85
302.881	9.2
303.094	9.32
303.307	9.64
303.519	9.6
303.732	9.84
303.944	9.36
304.157	9.5
304.37	9.62
304.582	9.45
304.795	10.02
305.007	10.05
305.22	9.82
305.432	9.27
305.645	8.99
305.857	9.25
306.069	8.88
306.282	8.99
306.494	8.99
306.707	9
306.919	9.34
307.132	9.13
307.344	8.87
307.556	9.18
307.769	9.73
307.981	10.08
308.193	10.28
308.406	10.24
308.618	10.26
308.83	10.08
309.043	10.15
309.255	9.84
309.467	10.17
309.679	10.13
309.892	9.93
310.104	9.88
310.316	9.82
310.528	9.69
310.74	9.91
310.953	9.72
311.165	9.7
311.377	9.65
311.589	9.61
311.801	9.67
312.013	10.01
312.225	10.3
312.437	9.84
312.649	9.48
312.862	9.78
313.074	9.53
313.286	9.7
313.498	9.8
313.71	9.9
313.922	9.82
314.134	9.5
314.346	9.04
314.558	9.3
314.77	9.69
314.982	9.85
315.193	9.04
315.405	8.91
315.617	9.22
315.829	9.14
316.041	8.91
316.253	9.31
316.465	9.65
316.677	9.92
316.888	9.39
317.1	9.62
317.312	9.78
317.524	10.48
317.736	11.01
317.947	10.93
318.159	11.26
318.371	10.83
318.583	10.56
318.794	10.52
319.006	10.3
319.218	11.26
319.43	10.8
319.641	10.91
319.853	10.78
320.064	10.6
320.276	10.39
320.488	10.02
320.699	10.7
320.911	11.05
321.123	10.84
321.334	10.71
321.546	9.89
321.757	9.85
321.969	9.87
322.18	9.49
322.392	9.1
322.603	8.79
322.815	8.99
323.026	9.34
323.238	9.07
323.449	9.44
323.661	9.78
323.872	10.67
324.083	11.15
324.295	10.78
324.506	11.26
324.718	11.73
324.929	12.13
325.14	11.94
325.352	11.35
325.563	11.78
325.774	11.76
325.986	11.9
326.197	11.64
326.408	11
326.62	11.27
326.831	11.28
327.042	11.1
327.253	10.49
327.464	11.1
327.676	11.58
327.887	11.08
328.098	11.06
328.309	11.11
328.52	10.83
328.732	11.46
328.943	11.88
329.154	11.56
329.365	11.17
329.576	11.37
329.787	10.8
329.998	10.6
330.209	10.92
330.42	11.13
330.631	10.71
330.842	10.71
331.053	10.63
331.264	10.48
331.475	10.48
331.686	11.38
331.897	11.66
332.108	12.13
332.319	12.22
332.53	11.7
332.741	11.55
332.952	11.52
333.163	12
333.374	11.47
333.585	10.91
333.795	11.23
334.006	10.77
334.217	10.55
334.428	10.16
334.639	10.26
334.849	10.52
335.06	10.35
335.271	10.64
335.482	9.87
335.692	10
335.903	10.3
336.114	10.23
336.325	10.32
336.535	10.67
336.746	11.09
336.957	10.79
337.167	11.28
337.378	11.01
337.589	11.07
337.799	11.44
338.01	11.99
338.22	11.97
338.431	11.13
338.642	10.97
338.852	10.82
339.063	10.73
339.273	10.48
339.484	10.28
339.694	10.64
339.905	10.63
340.115	10.58
340.326	9.87
340.536	10.31
340.746	10.88
340.957	10.93
341.167	11.1
341.378	10.72
341.588	11.06
341.799	10.98
342.009	10.91
342.219	10.67
342.43	10.5
342.64	10.46
342.85	10.27
343.061	10.56
343.271	10.63
343.481	10.65
343.691	10.62
343.902	10.4
344.112	10.44
344.322	10.37
344.532	10.59
344.743	10.69
344.953	11.07
345.163	10.65
345.373	10.5
345.583	10.5
345.793	10.22
346.004	10.56
346.214	10.74
346.424	10.81
346.634	11.02
346.844	11.04
347.054	11.16
347.264	10.81
347.474	10.96
347.684	10.88
347.894	11.11
348.104	11.07
348.314	10.72
348.524	10.32
348.734	10.24
348.944	10.15
349.154	10.19
349.364	10.07
349.574	10.46
349.784	10.52
349.994	10.2
350.204	10.18
350.413	10.34
350.623	10.75
350.833	11.16
351.043	10.66
351.253	10.41
351.463	10.13
351.672	9.94
351.882	9.97
352.092	9.94
352.302	10.56
352.511	10.15
352.721	10.07
352.931	9.84
353.141	9.74
353.35	10.08
353.56	10.1
353.77	10.04
353.979	10.12
354.189	9.92
354.399	9.77
354.608	9.51
354.818	9.65
355.027	9.58
355.237	9.4
355.447	9.69
355.656	9.45
355.866	9.37
356.075	9.63
356.285	9.72
356.494	9.5
356.704	9.42
356.913	9.38
357.123	8.91
357.332	9.09
357.542	8.87
357.751	8.37
357.96	8.72
358.17	8.63
358.379	8.51
358.589	8.43
358.798	8.87
359.007	8.83
359.217	8.81
359.426	9.05
359.635	8.78
359.845	9.03
360.054	9.01
360.263	8.93
360.472	9.16
360.682	9.19
360.891	9.07
361.1	8.71
361.309	8.65
361.519	8.47
361.728	8.34
361.937	8.31
362.146	8.12
362.355	8.11
362.564	8.14
362.774	7.96
362.983	7.78
363.192	7.88
363.401	8.07
363.61	8.43
363.819	8.51
364.028	8.68
364.237	8.66
364.446	8.7
364.655	8.8
364.864	8.71
365.073	8.68
365.282	8.7
365.491	8.92
365.7	9.04
365.909	8.77
366.118	8.5
366.327	8.44
366.536	8.52
366.745	8.69
366.954	8.75
367.162	8.54
367.371	8.43
367.58	8.25
367.789	7.87
367.998	7.67
368.207	7.9
368.415	8.12
368.624	8.48
368.833	8.47
369.042	8.27
369.25	8.19
369.459	8.26
369.668	8.6
369.877	8.67
370.085	8.65
370.294	8.66
370.503	8.54
370.711	8.51
370.92	8.09
371.129	7.96
371.337	8.02
371.546	7.92
371.754	7.83
371.963	7.49
372.171	7.4
372.38	7.53
372.589	7.38
372.797	7.07
373.006	7.17
373.214	7.46
373.423	7.5
373.631	7.31
373.84	7.5
374.048	7.63
374.256	7.63
374.465	7.9
374.673	7.67
374.882	7.67
375.09	7.62
375.298	7.72
375.507	7.38
375.715	7.63
375.923	7.74
376.132	7.68
376.34	7.6
376.548	7.52
376.757	7.2
376.965	7.25
377.173	7.3
377.381	7.48
377.59	7.24
377.798	7.33
378.006	7.11
378.214	7.02
378.423	7.14
378.631	7.04
378.839	7.23
379.047	7.5
379.255	7.54
379.463	7.33
379.671	7.26
379.879	7.19
380.088	7.11
380.296	7.21
380.504	7.38
380.712	7.14
380.92	7.1
381.128	7
381.336	6.79
381.544	6.57
381.752	6.77
381.96	6.77
382.168	6.71
382.376	6.73
382.584	6.42
382.791	6.45
382.999	6.32
383.207	6.13
383.415	5.94
383.623	5.7
383.831	5.78
384.039	5.75
384.247	5.88
384.454	6
384.662	6.13
384.87	6.21
385.078	5.93
385.285	5.85
385.493	6.16
385.701	6.28
385.909	6.63
386.116	6.59
386.324	6.63
386.532	6.3
386.739	6.27
386.947	6.32
387.155	6.38
387.362	6.31
387.57	6.43
387.778	6.37
387.985	6.18
388.193	6.08
388.4	5.97
388.608	5.67
388.816	5.79
389.023	5.58
389.231	5.49
389.438	5.61
389.646	5.69
389.853	5.74
390.061	5.67
390.268	5.82
390.475	5.55
390.683	5.76
390.89	5.86
391.098	5.98
391.305	6.14
391.512	5.97
391.72	5.75
391.927	5.68
392.135	5.81
392.342	5.71
392.549	5.82
392.756	5.98
392.964	5.99
393.171	6.1
393.378	5.96
393.586	5.74
393.793	5.7
394	5.75
394.207	5.74
394.414	5.59
394.622	5.62
394.829	5.33
395.036	5.32
395.243	5.01
395.45	4.83
395.657	4.86
395.864	5.08
396.072	4.98
396.279	5.04
396.486	5.07
396.693	4.97
396.9	5.02
397.107	5.18
397.314	4.98
397.521	5.31
397.728	5.16
397.935	5.25
398.142	5.07
398.349	5.31
398.556	5.17
398.763	5.19
398.97	5.28
399.177	5.25
399.383	5.21
399.59	5.34
399.797	5.13
400.004	5.31
400.211	5.15
400.418	5.28
400.625	5.3
400.831	5.22
401.038	5.09
401.245	5.02
401.452	5.23
401.658	5.19
401.865	5.19
402.072	5.16
402.279	4.96
402.485	5.01
402.692	4.89
402.899	4.76
403.105	4.75
403.312	4.72
403.519	4.72
403.725	4.52
403.932	4.45
404.138	4.58
404.345	4.67
404.552	4.8
404.758	4.63
404.965	4.69
405.171	4.72
405.378	4.76
405.584	4.89
405.791	4.86
405.997	4.86
406.204	4.94
406.41	4.83
406.617	4.63
406.823	4.53
407.029	4.8
407.236	4.72
407.442	4.8
407.649	4.71
407.855	4.83
408.061	4.76
408.268	4.73
408.474	4.65
408.68	4.47
408.887	4.67
409.093	4.63
409.299	4.55
409.505	4.54
409.712	4.43
409.918	4.56
410.124	4.44
410.33	4.34
410.537	4.38
410.743	4.35
410.949	4.4
411.155	4.27
411.361	4.34
411.567	4.37
411.773	4.5
411.98	4.58
412.186	4.39
412.392	4.31
412.598	4.45
412.804	4.25
413.01	4.33
413.216	4.38
413.422	4.56
413.628	4.51
413.834	4.4
414.04	4.3
414.246	4.18
414.452	4.33
414.658	4.3
414.864	4.19
415.07	4.19
415.275	4.13
415.481	4.03
415.687	3.97
415.893	4
416.099	4
416.305	3.99
416.511	4.05
416.716	3.95
416.922	3.94
417.128	3.92
417.334	3.99
417.539	4.01
417.745	3.98
417.951	3.91
418.157	3.96
418.362	3.97
418.568	3.95
418.774	3.96
418.979	4.03
419.185	4.03
419.391	4.09
419.596	4.06
419.802	4.02
420.008	4.04
420.213	3.35
420.419	3.33
420.624	3.27
420.83	3.25
421.035	3.22
421.241	3.25
421.446	3.22
421.652	3.21
421.857	3.2
422.063	3.33
422.268	3.39
422.474	4.13
422.679	4.07
422.885	4.1
423.09	4.16
423.295	4.13
423.501	4.04
423.706	4.03
423.911	4.1
424.117	4.12
424.322	4.01
424.527	3.98
424.733	3.89
424.938	3.95
425.143	4
425.349	3.96
425.554	3.95
425.759	4.03
425.964	4.13
426.169	4.01
426.375	3.98
426.58	3.92
426.785	3.99
426.99	3.99
427.195	3.97
427.4	3.81
427.605	3.74
427.811	3.63
428.016	3.54
428.221	3.45
428.426	3.51
428.631	3.5
428.836	3.57
429.041	3.44
429.246	3.47
429.451	3.31
429.656	3.38
429.861	3.39
430.066	3.47
430.271	3.55
430.476	3.56
430.681	3.48
430.886	3.45
431.09	3.37
431.295	3.48
431.5	3.47
431.705	3.65
431.91	3.71
432.115	3.73
432.32	3.71
432.524	3.69
432.729	3.73
432.934	3.68
433.139	3.73
433.343	3.84
433.548	3.71
433.753	3.67
433.958	3.7
434.162	3.62
434.367	3.57
434.572	3.55
434.776	3.53
434.981	3.57
435.186	3.66
435.39	3.62
435.595	3.66
435.799	3.76
436.004	3.82
436.209	3.76
436.413	3.82
436.618	3.83
436.822	3.81
437.027	3.71
437.231	3.6
437.436	3.7
437.64	3.72
437.845	3.62
438.049	3.56
438.253	3.61
438.458	3.61
438.662	3.61
438.867	3.6
439.071	3.68
439.275	3.69
439.48	3.77
439.684	3.78
439.888	3.79
440.093	3.8
440.297	3.92
440.501	3.87
440.706	3.83
440.91	3.79
441.114	3.82
441.318	3.83
441.523	3.82
441.727	3.81
441.931	3.78
442.135	3.72
442.339	3.69
442.543	3.63
442.748	3.62
442.952	3.58
443.156	3.53
443.36	3.43
443.564	3.51
443.768	3.52
443.972	3.45
444.176	3.46
444.38	3.53
444.584	3.55
444.788	3.58
444.992	3.6
445.196	3.67
445.4	3.76
445.604	3.83
445.808	3.76
446.012	3.73
446.216	3.81
446.42	3.72
446.624	3.73
446.828	3.78
447.032	3.73
447.235	3.67
447.439	3.66
447.643	3.61
447.847	3.71
448.051	3.63
448.254	3.73
448.458	3.72
448.662	3.7
448.866	3.58
449.069	3.58
449.273	3.58
449.477	3.52
449.681	3.45
449.884	3.49
450.088	3.32
450.292	3.42
450.495	3.37
450.699	3.32
450.902	3.45
451.106	3.46
451.31	3.39
451.513	3.47
451.717	3.5
451.92	3.56
452.124	3.45
452.327	3.4
452.531	3.32
452.734	3.34
452.938	3.37
453.141	3.35
453.345	3.32
453.548	3.39
453.752	3.25
453.955	3.29
454.158	3.27
454.362	3.3
454.565	3.33
454.769	3.4
454.972	3.48
455.175	3.36
455.379	3.4
455.582	3.48
455.785	3.27
455.988	3.21
456.192	3.2
456.395	3.16
456.598	3.19
456.801	3.21
457.005	3.14
457.208	3.06
457.411	3.12
457.614	3.09
457.817	3.05
458.021	3.19
458.224	3.3
458.427	3.33
458.63	3.34
458.833	3.32
459.036	3.36
459.239	3.37
459.442	3.36
459.645	3.38
459.848	3.33
460.051	3.35
460.254	3.29
460.457	3.24
460.66	3.2
460.863	3.19
461.066	3.15
461.269	3.07
461.472	3.05
461.675	3.09
461.878	3.04
462.081	3.05
462.284	3.02
462.486	3.06
462.689	3.1
462.892	3.23
463.095	3.34
463.298	3.33
463.5	3.44
463.703	3.51
463.906	3.53
464.109	3.57
464.311	3.61
464.514	3.64
464.717	3.63
464.92	3.6
465.122	3.49
465.325	3.55
465.528	3.64
465.73	3.56
465.933	3.49
466.135	3.55
466.338	3.59
466.541	3.51
466.743	3.53
466.946	3.52
467.148	3.56
467.351	3.61
467.553	3.54
467.756	3.6
467.958	3.67
468.161	3.66
468.363	3.53
468.566	3.39
468.768	3.47
468.971	3.45
469.173	3.42
469.375	3.32
469.578	3.33
469.78	3.36
469.983	3.25
470.185	3.17
470.387	3.33
470.59	3.48
470.792	3.58
470.994	3.67
471.196	3.64
471.399	3.69
471.601	3.76
471.803	3.64
472.005	3.54
472.208	3.6
472.41	3.76
472.612	3.62
472.814	3.58
473.016	3.66
473.218	3.56
473.421	3.57
473.623	3.52
473.825	3.54
474.027	3.65
474.229	3.72
474.431	3.65
474.633	3.62
474.835	3.63
475.037	3.57
475.239	3.51
475.441	3.57
475.643	3.54
475.845	3.58
476.047	3.52
476.249	3.5
476.451	3.43
476.653	3.41
476.855	3.35
477.057	3.42
477.258	3.38
477.46	3.33
477.662	3.33
477.864	3.39
478.066	3.35
478.268	3.39
478.469	3.38
478.671	3.39
478.873	3.43
479.075	3.4
479.276	3.35
479.478	3.43
479.68	3.41
479.882	3.44
480.083	3.46
480.285	3.45
480.487	3.44
480.688	3.37
480.89	3.37
481.091	3.36
481.293	3.37
481.495	3.39
481.696	3.36
481.898	3.36
482.099	3.33
482.301	3.31
482.502	3.31
482.704	3.31
482.905	3.34
483.107	3.35
483.308	3.38
483.51	3.38
483.711	3.35
483.913	3.37
484.114	3.38
484.315	3.38
484.517	3.41
484.718	3.43
484.92	3.46
485.121	3.45
485.322	3.43
485.524	3.41
485.725	3.42
485.926	3.46
486.127	3.45
486.329	3.46
486.53	3.46
486.731	3.45
486.932	3.43
487.134	3.43
487.335	3.42
487.536	3.45
487.737	3.45
487.938	3.46
488.139	3.44
488.341	3.46
488.542	3.43
488.743	3.41
488.944	3.4
489.145	3.42
489.346	3.39
489.547	3.38
489.748	3.33
489.949	3.31
490.15	3.29
490.351	3.3
490.552	3.31
490.753	3.34
490.954	3.39
491.155	3.39
491.356	3.4
491.557	3.42
491.758	3.47
491.959	3.56
492.159	3.62
492.36	3.68
492.561	3.66
492.762	3.72
492.963	3.72
493.164	3.72
493.364	3.74
493.565	3.76
493.766	3.75
493.967	3.69
494.167	3.68
494.368	3.71
494.569	3.72
494.769	3.76
494.97	3.74
495.171	3.75
495.371	3.78
495.572	3.79
495.773	3.75
495.973	3.81
496.174	3.86
496.375	3.85
496.575	3.88
496.776	3.86
496.976	3.91
497.177	3.91
497.377	3.91
497.578	3.91
497.778	3.87
497.979	3.89
498.179	3.87
498.38	3.9
498.58	3.9
498.78	3.84
498.981	3.81
499.181	3.77
499.382	3.8
499.582	3.78
499.782	3.86
499.983	4.04
500.183	4.04
500.383	4.05
500.584	4.11
500.784	4.11
500.984	4.07
501.184	4.14
501.385	4.13
501.585	4.11
501.785	4.07
501.985	4
502.185	3.94
502.386	4
502.586	4.06
502.786	4.09
502.986	4.08
503.186	4.16
503.386	4.13
503.586	4.23
503.786	4.28
503.987	4.41
504.187	4.45
504.387	4.56
504.587	4.66
504.787	4.66
504.987	4.63
505.187	4.63
505.387	4.67
505.587	4.72
505.786	4.77
505.986	4.73
506.186	4.78
506.386	4.79
506.586	4.77
506.786	4.71
506.986	4.73
507.186	4.76
507.386	4.83
507.585	4.9
507.785	4.97
507.985	4.96
508.185	5.01
508.384	5.03
508.584	5.03
508.784	4.97
508.984	5.06
509.183	5.06
509.383	5.13
509.583	5.19
509.782	5.16
509.982	5.1
510.182	5.09
510.381	5.09
510.581	5.11
510.781	5.18
510.98	5.26
511.18	5.15
511.379	5.15
511.579	5.17
511.778	5.18
511.978	5.23
512.177	5.28
512.377	5.34
512.576	5.44
512.776	5.47
512.975	5.49
513.175	5.54
513.374	5.61
513.573	5.73
513.773	5.75
513.972	5.72
514.172	5.76
514.371	5.91
514.57	5.95
514.77	6.02
514.969	5.97
515.168	5.93
515.367	6
515.567	6.08
515.766	6.03
515.965	6.07
516.164	6.1
516.364	6.07
516.563	6.05
516.762	6.07
516.961	6.03
517.16	6.06
517.359	6.14
517.559	6.13
517.758	6.17
517.957	6.28
518.156	6.27
518.355	6.33
518.554	6.42
518.753	6.38
518.952	6.38
519.151	6.44
519.35	6.53
519.549	6.56
519.748	6.57
519.947	6.59
520.146	6.57
520.345	6.63
520.544	6.66
520.743	6.76
520.942	6.82
521.141	7.01
521.339	6.96
521.538	7
521.737	7.05
521.936	7.12
522.135	7.17
522.333	7.24
522.532	7.23
522.731	7.21
522.93	7.18
523.129	7.24
523.327	7.15
523.526	7.25
523.725	7.31
523.923	7.26
524.122	7.25
524.321	7.28
524.519	7.29
524.718	7.3
524.917	7.34
525.115	7.37
525.314	7.41
525.512	7.37
525.711	7.39
525.909	7.33
526.108	7.37
526.306	7.35
526.505	7.33
526.703	7.32
526.902	7.34
527.1	7.38
527.299	7.4
527.497	7.42
527.696	7.49
527.894	7.5
528.092	7.58
528.291	7.6
528.489	7.71
528.688	7.7
528.886	7.75
529.084	7.85
529.283	7.86
529.481	7.89
529.679	7.91
529.877	7.92
530.076	7.97
530.274	7.99
530.472	8.06
530.67	8.05
530.869	8.14
531.067	8.14
531.265	8.16
531.463	8.2
531.661	8.22
531.859	8.2
532.057	8.27
532.255	8.31
532.454	8.28
532.652	8.29
532.85	8.3
533.048	8.34
533.246	8.41
533.444	8.42
533.642	8.48
533.84	8.49
534.038	8.57
534.236	8.58
534.434	8.58
534.632	8.62
534.83	8.73
535.027	8.78
535.225	8.83
535.423	8.84
535.621	8.88
535.819	8.88
536.017	8.99
536.215	9.01
536.412	9.08
536.61	9.08
536.808	9.19
537.006	9.13
537.203	9.18
537.401	9.23
537.599	9.29
537.797	9.32
537.994	9.32
538.192	9.26
538.39	9.37
538.587	9.34
538.785	9.4
538.983	9.38
539.18	9.42
539.378	9.4
539.575	9.39
539.773	9.37
539.97	9.36
540.168	9.45
540.366	9.53
540.563	9.54
540.761	9.59
540.958	9.66
541.155	9.73
541.353	9.8
541.55	9.89
541.748	9.94
541.945	9.98
542.143	10.05
542.34	10.12
542.537	10.18
542.735	10.22
542.932	10.27
543.129	10.27
543.327	10.31
543.524	10.3
543.721	10.29
543.919	10.39
544.116	10.45
544.313	10.54
544.51	10.52
544.708	10.49
544.905	10.55
545.102	10.64
545.299	10.67
545.496	10.58
545.693	10.63
545.891	10.7
546.088	10.71
546.285	10.81
546.482	10.79
546.679	10.85
546.876	10.86
547.073	10.9
547.27	10.91
547.467	10.95
547.664	11.15
547.861	11.21
548.058	11.27
548.255	11.32
548.452	11.39
548.649	11.54
548.846	11.52
549.043	11.55
549.24	11.64
549.437	11.69
549.633	11.84
549.83	11.89
550.027	11.9
550.224	11.96
550.421	11.98
550.618	12.01
550.814	12.07
551.011	12.05
551.208	12.23
551.405	12.28
551.601	12.25
551.798	12.23
551.995	12.31
552.191	12.27
552.388	12.27
552.585	12.37
552.781	12.38
552.978	12.36
553.175	12.54
553.371	12.53
553.568	12.47
553.764	12.67
553.961	12.83
554.157	12.91
554.354	13.06
554.55	13.16
554.747	13.24
554.943	13.33
555.14	13.42
555.336	13.5
555.533	13.57
555.729	13.7
555.926	13.62
556.122	13.55
556.318	13.49
556.515	13.59
556.711	13.58
556.907	13.66
557.104	13.8
557.3	13.87
557.496	13.82
557.693	13.93
557.889	14
558.085	14.11
558.281	14.17
558.478	14.19
558.674	14.25
558.87	14.42
559.066	14.36
559.262	14.39
559.459	14.42
559.655	14.54
559.851	14.59
560.047	14.64
560.243	14.62
560.439	14.72
560.635	14.8
560.831	14.8
561.027	14.85
561.223	14.94
561.419	15.01
561.615	15.08
561.811	15.15
562.007	15.2
562.203	15.23
562.399	15.32
562.595	15.38
562.791	15.39
562.987	15.53
563.183	15.5
563.379	15.53
563.575	15.63
563.771	15.75
563.966	15.74
564.162	15.65
564.358	15.76
564.554	15.82
564.75	15.84
564.945	15.93
565.141	15.98
565.337	16.04
565.533	16.08
565.728	16.11
565.924	16.11
566.12	16.15
566.315	16.24
566.511	16.28
566.707	16.33
566.902	16.35
567.098	16.43
567.293	16.4
567.489	16.44
567.684	16.5
567.88	16.43
568.076	16.48
568.271	16.51
568.467	16.59
568.662	16.57
568.858	16.67
569.053	16.69
569.248	16.68
569.444	16.73
569.639	16.82
569.835	16.93
570.03	17.06
570.225	17.08
570.421	17.13
570.616	17.1
570.812	17.28
571.007	17.31
571.202	17.45
571.397	17.47
571.593	17.55
571.788	17.59
571.983	17.62
572.178	17.63
572.374	17.76
572.569	17.77
572.764	17.95
572.959	17.94
573.154	17.98
573.35	18.01
573.545	18.19
573.74	18.27
573.935	18.38
574.13	18.36
574.325	18.37
574.52	18.37
574.715	18.49
574.91	18.49
575.105	18.46
575.3	18.45
575.495	18.53
575.69	18.44
575.885	18.41
576.08	18.4
576.275	18.53
576.47	18.56
576.665	18.56
576.86	18.72
577.055	18.7
577.25	18.88
577.444	18.95
577.639	18.91
577.834	19.07
578.029	19.14
578.224	19.2
578.418	19.37
578.613	19.61
578.808	19.77
579.003	19.77
579.197	19.76
579.392	19.63
579.587	19.66
579.781	19.8
579.976	19.89
580.171	20
580.365	20.05
580.56	20
580.755	20.03
580.949	20.07
581.144	20.07
581.338	20.26
581.533	20.37
581.727	20.72
581.922	20.69
582.116	20.68
582.311	20.71
582.505	20.69
582.7	20.68
582.894	20.63
583.089	20.57
583.283	20.54
583.478	20.48
583.672	20.73
583.866	20.51
584.061	20.52
584.255	20.45
584.449	20.52
584.644	20.65
584.838	20.71
585.032	20.83
585.226	20.95
585.421	21.07
585.615	21.18
585.809	21.17
586.003	21.14
586.198	21.32
586.392	21.54
586.586	21.59
586.78	21.65
586.974	21.76
587.168	21.87
587.363	21.91
587.557	22.05
587.751	22.07
587.945	22.01
588.139	22.14
588.333	22.12
588.527	22.15
588.721	22.11
588.915	22.16
589.109	22.21
589.303	22.01
589.497	21.96
589.691	22
589.885	22.06
590.079	22.24
590.273	22.45
590.466	22.51
590.66	22.42
590.854	22.45
591.048	22.43
591.242	22.33
591.436	22.5
591.629	22.64
591.823	22.55
592.017	22.68
592.211	22.67
592.404	22.5
592.598	22.48
592.792	22.59
592.986	22.63
593.179	22.55
593.373	22.62
593.567	22.7
593.76	22.64
593.954	22.8
594.147	22.76
594.341	22.7
594.535	22.8
594.728	22.83
594.922	22.92
595.115	22.95
595.309	23.02
595.502	23.09
595.696	22.99
595.889	23.1
596.083	22.92
596.276	23.06
596.47	23.13
596.663	23.21
596.856	23.26
597.05	23.21
597.243	23.21
597.437	23.28
597.63	23.23
597.823	23.34
598.017	23.43
598.21	23.6
598.403	23.49
598.596	23.53
598.79	23.54
598.983	23.43
599.176	23.67
599.369	23.83
599.563	23.96
599.756	24.25
599.949	24.34
600.142	24.3
600.335	24.43
600.528	24.49
600.722	24.51
600.915	24.4
601.108	24.56
601.301	24.59
601.494	24.53
601.687	24.57
601.88	24.52
602.073	24.44
602.266	24.4
602.459	24.36
602.652	24.39
602.845	24.36
603.038	24.36
603.231	24.39
603.424	24.28
603.617	24.35
603.809	24.33
604.002	24.3
604.195	24.31
604.388	24.41
604.581	24.37
604.774	24.37
604.966	24.48
605.159	24.54
605.352	24.48
605.545	24.61
605.737	24.59
605.93	24.44
606.123	24.29
606.316	24.47
606.508	24.46
606.701	24.64
606.894	24.7
607.086	24.67
607.279	24.74
607.471	24.84
607.664	24.77
607.857	24.96
608.049	25.19
608.242	25.35
608.434	25.29
608.627	25.23
608.819	25.15
609.012	25.13
609.204	25.27
609.397	25.2
609.589	25.24
609.782	25.23
609.974	25.13
610.166	25.12
610.359	25.19
610.551	25.33
610.743	25.42
610.936	25.37
611.128	25.45
611.32	25.37
611.513	25.62
611.705	25.51
611.897	25.71
612.09	25.88
612.282	25.87
612.474	25.8
612.666	25.76
612.858	25.91
613.051	26.21
613.243	26.18
613.435	26.16
613.627	26.17
613.819	26.4
614.011	26.38
614.203	26.1
614.395	26.1
614.588	26.16
614.78	26.28
614.972	26.23
615.164	26.03
615.356	26.16
615.548	26.02
615.74	26.04
615.932	25.91
616.124	25.85
616.315	26.04
616.507	26.01
616.699	26.15
616.891	26.07
617.083	25.93
617.275	25.94
617.467	25.9
617.659	26.02
617.85	26.06
618.042	26.23
618.234	26.12
618.426	26.2
618.618	26.5
618.809	26.37
619.001	26.48
619.193	26.67
619.384	26.65
619.576	26.81
619.768	26.96
619.959	26.91
620.151	26.71
620.343	27.19
620.534	27.06
620.726	26.74
620.917	26.79
621.109	26.73
621.301	26.78
621.492	26.89
621.684	27.01
621.875	27.08
622.067	27.01
622.258	27.17
622.45	26.89
622.641	26.99
622.832	27.11
623.024	27.13
623.215	27.19
623.407	27.14
623.598	27.23
623.789	27.04
623.981	27.08
624.172	27.24
624.363	27.26
624.555	27.33
624.746	27.32
624.937	27.27
625.129	27.48
625.32	27.29
625.511	27.33
625.702	27.34
625.893	27.47
626.085	27.45
626.276	27.49
626.467	27.64
626.658	27.64
626.849	27.71
627.04	27.9
627.231	27.69
627.422	27.94
627.614	27.88
627.805	27.82
627.996	27.75
628.187	27.67
628.378	27.66
628.569	27.55
628.76	27.46
628.951	27.54
629.142	27.49
629.332	27.69
629.523	27.66
629.714	27.85
629.905	27.94
630.096	27.97
630.287	28.09
630.478	28.08
630.669	28.05
630.859	28.19
631.05	28.16
631.241	28.09
631.432	28.11
631.623	28.3
631.813	28.37
632.004	28.28
632.195	28.28
632.385	28.31
632.576	28.36
632.767	28.45
632.957	28.49
633.148	28.57
633.339	28.63
633.529	28.7
633.72	28.61
633.91	28.63
634.101	28.8
634.292	28.93
634.482	28.96
634.673	28.98
634.863	28.92
635.054	28.91
635.244	28.88
635.435	28.97
635.625	28.8
635.815	28.82
636.006	28.52
636.196	28.64
636.387	28.73
636.577	28.9
636.767	28.85
636.958	28.85
637.148	28.77
637.338	28.73
637.529	28.67
637.719	28.86
637.909	28.99
638.099	29.24
638.29	28.97
638.48	28.93
638.67	28.79
638.86	29.05
639.05	29.08
639.241	29.21
639.431	29.26
639.621	29.38
639.811	29.26
640.001	29.14
640.191	29.1
640.381	29.42
640.571	29.46
640.761	29.46
640.951	29.11
641.141	29.25
641.331	29.31
641.521	29.35
641.711	29.19
641.901	29.18
642.091	29.27
642.281	29.26
642.471	29.02
642.661	28.97
642.851	28.9
643.041	29.18
643.231	29.11
643.42	29.19
643.61	29.22
643.8	29.38
643.99	29.31
644.18	29.22
644.369	29.29
644.559	29.66
644.749	29.61
644.939	29.44
645.128	29.34
645.318	29.49
645.508	29.47
645.697	29.27
645.887	29.37
646.076	29.61
646.266	29.7
646.456	29.65
646.645	29.33
646.835	29.41
647.024	29.76
647.214	29.96
647.403	29.99
647.593	29.94
647.782	30.28
647.972	30.22
648.161	30.17
648.351	30.2
648.54	30.28
648.73	30.26
648.919	30.13
649.108	29.86
649.298	29.86
649.487	30.03
649.677	30.22
649.866	30.18
650.055	30.2
650.244	30.38
650.434	30.49
650.623	30.69
650.812	31.07
651.002	31.16
651.191	31.58
651.38	31.53
651.569	31.46
651.758	31.27
651.947	31.14
652.137	31.21
652.326	30.97
652.515	31.18
652.704	31
652.893	30.69
653.082	30.76
653.271	30.69
653.46	30.74
653.649	30.74
653.838	31.04
654.027	31.22
654.216	31.1
654.405	31.03
654.594	30.55
654.783	30.76
654.972	30.91
655.161	30.88
655.35	30.75
655.539	30.67
655.728	30.57
655.916	30.33
656.105	30.2
656.294	30.36
656.483	30.8
656.672	30.89
656.86	30.84
657.049	30.79
657.238	30.7
657.427	30.87
657.615	31.05
657.804	30.99
657.993	31.12
658.181	31.18
658.37	31.17
658.559	30.97
658.747	31
658.936	30.89
659.125	31.12
659.313	31.21
659.502	31.13
659.69	31.2
659.879	31.35
660.067	31.4
660.256	31.53
660.444	31.45
660.633	31.42
660.821	31.56
661.01	31.62
661.198	31.24
661.387	31.3
661.575	31.36
661.763	31.13
661.952	31.09
662.14	30.92
662.328	30.95
662.517	31.34
662.705	31.42
662.893	31.46
663.082	31.51
663.27	31.88
663.458	31.92
663.646	31.78
663.834	32.02
664.023	31.91
664.211	32.06
664.399	32.19
664.587	32.01
664.775	31.98
664.963	31.9
665.152	32.09
665.34	31.89
665.528	32.07
665.716	32.06
665.904	31.66
666.092	31.9
666.28	31.87
666.468	31.64
666.656	31.71
666.844	31.9
667.032	31.92
667.22	31.94
667.408	31.89
667.596	31.64
667.784	31.7
667.971	31.8
668.159	31.75
668.347	31.83
668.535	31.77
668.723	31.73
668.911	31.8
669.098	31.86
669.286	31.68
669.474	31.66
669.662	31.88
669.849	31.88
670.037	32.09
670.225	32.28
670.413	32.12
670.6	32.09
670.788	32.05
670.976	31.93
671.163	32.14
671.351	32.32
671.538	32.51
671.726	32.53
671.913	32.59
672.101	32.75
672.289	32.7
672.476	32.66
672.664	32.92
672.851	33.07
673.039	33.27
673.226	33.14
673.413	33.05
673.601	33.15
673.788	33.05
673.976	33.27
674.163	33.24
674.35	33.41
674.538	33.88
674.725	33.7
674.912	33.66
675.1	33.41
675.287	33.35
675.474	33.56
675.662	33.69
675.849	33.61
676.036	33.51
676.223	33.53
676.411	33.25
676.598	32.97
676.785	33.33
676.972	33.33
677.159	33.26
677.346	33.12
677.533	32.99
677.721	32.83
677.908	32.96
678.095	32.87
678.282	32.9
678.469	32.9
678.656	33.21
678.843	33.11
679.03	33.01
679.217	33.03
679.404	33.19
679.591	33.25
679.778	33.28
679.964	33.26
680.151	33.18
680.338	33.37
680.525	33.44
680.712	33.34
680.899	33.64
681.086	33.82
681.272	33.84
681.459	33.73
681.646	33.64
681.833	33.62
682.02	33.76
682.206	34.07
682.393	33.7
682.58	33.78
682.766	33.68
682.953	33.66
683.14	33.77
683.326	33.79
683.513	33.89
683.7	34.05
683.886	34.31
684.073	34.21
684.259	34
684.446	34.4
684.632	34.52
684.819	34.51
685.005	34.27
685.192	34.11
685.378	34.27
685.565	34.48
685.751	34.32
685.938	34.18
686.124	34.11
686.31	34.22
686.497	33.9
686.683	33.55
686.87	33.25
687.056	33.18
687.242	32.97
687.429	33.31
687.615	33.59
687.801	33.66
687.987	33.68
688.174	33.72
688.36	33.77
688.546	33.82
688.732	33.98
688.918	34.24
689.105	34.21
689.291	34.62
689.477	34.21
689.663	33.83
689.849	34.06
690.035	34.1
690.221	34.59
690.407	34.59
690.593	34.44
690.779	34.47
690.965	34.57
691.151	34.52
691.337	34.12
691.523	34.45
691.709	34.69
691.895	34.56
692.081	34.28
692.267	33.88
692.453	33.82
692.639	33.98
692.825	33.81
693.011	33.63
693.196	33.49
693.382	33.45
693.568	33.44
693.754	33.27
693.94	33.37
694.125	33.61
694.311	33.6
694.497	33.82
694.682	33.82
694.868	34.2
695.054	34.38
695.239	34.87
695.425	34.92
695.611	34.72
695.796	34.63
695.982	34.68
696.168	34.63
696.353	34.97
696.539	35.14
696.724	35.24
696.91	35.14
697.095	35.17
697.281	35.06
697.466	35.13
697.652	35.22
697.837	35.21
698.023	35.21
698.208	35.32
698.393	35.17
698.579	35.31
698.764	35.17
698.949	35.13
699.135	35.09
699.32	35.15
699.505	35.4
699.691	35.14
699.876	35.32
700.061	35.09
700.246	35.2
700.432	35.34
700.617	34.72
700.802	34.97
700.987	34.84
701.172	34.57
701.358	34.65
701.543	34.38
701.728	34.65
701.913	34.6
702.098	35.02
702.283	34.51
702.468	34.26
702.653	34.67
702.838	34.46
703.023	34.59
703.208	34.77
703.393	34.59
703.578	34.7
703.763	34.76
703.948	34.79
704.133	34.75
704.318	35.25
704.503	35.08
704.688	34.87
704.873	34.86
705.057	34.91
705.242	35.14
705.427	35.39
705.612	35.61
705.797	35.54
705.981	35.21
706.166	35.01
706.351	35.21
706.536	35.58
706.72	35.89
706.905	35.95
707.09	36.07
707.274	36.11
707.459	36.04
707.644	35.63
707.828	35.59
708.013	36.13
708.197	36.35
708.382	35.76
708.567	35.55
708.751	35.33
708.936	35.24
709.12	35.35
709.305	35.5
709.489	35.44
709.673	35.38
709.858	35.48
710.042	35.24
710.227	34.92
710.411	35.19
710.596	35.13
710.78	35.14
710.964	35.23
711.149	35.08
711.333	35
711.517	35.34
711.702	35.51
711.886	35.55
712.07	35.25
712.254	35.47
712.438	35.46
712.623	35.42
712.807	35.77
712.991	36.22
713.175	36.13
713.359	36.28
713.544	36.02
713.728	36.08
713.912	35.99
714.096	36.22
714.28	36.2
714.464	36.37
714.648	36.59
714.832	36.27
715.016	36.02
715.2	36.16
715.384	35.99
715.568	35.95
715.752	36.37
715.936	36.27
716.12	36.09
716.304	36.09
716.488	36.11
716.671	35.64
716.855	35.44
717.039	35.19
717.223	35.37
717.407	35.12
717.59	35.01
717.774	34.58
717.958	34.72
718.142	34.98
718.325	35.24
718.509	34.85
718.693	35.06
718.877	35.88
719.06	36.16
719.244	36.06
719.428	36.37
719.611	36.42
719.795	36.75
719.978	37.15
720.162	37.25
720.345	37.19
720.529	37.63
720.713	37.76
720.896	36.85
721.08	36.92
721.263	36.67
721.446	36.97
721.63	36.73
721.813	36.1
721.997	35.56
722.18	35.7
722.364	35.51
722.547	35.55
722.73	35.53
722.914	36.3
723.097	36.32
723.28	36.19
723.464	35.58
723.647	35.98
723.83	36.41
724.013	36.65
724.197	36.35
724.38	36.32
724.563	36.33
724.746	36.78
724.929	36.43
725.112	36.56
725.296	36.99
725.479	37.31
725.662	36.98
725.845	36.97
726.028	36.88
726.211	37.06
726.394	37.64
726.577	37.46
726.76	37.43
726.943	37.41
727.126	37.13
727.309	37.05
727.492	37.45
727.675	37.67
727.858	37.8
728.041	38
728.224	38.03
728.407	37.66
728.589	37.67
728.772	37.57
728.955	37.24
729.138	37.36
729.321	37.72
729.503	37.49
729.686	37.65
729.869	37.45
730.052	37.34
730.234	37.08
730.417	37.1
730.6	37.47
730.782	37.53
730.965	37.92
731.148	37.58
731.33	37.41
731.513	37.31
731.695	37.07
731.878	37.4
732.061	37.57
732.243	37.81
732.426	37.41
732.608	36.76
732.791	36.82
732.973	37.02
733.156	37.18
733.338	36.76
733.52	36.64
733.703	36.77
733.885	36.59
734.068	36.19
734.25	35.84
734.432	36.12
734.615	36.5
734.797	36.18
734.979	35.77
735.162	35.99
735.344	35.99
735.526	35.61
735.708	35.58
735.891	35.42
736.073	35.55
736.255	35.26
736.437	35.22
736.619	35.24
736.802	35.2
736.984	35.2
737.166	34.91
737.348	34.67
737.53	34.74
737.712	34.33
737.894	34.65
738.076	34.74
738.258	35.65
738.44	35.61
738.622	36.02
738.804	36.38
738.986	36.34
739.168	36.76
739.35	37.65
739.532	38.26
739.714	38.56
739.896	38.51
740.078	39.23
740.259	39.18
740.441	39.4
740.623	38.83
740.805	38.8
740.987	39.17
741.168	38.94
741.35	38.24
741.532	38.02
741.714	37.66
741.895	36.9
742.077	36.04
742.259	35.65
742.44	35.85
742.622	36.44
742.804	36.49
742.985	36.07
743.167	36.23
743.348	36.38
743.53	36.65
743.711	37.43
743.893	38.22
744.075	38
744.256	38.06
744.438	37.86
744.619	36.92
744.8	36.44
744.982	36.61
745.163	36.52
745.345	37.01
745.526	37.15
745.707	36.69
745.889	36.54
746.07	36.93
746.252	37.05
746.433	37.31
746.614	37.42
746.795	38.4
746.977	38.21
747.158	38.44
747.339	37.94
747.52	37.73
747.702	37.76
747.883	38.13
748.064	38.55
748.245	38.13
748.426	38.12
748.607	38.91
748.788	37.8
748.97	38.44
749.151	38.22
749.332	38.18
749.513	37.69
749.694	37.63
749.875	37.76
750.056	37.5
750.237	37.83
750.418	37.25
750.599	36.96
750.78	37.82
750.96	37.03
751.141	37.04
751.322	36.91
751.503	37.49
751.684	38.7
751.865	38.32
752.046	38.26
752.226	38.43
752.407	38.85
752.588	38.48
752.769	37.74
752.949	37.79
753.13	38.2
753.311	38.49
753.492	38.43
753.672	37.16
753.853	36.88
754.034	36.31
754.214	36.42
754.395	36.13
754.575	36.1
754.756	36.31
754.937	37.63
755.117	37.29
755.298	37.28
755.478	37.71
755.659	38.01
755.839	38.12
756.02	39.06
756.2	38.94
756.381	38.96
756.561	38.98
756.741	38.92
756.922	37.57
757.102	37.84
757.283	37.95
757.463	37.84
757.643	38.12
757.823	38.45
758.004	38.19
758.184	38.28
758.364	38.12
758.545	38.31
758.725	38.62
758.905	38.91
759.085	38.67
759.265	37.92
759.446	37.49
759.626	37.77
759.806	37.07
759.986	37.29
760.166	36.97
760.346	37.57
760.526	37.62
760.706	37.51
760.886	38.04
761.066	38.16
761.246	38.85
761.426	39.37
761.606	38.29
761.786	38.45
761.966	38.02
762.146	38.56
762.326	38.52
762.506	38.21
762.686	38.18
762.866	37.95
763.046	37.87
763.225	37.71
763.405	37.29
763.585	37.61
763.765	37.76
763.945	37.98
764.124	37.76
764.304	37.39
764.484	37.69
764.664	37.91
764.843	37.95
765.023	37.76
765.203	37.66
765.382	37.59
765.562	37.99
765.741	37.79
765.921	37.66
766.101	37.51
766.28	37.98
766.46	37.61
766.639	37.86
766.819	37.64
766.998	37.87
767.178	37.82
767.357	37.96
767.537	37.64
767.716	37.46
767.896	37.69
768.075	37.75
768.254	36.61
768.434	37.44
768.613	36.75
768.792	36.63
768.972	36.92
769.151	37.52
769.33	37.16
769.51	37.09
769.689	37.39
769.868	37.85
770.047	38.09
770.226	39.03
770.406	38.52
770.585	38.22
770.764	38.07
770.943	37.77
771.122	37.27
771.301	38.13
771.48	38.1
771.66	37.74
771.839	37.03
772.018	36.75
772.197	37.3
772.376	37.5
772.555	38.13
772.734	38.28
772.913	37.67
773.092	37.73
773.271	36.93
773.449	36.75
773.628	37.22
773.807	37.37
773.986	37.43
774.165	36.9
774.344	37.31
774.523	37.06
774.701	37.24
774.88	38.56
775.059	38.94
775.238	38.77
775.417	39.09
775.595	39.2
775.774	39.01
775.953	39.9
776.131	39.16
776.31	39.12
776.489	39.49
776.667	39.8
776.846	38.8
777.025	38.56
777.203	39.28
777.382	39.21
777.56	38.82
777.739	38.51
777.917	37.22
778.096	37.82
778.274	36.9
778.453	37
778.631	37.21
778.81	37.23
778.988	36.67
779.166	35.73
779.345	36.1
779.523	36.56
779.702	36.7
779.88	37.2
780.058	36.5
780.237	37.04
780.415	36.18
780.593	35.75
780.771	35.84
780.95	36.9
781.128	37.73
781.306	37.35
781.484	37.04
781.662	37.29
781.841	37.06
782.019	37.86
782.197	37.3
782.375	37.09
782.553	36.86
782.731	36.94
782.909	37.14
783.087	37.24
783.265	37.14
783.443	37.73
783.621	37
783.799	37.46
783.977	37.85
784.155	38.82
784.333	39.88
784.511	39.98
784.689	40.08
784.867	39.86
785.045	40.01
785.223	40
785.4	40.1
785.578	40.99
785.756	39.78
785.934	39.01
786.112	38.66
786.289	39.01
786.467	37.81
786.645	38.65
786.823	37.5
787	37.01
787.178	37.16
787.356	36.29
787.533	35.79
787.711	37.43
787.889	38.33
788.066	37.63
788.244	36.51
788.421	37.67
788.599	36.21
788.776	36.85
788.954	36.48
789.131	37.44
789.309	37.25
789.486	38.2
789.664	37.63
789.841	36.98
790.019	37.58
790.196	37.62
790.373	36.49
790.551	37.29
790.728	37.27
790.906	38.24
791.083	37.06
791.26	37.69
791.437	37.66
791.615	37.63
791.792	37.63
791.969	38.08
792.146	38.14
792.324	38.71
792.501	38.54
792.678	38.43
792.855	38.08
793.032	38.72
793.209	37.75
793.387	37.18
793.564	37.04
793.741	37.16
793.918	37.18
794.095	38.15
794.272	38.12
794.449	37.19
794.626	36.97
794.803	36.91
794.98	37.61
795.157	39.2
795.334	39.26
795.511	39.43
795.688	39.69
795.864	39.72
796.041	39.58
796.218	40.58
796.395	42.24
796.572	42.07
796.749	41.68
796.925	40.36
797.102	39.9
797.279	39.73
797.456	39.7
797.632	38.61
797.809	37.65
797.986	38.15
798.162	38.01
798.339	36.66
798.516	37.97
798.692	38.34
798.869	38.52
799.046	38.69
799.222	38.24
799.399	37.11
799.575	37.14
799.752	37.44
799.928	36.95
800.105	37.31
800.281	37.77
800.458	36.69
800.634	36.68
800.811	36.78
800.987	37.82
801.163	39.29
801.34	40.55
801.516	41.73
801.692	41.8
801.869	41.84
802.045	40.48
802.221	40.81
802.398	41.32
802.574	41.52
802.75	41.92
802.926	40.49
803.103	39.94
803.279	39.53
803.455	39.76
803.631	39.53
803.807	39.76
803.983	40.68
804.16	40.78
804.336	40.22
804.512	39.04
804.688	39.48
804.864	39.77
805.04	39.59
805.216	39.58
805.392	38.91
805.568	39.6
805.744	39.16
805.92	39.73
806.096	39.43
806.272	40.71
806.448	41.91
806.623	41.74
806.799	41.28
806.975	40.7
807.151	40.44
807.327	40.25
807.503	39.85
807.678	40.23
807.854	39.55
808.03	39.66
808.206	38.31
808.381	38.27
808.557	37.5
808.733	36.81
808.908	36.77
809.084	37.85
809.26	39.11
809.435	39.3
809.611	37.5
809.787	36.33
809.962	35.83
810.138	36.77
810.313	36.76
810.489	37.85
810.664	39.04
810.84	38.09
811.015	37.38
811.191	37.16
811.366	38.3
811.542	39.65
811.717	39.87
811.892	41.53
812.068	40.44
812.243	41.1
812.419	40.9
812.594	40.23
812.769	42.8
812.944	42.25
813.12	42.13
813.295	41.06
813.47	40.27
813.645	41.28
813.821	39.03
813.996	39.18
814.171	38.66
814.346	37.72
814.521	39.08
814.697	37.92
814.872	38.26
815.047	37.89
815.222	38.61
815.397	38.73
815.572	38.6
815.747	39.91
815.922	40.75
816.097	40.97
816.272	41.78
816.447	40.66
816.622	40.83
816.797	40.59
816.972	40.52
817.147	40.02
817.322	40.4
817.496	41.54
817.671	42.74
817.846	42.24
818.021	42.24
818.196	41.68
818.371	41.32
818.545	41.81
818.72	41.64
818.895	41.83
819.069	41.41
819.244	42.57
819.419	41.84
819.594	40.49
819.768	40.46
819.943	39.83
820.117	39.22
820.292	39.2
820.467	38.79
820.641	38.62
820.816	38.09
820.99	37.91
821.165	37.52
821.339	37.25
821.514	36.95
821.688	37.15
821.863	37.01
822.037	37.39
822.212	37.2
822.386	37.22
822.56	37.17
822.735	37.19
822.909	37.15
823.084	36.89
823.258	36.74
823.432	36.84
823.606	36.64
823.781	36.91
823.955	36.44
824.129	36.53
824.303	36.39
824.478	36.6
824.652	36.51
824.826	36.79
825	36.81
825.174	37.31
825.348	37.81
825.523	38.03
825.697	37.9
825.871	37.89
826.045	37.89
826.219	37.75
826.393	37.74
826.567	38.34
826.741	38.22
826.915	38.89
827.089	38.88
827.263	38.43
827.437	37.61
827.611	37.46
827.784	37.68
827.958	37.67
828.132	37.75
828.306	37.26
828.48	36.45
828.654	36.31
828.827	35.19
829.001	35.35
829.175	35.7
829.349	36.62
829.522	36.43
829.696	35.94
829.87	36.67
830.044	37.93
830.217	38.27
830.391	38.47
830.565	40.15
830.738	41.15
830.912	40.64
831.085	40.59
831.259	39.66
831.432	40.19
831.606	40.25
831.779	39.36
831.953	38.06
832.126	38.62
832.3	38.91
832.473	37.71
832.647	37.26
832.82	37.32
832.994	36.61
833.167	37.9
833.34	36.99
833.514	37.32
833.687	37.64
833.86	37.88
834.034	36.83
834.207	37.09
834.38	37.79
834.553	38.2
834.727	37.59
834.9	38.59
835.073	38.08
835.246	37.95
835.419	37.76
835.593	37.89
835.766	37.05
835.939	38.47
836.112	38.31
836.285	37.26
836.458	36.74
836.631	37.61
836.804	36.48
836.977	37.12
837.15	38.39
837.323	39.94
837.496	39.49
837.669	39.38
837.842	39.53
838.015	38.82
838.188	38.43
838.361	39.78
838.533	37.75
838.706	39.81
838.879	37.52
839.052	38.57
839.225	38.06
839.398	38.71
839.57	40.31
839.743	39.81
839.916	41.56
840.088	44.04
840.261	43.92
840.434	44.67
840.607	44.08
840.779	44.38
840.952	45.71
841.124	45.43
841.297	46.66
841.47	45.92
841.642	47.72
841.815	46.02
841.987	44.9
842.16	43.57
842.332	44.62
842.505	43.31
842.677	44.03
842.85	44.18
843.022	45.75
843.194	43.89
843.367	46.84
843.539	44.01
843.712	45.59
843.884	42.72
844.056	41.59
844.229	41.16
844.401	44.31
844.573	45.22
844.745	41.44
844.918	40.31
845.09	37.48
845.262	36.48
845.434	37.35
845.606	38.93
845.779	42.64
845.951	44.01
846.123	44.89
846.295	42.37
846.467	41.84
846.639	44.41
846.811	46.43
846.983	46.79
847.155	46.55
847.327	49.77
847.499	46.7
847.671	47.77
847.843	49.91
848.015	48.22
848.187	50.66
848.359	51.89
848.531	49.55
848.703	44.82
848.875	47.57
849.047	45.14
849.218	40.05
849.39	40.05
849.562	39.29
849.734	39.52
849.905	41.09
850.077	39.37
850.249	37.73
850.421	39.65
850.592	42.06
850.764	40.49
850.936	42.91
851.107	49.55
851.279	54.42
851.451	51.11
851.622	50.57
851.794	51.25
851.965	53.73
852.137	53.47
852.308	51.54
852.48	58.18
852.651	58.45
852.823	55.19
852.994	52.59
853.166	48.84
853.337	52.74
853.509	56.29
853.68	56.64
853.851	54.86
854.023	58.57
854.194	59.18
854.365	54.68
854.537	53.59
854.708	57.78
854.879	55.61
855.05	55.1
855.222	47.33
855.393	42.8
855.564	44.32
855.735	44.29
855.906	40.77
856.078	36.19
856.249	37.13
856.42	41.02
856.591	37.91
856.762	38.34
856.933	36.98
857.104	40.86
857.275	40.31
857.446	35.41
857.617	32.36
857.788	32.01
857.959	39.61
858.13	36.75
858.301	35.03
858.472	38.67
858.643	39.3
858.814	43.94
858.985	46.73
859.155	48.76
859.326	52.12
859.497	55.68
859.668	55.69
859.839	54.22
860.009	54.26
860.18	55.2
860.351	55.85
860.522	56.78
860.692	56.86
860.863	55.76
861.034	54
861.204	50.28
861.375	47.42
861.546	51.34
861.716	51.37
861.887	56.34
862.057	57.68
862.228	56.68
862.398	55.56
862.569	53.91
862.739	53.39
862.91	51.93
863.08	56.11
863.251	59.22
863.421	57.21
863.592	55.17
863.762	53.65
863.932	47.91
864.103	51.16
864.273	50.23
864.443	52.66
864.614	52.51
864.784	57.15
864.954	56.32
865.125	60.64
865.295	60.79
865.465	60.22
865.635	65.13
865.805	71.73
865.976	69.5
866.146	69.74
866.316	64.4
866.486	62.47
866.656	59.49
866.826	59.85
866.996	53.61
867.166	53.17
867.336	51.87
867.506	42.66
867.676	38.91
867.846	36.52
868.016	41.42
868.186	47.05
868.356	49.02
868.526	50.08
868.696	49
868.866	52.35
869.036	47.59
869.206	50.08
869.376	54.17
869.545	58.37
869.715	56.56
869.885	53.07
870.055	49.06
870.224	47.02
870.394	49.37
870.564	52.87
870.734	55.9
870.903	56.7
871.073	57.86
871.243	54.16
871.412	54.38
871.582	53.99
871.751	58.56
871.921	59
872.091	60.14
872.26	61.87
872.43	56.69
872.599	51.37
872.769	53.11
872.938	53.79
873.108	54.61
873.277	46.59
873.446	47.74
873.616	44.72
873.785	48.87
873.955	46.22
874.124	43.02
874.293	44.69
874.463	43.31
874.632	44.01
874.801	46.14
874.971	47.12
875.14	53.28
875.309	57.56
875.478	60.24
875.647	52.86
875.817	56.92
875.986	58.32
876.155	58.03
876.324	58.47
876.493	56.27
876.662	50.79
876.831	50.45
877	50.35
877.17	49.2
877.339	48.27
877.508	52.36
877.677	50.66
877.846	47.9
878.015	46.77
878.184	48.56
878.352	47.25
878.521	46.55
878.69	44.54
878.859	45.39
879.028	41.64
879.197	39.73
879.366	39.27
879.534	38.37
879.703	37.02
879.872	36.34
880.041	34.85
880.21	36.98
880.378	36.71
880.547	36.39
880.716	36.22
880.884	36.1
881.053	37.45
881.222	37.12
881.39	37.38
881.559	37.65
881.727	37.34
881.896	37.33
882.065	36.93
882.233	37.57
882.402	37.26
882.57	37.59
882.739	38.4
882.907	38.37
883.076	38.75
883.244	38.21
883.412	38.81
883.581	39.49
883.749	39.6
883.918	40.04
884.086	39.36
884.254	39.66
884.423	40.43
884.591	39.65
884.759	38.86
884.927	39.45
885.096	40.06
885.264	40.35
885.432	40.31
885.6	41.4
885.769	40.12
885.937	40.66
886.105	42.15
886.273	40.15
886.441	40.52
886.609	41.89
886.777	42.1
886.945	43.56
887.113	42.38
887.281	43.38
887.449	42.28
887.617	44.36
887.785	49.99
887.953	50.52
888.121	51.42
888.289	53.46
888.457	51.97
888.625	51.15
888.793	50.25
888.961	51.62
889.129	51.08
889.296	50.52
889.464	52.03
889.632	47.57
889.8	46.41
889.967	44.03
890.135	43.53
