Data from 2938566_Reflection_3.txt Node
Date: Sun Jun 14 22:24:38 EDT 2015
User: robert
Spectrometer: USB4E03002
Autoset integration time: false
Trigger mode: 4
Integration Time (sec): 1.000000E-1
Scans to average: 10
Electric dark correction enabled: true
Nonlinearity correction enabled: false
Boxcar width: 5
Stray light correction enabled: false
XAxis mode: Wavelengths
Stop averaging: false
Number of Pixels in Spectrum: 3648
>>>>>Begin Spectral Data<<<<<
177.575	145.7
177.794	-184.5
178.014	-65.87
178.233	-37.65
178.452	-311.02
178.672	-47100
178.891	181.75
179.11	177.39
179.33	198.92
179.549	243.95
179.768	308.49
179.987	267.24
180.207	-122.65
180.426	-61.09
180.645	-32.04
180.864	-66.65
181.084	-61.96
181.303	-17.89
181.522	9.19
181.741	84.69
181.96	5490.91
182.179	-2673.91
182.398	-338.86
182.618	-25.49
182.837	43.3
183.056	18.53
183.275	27.87
183.494	86.7
183.713	89.18
183.932	102.46
184.151	106.24
184.37	121.5
184.589	121.03
184.808	133.63
185.027	129.46
185.246	106.86
185.465	155.12
185.684	186.48
185.903	250.26
186.122	-109.79
186.341	-1374.25
186.56	-35.52
186.779	-154.02
186.998	2431.88
187.216	463.75
187.435	157.91
187.654	446.64
187.873	258.87
188.092	141.83
188.311	120.87
188.53	124.91
188.748	139.04
188.967	176.88
189.186	192.7
189.405	231.06
189.623	236.61
189.842	189
190.061	161.59
190.28	156.16
190.498	165.23
190.717	-2559.69
190.936	281.33
191.154	162.56
191.373	117.64
191.592	193.68
191.81	199.29
192.029	215.89
192.248	164.02
192.466	158.45
192.685	149.69
192.904	137.58
193.122	105.36
193.341	114.15
193.559	125.16
193.778	129.36
193.996	118.39
194.215	142.61
194.433	165.02
194.652	284.83
194.87	199.56
195.089	236.04
195.307	272.41
195.526	259.8
195.744	284.28
195.963	301.7
196.181	309.59
196.399	237.99
196.618	227.17
196.836	401.64
197.055	243.62
197.273	-388.29
197.491	-740.47
197.71	69.8
197.928	-78.41
198.146	968.63
198.365	395.56
198.583	401.22
198.801	-263.35
199.019	-86.35
199.238	-11.66
199.456	6.16
199.674	-6.31
199.892	-1.41
200.111	56.49
200.329	64.49
200.547	75.94
200.765	84.94
200.983	93.97
201.202	155.88
201.42	143.83
201.638	183.34
201.856	215.06
202.074	151.22
202.292	365.33
202.51	244.97
202.728	388.95
202.946	639.25
203.165	781.08
203.383	226.21
203.601	432.02
203.819	1219.03
204.037	624.21
204.255	469.84
204.473	-914.82
204.691	144.37
204.909	138.57
205.127	116.96
205.345	108.65
205.562	66.7
205.78	99.56
205.998	72.23
206.216	84.77
206.434	119.37
206.652	105.02
206.87	106.05
207.088	125.71
207.306	171.16
207.523	134.94
207.741	157.41
207.959	267.82
208.177	213.65
208.395	233.71
208.612	208.75
208.83	150.92
209.048	212.82
209.266	255.77
209.483	310.39
209.701	210.97
209.919	147.89
210.136	120.24
210.354	94.47
210.572	107.45
210.79	99.96
211.007	108.33
211.225	111.6
211.442	64.96
211.66	64.29
211.878	49.99
212.095	75.77
212.313	97.2
212.53	96.42
212.748	104.38
212.966	110.88
213.183	126.33
213.401	142.2
213.618	139.27
213.836	138.05
214.053	123.41
214.271	116.46
214.488	127.79
214.705	128.84
214.923	194.12
215.14	110.74
215.358	51.76
215.575	18.54
215.793	-5.86
216.01	21.51
216.227	31.88
216.445	24.64
216.662	27.7
216.879	39.23
217.097	25.22
217.314	33.69
217.531	45.35
217.749	48.1
217.966	65.57
218.183	67.95
218.4	64.64
218.618	58.63
218.835	40.67
219.052	48.4
219.269	41.86
219.487	38.69
219.704	46.47
219.921	43.95
220.138	47.7
220.355	41.41
220.572	34.82
220.79	24.1
221.007	17.61
221.224	30.49
221.441	13.82
221.658	20.24
221.875	26.54
222.092	20.27
222.309	10.32
222.526	5.26
222.743	8.94
222.96	5.63
223.177	12.01
223.394	12.94
223.611	16.43
223.828	22.83
224.045	21.7
224.262	23.94
224.479	23.89
224.696	25.19
224.913	23.08
225.13	22.18
225.347	24.4
225.564	20.59
225.781	19.18
225.997	18.07
226.214	14.66
226.431	12.76
226.648	11.68
226.865	11.02
227.082	10.09
227.298	10.81
227.515	10.37
227.732	10.12
227.949	10.29
228.165	11.31
228.382	10.46
228.599	11.36
228.816	11.43
229.032	10.96
229.249	11.51
229.466	12.33
229.682	12.81
229.899	13.07
230.116	12.82
230.332	14.43
230.549	13.48
230.765	13.79
230.982	12.14
231.199	11.69
231.415	12.26
231.632	9.18
231.848	9.99
232.065	8.41
232.281	9.13
232.498	7.6
232.714	5.91
232.931	6.9
233.147	7.38
233.364	7.73
233.58	8.86
233.797	10.6
234.013	11.88
234.23	11.5
234.446	12.05
234.662	11.51
234.879	14.24
235.095	16.27
235.312	15.15
235.528	16.12
235.744	17.71
235.961	18.41
236.177	17.54
236.393	18.82
236.61	18.2
236.826	17.94
237.042	16.23
237.258	15.02
237.475	13.23
237.691	14.46
237.907	13.62
238.123	12.95
238.339	13.34
238.556	12.88
238.772	13.52
238.988	14.33
239.204	13.08
239.42	13.25
239.636	13.03
239.853	13.31
240.069	12.51
240.285	12.88
240.501	11.64
240.717	10.73
240.933	10.56
241.149	10.33
241.365	9.53
241.581	10.54
241.797	10.38
242.013	9.8
242.229	9.29
242.445	9.19
242.661	8.91
242.877	10.39
243.093	10.51
243.309	10.19
243.525	9.6
243.741	10.49
243.957	9.1
244.173	9.17
244.388	10.21
244.604	10.02
244.82	9.79
245.036	8.97
245.252	8.44
245.468	8.28
245.683	8.06
245.899	8.12
246.115	7.94
246.331	8.29
246.547	8.68
246.762	8.02
246.978	7.99
247.194	7.93
247.409	8.31
247.625	8.77
247.841	9.38
248.057	9.96
248.272	9.73
248.488	9.95
248.703	9.55
248.919	8.89
249.135	9.02
249.35	8.79
249.566	9.22
249.782	8.92
249.997	8.45
250.213	8.23
250.428	8.51
250.644	8.69
250.859	8.34
251.075	8.64
251.29	8.22
251.506	9.07
251.721	10.31
251.937	9.99
252.152	9.57
252.368	9.03
252.583	9.05
252.798	8.89
253.014	8.87
253.229	8.01
253.445	9.28
253.66	9.99
253.875	8.8
254.091	7.08
254.306	7.53
254.521	9.72
254.737	9.82
254.952	10.1
255.167	8.66
255.383	9.36
255.598	9.1
255.813	8.54
256.028	8.05
256.244	8.46
256.459	9.03
256.674	8.84
256.889	7.72
257.104	8.25
257.32	7.94
257.535	7.94
257.75	7.5
257.965	7.87
258.18	7.93
258.395	8.25
258.61	8.13
258.826	7.74
259.041	7.74
259.256	7.78
259.471	7.61
259.686	7.67
259.901	8.21
260.116	8.39
260.331	8.22
260.546	8.07
260.761	7.75
260.976	7.9
261.191	8.18
261.406	7.74
261.621	8.52
261.836	8.48
262.05	8.48
262.265	8.12
262.48	8.37
262.695	9.16
262.91	9.71
263.125	9.74
263.34	10.04
263.555	10.1
263.769	9.98
263.984	9.53
264.199	9.73
264.414	9.18
264.629	9.04
264.843	9
265.058	8.28
265.273	7.83
265.488	7.95
265.702	6.92
265.917	6.85
266.132	7.13
266.346	6.85
266.561	6.71
266.776	6.79
266.99	6.32
267.205	5.73
267.42	6.53
267.634	6.14
267.849	5.95
268.063	6.51
268.278	6.37
268.492	6.68
268.707	6.68
268.922	6.77
269.136	6.93
269.351	6.98
269.565	7.02
269.78	6.4
269.994	6.41
270.209	6.81
270.423	6.72
270.637	6.58
270.852	6.41
271.066	6.35
271.281	6.58
271.495	6.27
271.709	7.05
271.924	6.76
272.138	7.14
272.353	7.43
272.567	7.09
272.781	7.2
272.996	7.13
273.21	6.89
273.424	7.04
273.638	6.35
273.853	6.45
274.067	5.62
274.281	6.73
274.495	6.52
274.71	6.22
274.924	6.49
275.138	6.31
275.352	6.79
275.566	6.51
275.781	6.49
275.995	6.65
276.209	7.04
276.423	6.86
276.637	6.1
276.851	6.23
277.065	6.83
277.279	6.95
277.493	6.98
277.707	6.16
277.921	6.67
278.135	6.94
278.349	7.18
278.563	6.85
278.777	7.33
278.991	7.41
279.205	7.18
279.419	6.53
279.633	6.6
279.847	6.84
280.061	7.26
280.275	6.87
280.489	6.76
280.703	6.62
280.917	6.58
281.131	6.21
281.344	6.48
281.558	6.47
281.772	6.52
281.986	5.89
282.2	5.81
282.414	6.04
282.627	6.54
282.841	6.02
283.055	6.03
283.269	6.06
283.482	5.95
283.696	5.49
283.91	5.1
284.123	5.33
284.337	5.65
284.551	5.79
284.764	5.44
284.978	5.1
285.192	5.25
285.405	5.08
285.619	5.01
285.833	5.33
286.046	5.63
286.26	5.87
286.473	5.59
286.687	5.73
286.9	5.5
287.114	6.03
287.327	6.23
287.541	6.23
287.754	6.35
287.968	6.23
288.181	6.14
288.395	6.38
288.608	6.41
288.822	6.38
289.035	5.89
289.248	5.65
289.462	5.6
289.675	5.32
289.889	5.24
290.102	5.28
290.315	5.77
290.529	5.94
290.742	5.84
290.955	5.72
291.169	5.94
291.382	6.21
291.595	6.3
291.808	6.3
292.022	6.38
292.235	6.75
292.448	6.75
292.661	6.32
292.875	6.14
293.088	5.7
293.301	5.78
293.514	5.57
293.727	5.3
293.94	5.54
294.153	5.26
294.367	5.6
294.58	5.59
294.793	5.4
295.006	5.53
295.219	5.48
295.432	5.71
295.645	5.77
295.858	5.89
296.071	6.04
296.284	6.09
296.497	6.1
296.71	5.9
296.923	5.53
297.136	5.4
297.349	5.18
297.562	5.47
297.775	5.67
297.988	5.91
298.201	6.08
298.414	6.19
298.626	5.81
298.839	5.91
299.052	6.22
299.265	7.01
299.478	7.37
299.691	7.81
299.903	7.4
300.116	7.05
300.329	6.64
300.542	6.72
300.755	7.08
300.967	7.67
301.18	7.69
301.393	7.51
301.605	7.37
301.818	7.25
302.031	7.46
302.243	7.44
302.456	7.44
302.669	7.97
302.881	7.69
303.094	7.07
303.307	6.59
303.519	6.51
303.732	6.61
303.944	6.46
304.157	6.88
304.37	6.64
304.582	7.05
304.795	6.98
305.007	6.35
305.22	6.25
305.432	6.25
305.645	6.25
305.857	6.3
306.069	6.38
306.282	6.38
306.494	6.19
306.707	6.08
306.919	5.9
307.132	5.78
307.344	6.13
307.556	6.16
307.769	6.4
307.981	6.5
308.193	6.37
308.406	6.13
308.618	6.08
308.83	5.73
309.043	5.39
309.255	5.24
309.467	5.7
309.679	5.64
309.892	5.45
310.104	5.3
310.316	5.45
310.528	5.55
310.74	5.53
310.953	5.41
311.165	5.56
311.377	6.1
311.589	6.28
311.801	5.95
312.013	5.77
312.225	6.05
312.437	6.11
312.649	6.16
312.862	6.31
313.074	6.35
313.286	6.75
313.498	7
313.71	7.29
313.922	7.09
314.134	7.07
314.346	7.48
314.558	7.91
314.77	8.48
314.982	7.97
315.193	7.89
315.405	8.06
315.617	7.59
315.829	7.49
316.041	7.07
316.253	7.07
316.465	7.03
316.677	6.74
316.888	6.56
317.1	6.42
317.312	7.31
317.524	7.25
317.736	7.36
317.947	7.64
318.159	8.14
318.371	7.86
318.583	8.3
318.794	8.3
319.006	8.57
319.218	8.65
319.43	8.41
319.641	8.11
319.853	8.07
320.064	7.66
320.276	7.75
320.488	7.07
320.699	6.87
320.911	6.74
321.123	6.83
321.334	6.55
321.546	6.32
321.757	6.08
321.969	5.91
322.18	5.93
322.392	6.1
322.603	5.83
322.815	6.33
323.026	6.88
323.238	6.72
323.449	7.22
323.661	6.83
323.872	6.44
324.083	6.62
324.295	6.38
324.506	6.18
324.718	5.97
324.929	5.92
325.14	5.71
325.352	5.49
325.563	5.75
325.774	5.76
325.986	6.17
326.197	6.43
326.408	6.32
326.62	6.63
326.831	7.1
327.042	7.65
327.253	8.16
327.464	8.09
327.676	8.41
327.887	8.14
328.098	7.7
328.309	7.69
328.52	7.8
328.732	7.95
328.943	8.33
329.154	8.54
329.365	8.05
329.576	7.71
329.787	7.96
329.998	7.53
330.209	7.6
330.42	7.57
330.631	7.69
330.842	7.8
331.053	7.92
331.264	7.18
331.475	7.31
331.686	7.79
331.897	8.14
332.108	8.39
332.319	8.51
332.53	8.52
332.741	8.63
332.952	8.75
333.163	8.64
333.374	8.28
333.585	8.7
333.795	8.14
334.006	7.8
334.217	7.53
334.428	6.91
334.639	7.06
334.849	7.2
335.06	7.33
335.271	7.38
335.482	7
335.692	7.15
335.903	7.14
336.114	7.17
336.325	6.97
336.535	7.15
336.746	7.09
336.957	6.93
337.167	6.75
337.378	6.57
337.589	6.55
337.799	6.63
338.01	6.81
338.22	6.48
338.431	6.82
338.642	6.98
338.852	6.78
339.063	6.83
339.273	6.82
339.484	6.95
339.694	6.75
339.905	6.57
340.115	7.03
340.326	6.99
340.536	7.53
340.746	7.38
340.957	7.74
341.167	7.86
341.378	7.91
341.588	8.09
341.799	8.45
342.009	8.31
342.219	8.08
342.43	7.86
342.64	7.95
342.85	7.15
343.061	7.04
343.271	6.34
343.481	5.98
343.691	6.22
343.902	5.95
344.112	5.57
344.322	5.71
344.532	5.98
344.743	6.25
344.953	5.88
345.163	6.29
345.373	6.31
345.583	6.78
345.793	7.12
346.004	6.75
346.214	6.91
346.424	6.87
346.634	7.29
346.844	7.21
347.054	7.08
347.264	7.21
347.474	7.05
347.684	6.82
347.894	6.34
348.104	5.86
348.314	6.38
348.524	6.01
348.734	6.15
348.944	5.64
349.154	5.46
349.364	5.37
349.574	5.51
349.784	5.47
349.994	5.62
350.204	5.97
350.413	6.23
350.623	6
350.833	5.99
351.043	5.8
351.253	5.89
351.463	6.08
351.672	6.01
351.882	5.8
352.092	5.79
352.302	5.75
352.511	5.57
352.721	5.79
352.931	5.83
353.141	5.92
353.35	6
353.56	6.02
353.77	5.64
353.979	5.65
354.189	5.8
354.399	5.78
354.608	6.1
354.818	6.23
355.027	6.15
355.237	6.09
355.447	6.42
355.656	6.64
355.866	6.77
356.075	6.93
356.285	6.79
356.494	6.89
356.704	6.98
356.913	6.79
357.123	6.68
357.332	6.74
357.542	6.72
357.751	6.25
357.96	5.87
358.17	5.96
358.379	6.11
358.589	6.19
358.798	6.24
359.007	6.15
359.217	6.1
359.426	6.27
359.635	6.09
359.845	5.91
360.054	6.15
360.263	6.3
360.472	6.03
360.682	6.04
360.891	6.02
361.1	6.01
361.309	6.3
361.519	6.27
361.728	6.24
361.937	6.18
362.146	6.35
362.355	6.2
362.564	6.14
362.774	6.23
362.983	6.09
363.192	6.06
363.401	5.95
363.61	5.74
363.819	5.83
364.028	5.78
364.237	5.95
364.446	5.93
364.655	6.04
364.864	6.04
365.073	6.02
365.282	6.09
365.491	5.96
365.7	5.68
365.909	5.5
366.118	5.3
366.327	5.27
366.536	5.14
366.745	5.14
366.954	5.13
367.162	5.09
367.371	4.86
367.58	4.91
367.789	4.95
367.998	5.22
368.207	5.15
368.415	5.23
368.624	5.14
368.833	5.13
369.042	5.24
369.25	5.31
369.459	5.42
369.668	5.49
369.877	5.25
370.085	5.41
370.294	5.16
370.503	5.48
370.711	5.32
370.92	5.24
371.129	5.39
371.337	5.23
371.546	5.05
371.754	4.92
371.963	5.06
372.171	5.22
372.38	5.24
372.589	5.28
372.797	4.9
373.006	5.2
373.214	5.34
373.423	5.03
373.631	5.04
373.84	5.15
374.048	5.35
374.256	5.37
374.465	5.42
374.673	5.5
374.882	5.31
375.09	5.61
375.298	5.43
375.507	5.44
375.715	5.49
375.923	5.66
376.132	5.61
376.34	5.57
376.548	5.76
376.757	5.69
376.965	5.41
377.173	5.6
377.381	5.36
377.59	5.39
377.798	5.13
378.006	5.18
378.214	4.89
378.423	4.85
378.631	4.75
378.839	4.7
379.047	4.79
379.255	4.96
379.463	4.97
379.671	5.1
379.879	4.96
380.088	5.36
380.296	5.28
380.504	5.37
380.712	5.36
380.92	5.33
381.128	5.14
381.336	5.05
381.544	4.74
381.752	4.43
381.96	4.39
382.168	4.41
382.376	4.2
382.584	4.36
382.791	4.43
382.999	4.51
383.207	4.46
383.415	4.5
383.623	4.46
383.831	4.66
384.039	5.15
384.247	5.02
384.454	5.24
384.662	5.18
384.87	5.26
385.078	5
385.285	5.11
385.493	5.11
385.701	5.16
385.909	5.12
386.116	5.23
386.324	5.26
386.532	5.24
386.739	5.11
386.947	5.43
387.155	5.34
387.362	5.63
387.57	5.74
387.778	5.66
387.985	5.79
388.193	5.8
388.4	5.83
388.608	5.62
388.816	5.73
389.023	5.75
389.231	5.3
389.438	5.35
389.646	5.25
389.853	5.04
390.061	5.06
390.268	4.96
390.475	5.14
390.683	5.15
390.89	5.09
391.098	5.17
391.305	5.01
391.512	5.26
391.72	5.24
391.927	5.21
392.135	5.23
392.342	5.36
392.549	5.27
392.756	5.05
392.964	4.91
393.171	4.92
393.378	4.97
393.586	5.1
393.793	5.01
394	5.06
394.207	5.11
394.414	5.19
394.622	5.17
394.829	5.29
395.036	5.02
395.243	5
395.45	5.11
395.657	5.08
395.864	4.76
396.072	4.73
396.279	4.51
396.486	4.41
396.693	4.32
396.9	4.36
397.107	4.29
397.314	4.86
397.521	4.95
397.728	4.91
397.935	5.01
398.142	5.35
398.349	5.41
398.556	5.35
398.763	5.47
398.97	5.36
399.177	5.15
399.383	4.92
399.59	4.48
399.797	4.38
400.004	4.44
400.211	4.3
400.418	4.33
400.625	4.39
400.831	4.41
401.038	4.07
401.245	4.05
401.452	4.15
401.658	4.26
401.865	4.36
402.072	4.37
402.279	4.25
402.485	4.08
402.692	4.13
402.899	4.12
403.105	4.13
403.312	4.28
403.519	4.3
403.725	4.37
403.932	4.3
404.138	4.39
404.345	4.33
404.552	4.46
404.758	4.7
404.965	4.66
405.171	4.47
405.378	4.54
405.584	4.61
405.791	4.65
405.997	4.54
406.204	4.64
406.41	4.61
406.617	4.64
406.823	4.43
407.029	4.19
407.236	4.19
407.442	4.37
407.649	4.41
407.855	4.61
408.061	4.65
408.268	4.41
408.474	4.37
408.68	4.22
408.887	4.29
409.093	4.35
409.299	4.44
409.505	4.44
409.712	4.35
409.918	4.3
410.124	3.98
410.33	4.07
410.537	4.09
410.743	4.09
410.949	4.1
411.155	4.07
411.361	4.07
411.567	4.21
411.773	4.14
411.98	4.17
412.186	3.97
412.392	4.02
412.598	3.89
412.804	4.16
413.01	4.18
413.216	4.21
413.422	4.17
413.628	4.15
413.834	3.99
414.04	4.05
414.246	4.02
414.452	4.02
414.658	4.08
414.864	4.08
415.07	4.01
415.275	3.97
415.481	3.9
415.687	3.89
415.893	3.88
416.099	3.88
416.305	3.76
416.511	3.78
416.716	3.86
416.922	3.81
417.128	3.81
417.334	3.86
417.539	3.82
417.745	3.86
417.951	3.85
418.157	3.83
418.362	3.78
418.568	3.79
418.774	3.75
418.979	3.67
419.185	3.7
419.391	3.66
419.596	3.59
419.802	3.61
420.008	3.62
420.213	4.33
420.419	4.41
420.624	4.44
420.83	4.39
421.035	4.36
421.241	4.39
421.446	4.27
421.652	4.25
421.857	4.36
422.063	4.38
422.268	4.39
422.474	3.67
422.679	3.62
422.885	3.64
423.09	3.61
423.295	3.63
423.501	3.65
423.706	3.69
423.911	3.72
424.117	3.54
424.322	3.52
424.527	3.54
424.733	3.62
424.938	3.57
425.143	3.56
425.349	3.65
425.554	3.62
425.759	3.67
425.964	3.72
426.169	3.69
426.375	3.76
426.58	3.75
426.785	3.79
426.99	3.71
427.195	3.77
427.4	3.73
427.605	3.67
427.811	3.65
428.016	3.57
428.221	3.53
428.426	3.52
428.631	3.51
428.836	3.54
429.041	3.55
429.246	3.62
429.451	3.55
429.656	3.54
429.861	3.61
430.066	3.68
430.271	3.74
430.476	3.66
430.681	3.7
430.886	3.68
431.09	3.64
431.295	3.49
431.5	3.4
431.705	3.34
431.91	3.31
432.115	3.26
432.32	3.25
432.524	3.15
432.729	3.2
432.934	3.11
433.139	3.18
433.343	3.17
433.548	3.25
433.753	3.33
433.958	3.41
434.162	3.41
434.367	3.46
434.572	3.5
434.776	3.59
434.981	3.69
435.186	3.83
435.39	3.84
435.595	3.87
435.799	3.91
436.004	3.8
436.209	3.79
436.413	3.79
436.618	3.68
436.822	3.65
437.027	3.66
437.231	3.57
437.436	3.55
437.64	3.46
437.845	3.44
438.049	3.36
438.253	3.32
438.458	3.35
438.662	3.33
438.867	3.43
439.071	3.4
439.275	3.38
439.48	3.41
439.684	3.34
439.888	3.37
440.093	3.38
440.297	3.39
440.501	3.5
440.706	3.53
440.91	3.54
441.114	3.54
441.318	3.53
441.523	3.45
441.727	3.46
441.931	3.47
442.135	3.5
442.339	3.45
442.543	3.36
442.748	3.3
442.952	3.25
443.156	3.21
443.36	3.2
443.564	3.23
443.768	3.26
443.972	3.21
444.176	3.25
444.38	3.21
444.584	3.25
444.788	3.27
444.992	3.3
445.196	3.34
445.4	3.41
445.604	3.44
445.808	3.51
446.012	3.49
446.216	3.53
446.42	3.59
446.624	3.59
446.828	3.6
447.032	3.59
447.235	3.55
447.439	3.56
447.643	3.42
447.847	3.4
448.051	3.24
448.254	3.32
448.458	3.32
448.662	3.18
448.866	3.14
449.069	3.05
449.273	3.08
449.477	3.08
449.681	3.02
449.884	3.21
450.088	3.08
450.292	3.03
450.495	3.05
450.699	3.09
450.902	3.13
451.106	3.19
451.31	3.27
451.513	3.2
451.717	3.24
451.92	3.26
452.124	3.22
452.327	3.25
452.531	3.39
452.734	3.3
452.938	3.25
453.141	3.16
453.345	3.14
453.548	3.08
453.752	3.2
453.955	3.21
454.158	3.2
454.362	3.28
454.565	3.35
454.769	3.42
454.972	3.43
455.175	3.43
455.379	3.49
455.582	3.5
455.785	3.5
455.988	3.47
456.192	3.38
456.395	3.31
456.598	3.24
456.801	3.26
457.005	3.19
457.208	3.15
457.411	3.2
457.614	3.18
457.817	3.19
458.021	3.19
458.224	3.19
458.427	3.13
458.63	3.18
458.833	3.12
459.036	3.12
459.239	3.09
459.442	3.16
459.645	3.09
459.848	3.07
460.051	3.04
460.254	3.08
460.457	3.05
460.66	3.11
460.863	3
461.066	3.06
461.269	3.04
461.472	3.01
461.675	2.95
461.878	2.96
462.081	3.02
462.284	3.01
462.486	3
462.689	3.04
462.892	3.11
463.095	3.09
463.298	3.1
463.5	3.04
463.703	3.09
463.906	3.05
464.109	3.08
464.311	3.13
464.514	3.17
464.717	3.17
464.92	3.25
465.122	3.17
465.325	3.3
465.528	3.29
465.73	3.31
465.933	3.3
466.135	3.36
466.338	3.41
466.541	3.35
466.743	3.36
466.946	3.26
467.148	3.2
467.351	3.3
467.553	3.36
467.756	3.3
467.958	3.37
468.161	3.42
468.363	3.44
468.566	3.4
468.768	3.48
468.971	3.48
469.173	3.6
469.375	3.5
469.578	3.48
469.78	3.42
469.983	3.38
470.185	3.27
470.387	3.19
470.59	3.2
470.792	3.21
470.994	3.11
471.196	3.11
471.399	3
471.601	3.09
471.803	3.01
472.005	3.06
472.208	3.13
472.41	3.09
472.612	3.16
472.814	3.18
473.016	3.13
473.218	3.06
473.421	3
473.623	2.99
473.825	2.94
474.027	3.03
474.229	3.02
474.431	3.01
474.633	3.16
474.835	3.14
475.037	3.18
475.239	3.2
475.441	3.32
475.643	3.42
475.845	3.45
476.047	3.51
476.249	3.39
476.451	3.41
476.653	3.39
476.855	3.24
477.057	3.16
477.258	3.13
477.46	3.19
477.662	3.14
477.864	3.03
478.066	3.08
478.268	3.03
478.469	3.09
478.671	2.93
478.873	2.99
479.075	3.05
479.276	3.06
479.478	3.04
479.68	3
479.882	3
480.083	3.03
480.285	2.95
480.487	2.92
480.688	2.89
480.89	2.92
481.091	2.89
481.293	2.93
481.495	2.96
481.696	2.91
481.898	2.88
482.099	2.91
482.301	2.92
482.502	2.93
482.704	2.93
482.905	2.97
483.107	2.98
483.308	3.01
483.51	3.01
483.711	3
483.913	3.06
484.114	3.06
484.315	3.07
484.517	3.09
484.718	3.1
484.92	3.08
485.121	3.09
485.322	3.09
485.524	3.03
485.725	2.98
485.926	3
486.127	2.97
486.329	2.99
486.53	2.99
486.731	2.96
486.932	2.97
487.134	3.01
487.335	2.99
487.536	3
487.737	3
487.938	3.06
488.139	3.07
488.341	3.08
488.542	3.12
488.743	3.1
488.944	3.12
489.145	3.13
489.346	3.09
489.547	3.12
489.748	3.08
489.949	3.07
490.15	3.03
490.351	3.03
490.552	3
490.753	2.97
490.954	2.95
491.155	2.97
491.356	2.96
491.557	3.03
491.758	3.03
491.959	3.15
492.159	3.23
492.36	3.29
492.561	3.29
492.762	3.39
492.963	3.42
493.164	3.51
493.364	3.56
493.565	3.54
493.766	3.49
493.967	3.43
494.167	3.32
494.368	3.3
494.569	3.26
494.769	3.2
494.97	3.14
495.171	3.13
495.371	3.08
495.572	3
495.773	3.03
495.973	3.01
496.174	3.05
496.375	3.14
496.575	3.14
496.776	3.15
496.976	3.17
497.177	3.15
497.377	3.14
497.578	3.16
497.778	3.15
497.979	3.14
498.179	3.17
498.38	3.21
498.58	3.18
498.78	3.18
498.981	3.18
499.181	3.2
499.382	3.22
499.582	3.19
499.782	3.3
499.983	3.37
500.183	3.44
500.383	3.47
500.584	3.42
500.784	3.4
500.984	3.39
501.184	3.4
501.385	3.46
501.585	3.56
501.785	3.58
501.985	3.44
502.185	3.34
502.386	3.37
502.586	3.4
502.786	3.47
502.986	3.41
503.186	3.39
503.386	3.46
503.586	3.45
503.786	3.43
503.987	3.44
504.187	3.43
504.387	3.54
504.587	3.54
504.787	3.55
504.987	3.4
505.187	3.48
505.387	3.56
505.587	3.5
505.786	3.55
505.986	3.49
506.186	3.56
506.386	3.62
506.586	3.64
506.786	3.62
506.986	3.58
507.186	3.63
507.386	3.59
507.585	3.59
507.785	3.65
507.985	3.6
508.185	3.67
508.384	3.6
508.584	3.6
508.784	3.59
508.984	3.61
509.183	3.61
509.383	3.6
509.583	3.63
509.782	3.66
509.982	3.62
510.182	3.64
510.381	3.62
510.581	3.69
510.781	3.74
510.98	3.75
511.18	3.81
511.379	3.79
511.579	3.84
511.778	3.88
511.978	3.84
512.177	3.83
512.377	3.88
512.576	3.9
512.776	3.89
512.975	3.91
513.175	3.88
513.374	3.86
513.573	3.97
513.773	3.94
513.972	3.9
514.172	3.93
514.371	4
514.57	3.99
514.77	3.98
514.969	4
515.168	3.98
515.367	4.01
515.567	3.95
515.766	3.94
515.965	3.98
516.164	3.95
516.364	3.92
516.563	3.88
516.762	3.9
516.961	3.91
517.16	3.94
517.359	3.94
517.559	3.93
517.758	3.95
517.957	3.94
518.156	3.97
518.355	4.03
518.554	4.13
518.753	4.19
518.952	4.17
519.151	4.21
519.35	4.15
519.549	4.1
519.748	4.11
519.947	4.12
520.146	4.12
520.345	4.14
520.544	4.12
520.743	4.07
520.942	4.01
521.141	3.99
521.339	3.93
521.538	4.03
521.737	4.08
521.936	4.1
522.135	4.05
522.333	4.03
522.532	4.01
522.731	4.04
522.93	4
523.129	4.07
523.327	4.12
523.526	4.13
523.725	4.08
523.923	4.08
524.122	4.11
524.321	4.21
524.519	4.24
524.718	4.24
524.917	4.15
525.115	4.21
525.314	4.15
525.512	4.11
525.711	4.11
525.909	4.18
526.108	4.17
526.306	4.13
526.505	4.1
526.703	4.06
526.902	4.08
527.1	4.11
527.299	4.1
527.497	4.12
527.696	4.13
527.894	4.15
528.092	4.14
528.291	4.18
528.489	4.24
528.688	4.26
528.886	4.32
529.084	4.33
529.283	4.34
529.481	4.33
529.679	4.37
529.877	4.44
530.076	4.43
530.274	4.41
530.472	4.41
530.67	4.38
530.869	4.37
531.067	4.33
531.265	4.36
531.463	4.39
531.661	4.42
531.859	4.4
532.057	4.4
532.255	4.46
532.454	4.47
532.652	4.49
532.85	4.48
533.048	4.54
533.246	4.55
533.444	4.57
533.642	4.59
533.84	4.61
534.038	4.64
534.236	4.63
534.434	4.56
534.632	4.61
534.83	4.62
535.027	4.7
535.225	4.64
535.423	4.72
535.621	4.74
535.819	4.77
536.017	4.75
536.215	4.77
536.412	4.8
536.61	4.88
536.808	4.88
537.006	4.92
537.203	4.92
537.401	4.96
537.599	4.92
537.797	4.88
537.994	4.85
538.192	4.85
538.39	4.86
538.587	4.9
538.785	4.87
538.983	4.88
539.18	4.87
539.378	4.84
539.575	4.85
539.773	4.88
539.97	4.89
540.168	4.93
540.366	4.98
540.563	5.04
540.761	5.05
540.958	5.11
541.155	5.15
541.353	5.17
541.55	5.25
541.748	5.3
541.945	5.29
542.143	5.39
542.34	5.44
542.537	5.48
542.735	5.47
542.932	5.48
543.129	5.51
543.327	5.56
543.524	5.6
543.721	5.58
543.919	5.64
544.116	5.78
544.313	5.71
544.51	5.71
544.708	5.7
544.905	5.76
545.102	5.86
545.299	5.91
545.496	5.85
545.693	5.85
545.891	5.88
546.088	5.86
546.285	5.91
546.482	6.07
546.679	6.1
546.876	6.19
547.073	6.23
547.27	6.24
547.467	6.24
547.664	6.34
547.861	6.42
548.058	6.49
548.255	6.64
548.452	6.59
548.649	6.58
548.846	6.57
549.043	6.6
549.24	6.68
549.437	6.7
549.633	6.66
549.83	6.71
550.027	6.78
550.224	6.77
550.421	6.71
550.618	6.77
550.814	6.83
551.011	6.9
551.208	6.86
551.405	6.84
551.601	6.85
551.798	6.9
551.995	7
552.191	6.98
552.388	7.14
552.585	7.25
552.781	7.27
552.978	7.27
553.175	7.37
553.371	7.47
553.568	7.48
553.764	7.52
553.961	7.53
554.157	7.44
554.354	7.53
554.55	7.53
554.747	7.45
554.943	7.45
555.14	7.43
555.336	7.44
555.533	7.53
555.729	7.59
555.926	7.74
556.122	7.9
556.318	7.99
556.515	8.04
556.711	7.96
556.907	8.06
557.104	8.1
557.3	8.18
557.496	8.28
557.693	8.24
557.889	8.34
558.085	8.21
558.281	8.14
558.478	8.22
558.674	8.26
558.87	8.29
559.066	8.26
559.262	8.22
559.459	8.34
559.655	8.42
559.851	8.52
560.047	8.56
560.243	8.66
560.439	8.81
560.635	8.92
560.831	8.97
561.027	9.1
561.223	9.16
561.419	9.35
561.615	9.32
561.811	9.45
562.007	9.49
562.203	9.48
562.399	9.51
562.595	9.44
562.791	9.51
562.987	9.58
563.183	9.59
563.379	9.72
563.575	9.77
563.771	9.84
563.966	9.7
564.162	9.69
564.358	9.79
564.554	9.85
564.75	9.9
564.945	9.86
565.141	9.9
565.337	9.99
565.533	10.08
565.728	10.13
565.924	10.16
566.12	10.28
566.315	10.31
566.511	10.4
566.707	10.47
566.902	10.6
567.098	10.65
567.293	10.6
567.489	10.63
567.684	10.58
567.88	10.57
568.076	10.65
568.271	10.6
568.467	10.71
568.662	10.64
568.858	10.64
569.053	10.67
569.248	10.69
569.444	10.86
569.639	10.95
569.835	11.04
570.03	11.11
570.225	11.16
570.421	11.21
570.616	11.24
570.812	11.28
571.007	11.41
571.202	11.39
571.397	11.48
571.593	11.47
571.788	11.46
571.983	11.54
572.178	11.62
572.374	11.66
572.569	11.8
572.764	11.86
572.959	11.9
573.154	11.96
573.35	12.01
573.545	12.02
573.74	12.07
573.935	12.16
574.13	12.18
574.325	12.16
574.52	12.16
574.715	12.18
574.91	12.21
575.105	12.32
575.3	12.4
575.495	12.5
575.69	12.71
575.885	12.76
576.08	12.74
576.275	12.73
576.47	12.74
576.665	12.85
576.86	12.88
577.055	12.91
577.25	12.95
577.444	12.73
577.639	12.94
577.834	12.8
578.029	12.78
578.224	12.86
578.418	12.86
578.613	13.06
578.808	13.04
579.003	12.98
579.197	13.02
579.392	12.95
579.587	13.03
579.781	12.94
579.976	12.97
580.171	13.16
580.365	13.17
580.56	13.25
580.755	13.15
580.949	13.26
581.144	13.28
581.338	13.28
581.533	13.3
581.727	13.38
581.922	13.43
582.116	13.54
582.311	13.47
582.505	13.54
582.7	13.61
582.894	13.73
583.089	13.66
583.283	13.63
583.478	13.75
583.672	13.95
583.866	13.88
584.061	13.87
584.255	13.69
584.449	13.67
584.644	13.74
584.838	13.62
585.032	13.61
585.226	13.59
585.421	13.69
585.615	13.79
585.809	13.72
586.003	13.82
586.198	13.81
586.392	14.1
586.586	14.26
586.78	14.23
586.974	14.36
587.168	14.4
587.363	14.47
587.557	14.56
587.751	14.54
587.945	14.6
588.139	14.67
588.333	14.71
588.527	14.59
588.721	14.57
588.915	14.64
589.109	14.66
589.303	14.68
589.497	14.75
589.691	14.77
589.885	14.71
590.079	14.78
590.273	14.75
590.466	14.68
590.66	14.71
590.854	14.66
591.048	14.67
591.242	14.64
591.436	14.71
591.629	14.71
591.823	14.75
592.017	14.76
592.211	14.65
592.404	14.83
592.598	15.02
592.792	15.11
592.986	15.2
593.179	15.12
593.373	15.14
593.567	15
593.76	14.97
593.954	14.95
594.147	15.04
594.341	15.2
594.535	15.17
594.728	15.1
594.922	15.03
595.115	15.05
595.309	15.07
595.502	14.99
595.696	15.02
595.889	15.07
596.083	15.07
596.276	15.02
596.47	14.92
596.663	14.93
596.856	14.94
597.05	15
597.243	14.97
597.437	15.02
597.63	15.25
597.823	15.37
598.017	15.5
598.21	15.61
598.403	15.68
598.596	15.71
598.79	15.59
598.983	15.69
599.176	15.73
599.369	15.65
599.563	15.68
599.756	15.65
599.949	15.47
600.142	15.38
600.335	15.36
600.528	15.38
600.722	15.53
600.915	15.59
601.108	15.4
601.301	15.36
601.494	15.55
601.687	15.48
601.88	15.27
602.073	15.41
602.266	15.37
602.459	15.3
602.652	15.31
602.845	15.29
603.038	15.33
603.231	15.38
603.424	15.34
603.617	15.21
603.809	15.22
604.002	15.36
604.195	15.33
604.388	15.48
604.581	15.62
604.774	15.54
604.966	15.44
605.159	15.43
605.352	15.47
605.545	15.6
605.737	15.75
605.93	15.92
606.123	16.04
606.316	16.01
606.508	15.96
606.701	15.83
606.894	15.86
607.086	15.99
607.279	16
607.471	15.94
607.664	15.81
607.857	15.69
608.049	15.7
608.242	15.56
608.434	15.69
608.627	15.72
608.819	15.77
609.012	15.81
609.204	15.73
609.397	15.78
609.589	15.9
609.782	16.02
609.974	16.08
610.166	15.99
610.359	16
610.551	15.99
610.743	15.95
610.936	15.9
611.128	16.05
611.32	16.16
611.513	16.22
611.705	16.15
611.897	16.12
612.09	16.1
612.282	16.1
612.474	16.28
612.666	16.31
612.858	16.31
613.051	16.43
613.243	16.32
613.435	16.25
613.627	16.2
613.819	16.25
614.011	16.37
614.203	16.43
614.395	16.45
614.588	16.49
614.78	16.34
614.972	16.27
615.164	16.14
615.356	16.22
615.548	16.21
615.74	16.17
615.932	16.09
616.124	15.98
616.315	15.99
616.507	15.89
616.699	15.68
616.891	15.75
617.083	15.68
617.275	15.88
617.467	15.75
617.659	15.73
617.85	15.74
618.042	15.75
618.234	15.88
618.426	15.94
618.618	16.11
618.809	16.25
619.001	16.29
619.193	16.44
619.384	16.26
619.576	16.25
619.768	16.38
619.959	16.34
620.151	16.49
620.343	16.41
620.534	16.34
620.726	16.24
620.917	16.14
621.109	16.04
621.301	15.94
621.492	16.03
621.684	16.13
621.875	15.99
622.067	16.04
622.258	15.96
622.45	15.92
622.641	15.81
622.832	15.9
623.024	15.85
623.215	16.07
623.407	16.06
623.598	16.03
623.789	15.91
623.981	16.02
624.172	16.11
624.363	16.14
624.555	16.21
624.746	16.37
624.937	16.35
625.129	16.47
625.32	16.42
625.511	16.34
625.702	16.37
625.893	16.51
626.085	16.57
626.276	16.64
626.467	16.67
626.658	16.69
626.849	16.67
627.04	16.66
627.231	16.75
627.422	16.74
627.614	16.87
627.805	16.89
627.996	16.91
628.187	16.73
628.378	16.57
628.569	16.62
628.76	16.7
628.951	16.66
629.142	16.65
629.332	16.47
629.523	16.44
629.714	16.5
629.905	16.5
630.096	16.52
630.287	16.61
630.478	16.67
630.669	16.57
630.859	16.4
631.05	16.46
631.241	16.6
631.432	16.59
631.623	16.54
631.813	16.51
632.004	16.52
632.195	16.62
632.385	16.75
632.576	16.68
632.767	16.71
632.957	16.8
633.148	16.66
633.339	16.68
633.529	16.97
633.72	17.08
633.91	16.98
634.101	16.95
634.292	16.7
634.482	16.76
634.673	16.89
634.863	16.9
635.054	16.85
635.244	17.02
635.435	17.04
635.625	16.8
635.815	16.74
636.006	16.87
636.196	16.7
636.387	16.77
636.577	16.63
636.767	16.52
636.958	16.58
637.148	16.56
637.338	16.24
637.529	16.01
637.719	15.86
637.909	15.89
638.099	16.06
638.29	16.18
638.48	16.15
638.67	16.09
638.86	16.18
639.05	16.02
639.241	16.12
639.431	16.43
639.621	16.51
639.811	16.71
640.001	16.85
640.191	16.54
640.381	16.61
640.571	16.8
640.761	16.86
640.951	16.92
641.141	17.08
641.331	16.94
641.521	17.04
641.711	17.29
641.901	17.44
642.091	17.33
642.281	17.44
642.471	17.5
642.661	17.6
642.851	17.52
643.041	17.43
643.231	17.34
643.42	17.42
643.61	17.39
643.8	17.35
643.99	17.15
644.18	17.15
644.369	17.1
644.559	17.07
644.749	16.63
644.939	16.62
645.128	16.53
645.318	16.48
645.508	16.56
645.697	16.5
645.887	16.33
646.076	16.59
646.266	16.53
646.456	16.71
646.645	16.86
646.835	17.2
647.024	17.35
647.214	17.41
647.403	17.52
647.593	17.48
647.782	17.44
647.972	17.53
648.161	17.31
648.351	17.5
648.54	17.39
648.73	17.25
648.919	17.11
649.108	16.9
649.298	16.98
649.487	16.86
649.677	16.82
649.866	17.04
650.055	16.89
650.244	16.9
650.434	16.72
650.623	16.84
650.812	16.86
651.002	16.91
651.191	17.08
651.38	16.95
651.569	17.31
651.758	17.4
651.947	17.41
652.137	17.6
652.326	17.49
652.515	17.57
652.704	17.49
652.893	17.63
653.082	17.55
653.271	17.67
653.46	17.73
653.649	17.64
653.838	17.77
654.027	17.66
654.216	17.46
654.405	17.74
654.594	17.72
654.783	17.8
654.972	17.81
655.161	17.71
655.35	17.39
655.539	17.6
655.728	17.44
655.916	17.41
656.105	17.22
656.294	17.35
656.483	17.19
656.672	17.28
656.86	17.12
657.049	16.85
657.238	16.93
657.427	17.01
657.615	16.89
657.804	16.95
657.993	16.82
658.181	17
658.37	16.82
658.559	16.92
658.747	16.92
658.936	17.09
659.125	17.64
659.313	17.7
659.502	17.77
659.69	17.75
659.879	17.94
660.067	18.09
660.256	18.07
660.444	18.18
660.633	18.08
660.821	18.01
661.01	17.87
661.198	17.64
661.387	17.68
661.575	17.83
661.763	17.79
661.952	17.57
662.14	17.33
662.328	17.3
662.517	17.33
662.705	17.47
662.893	17.37
663.082	17.49
663.27	17.16
663.458	17.14
663.646	17.13
663.834	17
664.023	16.96
664.211	17.28
664.399	17.44
664.587	17.5
664.775	17.25
664.963	17.66
665.152	17.59
665.34	17.84
665.528	17.81
665.716	17.88
665.904	18.11
666.092	18.21
666.28	18.02
666.468	17.85
666.656	17.97
666.844	18.29
667.032	18.17
667.22	18.08
667.408	18.02
667.596	17.92
667.784	17.72
667.971	17.79
668.159	17.87
668.347	17.93
668.535	17.86
668.723	18.03
668.911	17.85
669.098	17.69
669.286	17.77
669.474	17.83
669.662	17.95
669.849	18.14
670.037	18.04
670.225	17.96
670.413	17.91
670.6	18.15
670.788	17.72
670.976	17.83
671.163	17.91
671.351	18.02
671.538	17.81
671.726	17.56
671.913	17.35
672.101	17.33
672.289	17.38
672.476	17.42
672.664	17.21
672.851	17.36
673.039	17.33
673.226	17.16
673.413	17.07
673.601	17.18
673.788	17.6
673.976	17.73
674.163	17.83
674.35	17.8
674.538	17.91
674.725	18.06
674.912	18.23
675.1	18.52
675.287	18.69
675.474	18.83
675.662	18.87
675.849	18.64
676.036	18.53
676.223	18.56
676.411	18.4
676.598	18.24
676.785	18.08
676.972	17.69
677.159	17.71
677.346	17.77
677.533	17.57
677.721	17.4
677.908	17.51
678.095	17.64
678.282	17.41
678.469	17.68
678.656	17.76
678.843	17.84
679.03	18.03
679.217	17.92
679.404	18.08
679.591	18.1
679.778	18.12
679.964	18.11
680.151	18.04
680.338	17.93
680.525	17.78
680.712	17.8
680.899	17.9
681.086	18.03
681.272	17.86
681.459	17.61
681.646	17.51
681.833	17.74
682.02	17.74
682.206	17.78
682.393	18.13
682.58	18.04
682.766	17.94
682.953	17.84
683.14	17.72
683.326	18.11
683.513	18.38
683.7	18.5
683.886	18.35
684.073	18.21
684.259	18.41
684.446	18.44
684.632	18.61
684.819	18.6
685.005	18.79
685.192	18.94
685.378	18.63
685.565	18.37
685.751	18.59
685.938	18.76
686.124	19.14
686.31	18.86
686.497	18.92
686.683	18.82
686.87	19.2
687.056	19.07
687.242	19.18
687.429	19.14
687.615	19.33
687.801	19.35
687.987	19.09
688.174	18.71
688.36	18.87
688.546	18.68
688.732	19.03
688.918	18.67
689.105	18.62
689.291	18.47
689.477	18.53
689.663	18.62
689.849	18.5
690.035	18.58
690.221	18.65
690.407	18.65
690.593	18.82
690.779	18.38
690.965	18.64
691.151	18.88
691.337	19.09
691.523	19.17
691.709	18.96
691.895	18.71
692.081	18.65
692.267	18.75
692.453	18.8
692.639	18.75
692.825	19.24
693.011	19.35
693.196	19.26
693.382	19.03
693.568	19.04
693.754	18.74
693.94	18.99
694.125	18.96
694.311	18.97
694.497	18.98
694.682	18.96
694.868	18.7
695.054	18.53
695.239	18.41
695.425	18.25
695.611	17.99
695.796	18.18
695.982	18.22
696.168	18.11
696.353	18.22
696.539	18.03
696.724	18.03
696.91	17.88
697.095	17.86
697.281	17.7
697.466	17.78
697.652	17.94
697.837	18.03
698.023	18.06
698.208	18.23
698.393	17.97
698.579	18.07
698.764	18.01
698.949	18.03
699.135	18
699.32	18.34
699.505	18.41
699.691	18.52
699.876	18.51
700.061	18.32
700.246	18.32
700.432	18.55
700.617	18.38
700.802	18.58
700.987	18.72
701.172	18.71
701.358	18.5
701.543	18.31
701.728	18.14
701.913	18.48
702.098	18.37
702.283	18.46
702.468	18.36
702.653	18.58
702.838	18.34
703.023	18.23
703.208	18.38
703.393	18.43
703.578	18.53
703.763	18.55
703.948	17.99
704.133	18.32
704.318	18.02
704.503	18.42
704.688	18.24
704.873	18.38
705.057	18.75
705.242	18.49
705.427	18.25
705.612	18.46
705.797	18.75
705.981	19.03
706.166	18.78
706.351	19.18
706.536	19.23
706.72	19.15
706.905	19.18
707.09	18.85
707.274	18.8
707.459	18.83
707.644	18.82
707.828	18.74
708.013	18.64
708.197	18.92
708.382	18.82
708.567	18.61
708.751	18.55
708.936	18.73
709.12	18.65
709.305	18.94
709.489	18.92
709.673	18.5
709.858	18.1
710.042	18
710.227	17.97
710.411	17.81
710.596	17.76
710.78	18.21
710.964	18.32
711.149	18.59
711.333	18.46
711.517	18.92
711.702	19.27
711.886	19.33
712.07	19.3
712.254	19.26
712.438	19.69
712.623	19.98
712.807	19.84
712.991	19.51
713.175	19.44
713.359	19.5
713.544	19.49
713.728	19.44
713.912	19.64
714.096	19.52
714.28	19.54
714.464	19.17
714.648	18.73
714.832	18.56
715.016	18.59
715.2	18.4
715.384	18.33
715.568	18.09
715.752	18.15
715.936	18.09
716.12	18.38
716.304	18.68
716.488	18.92
716.671	19.04
716.855	19.4
717.039	19.46
717.223	19.53
717.407	19.75
717.59	19.87
717.774	20.13
717.958	20.2
718.142	20.48
718.325	20.43
718.509	20.27
718.693	20.19
718.877	19.7
719.06	19.76
719.244	19.37
719.428	19.07
719.611	19.02
719.795	18.46
719.978	18.48
720.162	18.3
720.345	18.3
720.529	17.98
720.713	18.25
720.896	18.8
721.08	18.97
721.263	19.01
721.446	19.12
721.63	19.29
721.813	19.46
721.997	19.56
722.18	19.25
722.364	18.71
722.547	18.74
722.73	18.71
722.914	18.41
723.097	17.81
723.28	18.16
723.464	17.89
723.647	17.96
723.83	18.02
724.013	17.8
724.197	18.06
724.38	17.85
724.563	17.82
724.746	17.7
724.929	17.62
725.112	18.23
725.296	18.3
725.479	18.87
725.662	18.35
725.845	18.43
726.028	18.55
726.211	18.76
726.394	18.91
726.577	19.04
726.76	18.94
726.943	18.82
727.126	18.62
727.309	18.61
727.492	18.12
727.675	18.08
727.858	18.03
728.041	18.25
728.224	18.04
728.407	18.51
728.589	18.61
728.772	18.74
728.955	18.72
729.138	18.75
729.321	18.54
729.503	19.02
729.686	19.56
729.869	19.53
730.052	19.22
730.234	19.33
730.417	19.19
730.6	19.34
730.782	19.33
730.965	19.54
731.148	19.42
731.33	19.58
731.513	19.34
731.695	18.81
731.878	18.91
732.061	19.41
732.243	19.15
732.426	19.03
732.608	19.22
732.791	19.23
732.973	19.62
733.156	19.25
733.338	19.32
733.52	19.09
733.703	19.11
733.885	19.72
734.068	19.11
734.25	18.96
734.432	18.87
734.615	18.72
734.797	18.71
734.979	18.48
735.162	19.32
735.344	19.31
735.526	19.49
735.708	19.71
735.891	19.12
736.073	19.07
736.255	19.58
736.437	19.46
736.619	19.76
736.802	19.89
736.984	19.81
737.166	19.33
737.348	19.73
737.53	19.83
737.712	19.69
737.894	19.79
738.076	19.98
738.258	19.67
738.44	20.08
738.622	19.99
738.804	20.51
738.986	20.27
739.168	20.42
739.35	19.82
739.532	19.94
739.714	19.65
739.896	19.65
740.078	19.71
740.259	20.23
740.441	20.1
740.623	19.9
740.805	19
740.987	18.87
741.168	19
741.35	20.02
741.532	19.88
741.714	20.4
741.895	19.63
742.077	20.24
742.259	19.84
742.44	20.05
742.622	19.95
742.804	19.96
742.985	20.53
743.167	20.95
743.348	20.23
743.53	20.08
743.711	19.95
743.893	20.73
744.075	19.92
744.256	19.88
744.438	19.88
744.619	19.97
744.8	20.35
744.982	20.11
745.163	19.8
745.345	19.34
745.526	20.29
745.707	20.9
745.889	20.77
746.07	21.21
746.252	20.89
746.433	20.93
746.614	20.83
746.795	21.5
746.977	21.62
747.158	21.47
747.339	22.21
747.52	21.56
747.702	20.88
747.883	21.33
748.064	21.31
748.245	22.63
748.426	21.77
748.607	21.96
748.788	20.99
748.97	20.82
749.151	20.22
749.332	20.47
749.513	20.89
749.694	21.21
749.875	20.42
750.056	21
750.237	19.64
750.418	19.75
750.599	19.42
750.78	19.42
750.96	19.53
751.141	19.88
751.322	19.35
751.503	18.81
751.684	18.55
751.865	18.85
752.046	18.19
752.226	18.71
752.407	19.24
752.588	19.4
752.769	19.65
752.949	19.65
753.13	19.65
753.311	19.86
753.492	19.92
753.672	20.31
753.853	21.27
754.034	21.15
754.214	20.98
754.395	20.79
754.575	21.08
754.756	20.93
754.937	21.06
755.117	21.27
755.298	20.65
755.478	20.84
755.659	20.74
755.839	19.63
756.02	19.4
756.2	19.66
756.381	20.06
756.561	19.49
756.741	19.6
756.922	19.88
757.102	19.55
757.283	20.18
757.463	19.96
757.643	20.16
757.823	20.28
758.004	20.57
758.184	20.84
758.364	20.99
758.545	21.44
758.725	21.38
758.905	21.34
759.085	21.56
759.265	22.29
759.446	22.71
759.626	22.7
759.806	22.57
759.986	22.13
760.166	21.46
760.346	21.32
760.526	20.98
760.706	21.17
760.886	21.12
761.066	20.98
761.246	20.63
761.426	20.08
761.606	19.95
761.786	20.24
761.966	20.46
762.146	20.31
762.326	20.52
762.506	20.44
762.686	20.05
762.866	19.85
763.046	20.08
763.225	20.02
763.405	19.9
763.585	19.72
763.765	19.69
763.945	19.44
764.124	19.75
764.304	19.49
764.484	19.91
764.664	20.06
764.843	20.03
765.023	19.2
765.203	18.66
765.382	19.32
765.562	19.37
765.741	19.04
765.921	19.44
766.101	19.23
766.28	19.48
766.46	19.3
766.639	19.43
766.819	19.36
766.998	20.74
767.178	20.95
767.357	20.76
767.537	21.05
767.716	21.24
767.896	20.93
768.075	20.74
768.254	19.61
768.434	19.3
768.613	19.73
768.792	20.05
768.972	19.39
769.151	19.06
769.33	19.34
769.51	18.58
769.689	18.66
769.868	19.28
770.047	19.76
770.226	20.58
770.406	20.72
770.585	20.09
770.764	20.72
770.943	20.93
771.122	21.63
771.301	20.6
771.48	20.7
771.66	20.68
771.839	20.57
772.018	21.01
772.197	20.82
772.376	20.51
772.555	20.92
772.734	20.94
772.913	21.16
773.092	20.84
773.271	20.49
773.449	21.77
773.628	21.46
773.807	21.76
773.986	21.03
774.165	20.87
774.344	20.9
774.523	20.44
774.701	19.78
774.88	19.69
775.059	19
775.238	19.72
775.417	19.2
775.595	19.54
775.774	19.12
775.953	20.1
776.131	20.89
776.31	21.64
776.489	22.24
776.667	21.58
776.846	21.24
777.025	21.74
777.203	22.29
777.382	21.99
777.56	22.46
777.739	22.54
777.917	21.89
778.096	21.58
778.274	20.94
778.453	20.21
778.631	19.98
778.81	20.87
778.988	20.98
779.166	21.11
779.345	21.18
779.523	20.67
779.702	21.18
779.88	20.91
780.058	20.73
780.237	20.86
780.415	22.05
780.593	23.65
780.771	23.96
780.95	24.23
781.128	23.85
781.306	24.28
781.484	24.38
781.662	22.93
781.841	23.35
782.019	22.95
782.197	22.78
782.375	22.19
782.553	21.2
782.731	20.86
782.909	20.43
783.087	19.91
783.265	19.6
783.443	19.4
783.621	20.78
783.799	21.03
783.977	22.46
784.155	23.44
784.333	23.19
784.511	23.46
784.689	22.62
784.867	23.11
785.045	24.18
785.223	24.26
785.4	24.79
785.578	23.71
785.756	23.89
785.934	22.9
786.112	22.64
786.289	22.92
786.467	22.71
786.645	23.61
786.823	23.85
787	24.05
787.178	23.81
787.356	23.88
787.533	24.58
787.711	23.59
787.889	23.28
788.066	22.69
788.244	22.76
788.421	23.39
788.599	22.75
788.776	22.3
788.954	22.17
789.131	21.53
789.309	21.1
789.486	20.1
789.664	21.18
789.841	20.76
790.019	21.57
790.196	21.71
790.373	21.36
790.551	21.57
790.728	21.77
790.906	21.36
791.083	23.45
791.26	23.47
791.437	24.72
791.615	24.27
791.792	25.64
791.969	25.89
792.146	25.04
792.324	24.54
792.501	24.06
792.678	24.09
792.855	24.65
793.032	22.71
793.209	22.41
793.387	22.83
793.564	22.02
793.741	22.14
793.918	21.58
794.095	23.38
794.272	23.34
794.449	23.11
794.626	22.35
794.803	21.14
794.98	21.82
795.157	21.84
795.334	21.58
795.511	22.22
795.688	20.59
795.864	20.86
796.041	19.5
796.218	19.58
796.395	20.27
796.572	21.28
796.749	21.45
796.925	21.26
797.102	22.38
797.279	22.26
797.456	22.09
797.632	22.99
797.809	22.51
797.986	23.06
798.162	23.52
798.339	23.4
798.516	22.87
798.692	23.45
798.869	23.05
799.046	21
799.222	20.6
799.399	21.26
799.575	21.08
799.752	21.72
799.928	21.44
800.105	21.59
800.281	21.77
800.458	22.14
800.634	21.58
800.811	22.49
800.987	23.17
801.163	22.86
801.34	22.64
801.516	23.55
801.692	23.08
801.869	23.28
802.045	22.7
802.221	22.53
802.398	21.97
802.574	21.99
802.75	21.3
802.926	21.6
803.103	20.73
803.279	20.77
803.455	20.12
803.631	20.35
803.807	19.99
803.983	19.64
804.16	18.97
804.336	18.87
804.512	17.87
804.688	18.3
804.864	18.56
805.04	18.85
805.216	19.38
805.392	19.87
805.568	18.5
805.744	18.43
805.92	18.74
806.096	19.65
806.272	20.79
806.448	21.91
806.623	22.27
806.799	23.02
806.975	24.57
807.151	23.77
807.327	23.72
807.503	24.34
807.678	25.61
807.854	26.27
808.03	25.21
808.206	25.64
808.381	26.54
808.557	25.75
808.733	26.12
808.908	24.09
809.084	24.55
809.26	24.45
809.435	25.56
809.611	24.45
809.787	23.92
809.962	24.6
810.138	23.41
810.313	23.79
810.489	23.85
810.664	22.9
810.84	24.26
811.015	24.97
811.191	25.11
811.366	23.98
811.542	24.02
811.717	25.14
811.892	26.29
812.068	26.86
812.243	25.55
812.419	27.26
812.594	26.65
812.769	28.58
812.944	26.66
813.12	26.87
813.295	27.46
813.47	28.21
813.645	27.18
813.821	24.59
813.996	23.79
814.171	22.45
814.346	21.09
814.521	23.05
814.697	20.06
814.872	21.06
815.047	19.65
815.222	19.16
815.397	16.84
815.572	18.09
815.747	19.92
815.922	20.23
816.097	21.99
816.272	21.34
816.447	19.74
816.622	21.64
816.797	20.63
816.972	20.68
817.147	22.34
817.322	23.25
817.496	21.31
817.671	20.78
817.846	20.73
818.021	20.81
818.196	21.24
818.371	21.66
818.545	20.45
818.72	20.92
818.895	22.12
819.069	21.34
819.244	22.08
819.419	22.93
819.594	23.44
819.768	24
819.943	23.59
820.117	23.2
820.292	23.31
820.467	23
820.641	23.13
820.816	22.97
820.99	22.35
821.165	22.09
821.339	21.81
821.514	21.33
821.688	21.52
821.863	21.46
822.037	21.45
822.212	21.15
822.386	21.31
822.56	21.21
822.735	21
822.909	21
823.084	21.2
823.258	21.13
823.432	21.46
823.606	21.21
823.781	21.39
823.955	21.71
824.129	21.74
824.303	21.55
824.478	21.88
824.652	21.95
824.826	22.17
825	22.2
825.174	22.59
825.348	22.28
825.523	21.81
825.697	21.69
825.871	21.81
826.045	22.13
826.219	22.47
826.393	22.39
826.567	22.6
826.741	22.91
826.915	22.5
827.089	22.27
827.263	22.74
827.437	22.9
827.611	22.69
827.784	22.16
827.958	22.41
828.132	22.54
828.306	21.91
828.48	21.97
828.654	21.83
828.827	21.86
829.001	22.55
829.175	22.26
829.349	22.84
829.522	23.38
829.696	23.39
829.87	22.99
830.044	23.03
830.217	24.33
830.391	24.72
830.565	25.07
830.738	24.99
830.912	24.66
831.085	24.6
831.259	25.18
831.432	23.7
831.606	24.44
831.779	24.19
831.953	24.1
832.126	23.46
832.3	22.69
832.473	21.74
832.647	21.85
832.82	21.73
832.994	21.57
833.167	20.93
833.34	22.27
833.514	21.94
833.687	21.93
833.86	21.63
834.034	21.15
834.207	20.69
834.38	21.42
834.553	21.72
834.727	22.05
834.9	22.43
835.073	22.99
835.246	22.17
835.419	22.69
835.593	22.21
835.766	22.34
835.939	22.96
836.112	24.49
836.285	24.12
836.458	24.47
836.631	23.32
836.804	23.84
836.977	23.02
837.15	24.21
837.323	24.36
837.496	25.46
837.669	27.29
837.842	27.41
838.015	27.05
838.188	27.52
838.361	27.43
838.533	29.15
838.706	28.8
838.879	29.94
839.052	29.16
839.225	29.38
839.398	28.81
839.57	26.81
839.743	25.97
839.916	24.38
840.088	25.26
840.261	26.58
840.434	26.31
840.607	26.54
840.779	25.32
840.952	23.66
841.124	24.05
841.297	25.18
841.47	27.34
841.642	29.9
841.815	31.15
841.987	31.18
842.16	30.08
842.332	30.08
842.505	30.38
842.677	30.91
842.85	33.86
843.022	31.55
843.194	34.28
843.367	32.73
843.539	30.13
843.712	30.32
843.884	28.6
844.056	29.35
844.229	29.5
844.401	29.32
844.573	29.4
844.745	27.58
844.918	29.32
845.09	25.29
845.262	24.01
845.434	23.59
845.606	22.86
845.779	24.75
845.951	22.8
846.123	23.83
846.295	23.67
846.467	25.2
846.639	26.89
846.811	23.46
846.983	23.67
847.155	25.97
847.327	28.87
847.499	29.47
847.671	28.98
847.843	30.01
848.015	31.37
848.187	27.19
848.359	27.43
848.531	30.28
848.703	32.01
848.875	32.6
849.047	27.78
849.218	25.83
849.39	25.21
849.562	24.02
849.734	23.53
849.905	20.56
850.077	22.21
850.249	21.94
850.421	22.05
850.592	25.46
850.764	25.5
850.936	27.07
851.107	23.77
851.279	25.26
851.451	27.63
851.622	26.76
851.794	24.57
851.965	26.34
852.137	29.98
852.308	26.86
852.48	25.27
852.651	26.12
852.823	27.04
852.994	34.34
853.166	34.77
853.337	32.65
853.509	33.29
853.68	35.34
853.851	37.14
854.023	33.52
854.194	36.64
854.365	39.8
854.537	40.54
854.708	42.17
854.879	36.45
855.05	38.18
855.222	37.28
855.393	37.11
855.564	38.17
855.735	36.91
855.906	36.47
856.078	32.41
856.249	31.98
856.42	27.76
856.591	26.48
856.762	32.91
856.933	30.66
857.104	30.12
857.275	27.21
857.446	30.05
857.617	32.12
857.788	33.72
857.959	35.76
858.13	34.72
858.301	39.47
858.472	39.92
858.643	41.7
858.814	43.96
858.985	46.11
859.155	49.68
859.326	47.06
859.497	46.05
859.668	42.3
859.839	41.11
860.009	41.86
860.18	38.77
860.351	43.19
860.522	40.84
860.692	36.96
860.863	38.1
861.034	37.6
861.204	37.1
861.375	35.64
861.546	37.32
861.716	41.69
861.887	42.16
862.057	44.66
862.228	36.13
862.398	30.33
862.569	30.93
862.739	31.11
862.91	27.94
863.08	30.95
863.251	31.7
863.421	31.17
863.592	29.43
863.762	26.04
863.932	21.93
864.103	26.82
864.273	34.94
864.443	39.43
864.614	36.85
864.784	38.96
864.954	36.75
865.125	36.41
865.295	36.67
865.465	36.84
865.635	40.18
865.805	40.93
865.976	40.78
866.146	36.54
866.316	33.05
866.486	32.51
866.656	31.97
866.826	35.05
866.996	33.55
867.166	34.86
867.336	28.93
867.506	23.53
867.676	20.74
867.846	17.59
868.016	20.57
868.186	22.73
868.356	26.27
868.526	24.03
868.696	15
868.866	14.48
869.036	14.59
869.206	18.45
869.376	25.49
869.545	29.31
869.715	31.32
869.885	32.49
870.055	28.6
870.224	28.61
870.394	28.9
870.564	32.08
870.734	33.67
870.903	31.57
871.073	31.61
871.243	29.88
871.412	28.8
871.582	28.34
871.751	29.72
871.921	32.99
872.091	31.11
872.26	35.15
872.43	35.16
872.599	39.26
872.769	43.67
872.938	44.5
873.108	41.41
873.277	36.49
873.446	36.44
873.616	33.42
873.785	33.69
873.955	34.2
874.124	35.93
874.293	36.64
874.463	34.62
874.632	34.99
874.801	31.04
874.971	34.45
875.14	41.3
875.309	43.6
875.478	45.07
875.647	40.56
875.817	40.94
875.986	36.82
876.155	37.04
876.324	33.05
876.493	30.88
876.662	31.84
876.831	30.85
877	28.03
877.17	24.56
877.339	22.99
877.508	27.46
877.677	28.49
877.846	26.83
878.015	24.08
878.184	26.96
878.352	26.25
878.521	27.38
878.69	27.73
878.859	24.01
879.028	26.31
879.197	24.21
879.366	26.67
879.534	24.38
879.703	26.64
879.872	26.42
880.041	25.67
880.21	26.19
880.378	25.44
880.547	25.11
880.716	25.49
880.884	25.03
881.053	25.2
881.222	24.66
881.39	25.15
881.559	24.5
881.727	24.04
881.896	23.86
882.065	23.03
882.233	23.41
882.402	23.72
882.57	23.69
882.739	23.74
882.907	23.74
883.076	23.33
883.244	23.35
883.412	23.68
883.581	24.63
883.749	24.93
883.918	25.69
884.086	25.11
884.254	24.82
884.423	25.94
884.591	25.65
884.759	26.33
884.927	26.18
885.096	25.67
885.264	24.76
885.432	25.34
885.6	24.53
885.769	24.07
885.937	25.11
886.105	25.37
886.273	23.8
886.441	23.69
886.609	22
886.777	22.51
886.945	25.18
887.113	30.48
887.281	30.61
887.449	32.25
887.617	33.09
887.785	34.42
887.953	36.23
888.121	36.44
888.289	42.4
888.457	46.19
888.625	46.63
888.793	46.34
888.961	42.54
889.129	45.31
889.296	46.49
889.464	48.07
889.632	49.25
889.8	47.33
889.967	53.13
890.135	48.41
