Data from 2938465_Reflection_2.txt Node
Date: Wed Jun 17 13:51:53 EDT 2015
User: robert
Spectrometer: USB4E03002
Autoset integration time: false
Trigger mode: 4
Integration Time (sec): 1.000000E-1
Scans to average: 10
Electric dark correction enabled: true
Nonlinearity correction enabled: false
Boxcar width: 5
Stray light correction enabled: false
XAxis mode: Wavelengths
Stop averaging: false
Number of Pixels in Spectrum: 3648
>>>>>Begin Spectral Data<<<<<
177.575	3.32
177.794	-11.87
178.014	25.86
178.233	-24.63
178.452	35.54
178.672	13.58
178.891	64.78
179.11	99.12
179.33	57.81
179.549	-24.69
179.768	41.19
179.987	-23.45
180.207	-409.17
180.426	-48.28
180.645	44.17
180.864	80.91
181.084	92.96
181.303	113.45
181.522	124.02
181.741	169.47
181.96	91.77
182.179	155.51
182.398	98.7
182.618	70.4
182.837	83.67
183.056	317.63
183.275	133.63
183.494	179.85
183.713	165.86
183.932	778.21
184.151	208.48
184.37	174.52
184.589	91.53
184.808	88.58
185.027	136.2
185.246	145.71
185.465	141.36
185.684	150.71
185.903	150.67
186.122	133.72
186.341	111.58
186.56	103.96
186.779	118.65
186.998	132.83
187.216	111.5
187.435	115.11
187.654	99.96
187.873	80.29
188.092	80.14
188.311	77.08
188.53	72.25
188.748	59.43
188.967	90.67
189.186	135.38
189.405	153.74
189.623	135.26
189.842	200
190.061	-1786.4
190.28	-102.5
190.498	-88.1
190.717	-653.26
190.936	-289.22
191.154	-246.25
191.373	-190.54
191.592	-428.5
191.81	123.5
192.029	-246.83
192.248	175.39
192.466	194.02
192.685	77.29
192.904	98.86
193.122	99.23
193.341	77.96
193.559	100.4
193.778	90.03
193.996	132.69
194.215	177.21
194.433	129.2
194.652	139.34
194.87	109.12
195.089	143.26
195.307	150.7
195.526	242.54
195.744	225.28
195.963	176.18
196.181	177.5
196.399	130.49
196.618	103.55
196.836	114.85
197.055	78.5
197.273	71.64
197.491	57.82
197.71	50.45
197.928	42.39
198.146	44.98
198.365	24.75
198.583	25.79
198.801	10.34
199.019	27.35
199.238	25.1
199.456	31.77
199.674	25.59
199.892	43.38
200.111	45.21
200.329	89.96
200.547	92.05
200.765	111.14
200.983	124.6
201.202	141.4
201.42	125.62
201.638	129.4
201.856	133.63
202.074	131.49
202.292	113.37
202.51	121.21
202.728	109.8
202.946	109.06
203.165	96.81
203.383	78.66
203.601	89.82
203.819	86.69
204.037	89.52
204.255	73.85
204.473	72.06
204.691	86.74
204.909	83.97
205.127	60.39
205.345	59.38
205.562	64.24
205.78	81.29
205.998	89.09
206.216	98.3
206.434	85.97
206.652	99.86
206.87	89.25
207.088	100.65
207.306	95.45
207.523	109.18
207.741	103.8
207.959	95.31
208.177	86.24
208.395	67.36
208.612	45.2
208.83	59.25
209.048	41.34
209.266	46.33
209.483	36.86
209.701	38.53
209.919	40.46
210.136	43.68
210.354	35.08
210.572	36.03
210.79	41.01
211.007	56.85
211.225	43.42
211.442	57.54
211.66	63.68
211.878	63.83
212.095	52.23
212.313	54.17
212.53	54.11
212.748	78.23
212.966	63.77
213.183	41.15
213.401	31.26
213.618	42.09
213.836	46.51
214.053	38.39
214.271	40.85
214.488	40.88
214.705	34.96
214.923	23.66
215.14	9.29
215.358	29.94
215.575	45.54
215.793	61.46
216.01	55.77
216.227	59.04
216.445	62.81
216.662	64.51
216.879	73.51
217.097	72.37
217.314	82.14
217.531	82.34
217.749	84.6
217.966	71.74
218.183	42.69
218.4	27.9
218.618	6.63
218.835	-21.57
219.052	-18.71
219.269	-43.27
219.487	-29.9
219.704	-16.96
219.921	-1.86
220.138	-14.42
220.355	-15.42
220.572	4.19
220.79	21.05
221.007	34.14
221.224	27.74
221.441	21.79
221.658	22.6
221.875	29.02
222.092	20.74
222.309	24.52
222.526	29.57
222.743	27.38
222.96	22.14
223.177	19.75
223.394	13.01
223.611	16.89
223.828	18.49
224.045	17.24
224.262	9
224.479	7.04
224.696	10.54
224.913	11.63
225.13	13.37
225.347	13.25
225.564	11.93
225.781	11
225.997	10.98
226.214	11.67
226.431	11.02
226.648	11.1
226.865	11.8
227.082	11.46
227.298	11.89
227.515	11.58
227.732	11.46
227.949	11.71
228.165	12.71
228.382	12.05
228.599	11
228.816	10.76
229.032	11.25
229.249	11.76
229.466	11.83
229.682	11.28
229.899	12.64
230.116	14.05
230.332	14.1
230.549	15.3
230.765	17.68
230.982	18.54
231.199	20.99
231.415	19.93
231.632	21.97
231.848	20.82
232.065	18.54
232.281	17.76
232.498	16.15
232.714	15.15
232.931	13.76
233.147	13.44
233.364	10.95
233.58	12.39
233.797	14.37
234.013	12.59
234.23	13.12
234.446	14.76
234.662	14.58
234.879	13.63
235.095	14.63
235.312	15.31
235.528	14.6
235.744	15.82
235.961	11.9
236.177	11.08
236.393	10.59
236.61	10.84
236.826	11.08
237.042	10.98
237.258	13.5
237.475	12.94
237.691	12.02
237.907	9.62
238.123	10.97
238.339	11.34
238.556	12.24
238.772	12.79
238.988	11.99
239.204	10.9
239.42	11.13
239.636	10.56
239.853	11.04
240.069	11.49
240.285	11.93
240.501	11.27
240.717	10.98
240.933	10.41
241.149	10.2
241.365	10.74
241.581	11.47
241.797	11.23
242.013	11.05
242.229	11.29
242.445	11.14
242.661	11.59
242.877	12.33
243.093	12.39
243.309	12.2
243.525	11.38
243.741	10.37
243.957	9.76
244.173	9.53
244.388	9.78
244.604	9.5
244.82	9.24
245.036	9.5
245.252	8.77
245.468	8.16
245.683	8.5
245.899	9.03
246.115	9.14
246.331	8.78
246.547	8.96
246.762	8.36
246.978	7.94
247.194	8.21
247.409	8.03
247.625	8.33
247.841	9.17
248.057	8.68
248.272	8.29
248.488	8.26
248.703	8.6
248.919	7.94
249.135	7.83
249.35	8.86
249.566	8.38
249.782	8.15
249.997	8.93
250.213	8.74
250.428	8.44
250.644	8.4
250.859	8.39
251.075	8.66
251.29	8.85
251.506	9.63
251.721	9.2
251.937	9.11
252.152	9.64
252.368	9.66
252.583	10.51
252.798	10.74
253.014	10.6
253.229	10.86
253.445	10.46
253.66	11.45
253.875	10.65
254.091	10.71
254.306	9.54
254.521	8.41
254.737	6.84
254.952	6.18
255.167	6.3
255.383	6.26
255.598	5.81
255.813	6.39
256.028	5.81
256.244	5.61
256.459	5.05
256.674	5.46
256.889	5.82
257.104	5.24
257.32	5.76
257.535	5.98
257.75	6.21
257.965	6.17
258.18	5.98
258.395	6
258.61	6.31
258.826	6.76
259.041	6.6
259.256	6.6
259.471	7.15
259.686	7.03
259.901	7.33
260.116	7.55
260.331	7.93
260.546	7.69
260.761	7.56
260.976	7.64
261.191	7.26
261.406	7.84
261.621	7.01
261.836	7.1
262.05	6.67
262.265	6.3
262.48	5.36
262.695	4.73
262.91	5.66
263.125	5.54
263.34	5.28
263.555	5.64
263.769	5.73
263.984	6.69
264.199	7.25
264.414	7.44
264.629	7.39
264.843	7.38
265.058	6.7
265.273	6.56
265.488	7
265.702	6.97
265.917	6.46
266.132	6.44
266.346	6.34
266.561	6.25
266.776	6.52
266.99	6.4
267.205	6.27
267.42	6.52
267.634	6.8
267.849	6.68
268.063	7.07
268.278	8.04
268.492	7.98
268.707	7.7
268.922	7.42
269.136	6.71
269.351	7.11
269.565	7.77
269.78	7.6
269.994	7.19
270.209	7.23
270.423	6.86
270.637	6.09
270.852	6.17
271.066	6.61
271.281	6.65
271.495	6.78
271.709	6.55
271.924	5.96
272.138	6
272.353	6.01
272.567	6.05
272.781	6.01
272.996	5.9
273.21	5.89
273.424	5.44
273.638	5.24
273.853	5.48
274.067	5.1
274.281	5.77
274.495	6.09
274.71	6.18
274.924	5.92
275.138	5.74
275.352	5.87
275.566	5.45
275.781	5.94
275.995	6.87
276.209	6.95
276.423	6.75
276.637	6.27
276.851	5.69
277.065	5.55
277.279	6.12
277.493	6.14
277.707	6.18
277.921	6.37
278.135	5.67
278.349	4.69
278.563	4.53
278.777	4.5
278.991	4.68
279.205	5.38
279.419	5.38
279.633	4.94
279.847	5.33
280.061	5.02
280.275	5.36
280.489	5.58
280.703	5.56
280.917	5.3
281.131	5.95
281.344	5.52
281.558	5.42
281.772	5.74
281.986	5.7
282.2	5.98
282.414	6.03
282.627	5.46
282.841	5.41
283.055	5.76
283.269	5.79
283.482	5.49
283.696	5.68
283.91	5.94
284.123	5.53
284.337	5.33
284.551	5
284.764	5.4
284.978	5.5
285.192	5.97
285.405	5.94
285.619	6.22
285.833	6.16
286.046	5.97
286.26	6.19
286.473	6.49
286.687	6.78
286.9	7.03
287.114	6.65
287.327	6.77
287.541	6.15
287.754	6.02
287.968	5.77
288.181	5.49
288.395	6.23
288.608	5.73
288.822	5.21
289.035	5.01
289.248	4.76
289.462	5.11
289.675	5.07
289.889	5.01
290.102	4.91
290.315	4.82
290.529	5.05
290.742	4.43
290.955	5.2
291.169	5.54
291.382	6.18
291.595	6.23
291.808	6.31
292.022	6.37
292.235	6.04
292.448	6.45
292.661	6.77
292.875	6.85
293.088	6.87
293.301	6.3
293.514	6.61
293.727	6.4
293.94	6.49
294.153	6.41
294.367	6.27
294.58	6.53
294.793	6.24
295.006	6.28
295.219	6.54
295.432	6.62
295.645	6.79
295.858	6.63
296.071	6.32
296.284	6.24
296.497	6.15
296.71	6.33
296.923	6.7
297.136	6.4
297.349	6.36
297.562	6
297.775	5.84
297.988	5.6
298.201	5.45
298.414	5.61
298.626	5.71
298.839	5.75
299.052	5.42
299.265	4.92
299.478	5.24
299.691	5.66
299.903	5.9
300.116	6.19
300.329	5.7
300.542	5.64
300.755	5.57
300.967	5.7
301.18	5.61
301.393	5.9
301.605	5.92
301.818	5.62
302.031	5.24
302.243	5
302.456	5
302.669	5.2
302.881	5.17
303.094	5.23
303.307	5.22
303.519	5.55
303.732	5.83
303.944	5.87
304.157	6.16
304.37	5.96
304.582	6.25
304.795	6.45
305.007	7.03
305.22	7.32
305.432	7.39
305.645	6.81
305.857	6.69
306.069	6.38
306.282	6.85
306.494	6.92
306.707	7.15
306.919	6.65
307.132	6.3
307.344	6
307.556	6.27
307.769	6.51
307.981	6.65
308.193	6.6
308.406	6.46
308.618	6.26
308.83	6.13
309.043	5.82
309.255	6.33
309.467	6.24
309.679	6.31
309.892	6.28
310.104	5.89
310.316	5.93
310.528	5.68
310.74	5.41
310.953	5.42
311.165	5.32
311.377	5.42
311.589	5.09
311.801	5.52
312.013	5.16
312.225	4.67
312.437	5.17
312.649	5.54
312.862	5.44
313.074	6
313.286	5.97
313.498	6.45
313.71	7.26
313.922	7.23
314.134	7.09
314.346	7.3
314.558	7.93
314.77	7.54
314.982	6.97
315.193	7.47
315.405	7.3
315.617	7.16
315.829	7.23
316.041	6.47
316.253	6.59
316.465	6.87
316.677	6.81
316.888	6.57
317.1	6.9
317.312	7.53
317.524	7.65
317.736	7.94
317.947	7.91
318.159	7.98
318.371	8.14
318.583	8.64
318.794	7.83
319.006	8.27
319.218	8.06
319.43	7.92
319.641	7.7
319.853	7.36
320.064	7.31
320.276	7.63
320.488	7.13
320.699	7.43
320.911	6.96
321.123	7.47
321.334	7.56
321.546	8.14
321.757	7.96
321.969	8.22
322.18	8.19
322.392	8.15
322.603	8.02
322.815	8.58
323.026	8.52
323.238	8.75
323.449	8.45
323.661	7.91
323.872	7.61
324.083	8
324.295	8.02
324.506	7.89
324.718	7.96
324.929	8.33
325.14	8.12
325.352	8.2
325.563	7.98
325.774	7.93
325.986	8.71
326.197	8.27
326.408	8.17
326.62	7.87
326.831	8.27
327.042	8.09
327.253	7.63
327.464	7.28
327.676	7.3
327.887	7.09
328.098	7.36
328.309	6.82
328.52	6.93
328.732	6.96
328.943	7.11
329.154	6.72
329.365	6.84
329.576	6.73
329.787	7.32
329.998	7.31
330.209	7.73
330.42	7.46
330.631	7.39
330.842	8.08
331.053	7.91
331.264	7.76
331.475	7.75
331.686	8.13
331.897	7.91
332.108	7.52
332.319	7.68
332.53	7.46
332.741	7.88
332.952	7.94
333.163	7.86
333.374	7.75
333.585	7.94
333.795	8.16
334.006	8.12
334.217	8.48
334.428	8.59
334.639	8.13
334.849	8.17
335.06	7.84
335.271	7.58
335.482	7.21
335.692	7.5
335.903	7.17
336.114	7.14
336.325	7.18
336.535	6.94
336.746	7.28
336.957	7.36
337.167	7.78
337.378	7.98
337.589	8.38
337.799	8.39
338.01	8.44
338.22	8.93
338.431	8.92
338.642	8.73
338.852	9.18
339.063	8.93
339.273	9.24
339.484	8.52
339.694	7.98
339.905	7.9
340.115	8.3
340.326	8.35
340.536	8.38
340.746	8.17
340.957	8.15
341.167	8.04
341.378	7.88
341.588	7.72
341.799	8.33
342.009	8.59
342.219	8.44
342.43	8.23
342.64	7.86
342.85	7.47
343.061	7.61
343.271	7.44
343.481	7.48
343.691	7.25
343.902	6.83
344.112	6.24
344.322	6.23
344.532	6.03
344.743	5.71
344.953	5.89
345.163	6.18
345.373	6.17
345.583	6.2
345.793	6.15
346.004	6.43
346.214	6.7
346.424	7.25
346.634	7.27
346.844	7.79
347.054	7.97
347.264	8.05
347.474	7.9
347.684	7.79
347.894	8.03
348.104	8.12
348.314	7.68
348.524	7.61
348.734	7.47
348.944	7.59
349.154	7.49
349.364	7.09
349.574	6.51
349.784	6.26
349.994	6.31
350.204	6.06
350.413	6.3
350.623	6.57
350.833	7.04
351.043	6.88
351.253	6.86
351.463	6.36
351.672	6.51
351.882	6.68
352.092	6.71
352.302	6.8
352.511	6.86
352.721	6.55
352.931	6.42
353.141	5.95
353.35	6.14
353.56	6.16
353.77	6.08
353.979	6.28
354.189	6.14
354.399	6.25
354.608	5.97
354.818	5.72
355.027	5.65
355.237	5.66
355.447	5.65
355.656	5.53
355.866	5.4
356.075	5.87
356.285	5.67
356.494	5.85
356.704	5.88
356.913	5.7
357.123	5.96
357.332	5.92
357.542	5.98
357.751	5.96
357.96	5.79
358.17	6.02
358.379	5.76
358.589	5.94
358.798	5.93
359.007	5.45
359.217	5.73
359.426	5.42
359.635	5.3
359.845	5.42
360.054	5.4
360.263	5.32
360.472	5.14
360.682	5.24
360.891	5.32
361.1	5.57
361.309	5.89
361.519	5.89
361.728	6.06
361.937	6.31
362.146	6.35
362.355	6.37
362.564	6.45
362.774	6.53
362.983	6.4
363.192	6.2
363.401	5.99
363.61	5.81
363.819	5.97
364.028	5.94
364.237	5.66
364.446	5.48
364.655	5.24
364.864	5.48
365.073	5.43
365.282	5.41
365.491	5.33
365.7	5.43
365.909	5.49
366.118	5.56
366.327	5.6
366.536	5.66
366.745	5.8
366.954	5.99
367.162	5.66
367.371	5.77
367.58	5.88
367.789	5.91
367.998	5.45
368.207	5.6
368.415	5.38
368.624	5.49
368.833	5.53
369.042	5.38
369.25	5.54
369.459	5.77
369.668	5.47
369.877	5.5
370.085	5.53
370.294	5.56
370.503	5.36
370.711	5.49
370.92	5.25
371.129	5.32
371.337	5.35
371.546	5.21
371.754	5.16
371.963	5.2
372.171	5
372.38	5.19
372.589	5.42
372.797	5.52
373.006	5.08
373.214	5.24
373.423	5.25
373.631	5.12
373.84	5.08
374.048	5.08
374.256	5.27
374.465	5.47
374.673	5.25
374.882	4.96
375.09	4.81
375.298	4.95
375.507	5
375.715	4.94
375.923	4.99
376.132	4.94
376.34	4.88
376.548	4.8
376.757	4.62
376.965	4.86
377.173	5.05
377.381	5.26
377.59	5.32
377.798	5.24
378.006	5.24
378.214	5.28
378.423	5.34
378.631	5.26
378.839	5.08
379.047	5.1
379.255	5.02
379.463	5.04
379.671	4.92
379.879	4.79
380.088	4.69
380.296	4.44
380.504	4.53
380.712	4.75
380.92	4.65
381.128	4.81
381.336	4.77
381.544	4.45
381.752	4.39
381.96	4.15
382.168	4.22
382.376	4.34
382.584	4.58
382.791	4.46
382.999	4.47
383.207	4.48
383.415	4.58
383.623	4.73
383.831	5.02
384.039	4.97
384.247	5.27
384.454	5.17
384.662	5.1
384.87	5.19
385.078	5.21
385.285	4.83
385.493	5
385.701	4.66
385.909	4.73
386.116	4.63
386.324	4.49
386.532	4.21
386.739	4.28
386.947	4.31
387.155	4.11
387.362	4.13
387.57	4.22
387.778	4.19
387.985	4.34
388.193	4.05
388.4	3.99
388.608	4.25
388.816	4.27
389.023	4.32
389.231	4.21
389.438	4.2
389.646	4.17
389.853	4.17
390.061	4.07
390.268	4.05
390.475	4.06
390.683	4.17
390.89	4.16
391.098	4.25
391.305	4.33
391.512	4.37
391.72	4.49
391.927	4.4
392.135	4.38
392.342	4.38
392.549	4.43
392.756	4.61
392.964	4.56
393.171	4.44
393.378	4.28
393.586	4.3
393.793	4.45
394	4.25
394.207	4.32
394.414	4.39
394.622	4.37
394.829	4.49
395.036	4.49
395.243	4.23
395.45	4.31
395.657	4.4
395.864	4.18
396.072	4.07
396.279	4.1
396.486	3.92
396.693	3.94
396.9	3.93
397.107	3.77
397.314	3.97
397.521	4.21
397.728	4.33
397.935	4.76
398.142	4.76
398.349	4.57
398.556	4.77
398.763	4.93
398.97	5
399.177	5.22
399.383	5.23
399.59	4.92
399.797	4.8
400.004	4.64
400.211	4.21
400.418	4.14
400.625	4.29
400.831	4
401.038	3.79
401.245	3.75
401.452	3.59
401.658	3.35
401.865	3.47
402.072	3.49
402.279	3.54
402.485	3.58
402.692	3.62
402.899	3.56
403.105	3.61
403.312	3.59
403.519	3.54
403.725	3.45
403.932	3.71
404.138	3.61
404.345	3.62
404.552	3.53
404.758	3.64
404.965	3.63
405.171	3.79
405.378	3.95
405.584	4.1
405.791	4.09
405.997	4.44
406.204	4.57
406.41	4.56
406.617	4.55
406.823	4.69
407.029	4.71
407.236	4.83
407.442	4.71
407.649	4.73
407.855	4.6
408.061	4.54
408.268	4.31
408.474	4.03
408.68	4.09
408.887	4.19
409.093	4
409.299	4
409.505	4.05
409.712	4.02
409.918	3.93
410.124	4.04
410.33	4.06
410.537	3.96
410.743	3.94
410.949	3.95
411.155	3.97
411.361	3.99
411.567	4.01
411.773	3.85
411.98	3.92
412.186	3.75
412.392	3.72
412.598	3.79
412.804	3.58
413.01	3.6
413.216	3.53
413.422	3.62
413.628	3.49
413.834	3.35
414.04	3.34
414.246	3.15
414.452	3.26
414.658	3.19
414.864	3.1
415.07	3.3
415.275	3.36
415.481	3.31
415.687	3.2
415.893	3.39
416.099	3.29
416.305	3.2
416.511	3.41
416.716	3.4
416.922	3.48
417.128	3.58
417.334	3.61
417.539	3.58
417.745	3.53
417.951	3.44
418.157	3.38
418.362	3.39
418.568	3.43
418.774	3.32
418.979	3.37
419.185	3.36
419.391	3.33
419.596	3.3
419.802	3.27
420.008	3.32
420.213	3.96
420.419	3.99
420.624	4
420.83	3.92
421.035	3.9
421.241	3.91
421.446	3.88
421.652	3.79
421.857	3.73
422.063	3.7
422.268	3.65
422.474	3.09
422.679	3.12
422.885	3.13
423.09	3.15
423.295	3.13
423.501	3.01
423.706	3.03
423.911	3.12
424.117	3.24
424.322	3.25
424.527	3.36
424.733	3.33
424.938	3.3
425.143	3.32
425.349	3.41
425.554	3.45
425.759	3.46
425.964	3.35
426.169	3.28
426.375	3.14
426.58	3.24
426.785	3.19
426.99	3.24
427.195	3.25
427.4	3.17
427.605	3.13
427.811	3.06
428.016	3.1
428.221	3.14
428.426	3.09
428.631	3.12
428.836	3.22
429.041	3.1
429.246	3.01
429.451	3
429.656	3.11
429.861	3.14
430.066	3.31
430.271	3.34
430.476	3.36
430.681	3.42
430.886	3.41
431.09	3.32
431.295	3.34
431.5	3.32
431.705	3.27
431.91	3.32
432.115	3.28
432.32	3.1
432.524	3.03
432.729	3.05
432.934	3.07
433.139	3.09
433.343	3.12
433.548	3.26
433.753	3.19
433.958	3.14
434.162	2.93
434.367	2.93
434.572	3.02
434.776	3.07
434.981	3.01
435.186	2.91
435.39	2.91
435.595	2.88
435.799	2.76
436.004	2.88
436.209	2.84
436.413	2.94
436.618	2.89
436.822	2.9
437.027	2.85
437.231	2.98
437.436	2.98
437.64	3.06
437.845	2.97
438.049	3.04
438.253	3.05
438.458	3.05
438.662	3.06
438.867	3.18
439.071	3.17
439.275	3.27
439.48	3.17
439.684	3.17
439.888	3.06
440.093	3.18
440.297	3.04
440.501	2.98
440.706	3.03
440.91	3.06
441.114	3.01
441.318	2.99
441.523	2.89
441.727	3.08
441.931	3.22
442.135	3.28
442.339	3.22
442.543	3.33
442.748	3.38
442.952	3.4
443.156	3.35
443.36	3.3
443.564	3.36
443.768	3.46
443.972	3.28
444.176	3.15
444.38	3.11
444.584	3
444.788	2.97
444.992	2.95
445.196	2.97
445.4	2.99
445.604	2.93
445.808	2.91
446.012	2.86
446.216	2.86
446.42	2.9
446.624	2.94
446.828	3.02
447.032	3
447.235	3
447.439	3.03
447.643	3.02
447.847	3.09
448.051	3.06
448.254	3.04
448.458	3.1
448.662	3.16
448.866	3.08
449.069	3.01
449.273	3.01
449.477	3.02
449.681	2.93
449.884	2.89
450.088	2.96
450.292	3.04
450.495	2.92
450.699	2.94
450.902	2.86
451.106	2.83
451.31	2.85
451.513	2.94
451.717	2.92
451.92	2.87
452.124	2.85
452.327	2.85
452.531	2.8
452.734	2.88
452.938	2.82
453.141	2.87
453.345	2.95
453.548	2.91
453.752	2.91
453.955	2.94
454.158	2.94
454.362	3.01
454.565	3.07
454.769	3.11
454.972	3.23
455.175	3.32
455.379	3.24
455.582	3.35
455.785	3.43
455.988	3.37
456.192	3.23
456.395	3.31
456.598	3.32
456.801	3.21
457.005	3.12
457.208	3
457.411	2.93
457.614	2.9
457.817	2.88
458.021	2.85
458.224	2.91
458.427	2.88
458.63	2.9
458.833	2.83
459.036	2.84
459.239	2.84
459.442	2.87
459.645	2.88
459.848	2.86
460.051	2.81
460.254	2.86
460.457	2.76
460.66	2.86
460.863	2.85
461.066	2.9
461.269	2.89
461.472	2.93
461.675	2.91
461.878	2.88
462.081	3.01
462.284	3.05
462.486	2.95
462.689	3
462.892	2.99
463.095	2.95
463.298	2.94
463.5	2.99
463.703	2.97
463.906	3.02
464.109	3.04
464.311	3.02
464.514	3.02
464.717	3.16
464.92	3.12
465.122	3.2
465.325	3.23
465.528	3.28
465.73	3.3
465.933	3.32
466.135	3.33
466.338	3.28
466.541	3.23
466.743	3.18
466.946	3.13
467.148	3.12
467.351	3.02
467.553	3
467.756	2.96
467.958	2.92
468.161	2.97
468.363	2.91
468.566	2.94
468.768	2.99
468.971	2.97
469.173	2.95
469.375	2.91
469.578	2.85
469.78	2.91
469.983	2.99
470.185	2.97
470.387	2.92
470.59	2.96
470.792	2.91
470.994	2.87
471.196	2.91
471.399	2.86
471.601	3
471.803	3.12
472.005	3.1
472.208	3.03
472.41	3.06
472.612	3.01
472.814	3.01
473.016	3.19
473.218	3.24
473.421	3.21
473.623	3.27
473.825	3.19
474.027	3.05
474.229	2.98
474.431	2.95
474.633	2.9
474.835	2.9
475.037	2.87
475.239	2.76
475.441	2.74
475.643	2.81
475.845	2.81
476.047	2.75
476.249	2.81
476.451	2.85
476.653	2.83
476.855	2.86
477.057	2.87
477.258	2.87
477.46	2.81
477.662	2.8
477.864	2.74
478.066	2.74
478.268	2.81
478.469	2.89
478.671	2.87
478.873	2.97
479.075	2.89
479.276	2.93
479.478	2.96
479.68	3.08
479.882	3.02
480.083	2.97
480.285	3.02
480.487	2.93
480.688	2.83
480.89	2.82
481.091	2.78
481.293	2.82
481.495	2.8
481.696	2.78
481.898	2.77
482.099	2.77
482.301	2.79
482.502	2.76
482.704	2.79
482.905	2.8
483.107	2.82
483.308	2.82
483.51	2.82
483.711	2.82
483.913	2.82
484.114	2.84
484.315	2.82
484.517	2.79
484.718	2.8
484.92	2.79
485.121	2.82
485.322	2.77
485.524	2.75
485.725	2.73
485.926	2.72
486.127	2.74
486.329	2.71
486.53	2.73
486.731	2.75
486.932	2.75
487.134	2.75
487.335	2.75
487.536	2.78
487.737	2.79
487.938	2.8
488.139	2.82
488.341	2.81
488.542	2.77
488.743	2.8
488.944	2.77
489.145	2.79
489.346	2.81
489.547	2.79
489.748	2.74
489.949	2.71
490.15	2.71
490.351	2.7
490.552	2.7
490.753	2.74
490.954	2.71
491.155	2.69
491.356	2.68
491.557	2.72
491.758	2.75
491.959	2.78
492.159	2.82
492.36	2.87
492.561	2.9
492.762	2.91
492.963	2.9
493.164	2.93
493.364	3.01
493.565	2.98
493.766	2.9
493.967	2.81
494.167	2.73
494.368	2.68
494.569	2.6
494.769	2.56
494.97	2.58
495.171	2.65
495.371	2.68
495.572	2.75
495.773	2.77
495.973	2.79
496.174	2.87
496.375	2.97
496.575	3.07
496.776	3.15
496.976	3.23
497.177	3.23
497.377	3.19
497.578	3.24
497.778	3.18
497.979	3.19
498.179	3.15
498.38	3.11
498.58	3.08
498.78	3
498.981	2.99
499.181	2.84
499.382	2.86
499.582	2.86
499.782	2.81
499.983	2.84
500.183	2.84
500.383	2.98
500.584	3.01
500.784	3.08
500.984	3.12
501.184	3.05
501.385	3.08
501.585	3.06
501.785	3.04
501.985	2.98
502.185	3.04
502.386	3.06
502.586	2.93
502.786	2.98
502.986	2.91
503.186	2.94
503.386	2.95
503.586	3.13
503.786	3.17
503.987	3.24
504.187	3.26
504.387	3.24
504.587	3.25
504.787	3.25
504.987	3.24
505.187	3.33
505.387	3.32
505.587	3.33
505.786	3.26
505.986	3.3
506.186	3.23
506.386	3.22
506.586	3.22
506.786	3.19
506.986	3.33
507.186	3.34
507.386	3.3
507.585	3.33
507.785	3.39
507.985	3.39
508.185	3.35
508.384	3.41
508.584	3.49
508.784	3.45
508.984	3.49
509.183	3.47
509.383	3.47
509.583	3.56
509.782	3.56
509.982	3.49
510.182	3.47
510.381	3.54
510.581	3.6
510.781	3.58
510.98	3.59
511.18	3.73
511.379	3.73
511.579	3.68
511.778	3.65
511.978	3.58
512.177	3.66
512.377	3.69
512.576	3.63
512.776	3.55
512.975	3.53
513.175	3.62
513.374	3.52
513.573	3.48
513.773	3.59
513.972	3.54
514.172	3.65
514.371	3.68
514.57	3.7
514.77	3.7
514.969	3.72
515.168	3.72
515.367	3.68
515.567	3.77
515.766	3.82
515.965	3.79
516.164	3.83
516.364	3.82
516.563	3.79
516.762	3.82
516.961	3.88
517.16	3.89
517.359	3.88
517.559	3.88
517.758	3.83
517.957	3.85
518.156	3.85
518.355	3.91
518.554	3.91
518.753	3.91
518.952	3.89
519.151	3.85
519.35	3.94
519.549	3.94
519.748	3.98
519.947	4.01
520.146	3.97
520.345	3.96
520.544	3.89
520.743	4
520.942	4.04
521.141	4.12
521.339	4.25
521.538	4.24
521.737	4.31
521.936	4.33
522.135	4.31
522.333	4.37
522.532	4.42
522.731	4.43
522.93	4.45
523.129	4.47
523.327	4.38
523.526	4.27
523.725	4.32
523.923	4.31
524.122	4.34
524.321	4.35
524.519	4.37
524.718	4.37
524.917	4.43
525.115	4.37
525.314	4.34
525.512	4.36
525.711	4.4
525.909	4.41
526.108	4.47
526.306	4.45
526.505	4.43
526.703	4.44
526.902	4.46
527.1	4.42
527.299	4.43
527.497	4.46
527.696	4.47
527.894	4.47
528.092	4.47
528.291	4.46
528.489	4.44
528.688	4.51
528.886	4.53
529.084	4.54
529.283	4.6
529.481	4.62
529.679	4.64
529.877	4.69
530.076	4.71
530.274	4.75
530.472	4.78
530.67	4.87
530.869	4.87
531.067	4.84
531.265	4.84
531.463	4.89
531.661	4.92
531.859	4.96
532.057	4.95
532.255	4.98
532.454	4.95
532.652	4.98
532.85	5
533.048	5.05
533.246	5.06
533.444	5.07
533.642	5.08
533.84	5.12
534.038	5.11
534.236	5.19
534.434	5.2
534.632	5.21
534.83	5.25
535.027	5.27
535.225	5.23
535.423	5.25
535.621	5.28
535.819	5.26
536.017	5.24
536.215	5.29
536.412	5.34
536.61	5.31
536.808	5.36
537.006	5.33
537.203	5.39
537.401	5.43
537.599	5.54
537.797	5.59
537.994	5.59
538.192	5.65
538.39	5.65
538.587	5.66
538.785	5.76
538.983	5.83
539.18	5.87
539.378	5.81
539.575	5.85
539.773	5.88
539.97	5.88
540.168	5.94
540.366	5.94
540.563	5.94
540.761	5.94
540.958	5.95
541.155	5.94
541.353	5.92
541.55	5.96
541.748	5.96
541.945	5.9
542.143	5.89
542.34	5.88
542.537	5.86
542.735	5.92
542.932	5.93
543.129	5.91
543.327	5.98
543.524	6.04
543.721	6.07
543.919	6.12
544.116	6.18
544.313	6.3
544.51	6.32
544.708	6.37
544.905	6.44
545.102	6.5
545.299	6.55
545.496	6.57
545.693	6.58
545.891	6.66
546.088	6.59
546.285	6.63
546.482	6.69
546.679	6.77
546.876	6.79
547.073	6.81
547.27	6.75
547.467	6.78
547.664	6.84
547.861	6.88
548.058	6.85
548.255	7.04
548.452	7.05
548.649	7.04
548.846	7.06
549.043	7.15
549.24	7.19
549.437	7.32
549.633	7.5
549.83	7.48
550.027	7.57
550.224	7.68
550.421	7.71
550.618	7.8
550.814	7.8
551.011	7.86
551.208	7.86
551.405	7.86
551.601	7.88
551.798	7.74
551.995	7.69
552.191	7.71
552.388	7.62
552.585	7.7
552.781	7.73
552.978	7.77
553.175	7.8
553.371	7.9
553.568	8
553.764	8.16
553.961	8.24
554.157	8.39
554.354	8.46
554.55	8.54
554.747	8.53
554.943	8.57
555.14	8.59
555.336	8.67
555.533	8.66
555.729	8.67
555.926	8.55
556.122	8.58
556.318	8.73
556.515	8.61
556.711	8.77
556.907	8.81
557.104	8.83
557.3	9.05
557.496	8.91
557.693	9.13
557.889	9.17
558.085	9.26
558.281	9.39
558.478	9.26
558.674	9.43
558.87	9.43
559.066	9.43
559.262	9.58
559.459	9.47
559.655	9.65
559.851	9.59
560.047	9.61
560.243	9.73
560.439	9.83
560.635	10.04
560.831	10.09
561.027	10.16
561.223	10.25
561.419	10.18
561.615	10.27
561.811	10.35
562.007	10.46
562.203	10.6
562.399	10.59
562.595	10.59
562.791	10.71
562.987	10.82
563.183	10.99
563.379	11.04
563.575	11.18
563.771	11.27
563.966	11.39
564.162	11.44
564.358	11.5
564.554	11.5
564.75	11.57
564.945	11.56
565.141	11.51
565.337	11.45
565.533	11.6
565.728	11.67
565.924	11.68
566.12	11.7
566.315	11.79
566.511	11.7
566.707	11.81
566.902	11.92
567.098	12
567.293	12.28
567.489	12.35
567.684	12.32
567.88	12.43
568.076	12.55
568.271	12.65
568.467	12.65
568.662	12.75
568.858	12.89
569.053	12.88
569.248	13
569.444	12.96
569.639	13.06
569.835	13.16
570.03	13.29
570.225	13.28
570.421	13.25
570.616	13.35
570.812	13.61
571.007	13.6
571.202	13.69
571.397	13.74
571.593	13.81
571.788	13.78
571.983	13.86
572.178	13.89
572.374	14.01
572.569	14.19
572.764	14.24
572.959	14.18
573.154	14.32
573.35	14.46
573.545	14.51
573.74	14.57
573.935	14.69
574.13	14.77
574.325	14.77
574.52	14.98
574.715	14.97
574.91	15.03
575.105	15.11
575.3	15.21
575.495	15.17
575.69	15.16
575.885	15.2
576.08	15.32
576.275	15.33
576.47	15.4
576.665	15.28
576.86	15.32
577.055	15.34
577.25	15.54
577.444	15.6
577.639	15.67
577.834	15.65
578.029	15.62
578.224	15.65
578.418	15.64
578.613	15.76
578.808	15.89
579.003	16
579.197	16.17
579.392	16.15
579.587	16.19
579.781	16.34
579.976	16.62
580.171	16.77
580.365	16.83
580.56	16.96
580.755	17.01
580.949	17.07
581.144	17.14
581.338	16.99
581.533	17
581.727	17.09
581.922	17.04
582.116	17.02
582.311	17.05
582.505	17.25
582.7	17.21
582.894	17.34
583.089	17.33
583.283	17.39
583.478	17.64
583.672	17.6
583.866	17.68
584.061	17.8
584.255	17.91
584.449	18.01
584.644	17.95
584.838	18.09
585.032	18
585.226	18.04
585.421	18.03
585.615	18.03
585.809	18.15
586.003	18.24
586.198	18.25
586.392	18.24
586.586	18.29
586.78	18.41
586.974	18.51
587.168	18.67
587.363	18.65
587.557	18.73
587.751	18.87
587.945	18.97
588.139	18.9
588.333	19.11
588.527	19.26
588.721	19.41
588.915	19.45
589.109	19.32
589.303	19.34
589.497	19.4
589.691	19.48
589.885	19.4
590.079	19.49
590.273	19.58
590.466	19.52
590.66	19.49
590.854	19.48
591.048	19.51
591.242	19.82
591.436	19.85
591.629	19.97
591.823	20.04
592.017	20.29
592.211	20.32
592.404	20.31
592.598	20.44
592.792	20.5
592.986	20.44
593.179	20.47
593.373	20.44
593.567	20.46
593.76	20.56
593.954	20.61
594.147	20.62
594.341	20.72
594.535	20.74
594.728	20.61
594.922	20.65
595.115	20.85
595.309	20.77
595.502	20.85
595.696	20.93
595.889	20.92
596.083	21
596.276	20.99
596.47	20.97
596.663	21.03
596.856	21.11
597.05	21.13
597.243	21.05
597.437	21.12
597.63	21.07
597.823	21.09
598.017	21.22
598.21	21.14
598.403	21.17
598.596	21.25
598.79	21.48
598.983	21.65
599.176	21.72
599.369	21.77
599.563	21.98
599.756	22
599.949	21.99
600.142	21.98
600.335	22.15
600.528	22.14
600.722	22.19
600.915	22.03
601.108	22.14
601.301	22.26
601.494	22.31
601.687	22.3
601.88	22.35
602.073	22.35
602.266	22.33
602.459	22.34
602.652	22.42
602.845	22.4
603.038	22.37
603.231	22.34
603.424	22.34
603.617	22.31
603.809	22.31
604.002	22.37
604.195	22.59
604.388	22.63
604.581	22.72
604.774	22.74
604.966	22.79
605.159	22.88
605.352	22.87
605.545	22.87
605.737	23.13
605.93	23.32
606.123	23.39
606.316	23.26
606.508	23.31
606.701	23.46
606.894	23.42
607.086	23.48
607.279	23.49
607.471	23.41
607.664	23.39
607.857	23.31
608.049	23.34
608.242	23.29
608.434	23.26
608.627	23.29
608.819	23.2
609.012	23.24
609.204	23.23
609.397	23.26
609.589	23.26
609.782	23.24
609.974	23.16
610.166	23.09
610.359	23.14
610.551	23.37
610.743	23.54
610.936	23.59
611.128	23.58
611.32	23.55
611.513	23.57
611.705	23.63
611.897	23.79
612.09	24.04
612.282	24.18
612.474	24.3
612.666	24.2
612.858	24.2
613.051	24.28
613.243	24.21
613.435	24.07
613.627	24.05
613.819	24.15
614.011	24.22
614.203	24.13
614.395	24.15
614.588	24.15
614.78	24.18
614.972	24.15
615.164	23.88
615.356	24.07
615.548	24.35
615.74	24.38
615.932	24.5
616.124	24.27
616.315	24.48
616.507	24.55
616.699	24.47
616.891	24.51
617.083	24.47
617.275	24.67
617.467	24.65
617.659	24.56
617.85	24.75
618.042	24.72
618.234	24.87
618.426	24.73
618.618	24.51
618.809	24.6
619.001	24.6
619.193	24.66
619.384	24.49
619.576	24.57
619.768	24.58
619.959	24.68
620.151	24.83
620.343	24.82
620.534	24.81
620.726	24.84
620.917	24.96
621.109	24.98
621.301	24.98
621.492	25.33
621.684	25.24
621.875	25.36
622.067	25.26
622.258	25.01
622.45	25.01
622.641	25.14
622.832	25.31
623.024	25.22
623.215	25.26
623.407	25.16
623.598	24.98
623.789	25.24
623.981	25.18
624.172	25.35
624.363	25.41
624.555	25.52
624.746	25.5
624.937	25.44
625.129	25.57
625.32	25.59
625.511	25.74
625.702	25.68
625.893	25.63
626.085	25.7
626.276	25.62
626.467	25.77
626.658	25.69
626.849	25.62
627.04	25.69
627.231	25.72
627.422	25.88
627.614	25.95
627.805	26.16
627.996	26.36
628.187	26.39
628.378	26.44
628.569	26.31
628.76	26.43
628.951	26.57
629.142	26.59
629.332	26.52
629.523	26.27
629.714	26.25
629.905	26.16
630.096	25.96
630.287	25.99
630.478	25.91
630.669	26.14
630.859	26.26
631.05	26.26
631.241	26.23
631.432	26.24
631.623	26.38
631.813	26.27
632.004	26.27
632.195	26.32
632.385	26.29
632.576	26.43
632.767	26.45
632.957	26.53
633.148	26.58
633.339	26.51
633.529	26.58
633.72	26.7
633.91	26.79
634.101	26.73
634.292	26.71
634.482	26.77
634.673	26.74
634.863	26.5
635.054	26.43
635.244	26.32
635.435	26.46
635.625	26.34
635.815	26.31
636.006	26.37
636.196	26.55
636.387	26.57
636.577	26.71
636.767	26.68
636.958	26.79
637.148	26.84
637.338	26.95
637.529	26.93
637.719	27.16
637.909	27.12
638.099	27.01
638.29	27.04
638.48	27.21
638.67	27.12
638.86	27.22
639.05	27.34
639.241	27.35
639.431	27.4
639.621	27.39
639.811	27.23
640.001	27.22
640.191	27.33
640.381	27.46
640.571	27.41
640.761	27.13
640.951	27.18
641.141	27.2
641.331	27.17
641.521	27.04
641.711	27.22
641.901	27.15
642.091	27.06
642.281	26.97
642.471	26.77
642.661	26.55
642.851	26.99
643.041	26.97
643.231	27
643.42	26.95
643.61	26.81
643.8	26.74
643.99	26.79
644.18	27.14
644.369	27.29
644.559	27.44
644.749	27.67
644.939	27.67
645.128	27.72
645.318	27.79
645.508	27.84
645.697	28.2
645.887	28.24
646.076	28.36
646.266	28.31
646.456	28.47
646.645	28.42
646.835	28.49
647.024	28.55
647.214	28.55
647.403	28.6
647.593	28.62
647.782	28.52
647.972	28.35
648.161	28.34
648.351	28.37
648.54	28.16
648.73	28.09
648.919	27.86
649.108	27.6
649.298	27.76
649.487	27.8
649.677	27.87
649.866	27.99
650.055	28.32
650.244	28.47
650.434	28.61
650.623	28.71
650.812	28.76
651.002	28.97
651.191	29.16
651.38	29.06
651.569	28.91
651.758	28.7
651.947	28.68
652.137	28.57
652.326	28.66
652.515	28.44
652.704	28.61
652.893	28.83
653.082	28.68
653.271	28.64
653.46	28.53
653.649	28.53
653.838	28.78
654.027	28.69
654.216	28.57
654.405	28.49
654.594	28.56
654.783	28.44
654.972	28.24
655.161	28.57
655.35	28.82
655.539	28.96
655.728	29.13
655.916	29.14
656.105	29.22
656.294	29.51
656.483	29.51
656.672	29.47
656.86	29.67
657.049	29.75
657.238	29.73
657.427	29.59
657.615	29.74
657.804	29.9
657.993	29.88
658.181	29.99
658.37	30.11
658.559	30.27
658.747	30.37
658.936	30.25
659.125	30.17
659.313	30.3
659.502	30.35
659.69	30.16
659.879	30.13
660.067	30.16
660.256	30.21
660.444	30.06
660.633	29.83
660.821	29.82
661.01	29.89
661.198	30.14
661.387	29.95
661.575	29.9
661.763	30.03
661.952	29.78
662.14	29.7
662.328	29.6
662.517	29.59
662.705	29.54
662.893	29.5
663.082	29.45
663.27	29.19
663.458	29.15
663.646	29.44
663.834	29.49
664.023	29.71
664.211	29.83
664.399	29.76
664.587	29.85
664.775	29.95
664.963	29.95
665.152	29.74
665.34	30.02
665.528	29.95
665.716	30
665.904	29.96
666.092	29.9
666.28	29.92
666.468	30.4
666.656	30.12
666.844	30.41
667.032	30.5
667.22	30.8
667.408	30.66
667.596	31.01
667.784	30.99
667.971	31.15
668.159	31.1
668.347	31.23
668.535	30.91
668.723	30.99
668.911	30.91
669.098	30.71
669.286	30.75
669.474	31.13
669.662	30.97
669.849	30.9
670.037	30.67
670.225	30.74
670.413	30.54
670.6	30.55
670.788	30.69
670.976	30.48
671.163	30.64
671.351	30.43
671.538	30.12
671.726	30.19
671.913	30.12
672.101	30.38
672.289	30.46
672.476	30.44
672.664	30.71
672.851	30.62
673.039	30.99
673.226	30.99
673.413	31.17
673.601	31.35
673.788	31.11
673.976	31.2
674.163	30.92
674.35	30.97
674.538	31.18
674.725	30.88
674.912	30.94
675.1	30.92
675.287	31.11
675.474	31.28
675.662	31.24
675.849	31.38
676.036	31.25
676.223	31.55
676.411	31.42
676.598	31.32
676.785	31.55
676.972	31.76
677.159	31.62
677.346	31.7
677.533	31.66
677.721	31.58
677.908	31.63
678.095	31.81
678.282	31.55
678.469	31.82
678.656	31.82
678.843	31.79
679.03	31.72
679.217	31.82
679.404	31.61
679.591	31.74
679.778	31.65
679.964	31.77
680.151	31.71
680.338	31.74
680.525	31.82
680.712	31.93
680.899	31.68
681.086	31.66
681.272	31.45
681.459	31.74
681.646	31.63
681.833	32
682.02	31.79
682.206	31.75
682.393	31.66
682.58	31.45
682.766	31.4
682.953	31.85
683.14	31.57
683.326	32.01
683.513	32.03
683.7	32.11
683.886	32.03
684.073	32.08
684.259	31.89
684.446	32.29
684.632	32.41
684.819	32.71
685.005	32.47
685.192	32.84
685.378	32.77
685.565	32.68
685.751	32.36
685.938	32.55
686.124	32.77
686.31	33.09
686.497	33.25
686.683	33.04
686.87	32.59
687.056	32.51
687.242	32.47
687.429	32.4
687.615	32.18
687.801	32.36
687.987	32.39
688.174	32.35
688.36	32.65
688.546	32.6
688.732	32.73
688.918	32.97
689.105	33.38
689.291	33.39
689.477	33.11
689.663	33.32
689.849	33.33
690.035	32.92
690.221	32.8
690.407	32.78
690.593	32.47
690.779	32.59
690.965	32.5
691.151	32.12
691.337	32.24
691.523	32.49
691.709	32.52
691.895	32.52
692.081	32.82
692.267	33.03
692.453	32.83
692.639	32.79
692.825	32.73
693.011	32.71
693.196	32.76
693.382	32.72
693.568	32.48
693.754	32.59
693.94	32.63
694.125	32.66
694.311	32.64
694.497	32.59
694.682	32.81
694.868	32.91
695.054	32.78
695.239	33.01
695.425	32.78
695.611	33.01
695.796	33.16
695.982	33.05
696.168	32.57
696.353	32.46
696.539	32.71
696.724	32.72
696.91	32.42
697.095	32.89
697.281	33.02
697.466	33.18
697.652	33.4
697.837	33.36
698.023	33.68
698.208	33.89
698.393	34.04
698.579	33.64
698.764	33.78
698.949	34.01
699.135	33.51
699.32	33.46
699.505	33.34
699.691	33.37
699.876	33.18
700.061	32.94
700.246	32.88
700.432	32.54
700.617	32.8
700.802	32.41
700.987	32.66
701.172	33.26
701.358	33.24
701.543	33.45
701.728	33.07
701.913	33.17
702.098	33.1
702.283	33.36
702.468	33.79
702.653	33.6
702.838	34.07
703.023	33.8
703.208	33.64
703.393	33.55
703.578	33.77
703.763	34.18
703.948	34.4
704.133	34.34
704.318	34.42
704.503	34.47
704.688	35.22
704.873	35.06
705.057	35.38
705.242	35.37
705.427	35.27
705.612	34.99
705.797	34.49
705.981	34.21
706.166	34.26
706.351	34.45
706.536	34.31
706.72	33.61
706.905	33.85
707.09	33.4
707.274	33.88
707.459	33.91
707.644	34.03
707.828	34.27
708.013	34.27
708.197	34.59
708.382	34.16
708.567	34.11
708.751	34.47
708.936	34.17
709.12	34.61
709.305	33.94
709.489	34.13
709.673	34.11
709.858	34.09
710.042	34.21
710.227	33.93
710.411	33.99
710.596	33.79
710.78	33.6
710.964	33.76
711.149	33.44
711.333	33.67
711.517	33.31
711.702	33.29
711.886	33.07
712.07	32.89
712.254	32.73
712.438	32.78
712.623	33.03
712.807	33.48
712.991	33.32
713.175	33.66
713.359	33.79
713.544	33.86
713.728	33.82
713.912	33.99
714.096	34.32
714.28	34.37
714.464	34.63
714.648	34.73
714.832	34.25
715.016	34.39
715.2	34.24
715.384	34.09
715.568	34.06
715.752	33.92
715.936	33.84
716.12	33.8
716.304	34.21
716.488	33.82
716.671	33.71
716.855	33.84
717.039	33.83
717.223	33.42
717.407	33.54
717.59	33.75
717.774	33.87
717.958	33.89
718.142	33.74
718.325	33.55
718.509	34.14
718.693	34.21
718.877	34.11
719.06	34.23
719.244	34.93
719.428	34.88
719.611	34.9
719.795	34.96
719.978	34.89
720.162	34.88
720.345	35.11
720.529	34.59
720.713	34.12
720.896	34.33
721.08	33.72
721.263	33.61
721.446	33.49
721.63	33.41
721.813	33.42
721.997	33.86
722.18	34.1
722.364	33.99
722.547	33.92
722.73	34.38
722.914	34.25
723.097	34.35
723.28	34.38
723.464	34.71
723.647	34.65
723.83	34.6
724.013	34.49
724.197	34.03
724.38	33.77
724.563	33.84
724.746	33.73
724.929	34.03
725.112	34.24
725.296	34.09
725.479	33.79
725.662	34.06
725.845	34.19
726.028	33.91
726.211	34.25
726.394	34.59
726.577	34.52
726.76	34.72
726.943	34.59
727.126	34.61
727.309	34.92
727.492	35.09
727.675	34.91
727.858	34.8
728.041	34.83
728.224	34.72
728.407	34.33
728.589	34.65
728.772	34.49
728.955	35
729.138	35.03
729.321	34.61
729.503	34.56
729.686	34.76
729.869	34.85
730.052	35.66
730.234	36
730.417	36.12
730.6	35.97
730.782	36.55
730.965	35.99
731.148	36.09
731.33	36.06
731.513	35.81
731.695	35.82
731.878	35.85
732.061	35.3
732.243	35.34
732.426	35.41
732.608	35.98
732.791	35.43
732.973	35.31
733.156	35.37
733.338	35.16
733.52	35.2
733.703	35.03
733.885	34.87
734.068	34.67
734.25	34.57
734.432	34.61
734.615	34
734.797	33.7
734.979	33.58
735.162	33.47
735.344	33.75
735.526	34.13
735.708	34
735.891	34.34
736.073	34.57
736.255	34.34
736.437	34.05
736.619	33.87
736.802	34.44
736.984	35.13
737.166	35.28
737.348	35.42
737.53	35.28
737.712	35.53
737.894	35.33
738.076	35.43
738.258	35.62
738.44	35.77
738.622	36.26
738.804	36.58
738.986	36.1
739.168	36.11
739.35	36.06
739.532	36.07
739.714	35.96
739.896	35.62
740.078	35.59
740.259	35.69
740.441	35.53
740.623	34.95
740.805	34.78
740.987	34.66
741.168	34.42
741.35	34.4
741.532	34.15
741.714	34.15
741.895	35
742.077	34.55
742.259	33.92
742.44	33.91
742.622	34.33
742.804	34.11
742.985	34.12
743.167	33.71
743.348	33.89
743.53	34.29
743.711	34.19
743.893	33.61
744.075	34.1
744.256	34.09
744.438	34.41
744.619	34.21
744.8	34.29
744.982	34.15
745.163	34.9
745.345	34.15
745.526	34.35
745.707	34.95
745.889	34.77
746.07	34.75
746.252	34.98
746.433	34.53
746.614	34.7
746.795	34.8
746.977	35.8
747.158	35.64
747.339	36.05
747.52	35.56
747.702	35.08
747.883	35.62
748.064	35.4
748.245	35.61
748.426	36.11
748.607	36.19
748.788	36.38
748.97	35.79
749.151	35.23
749.332	35.62
749.513	35.8
749.694	36.03
749.875	36.02
750.056	35.85
750.237	35.12
750.418	35.1
750.599	34.58
750.78	33.99
750.96	34.16
751.141	34.78
751.322	34.93
751.503	35.04
751.684	34.87
751.865	34.7
752.046	35.42
752.226	36.01
752.407	36.02
752.588	36.18
752.769	35.93
752.949	36.25
753.13	36.74
753.311	36.71
753.492	36.55
753.672	36.87
753.853	36.36
754.034	35.39
754.214	34.95
754.395	34.9
754.575	35.66
754.756	36.48
754.937	36.48
755.117	36.53
755.298	36.38
755.478	36.65
755.659	37.15
755.839	37.95
756.02	38.86
756.2	39.73
756.381	39.35
756.561	39.13
756.741	39.04
756.922	38.28
757.102	36.95
757.283	37.23
757.463	36.72
757.643	35.79
757.823	35.76
758.004	34.95
758.184	34.32
758.364	34.81
758.545	34.77
758.725	34.69
758.905	35.56
759.085	35.8
759.265	35.82
759.446	35.8
759.626	35.94
759.806	36.21
759.986	36.38
760.166	36.31
760.346	36.51
760.526	36.76
760.706	36.28
760.886	35.79
761.066	35.66
761.246	35.42
761.426	35.49
761.606	35.43
761.786	34.73
761.966	34.99
762.146	35.03
762.326	34.56
762.506	34.48
762.686	34.52
762.866	34.59
763.046	34.78
763.225	34.71
763.405	34.77
763.585	34.89
763.765	34.9
763.945	34.92
764.124	34.89
764.304	35.36
764.484	34.83
764.664	35
764.843	35.22
765.023	35.37
765.203	35.34
765.382	35.15
765.562	35.22
765.741	35.41
765.921	35.55
766.101	35.94
766.28	35.92
766.46	36.18
766.639	36.55
766.819	36.57
766.998	36.71
767.178	36.71
767.357	37.05
767.537	37.83
767.716	37.87
767.896	37.46
768.075	37.31
768.254	37.17
768.434	37.84
768.613	37.28
768.792	37.15
768.972	37.66
769.151	37.78
769.33	37.36
769.51	37.13
769.689	37.46
769.868	38.43
770.047	38.94
770.226	38.57
770.406	38.18
770.585	38.52
770.764	38.25
770.943	37.18
771.122	37.31
771.301	37.79
771.48	37.44
771.66	37.39
771.839	36.42
772.018	35.77
772.197	36.11
772.376	36.17
772.555	35.75
772.734	36.38
772.913	36.15
773.092	36.27
773.271	35.99
773.449	35.48
773.628	35.41
773.807	35.3
773.986	35.99
774.165	35.94
774.344	36.17
774.523	36.08
774.701	35.81
774.88	36.63
775.059	36.05
775.238	36.54
775.417	36.96
775.595	36.65
775.774	37.19
775.953	36.29
776.131	36.66
776.31	35.55
776.489	36.07
776.667	35.51
776.846	35.59
777.025	35.26
777.203	35.45
777.382	35.9
777.56	36.38
777.739	36.08
777.917	36.5
778.096	35.61
778.274	36.04
778.453	35.99
778.631	36.44
778.81	35.5
778.988	37.33
779.166	37.5
779.345	36
779.523	35.97
779.702	36.52
779.88	35.99
780.058	37
780.237	37.4
780.415	37.04
780.593	36.39
780.771	36.93
780.95	36.77
781.128	35.73
781.306	37.03
781.484	36.92
781.662	35.72
781.841	35.28
782.019	35.23
782.197	34.73
782.375	33.96
782.553	34.93
782.731	34.15
782.909	32.68
783.087	33.68
783.265	33.38
783.443	33.04
783.621	34.19
783.799	35.99
783.977	35.54
784.155	35.65
784.333	37.01
784.511	36.9
784.689	37.65
784.867	38.18
785.045	37.12
785.223	37.08
785.4	37.72
785.578	36.96
785.756	35.96
785.934	35.93
786.112	37.5
786.289	36.18
786.467	36.24
786.645	36.51
786.823	35.51
787	35.51
787.178	34.93
787.356	34.86
787.533	35.54
787.711	35.79
787.889	35.81
788.066	34.63
788.244	35.32
788.421	35.14
788.599	35.03
788.776	35.83
788.954	35.37
789.131	36.18
789.309	34.98
789.486	34.66
789.664	34.76
789.841	34.68
790.019	34.99
790.196	35.55
790.373	34.99
790.551	35.99
790.728	35.39
790.906	36.97
791.083	36.13
791.26	36.34
791.437	35.87
791.615	35.59
791.792	35.54
791.969	35.52
792.146	35.15
792.324	34.83
792.501	34.46
792.678	36.13
792.855	35.11
793.032	35.49
793.209	37.72
793.387	37.38
793.564	36.95
793.741	37.08
793.918	37.29
794.095	37.57
794.272	38.39
794.449	38.21
794.626	37.26
794.803	37.48
794.98	36.63
795.157	35.02
795.334	35.98
795.511	36.74
795.688	36.6
795.864	36.07
796.041	35.32
796.218	35.62
796.395	34.24
796.572	34.75
796.749	35.59
796.925	36.28
797.102	36.56
797.279	36.84
797.456	37.12
797.632	37.39
797.809	37.33
797.986	37.52
798.162	37.51
798.339	37.63
798.516	37.13
798.692	36.86
798.869	36.68
799.046	37.02
799.222	36.72
799.399	36.32
799.575	35.39
799.752	35.65
799.928	36.38
800.105	36.47
800.281	37.34
800.458	37.22
800.634	37.09
800.811	37.39
800.987	37.83
801.163	37.56
801.34	37.79
801.516	38.03
801.692	37.26
801.869	36.58
802.045	36.07
802.221	36.24
802.398	35.87
802.574	35.46
802.75	34.5
802.926	33.21
803.103	32.63
803.279	32.86
803.455	34.31
803.631	36.12
803.807	36.62
803.983	35.8
804.16	35.93
804.336	36.37
804.512	37.17
804.688	38.63
804.864	39.67
805.04	40.21
805.216	39.99
805.392	39.93
805.568	38.81
805.744	38.27
805.92	39.35
806.096	38.67
806.272	39.1
806.448	38.31
806.623	37.9
806.799	36.76
806.975	37.47
807.151	37.13
807.327	36.38
807.503	36.01
807.678	36.66
807.854	36.68
808.03	37.69
808.206	37.56
808.381	37.3
808.557	37.65
808.733	39.56
808.908	39.03
809.084	38.7
809.26	38.46
809.435	38.6
809.611	38.16
809.787	37.52
809.962	37.52
810.138	36.73
810.313	38.33
810.489	38.17
810.664	36.79
810.84	36.72
811.015	36.6
811.191	36.25
811.366	35.92
811.542	36.26
811.717	35.4
811.892	33.91
812.068	34.41
812.243	33.11
812.419	33.16
812.594	32.95
812.769	32.4
812.944	33.17
813.12	33.39
813.295	34.32
813.47	34.33
813.645	35.63
813.821	36.33
813.996	36.43
814.171	37.03
814.346	37.65
814.521	40.3
814.697	41.38
814.872	41.08
815.047	41.89
815.222	41.97
815.397	40.84
815.572	40.27
815.747	39.65
815.922	39.44
816.097	39.76
816.272	38.54
816.447	35.38
816.622	34.01
816.797	34.53
816.972	35.24
817.147	34.6
817.322	34.2
817.496	34.57
817.671	35.5
817.846	36.08
818.021	35.53
818.196	35.81
818.371	37.13
818.545	38.46
818.72	37.81
818.895	36.9
819.069	37.94
819.244	38.72
819.419	38.54
819.594	38.71
819.768	38.23
819.943	38.2
820.117	38.26
820.292	38.01
820.467	37.52
820.641	37.38
820.816	37.47
820.99	37.21
821.165	37
821.339	36.96
821.514	36.81
821.688	36.94
821.863	36.7
822.037	36.49
822.212	36.61
822.386	36.57
822.56	36.67
822.735	36.23
822.909	36.1
823.084	36.45
823.258	36.42
823.432	36.65
823.606	36.64
823.781	36.86
823.955	37.16
824.129	37.01
824.303	36.99
824.478	36.86
824.652	37.6
824.826	37.57
825	37.07
825.174	37.21
825.348	36.42
825.523	35.87
825.697	35.77
825.871	35.71
826.045	35.68
826.219	36.11
826.393	35.86
826.567	35.92
826.741	36.49
826.915	36.65
827.089	36.8
827.263	37.29
827.437	37.75
827.611	37.62
827.784	37.51
827.958	37.19
828.132	37.03
828.306	37.24
828.48	36.71
828.654	35.91
828.827	35.53
829.001	34.95
829.175	35.04
829.349	34.83
829.522	34.77
829.696	34.54
829.87	35.58
830.044	35.12
830.217	35.09
830.391	35.13
830.565	35.93
830.738	37.21
830.912	38.08
831.085	37.93
831.259	38.68
831.432	38.72
831.606	39.21
831.779	38.44
831.953	38.46
832.126	39.41
832.3	39.61
832.473	38.99
832.647	38.14
832.82	37.47
832.994	37.05
833.167	36.51
833.34	36.92
833.514	36.66
833.687	36.93
833.86	37.11
834.034	37.06
834.207	37.08
834.38	37.54
834.553	37.46
834.727	37.75
834.9	37.79
835.073	38.44
835.246	38.3
835.419	38.46
835.593	39.01
835.766	38.93
835.939	38.73
836.112	39.5
836.285	39.23
836.458	39.85
836.631	40.21
836.804	40.73
836.977	41.17
837.15	40.65
837.323	40.19
837.496	37.76
837.669	35.7
837.842	35.94
838.015	35.88
838.188	34.26
838.361	33.29
838.533	33.04
838.706	32.7
838.879	31.07
839.052	31.8
839.225	32.19
839.398	33.15
839.57	35.09
839.743	34.71
839.916	31.3
840.088	33.85
840.261	33.07
840.434	32.83
840.607	33
840.779	32.83
840.952	34.32
841.124	35.46
841.297	35.55
841.47	36.19
841.642	36.01
841.815	37.49
841.987	36.89
842.16	37.25
842.332	37.16
842.505	36.9
842.677	37.93
842.85	37.45
843.022	35.68
843.194	36.5
843.367	37.73
843.539	37.87
843.712	38.06
843.884	36.28
844.056	37.73
844.229	40
844.401	41.14
844.573	40.41
844.745	41.8
844.918	41.81
845.09	40.96
845.262	37.82
845.434	37.94
845.606	39.6
845.779	40.83
845.951	40.37
846.123	37
846.295	36.26
846.467	37.72
846.639	37.32
846.811	41.03
846.983	41.15
847.155	45.4
847.327	44.99
847.499	44.01
847.671	47.21
847.843	45.79
848.015	45.12
848.187	45.95
848.359	46.77
848.531	44.46
848.703	41.56
848.875	43.21
849.047	42.81
849.218	43.54
849.39	45.37
849.562	39.41
849.734	39.12
849.905	41.19
850.077	46.94
850.249	44.09
850.421	42.43
850.592	42.01
850.764	41.78
850.936	37.98
851.107	34.61
851.279	35.64
851.451	38.66
851.622	41.09
851.794	42.06
851.965	34.15
852.137	36.58
852.308	37.48
852.48	37.89
852.651	39.35
852.823	43.23
852.994	43.18
853.166	43.7
853.337	42.21
853.509	43.44
853.68	47.17
853.851	48.32
854.023	48.47
854.194	52
854.365	54.29
854.537	50.14
854.708	50.01
854.879	51.95
855.05	50.7
855.222	53.85
855.393	53.88
855.564	48.64
855.735	49.84
855.906	46.67
856.078	42.72
856.249	45.8
856.42	50.32
856.591	48.54
856.762	50.11
856.933	49.33
857.104	47.75
857.275	49.6
857.446	48.94
857.617	46.9
857.788	48.36
857.959	49.25
858.13	43.71
858.301	41.79
858.472	43.29
858.643	40.42
858.814	39.77
858.985	38.67
859.155	37.83
859.326	39.96
859.497	40.96
859.668	41.55
859.839	39.91
860.009	39.29
860.18	37.68
860.351	32.82
860.522	34.09
860.692	35.75
860.863	34.26
861.034	31.4
861.204	32.61
861.375	32.97
861.546	31.17
861.716	34.63
861.887	35.43
862.057	36.38
862.228	38.25
862.398	37.35
862.569	35.21
862.739	37.57
862.91	36.34
863.08	34.41
863.251	29.81
863.421	29.2
863.592	25.59
863.762	28.96
863.932	29.36
864.103	32.24
864.273	36.37
864.443	36.74
864.614	37.71
864.784	43.43
864.954	44.16
865.125	48.14
865.295	49.52
865.465	49.13
865.635	49.39
865.805	53.64
865.976	47.86
866.146	46.3
866.316	44.1
866.486	43.53
866.656	45.15
866.826	45.89
866.996	45.29
867.166	45.92
867.336	47.89
867.506	46.91
867.676	38.72
867.846	43.53
868.016	41.96
868.186	45.05
868.356	44
868.526	36.03
868.696	38.64
868.866	40.33
869.036	38.96
869.206	36.5
869.376	39.47
869.545	42.23
869.715	39.93
869.885	36.28
870.055	35.42
870.224	41.85
870.394	46.02
870.564	43.3
870.734	42.84
870.903	45.06
871.073	46.23
871.243	42.3
871.412	46.88
871.582	43.92
871.751	50.72
871.921	50.36
872.091	46.11
872.26	44.39
872.43	42.82
872.599	44.09
872.769	38.17
872.938	35.89
873.108	39.98
873.277	39.09
873.446	46.99
873.616	45.39
873.785	45.27
873.955	45.3
874.124	42.65
874.293	42.19
874.463	41.15
874.632	44.9
874.801	48.16
874.971	48.1
875.14	48.92
875.309	46.95
875.478	50.79
875.647	48.97
875.817	48.27
875.986	51.55
876.155	50.7
876.324	51
876.493	50.64
876.662	49.14
876.831	46.66
877	45.83
877.17	44.04
877.339	39.63
877.508	40.91
877.677	41.16
877.846	42.6
878.015	41.77
878.184	39.02
878.352	38.13
878.521	36.32
878.69	36.92
878.859	35.03
879.028	36.39
879.197	38.08
879.366	35.1
879.534	34.32
879.703	32.19
879.872	34.75
880.041	35.19
880.21	36.62
880.378	39.47
880.547	39.02
880.716	40.15
880.884	39.16
881.053	38.97
881.222	40.57
881.39	40.22
881.559	40.19
881.727	39.53
881.896	39.63
882.065	39.2
882.233	38.84
882.402	39.15
882.57	38.26
882.739	38.59
882.907	39.11
883.076	38.47
883.244	38.6
883.412	38.92
883.581	38.9
883.749	39.28
883.918	39.62
884.086	39.04
884.254	38.95
884.423	39.18
884.591	39.25
884.759	38.23
884.927	39.47
885.096	38.96
885.264	38.47
885.432	39.14
885.6	39.3
885.769	38.92
885.937	38.24
886.105	39.25
886.273	40.84
886.441	41.08
886.609	42.04
886.777	39.54
886.945	41.79
887.113	42.31
887.281	39.91
887.449	38.46
887.617	36.29
887.785	39.16
887.953	36.13
888.121	35.17
888.289	36.02
888.457	36.83
888.625	39.63
888.793	38.54
888.961	39.97
889.129	41.5
889.296	41.18
889.464	44.68
889.632	43.56
889.8	45.07
889.967	45.09
890.135	43.76
