Data from 2938459_Reflection_1.txt Node
Date: Wed Jun 17 14:07:08 EDT 2015
User: robert
Spectrometer: USB4E03002
Autoset integration time: false
Trigger mode: 4
Integration Time (sec): 1.000000E-1
Scans to average: 10
Electric dark correction enabled: true
Nonlinearity correction enabled: false
Boxcar width: 5
Stray light correction enabled: false
XAxis mode: Wavelengths
Stop averaging: false
Number of Pixels in Spectrum: 3648
>>>>>Begin Spectral Data<<<<<
177.575	-53.64
177.794	-74.34
178.014	-16.22
178.233	-204.63
178.452	276.87
178.672	26.96
178.891	-26.26
179.11	-23.1
179.33	1368.75
179.549	-6743.21
179.768	-520.93
179.987	-82.9
180.207	-643.72
180.426	-96.62
180.645	153.54
180.864	151.61
181.084	118.61
181.303	171.34
181.522	193.18
181.741	359.14
181.96	274.3
182.179	315.43
182.398	282.09
182.618	202.47
182.837	256.26
183.056	935.92
183.275	588.86
183.494	648.57
183.713	498.76
183.932	4075.22
184.151	1267.72
184.37	551.73
184.589	289.54
184.808	249.91
185.027	811.39
185.246	384.1
185.465	294.7
185.684	307.38
185.903	387.16
186.122	307.75
186.341	194.66
186.56	213.01
186.779	333.72
186.998	374.92
187.216	245.75
187.435	210.95
187.654	225.73
187.873	226.11
188.092	273.79
188.311	234.08
188.53	245.3
188.748	265.47
188.967	275.09
189.186	303.75
189.405	446.6
189.623	399.03
189.842	674.1
190.061	-5434.8
190.28	-350.53
190.498	-326.07
190.717	-1802.12
190.936	-791.84
191.154	-527.56
191.373	-487.77
191.592	-2153.94
191.81	376.98
192.029	-1096.29
192.248	1677.6
192.466	655.72
192.685	219.32
192.904	223.68
193.122	220.11
193.341	239.81
193.559	223
193.778	169.41
193.996	220.06
194.215	262.71
194.433	190.98
194.652	173.27
194.87	146.89
195.089	162.62
195.307	189.95
195.526	441.54
195.744	288.17
195.963	258.47
196.181	297.59
196.399	199.07
196.618	182.86
196.836	234.95
197.055	216.76
197.273	242.28
197.491	199.08
197.71	164.86
197.928	159.75
198.146	155.9
198.365	170.96
198.583	159.05
198.801	136.71
199.019	136.64
199.238	126.22
199.456	148.88
199.674	118.14
199.892	139.98
200.111	149.38
200.329	115.91
200.547	139.59
200.765	139.46
200.983	162.01
201.202	200.86
201.42	222.08
201.638	231.75
201.856	187.12
202.074	170.48
202.292	156.04
202.51	158.32
202.728	168.76
202.946	191.68
203.165	164.34
203.383	136.83
203.601	152.54
203.819	142.43
204.037	128.61
204.255	124.73
204.473	141.76
204.691	157.67
204.909	153.21
205.127	120.28
205.345	114.9
205.562	135.42
205.78	159.27
205.998	168.69
206.216	165.48
206.434	147.49
206.652	165.86
206.87	145.99
207.088	151.23
207.306	162.59
207.523	178.43
207.741	159.63
207.959	151.5
208.177	153.46
208.395	127.24
208.612	124.65
208.83	154.99
209.048	142.07
209.266	155.8
209.483	159.43
209.701	152.32
209.919	136.76
210.136	162.77
210.354	130.61
210.572	130.31
210.79	128.91
211.007	134.32
211.225	113.95
211.442	119.86
211.66	120.28
211.878	107.6
212.095	94.94
212.313	101.66
212.53	92.89
212.748	122.35
212.966	121.41
213.183	104.99
213.401	90.12
213.618	87.38
213.836	86.1
214.053	81.28
214.271	83.92
214.488	92.42
214.705	86.2
214.923	72.15
215.14	71.74
215.358	71.11
215.575	78.22
215.793	97.12
216.01	97.84
216.227	109.96
216.445	101.93
216.662	96.51
216.879	97.27
217.097	96.53
217.314	104.14
217.531	110.42
217.749	117.42
217.966	127.89
218.183	114.58
218.4	107.79
218.618	91.75
218.835	101.52
219.052	98.01
219.269	92.84
219.487	93.23
219.704	82.91
219.921	64.59
220.138	45.92
220.355	33.51
220.572	39.6
220.79	46.18
221.007	49.81
221.224	46.57
221.441	36.17
221.658	35.35
221.875	40.52
222.092	39.81
222.309	40.69
222.526	47.2
222.743	48.74
222.96	47.75
223.177	51.73
223.394	42.3
223.611	43.58
223.828	49.99
224.045	47.32
224.262	42.85
224.479	41.07
224.696	38.09
224.913	34.77
225.13	35.73
225.347	29.9
225.564	27.8
225.781	28.87
225.997	27.64
226.214	26.45
226.431	22.91
226.648	21.94
226.865	21.61
227.082	22.67
227.298	23.28
227.515	23.31
227.732	22.81
227.949	23.04
228.165	23.2
228.382	22.68
228.599	21.66
228.816	22.72
229.032	23.81
229.249	23.17
229.466	22.49
229.682	22.82
229.899	22.43
230.116	23.75
230.332	23.4
230.549	22.73
230.765	24.4
230.982	24.37
231.199	27.05
231.415	26.76
231.632	29.18
231.848	30.05
232.065	28.52
232.281	26.42
232.498	27.18
232.714	25.86
232.931	28.46
233.147	27.35
233.364	26.08
233.58	27.79
233.797	28.1
234.013	25.21
234.23	24.19
234.446	24.28
234.662	24.81
234.879	23.27
235.095	24.02
235.312	22.14
235.528	22.89
235.744	23.5
235.961	20.2
236.177	18.92
236.393	21.94
236.61	22.17
236.826	21.08
237.042	23
237.258	24.36
237.475	24.39
237.691	25.03
237.907	23.5
238.123	24.2
238.339	24.07
238.556	24.99
238.772	24.26
238.988	23.84
239.204	23.42
239.42	21.97
239.636	21.83
239.853	21.3
240.069	19.61
240.285	19.14
240.501	18.59
240.717	18.14
240.933	17.7
241.149	16.76
241.365	17.26
241.581	17.62
241.797	17.55
242.013	17.24
242.229	16.72
242.445	16.97
242.661	16.88
242.877	17.29
243.093	16.78
243.309	16.22
243.525	16.36
243.741	15.17
243.957	14.51
244.173	13.93
244.388	13.59
244.604	13.78
244.82	13.71
245.036	13.47
245.252	12.92
245.468	12.72
245.683	13
245.899	13.06
246.115	12.99
246.331	12.84
246.547	12.7
246.762	12.28
246.978	12.09
247.194	12.52
247.409	12.72
247.625	12.8
247.841	13.42
248.057	13.03
248.272	13.09
248.488	13.52
248.703	13.97
248.919	14.4
249.135	15.15
249.35	15.61
249.566	15.39
249.782	14.89
249.997	14.95
250.213	14.08
250.428	13.94
250.644	13.31
250.859	13.26
251.075	12.88
251.29	13.54
251.506	13.28
251.721	12.95
251.937	13.16
252.152	14.26
252.368	14.77
252.583	16.31
252.798	17.22
253.014	17.87
253.229	18.1
253.445	18.65
253.66	18.3
253.875	18.83
254.091	19.51
254.306	18.22
254.521	17.79
254.737	16.25
254.952	14.68
255.167	13.71
255.383	13.2
255.598	12.59
255.813	12
256.028	11.76
256.244	11.04
256.459	10.08
256.674	9.87
256.889	9.46
257.104	9.65
257.32	10.21
257.535	9.82
257.75	9.7
257.965	9.68
258.18	9.57
258.395	9.76
258.61	9.83
258.826	10.2
259.041	10.54
259.256	10.6
259.471	10.78
259.686	10.41
259.901	10.9
260.116	11.44
260.331	11.83
260.546	11.99
260.761	11.61
260.976	11.38
261.191	11.09
261.406	10.83
261.621	11.18
261.836	11.58
262.05	11.52
262.265	11.36
262.48	10.92
262.695	9.66
262.91	10.84
263.125	11.07
263.34	12.02
263.555	12.21
263.769	11.93
263.984	11.33
264.199	11.76
264.414	11.73
264.629	11.42
264.843	11.38
265.058	11.82
265.273	10.79
265.488	10.69
265.702	10.98
265.917	10.89
266.132	11.07
266.346	11.47
266.561	11.3
266.776	11.8
266.99	12.01
267.205	11.6
267.42	11.09
267.634	11.54
267.849	11.6
268.063	11.72
268.278	12.26
268.492	12.51
268.707	11.78
268.922	11.07
269.136	10.58
269.351	10.62
269.565	11.06
269.78	11.45
269.994	11.42
270.209	11.15
270.423	10.5
270.637	9.94
270.852	9.54
271.066	9.96
271.281	10.15
271.495	9.98
271.709	10
271.924	9.5
272.138	9.16
272.353	8.9
272.567	9.11
272.781	9.06
272.996	9.15
273.21	9.42
273.424	8.9
273.638	8.86
273.853	9.11
274.067	9.06
274.281	9.6
274.495	10.11
274.71	10.18
274.924	9.37
275.138	9.48
275.352	9.57
275.566	9.54
275.781	9.93
275.995	10.5
276.209	10.45
276.423	10.12
276.637	9.74
276.851	9.51
277.065	9.6
277.279	10.64
277.493	10.9
277.707	10.98
277.921	10.84
278.135	10.52
278.349	9.6
278.563	9.99
278.777	9.95
278.991	9.89
279.205	10.06
279.419	9.97
279.633	9.9
279.847	9.84
280.061	9.67
280.275	9.9
280.489	10.08
280.703	10.01
280.917	9.98
281.131	10.24
281.344	10.23
281.558	10.08
281.772	10.3
281.986	10.11
282.2	9.65
282.414	9.32
282.627	8.89
282.841	8.52
283.055	8.75
283.269	8.75
283.482	9.03
283.696	8.9
283.91	8.79
284.123	8.36
284.337	8.13
284.551	8.17
284.764	8.47
284.978	8.69
285.192	8.77
285.405	8.76
285.619	8.75
285.833	8.13
286.046	8.08
286.26	8.43
286.473	8.67
286.687	9.13
286.9	9.31
287.114	9.21
287.327	9.11
287.541	8.74
287.754	8.71
287.968	8.26
288.181	8.35
288.395	8.57
288.608	8.5
288.822	8.45
289.035	7.7
289.248	8.23
289.462	8.19
289.675	8.07
289.889	8.79
290.102	8.7
290.315	9.01
290.529	9.33
290.742	9.3
290.955	9.26
291.169	8.91
291.382	10.1
291.595	9.84
291.808	9.86
292.022	10
292.235	9.48
292.448	9.76
292.661	9.8
292.875	9.75
293.088	9.82
293.301	9.88
293.514	9.94
293.727	9.37
293.94	9.26
294.153	9.58
294.367	9.36
294.58	9.4
294.793	9.19
295.006	9.32
295.219	9.52
295.432	9.28
295.645	9.41
295.858	9.6
296.071	9.25
296.284	9.03
296.497	8.6
296.71	8.72
296.923	8.95
297.136	8.99
297.349	8.98
297.562	8.76
297.775	9.19
297.988	9.14
298.201	8.95
298.414	9.27
298.626	9.6
298.839	9.96
299.052	9.82
299.265	9.38
299.478	9.51
299.691	9.73
299.903	9.43
300.116	9.23
300.329	8.43
300.542	8.65
300.755	8.98
300.967	8.97
301.18	9.2
301.393	9.43
301.605	9.47
301.818	9.25
302.031	8.64
302.243	8.96
302.456	9.05
302.669	9.25
302.881	9.55
303.094	9.06
303.307	9.11
303.519	8.76
303.732	9.07
303.944	9.71
304.157	9.72
304.37	10.21
304.582	10.33
304.795	10.08
305.007	10.69
305.22	10.55
305.432	10.51
305.645	10.18
305.857	10.38
306.069	10.48
306.282	10.44
306.494	10.61
306.707	10.78
306.919	10.44
307.132	10.57
307.344	10.52
307.556	10.71
307.769	11.09
307.981	11.24
308.193	11.2
308.406	10.52
308.618	10.68
308.83	10.59
309.043	9.71
309.255	9.67
309.467	9.59
309.679	9.06
309.892	8.82
310.104	8.68
310.316	8.45
310.528	8.57
310.74	8.71
310.953	8.16
311.165	7.61
311.377	8.03
311.589	8.03
311.801	8.51
312.013	8.84
312.225	8.77
312.437	8.87
312.649	9.11
312.862	8.58
313.074	8.92
313.286	9.26
313.498	10.15
313.71	10.6
313.922	10.78
314.134	9.68
314.346	9.79
314.558	9.91
314.77	10.37
314.982	10.49
315.193	10.84
315.405	10.31
315.617	10.28
315.829	10.43
316.041	10.12
316.253	10.11
316.465	11.08
316.677	11.42
316.888	11.41
317.1	11.03
317.312	11.12
317.524	11.09
317.736	12.03
317.947	12.18
318.159	12.14
318.371	12.01
318.583	12.37
318.794	11.74
319.006	11.44
319.218	11.4
319.43	11.59
319.641	11.68
319.853	11.97
320.064	11.21
320.276	11.2
320.488	10.99
320.699	11.61
320.911	11.48
321.123	12.36
321.334	12.46
321.546	12.79
321.757	12.22
321.969	12.44
322.18	12.01
322.392	12.34
322.603	12.43
322.815	12.78
323.026	12.54
323.238	12.55
323.449	12.15
323.661	12.01
323.872	11.82
324.083	12.66
324.295	12.74
324.506	12.69
324.718	12.57
324.929	12.94
325.14	13
325.352	12.67
325.563	12.27
325.774	12.14
325.986	12.47
326.197	12.17
326.408	11.73
326.62	10.99
326.831	11.22
327.042	11.33
327.253	10.83
327.464	10.4
327.676	10.91
327.887	11.04
328.098	11.07
328.309	11.08
328.52	11.24
328.732	11.13
328.943	11.81
329.154	11.4
329.365	11.34
329.576	11.21
329.787	11.76
329.998	11.71
330.209	12.17
330.42	12.29
330.631	12.54
330.842	12.99
331.053	13
331.264	12.66
331.475	12.98
331.686	13.24
331.897	13.08
332.108	12.79
332.319	12.59
332.53	12.53
332.741	12.47
332.952	12.03
333.163	11.53
333.374	11.74
333.585	12
333.795	12.18
334.006	11.96
334.217	12.42
334.428	12.49
334.639	12.69
334.849	12.4
335.06	12.17
335.271	12.36
335.482	12.18
335.692	12.15
335.903	11.72
336.114	11.48
336.325	11.65
336.535	11.65
336.746	11.56
336.957	11.2
337.167	11.46
337.378	11.98
337.589	11.66
337.799	11.95
338.01	12.24
338.22	12.72
338.431	12.74
338.642	12.42
338.852	12.38
339.063	12.51
339.273	12.53
339.484	12.46
339.694	11.91
339.905	12.19
340.115	12.66
340.326	12.38
340.536	12.29
340.746	12.31
340.957	12.13
341.167	11.92
341.378	11.58
341.588	11.78
341.799	11.85
342.009	12.17
342.219	12.16
342.43	11.96
342.64	11.7
342.85	11.7
343.061	11.55
343.271	11.89
343.481	11.76
343.691	11.43
343.902	11.09
344.112	10.56
344.322	10.67
344.532	10.33
344.743	9.78
344.953	9.92
345.163	9.91
345.373	9.84
345.583	9.42
345.793	9.61
346.004	10.23
346.214	10.34
346.424	10.8
346.634	10.62
346.844	10.9
347.054	11.22
347.264	11.45
347.474	11.59
347.684	11.6
347.894	11.6
348.104	11.18
348.314	11.06
348.524	11.02
348.734	10.99
348.944	10.91
349.154	10.76
349.364	10.53
349.574	9.86
349.784	9.52
349.994	9.52
350.204	10.22
350.413	11.13
350.623	10.98
350.833	11.24
351.043	11.03
351.253	10.85
351.463	10.68
351.672	10.38
351.882	11
352.092	11.13
352.302	11.47
352.511	10.96
352.721	10.36
352.931	10.16
353.141	9.95
353.35	10.42
353.56	10.48
353.77	10.75
353.979	11.21
354.189	10.79
354.399	10.69
354.608	10.15
354.818	10.29
355.027	10.48
355.237	10.39
355.447	10.29
355.656	9.83
355.866	9.94
356.075	9.92
356.285	9.86
356.494	10.08
356.704	9.87
356.913	9.75
357.123	9.66
357.332	9.39
357.542	9.67
357.751	9.66
357.96	9.5
358.17	9.36
358.379	9.09
358.589	9.1
358.798	9
359.007	8.75
359.217	8.9
359.426	8.78
359.635	8.87
359.845	8.73
360.054	8.94
360.263	9.07
360.472	9.12
360.682	9.18
360.891	9.07
361.1	9.26
361.309	9.52
361.519	9.78
361.728	9.87
361.937	9.91
362.146	10.05
362.355	9.81
362.564	9.99
362.774	10
362.983	9.97
363.192	10.04
363.401	9.64
363.61	9.51
363.819	9.55
364.028	9.31
364.237	9.24
364.446	8.94
364.655	8.99
364.864	8.86
365.073	8.86
365.282	8.94
365.491	8.9
365.7	9.14
365.909	9.09
366.118	8.98
366.327	9.1
366.536	9.31
366.745	9.51
366.954	9.38
367.162	9.24
367.371	9.2
367.58	9.27
367.789	9.13
367.998	9
368.207	9.28
368.415	9.18
368.624	9.35
368.833	9.08
369.042	8.79
369.25	9.16
369.459	9.58
369.668	9.45
369.877	9.2
370.085	9.2
370.294	9.19
370.503	8.72
370.711	9.08
370.92	8.96
371.129	8.97
371.337	9.27
371.546	8.92
371.754	8.59
371.963	8.61
372.171	8.61
372.38	8.57
372.589	8.7
372.797	9.23
373.006	8.53
373.214	8.67
373.423	8.56
373.631	8.41
373.84	8.46
374.048	8.54
374.256	8.46
374.465	8.7
374.673	8.89
374.882	8.62
375.09	8.4
375.298	8.5
375.507	8.34
375.715	8.44
375.923	8.55
376.132	8.59
376.34	8.31
376.548	8.62
376.757	8.6
376.965	8.75
377.173	8.72
377.381	8.71
377.59	8.78
377.798	8.73
378.006	8.76
378.214	8.69
378.423	8.46
378.631	8.65
378.839	8.29
379.047	8.21
379.255	7.81
379.463	7.77
379.671	7.48
379.879	7.56
380.088	7.59
380.296	7.4
380.504	7.54
380.712	7.81
380.92	7.61
381.128	8.02
381.336	7.94
381.544	7.98
381.752	7.87
381.96	8.06
382.168	7.88
382.376	7.98
382.584	8.18
382.791	8.1
382.999	7.96
383.207	7.72
383.415	7.4
383.623	7.58
383.831	7.56
384.039	7.66
384.247	7.86
384.454	7.88
384.662	7.74
384.87	7.51
385.078	7.52
385.285	7.4
385.493	7.6
385.701	7.57
385.909	7.33
386.116	7.35
386.324	7.36
386.532	6.87
386.739	6.88
386.947	7.03
387.155	7.3
387.362	7.12
387.57	7.15
387.778	7.2
387.985	7.04
388.193	7.11
388.4	7.01
388.608	7.13
388.816	7.16
389.023	7.24
389.231	6.91
389.438	6.6
389.646	6.57
389.853	6.54
390.061	6.29
390.268	6.51
390.475	6.49
390.683	6.44
390.89	6.34
391.098	6.42
391.305	6.46
391.512	6.36
391.72	6.48
391.927	6.43
392.135	6.36
392.342	6.58
392.549	6.55
392.756	6.53
392.964	6.62
393.171	6.58
393.378	6.58
393.586	6.64
393.793	6.72
394	6.47
394.207	6.43
394.414	6.34
394.622	6.36
394.829	6.29
395.036	6.05
395.243	6.29
395.45	6.39
395.657	6.55
395.864	6.28
396.072	6.43
396.279	6.58
396.486	6.59
396.693	6.75
396.9	6.7
397.107	6.57
397.314	6.99
397.521	6.78
397.728	6.69
397.935	6.92
398.142	7.01
398.349	7.01
398.556	7.16
398.763	7.23
398.97	7.32
399.177	7.29
399.383	7.42
399.59	7.16
399.797	7.08
400.004	7.25
400.211	6.88
400.418	6.94
400.625	6.84
400.831	6.67
401.038	6.59
401.245	6.57
401.452	6.6
401.658	6.52
401.865	6.49
402.072	6.56
402.279	6.39
402.485	6.42
402.692	6.52
402.899	6.55
403.105	6.61
403.312	6.54
403.519	6.59
403.725	6.52
403.932	6.64
404.138	6.66
404.345	6.6
404.552	6.57
404.758	6.68
404.965	6.48
405.171	6.58
405.378	6.62
405.584	6.62
405.791	6.44
405.997	6.5
406.204	6.56
406.41	6.66
406.617	6.63
406.823	6.79
407.029	6.74
407.236	6.87
407.442	6.78
407.649	6.9
407.855	6.88
408.061	6.85
408.268	6.77
408.474	6.45
408.68	6.29
408.887	6.48
409.093	6.55
409.299	6.59
409.505	6.38
409.712	6.4
409.918	6.03
410.124	6.19
410.33	6.11
410.537	6.22
410.743	6.43
410.949	6.43
411.155	6.29
411.361	6.09
411.567	6.13
411.773	6.17
411.98	6.21
412.186	6.4
412.392	6.31
412.598	6.52
412.804	6.35
413.01	6.2
413.216	6.3
413.422	6.28
413.628	6.23
413.834	5.98
414.04	5.84
414.246	5.74
414.452	5.86
414.658	6
414.864	5.85
415.07	5.86
415.275	5.87
415.481	5.77
415.687	5.68
415.893	5.73
416.099	5.77
416.305	5.83
416.511	6.04
416.716	5.94
416.922	5.92
417.128	6.07
417.334	6.13
417.539	6.03
417.745	6.07
417.951	6.14
418.157	6.21
418.362	6.18
418.568	6.14
418.774	5.97
418.979	6.03
419.185	5.99
419.391	5.78
419.596	5.78
419.802	5.84
420.008	5.9
420.213	6.51
420.419	6.44
420.624	6.43
420.83	6.4
421.035	6.38
421.241	6.32
421.446	6.24
421.652	6.41
421.857	6.31
422.063	6.3
422.268	6.17
422.474	5.53
422.679	5.57
422.885	5.55
423.09	5.56
423.295	5.56
423.501	5.48
423.706	5.5
423.911	5.46
424.117	5.65
424.322	5.68
424.527	5.76
424.733	5.75
424.938	5.71
425.143	5.87
425.349	5.99
425.554	6.05
425.759	6.19
425.964	6.25
426.169	6.21
426.375	5.97
426.58	6.02
426.785	6
426.99	6.12
427.195	6.2
427.4	6.04
427.605	6.04
427.811	5.95
428.016	5.91
428.221	5.93
428.426	5.86
428.631	6.02
428.836	5.93
429.041	5.88
429.246	5.7
429.451	5.65
429.656	5.67
429.861	5.64
430.066	5.75
430.271	5.81
430.476	5.78
430.681	5.86
430.886	5.78
431.09	5.86
431.295	5.83
431.5	5.94
431.705	5.82
431.91	5.91
432.115	5.89
432.32	5.89
432.524	5.79
432.729	5.88
432.934	5.88
433.139	5.94
433.343	5.93
433.548	6.01
433.753	6
433.958	6.07
434.162	6.1
434.367	6.1
434.572	6.14
434.776	6.14
434.981	6
435.186	5.91
435.39	5.86
435.595	5.97
435.799	5.84
436.004	5.78
436.209	5.67
436.413	5.59
436.618	5.52
436.822	5.39
437.027	5.44
437.231	5.51
437.436	5.54
437.64	5.59
437.845	5.5
438.049	5.66
438.253	5.71
438.458	5.74
438.662	5.83
438.867	5.84
439.071	5.98
439.275	5.98
439.48	5.91
439.684	5.92
439.888	5.84
440.093	5.89
440.297	5.8
440.501	5.73
440.706	5.81
440.91	5.84
441.114	5.87
441.318	5.78
441.523	5.77
441.727	5.93
441.931	6.03
442.135	6.02
442.339	5.89
442.543	5.95
442.748	5.97
442.952	5.85
443.156	5.72
443.36	5.67
443.564	5.73
443.768	5.73
443.972	5.66
444.176	5.66
444.38	5.68
444.584	5.65
444.788	5.59
444.992	5.62
445.196	5.67
445.4	5.73
445.604	5.7
445.808	5.7
446.012	5.68
446.216	5.64
446.42	5.6
446.624	5.65
446.828	5.72
447.032	5.71
447.235	5.66
447.439	5.63
447.643	5.6
447.847	5.74
448.051	5.72
448.254	5.77
448.458	5.82
448.662	5.85
448.866	5.82
449.069	5.87
449.273	5.83
449.477	5.86
449.681	5.9
449.884	5.95
450.088	5.99
450.292	5.95
450.495	5.84
450.699	5.91
450.902	5.89
451.106	5.86
451.31	5.77
451.513	5.87
451.717	5.91
451.92	5.86
452.124	5.7
452.327	5.6
452.531	5.62
452.734	5.69
452.938	5.59
453.141	5.59
453.345	5.62
453.548	5.58
453.752	5.71
453.955	5.78
454.158	5.61
454.362	5.73
454.565	5.77
454.769	5.78
454.972	5.92
455.175	6
455.379	5.96
455.582	6.01
455.785	6.1
455.988	5.89
456.192	5.76
456.395	5.98
456.598	5.94
456.801	5.93
457.005	5.83
457.208	5.7
457.411	5.63
457.614	5.46
457.817	5.41
458.021	5.34
458.224	5.43
458.427	5.38
458.63	5.39
458.833	5.42
459.036	5.43
459.239	5.48
459.442	5.45
459.645	5.46
459.848	5.59
460.051	5.58
460.254	5.75
460.457	5.72
460.66	5.86
460.863	5.92
461.066	5.9
461.269	5.78
461.472	5.88
461.675	5.88
461.878	5.92
462.081	6.05
462.284	6.11
462.486	5.98
462.689	5.92
462.892	5.86
463.095	5.79
463.298	5.87
463.5	6
463.703	5.92
463.906	5.93
464.109	5.82
464.311	5.78
464.514	5.8
464.717	5.98
464.92	5.99
465.122	6.01
465.325	5.98
465.528	5.97
465.73	5.95
465.933	5.97
466.135	6.03
466.338	6.07
466.541	6.04
466.743	5.95
466.946	5.8
467.148	5.8
467.351	5.72
467.553	5.69
467.756	5.64
467.958	5.64
468.161	5.74
468.363	5.65
468.566	5.73
468.768	5.68
468.971	5.72
469.173	5.76
469.375	5.76
469.578	5.71
469.78	5.78
469.983	5.84
470.185	5.84
470.387	5.69
470.59	5.81
470.792	5.72
470.994	5.75
471.196	5.69
471.399	5.64
471.601	5.76
471.803	5.91
472.005	6.02
472.208	6.03
472.41	5.96
472.612	5.92
472.814	5.88
473.016	5.98
473.218	6.07
473.421	6.17
473.623	6.19
473.825	6.03
474.027	5.93
474.229	5.78
474.431	5.66
474.633	5.65
474.835	5.68
475.037	5.6
475.239	5.49
475.441	5.44
475.643	5.38
475.845	5.41
476.047	5.44
476.249	5.48
476.451	5.39
476.653	5.49
476.855	5.48
477.057	5.45
477.258	5.44
477.46	5.41
477.662	5.38
477.864	5.32
478.066	5.21
478.268	5.21
478.469	5.24
478.671	5.25
478.873	5.2
479.075	5.21
479.276	5.24
479.478	5.28
479.68	5.38
479.882	5.36
480.083	5.35
480.285	5.41
480.487	5.39
480.688	5.31
480.89	5.37
481.091	5.3
481.293	5.28
481.495	5.24
481.696	5.23
481.898	5.22
482.099	5.23
482.301	5.28
482.502	5.3
482.704	5.31
482.905	5.35
483.107	5.36
483.308	5.42
483.51	5.46
483.711	5.51
483.913	5.52
484.114	5.52
484.315	5.52
484.517	5.48
484.718	5.42
484.92	5.39
485.121	5.35
485.322	5.33
485.524	5.27
485.725	5.25
485.926	5.2
486.127	5.25
486.329	5.28
486.53	5.3
486.731	5.34
486.932	5.4
487.134	5.44
487.335	5.45
487.536	5.47
487.737	5.54
487.938	5.59
488.139	5.62
488.341	5.55
488.542	5.52
488.743	5.52
488.944	5.48
489.145	5.45
489.346	5.46
489.547	5.48
489.748	5.39
489.949	5.36
490.15	5.35
490.351	5.39
490.552	5.46
490.753	5.5
490.954	5.51
491.155	5.51
491.356	5.53
491.557	5.57
491.758	5.6
491.959	5.73
492.159	5.74
492.36	5.78
492.561	5.79
492.762	5.76
492.963	5.72
493.164	5.68
493.364	5.72
493.565	5.7
493.766	5.65
493.967	5.59
494.167	5.5
494.368	5.46
494.569	5.43
494.769	5.45
494.97	5.53
495.171	5.57
495.371	5.65
495.572	5.7
495.773	5.77
495.973	5.79
496.174	5.89
496.375	5.96
496.575	5.98
496.776	5.96
496.976	5.97
497.177	5.96
497.377	6.03
497.578	6
497.778	6.04
497.979	6.02
498.179	5.98
498.38	5.89
498.58	5.88
498.78	5.94
498.981	6.03
499.181	6.04
499.382	6.1
499.582	6.07
499.782	6.17
499.983	6.14
500.183	6.21
500.383	6.3
500.584	6.28
500.784	6.25
500.984	6.21
501.184	6.12
501.385	6.09
501.585	6.09
501.785	6.03
501.985	5.95
502.185	5.97
502.386	5.95
502.586	5.89
502.786	6.06
502.986	6.09
503.186	6.1
503.386	6.12
503.586	6.23
503.786	6.22
503.987	6.33
504.187	6.36
504.387	6.37
504.587	6.33
504.787	6.37
504.987	6.33
505.187	6.37
505.387	6.44
505.587	6.52
505.786	6.41
505.986	6.46
506.186	6.4
506.386	6.45
506.586	6.42
506.786	6.46
506.986	6.55
507.186	6.56
507.386	6.62
507.585	6.65
507.785	6.67
507.985	6.76
508.185	6.74
508.384	6.87
508.584	6.87
508.784	6.92
508.984	6.96
509.183	6.92
509.383	6.94
509.583	7.04
509.782	6.96
509.982	6.96
510.182	6.97
510.381	7.02
510.581	6.97
510.781	7.04
510.98	7.03
511.18	7.05
511.379	7.12
511.579	7.11
511.778	6.99
511.978	6.97
512.177	7.05
512.377	7.12
512.576	7.09
512.776	7.08
512.975	7.09
513.175	7.05
513.374	7.11
513.573	7.16
513.773	7.21
513.972	7.25
514.172	7.42
514.371	7.38
514.57	7.34
514.77	7.31
514.969	7.33
515.168	7.32
515.367	7.38
515.567	7.33
515.766	7.25
515.965	7.26
516.164	7.25
516.364	7.26
516.563	7.2
516.762	7.19
516.961	7.28
517.16	7.26
517.359	7.24
517.559	7.27
517.758	7.32
517.957	7.39
518.156	7.35
518.355	7.43
518.554	7.45
518.753	7.57
518.952	7.58
519.151	7.56
519.35	7.66
519.549	7.71
519.748	7.72
519.947	7.76
520.146	7.69
520.345	7.81
520.544	7.81
520.743	7.86
520.942	7.85
521.141	7.97
521.339	8.07
521.538	8.04
521.737	8.04
521.936	8.11
522.135	8.1
522.333	8.16
522.532	8.15
522.731	8.15
522.93	8.15
523.129	8.2
523.327	8.17
523.526	8.11
523.725	8.18
523.923	8.2
524.122	8.25
524.321	8.25
524.519	8.31
524.718	8.33
524.917	8.35
525.115	8.32
525.314	8.25
525.512	8.22
525.711	8.23
525.909	8.24
526.108	8.26
526.306	8.25
526.505	8.22
526.703	8.23
526.902	8.19
527.1	8.17
527.299	8.2
527.497	8.25
527.696	8.32
527.894	8.36
528.092	8.39
528.291	8.41
528.489	8.45
528.688	8.49
528.886	8.52
529.084	8.55
529.283	8.6
529.481	8.64
529.679	8.68
529.877	8.69
530.076	8.67
530.274	8.67
530.472	8.71
530.67	8.68
530.869	8.65
531.067	8.67
531.265	8.68
531.463	8.74
531.661	8.74
531.859	8.76
532.057	8.74
532.255	8.78
532.454	8.78
532.652	8.8
532.85	8.88
533.048	8.95
533.246	8.95
533.444	9.02
533.642	8.99
533.84	8.99
534.038	9
534.236	9.01
534.434	8.99
534.632	9.02
534.83	9.07
535.027	9.04
535.225	9.03
535.423	9.12
535.621	9.16
535.819	9.21
536.017	9.17
536.215	9.18
536.412	9.32
536.61	9.43
536.808	9.45
537.006	9.44
537.203	9.49
537.401	9.6
537.599	9.61
537.797	9.65
537.994	9.69
538.192	9.81
538.39	9.85
538.587	9.78
538.785	9.73
538.983	9.73
539.18	9.72
539.378	9.68
539.575	9.75
539.773	9.77
539.97	9.76
540.168	9.82
540.366	9.84
540.563	9.84
540.761	9.89
540.958	9.98
541.155	10.05
541.353	10.09
541.55	10.14
541.748	10.08
541.945	10.09
542.143	10.12
542.34	10.16
542.537	10.19
542.735	10.19
542.932	10.28
543.129	10.25
543.327	10.25
543.524	10.31
543.721	10.38
543.919	10.48
544.116	10.49
544.313	10.54
544.51	10.46
544.708	10.49
544.905	10.57
545.102	10.52
545.299	10.54
545.496	10.58
545.693	10.56
545.891	10.58
546.088	10.53
546.285	10.63
546.482	10.68
546.679	10.8
546.876	10.89
547.073	10.92
547.27	10.88
547.467	11
547.664	11.09
547.861	11.2
548.058	11.23
548.255	11.34
548.452	11.4
548.649	11.42
548.846	11.53
549.043	11.58
549.24	11.63
549.437	11.88
549.633	11.84
549.83	11.89
550.027	11.94
550.224	12.06
550.421	12.17
550.618	12.13
550.814	12.2
551.011	12.11
551.208	12.12
551.405	12.29
551.601	12.29
551.798	12.45
551.995	12.39
552.191	12.34
552.388	12.24
552.585	12.24
552.781	12.41
552.978	12.49
553.175	12.64
553.371	12.67
553.568	12.53
553.764	12.64
553.961	12.56
554.157	12.72
554.354	12.88
554.55	13.02
554.747	13.1
554.943	13.05
555.14	12.97
555.336	12.97
555.533	13.08
555.729	13.24
555.926	13.19
556.122	13.26
556.318	13.25
556.515	13.26
556.711	13.31
556.907	13.34
557.104	13.36
557.3	13.58
557.496	13.52
557.693	13.62
557.889	13.66
558.085	13.55
558.281	13.61
558.478	13.59
558.674	13.75
558.87	13.81
559.066	13.92
559.262	14.06
559.459	13.97
559.655	14.2
559.851	14.21
560.047	14.24
560.243	14.44
560.439	14.58
560.635	14.77
560.831	14.76
561.027	14.87
561.223	14.83
561.419	14.93
561.615	15.16
561.811	15.31
562.007	15.35
562.203	15.51
562.399	15.53
562.595	15.5
562.791	15.68
562.987	15.82
563.183	15.9
563.379	15.92
563.575	15.92
563.771	15.96
563.966	15.93
564.162	16.09
564.358	16.19
564.554	16.21
564.75	16.36
564.945	16.4
565.141	16.46
565.337	16.51
565.533	16.64
565.728	16.71
565.924	16.67
566.12	16.81
566.315	16.86
566.511	16.74
566.707	16.88
566.902	16.89
567.098	16.92
567.293	16.99
567.489	17.08
567.684	17.18
567.88	17.3
568.076	17.5
568.271	17.52
568.467	17.56
568.662	17.74
568.858	17.88
569.053	17.92
569.248	17.99
569.444	17.96
569.639	18.02
569.835	18.12
570.03	18.28
570.225	18.25
570.421	18.27
570.616	18.3
570.812	18.43
571.007	18.46
571.202	18.6
571.397	18.72
571.593	18.85
571.788	18.88
571.983	18.88
572.178	18.9
572.374	19.05
572.569	19.12
572.764	19.19
572.959	19.2
573.154	19.27
573.35	19.3
573.545	19.32
573.74	19.34
573.935	19.41
574.13	19.51
574.325	19.5
574.52	19.49
574.715	19.51
574.91	19.63
575.105	19.75
575.3	19.84
575.495	19.9
575.69	19.89
575.885	20.02
576.08	20.2
576.275	20.33
576.47	20.4
576.665	20.44
576.86	20.59
577.055	20.53
577.25	20.7
577.444	20.83
577.639	20.84
577.834	20.76
578.029	20.71
578.224	20.59
578.418	20.64
578.613	20.74
578.808	20.96
579.003	21.09
579.197	21.2
579.392	21.13
579.587	21.2
579.781	21.44
579.976	21.74
580.171	21.91
580.365	22
580.56	22.05
580.755	22.11
580.949	22.11
581.144	22.1
581.338	22.1
581.533	22.21
581.727	22.18
581.922	22.11
582.116	22.18
582.311	22.18
582.505	22.35
582.7	22.36
582.894	22.49
583.089	22.43
583.283	22.49
583.478	22.67
583.672	22.58
583.866	22.47
584.061	22.63
584.255	22.64
584.449	22.72
584.644	22.79
584.838	22.9
585.032	22.76
585.226	22.89
585.421	22.94
585.615	22.89
585.809	23.04
586.003	23.31
586.198	23.19
586.392	23.25
586.586	23.42
586.78	23.44
586.974	23.47
587.168	23.55
587.363	23.51
587.557	23.56
587.751	23.71
587.945	23.69
588.139	23.59
588.333	23.81
588.527	23.94
588.721	23.97
588.915	24
589.109	23.94
589.303	24.18
589.497	24.26
589.691	24.24
589.885	24.32
590.079	24.2
590.273	24.41
590.466	24.37
590.66	24.35
590.854	24.31
591.048	24.39
591.242	24.54
591.436	24.45
591.629	24.46
591.823	24.46
592.017	24.38
592.211	24.65
592.404	24.61
592.598	24.71
592.792	24.65
592.986	24.66
593.179	24.56
593.373	24.69
593.567	24.75
593.76	24.76
593.954	24.94
594.147	25.04
594.341	25.06
594.535	25.08
594.728	24.98
594.922	24.99
595.115	25.05
595.309	25.04
595.502	24.98
595.696	24.87
595.889	24.92
596.083	25.02
596.276	25.09
596.47	25.16
596.663	25.26
596.856	25.4
597.05	25.48
597.243	25.44
597.437	25.55
597.63	25.58
597.823	25.71
598.017	25.8
598.21	25.67
598.403	25.68
598.596	25.67
598.79	25.74
598.983	25.77
599.176	25.75
599.369	25.78
599.563	25.87
599.756	25.87
599.949	25.87
600.142	25.81
600.335	25.82
600.528	25.71
600.722	25.77
600.915	25.77
601.108	25.82
601.301	26
601.494	25.94
601.687	25.98
601.88	25.92
602.073	25.95
602.266	26.05
602.459	26.07
602.652	26.21
602.845	26.14
603.038	25.9
603.231	25.95
603.424	25.95
603.617	26.13
603.809	26.13
604.002	26.25
604.195	26.29
604.388	26.28
604.581	26.38
604.774	26.35
604.966	26.35
605.159	26.59
605.352	26.51
605.545	26.45
605.737	26.52
605.93	26.56
606.123	26.55
606.316	26.54
606.508	26.74
606.701	26.91
606.894	26.93
607.086	27.08
607.279	26.98
607.471	26.99
607.664	27.01
607.857	27.01
608.049	27.01
608.242	26.96
608.434	27.01
608.627	26.93
608.819	26.78
609.012	26.83
609.204	26.96
609.397	27.15
609.589	27.18
609.782	27.23
609.974	27.16
610.166	27.22
610.359	27.32
610.551	27.47
610.743	27.57
610.936	27.76
611.128	27.82
611.32	27.62
611.513	27.59
611.705	27.6
611.897	27.5
612.09	27.69
612.282	27.6
612.474	27.89
612.666	27.86
612.858	27.9
613.051	27.82
613.243	27.74
613.435	27.74
613.627	27.5
613.819	27.63
614.011	28.08
614.203	27.96
614.395	28.09
614.588	27.8
614.78	27.67
614.972	27.46
615.164	27.41
615.356	27.55
615.548	27.48
615.74	27.68
615.932	27.66
616.124	27.24
616.315	27.58
616.507	27.57
616.699	27.59
616.891	27.94
617.083	28.17
617.275	28.23
617.467	28.11
617.659	28.33
617.85	28.2
618.042	28.1
618.234	28.17
618.426	27.85
618.618	27.89
618.809	27.93
619.001	27.56
619.193	27.61
619.384	27.59
619.576	27.75
619.768	27.58
619.959	27.77
620.151	28.04
620.343	28.04
620.534	28.02
620.726	27.98
620.917	28.1
621.109	28.14
621.301	28.02
621.492	28.13
621.684	28.06
621.875	28.19
622.067	28.1
622.258	27.88
622.45	27.9
622.641	27.91
622.832	28.06
623.024	27.92
623.215	27.98
623.407	28.06
623.598	27.91
623.789	27.91
623.981	27.68
624.172	28.07
624.363	28.05
624.555	28.28
624.746	28.4
624.937	28.25
625.129	28.33
625.32	28.43
625.511	28.55
625.702	28.49
625.893	28.46
626.085	28.77
626.276	28.6
626.467	28.71
626.658	28.47
626.849	28.4
627.04	28.46
627.231	28.53
627.422	28.6
627.614	28.53
627.805	28.66
627.996	28.77
628.187	28.69
628.378	28.69
628.569	28.82
628.76	28.91
628.951	29.07
629.142	29.01
629.332	28.97
629.523	28.96
629.714	28.94
629.905	29.05
630.096	29.02
630.287	29.16
630.478	29.26
630.669	29.21
630.859	29.5
631.05	29.34
631.241	29.49
631.432	29.51
631.623	29.49
631.813	29.36
632.004	29.17
632.195	29.03
632.385	28.99
632.576	29
632.767	28.9
632.957	28.78
633.148	28.79
633.339	28.62
633.529	28.7
633.72	28.76
633.91	28.92
634.101	28.91
634.292	29.26
634.482	29.3
634.673	29.08
634.863	29.22
635.054	29.14
635.244	29.24
635.435	29.34
635.625	29.08
635.815	29.04
636.006	29.11
636.196	29.12
636.387	28.98
636.577	28.93
636.767	29.11
636.958	29.04
637.148	29.25
637.338	29.42
637.529	29.68
637.719	29.98
637.909	29.95
638.099	29.92
638.29	30.2
638.48	30.24
638.67	30.22
638.86	30.29
639.05	30.29
639.241	30.04
639.431	29.91
639.621	29.71
639.811	29.55
640.001	29.42
640.191	29.28
640.381	29.15
640.571	29.24
640.761	29.06
640.951	28.9
641.141	29.07
641.331	29.11
641.521	29.11
641.711	29.19
641.901	29.26
642.091	29.48
642.281	29.61
642.471	29.56
642.661	29.5
642.851	29.95
643.041	30.03
643.231	30.05
643.42	30.3
643.61	30.11
643.8	30
643.99	30.01
644.18	29.97
644.369	29.94
644.559	30.07
644.749	30.12
644.939	29.94
645.128	29.83
645.318	29.75
645.508	29.69
645.697	29.98
645.887	29.92
646.076	29.98
646.266	30.19
646.456	30.25
646.645	30.44
646.835	30.47
647.024	30.47
647.214	30.74
647.403	30.76
647.593	30.7
647.782	30.69
647.972	30.79
648.161	30.95
648.351	30.67
648.54	30.66
648.73	30.42
648.919	30.21
649.108	30.16
649.298	30.22
649.487	30.33
649.677	30.32
649.866	30.33
650.055	30.66
650.244	30.54
650.434	30.88
650.623	31.06
650.812	31.23
651.002	31.52
651.191	31.47
651.38	31.31
651.569	31.39
651.758	31.2
651.947	31.14
652.137	30.84
652.326	31.17
652.515	30.87
652.704	30.7
652.893	30.76
653.082	30.77
653.271	30.8
653.46	30.78
653.649	30.49
653.838	31
654.027	31.15
654.216	31.26
654.405	30.95
654.594	30.98
654.783	30.99
654.972	30.82
655.161	30.89
655.35	31.02
655.539	31.25
655.728	31.37
655.916	31.21
656.105	31.06
656.294	31.1
656.483	31.06
656.672	31.1
656.86	31.19
657.049	31.24
657.238	31.16
657.427	31.2
657.615	31.19
657.804	31.22
657.993	31.12
658.181	31.24
658.37	31.32
658.559	31.25
658.747	31.26
658.936	31.35
659.125	31.02
659.313	30.99
659.502	30.96
659.69	30.86
659.879	30.93
660.067	30.95
660.256	30.95
660.444	31.01
660.633	31.2
660.821	31.3
661.01	31.24
661.198	31.78
661.387	31.89
661.575	31.92
661.763	32.26
661.952	32.15
662.14	32.26
662.328	32.23
662.517	32.22
662.705	32.11
662.893	31.98
663.082	31.83
663.27	31.78
663.458	31.65
663.646	31.55
663.834	31.27
664.023	31.19
664.211	31.24
664.399	31.27
664.587	31.35
664.775	31.54
664.963	31.51
665.152	31.47
665.34	31.58
665.528	31.65
665.716	31.85
665.904	32
666.092	32.08
666.28	32.01
666.468	31.98
666.656	31.76
666.844	31.76
667.032	32.17
667.22	32.44
667.408	32.22
667.596	32.41
667.784	32.22
667.971	31.97
668.159	31.95
668.347	32.05
668.535	32.04
668.723	32.13
668.911	32.11
669.098	31.86
669.286	31.9
669.474	32.13
669.662	32.1
669.849	32.26
670.037	32.69
670.225	33.03
670.413	32.92
670.6	32.91
670.788	32.79
670.976	32.76
671.163	32.34
671.351	32.17
671.538	32.37
671.726	32.27
671.913	32.29
672.101	31.97
672.289	31.71
672.476	31.62
672.664	31.64
672.851	31.73
673.039	31.72
673.226	31.94
673.413	32.03
673.601	31.85
673.788	31.8
673.976	31.77
674.163	31.93
674.35	31.78
674.538	31.82
674.725	31.82
674.912	31.85
675.1	32.02
675.287	32.27
675.474	32.21
675.662	32.07
675.849	32.29
676.036	32.25
676.223	32.01
676.411	32.12
676.598	32.18
676.785	32.39
676.972	32.3
677.159	32.28
677.346	32.31
677.533	32.27
677.721	32.2
677.908	32.12
678.095	32.07
678.282	32.18
678.469	32.14
678.656	32.38
678.843	32.19
679.03	32
679.217	32.03
679.404	32.05
679.591	32.08
679.778	32.02
679.964	31.98
680.151	32
680.338	32.04
680.525	32.53
680.712	32.24
680.899	32.33
681.086	32.69
681.272	32.42
681.459	32.37
681.646	32.42
681.833	32.88
682.02	32.5
682.206	32.64
682.393	32.44
682.58	32.01
682.766	31.98
682.953	32
683.14	31.98
683.326	32.57
683.513	32.66
683.7	32.82
683.886	32.64
684.073	32.84
684.259	32.88
684.446	33.44
684.632	33.41
684.819	33.72
685.005	33.32
685.192	33.33
685.378	33.01
685.565	33.28
685.751	33.38
685.938	33.17
686.124	33.39
686.31	33.25
686.497	33.05
686.683	32.96
686.87	32.65
687.056	32.84
687.242	32.71
687.429	32.63
687.615	32.42
687.801	32.1
687.987	32.4
688.174	32.51
688.36	32.93
688.546	32.96
688.732	33.28
688.918	33.34
689.105	33.47
689.291	33.71
689.477	33.84
689.663	33.87
689.849	34.07
690.035	33.92
690.221	33.72
690.407	33.63
690.593	33.44
690.779	33.52
690.965	33.29
691.151	33.37
691.337	33.33
691.523	33.1
691.709	32.88
691.895	32.97
692.081	32.83
692.267	33.17
692.453	33.06
692.639	33.29
692.825	33.05
693.011	33.95
693.196	34.2
693.382	33.99
693.568	33.81
693.754	33.84
693.94	33.77
694.125	34.31
694.311	34.02
694.497	33.69
694.682	33.7
694.868	33.79
695.054	33.46
695.239	33.3
695.425	33.15
695.611	33.7
695.796	34
695.982	33.88
696.168	33.32
696.353	33.4
696.539	33.43
696.724	33.35
696.91	33.16
697.095	33.22
697.281	33.22
697.466	33.42
697.652	33.44
697.837	33.35
698.023	33.53
698.208	33.64
698.393	33.58
698.579	33.76
698.764	33.61
698.949	33.97
699.135	33.94
699.32	34.01
699.505	33.96
699.691	33.64
699.876	33.27
700.061	33.01
700.246	33.11
700.432	33.15
700.617	33.2
700.802	33.63
700.987	33.67
701.172	33.41
701.358	33.34
701.543	33.47
701.728	33.69
701.913	33.93
702.098	34.25
702.283	34.3
702.468	34.03
702.653	33.85
702.838	33.87
703.023	33.57
703.208	33.56
703.393	33.34
703.578	33.67
703.763	33.89
703.948	34.04
704.133	33.98
704.318	34.08
704.503	34.37
704.688	34.57
704.873	34.08
705.057	34.37
705.242	34.47
705.427	34.4
705.612	33.89
705.797	33.59
705.981	33.74
706.166	33.28
706.351	33.43
706.536	33.54
706.72	33.2
706.905	33.43
707.09	33.13
707.274	33.42
707.459	33.49
707.644	33.64
707.828	33.91
708.013	33.54
708.197	34.12
708.382	34
708.567	33.82
708.751	34.05
708.936	33.93
709.12	34.05
709.305	33.87
709.489	33.86
709.673	33.58
709.858	33.34
710.042	33.7
710.227	33.39
710.411	33.22
710.596	33.2
710.78	33.21
710.964	33.45
711.149	33.65
711.333	33.58
711.517	33.47
711.702	33.64
711.886	33.67
712.07	33.5
712.254	33.47
712.438	33.58
712.623	33.53
712.807	33.06
712.991	32.55
713.175	32.43
713.359	32.68
713.544	32.81
713.728	33.19
713.912	33.37
714.096	33.3
714.28	33.29
714.464	33.07
714.648	33.51
714.832	34.18
715.016	34.57
715.2	34.5
715.384	34.66
715.568	35.01
715.752	34.45
715.936	34.51
716.12	34.76
716.304	35.04
716.488	35.05
716.671	34.7
716.855	34.75
717.039	34.64
717.223	34.49
717.407	34.14
717.59	34.06
717.774	34.39
717.958	34.54
718.142	34.58
718.325	34.37
718.509	35.1
718.693	35.38
718.877	34.98
719.06	35.15
719.244	35.37
719.428	35.11
719.611	35.3
719.795	35.5
719.978	35.24
720.162	34.73
720.345	34.93
720.529	34.58
720.713	34.57
720.896	34.73
721.08	34.38
721.263	34.28
721.446	34.37
721.63	34.08
721.813	33.52
721.997	33.52
722.18	33.75
722.364	33.49
722.547	33
722.73	33.31
722.914	32.97
723.097	32.89
723.28	32.89
723.464	33.34
723.647	33.18
723.83	33.52
724.013	33.79
724.197	33.88
724.38	34.33
724.563	34.73
724.746	34.52
724.929	35.1
725.112	35.71
725.296	35.29
725.479	35.1
725.662	35.1
725.845	35.5
726.028	35.23
726.211	35.18
726.394	35.16
726.577	34.93
726.76	35.05
726.943	34.68
727.126	34.61
727.309	35.41
727.492	35.67
727.675	35.43
727.858	35.25
728.041	35.06
728.224	35.4
728.407	35.07
728.589	35.22
728.772	34.93
728.955	35.23
729.138	34.84
729.321	34.29
729.503	34.47
729.686	35.17
729.869	34.82
730.052	35.24
730.234	35.21
730.417	35.35
730.6	35.32
730.782	35.32
730.965	35.08
731.148	35.77
731.33	36.2
731.513	35.66
731.695	35.14
731.878	35.3
732.061	35.24
732.243	35.18
732.426	35.41
732.608	35.57
732.791	35.33
732.973	35.18
733.156	34.75
733.338	34.66
733.52	34.61
733.703	34.43
733.885	34.47
734.068	34.13
734.25	34.22
734.432	33.31
734.615	33.06
734.797	33.09
734.979	32.99
735.162	32.87
735.344	32.7
735.526	33.1
735.708	33.41
735.891	33.44
736.073	33.39
736.255	33.02
736.437	33.38
736.619	33.83
736.802	34.16
736.984	34.63
737.166	35.09
737.348	34.89
737.53	34.66
737.712	34.4
737.894	34.15
738.076	34.43
738.258	34.22
738.44	33.98
738.622	34.15
738.804	34.4
738.986	34.24
739.168	34.04
739.35	34.55
739.532	34.55
739.714	34.77
739.896	34.86
740.078	34.89
740.259	35.21
740.441	36.07
740.623	35.16
740.805	35.04
740.987	34.87
741.168	34.62
741.35	34.45
741.532	34.35
741.714	34.04
741.895	33.86
742.077	33.72
742.259	33.32
742.44	33.15
742.622	33.67
742.804	33.57
742.985	33.88
743.167	34
743.348	34.01
743.53	34.02
743.711	34.26
743.893	34.9
744.075	35.26
744.256	35.78
744.438	35.86
744.619	35.34
744.8	35.32
744.982	35.27
745.163	35.66
745.345	35.72
745.526	36.2
745.707	36.95
745.889	37.17
746.07	37.06
746.252	37.07
746.433	36.83
746.614	37.77
746.795	38.13
746.977	38.25
747.158	38.16
747.339	37.68
747.52	37.78
747.702	37.03
747.883	36.16
748.064	35.79
748.245	35.32
748.426	35.64
748.607	35.46
748.788	35.17
748.97	35.31
749.151	35.39
749.332	36.17
749.513	36.35
749.694	36.55
749.875	37.34
750.056	37.53
750.237	37.59
750.418	37.49
750.599	37.3
750.78	37.56
750.96	37.13
751.141	37
751.322	36.45
751.503	36.16
751.684	35.61
751.865	35.17
752.046	35.61
752.226	35.17
752.407	34.96
752.588	34.71
752.769	34.74
752.949	35.12
753.13	35.41
753.311	35.48
753.492	35.13
753.672	35.98
753.853	36.4
754.034	35.86
754.214	36.87
754.395	36.6
754.575	36.51
754.756	35.83
754.937	36
755.117	35.37
755.298	35.1
755.478	35.12
755.659	34.78
755.839	35.03
756.02	35.02
756.2	34.75
756.381	34.42
756.561	35.17
756.741	35.41
756.922	34.9
757.102	34.73
757.283	35.19
757.463	35.11
757.643	34.93
757.823	34.51
758.004	35.12
758.184	35.12
758.364	35.57
758.545	35.44
758.725	35.35
758.905	35.24
759.085	35.28
759.265	34.69
759.446	34.76
759.626	35.31
759.806	35.64
759.986	35.17
760.166	35.25
760.346	35.6
760.526	36
760.706	36.61
760.886	36.62
761.066	37.18
761.246	37.51
761.426	37.15
761.606	36.26
761.786	35.8
761.966	35.85
762.146	35.78
762.326	34.92
762.506	34.41
762.686	34.01
762.866	34.35
763.046	34.33
763.225	34.43
763.405	34.61
763.585	35.19
763.765	34.91
763.945	34.51
764.124	34.71
764.304	35.36
764.484	35.48
764.664	35.56
764.843	35.34
765.023	35.47
765.203	35.36
765.382	35.2
765.562	35.22
765.741	35.7
765.921	36.28
766.101	36.68
766.28	37.19
766.46	37.36
766.639	37.34
766.819	37.62
766.998	37.5
767.178	37.18
767.357	37.42
767.537	37.33
767.716	37.21
767.896	36.8
768.075	35.72
768.254	34.87
768.434	34.73
768.613	34.86
768.792	34.4
768.972	34.67
769.151	35.04
769.33	35.59
769.51	35.29
769.689	35.79
769.868	36.86
770.047	38.24
770.226	38.2
770.406	38.08
770.585	38.23
770.764	38.76
770.943	38.07
771.122	38.08
771.301	38.31
771.48	38.96
771.66	38.95
771.839	38.44
772.018	37.17
772.197	36.88
772.376	36.33
772.555	36.36
772.734	36.15
772.913	35.73
773.092	35.67
773.271	35.03
773.449	35.17
773.628	34.98
773.807	34.88
773.986	34.85
774.165	34.82
774.344	35.82
774.523	35.04
774.701	35.03
774.88	35.93
775.059	35.6
775.238	35.36
775.417	35.07
775.595	35.1
775.774	35.34
775.953	35.62
776.131	37.14
776.31	35.78
776.489	36.67
776.667	36.26
776.846	36.23
777.025	36.38
777.203	36.94
777.382	37.21
777.56	36.86
777.739	36.42
777.917	36.85
778.096	35.42
778.274	36.64
778.453	35.8
778.631	36.05
778.81	35.14
778.988	36.24
779.166	36.99
779.345	36.65
779.523	36.02
779.702	36.1
779.88	35.73
780.058	35.99
780.237	35.76
780.415	36.7
780.593	36.77
780.771	36.58
780.95	35.91
781.128	34.16
781.306	34.37
781.484	35.78
781.662	35.14
781.841	34.64
782.019	34.62
782.197	34.38
782.375	33.33
782.553	33.42
782.731	33.81
782.909	33.72
783.087	34.47
783.265	33.27
783.443	32.63
783.621	33.24
783.799	34.19
783.977	34.96
784.155	34.55
784.333	35.9
784.511	35.85
784.689	36
784.867	36.7
785.045	36.31
785.223	37.14
785.4	36.84
785.578	36.21
785.756	36.13
785.934	35.43
786.112	36.59
786.289	35.79
786.467	35.89
786.645	36.14
786.823	34.4
787	34.43
787.178	34.18
787.356	34.47
787.533	35.38
787.711	35.02
787.889	35.78
788.066	35.53
788.244	35.59
788.421	35.12
788.599	35
788.776	35.62
788.954	35.74
789.131	35.59
789.309	35.54
789.486	35.35
789.664	35.72
789.841	35.64
790.019	35
790.196	34.88
790.373	35.2
790.551	35.93
790.728	35.65
790.906	36.37
791.083	35.37
791.26	35.69
791.437	35.58
791.615	35.42
791.792	35.7
791.969	35.38
792.146	35.47
792.324	34.24
792.501	33.34
792.678	35.71
792.855	35.75
793.032	37.18
793.209	38.09
793.387	38.94
793.564	39.29
793.741	38.59
793.918	39.4
794.095	40.1
794.272	41.26
794.449	41.7
794.626	39.78
794.803	38.4
794.98	38.05
795.157	36.64
795.334	36.24
795.511	35.59
795.688	35.34
795.864	34.99
796.041	34.9
796.218	35.85
796.395	36.22
796.572	36.9
796.749	38.64
796.925	39.53
797.102	40.16
797.279	39.79
797.456	40.24
797.632	40.58
797.809	40.29
797.986	39.99
798.162	39.51
798.339	38.38
798.516	37.88
798.692	36.62
798.869	36.68
799.046	36.29
799.222	37.36
799.399	36.94
799.575	36.75
799.752	37.23
799.928	37.61
800.105	37.86
800.281	38.52
800.458	38.57
800.634	37.93
800.811	37.13
800.987	38.31
801.163	37
801.34	37.88
801.516	38.41
801.692	38.19
801.869	37.83
802.045	38.09
802.221	39.1
802.398	38.77
802.574	40.29
802.75	40.33
802.926	38.93
803.103	38.86
803.279	38.39
803.455	37.68
803.631	38.95
803.807	39.45
803.983	38.41
804.16	37.08
804.336	38.29
804.512	38.3
804.688	39.3
804.864	39.97
805.04	40.01
805.216	40.78
805.392	41.49
805.568	40.44
805.744	40.33
805.92	38.97
806.096	39.44
806.272	39.11
806.448	39.49
806.623	39.11
806.799	39.11
806.975	40.08
807.151	39.13
807.327	38.66
807.503	38.75
807.678	39.26
807.854	40.92
808.03	41.55
808.206	41.18
808.381	39.83
808.557	39.63
808.733	40.06
808.908	39.96
809.084	40.86
809.26	40.23
809.435	39.38
809.611	39.85
809.787	39.09
809.962	39.62
810.138	40
810.313	41.23
810.489	40.85
810.664	40.21
810.84	39.01
811.015	37.83
811.191	38.24
811.366	39.35
811.542	38.64
811.717	39.15
811.892	38.35
812.068	38.17
812.243	37.31
812.419	38.04
812.594	38.37
812.769	39.67
812.944	39.95
813.12	39.95
813.295	40.75
813.47	39.05
813.645	39.85
813.821	39.37
813.996	39.88
814.171	39.47
814.346	39.43
814.521	39.59
814.697	39.17
814.872	39.65
815.047	41.05
815.222	41.51
815.397	42.35
815.572	40.75
815.747	39.95
815.922	39.35
816.097	39.04
816.272	38.29
816.447	36.97
816.622	37.06
816.797	36.91
816.972	36.75
817.147	36.29
817.322	36.8
817.496	36.97
817.671	38.03
817.846	37.37
818.021	38.09
818.196	38.34
818.371	39.07
818.545	38.54
818.72	38.61
818.895	37.39
819.069	36.32
819.244	36.96
819.419	37.85
819.594	37.51
819.768	37.6
819.943	37.62
820.117	37.22
820.292	36.69
820.467	36
820.641	35.16
820.816	35.44
820.99	35.11
821.165	34.47
821.339	34.18
821.514	34.21
821.688	33.97
821.863	33.78
822.037	33.81
822.212	33.78
822.386	33.79
822.56	33.93
822.735	33.68
822.909	33.75
823.084	33.96
823.258	33.64
823.432	33.49
823.606	33.63
823.781	33.78
823.955	33.96
824.129	33.93
824.303	34.24
824.478	34.6
824.652	34.71
824.826	35.13
825	34.45
825.174	35.07
825.348	34.75
825.523	34.64
825.697	34.5
825.871	34.18
826.045	33.83
826.219	34.01
826.393	33.35
826.567	33.21
826.741	33.24
826.915	33.86
827.089	34.26
827.263	34.26
827.437	34.28
827.611	34.27
827.784	34.08
827.958	34.28
828.132	34.05
828.306	34.94
828.48	35.27
828.654	34.78
828.827	34.02
829.001	33.16
829.175	34.13
829.349	34.74
829.522	34.54
829.696	34.65
829.87	35.69
830.044	36.49
830.217	36.29
830.391	36.52
830.565	36.92
830.738	38.85
830.912	39.36
831.085	38.9
831.259	39.66
831.432	39.59
831.606	39.87
831.779	38.17
831.953	35.98
832.126	35.2
832.3	34.53
832.473	33.76
832.647	32.7
832.82	32.58
832.994	33.17
833.167	32.5
833.34	32.89
833.514	32.63
833.687	33.2
833.86	34.46
834.034	34.38
834.207	34.78
834.38	34.98
834.553	35.7
834.727	36.06
834.9	35.84
835.073	36.04
835.246	36.67
835.419	36.38
835.593	36.94
835.766	36.11
835.939	36.89
836.112	37.14
836.285	37.56
836.458	37.88
836.631	37.04
836.804	36.07
836.977	35.93
837.15	34.4
837.323	35.74
837.496	35.23
837.669	34.85
837.842	34.77
838.015	34.78
838.188	34.57
838.361	32.5
838.533	33.89
838.706	36.08
838.879	36.41
839.052	37.77
839.225	38.46
839.398	39.14
839.57	40.44
839.743	40.03
839.916	39.55
840.088	42.01
840.261	43.17
840.434	42.46
840.607	41.3
840.779	40.89
840.952	39.98
841.124	39.9
841.297	38.18
841.47	38.07
841.642	37.22
841.815	36.47
841.987	32.85
842.16	31.41
842.332	30.46
842.505	30.29
842.677	31.21
842.85	33.2
843.022	32.6
843.194	34.51
843.367	34.32
843.539	34.69
843.712	35.27
843.884	37.61
844.056	37.54
844.229	39.12
844.401	43.26
844.573	43.82
844.745	42.92
844.918	41.21
845.09	42.65
845.262	44.42
845.434	46.37
845.606	48.12
845.779	48.85
845.951	51.35
846.123	49.36
846.295	46.93
846.467	47.41
846.639	49.06
846.811	50.87
846.983	47.87
847.155	47.51
847.327	48.96
847.499	48.07
847.671	47.3
847.843	48.79
848.015	50.18
848.187	50.47
848.359	47.81
848.531	46.34
848.703	48.2
848.875	51.02
849.047	52.12
849.218	49.69
849.39	50.72
849.562	48.54
849.734	48.16
849.905	51.46
850.077	52.64
850.249	57.17
850.421	56.93
850.592	51.58
850.764	49.38
850.936	48.08
851.107	49.01
851.279	48.5
851.451	51.33
851.622	48.65
851.794	46.19
851.965	44.27
852.137	39.34
852.308	41.08
852.48	46.12
852.651	47.83
852.823	45.17
852.994	42.25
853.166	41.04
853.337	40.29
853.509	40.48
853.68	41.35
853.851	41.63
854.023	44.58
854.194	46.32
854.365	43.23
854.537	41.4
854.708	47.9
854.879	51.92
855.05	52.67
855.222	54.85
855.393	55.35
855.564	55.41
855.735	55.72
855.906	53.86
856.078	48.02
856.249	53.44
856.42	56.8
856.591	53.12
856.762	53.1
856.933	55.04
857.104	51.34
857.275	53.45
857.446	52.03
857.617	55.15
857.788	57.84
857.959	59.46
858.13	57.21
858.301	59.1
858.472	57.01
858.643	55.16
858.814	55.44
858.985	52.88
859.155	50.52
859.326	49.8
859.497	46.21
859.668	42.88
859.839	44.05
860.009	45.82
860.18	40.88
860.351	39.11
860.522	42.34
860.692	43.29
860.863	45.86
861.034	48.87
861.204	55.64
861.375	57.6
861.546	57.8
861.716	59.74
861.887	59.29
862.057	58.65
862.228	59.68
862.398	58.46
862.569	53.44
862.739	59.88
862.91	56.5
863.08	50.26
863.251	47.7
863.421	45.88
863.592	49.84
863.762	50.01
863.932	49.19
864.103	52.35
864.273	54.37
864.443	57.21
864.614	51.25
864.784	50.12
864.954	53.27
865.125	58.31
865.295	60.01
865.465	54.04
865.635	52.52
865.805	55.44
865.976	51.69
866.146	47.66
866.316	47.08
866.486	47.08
866.656	51.66
866.826	51.05
866.996	48.55
867.166	50.49
867.336	50.6
867.506	54.38
867.676	53.05
867.846	53.68
868.016	50.46
868.186	50.44
868.356	53.42
868.526	47.52
868.696	47.15
868.866	46.07
869.036	40.33
869.206	37.8
869.376	36.29
869.545	36.35
869.715	37.84
869.885	40.85
870.055	39.6
870.224	41.75
870.394	44.07
870.564	46.66
870.734	44.25
870.903	45.86
871.073	46.39
871.243	46.67
871.412	50.97
871.582	50.39
871.751	57.37
871.921	62.92
872.091	62.21
872.26	57.89
872.43	51.9
872.599	52.47
872.769	53.8
872.938	51.53
873.108	50.53
873.277	48.69
873.446	52.11
873.616	47.4
873.785	46.93
873.955	40.05
874.124	44.33
874.293	44.87
874.463	44.54
874.632	43.9
874.801	46.59
874.971	46.39
875.14	48.88
875.309	45.94
875.478	48.67
875.647	47.58
875.817	52.13
875.986	56.42
876.155	59.5
876.324	60.83
876.493	62.38
876.662	60.33
876.831	59.58
877	54.47
877.17	56.27
877.339	55.02
877.508	53.55
877.677	53.4
877.846	49.23
878.015	47.08
878.184	45.56
878.352	44.94
878.521	43.51
878.69	43.53
878.859	45
879.028	45.43
879.197	45.56
879.366	44.55
879.534	45.79
879.703	43.88
879.872	43.36
880.041	43.22
880.21	43.13
880.378	45.22
880.547	43.73
880.716	43
880.884	40.54
881.053	38.57
881.222	39.53
881.39	38.03
881.559	38.07
881.727	38.01
881.896	37.35
882.065	36.68
882.233	35.62
882.402	36.31
882.57	35.94
882.739	36.02
882.907	36.51
883.076	35.64
883.244	35.48
883.412	35.59
883.581	35.51
883.749	36.3
883.918	36.73
884.086	37.72
884.254	37.72
884.423	38.24
884.591	39.42
884.759	38.92
884.927	39.09
885.096	39.96
885.264	40.47
885.432	41.52
885.6	42.14
885.769	41.94
885.937	41.1
886.105	40.56
886.273	40.42
886.441	38.32
886.609	42.34
886.777	43.07
886.945	42.9
887.113	42.03
887.281	39.82
887.449	38.16
887.617	40.53
887.785	41
887.953	43.34
888.121	43.65
888.289	45.93
888.457	42.92
888.625	45.53
888.793	47.99
888.961	47.98
889.129	48.57
889.296	47.4
889.464	46.22
889.632	46.53
889.8	42.68
889.967	41.78
890.135	42.4
