Data from 2938502_Reflection_3.txt Node
Date: Tue Jun 16 23:14:16 EDT 2015
User: robert
Spectrometer: USB4E03002
Autoset integration time: false
Trigger mode: 4
Integration Time (sec): 1.000000E-1
Scans to average: 10
Electric dark correction enabled: true
Nonlinearity correction enabled: false
Boxcar width: 5
Stray light correction enabled: false
XAxis mode: Wavelengths
Stop averaging: false
Number of Pixels in Spectrum: 3648
>>>>>Begin Spectral Data<<<<<
177.575	2898
177.794	-55
178.014	47.26
178.233	60.72
178.452	35.36
178.672	34.92
178.891	76.13
179.11	8150
179.33	-347.4
179.549	-1948.78
179.768	-33.61
179.987	1053.13
180.207	-48.63
180.426	3.87
180.645	1.28
180.864	0.12
181.084	15.75
181.303	10.98
181.522	11.88
181.741	3.31
181.96	33.3
182.179	26.77
182.398	43.04
182.618	47.55
182.837	56.43
183.056	49.93
183.275	53.74
183.494	45.35
183.713	36.67
183.932	40.28
184.151	40.91
184.37	35.88
184.589	26.03
184.808	35.89
185.027	25.71
185.246	37.49
185.465	45.58
185.684	25.51
185.903	17.3
186.122	23.19
186.341	14.2
186.56	-31.64
186.779	-118.93
186.998	-49.42
187.216	-71.7
187.435	-7.65
187.654	-74.99
187.873	-34.98
188.092	23.96
188.311	22.67
188.53	4.04
188.748	-6.42
188.967	-1.85
189.186	-14.82
189.405	-10.37
189.623	-10.17
189.842	-38.11
190.061	-45.44
190.28	-41.32
190.498	-37.86
190.717	-63.74
190.936	-20.92
191.154	4.54
191.373	15.78
191.592	29.78
191.81	37.9
192.029	43.91
192.248	47.04
192.466	59.03
192.685	59.48
192.904	56.65
193.122	67.51
193.341	54.22
193.559	30.24
193.778	29.77
193.996	21.35
194.215	8.33
194.433	3.93
194.652	23.33
194.87	36.1
195.089	39.42
195.307	35.62
195.526	33.63
195.744	17.55
195.963	31.95
196.181	23.02
196.399	30.74
196.618	57.91
196.836	69.11
197.055	52.13
197.273	25.25
197.491	23.01
197.71	42.22
197.928	51.6
198.146	69.37
198.365	71.69
198.583	71.46
198.801	71.45
199.019	67.46
199.238	55.98
199.456	35.12
199.674	47.23
199.892	60.61
200.111	53.73
200.329	36.41
200.547	40.66
200.765	31.47
200.983	31.39
201.202	15.24
201.42	36.01
201.638	63.96
201.856	99.29
202.074	69.52
202.292	54.34
202.51	47.96
202.728	64.27
202.946	40.96
203.165	51.53
203.383	45.27
203.601	44.86
203.819	2.01
204.037	-14.09
204.255	-10.54
204.473	-7.81
204.691	-33.57
204.909	-60.09
205.127	-37.47
205.345	-35.34
205.562	-43.07
205.78	-19.73
205.998	-29.51
206.216	-0.52
206.434	-3.11
206.652	9.58
206.87	23.76
207.088	42.88
207.306	39.8
207.523	50.36
207.741	57.59
207.959	64.57
208.177	68.65
208.395	73.35
208.612	71.17
208.83	58.2
209.048	70.34
209.266	54.22
209.483	51.37
209.701	50.45
209.919	49.19
210.136	51.95
210.354	37.37
210.572	41.13
210.79	39.98
211.007	37.65
211.225	41.68
211.442	37.41
211.66	35.26
211.878	32.79
212.095	25.18
212.313	24.65
212.53	35.98
212.748	28.84
212.966	25.43
213.183	20.85
213.401	16.63
213.618	9.23
213.836	5.96
214.053	21.45
214.271	17.88
214.488	17.94
214.705	0.09
214.923	-15.32
215.14	-28.34
215.358	-39.77
215.575	-43.65
215.793	-18.99
216.01	0.42
216.227	-8.54
216.445	-20.45
216.662	-7.25
216.879	6.3
217.097	6.38
217.314	10.83
217.531	6.42
217.749	4.54
217.966	18.14
218.183	5.46
218.4	-0.91
218.618	11.59
218.835	18.61
219.052	13.03
219.269	-12.84
219.487	-4.44
219.704	-15.58
219.921	-7.68
220.138	2.68
220.355	-17.92
220.572	-3.68
220.79	3.14
221.007	-6.94
221.224	1.37
221.441	-2.47
221.658	10.91
221.875	14.11
222.092	22.1
222.309	21.93
222.526	23.35
222.743	25.16
222.96	27.42
223.177	23.65
223.394	21.91
223.611	20.26
223.828	20.58
224.045	17.91
224.262	17.08
224.479	15.05
224.696	15.99
224.913	13.26
225.13	13.73
225.347	10.86
225.564	12.53
225.781	14.67
225.997	14.24
226.214	14.76
226.431	12.49
226.648	11.78
226.865	10.55
227.082	10.24
227.298	11.82
227.515	11.25
227.732	11.46
227.949	11.02
228.165	10.24
228.382	9.41
228.599	9.06
228.816	10.61
229.032	10.89
229.249	11.8
229.466	11.41
229.682	9.53
229.899	9.67
230.116	7.97
230.332	9.39
230.549	11.49
230.765	11.83
230.982	11.49
231.199	10.12
231.415	9.83
231.632	8.56
231.848	7.86
232.065	9.05
232.281	9.1
232.498	11.74
232.714	10.76
232.931	9.32
233.147	10.98
233.364	10.83
233.58	12.3
233.797	10.86
234.013	12
234.23	13.54
234.446	14.24
234.662	13.25
234.879	10.58
235.095	8
235.312	5.05
235.528	3.9
235.744	5.3
235.961	4.82
236.177	4.82
236.393	3.29
236.61	3.62
236.826	1.11
237.042	1.71
237.258	4.35
237.475	5.52
237.691	7.77
237.907	8.44
238.123	7.94
238.339	7.7
238.556	8.76
238.772	9.54
238.988	9.3
239.204	10.1
239.42	9.69
239.636	8.87
239.853	9.98
240.069	11.56
240.285	11.37
240.501	11.81
240.717	11.82
240.933	11.56
241.149	11.99
241.365	12.32
241.581	11.82
241.797	12.47
242.013	13
242.229	12.66
242.445	11.35
242.661	11.18
242.877	10.77
243.093	10.9
243.309	11.26
243.525	10.91
243.741	10.46
243.957	10.65
244.173	10.4
244.388	10.16
244.604	9.99
244.82	10.24
245.036	10.38
245.252	10.32
245.468	10.47
245.683	10.25
245.899	10.38
246.115	10.33
246.331	10.44
246.547	10.76
246.762	11.1
246.978	11
247.194	10.92
247.409	10.96
247.625	10.9
247.841	10.54
248.057	10.77
248.272	9.47
248.488	9.54
248.703	9.77
248.919	8.33
249.135	7.62
249.35	7.63
249.566	8.29
249.782	7.86
249.997	7.99
250.213	7.8
250.428	7.33
250.644	8.11
250.859	8.12
251.075	8.12
251.29	9.12
251.506	8.22
251.721	8.21
251.937	6.99
252.152	7.13
252.368	6.69
252.583	7.02
252.798	7.28
253.014	7.51
253.229	7.05
253.445	7.48
253.66	6.97
253.875	8.62
254.091	9.27
254.306	10.77
254.521	11.34
254.737	11.78
254.952	11.78
255.167	11.29
255.383	10.79
255.598	10.3
255.813	9.04
256.028	9.12
256.244	8.86
256.459	8.16
256.674	7.45
256.889	6.68
257.104	6.34
257.32	6.53
257.535	6.23
257.75	6.36
257.965	6.55
258.18	6.91
258.395	6.97
258.61	7.05
258.826	7.28
259.041	7.26
259.256	7.5
259.471	7.82
259.686	7.38
259.901	7.81
260.116	7.86
260.331	8.34
260.546	8.04
260.761	7.79
260.976	7.64
261.191	7.47
261.406	7.41
261.621	7.18
261.836	7.24
262.05	7.86
262.265	7.78
262.48	8.2
262.695	7.65
262.91	8.28
263.125	7.68
263.34	7.87
263.555	7.5
263.769	8.02
263.984	8.85
264.199	8.3
264.414	7.73
264.629	7.18
264.843	6.81
265.058	6.49
265.273	6.22
265.488	7.14
265.702	7.45
265.917	7.68
266.132	7.33
266.346	6.97
266.561	7.03
266.776	7.4
266.99	7.71
267.205	7.54
267.42	7.82
267.634	7.71
267.849	7.14
268.063	6.56
268.278	6.05
268.492	6.25
268.707	6.24
268.922	6.43
269.136	6.22
269.351	6.58
269.565	6.54
269.78	6.64
269.994	6.24
270.209	6.35
270.423	6.38
270.637	6.86
270.852	6.98
271.066	7.02
271.281	6.47
271.495	6.49
271.709	6.01
271.924	6.47
272.138	6.56
272.353	6.95
272.567	6.76
272.781	7.12
272.996	7.23
273.21	6.65
273.424	6.26
273.638	6.89
273.853	6.92
274.067	7.25
274.281	6.77
274.495	6.91
274.71	6.62
274.924	6.99
275.138	6.53
275.352	6.23
275.566	6.53
275.781	6.52
275.995	6.62
276.209	6.79
276.423	6.86
276.637	7.63
276.851	6.77
277.065	7
277.279	7.35
277.493	8.02
277.707	8.42
277.921	8.41
278.135	8.4
278.349	8.29
278.563	8.47
278.777	8.28
278.991	7.75
279.205	8.17
279.419	7.74
279.633	7.6
279.847	7.11
280.061	6.75
280.275	6.36
280.489	6.84
280.703	6.92
280.917	6.82
281.131	6.72
281.344	6.59
281.558	6.7
281.772	6.97
281.986	6.45
282.2	6.46
282.414	6.26
282.627	6.62
282.841	6.05
283.055	5.66
283.269	5.67
283.482	6.06
283.696	6.21
283.91	5.91
284.123	6.36
284.337	6.66
284.551	6.91
284.764	7.48
284.978	7.67
285.192	7.58
285.405	7.87
285.619	7.98
285.833	7.75
286.046	7.72
286.26	8.03
286.473	7.64
286.687	7.54
286.9	7.42
287.114	7.01
287.327	6.81
287.541	7
287.754	6.73
287.968	6.58
288.181	6.76
288.395	6.86
288.608	6.89
288.822	7.03
289.035	6.94
289.248	6.77
289.462	6.67
289.675	6.69
289.889	6.94
290.102	6.96
290.315	6.93
290.529	6.62
290.742	6.35
290.955	6.36
291.169	6.36
291.382	6.63
291.595	6.57
291.808	6.78
292.022	7.44
292.235	7.54
292.448	7.63
292.661	8.12
292.875	8.55
293.088	8.66
293.301	8.13
293.514	8.15
293.727	8.11
293.94	8.26
294.153	8.19
294.367	7.69
294.58	7.73
294.793	7.87
295.006	7.57
295.219	7.59
295.432	7.59
295.645	7.93
295.858	8.04
296.071	8.12
296.284	8.41
296.497	8.59
296.71	8.84
296.923	8.66
297.136	8.6
297.349	8.54
297.562	8.31
297.775	8.04
297.988	7.92
298.201	7.94
298.414	7.83
298.626	7.51
298.839	7.45
299.052	7.82
299.265	7.82
299.478	8.2
299.691	8.43
299.903	8.64
300.116	9.5
300.329	9.48
300.542	9.46
300.755	9.93
300.967	9.77
301.18	10.17
301.393	9.81
301.605	9.91
301.818	10.21
302.031	9.89
302.243	9.64
302.456	9.48
302.669	9.85
302.881	9.43
303.094	9.31
303.307	9.54
303.519	9.13
303.732	9.06
303.944	9.31
304.157	8.96
304.37	9.42
304.582	9.68
304.795	9.64
305.007	9.65
305.22	9.84
305.432	9.57
305.645	9.53
305.857	9.62
306.069	9.72
306.282	9.52
306.494	9.25
306.707	9.08
306.919	9
307.132	8.89
307.344	9.01
307.556	9.14
307.769	9.48
307.981	9.7
308.193	9.89
308.406	9.78
308.618	9.87
308.83	10.14
309.043	10.3
309.255	10.45
309.467	10.97
309.679	10.6
309.892	10.63
310.104	10.68
310.316	10.44
310.528	10.06
310.74	10.17
310.953	10.21
311.165	10
311.377	10.09
311.589	10.27
311.801	9.5
312.013	9.58
312.225	9.37
312.437	9.35
312.649	9.58
312.862	10
313.074	10.44
313.286	10.27
313.498	10.63
313.71	10.54
313.922	10.3
314.134	10.72
314.346	10.38
314.558	10.82
314.77	10.62
314.982	10.34
315.193	10.14
315.405	9.81
315.617	10.13
315.829	9.74
316.041	9.65
316.253	9.99
316.465	10.22
316.677	10.36
316.888	9.88
317.1	10.31
317.312	10.98
317.524	10.4
317.736	10.17
317.947	10.48
318.159	10.74
318.371	11.03
318.583	10.89
318.794	10.45
319.006	10.82
319.218	11.5
319.43	11.08
319.641	10.89
319.853	11.6
320.064	11.64
320.276	11.3
320.488	10.95
320.699	10.96
320.911	10.73
321.123	10.91
321.334	11.13
321.546	11.46
321.757	11.56
321.969	11.69
322.18	11.6
322.392	12.09
322.603	12.48
322.815	13.18
323.026	13
323.238	12.96
323.449	13.02
323.661	13.4
323.872	13.24
324.083	12.94
324.295	12.86
324.506	13.22
324.718	13.29
324.929	13.24
325.14	12.72
325.352	12.88
325.563	13.26
325.774	13.57
325.986	13.54
326.197	13.7
326.408	14.18
326.62	14.32
326.831	14.38
327.042	13.76
327.253	13.9
327.464	14.41
327.676	14.5
327.887	14.47
328.098	14.28
328.309	13.99
328.52	14.19
328.732	14.32
328.943	14.12
329.154	14.15
329.365	14.7
329.576	14.37
329.787	14.34
329.998	14.53
330.209	14.67
330.42	14.68
330.631	15.11
330.842	14.46
331.053	13.94
331.264	14.08
331.475	14.32
331.686	14.44
331.897	14.63
332.108	14.7
332.319	14.97
332.53	14.92
332.741	15.24
332.952	14.44
333.163	14.99
333.374	15.42
333.585	15.64
333.795	15.23
334.006	15.16
334.217	15.37
334.428	15.32
334.639	15.08
334.849	15.04
335.06	15.31
335.271	16
335.482	15.58
335.692	15.67
335.903	15.7
336.114	15.85
336.325	16.02
336.535	15.8
336.746	15.8
336.957	15.87
337.167	16.23
337.378	15.8
337.589	15.83
337.799	16.31
338.01	16.14
338.22	16.09
338.431	15.86
338.642	15.74
338.852	15.52
339.063	15.63
339.273	15.54
339.484	15.71
339.694	15.91
339.905	16.14
340.115	15.6
340.326	15.98
340.536	16.07
340.746	16.21
340.957	16.09
341.167	16.47
341.378	16.38
341.588	16.35
341.799	16.14
342.009	15.57
342.219	15.16
342.43	15.41
342.64	14.75
342.85	14.69
343.061	14.83
343.271	14.8
343.481	14.9
343.691	15.13
343.902	15.21
344.112	14.97
344.322	15.28
344.532	15.54
344.743	15.41
344.953	15.88
345.163	16.02
345.373	16.11
345.583	16.11
345.793	15.76
346.004	15.61
346.214	15.43
346.424	15.63
346.634	15.73
346.844	15.55
347.054	15.86
347.264	15.76
347.474	15.42
347.684	15.34
347.894	15.34
348.104	15.59
348.314	15.78
348.524	15.8
348.734	15.85
348.944	15.69
349.154	15.77
349.364	15.58
349.574	15.83
349.784	15.93
349.994	15.7
350.204	15.93
350.413	15.8
350.623	15.66
350.833	15.73
351.043	15.14
351.253	15.13
351.463	15.05
351.672	15.08
351.882	14.74
352.092	14.7
352.302	15.02
352.511	14.91
352.721	14.99
352.931	14.46
353.141	14.51
353.35	14.59
353.56	14.76
353.77	14.65
353.979	14.73
354.189	15.12
354.399	15.44
354.608	15.45
354.818	15.24
355.027	15.13
355.237	15.6
355.447	15.49
355.656	15.64
355.866	15.66
356.075	15.75
356.285	15.74
356.494	15.59
356.704	15.43
356.913	15.27
357.123	15.31
357.332	15.16
357.542	15.14
357.751	15.33
357.96	15.69
358.17	15.48
358.379	15.43
358.589	15.28
358.798	15.01
359.007	14.84
359.217	14.86
359.426	14.94
359.635	14.87
359.845	14.88
360.054	14.72
360.263	14.42
360.472	14.4
360.682	14.48
360.891	14.45
361.1	14.57
361.309	14.53
361.519	14.65
361.728	14.73
361.937	15.18
362.146	15.11
362.355	15.19
362.564	15.14
362.774	15.13
362.983	14.96
363.192	14.9
363.401	14.92
363.61	15.11
363.819	15.02
364.028	14.9
364.237	14.73
364.446	14.53
364.655	14.41
364.864	14.58
365.073	14.6
365.282	14.92
365.491	15.02
365.7	14.91
365.909	14.73
366.118	14.6
366.327	14.44
366.536	14.28
366.745	14.5
366.954	14.73
367.162	14.67
367.371	14.76
367.58	14.58
367.789	14.78
367.998	14.61
368.207	14.56
368.415	14.46
368.624	14.65
368.833	14.79
369.042	14.67
369.25	14.33
369.459	14.36
369.668	14.14
369.877	14.03
370.085	13.74
370.294	13.82
370.503	14.07
370.711	14.12
370.92	13.93
371.129	13.59
371.337	13.47
371.546	13.35
371.754	13.39
371.963	13.42
372.171	13.56
372.38	13.43
372.589	13.34
372.797	12.99
373.006	12.74
373.214	12.98
373.423	13.19
373.631	13.25
373.84	13.53
374.048	13.38
374.256	13.5
374.465	13.27
374.673	13.54
374.882	13.72
375.09	13.8
375.298	14.07
375.507	13.64
375.715	13.53
375.923	13.48
376.132	13.34
376.34	13.12
376.548	13.23
376.757	13.3
376.965	13.16
377.173	13.08
377.381	13.01
377.59	12.78
377.798	13.02
378.006	13.03
378.214	13.11
378.423	13.18
378.631	13.22
378.839	13.18
379.047	13.37
379.255	13.4
379.463	13.3
379.671	13.24
379.879	13.35
380.088	13.33
380.296	13.32
380.504	13.05
380.712	13
380.92	13.12
381.128	13.15
381.336	13.04
381.544	13.09
381.752	13.37
381.96	13.21
382.168	13.16
382.376	13.11
382.584	13.06
382.791	13.1
382.999	12.97
383.207	13
383.415	13.01
383.623	12.95
383.831	12.9
384.039	12.64
384.247	12.84
384.454	12.74
384.662	12.71
384.87	12.72
385.078	12.65
385.285	12.64
385.493	12.67
385.701	12.34
385.909	12.26
386.116	12.04
386.324	11.89
386.532	11.87
386.739	11.91
386.947	12.07
387.155	12.07
387.362	12.16
387.57	12.36
387.778	12.15
387.985	12.12
388.193	12.11
388.4	12.16
388.608	12.32
388.816	12.28
389.023	12.26
389.231	12.29
389.438	12.16
389.646	12.16
389.853	12.03
390.061	12.11
390.268	12.08
390.475	12.07
390.683	12.01
390.89	11.9
391.098	11.73
391.305	11.57
391.512	11.48
391.72	11.31
391.927	11.31
392.135	11.3
392.342	11.25
392.549	11.32
392.756	11.2
392.964	11.21
393.171	11.29
393.378	11.24
393.586	11.3
393.793	11.28
394	11.55
394.207	11.66
394.414	11.56
394.622	11.44
394.829	11.69
395.036	11.73
395.243	11.71
395.45	11.63
395.657	11.73
395.864	11.89
396.072	11.94
396.279	11.86
396.486	11.64
396.693	11.62
396.9	11.61
397.107	11.45
397.314	11.46
397.521	11.63
397.728	11.54
397.935	11.68
398.142	11.43
398.349	11.1
398.556	11.03
398.763	10.72
398.97	10.72
399.177	10.73
399.383	10.57
399.59	10.67
399.797	10.65
400.004	10.68
400.211	10.52
400.418	10.55
400.625	10.71
400.831	10.86
401.038	11.12
401.245	10.94
401.452	10.9
401.658	10.77
401.865	10.49
402.072	10.23
402.279	10.16
402.485	10.27
402.692	10.16
402.899	10.14
403.105	9.97
403.312	10.08
403.519	10.25
403.725	10.24
403.932	10.27
404.138	10.27
404.345	10.31
404.552	10.37
404.758	10.38
404.965	10.58
405.171	10.44
405.378	10.56
405.584	10.44
405.791	10.2
405.997	10.12
406.204	10.1
406.41	10.32
406.617	10.37
406.823	10.26
407.029	10.08
407.236	9.9
407.442	9.91
407.649	9.77
407.855	9.85
408.061	9.94
408.268	10.05
408.474	10.07
408.68	9.72
408.887	9.71
409.093	9.88
409.299	9.86
409.505	10.03
409.712	10.06
409.918	10.12
410.124	9.99
410.33	9.95
410.537	9.84
410.743	9.87
410.949	10
411.155	10.06
411.361	9.79
411.567	9.87
411.773	9.74
411.98	9.8
412.186	9.59
412.392	9.61
412.598	9.61
412.804	9.67
413.01	9.72
413.216	9.65
413.422	9.5
413.628	9.53
413.834	9.45
414.04	9.42
414.246	9.29
414.452	9.37
414.658	9.45
414.864	9.49
415.07	9.46
415.275	9.32
415.481	9.35
415.687	9.28
415.893	9.32
416.099	9.27
416.305	9.1
416.511	9.18
416.716	9.05
416.922	8.9
417.128	8.85
417.334	8.83
417.539	8.82
417.745	8.87
417.951	8.94
418.157	8.8
418.362	8.79
418.568	8.83
418.774	8.75
418.979	8.72
419.185	8.75
419.391	8.79
419.596	8.77
419.802	8.72
420.008	8.6
420.213	9.31
420.419	9.3
420.624	9.28
420.83	9.26
421.035	9.22
421.241	9.25
421.446	9.11
421.652	9.01
421.857	8.93
422.063	8.99
422.268	8.94
422.474	8.19
422.679	8.14
422.885	8.16
423.09	8.17
423.295	8.18
423.501	8.16
423.706	8.24
423.911	8.35
424.117	8.35
424.322	8.24
424.527	8.29
424.733	8.29
424.938	8.35
425.143	8.3
425.349	8.32
425.554	8.31
425.759	8.37
425.964	8.29
426.169	8.14
426.375	8.2
426.58	8.31
426.785	8.26
426.99	8.11
427.195	8.21
427.4	8.2
427.605	8.08
427.811	8.04
428.016	7.95
428.221	7.97
428.426	7.97
428.631	7.88
428.836	7.81
429.041	7.78
429.246	7.83
429.451	7.72
429.656	7.72
429.861	7.7
430.066	7.72
430.271	7.67
430.476	7.65
430.681	7.61
430.886	7.63
431.09	7.68
431.295	7.77
431.5	7.71
431.705	7.64
431.91	7.66
432.115	7.79
432.32	7.77
432.524	7.72
432.729	7.68
432.934	7.61
433.139	7.55
433.343	7.47
433.548	7.46
433.753	7.45
433.958	7.5
434.162	7.47
434.367	7.36
434.572	7.41
434.776	7.59
434.981	7.68
435.186	7.73
435.39	7.81
435.595	7.87
435.799	7.79
436.004	7.91
436.209	7.92
436.413	7.88
436.618	7.84
436.822	7.77
437.027	7.77
437.231	7.69
437.436	7.76
437.64	7.73
437.845	7.68
438.049	7.68
438.253	7.67
438.458	7.62
438.662	7.64
438.867	7.68
439.071	7.75
439.275	7.69
439.48	7.75
439.684	7.76
439.888	7.65
440.093	7.63
440.297	7.56
440.501	7.55
440.706	7.63
440.91	7.68
441.114	7.72
441.318	7.67
441.523	7.68
441.727	7.68
441.931	7.69
442.135	7.81
442.339	7.79
442.543	7.85
442.748	7.88
442.952	7.86
443.156	7.81
443.36	7.8
443.564	7.73
443.768	7.62
443.972	7.58
444.176	7.5
444.38	7.42
444.584	7.46
444.788	7.5
444.992	7.44
445.196	7.42
445.4	7.38
445.604	7.29
445.808	7.34
446.012	7.43
446.216	7.4
446.42	7.48
446.624	7.45
446.828	7.4
447.032	7.35
447.235	7.3
447.439	7.32
447.643	7.28
447.847	7.35
448.051	7.33
448.254	7.32
448.458	7.28
448.662	7.17
448.866	7.3
449.069	7.4
449.273	7.39
449.477	7.56
449.681	7.56
449.884	7.54
450.088	7.54
450.292	7.55
450.495	7.56
450.699	7.53
450.902	7.57
451.106	7.43
451.31	7.37
451.513	7.28
451.717	7.1
451.92	7.01
452.124	6.98
452.327	6.89
452.531	6.81
452.734	6.74
452.938	6.79
453.141	6.76
453.345	6.83
453.548	6.9
453.752	7.02
453.955	7.04
454.158	7.09
454.362	7.03
454.565	7.05
454.769	7.01
454.972	6.98
455.175	7.01
455.379	6.98
455.582	6.93
455.785	6.86
455.988	6.74
456.192	6.69
456.395	6.7
456.598	6.87
456.801	6.82
457.005	6.8
457.208	6.79
457.411	6.8
457.614	6.81
457.817	6.92
458.021	6.93
458.224	6.96
458.427	7.02
458.63	6.99
458.833	7.01
459.036	7.06
459.239	7.12
459.442	7.12
459.645	7.13
459.848	7.18
460.051	7.08
460.254	7.08
460.457	7.11
460.66	7.06
460.863	7.07
461.066	7.04
461.269	7.1
461.472	7.14
461.675	7.2
461.878	7.27
462.081	7.2
462.284	7.38
462.486	7.41
462.689	7.35
462.892	7.38
463.095	7.43
463.298	7.4
463.5	7.35
463.703	7.36
463.906	7.4
464.109	7.36
464.311	7.44
464.514	7.41
464.717	7.46
464.92	7.68
465.122	7.66
465.325	7.63
465.528	7.67
465.73	7.66
465.933	7.67
466.135	7.67
466.338	7.65
466.541	7.67
466.743	7.67
466.946	7.76
467.148	7.69
467.351	7.79
467.553	7.77
467.756	7.79
467.958	7.87
468.161	7.94
468.363	7.99
468.566	8.07
468.768	7.96
468.971	7.89
469.173	7.75
469.375	7.82
469.578	7.82
469.78	7.94
469.983	7.92
470.185	7.87
470.387	7.78
470.59	7.78
470.792	7.73
470.994	7.83
471.196	7.93
471.399	7.97
471.601	7.89
471.803	7.85
472.005	7.79
472.208	7.8
472.41	7.98
472.612	8.03
472.814	7.95
473.016	7.88
473.218	7.87
473.421	7.87
473.623	7.95
473.825	7.87
474.027	7.91
474.229	7.84
474.431	7.82
474.633	7.6
474.835	7.63
475.037	7.65
475.239	7.68
475.441	7.7
475.643	7.65
475.845	7.58
476.047	7.6
476.249	7.6
476.451	7.65
476.653	7.67
476.855	7.79
477.057	7.84
477.258	7.76
477.46	7.74
477.662	7.8
477.864	7.79
478.066	7.82
478.268	7.86
478.469	7.84
478.671	7.89
478.873	7.82
479.075	7.75
479.276	7.56
479.478	7.55
479.68	7.53
479.882	7.51
480.083	7.54
480.285	7.58
480.487	7.59
480.688	7.6
480.89	7.56
481.091	7.6
481.293	7.61
481.495	7.67
481.696	7.7
481.898	7.71
482.099	7.66
482.301	7.65
482.502	7.62
482.704	7.57
482.905	7.59
483.107	7.62
483.308	7.62
483.51	7.61
483.711	7.64
483.913	7.65
484.114	7.65
484.315	7.67
484.517	7.68
484.718	7.72
484.92	7.77
485.121	7.71
485.322	7.7
485.524	7.68
485.725	7.66
485.926	7.65
486.127	7.62
486.329	7.62
486.53	7.65
486.731	7.63
486.932	7.57
487.134	7.56
487.335	7.62
487.536	7.58
487.737	7.59
487.938	7.7
488.139	7.7
488.341	7.71
488.542	7.78
488.743	7.76
488.944	7.8
489.145	7.84
489.346	7.86
489.547	7.81
489.748	7.82
489.949	7.82
490.15	7.75
490.351	7.74
490.552	7.76
490.753	7.73
490.954	7.74
491.155	7.73
491.356	7.74
491.557	7.8
491.758	7.87
491.959	7.94
492.159	8
492.36	8.03
492.561	8.03
492.762	8.08
492.963	8.08
493.164	8.09
493.364	8.18
493.565	8.23
493.766	8.2
493.967	8.18
494.167	8.15
494.368	8.16
494.569	8.18
494.769	8.22
494.97	8.22
495.171	8.32
495.371	8.31
495.572	8.33
495.773	8.33
495.973	8.34
496.174	8.35
496.375	8.37
496.575	8.48
496.776	8.54
496.976	8.58
497.177	8.63
497.377	8.56
497.578	8.6
497.778	8.56
497.979	8.62
498.179	8.66
498.38	8.76
498.58	8.78
498.78	8.68
498.981	8.75
499.181	8.83
499.382	8.79
499.582	8.87
499.782	8.88
499.983	8.84
500.183	8.79
500.383	8.77
500.584	8.71
500.784	8.77
500.984	8.83
501.184	8.86
501.385	8.94
501.585	9.06
501.785	9.15
501.985	9.25
502.185	9.47
502.386	9.58
502.586	9.67
502.786	9.68
502.986	9.72
503.186	9.7
503.386	9.67
503.586	9.63
503.786	9.63
503.987	9.6
504.187	9.66
504.387	9.69
504.587	9.74
504.787	9.77
504.987	9.91
505.187	10.02
505.387	10.01
505.587	10.05
505.786	10.13
505.986	10.17
506.186	10.29
506.386	10.41
506.586	10.42
506.786	10.51
506.986	10.45
507.186	10.43
507.386	10.36
507.585	10.52
507.785	10.58
507.985	10.64
508.185	10.64
508.384	10.72
508.584	10.69
508.784	10.67
508.984	10.71
509.183	10.87
509.383	10.9
509.583	11.03
509.782	11
509.982	11.09
510.182	11.11
510.381	11.23
510.581	11.21
510.781	11.18
510.98	11.2
511.18	11.27
511.379	11.32
511.579	11.41
511.778	11.41
511.978	11.57
512.177	11.68
512.377	11.7
512.576	11.75
512.776	11.68
512.975	11.81
513.175	11.88
513.374	11.89
513.573	11.93
513.773	12.08
513.972	12.22
514.172	12.23
514.371	12.25
514.57	12.36
514.77	12.39
514.969	12.58
515.168	12.66
515.367	12.83
515.567	12.81
515.766	12.88
515.965	12.85
516.164	12.87
516.364	12.9
516.563	12.97
516.762	13.02
516.961	13.12
517.16	13.08
517.359	13.09
517.559	13.07
517.758	13.16
517.957	13.21
518.156	13.24
518.355	13.25
518.554	13.27
518.753	13.32
518.952	13.3
519.151	13.25
519.35	13.33
519.549	13.37
519.748	13.4
519.947	13.44
520.146	13.5
520.345	13.62
520.544	13.61
520.743	13.72
520.942	13.63
521.141	13.73
521.339	13.84
521.538	13.95
521.737	14.07
521.936	14.22
522.135	14.22
522.333	14.31
522.532	14.29
522.731	14.43
522.93	14.44
523.129	14.53
523.327	14.53
523.526	14.62
523.725	14.67
523.923	14.72
524.122	14.73
524.321	14.8
524.519	14.76
524.718	14.76
524.917	14.82
525.115	14.96
525.314	15
525.512	15.14
525.711	15.17
525.909	15.22
526.108	15.26
526.306	15.31
526.505	15.38
526.703	15.43
526.902	15.48
527.1	15.53
527.299	15.47
527.497	15.51
527.696	15.5
527.894	15.52
528.092	15.54
528.291	15.6
528.489	15.64
528.688	15.66
528.886	15.71
529.084	15.73
529.283	15.76
529.481	15.9
529.679	15.97
529.877	16.08
530.076	16.15
530.274	16.22
530.472	16.24
530.67	16.27
530.869	16.37
531.067	16.39
531.265	16.48
531.463	16.5
531.661	16.46
531.859	16.49
532.057	16.48
532.255	16.49
532.454	16.53
532.652	16.57
532.85	16.64
533.048	16.65
533.246	16.75
533.444	16.75
533.642	16.85
533.84	16.91
534.038	17.01
534.236	17.11
534.434	17.16
534.632	17.19
534.83	17.18
535.027	17.23
535.225	17.23
535.423	17.26
535.621	17.31
535.819	17.29
536.017	17.33
536.215	17.32
536.412	17.34
536.61	17.36
536.808	17.38
537.006	17.45
537.203	17.45
537.401	17.54
537.599	17.61
537.797	17.68
537.994	17.78
538.192	17.91
538.39	17.98
538.587	18.03
538.785	18.12
538.983	18.16
539.18	18.19
539.378	18.22
539.575	18.24
539.773	18.29
539.97	18.29
540.168	18.34
540.366	18.35
540.563	18.39
540.761	18.45
540.958	18.48
541.155	18.54
541.353	18.56
541.55	18.6
541.748	18.64
541.945	18.71
542.143	18.82
542.34	18.83
542.537	18.92
542.735	18.98
542.932	19.01
543.129	19.07
543.327	19.11
543.524	19.25
543.721	19.33
543.919	19.4
544.116	19.34
544.313	19.36
544.51	19.44
544.708	19.42
544.905	19.48
545.102	19.44
545.299	19.58
545.496	19.71
545.693	19.72
545.891	19.74
546.088	19.76
546.285	19.87
546.482	19.94
546.679	20.03
546.876	20.09
547.073	20.08
547.27	20.27
547.467	20.18
547.664	20.21
547.861	20.18
548.058	20.29
548.255	20.37
548.452	20.41
548.649	20.61
548.846	20.75
549.043	20.85
549.24	20.97
549.437	21
549.633	21.25
549.83	21.2
550.027	21.39
550.224	21.45
550.421	21.46
550.618	21.48
550.814	21.45
551.011	21.32
551.208	21.39
551.405	21.51
551.601	21.55
551.798	21.52
551.995	21.66
552.191	21.63
552.388	21.73
552.585	21.8
552.781	21.91
552.978	21.95
553.175	22.12
553.371	22.23
553.568	22.14
553.764	22.21
553.961	22.4
554.157	22.49
554.354	22.69
554.55	22.76
554.747	22.85
554.943	22.96
555.14	23.03
555.336	23.07
555.533	23.07
555.729	23.28
555.926	23.35
556.122	23.37
556.318	23.44
556.515	23.33
556.711	23.41
556.907	23.52
557.104	23.49
557.3	23.55
557.496	23.56
557.693	23.65
557.889	23.66
558.085	23.6
558.281	23.71
558.478	23.75
558.674	23.89
558.87	23.95
559.066	23.99
559.262	24
559.459	24.01
559.655	24.1
559.851	24.17
560.047	24.24
560.243	24.38
560.439	24.23
560.635	24.35
560.831	24.51
561.027	24.56
561.223	24.69
561.419	24.86
561.615	24.99
561.811	25.08
562.007	25.21
562.203	25.27
562.399	25.44
562.595	25.6
562.791	25.63
562.987	25.66
563.183	25.78
563.379	25.86
563.575	25.95
563.771	26.05
563.966	26.06
564.162	26.06
564.358	26.16
564.554	26.18
564.75	26.24
564.945	26.29
565.141	26.28
565.337	26.34
565.533	26.3
565.728	26.29
565.924	26.31
566.12	26.28
566.315	26.39
566.511	26.49
566.707	26.42
566.902	26.61
567.098	26.57
567.293	26.64
567.489	26.59
567.684	26.68
567.88	26.79
568.076	27.01
568.271	27.12
568.467	27.17
568.662	27.21
568.858	27.51
569.053	27.44
569.248	27.56
569.444	27.6
569.639	27.73
569.835	27.86
570.03	27.96
570.225	27.98
570.421	28.15
570.616	28.19
570.812	28.28
571.007	28.17
571.202	28.26
571.397	28.34
571.593	28.47
571.788	28.5
571.983	28.64
572.178	28.71
572.374	28.74
572.569	28.77
572.764	28.87
572.959	28.93
573.154	29.08
573.35	29.18
573.545	29.18
573.74	29.16
573.935	29.22
574.13	29.18
574.325	29.17
574.52	29.19
574.715	29.25
574.91	29.28
575.105	29.27
575.3	29.23
575.495	29.3
575.69	29.4
575.885	29.51
576.08	29.52
576.275	29.55
576.47	29.45
576.665	29.46
576.86	29.56
577.055	29.53
577.25	29.66
577.444	29.77
577.639	29.83
577.834	29.89
578.029	29.91
578.224	30.12
578.418	30.18
578.613	30.5
578.808	30.59
579.003	30.65
579.197	30.73
579.392	30.67
579.587	30.76
579.781	30.65
579.976	30.73
580.171	30.72
580.365	30.66
580.56	30.73
580.755	30.79
580.949	30.9
581.144	30.82
581.338	30.86
581.533	30.92
581.727	30.97
581.922	31.07
582.116	31.16
582.311	31.32
582.505	31.41
582.7	31.38
582.894	31.43
583.089	31.37
583.283	31.5
583.478	31.52
583.672	31.62
583.866	31.69
584.061	31.69
584.255	31.72
584.449	31.75
584.644	31.75
584.838	31.89
585.032	31.79
585.226	31.92
585.421	31.89
585.615	31.95
585.809	32.08
586.003	32.1
586.198	32.21
586.392	32.16
586.586	32.15
586.78	32.01
586.974	31.87
587.168	31.83
587.363	31.76
587.557	31.77
587.751	31.78
587.945	31.82
588.139	31.76
588.333	31.93
588.527	31.99
588.721	32.02
588.915	32.19
589.109	32.24
589.303	32.37
589.497	32.45
589.691	32.52
589.885	32.69
590.079	32.64
590.273	32.63
590.466	32.5
590.66	32.36
590.854	32.37
591.048	32.39
591.242	32.43
591.436	32.53
591.629	32.59
591.823	32.63
592.017	32.52
592.211	32.59
592.404	32.7
592.598	32.85
592.792	33.08
592.986	33.09
593.179	33.15
593.373	33.26
593.567	33.36
593.76	33.31
593.954	33.46
594.147	33.55
594.341	33.61
594.535	33.66
594.728	33.61
594.922	33.65
595.115	33.65
595.309	33.63
595.502	33.75
595.696	33.63
595.889	33.67
596.083	33.59
596.276	33.54
596.47	33.49
596.663	33.5
596.856	33.47
597.05	33.4
597.243	33.44
597.437	33.42
597.63	33.36
597.823	33.47
598.017	33.49
598.21	33.54
598.403	33.71
598.596	33.69
598.79	33.61
598.983	33.63
599.176	33.57
599.369	33.59
599.563	33.67
599.756	33.6
599.949	33.49
600.142	33.63
600.335	33.58
600.528	33.46
600.722	33.49
600.915	33.39
601.108	33.6
601.301	33.78
601.494	33.85
601.687	33.97
601.88	34.04
602.073	34.12
602.266	33.99
602.459	34.1
602.652	34.08
602.845	34.17
603.038	34.37
603.231	34.16
603.424	34.2
603.617	34.12
603.809	34.1
604.002	34.09
604.195	34.06
604.388	34.13
604.581	34.04
604.774	34.07
604.966	33.98
605.159	33.9
605.352	33.95
605.545	33.84
605.737	33.91
605.93	33.91
606.123	34.09
606.316	34.03
606.508	34.08
606.701	34.17
606.894	34.16
607.086	34.24
607.279	34.36
607.471	34.58
607.664	34.7
607.857	34.72
608.049	34.65
608.242	34.5
608.434	34.63
608.627	34.65
608.819	34.57
609.012	34.64
609.204	34.59
609.397	34.54
609.589	34.39
609.782	34.23
609.974	34.24
610.166	34.36
610.359	34.34
610.551	34.34
610.743	34.28
610.936	34.41
611.128	34.42
611.32	34.56
611.513	34.48
611.705	34.56
611.897	34.69
612.09	34.78
612.282	34.77
612.474	34.98
612.666	34.82
612.858	34.77
613.051	34.75
613.243	34.71
613.435	34.68
613.627	34.94
613.819	34.9
614.011	34.99
614.203	35.01
614.395	35.01
614.588	34.96
614.78	35.02
614.972	34.96
615.164	34.98
615.356	35.08
615.548	34.87
615.74	34.69
615.932	34.7
616.124	34.63
616.315	34.5
616.507	34.33
616.699	34.27
616.891	34.43
617.083	34.58
617.275	34.65
617.467	34.73
617.659	34.94
617.85	35.05
618.042	35.32
618.234	35.24
618.426	35.48
618.618	35.61
618.809	35.51
619.001	35.52
619.193	35.54
619.384	35.47
619.576	35.31
619.768	35.2
619.959	35.2
620.151	34.98
620.343	35.12
620.534	35.08
620.726	35.01
620.917	35.21
621.109	35.35
621.301	35.37
621.492	35.33
621.684	35.45
621.875	35.64
622.067	35.78
622.258	35.7
622.45	35.72
622.641	35.62
622.832	35.75
623.024	35.75
623.215	35.59
623.407	35.68
623.598	35.62
623.789	35.55
623.981	35.51
624.172	35.43
624.363	35.64
624.555	35.47
624.746	35.52
624.937	35.53
625.129	35.47
625.32	35.43
625.511	35.22
625.702	35.46
625.893	35.47
626.085	35.34
626.276	35.28
626.467	35.15
626.658	35.21
626.849	35.23
627.04	35.18
627.231	35.04
627.422	34.99
627.614	35.09
627.805	34.9
627.996	34.67
628.187	34.81
628.378	34.85
628.569	35.03
628.76	35.06
628.951	35.01
629.142	35.03
629.332	35.29
629.523	35.29
629.714	35.41
629.905	35.51
630.096	35.72
630.287	35.67
630.478	35.69
630.669	35.51
630.859	35.54
631.05	35.42
631.241	35.29
631.432	35.11
631.623	35.16
631.813	35.1
632.004	35.17
632.195	35.23
632.385	35.27
632.576	35.25
632.767	35.35
632.957	35.45
633.148	35.63
633.339	35.8
633.529	35.89
633.72	36.02
633.91	36.13
634.101	36.01
634.292	35.87
634.482	35.8
634.673	35.64
634.863	35.72
635.054	35.62
635.244	35.64
635.435	35.68
635.625	35.64
635.815	35.5
636.006	35.39
636.196	35.49
636.387	35.7
636.577	35.7
636.767	35.94
636.958	35.81
637.148	35.91
637.338	35.89
637.529	35.67
637.719	35.67
637.909	35.69
638.099	35.75
638.29	35.49
638.48	35.37
638.67	35.32
638.86	35.2
639.05	35.29
639.241	35.21
639.431	35.11
639.621	35.1
639.811	35.17
640.001	35.16
640.191	35.12
640.381	35.23
640.571	35.24
640.761	35.42
640.951	35.54
641.141	35.34
641.331	35.38
641.521	35.47
641.711	35.71
641.901	35.58
642.091	35.72
642.281	35.66
642.471	35.71
642.661	35.72
642.851	35.81
643.041	35.73
643.231	35.86
643.42	35.91
643.61	36.08
643.8	36.1
643.99	36.1
644.18	36.05
644.369	36.08
644.559	36.17
644.749	36.27
644.939	36.31
645.128	36.49
645.318	36.35
645.508	36.45
645.697	36.29
645.887	36.27
646.076	36.41
646.266	36.36
646.456	36.55
646.645	36.71
646.835	36.66
647.024	36.47
647.214	36.4
647.403	36.53
647.593	36.17
647.782	36.05
647.972	35.96
648.161	35.83
648.351	36.06
648.54	36.01
648.73	35.9
648.919	36.04
649.108	36.02
649.298	36.04
649.487	36.12
649.677	36.29
649.866	36.4
650.055	36.5
650.244	36.67
650.434	36.43
650.623	36.49
650.812	36.36
651.002	36.23
651.191	36.35
651.38	36.44
651.569	36.59
651.758	36.55
651.947	36.32
652.137	36.39
652.326	36.41
652.515	36.64
652.704	36.54
652.893	36.41
653.082	36.51
653.271	36.37
653.46	36.08
653.649	36.03
653.838	36.07
654.027	36.28
654.216	36.04
654.405	35.97
654.594	35.95
654.783	35.92
654.972	36.03
655.161	36.07
655.35	36.34
655.539	36.46
655.728	36.37
655.916	36.45
656.105	36.41
656.294	36.38
656.483	36.52
656.672	36.43
656.86	36.53
657.049	36.65
657.238	36.45
657.427	36.22
657.615	36.24
657.804	36.12
657.993	36.11
658.181	36.16
658.37	36.33
658.559	36.26
658.747	36.33
658.936	36.36
659.125	36.36
659.313	36.43
659.502	36.66
659.69	36.67
659.879	36.62
660.067	36.55
660.256	36.67
660.444	36.65
660.633	36.58
660.821	36.5
661.01	36.61
661.198	36.48
661.387	36.59
661.575	36.51
661.763	36.5
661.952	36.23
662.14	36.27
662.328	36.24
662.517	36.09
662.705	35.91
662.893	35.86
663.082	35.5
663.27	35.52
663.458	35.48
663.646	35.27
663.834	35.27
664.023	35.62
664.211	35.78
664.399	35.45
664.587	35.41
664.775	35.34
664.963	35.29
665.152	35.3
665.34	35.21
665.528	35.29
665.716	35.5
665.904	35.69
666.092	35.46
666.28	35.36
666.468	35.51
666.656	35.87
666.844	36.12
667.032	36.15
667.22	36.04
667.408	36.02
667.596	35.82
667.784	35.78
667.971	35.75
668.159	36.01
668.347	35.97
668.535	36.03
668.723	35.97
668.911	35.94
669.098	35.88
669.286	35.83
669.474	36
669.662	36.29
669.849	36.3
670.037	36.14
670.225	36.23
670.413	36.08
670.6	36.07
670.788	36.13
670.976	36.38
671.163	36.69
671.351	36.97
671.538	36.89
671.726	36.59
671.913	36.48
672.101	36.51
672.289	36.44
672.476	36.57
672.664	36.71
672.851	36.52
673.039	36.42
673.226	36.19
673.413	35.86
673.601	35.84
673.788	35.99
673.976	35.77
674.163	36.09
674.35	36.16
674.538	36.16
674.725	36.28
674.912	36.39
675.1	36.47
675.287	36.52
675.474	36.64
675.662	36.7
675.849	36.68
676.036	36.71
676.223	36.39
676.411	36.3
676.598	36.16
676.785	35.87
676.972	35.73
677.159	35.6
677.346	35.79
677.533	35.8
677.721	35.65
677.908	35.63
678.095	35.9
678.282	35.97
678.469	35.95
678.656	36.23
678.843	36.18
679.03	36.37
679.217	36.49
679.404	36.61
679.591	36.78
679.778	36.93
679.964	37
680.151	36.98
680.338	36.89
680.525	37.12
680.712	36.98
680.899	37.13
681.086	37.02
681.272	36.85
681.459	36.64
681.646	36.56
681.833	36.55
682.02	36.51
682.206	36.66
682.393	36.88
682.58	36.77
682.766	36.97
682.953	36.9
683.14	36.8
683.326	37.15
683.513	37.35
683.7	37.3
683.886	37.64
684.073	37.75
684.259	37.62
684.446	37.55
684.632	37.71
684.819	37.4
685.005	37.27
685.192	37.22
685.378	37.04
685.565	36.9
685.751	36.95
685.938	36.64
686.124	36.48
686.31	36.58
686.497	36.51
686.683	36.27
686.87	36.63
687.056	36.85
687.242	37.35
687.429	37.2
687.615	37.05
687.801	37.32
687.987	37.21
688.174	37.47
688.36	37.2
688.546	37.36
688.732	37.35
688.918	37.03
689.105	36.71
689.291	35.97
689.477	35.79
689.663	35.67
689.849	35.71
690.035	35.94
690.221	35.57
690.407	35.54
690.593	35.48
690.779	35.46
690.965	35.69
691.151	35.97
691.337	36.46
691.523	36.51
691.709	36.72
691.895	36.55
692.081	36.33
692.267	36.42
692.453	36.74
692.639	36.63
692.825	36.96
693.011	37.11
693.196	37.26
693.382	37.39
693.568	37.78
693.754	37.68
693.94	37.39
694.125	37.36
694.311	37.24
694.497	36.92
694.682	36.79
694.868	36.43
695.054	36.55
695.239	36.53
695.425	36.41
695.611	36.18
695.796	36.19
695.982	36.31
696.168	36.45
696.353	36.77
696.539	36.99
696.724	36.96
696.91	36.98
697.095	37.01
697.281	36.83
697.466	36.76
697.652	36.76
697.837	36.7
698.023	36.61
698.208	36.63
698.393	36.5
698.579	36.26
698.764	36.38
698.949	36.49
699.135	36.22
699.32	36.22
699.505	36.25
699.691	36.24
699.876	36.45
700.061	36.54
700.246	36.61
700.432	36.68
700.617	37.12
700.802	36.83
700.987	36.54
701.172	36.77
701.358	37.03
701.543	37
701.728	36.99
701.913	36.67
702.098	36.49
702.283	36.51
702.468	36.36
702.653	36.01
702.838	36.23
703.023	36.55
703.208	36.56
703.393	36.34
703.578	36.27
703.763	36.32
703.948	36.46
704.133	36.96
704.318	36.89
704.503	36.99
704.688	37.08
704.873	37.09
705.057	37.03
705.242	36.98
705.427	37.11
705.612	37.42
705.797	37.55
705.981	37.63
706.166	37.38
706.351	37.26
706.536	37.21
706.72	36.82
706.905	36.83
707.09	36.73
707.274	36.53
707.459	36.49
707.644	36.32
707.828	36.34
708.013	36.03
708.197	36.25
708.382	36.13
708.567	36.04
708.751	36.29
708.936	36.36
709.12	36.12
709.305	36.11
709.489	36.08
709.673	36.34
709.858	36.2
710.042	36.74
710.227	36.57
710.411	36.85
710.596	36.94
710.78	36.97
710.964	36.81
711.149	37.11
711.333	37.12
711.517	37.13
711.702	36.82
711.886	36.51
712.07	36.17
712.254	35.94
712.438	36.01
712.623	35.99
712.807	36.16
712.991	36.24
713.175	36.31
713.359	36.2
713.544	36.2
713.728	36.16
713.912	36.41
714.096	36.67
714.28	36.98
714.464	36.79
714.648	36.63
714.832	36.47
715.016	36.58
715.2	36.27
715.384	36.15
715.568	36.28
715.752	36.29
715.936	36.3
716.12	36.3
716.304	35.93
716.488	35.95
716.671	36.02
716.855	36.18
717.039	35.59
717.223	35.87
717.407	35.98
717.59	35.77
717.774	35.65
717.958	35.43
718.142	35.19
718.325	35.07
718.509	34.64
718.693	34.51
718.877	34.2
719.06	35.05
719.244	35.35
719.428	35.67
719.611	36.02
719.795	35.81
719.978	35.93
720.162	35.86
720.345	36.19
720.529	36.36
720.713	36.76
720.896	36.95
721.08	35.91
721.263	35.52
721.446	35.2
721.63	35.05
721.813	35.16
721.997	34.89
722.18	35.28
722.364	34.96
722.547	35.5
722.73	35.71
722.914	35.4
723.097	36.48
723.28	36.28
723.464	36.4
723.647	36.34
723.83	36.75
724.013	36.95
724.197	36.8
724.38	37.24
724.563	36.93
724.746	36.44
724.929	37.13
725.112	37.07
725.296	37.22
725.479	37.32
725.662	37.41
725.845	37.18
726.028	37.41
726.211	37.26
726.394	36.83
726.577	36.7
726.76	36.77
726.943	36.36
727.126	35.96
727.309	35.83
727.492	35.51
727.675	35.2
727.858	35.45
728.041	35.07
728.224	35.16
728.407	35.75
728.589	35.7
728.772	35.63
728.955	35.51
729.138	35.49
729.321	35.66
729.503	35.6
729.686	35.41
729.869	35.13
730.052	35.6
730.234	35.24
730.417	35.28
730.6	35.41
730.782	35.69
730.965	35.77
731.148	35.73
731.33	35.69
731.513	35.91
731.695	36.58
731.878	36.42
732.061	36.03
732.243	36.33
732.426	36.01
732.608	36.28
732.791	36.22
732.973	36.25
733.156	36.28
733.338	35.99
733.52	36.1
733.703	35.58
733.885	35.79
734.068	35.75
734.25	35.59
734.432	35.62
734.615	35.35
734.797	35.37
734.979	35.54
735.162	35.55
735.344	35.95
735.526	35.84
735.708	36
735.891	35.95
736.073	35.97
736.255	36.35
736.437	35.96
736.619	35.75
736.802	35.87
736.984	35.75
737.166	35.67
737.348	35.77
737.53	35.84
737.712	35.83
737.894	36.12
738.076	36.49
738.258	36.67
738.44	37.26
738.622	37.03
738.804	37.32
738.986	37.07
739.168	37.09
739.35	36.89
739.532	36.73
739.714	36.56
739.896	36.42
740.078	36.13
740.259	35.08
740.441	34.91
740.623	35.44
740.805	35.11
740.987	35.36
741.168	35.68
741.35	35.76
741.532	35.35
741.714	35.41
741.895	35.42
742.077	35.72
742.259	36.53
742.44	36.87
742.622	36.46
742.804	36.29
742.985	36.18
743.167	36.29
743.348	36.65
743.53	36.68
743.711	36.54
743.893	36.68
744.075	37.03
744.256	36.16
744.438	35.96
744.619	35.71
744.8	35.65
744.982	35.43
745.163	35.32
745.345	34.43
745.526	34.64
745.707	35.2
745.889	34.86
746.07	34.36
746.252	34.95
746.433	34.82
746.614	35.34
746.795	34.86
746.977	34.82
747.158	34.48
747.339	34.81
747.52	35.1
747.702	34.15
747.883	34.28
748.064	33.87
748.245	33.59
748.426	33.23
748.607	33.48
748.788	34.29
748.97	34.42
749.151	34.29
749.332	34.41
749.513	33.94
749.694	34.49
749.875	34.53
750.056	35.11
750.237	35.08
750.418	35.14
750.599	34.91
750.78	34.46
750.96	34.81
751.141	34.81
751.322	34.41
751.503	35
751.684	35.6
751.865	35.65
752.046	34.9
752.226	35.7
752.407	35.49
752.588	35.73
752.769	35.74
752.949	35.93
753.13	36.07
753.311	36.13
753.492	35.34
753.672	35.26
753.853	35.3
754.034	35.86
754.214	35.19
754.395	35.8
754.575	35.23
754.756	35.17
754.937	34.86
755.117	34.8
755.298	34.68
755.478	34.64
755.659	34.16
755.839	33.72
756.02	33.44
756.2	33.41
756.381	33.4
756.561	33.73
756.741	33.81
756.922	33.4
757.102	32.99
757.283	33.22
757.463	34.36
757.643	34.08
757.823	34.58
758.004	35.29
758.184	35.64
758.364	34.73
758.545	34.05
758.725	34.08
758.905	34.31
759.085	35.15
759.265	36.27
759.446	35.5
759.626	35.52
759.806	34.63
759.986	33.46
760.166	33.46
760.346	33.94
760.526	34.62
760.706	34.7
760.886	35.13
761.066	34.73
761.246	33.69
761.426	34.08
761.606	34.43
761.786	34.71
761.966	35.66
762.146	35.37
762.326	35.79
762.506	35.67
762.686	35.32
762.866	35.52
763.046	35.7
763.225	35.9
763.405	35.71
763.585	35.55
763.765	35.7
763.945	35.26
764.124	35.41
764.304	34.96
764.484	34.88
764.664	34.94
764.843	34.51
765.023	34.35
765.203	34.39
765.382	34.79
765.562	34.66
765.741	34.58
765.921	34.63
766.101	34.61
766.28	34.56
766.46	35.07
766.639	35.22
766.819	34.68
766.998	34.5
767.178	34.1
767.357	32.77
767.537	33.53
767.716	34.03
767.896	33.93
768.075	34.12
768.254	33.88
768.434	33.01
768.613	32.81
768.792	32.8
768.972	32.89
769.151	32.35
769.33	33.5
769.51	33
769.689	31.87
769.868	31.53
770.047	31.73
770.226	32.11
770.406	32.6
770.585	33.04
770.764	33.19
770.943	33.67
771.122	35.11
771.301	34.59
771.48	34.65
771.66	35.23
771.839	35.87
772.018	35.12
772.197	35.1
772.376	35.11
772.555	35.28
772.734	35.59
772.913	35.07
773.092	34.61
773.271	34.87
773.449	34.61
773.628	34.22
773.807	33.86
773.986	34.21
774.165	34.8
774.344	34.99
774.523	34.14
774.701	34.44
774.88	34.65
775.059	33.27
775.238	33.09
775.417	32.73
775.595	33.34
775.774	32.94
775.953	33.16
776.131	32.98
776.31	32.49
776.489	32.63
776.667	32.34
776.846	32.05
777.025	32.92
777.203	32.3
777.382	32.92
777.56	32.94
777.739	33.67
777.917	33.08
778.096	33.51
778.274	33.77
778.453	33.98
778.631	33.76
778.81	33.82
778.988	34.72
779.166	35.56
779.345	34.76
779.523	34.48
779.702	34.14
779.88	33.67
780.058	33.12
780.237	34.71
780.415	35.11
780.593	35.51
780.771	35.65
780.95	35.47
781.128	34.9
781.306	35.95
781.484	36.06
781.662	35.72
781.841	36.26
782.019	35.81
782.197	34.07
782.375	33.22
782.553	33.37
782.731	33.75
782.909	33.08
783.087	33.02
783.265	32.38
783.443	32.57
783.621	32.54
783.799	31.61
783.977	32.1
784.155	32.74
784.333	32.95
784.511	32.82
784.689	32.23
784.867	33.01
785.045	34.23
785.223	33.66
785.4	33.65
785.578	34.28
785.756	34.93
785.934	34.11
786.112	33.86
786.289	34.57
786.467	34.38
786.645	34.81
786.823	34.32
787	34.13
787.178	34.29
787.356	34.03
787.533	34.83
787.711	35.01
787.889	35.62
788.066	34.75
788.244	34.13
788.421	34.82
788.599	35.15
788.776	34.74
788.954	33.9
789.131	34.8
789.309	34.78
789.486	33.54
789.664	34.13
789.841	34.38
790.019	34.76
790.196	34.74
790.373	33.87
790.551	32.61
790.728	33.14
790.906	33.99
791.083	33.33
791.26	33.22
791.437	33.34
791.615	33.19
791.792	33.01
791.969	32.77
792.146	32.56
792.324	32.09
792.501	33.2
792.678	33.39
792.855	33
793.032	33.54
793.209	34.21
793.387	34.07
793.564	33.07
793.741	33.14
793.918	34.03
794.095	34.63
794.272	35.13
794.449	35.1
794.626	35.36
794.803	35.95
794.98	36.01
795.157	36.3
795.334	37.2
795.511	37.56
795.688	36.52
795.864	36.1
796.041	35.75
796.218	36.36
796.395	36.49
796.572	35.84
796.749	35.62
796.925	34.11
797.102	33.4
797.279	32.7
797.456	32.19
797.632	32.58
797.809	32.41
797.986	32.65
798.162	32.38
798.339	32.14
798.516	31.92
798.692	31.85
798.869	32.71
799.046	33.03
799.222	32.7
799.399	32.89
799.575	33.81
799.752	34.26
799.928	33.64
800.105	33.29
800.281	33.11
800.458	33.02
800.634	32.27
800.811	32.31
800.987	30.9
801.163	31.85
801.34	32.82
801.516	32.16
801.692	31.58
801.869	31.58
802.045	31.89
802.221	31.37
802.398	32.73
802.574	33.46
802.75	33.88
802.926	34.99
803.103	34.65
803.279	34.19
803.455	34.29
803.631	34.09
803.807	34.87
803.983	33.94
804.16	34.72
804.336	33.67
804.512	33.41
804.688	34.49
804.864	34.52
805.04	34.25
805.216	33.1
805.392	33.14
805.568	33.08
805.744	33.58
805.92	33.3
806.096	32.34
806.272	31.93
806.448	32.01
806.623	30.38
806.799	29.72
806.975	29.1
807.151	30.63
807.327	30.74
807.503	31.01
807.678	30.68
807.854	32.83
808.03	33.41
808.206	34.08
808.381	34.52
808.557	34.46
808.733	35.09
808.908	35.87
809.084	35.59
809.26	35.84
809.435	34.32
809.611	33.46
809.787	31.65
809.962	31.12
810.138	31.26
810.313	30.87
810.489	31.31
810.664	31.23
810.84	31.41
811.015	30.77
811.191	29.49
811.366	30.34
811.542	30.65
811.717	31.63
811.892	31.74
812.068	31.77
812.243	31.9
812.419	32.92
812.594	32.6
812.769	32.36
812.944	32.96
813.12	33.15
813.295	34.56
813.47	34.86
813.645	34.29
813.821	34.73
813.996	33.93
814.171	33
814.346	31.17
814.521	30.48
814.697	31.08
814.872	31.17
815.047	32.52
815.222	31.73
815.397	30.87
815.572	30.08
815.747	30.11
815.922	31.93
816.097	32.29
816.272	33.76
816.447	34.73
816.622	34.47
816.797	33.86
816.972	33.04
817.147	33.54
817.322	33.33
817.496	33.64
817.671	34.17
817.846	32.75
818.021	33.75
818.196	31.72
818.371	32.67
818.545	33.38
818.72	34.02
818.895	33.17
819.069	33.87
819.244	35.23
819.419	35.59
819.594	34.68
819.768	34.13
819.943	33.66
820.117	34.38
820.292	33.69
820.467	33.38
820.641	33.37
820.816	34
820.99	33.72
821.165	33.55
821.339	33.34
821.514	33.69
821.688	34.13
821.863	34.28
822.037	34.45
822.212	34.67
822.386	34.68
822.56	34.87
822.735	34.9
822.909	34.82
823.084	34.86
823.258	35.03
823.432	34.89
823.606	34.99
823.781	34.75
823.955	34.8
824.129	34.84
824.303	35.13
824.478	34.82
824.652	34.76
824.826	34.83
825	34.81
825.174	35.07
825.348	34.89
825.523	34.4
825.697	34.4
825.871	33.9
826.045	33.57
826.219	33.4
826.393	33.1
826.567	33.02
826.741	33.38
826.915	33.47
827.089	33.39
827.263	33.61
827.437	33.63
827.611	34.13
827.784	34.22
827.958	33.89
828.132	33.7
828.306	34.39
828.48	34.35
828.654	33.21
828.827	32.06
829.001	32
829.175	31.87
829.349	31.87
829.522	31.04
829.696	31.55
829.87	32.45
830.044	32.31
830.217	31.91
830.391	31.96
830.565	32.89
830.738	34.27
830.912	33.73
831.085	34.72
831.259	33.78
831.432	33.81
831.606	34.08
831.779	32.92
831.953	33.07
832.126	33.04
832.3	33.91
832.473	34.67
832.647	34.59
832.82	34.4
832.994	33.78
833.167	33.69
833.34	33.6
833.514	32.32
833.687	33.08
833.86	32.85
834.034	33.2
834.207	32.69
834.38	32.03
834.553	31.49
834.727	31.94
834.9	31.65
835.073	32.08
835.246	31.96
835.419	33.22
835.593	32.93
835.766	32.85
835.939	32.86
836.112	32.99
836.285	33.41
836.458	35.13
836.631	34.53
836.804	33.23
836.977	33.46
837.15	34.26
837.323	33.13
837.496	32.76
837.669	32.59
837.842	31.02
838.015	29.44
838.188	28.9
838.361	27.78
838.533	27.13
838.706	29.14
838.879	29.17
839.052	28.74
839.225	29.59
839.398	31.46
839.57	31.94
839.743	32.18
839.916	33.68
840.088	32.82
840.261	32.06
840.434	32.48
840.607	33.33
840.779	33.39
840.952	32.34
841.124	32.38
841.297	31.46
841.47	31.33
841.642	31.62
841.815	30.36
841.987	31.04
842.16	30.27
842.332	31.06
842.505	31.68
842.677	31.64
842.85	29.68
843.022	29.6
843.194	28.56
843.367	28.88
843.539	29.73
843.712	30.75
843.884	31.8
844.056	34.93
844.229	32.24
844.401	30.35
844.573	31.81
844.745	35.52
844.918	34.96
845.09	35.74
845.262	34.75
845.434	35.45
845.606	37.53
845.779	36.31
845.951	33.26
846.123	35.7
846.295	32.59
846.467	29.69
846.639	27.94
846.811	25.25
846.983	24.17
847.155	24.04
847.327	22.64
847.499	19.73
847.671	18.93
847.843	17.21
848.015	18.95
848.187	23.78
848.359	24.61
848.531	27.05
848.703	30.51
848.875	32.63
849.047	32.62
849.218	30.2
849.39	28.78
849.562	28.04
849.734	31.16
849.905	29.84
850.077	26.94
850.249	25.11
850.421	23.44
850.592	24.12
850.764	21.9
850.936	19.25
851.107	20.34
851.279	18.76
851.451	23.78
851.622	21.69
851.794	23
851.965	23.78
852.137	28.25
852.308	29.99
852.48	27.31
852.651	27.46
852.823	30.46
852.994	30.18
853.166	35.8
853.337	34.85
853.509	35.11
853.68	35.52
853.851	40.71
854.023	39
854.194	40.78
854.365	41.12
854.537	41.7
854.708	41.45
854.879	45.5
855.05	45.04
855.222	42.39
855.393	40.96
855.564	43.51
855.735	40.03
855.906	43.31
856.078	40.37
856.249	37.74
856.42	39.06
856.591	37.17
856.762	33.82
856.933	34.4
857.104	35.01
857.275	37.11
857.446	30.56
857.617	26.99
857.788	23.8
857.959	26.02
858.13	29.56
858.301	28.76
858.472	28.98
858.643	28.1
858.814	26.64
858.985	26.24
859.155	25.59
859.326	26.89
859.497	28.03
859.668	29.93
859.839	27.69
860.009	26.32
860.18	25.8
860.351	27.16
860.522	30.45
860.692	30.3
860.863	32.76
861.034	32.82
861.204	33.14
861.375	35.74
861.546	33.8
861.716	36.15
861.887	35.35
862.057	33.04
862.228	33.05
862.398	32.47
862.569	30.95
862.739	28.85
862.91	32.09
863.08	34.75
863.251	35.76
863.421	35.79
863.592	33.01
863.762	31.4
863.932	32.3
864.103	32.22
864.273	31.26
864.443	31.79
864.614	32.22
864.784	30.8
864.954	26.54
865.125	26.69
865.295	27.15
865.465	27.51
865.635	27.49
865.805	27.86
865.976	27.41
866.146	28.74
866.316	27.54
866.486	25.04
866.656	22.35
866.826	25.78
866.996	19.18
867.166	19.33
867.336	21.26
867.506	23.43
867.676	25.72
867.846	27.51
868.016	29.15
868.186	29.57
868.356	31.43
868.526	32.74
868.696	33.34
868.866	37.79
869.036	37.1
869.206	33.76
869.376	36.7
869.545	36.28
869.715	33.05
869.885	27.28
870.055	25.11
870.224	24.86
870.394	24.64
870.564	23.73
870.734	25.21
870.903	25.56
871.073	26.1
871.243	22.68
871.412	22.59
871.582	24.92
871.751	25.85
871.921	33.49
872.091	34.76
872.26	34.39
872.43	30.51
872.599	28.68
872.769	26.72
872.938	27.05
873.108	28.76
873.277	27.64
873.446	28.92
873.616	32.47
873.785	28.27
873.955	26.83
874.124	28.98
874.293	33.1
874.463	32.1
874.632	31.52
874.801	31.62
874.971	29.25
875.14	29.64
875.309	24.8
875.478	26.31
875.647	31.14
875.817	31.35
875.986	27.42
876.155	28.34
876.324	26.31
876.493	30.8
876.662	36.24
876.831	34.32
877	31.13
877.17	34.76
877.339	33.58
877.508	29.06
877.677	25.52
877.846	26.32
878.015	25.86
878.184	26.1
878.352	27.26
878.521	24.93
878.69	27.14
878.859	30.23
879.028	30.23
879.197	30.17
879.366	31.67
879.534	34.1
879.703	32.96
879.872	32.49
880.041	31.99
880.21	30.65
880.378	30.58
880.547	31.56
880.716	31.35
880.884	31.68
881.053	31.21
881.222	30.38
881.39	30.41
881.559	30.9
881.727	30.61
881.896	31.24
882.065	32.32
882.233	32.29
882.402	32.86
882.57	32.55
882.739	32.1
882.907	32.34
883.076	32.55
883.244	32.63
883.412	33.11
883.581	33.72
883.749	34.39
883.918	33.12
884.086	33.25
884.254	31.82
884.423	32.85
884.591	32.55
884.759	31.83
884.927	31.91
885.096	32.13
885.264	32.29
885.432	31.96
885.6	31.4
885.769	31.21
885.937	30.08
886.105	31.36
886.273	30.59
886.441	30.6
886.609	30.61
886.777	30.69
886.945	28.76
887.113	27.56
887.281	27.15
887.449	26.52
887.617	28.5
887.785	29.24
887.953	29.19
888.121	26.52
888.289	27.36
888.457	24.43
888.625	24.6
888.793	27.76
888.961	29.57
889.129	30.66
889.296	30.46
889.464	28.2
889.632	29.35
889.8	27.27
889.967	29.85
890.135	30.73
