Data from 2938440_Reflection_3.txt Node
Date: Fri Jun 19 18:24:34 EDT 2015
User: robert
Spectrometer: USB4E03002
Autoset integration time: false
Trigger mode: 4
Integration Time (sec): 1.000000E-1
Scans to average: 10
Electric dark correction enabled: true
Nonlinearity correction enabled: false
Boxcar width: 5
Stray light correction enabled: false
XAxis mode: Wavelengths
Stop averaging: false
Number of Pixels in Spectrum: 3648
>>>>>Begin Spectral Data<<<<<
177.575	54.29
177.794	85.79
178.014	61.16
178.233	38.07
178.452	38.62
178.672	34.82
178.891	-33.98
179.11	67.21
179.33	59.7
179.549	56.47
179.768	55.48
179.987	63.1
180.207	108.2
180.426	81.59
180.645	69.72
180.864	67.16
181.084	63.76
181.303	76.68
181.522	80.53
181.741	86.18
181.96	86.72
182.179	89.88
182.398	75.44
182.618	65.35
182.837	61.13
183.056	64.82
183.275	70.04
183.494	79.41
183.713	72.84
183.932	83.04
184.151	57.74
184.37	59.16
184.589	61.41
184.808	68.28
185.027	70.17
185.246	75.09
185.465	81.78
185.684	76.95
185.903	68.65
186.122	67.13
186.341	61.22
186.56	80.07
186.779	58.92
186.998	53.89
187.216	61.13
187.435	52.86
187.654	67.04
187.873	63.58
188.092	57.2
188.311	65.38
188.53	64.22
188.748	66.51
188.967	61.53
189.186	88.79
189.405	86.42
189.623	95.36
189.842	117.74
190.061	120.68
190.28	127.15
190.498	144.04
190.717	169.2
190.936	149.64
191.154	145.99
191.373	138.42
191.592	137.34
191.81	126.79
192.029	100.78
192.248	81.99
192.466	48.12
192.685	21.25
192.904	13.66
193.122	29.22
193.341	57.07
193.559	69.63
193.778	137.17
193.996	122.13
194.215	127.13
194.433	139.4
194.652	93.12
194.87	122.14
195.089	146.92
195.307	114.09
195.526	111.5
195.744	75.55
195.963	66.76
196.181	43.29
196.399	46.96
196.618	55.65
196.836	44.46
197.055	56.48
197.273	43.96
197.491	32.51
197.71	47.02
197.928	53.71
198.146	59.96
198.365	70.84
198.583	81.97
198.801	82.96
199.019	87.83
199.238	96.85
199.456	93.15
199.674	96.61
199.892	95.7
200.111	92.81
200.329	93.63
200.547	97.62
200.765	101.17
200.983	91.8
201.202	93.93
201.42	93.22
201.638	95.46
201.856	95.97
202.074	87.1
202.292	91.12
202.51	84.26
202.728	93.63
202.946	103.14
203.165	87.16
203.383	89.58
203.601	87.42
203.819	81.44
204.037	83.9
204.255	68.94
204.473	67.66
204.691	65.51
204.909	72.35
205.127	70.51
205.345	59.06
205.562	74.6
205.78	89.67
205.998	80.5
206.216	84.96
206.434	91.63
206.652	98.85
206.87	126.08
207.088	124.62
207.306	120.94
207.523	120.83
207.741	141.84
207.959	143.96
208.177	116.26
208.395	103.01
208.612	87.63
208.83	74.62
209.048	65.83
209.266	56.9
209.483	62.81
209.701	69.54
209.919	63.87
210.136	67.99
210.354	60.46
210.572	57.67
210.79	56.68
211.007	61.4
211.225	53.31
211.442	52.3
211.66	49.48
211.878	44.59
212.095	92.42
212.313	95.13
212.53	94.6
212.748	116.73
212.966	108.76
213.183	123.73
213.401	120.9
213.618	139.12
213.836	151.84
214.053	180.5
214.271	181.53
214.488	68.77
214.705	76.93
214.923	79.84
215.14	69.34
215.358	77.6
215.575	66.85
215.793	74.92
216.01	75.95
216.227	77.41
216.445	67.9
216.662	64.23
216.879	70.22
217.097	65.28
217.314	57.34
217.531	52.28
217.749	52.85
217.966	55.96
218.183	48.12
218.4	58.52
218.618	57.97
218.835	52.67
219.052	50.14
219.269	52.15
219.487	47.2
219.704	41.58
219.921	52.99
220.138	50.94
220.355	52.94
220.572	53.64
220.79	45.91
221.007	42.12
221.224	48.24
221.441	52.28
221.658	55.75
221.875	53.37
222.092	58.18
222.309	50.72
222.526	52.98
222.743	49.21
222.96	44.51
223.177	42.93
223.394	46.89
223.611	39.96
223.828	36.85
224.045	33.59
224.262	33.79
224.479	35.46
224.696	37.33
224.913	30.3
225.13	32.8
225.347	32.26
225.564	30.1
225.781	29.35
225.997	32.29
226.214	30.64
226.431	29.25
226.648	28.45
226.865	26.81
227.082	25.16
227.298	26.32
227.515	24.83
227.732	24.07
227.949	24.83
228.165	23.7
228.382	21.86
228.599	22.37
228.816	22.46
229.032	23.42
229.249	24.53
229.466	23.8
229.682	22.64
229.899	22.61
230.116	23.9
230.332	23.34
230.549	22.59
230.765	24.05
230.982	21.8
231.199	20.72
231.415	20.51
231.632	17.79
231.848	18.26
232.065	20.11
232.281	18.42
232.498	20.11
232.714	19.01
232.931	21.16
233.147	22.02
233.364	22.58
233.58	26.41
233.797	29.39
234.013	29.38
234.23	29.42
234.446	27.82
234.662	29.58
234.879	26.69
235.095	26.8
235.312	25.81
235.528	25.37
235.744	22.65
235.961	20.9
236.177	17.15
236.393	16.28
236.61	17.42
236.826	19.86
237.042	17.07
237.258	21.26
237.475	21.67
237.691	21.56
237.907	21.8
238.123	24.64
238.339	22.84
238.556	26.12
238.772	25.97
238.988	25.71
239.204	23.08
239.42	22.98
239.636	21.36
239.853	21.52
240.069	20.88
240.285	20.27
240.501	19.33
240.717	19.07
240.933	17.07
241.149	17.12
241.365	16.86
241.581	17.22
241.797	18.05
242.013	18.54
242.229	18.73
242.445	19.8
242.661	20.05
242.877	20.35
243.093	20.16
243.309	19.34
243.525	19.81
243.741	19.48
243.957	18.58
244.173	17.35
244.388	16.23
244.604	15.16
244.82	14.49
245.036	13.82
245.252	13.27
245.468	13
245.683	12.61
245.899	12.63
246.115	12.18
246.331	12.11
246.547	12.2
246.762	12.32
246.978	12.55
247.194	12.49
247.409	13.75
247.625	14.1
247.841	13.86
248.057	14.51
248.272	13.24
248.488	14.23
248.703	15.14
248.919	15.74
249.135	15.07
249.35	14.72
249.566	15
249.782	13.93
249.997	13.98
250.213	13.83
250.428	13.64
250.644	14.69
250.859	14.03
251.075	13.45
251.29	12.66
251.506	12.56
251.721	12.85
251.937	11.96
252.152	11.99
252.368	11.41
252.583	12.91
252.798	13.86
253.014	13.69
253.229	13.05
253.445	12.84
253.66	13.17
253.875	14.43
254.091	13.24
254.306	14.71
254.521	14.17
254.737	14.38
254.952	14.11
255.167	13.26
255.383	13.71
255.598	13.86
255.813	14.35
256.028	14.68
256.244	13.49
256.459	13.18
256.674	11.89
256.889	11.7
257.104	11.53
257.32	11.39
257.535	10.65
257.75	10.16
257.965	10.17
258.18	9.68
258.395	9.28
258.61	9.34
258.826	9.42
259.041	9.42
259.256	9.32
259.471	9.66
259.686	9.37
259.901	9.75
260.116	10.13
260.331	9.91
260.546	10.46
260.761	10.79
260.976	11.36
261.191	11.71
261.406	12.47
261.621	12.25
261.836	11.77
262.05	11.69
262.265	12.45
262.48	11.74
262.695	12.31
262.91	13.13
263.125	12.42
263.34	11.1
263.555	10.37
263.769	8.96
263.984	10.03
264.199	9.77
264.414	9.49
264.629	9.58
264.843	10.62
265.058	10.87
265.273	9.72
265.488	10.63
265.702	10.94
265.917	10.63
266.132	12.01
266.346	11.37
266.561	11.39
266.776	11.59
266.99	11.44
267.205	10.69
267.42	10.67
267.634	10.99
267.849	10.22
268.063	11.13
268.278	11.7
268.492	10.98
268.707	10.61
268.922	11.27
269.136	11.83
269.351	11.99
269.565	11.55
269.78	11
269.994	11.26
270.209	11.21
270.423	10.61
270.637	11.08
270.852	11.13
271.066	12.29
271.281	12.52
271.495	12.43
271.709	12.31
271.924	12.54
272.138	12.71
272.353	12.82
272.567	13.58
272.781	14.16
272.996	13.67
273.21	13.64
273.424	12.38
273.638	12.15
273.853	12.69
274.067	13.17
274.281	13.21
274.495	13.57
274.71	12.57
274.924	12.21
275.138	11.3
275.352	12.53
275.566	12.38
275.781	12.75
275.995	12.78
276.209	12.08
276.423	12.02
276.637	12.76
276.851	11.97
277.065	12.7
277.279	13.52
277.493	13.68
277.707	12.88
277.921	13.3
278.135	13.96
278.349	14.33
278.563	14.18
278.777	13.59
278.991	12.91
279.205	13.38
279.419	13.27
279.633	12.17
279.847	12.46
280.061	12.34
280.275	12.75
280.489	12.95
280.703	13.05
280.917	12.87
281.131	12.63
281.344	13.02
281.558	13.11
281.772	12.84
281.986	13.58
282.2	13.77
282.414	13.12
282.627	12.17
282.841	11.58
283.055	10.49
283.269	10.3
283.482	10.21
283.696	9.81
283.91	9.47
284.123	9.84
284.337	9.45
284.551	8.97
284.764	9.09
284.978	9.39
285.192	9.38
285.405	9.33
285.619	9.05
285.833	9.41
286.046	9.28
286.26	9.94
286.473	9.75
286.687	9.72
286.9	10.17
287.114	10.96
287.327	11.81
287.541	11.54
287.754	11.76
287.968	12.4
288.181	12.73
288.395	13.25
288.608	12.85
288.822	13.21
289.035	13.43
289.248	13.3
289.462	13.11
289.675	12.59
289.889	13.24
290.102	13.42
290.315	13.43
290.529	12.99
290.742	12.99
290.955	13.53
291.169	13.25
291.382	13.23
291.595	13.92
291.808	13.45
292.022	13.93
292.235	13.48
292.448	13.64
292.661	13.83
292.875	13.45
293.088	13.29
293.301	13.49
293.514	13.6
293.727	13.21
293.94	12.62
294.153	13.23
294.367	13.15
294.58	13.31
294.793	12.88
295.006	13.18
295.219	13.74
295.432	14.15
295.645	13.68
295.858	13.76
296.071	13.21
296.284	13.43
296.497	12.96
296.71	12.67
296.923	13.03
297.136	13.73
297.349	13.59
297.562	13.4
297.775	13.06
297.988	12.83
298.201	12.19
298.414	12.63
298.626	12.36
298.839	12.44
299.052	12.61
299.265	11.38
299.478	10.27
299.691	10.57
299.903	10.51
300.116	10.26
300.329	11.17
300.542	12.15
300.755	12.75
300.967	13.48
301.18	14.26
301.393	14.66
301.605	15.78
301.818	16.02
302.031	15.65
302.243	15.83
302.456	16.2
302.669	16.12
302.881	15.77
303.094	16.07
303.307	15.49
303.519	15.04
303.732	13.96
303.944	14.25
304.157	14.92
304.37	15.21
304.582	15.85
304.795	15.39
305.007	15.22
305.22	14.86
305.432	14.58
305.645	15.3
305.857	15.2
306.069	16.25
306.282	16.04
306.494	16.26
306.707	15.79
306.919	14.85
307.132	15.9
307.344	16.39
307.556	16.5
307.769	16.34
307.981	15.95
308.193	15.9
308.406	15.98
308.618	16.02
308.83	15.85
309.043	16.43
309.255	17.2
309.467	16.57
309.679	16.05
309.892	15.98
310.104	16.35
310.316	16.55
310.528	16.96
310.74	16.88
310.953	16.47
311.165	15.92
311.377	15.89
311.589	15.76
311.801	15.64
312.013	15.57
312.225	16.09
312.437	16.18
312.649	15.94
312.862	15.89
313.074	15.37
313.286	15.7
313.498	16.51
313.71	16.32
313.922	15.65
314.134	16.49
314.346	16.74
314.558	17.03
314.77	17.09
314.982	17.53
315.193	17.64
315.405	17.31
315.617	16.38
315.829	16.37
316.041	16.06
316.253	16.41
316.465	16.17
316.677	15.73
316.888	15.49
317.1	15.33
317.312	15.25
317.524	15.24
317.736	15.9
317.947	16.91
318.159	17.39
318.371	18.77
318.583	18.5
318.794	18.25
319.006	19.03
319.218	18.98
319.43	19.49
319.641	19.85
319.853	19.39
320.064	19.95
320.276	20.19
320.488	20.54
320.699	19.17
320.911	19.04
321.123	19.14
321.334	18.37
321.546	18.85
321.757	18.57
321.969	18.31
322.18	18.28
322.392	18
322.603	18.07
322.815	17.83
323.026	18.26
323.238	18.83
323.449	19.28
323.661	19.53
323.872	19.46
324.083	19.57
324.295	20.52
324.506	21.53
324.718	21.22
324.929	21.48
325.14	22.02
325.352	22.33
325.563	22.42
325.774	22.38
325.986	23.08
326.197	22.77
326.408	23.46
326.62	22.43
326.831	22.39
327.042	22.52
327.253	22.79
327.464	21.9
327.676	22.01
327.887	22.11
328.098	22.67
328.309	22.46
328.52	22.35
328.732	22.57
328.943	22.55
329.154	22.31
329.365	22.97
329.576	22.56
329.787	23.48
329.998	23.49
330.209	23.97
330.42	23.9
330.631	24.14
330.842	25.18
331.053	24.79
331.264	25.61
331.475	26
331.686	26.68
331.897	26.73
332.108	26.38
332.319	26.19
332.53	26.3
332.741	25.96
332.952	26.26
333.163	25.6
333.374	25.43
333.585	25.09
333.795	24.73
334.006	24.65
334.217	24.95
334.428	24.68
334.639	24.6
334.849	24.45
335.06	24.43
335.271	24.48
335.482	24.69
335.692	24.26
335.903	24.68
336.114	25.2
336.325	24.95
336.535	25.28
336.746	25.45
336.957	25.89
337.167	26.05
337.378	26.57
337.589	26.61
337.799	26.57
338.01	27.35
338.22	26.97
338.431	26.78
338.642	26.04
338.852	25.79
339.063	25.8
339.273	25.79
339.484	25.92
339.694	25.8
339.905	25.65
340.115	26.04
340.326	25.71
340.536	26.33
340.746	26.81
340.957	27.26
341.167	27.71
341.378	27.89
341.588	28.42
341.799	28.27
342.009	28.08
342.219	27.97
342.43	27.7
342.64	27.83
342.85	27.14
343.061	27.03
343.271	26.72
343.481	26.54
343.691	26.46
343.902	25.82
344.112	26.1
344.322	26.06
344.532	25.67
344.743	26.15
344.953	26.07
345.163	26.51
345.373	25.61
345.583	25.86
345.793	25.83
346.004	25.95
346.214	25.64
346.424	25.26
346.634	25.59
346.844	25.54
347.054	24.62
347.264	24.46
347.474	24.42
347.684	24.45
347.894	24.62
348.104	24.54
348.314	24.89
348.524	25.65
348.734	25.56
348.944	25.3
349.154	25.21
349.364	26.04
349.574	25.83
349.784	25.5
349.994	25.45
350.204	25.28
350.413	25.11
350.623	24.81
350.833	24.26
351.043	24.03
351.253	23.86
351.463	24.18
351.672	23.76
351.882	24.01
352.092	24.42
352.302	25.1
352.511	24.93
352.721	24.55
352.931	24.59
353.141	24.81
353.35	25
353.56	24.76
353.77	25
353.979	24.93
354.189	24.87
354.399	24.25
354.608	24.22
354.818	23.77
355.027	23.84
355.237	23.76
355.447	23.3
355.656	23.2
355.866	23.07
356.075	22.94
356.285	22.98
356.494	23.09
356.704	22.8
356.913	22.19
357.123	22.53
357.332	22.2
357.542	21.95
357.751	22.3
357.96	22.37
358.17	22.35
358.379	22.14
358.589	22.17
358.798	21.73
359.007	22.41
359.217	22.8
359.426	22.74
359.635	22.51
359.845	22.38
360.054	22.14
360.263	22.07
360.472	22.38
360.682	22.38
360.891	22.28
361.1	22.61
361.309	22.4
361.519	22.15
361.728	21.97
361.937	22.42
362.146	22.15
362.355	22.26
362.564	22.26
362.774	22.02
362.983	22.25
363.192	22.05
363.401	21.61
363.61	20.89
363.819	20.81
364.028	21.11
364.237	20.8
364.446	21.69
364.655	21.91
364.864	21.53
365.073	21.56
365.282	21.01
365.491	20.98
365.7	21.16
365.909	21.26
366.118	21.64
366.327	21.21
366.536	21.52
366.745	20.9
366.954	20.68
367.162	20.91
367.371	20.55
367.58	20.72
367.789	20.58
367.998	20.2
368.207	20.74
368.415	20.49
368.624	20.67
368.833	20.33
369.042	20.32
369.25	19.8
369.459	19.98
369.668	19.69
369.877	19.21
370.085	19.24
370.294	19.32
370.503	18.7
370.711	18.44
370.92	18.03
371.129	17.94
371.337	17.94
371.546	18.16
371.754	17.58
371.963	18.1
372.171	18.49
372.38	18.62
372.589	18.79
372.797	19.13
373.006	18.98
373.214	19.56
373.423	19.61
373.631	19.04
373.84	18.72
374.048	18.58
374.256	18.18
374.465	17.93
374.673	17.17
374.882	17.08
375.09	17.26
375.298	17.34
375.507	17.09
375.715	16.72
375.923	17.03
376.132	16.92
376.34	16.97
376.548	16.63
376.757	16.82
376.965	17.51
377.173	17.22
377.381	16.58
377.59	16.46
377.798	16.23
378.006	16.35
378.214	16.21
378.423	16.23
378.631	16.28
378.839	16.61
379.047	16.42
379.255	16.2
379.463	16.14
379.671	16.35
379.879	15.88
380.088	15.51
380.296	15.35
380.504	14.98
380.712	14.93
380.92	14.87
381.128	14.36
381.336	14.11
381.544	13.61
381.752	13.49
381.96	13.44
382.168	14.14
382.376	14.31
382.584	14.4
382.791	14.61
382.999	14.71
383.207	14.43
383.415	14.86
383.623	15
383.831	15.07
384.039	14.91
384.247	14.76
384.454	14.28
384.662	13.91
384.87	13.36
385.078	13
385.285	12.62
385.493	12.75
385.701	12.56
385.909	12.31
386.116	12.12
386.324	12.31
386.532	11.96
386.739	11.8
386.947	12.06
387.155	12.17
387.362	12.1
387.57	12.01
387.778	11.63
387.985	11.27
388.193	10.98
388.4	11.07
388.608	10.73
388.816	10.84
389.023	10.91
389.231	10.43
389.438	10.3
389.646	10.33
389.853	10.21
390.061	10.13
390.268	10.08
390.475	10.07
390.683	9.88
390.89	9.78
391.098	9.58
391.305	9.39
391.512	9.6
391.72	9.58
391.927	9.36
392.135	9.38
392.342	9.28
392.549	9.24
392.756	9.35
392.964	9.28
393.171	9.41
393.378	9.47
393.586	9.36
393.793	9.4
394	9.39
394.207	9.38
394.414	9.42
394.622	9.52
394.829	9.48
395.036	9.26
395.243	9.02
395.45	8.88
395.657	8.65
395.864	8.68
396.072	8.37
396.279	8.51
396.486	8.4
396.693	8.17
396.9	8.2
397.107	8.14
397.314	8.1
397.521	8.19
397.728	8.3
397.935	8.17
398.142	8.16
398.349	8.15
398.556	8.07
398.763	8.27
398.97	8.2
399.177	8.09
399.383	8.01
399.59	8.15
399.797	8.14
400.004	7.83
400.211	8.04
400.418	8.09
400.625	7.99
400.831	7.94
401.038	7.87
401.245	8.08
401.452	8.01
401.658	7.93
401.865	7.82
402.072	7.95
402.279	8.01
402.485	7.98
402.692	7.91
402.899	7.97
403.105	7.88
403.312	7.83
403.519	7.62
403.725	7.48
403.932	7.68
404.138	7.66
404.345	7.47
404.552	7.29
404.758	7.32
404.965	7.24
405.171	7.22
405.378	7.13
405.584	7.04
405.791	6.99
405.997	7.06
406.204	7.02
406.41	7.14
406.617	7.32
406.823	7.54
407.029	7.41
407.236	7.37
407.442	7.65
407.649	7.63
407.855	7.58
408.061	7.66
408.268	7.71
408.474	7.5
408.68	7.22
408.887	7.13
409.093	7.15
409.299	7.21
409.505	7.11
409.712	6.82
409.918	6.76
410.124	6.82
410.33	6.62
410.537	6.52
410.743	6.71
410.949	6.74
411.155	6.75
411.361	6.53
411.567	6.51
411.773	6.61
411.98	6.62
412.186	6.69
412.392	6.73
412.598	6.7
412.804	6.86
413.01	6.81
413.216	7.02
413.422	7
413.628	7.03
413.834	6.84
414.04	6.84
414.246	6.87
414.452	6.84
414.658	6.76
414.864	6.96
415.07	6.7
415.275	6.65
415.481	6.55
415.687	6.53
415.893	6.68
416.099	6.75
416.305	6.7
416.511	6.57
416.716	6.46
416.922	6.41
417.128	6.38
417.334	6.47
417.539	6.35
417.745	6.27
417.951	6.16
418.157	6.01
418.362	5.96
418.568	5.87
418.774	5.93
418.979	5.98
419.185	5.96
419.391	5.95
419.596	5.96
419.802	5.98
420.008	6.03
420.213	6.1
420.419	6.15
420.624	6.22
420.83	6.28
421.035	6.24
421.241	6.23
421.446	6.14
421.652	6.09
421.857	6.04
422.063	6
422.268	5.93
422.474	5.87
422.679	5.78
422.885	5.72
423.09	5.66
423.295	5.56
423.501	5.55
423.706	5.59
423.911	5.56
424.117	5.52
424.322	5.52
424.527	5.43
424.733	5.37
424.938	5.41
425.143	5.38
425.349	5.38
425.554	5.45
425.759	5.49
425.964	5.57
426.169	5.54
426.375	5.58
426.58	5.59
426.785	5.71
426.99	5.69
427.195	5.66
427.4	5.72
427.605	5.76
427.811	5.79
428.016	5.72
428.221	5.67
428.426	5.69
428.631	5.78
428.836	5.7
429.041	5.68
429.246	5.68
429.451	5.66
429.656	5.67
429.861	5.69
430.066	5.68
430.271	5.69
430.476	5.75
430.681	5.76
430.886	5.64
431.09	5.66
431.295	5.65
431.5	5.66
431.705	5.7
431.91	5.71
432.115	5.64
432.32	5.56
432.524	5.58
432.729	5.51
432.934	5.48
433.139	5.47
433.343	5.45
433.548	5.43
433.753	5.51
433.958	5.49
434.162	5.46
434.367	5.47
434.572	5.51
434.776	5.44
434.981	5.39
435.186	5.38
435.39	5.44
435.595	5.45
435.799	5.48
436.004	5.39
436.209	5.5
436.413	5.49
436.618	5.42
436.822	5.45
437.027	5.43
437.231	5.4
437.436	5.43
437.64	5.35
437.845	5.29
438.049	5.28
438.253	5.22
438.458	5.13
438.662	5.11
438.867	5.16
439.071	5.11
439.275	5.14
439.48	5.27
439.684	5.26
439.888	5.3
440.093	5.35
440.297	5.29
440.501	5.36
440.706	5.36
440.91	5.36
441.114	5.28
441.318	5.25
441.523	5.29
441.727	5.17
441.931	5.13
442.135	5.13
442.339	5.16
442.543	5.14
442.748	5.08
442.952	5.1
443.156	5.01
443.36	5.16
443.564	5.21
443.768	5.17
443.972	5.2
444.176	5.21
444.38	5.17
444.584	5.17
444.788	5.19
444.992	5.2
445.196	5.23
445.4	5.24
445.604	5.11
445.808	5.06
446.012	5.1
446.216	5.01
446.42	4.96
446.624	4.95
446.828	4.95
447.032	4.89
447.235	4.89
447.439	4.87
447.643	4.9
447.847	4.97
448.051	5.03
448.254	4.93
448.458	5.03
448.662	5.1
448.866	5.07
449.069	5
449.273	5.15
449.477	5.16
449.681	5.12
449.884	5.11
450.088	5.08
450.292	5.02
450.495	5.05
450.699	5.08
450.902	5.08
451.106	5.11
451.31	5.16
451.513	5.07
451.717	5.08
451.92	5.12
452.124	5.12
452.327	5.09
452.531	5.12
452.734	5.2
452.938	5.22
453.141	5.18
453.345	5.12
453.548	5.15
453.752	5.16
453.955	5.2
454.158	5.09
454.362	5.2
454.565	5.33
454.769	5.27
454.972	5.19
455.175	5.11
455.379	5.15
455.582	5.18
455.785	5.02
455.988	5
456.192	4.93
456.395	4.98
456.598	4.91
456.801	4.83
457.005	4.74
457.208	4.68
457.411	4.64
457.614	4.66
457.817	4.7
458.021	4.72
458.224	4.73
458.427	4.73
458.63	4.71
458.833	4.7
459.036	4.66
459.239	4.8
459.442	4.87
459.645	4.9
459.848	4.83
460.051	4.87
460.254	4.86
460.457	4.92
460.66	4.98
460.863	5.01
461.066	5.04
461.269	5.08
461.472	5.06
461.675	5.06
461.878	5.1
462.081	5.14
462.284	5.11
462.486	5.19
462.689	5.19
462.892	5.16
463.095	5.07
463.298	4.97
463.5	5.05
463.703	5.04
463.906	5.01
464.109	5.04
464.311	5.1
464.514	5.1
464.717	5.02
464.92	5.04
465.122	4.97
465.325	5.03
465.528	5.12
465.73	5.05
465.933	4.95
466.135	5.03
466.338	5.02
466.541	5.01
466.743	5
466.946	5.12
467.148	5.04
467.351	5.16
467.553	5.2
467.756	5.18
467.958	5.14
468.161	5.34
468.363	5.3
468.566	5.25
468.768	5.24
468.971	5.21
469.173	5.17
469.375	5.17
469.578	5.11
469.78	4.98
469.983	4.91
470.185	4.97
470.387	4.81
470.59	4.7
470.792	4.71
470.994	4.64
471.196	4.69
471.399	4.64
471.601	4.65
471.803	4.62
472.005	4.74
472.208	4.86
472.41	4.9
472.612	4.88
472.814	4.92
473.016	4.93
473.218	5.04
473.421	5.06
473.623	5.15
473.825	5.23
474.027	5.3
474.229	5.3
474.431	5.29
474.633	5.27
474.835	5.33
475.037	5.41
475.239	5.44
475.441	5.37
475.643	5.29
475.845	5.2
476.047	5.1
476.249	5.07
476.451	4.99
476.653	4.98
476.855	4.99
477.057	5.04
477.258	4.99
477.46	5.08
477.662	5.13
477.864	5.1
478.066	5.11
478.268	5.17
478.469	5.19
478.671	5.21
478.873	5.17
479.075	5.13
479.276	5.09
479.478	5.1
479.68	5
479.882	4.97
480.083	5
480.285	5
480.487	4.92
480.688	4.87
480.89	4.84
481.091	4.83
481.293	4.82
481.495	4.83
481.696	4.76
481.898	4.75
482.099	4.7
482.301	4.68
482.502	4.68
482.704	4.68
482.905	4.7
483.107	4.72
483.308	4.72
483.51	4.73
483.711	4.72
483.913	4.77
484.114	4.77
484.315	4.83
484.517	4.89
484.718	4.9
484.92	4.92
485.121	4.92
485.322	4.91
485.524	4.93
485.725	4.92
485.926	4.93
486.127	4.91
486.329	4.89
486.53	4.89
486.731	4.84
486.932	4.82
487.134	4.82
487.335	4.83
487.536	4.85
487.737	4.8
487.938	4.82
488.139	4.8
488.341	4.85
488.542	4.89
488.743	4.91
488.944	4.95
489.145	5.02
489.346	5.04
489.547	5.03
489.748	5
489.949	4.97
490.15	4.96
490.351	4.93
490.552	4.9
490.753	4.87
490.954	4.85
491.155	4.85
491.356	4.85
491.557	4.87
491.758	4.88
491.959	4.95
492.159	5.05
492.36	5.08
492.561	5.15
492.762	5.19
492.963	5.24
493.164	5.32
493.364	5.38
493.565	5.44
493.766	5.37
493.967	5.4
494.167	5.34
494.368	5.32
494.569	5.32
494.769	5.29
494.97	5.26
495.171	5.27
495.371	5.24
495.572	5.19
495.773	5.15
495.973	5.25
496.174	5.22
496.375	5.21
496.575	5.24
496.776	5.25
496.976	5.23
497.177	5.28
497.377	5.35
497.578	5.4
497.778	5.49
497.979	5.5
498.179	5.47
498.38	5.55
498.58	5.6
498.78	5.63
498.981	5.7
499.181	5.76
499.382	5.75
499.582	5.72
499.782	5.65
499.983	5.71
500.183	5.74
500.383	5.8
500.584	5.8
500.784	5.78
500.984	5.8
501.184	5.82
501.385	5.88
501.585	5.91
501.785	5.98
501.985	6.14
502.185	6.13
502.386	6.16
502.586	6.22
502.786	6.21
502.986	6.29
503.186	6.26
503.386	6.27
503.586	6.36
503.786	6.38
503.987	6.37
504.187	6.33
504.387	6.34
504.587	6.45
504.787	6.42
504.987	6.46
505.187	6.52
505.387	6.74
505.587	6.74
505.786	6.77
505.986	6.76
506.186	6.87
506.386	6.92
506.586	6.84
506.786	6.8
506.986	6.81
507.186	6.82
507.386	6.82
507.585	6.72
507.785	6.82
507.985	6.8
508.185	6.91
508.384	6.92
508.584	6.98
508.784	7.15
508.984	7.23
509.183	7.32
509.383	7.4
509.583	7.45
509.782	7.51
509.982	7.48
510.182	7.56
510.381	7.59
510.581	7.6
510.781	7.6
510.98	7.6
511.18	7.59
511.379	7.64
511.579	7.74
511.778	7.86
511.978	7.94
512.177	7.93
512.377	8
512.576	8.09
512.776	8.17
512.975	8.23
513.175	8.28
513.374	8.28
513.573	8.34
513.773	8.34
513.972	8.38
514.172	8.41
514.371	8.49
514.57	8.53
514.77	8.46
514.969	8.48
515.168	8.48
515.367	8.56
515.567	8.61
515.766	8.58
515.965	8.63
516.164	8.56
516.364	8.6
516.563	8.63
516.762	8.64
516.961	8.75
517.16	8.78
517.359	8.83
517.559	8.79
517.758	8.87
517.957	8.98
518.156	9.04
518.355	9.18
518.554	9.19
518.753	9.27
518.952	9.29
519.151	9.35
519.35	9.41
519.549	9.5
519.748	9.67
519.947	9.69
520.146	9.67
520.345	9.68
520.544	9.71
520.743	9.81
520.942	9.91
521.141	9.95
521.339	10.02
521.538	10.08
521.737	10.18
521.936	10.09
522.135	10.14
522.333	10.15
522.532	10.19
522.731	10.19
522.93	10.24
523.129	10.26
523.327	10.36
523.526	10.34
523.725	10.36
523.923	10.35
524.122	10.43
524.321	10.49
524.519	10.6
524.718	10.62
524.917	10.66
525.115	10.65
525.314	10.72
525.512	10.68
525.711	10.69
525.909	10.72
526.108	10.72
526.306	10.69
526.505	10.68
526.703	10.64
526.902	10.65
527.1	10.61
527.299	10.63
527.497	10.6
527.696	10.64
527.894	10.7
528.092	10.68
528.291	10.69
528.489	10.77
528.688	10.82
528.886	10.89
529.084	10.94
529.283	11.04
529.481	11.13
529.679	11.24
529.877	11.26
530.076	11.3
530.274	11.44
530.472	11.58
530.67	11.59
530.869	11.63
531.067	11.69
531.265	11.67
531.463	11.7
531.661	11.74
531.859	11.73
532.057	11.79
532.255	11.81
532.454	11.81
532.652	11.8
532.85	11.83
533.048	11.85
533.246	11.87
533.444	11.93
533.642	11.95
533.84	11.92
534.038	12.04
534.236	12.03
534.434	12.04
534.632	12.04
534.83	12.11
535.027	12.12
535.225	12.14
535.423	12.17
535.621	12.19
535.819	12.28
536.017	12.36
536.215	12.35
536.412	12.49
536.61	12.55
536.808	12.64
537.006	12.67
537.203	12.77
537.401	12.8
537.599	12.83
537.797	12.98
537.994	12.92
538.192	12.93
538.39	12.89
538.587	12.84
538.785	12.87
538.983	12.86
539.18	12.84
539.378	12.81
539.575	12.85
539.773	12.85
539.97	12.8
540.168	12.88
540.366	12.93
540.563	12.92
540.761	12.92
540.958	12.95
541.155	12.97
541.353	13.03
541.55	13.12
541.748	13.14
541.945	13.17
542.143	13.24
542.34	13.27
542.537	13.22
542.735	13.35
542.932	13.47
543.129	13.5
543.327	13.57
543.524	13.64
543.721	13.6
543.919	13.68
544.116	13.71
544.313	13.69
544.51	13.73
544.708	13.85
544.905	13.82
545.102	13.83
545.299	13.9
545.496	13.91
545.693	13.84
545.891	13.86
546.088	13.84
546.285	13.92
546.482	14.07
546.679	14.09
546.876	14.05
547.073	14.1
547.27	14.14
547.467	14.11
547.664	14.13
547.861	14.24
548.058	14.4
548.255	14.53
548.452	14.49
548.649	14.48
548.846	14.51
549.043	14.63
549.24	14.64
549.437	14.66
549.633	14.68
549.83	14.68
550.027	14.65
550.224	14.61
550.421	14.57
550.618	14.7
550.814	14.71
551.011	14.72
551.208	14.71
551.405	14.85
551.601	14.91
551.798	15.01
551.995	15.08
552.191	15.21
552.388	15.28
552.585	15.31
552.781	15.34
552.978	15.36
553.175	15.39
553.371	15.52
553.568	15.57
553.764	15.52
553.961	15.62
554.157	15.62
554.354	15.67
554.55	15.68
554.747	15.7
554.943	15.78
555.14	15.86
555.336	15.9
555.533	15.91
555.729	15.99
555.926	16.15
556.122	16.09
556.318	16.24
556.515	16.18
556.711	16.2
556.907	16.31
557.104	16.22
557.3	16.29
557.496	16.49
557.693	16.4
557.889	16.37
558.085	16.41
558.281	16.5
558.478	16.46
558.674	16.64
558.87	16.77
559.066	16.85
559.262	17.06
559.459	17
559.655	17
559.851	17.11
560.047	17.13
560.243	17.17
560.439	17.21
560.635	17.32
560.831	17.22
561.027	17.23
561.223	17.18
561.419	17.06
561.615	17.21
561.811	17.17
562.007	17.18
562.203	17.28
562.399	17.29
562.595	17.26
562.791	17.44
562.987	17.52
563.183	17.52
563.379	17.54
563.575	17.62
563.771	17.58
563.966	17.66
564.162	17.77
564.358	17.79
564.554	17.88
564.75	17.89
564.945	17.84
565.141	17.99
565.337	18.06
565.533	18.11
565.728	18.15
565.924	18.28
566.12	18.36
566.315	18.36
566.511	18.44
566.707	18.46
566.902	18.54
567.098	18.53
567.293	18.47
567.489	18.48
567.684	18.59
567.88	18.71
568.076	18.67
568.271	18.67
568.467	18.69
568.662	18.69
568.858	18.67
569.053	18.74
569.248	18.75
569.444	18.77
569.639	18.83
569.835	18.86
570.03	18.84
570.225	18.83
570.421	18.86
570.616	18.88
570.812	18.82
571.007	18.86
571.202	18.83
571.397	18.93
571.593	18.97
571.788	19.05
571.983	19.12
572.178	19.2
572.374	19.29
572.569	19.31
572.764	19.45
572.959	19.54
573.154	19.69
573.35	19.79
573.545	19.8
573.74	19.92
573.935	19.87
574.13	19.86
574.325	19.85
574.52	19.84
574.715	19.88
574.91	19.88
575.105	19.94
575.3	19.97
575.495	19.99
575.69	20.09
575.885	20.02
576.08	20.15
576.275	20.25
576.47	20.31
576.665	20.43
576.86	20.47
577.055	20.51
577.25	20.53
577.444	20.49
577.639	20.58
577.834	20.54
578.029	20.74
578.224	20.6
578.418	20.66
578.613	20.73
578.808	20.77
579.003	20.82
579.197	20.76
579.392	20.82
579.587	20.84
579.781	20.85
579.976	20.89
580.171	20.78
580.365	20.84
580.56	20.85
580.755	20.89
580.949	20.89
581.144	20.93
581.338	21.04
581.533	20.98
581.727	21.04
581.922	21.2
582.116	21.25
582.311	21.47
582.505	21.58
582.7	21.68
582.894	21.73
583.089	21.7
583.283	21.72
583.478	21.78
583.672	22.06
583.866	22.08
584.061	21.98
584.255	22.02
584.449	21.96
584.644	21.97
584.838	21.85
585.032	21.89
585.226	22.12
585.421	22.06
585.615	22.07
585.809	21.87
586.003	21.7
586.198	21.7
586.392	21.74
586.586	21.76
586.78	21.75
586.974	21.75
587.168	21.85
587.363	21.79
587.557	21.82
587.751	21.82
587.945	21.84
588.139	22.2
588.333	22.25
588.527	22.3
588.721	22.24
588.915	22.26
589.109	22.38
589.303	22.22
589.497	22.24
589.691	22.34
589.885	22.32
590.079	22.41
590.273	22.24
590.466	22.3
590.66	22.3
590.854	22.4
591.048	22.46
591.242	22.25
591.436	22.34
591.629	22.46
591.823	22.48
592.017	22.61
592.211	22.73
592.404	22.66
592.598	22.56
592.792	22.57
592.986	22.54
593.179	22.62
593.373	22.79
593.567	22.84
593.76	22.69
593.954	22.8
594.147	22.76
594.341	22.61
594.535	22.71
594.728	22.82
594.922	22.85
595.115	22.86
595.309	22.85
595.502	22.83
595.696	22.77
595.889	22.89
596.083	22.85
596.276	22.82
596.47	23
596.663	23.01
596.856	23.05
597.05	23.03
597.243	23.12
597.437	23.1
597.63	23.12
597.823	23.16
598.017	23.15
598.21	23.05
598.403	23.18
598.596	23.09
598.79	23.11
598.983	23.07
599.176	23.15
599.369	23.01
599.563	23.11
599.756	23.16
599.949	23.18
600.142	23.05
600.335	23.24
600.528	23.16
600.722	23.28
600.915	23.32
601.108	23.22
601.301	23.1
601.494	23.22
601.687	23.19
601.88	23.07
602.073	22.95
602.266	23.09
602.459	23.05
602.652	23.13
602.845	23.08
603.038	23.03
603.231	23.01
603.424	23.15
603.617	23.15
603.809	23.12
604.002	23.26
604.195	23.34
604.388	23.25
604.581	23.37
604.774	23.4
604.966	23.49
605.159	23.54
605.352	23.75
605.545	23.7
605.737	23.71
605.93	23.82
606.123	23.88
606.316	24.16
606.508	24.22
606.701	24.11
606.894	23.92
607.086	23.86
607.279	23.96
607.471	23.87
607.664	23.88
607.857	23.88
608.049	23.93
608.242	23.89
608.434	23.86
608.627	23.87
608.819	23.9
609.012	24.04
609.204	24.12
609.397	24.09
609.589	24.24
609.782	24.22
609.974	24.34
610.166	24.34
610.359	24.41
610.551	24.29
610.743	24.28
610.936	24.26
611.128	24.34
611.32	24.38
611.513	24.55
611.705	24.51
611.897	24.59
612.09	24.56
612.282	24.52
612.474	24.47
612.666	24.62
612.858	24.8
613.051	24.73
613.243	24.65
613.435	24.62
613.627	24.44
613.819	24.51
614.011	24.6
614.203	24.59
614.395	24.62
614.588	24.73
614.78	24.63
614.972	24.67
615.164	24.79
615.356	24.83
615.548	24.64
615.74	24.75
615.932	24.76
616.124	24.58
616.315	24.53
616.507	24.61
616.699	24.57
616.891	24.57
617.083	24.49
617.275	24.5
617.467	24.56
617.659	24.74
617.85	24.75
618.042	24.77
618.234	24.89
618.426	24.86
618.618	24.77
618.809	24.81
619.001	24.87
619.193	24.99
619.384	24.79
619.576	24.78
619.768	24.66
619.959	24.72
620.151	24.69
620.343	24.67
620.534	24.73
620.726	24.64
620.917	24.64
621.109	24.78
621.301	24.73
621.492	25.03
621.684	24.99
621.875	25.15
622.067	25.1
622.258	25.03
622.45	25.26
622.641	25.3
622.832	25.51
623.024	25.4
623.215	25.29
623.407	25.15
623.598	25.05
623.789	25.05
623.981	25.01
624.172	24.89
624.363	24.96
624.555	24.72
624.746	24.63
624.937	24.59
625.129	24.58
625.32	24.56
625.511	24.73
625.702	24.7
625.893	24.83
626.085	24.68
626.276	24.85
626.467	24.79
626.658	24.97
626.849	25.15
627.04	25.24
627.231	25.29
627.422	25.28
627.614	25.18
627.805	25.12
627.996	25.05
628.187	25.23
628.378	25.24
628.569	25.29
628.76	25.3
628.951	25.17
629.142	25.09
629.332	25.1
629.523	25.22
629.714	25.21
629.905	25.29
630.096	25.32
630.287	25.42
630.478	25.32
630.669	25.29
630.859	25.18
631.05	25.22
631.241	25.24
631.432	25.2
631.623	25.12
631.813	25.22
632.004	25.28
632.195	25.29
632.385	25.11
632.576	25.23
632.767	25.21
632.957	25.31
633.148	25.42
633.339	25.37
633.529	25.39
633.72	25.54
633.91	25.61
634.101	25.74
634.292	25.78
634.482	25.83
634.673	25.72
634.863	25.86
635.054	25.71
635.244	25.55
635.435	25.67
635.625	25.81
635.815	25.76
636.006	25.68
636.196	25.73
636.387	25.7
636.577	25.7
636.767	25.96
636.958	26.01
637.148	26.18
637.338	26.28
637.529	26.21
637.719	26.11
637.909	25.91
638.099	26.18
638.29	25.88
638.48	25.89
638.67	25.88
638.86	25.7
639.05	25.51
639.241	25.44
639.431	25.26
639.621	25.27
639.811	25.4
640.001	25.66
640.191	25.34
640.381	25.29
640.571	25.16
640.761	25.27
640.951	25.4
641.141	25.41
641.331	25.33
641.521	25.64
641.711	25.78
641.901	25.83
642.091	25.72
642.281	25.76
642.471	25.95
642.661	26.08
642.851	26.05
643.041	25.97
643.231	26.06
643.42	26.13
643.61	26.08
643.8	25.99
643.99	25.86
644.18	25.98
644.369	26.01
644.559	25.93
644.749	26.01
644.939	26.02
645.128	26
645.318	25.82
645.508	25.81
645.697	25.77
645.887	25.77
646.076	25.69
646.266	25.65
646.456	25.78
646.645	25.97
646.835	25.89
647.024	25.93
647.214	25.87
647.403	26.09
647.593	26.18
647.782	26.12
647.972	26.06
648.161	26.32
648.351	26.37
648.54	26.17
648.73	26.21
648.919	26.23
649.108	26.18
649.298	26.32
649.487	26.37
649.677	26.44
649.866	26.68
650.055	26.76
650.244	26.64
650.434	26.63
650.623	26.77
650.812	26.92
651.002	26.95
651.191	27.15
651.38	27.17
651.569	27.04
651.758	27.03
651.947	27.01
652.137	27.04
652.326	27.23
652.515	27.41
652.704	27.39
652.893	27.06
653.082	27.1
653.271	26.98
653.46	26.96
653.649	27.01
653.838	27.05
654.027	26.97
654.216	27.1
654.405	26.98
654.594	26.86
654.783	27.04
654.972	27.25
655.161	27.36
655.35	27.42
655.539	27.32
655.728	27.33
655.916	27.15
656.105	26.99
656.294	26.65
656.483	26.84
656.672	26.51
656.86	26.35
657.049	26.24
657.238	26.11
657.427	26.16
657.615	26.09
657.804	26.25
657.993	26.33
658.181	26.35
658.37	26.5
658.559	26.45
658.747	26.86
658.936	26.85
659.125	26.99
659.313	26.89
659.502	26.82
659.69	26.96
659.879	26.96
660.067	27.06
660.256	27.18
660.444	27.28
660.633	27.21
660.821	27.06
661.01	27.15
661.198	26.85
661.387	26.99
661.575	26.95
661.763	27.04
661.952	26.96
662.14	26.71
662.328	26.7
662.517	26.78
662.705	26.59
662.893	26.68
663.082	26.61
663.27	26.78
663.458	26.78
663.646	27.26
663.834	27.31
664.023	27.22
664.211	27.45
664.399	27.56
664.587	27.3
664.775	27.64
664.963	27.33
665.152	27.71
665.34	27.79
665.528	27.83
665.716	27.37
665.904	27.18
666.092	27.17
666.28	27.18
666.468	27.15
666.656	27.2
666.844	27.07
667.032	27.26
667.22	26.9
667.408	26.92
667.596	26.95
667.784	27.03
667.971	26.89
668.159	27.08
668.347	27.06
668.535	27.21
668.723	27.34
668.911	27.32
669.098	27.16
669.286	27.3
669.474	27.51
669.662	27.38
669.849	27.36
670.037	27.77
670.225	27.84
670.413	27.84
670.6	27.53
670.788	27.66
670.976	27.7
671.163	27.98
671.351	28.04
671.538	27.86
671.726	27.89
671.913	28.21
672.101	27.92
672.289	27.52
672.476	27.47
672.664	27.71
672.851	27.48
673.039	27.61
673.226	27.46
673.413	27.29
673.601	27.55
673.788	27.65
673.976	27.63
674.163	27.92
674.35	28.13
674.538	28.14
674.725	28.35
674.912	28.5
675.1	28.32
675.287	28.35
675.474	28.57
675.662	28.38
675.849	28.48
676.036	28.23
676.223	28.04
676.411	28
676.598	27.89
676.785	27.79
676.972	27.84
677.159	28.01
677.346	27.8
677.533	27.6
677.721	27.31
677.908	27.21
678.095	27.3
678.282	27.38
678.469	27.36
678.656	27.25
678.843	27.26
679.03	27.25
679.217	27.39
679.404	27.65
679.591	27.68
679.778	28
679.964	27.93
680.151	27.78
680.338	27.77
680.525	27.81
680.712	28.18
680.899	27.9
681.086	27.83
681.272	27.48
681.459	27.53
681.646	27.65
681.833	27.5
682.02	27.68
682.206	27.87
682.393	28.13
682.58	28.32
682.766	28.09
682.953	28.34
683.14	28.36
683.326	28.39
683.513	28.07
683.7	28.28
683.886	28.31
684.073	28.52
684.259	28.35
684.446	28.16
684.632	28.05
684.819	28.16
685.005	28.51
685.192	28.58
685.378	28.36
685.565	28.6
685.751	28.29
685.938	28.56
686.124	28.47
686.31	28.76
686.497	28.75
686.683	28.78
686.87	28.85
687.056	28.53
687.242	28.32
687.429	28.62
687.615	28.46
687.801	28.64
687.987	28.37
688.174	28.23
688.36	28.23
688.546	28.2
688.732	28.18
688.918	28.09
689.105	27.92
689.291	28.18
689.477	28.39
689.663	28.55
689.849	28.52
690.035	28.52
690.221	28.89
690.407	29.05
690.593	29.13
690.779	29.05
690.965	28.97
691.151	29.17
691.337	29.2
691.523	28.92
691.709	28.89
691.895	28.55
692.081	28.58
692.267	28.38
692.453	28.29
692.639	28.15
692.825	28.22
693.011	28.22
693.196	28.27
693.382	28.13
693.568	28.08
693.754	28.39
693.94	28.41
694.125	28.76
694.311	29
694.497	28.61
694.682	28.58
694.868	28.72
695.054	28.85
695.239	28.89
695.425	28.81
695.611	28.79
695.796	28.64
695.982	28.54
696.168	28.28
696.353	27.92
696.539	28.08
696.724	27.82
696.91	27.65
697.095	27.53
697.281	27.48
697.466	27.37
697.652	27.47
697.837	27.53
698.023	27.69
698.208	27.76
698.393	27.88
698.579	27.95
698.764	28.11
698.949	28.17
699.135	28.16
699.32	28.06
699.505	28.08
699.691	28.06
699.876	28.08
700.061	28.03
700.246	27.91
700.432	27.74
700.617	27.34
700.802	27.29
700.987	27.27
701.172	27.6
701.358	27.76
701.543	28.17
701.728	28.01
701.913	28.01
702.098	28.26
702.283	28.12
702.468	28.12
702.653	28.77
702.838	29.03
703.023	29.11
703.208	28.66
703.393	28.58
703.578	28.52
703.763	28.83
703.948	28.72
704.133	28.56
704.318	28.75
704.503	28.54
704.688	28.56
704.873	28.62
705.057	28.72
705.242	29.23
705.427	29.27
705.612	28.88
705.797	28.86
705.981	28.81
706.166	29.01
706.351	28.94
706.536	29.22
706.72	28.88
706.905	28.64
707.09	28.47
707.274	28.17
707.459	28.37
707.644	28.55
707.828	28.61
708.013	28.72
708.197	28.55
708.382	28.87
708.567	28.6
708.751	28.63
708.936	28.77
709.12	28.97
709.305	28.92
709.489	28.43
709.673	28.45
709.858	28.28
710.042	28.24
710.227	28.3
710.411	28.03
710.596	28.26
710.78	28.4
710.964	28.36
711.149	28.51
711.333	28.68
711.517	28.88
711.702	28.54
711.886	28.58
712.07	28.8
712.254	28.68
712.438	28.5
712.623	28.67
712.807	28.41
712.991	28.48
713.175	28.39
713.359	28.1
713.544	28.19
713.728	28.74
713.912	28.6
714.096	28.34
714.28	28.48
714.464	28.69
714.648	28.31
714.832	28.3
715.016	28.4
715.2	28.37
715.384	28.58
715.568	28.45
715.752	28.37
715.936	28.39
716.12	28.23
716.304	28.15
716.488	28.1
716.671	28.02
716.855	28.36
717.039	28.38
717.223	27.66
717.407	27.46
717.59	27.68
717.774	27.83
717.958	27.99
718.142	28.02
718.325	27.98
718.509	27.93
718.693	28.24
718.877	27.83
719.06	27.6
719.244	28.26
719.428	28.2
719.611	28.14
719.795	27.81
719.978	27.88
720.162	27.88
720.345	28.19
720.529	28.87
720.713	28.89
720.896	29.07
721.08	28.82
721.263	28.82
721.446	29.41
721.63	29.43
721.813	29.47
721.997	28.99
722.18	28.98
722.364	28.92
722.547	28.2
722.73	28.52
722.914	28.17
723.097	28.44
723.28	28.61
723.464	28.16
723.647	28.16
723.83	28.29
724.013	29.07
724.197	29.17
724.38	29.16
724.563	29.26
724.746	29.07
724.929	29.56
725.112	30.11
725.296	29.74
725.479	29.85
725.662	29.78
725.845	29.87
726.028	29.65
726.211	29.66
726.394	29.66
726.577	29.41
726.76	29.37
726.943	29.35
727.126	28.93
727.309	28.61
727.492	28.45
727.675	28.2
727.858	27.94
728.041	27.98
728.224	27.94
728.407	28.16
728.589	28.8
728.772	28.86
728.955	28.85
729.138	28.84
729.321	29.24
729.503	29.54
729.686	29.75
729.869	30.03
730.052	30.07
730.234	29.79
730.417	29.81
730.6	29.46
730.782	29.69
730.965	29.42
731.148	29.41
731.33	29.48
731.513	29.44
731.695	29.45
731.878	29.46
732.061	29.41
732.243	29.62
732.426	29.18
732.608	29.25
732.791	29.1
732.973	29.12
733.156	29.45
733.338	29.27
733.52	29.39
733.703	29.4
733.885	29.49
734.068	29.65
734.25	29.31
734.432	29.75
734.615	29.96
734.797	30.36
734.979	30.5
735.162	30.25
735.344	30.34
735.526	30.14
735.708	30.02
735.891	30.06
736.073	29.62
736.255	30.27
736.437	29.92
736.619	29.74
736.802	28.77
736.984	29.21
737.166	29.3
737.348	29.74
737.53	29.37
737.712	29.67
737.894	29.41
738.076	29.91
738.258	29.97
738.44	30.14
738.622	29.84
738.804	30.31
738.986	30.02
739.168	29.63
739.35	29.06
739.532	29.4
739.714	28.99
739.896	28.54
740.078	28.93
740.259	28.49
740.441	28.06
740.623	27.77
740.805	28.01
740.987	27.9
741.168	27.71
741.35	28.17
741.532	28.21
741.714	28.15
741.895	28.87
742.077	28.37
742.259	28.64
742.44	28.99
742.622	29.33
742.804	29.28
742.985	29.34
743.167	29.62
743.348	29.81
743.53	29.72
743.711	30.43
743.893	30.35
744.075	30.25
744.256	30.08
744.438	30.34
744.619	30.85
744.8	30.37
744.982	30.34
745.163	30.07
745.345	29.46
745.526	29.71
745.707	29.4
745.889	29.47
746.07	29.55
746.252	30.32
746.433	30.53
746.614	30.01
746.795	30.09
746.977	30.25
747.158	30.35
747.339	30.99
747.52	31.28
747.702	31.04
747.883	31.05
748.064	30.48
748.245	29.33
748.426	29
748.607	29.48
748.788	29.27
748.97	29.15
749.151	29.26
749.332	29.22
749.513	28.97
749.694	29.09
749.875	29.39
750.056	30.16
750.237	30.95
750.418	30.62
750.599	29.34
750.78	29.42
750.96	29.24
751.141	30.16
751.322	29.94
751.503	29.28
751.684	29.5
751.865	28.8
752.046	28.47
752.226	28.38
752.407	29.27
752.588	30.52
752.769	31.22
752.949	31.39
753.13	30.77
753.311	30.05
753.492	30.58
753.672	30.62
753.853	30.83
754.034	30.45
754.214	30.74
754.395	29.86
754.575	29.75
754.756	29.4
754.937	29.37
755.117	29.47
755.298	30.13
755.478	30.08
755.659	29.44
755.839	29.63
756.02	29.4
756.2	29.35
756.381	29.91
756.561	29.79
756.741	30.08
756.922	30.21
757.102	30.14
757.283	30.55
757.463	30.51
757.643	31.23
757.823	31.56
758.004	31.08
758.184	30.67
758.364	29.96
758.545	30.27
758.725	29.69
758.905	29.49
759.085	28.91
759.265	27.94
759.446	28.02
759.626	28.54
759.806	27.64
759.986	28.76
760.166	28.64
760.346	28.77
760.526	28.44
760.706	29.15
760.886	29.38
761.066	29.71
761.246	30.42
761.426	30.81
761.606	30.23
761.786	30.39
761.966	30.57
762.146	30.59
762.326	30.54
762.506	30.48
762.686	30.13
762.866	30.19
763.046	30.3
763.225	30.28
763.405	29.95
763.585	30.02
763.765	30
763.945	29.68
764.124	29.66
764.304	29.74
764.484	29.69
764.664	29.85
764.843	29.47
765.023	29.86
765.203	29.82
765.382	30
765.562	29.69
765.741	29.59
765.921	29.83
766.101	30.35
766.28	30.07
766.46	30.28
766.639	29.8
766.819	30.04
766.998	29.62
767.178	29.47
767.357	29.23
767.537	29.41
767.716	29.96
767.896	29.85
768.075	28.97
768.254	29.25
768.434	29.11
768.613	29.79
768.792	29.21
768.972	28.74
769.151	28.71
769.33	29.53
769.51	29.08
769.689	29.11
769.868	28.94
770.047	29.94
770.226	30.54
770.406	30.38
770.585	29.8
770.764	30.02
770.943	30.18
771.122	30.18
771.301	29.38
771.48	29.5
771.66	30.34
771.839	30.45
772.018	30.06
772.197	30.18
772.376	30.33
772.555	30.04
772.734	30.75
772.913	31.29
773.092	31.72
773.271	31.36
773.449	31.57
773.628	30.63
773.807	30.54
773.986	30.79
774.165	29.48
774.344	29.41
774.523	30.58
774.701	29.71
774.88	29.24
775.059	28.66
775.238	29.26
775.417	28.98
775.595	28.65
775.774	28.61
775.953	28.34
776.131	29.06
776.31	29.64
776.489	29.1
776.667	30.03
776.846	29.55
777.025	29.73
777.203	28.83
777.382	29.3
777.56	28.95
777.739	29.75
777.917	29
778.096	28.65
778.274	27.12
778.453	26.78
778.631	26.39
778.81	26.79
778.988	26.4
779.166	27.16
779.345	27.85
779.523	28.48
779.702	27.43
779.88	28.07
780.058	28.37
780.237	28.97
780.415	29.88
780.593	29.92
780.771	29.58
780.95	30.47
781.128	30.56
781.306	29.9
781.484	29.41
781.662	29.65
781.841	30.23
782.019	30.96
782.197	31.09
782.375	30.6
782.553	30.54
782.731	30.99
782.909	30.09
783.087	30.4
783.265	30.87
783.443	30.49
783.621	30.12
783.799	29.35
783.977	28.82
784.155	29.53
784.333	28.93
784.511	28.77
784.689	28.62
784.867	28.08
785.045	27.41
785.223	26.44
785.4	26.96
785.578	27.09
785.756	27.72
785.934	27.33
786.112	27.49
786.289	28.58
786.467	27.84
786.645	28.43
786.823	29.26
787	29.35
787.178	29.65
787.356	29.96
787.533	29.29
787.711	29.78
787.889	30.36
788.066	30.25
788.244	29.46
788.421	30.25
788.599	30.44
788.776	29.54
788.954	29.72
789.131	29.96
789.309	30.33
789.486	31.89
789.664	31.6
789.841	31.69
790.019	32.44
790.196	33.57
790.373	33.84
790.551	33.66
790.728	34.75
790.906	34.89
791.083	36.43
791.26	35.72
791.437	34.85
791.615	35.43
791.792	35.15
791.969	33.94
792.146	32.96
792.324	33.1
792.501	32.76
792.678	33.26
792.855	33.44
793.032	32.11
793.209	32.68
793.387	33.53
793.564	33.08
793.741	32.83
793.918	33.4
794.095	33.72
794.272	32.99
794.449	32.84
794.626	33.25
794.803	32.16
794.98	31.27
795.157	30.73
795.334	30.26
795.511	30.17
795.688	30.13
795.864	28.88
796.041	28.73
796.218	29.55
796.395	29.44
796.572	28.97
796.749	30.22
796.925	31.14
797.102	31.8
797.279	30.67
797.456	31.14
797.632	30.8
797.809	31.22
797.986	30.72
798.162	30.7
798.339	30.6
798.516	29.71
798.692	29.57
798.869	29.04
799.046	27.92
799.222	28.37
799.399	28.47
799.575	29.57
799.752	29.22
799.928	30
800.105	29.37
800.281	29.88
800.458	30.44
800.634	30.57
800.811	30.03
800.987	29.96
801.163	30.43
801.34	29.1
801.516	28.72
801.692	29.15
801.869	28.61
802.045	29.73
802.221	30.06
802.398	28.65
802.574	28.84
802.75	29.43
802.926	29.86
803.103	29.88
803.279	30.25
803.455	28.99
803.631	29.73
803.807	30.5
803.983	30.69
804.16	30.38
804.336	31.29
804.512	31.4
804.688	31.99
804.864	32.94
805.04	32.64
805.216	32.28
805.392	32.89
805.568	32.01
805.744	31.57
805.92	30.98
806.096	30.38
806.272	30.7
806.448	30.05
806.623	29.18
806.799	29.11
806.975	28.62
807.151	28.23
807.327	28.83
807.503	28.71
807.678	28.25
807.854	27.88
808.03	29.19
808.206	29.17
808.381	29.32
808.557	30.88
808.733	30.98
808.908	32.3
809.084	32.1
809.26	31.97
809.435	32.92
809.611	33.74
809.787	34.37
809.962	32.93
810.138	32.41
810.313	31.72
810.489	30.68
810.664	29.93
810.84	29.43
811.015	31.14
811.191	31.68
811.366	32.14
811.542	32.08
811.717	31.16
811.892	32.7
812.068	33.87
812.243	34.03
812.419	33.95
812.594	33.8
812.769	33.09
812.944	32.02
813.12	30.55
813.295	30.02
813.47	29.76
813.645	30.44
813.821	29.89
813.996	28.93
814.171	29.07
814.346	28.49
814.521	29.22
814.697	30.21
814.872	29.22
815.047	30.3
815.222	30.73
815.397	31.23
815.572	30.76
815.747	30.17
815.922	30.42
816.097	29.37
816.272	30.06
816.447	29.6
816.622	28.73
816.797	29.91
816.972	31.17
817.147	30.69
817.322	30.71
817.496	31.27
817.671	30.7
817.846	31.39
818.021	32.43
818.196	32.24
818.371	32.79
818.545	33.21
818.72	34
818.895	33.22
819.069	33.6
819.244	32.91
819.419	32.47
819.594	32.83
819.768	32.36
819.943	31.54
820.117	30.73
820.292	30.11
820.467	29.94
820.641	28.89
820.816	28.71
820.99	28.24
821.165	28.1
821.339	28.03
821.514	28.02
821.688	27.72
821.863	27.49
822.037	27.78
822.212	27.85
822.386	27.77
822.56	27.86
822.735	27.76
822.909	28.22
823.084	28.33
823.258	28.32
823.432	28.27
823.606	28.43
823.781	28.81
823.955	28.77
824.129	28.75
824.303	28.64
824.478	28.66
824.652	28.46
824.826	27.57
825	27.55
825.174	27.7
825.348	27.92
825.523	28.44
825.697	28.56
825.871	28.79
826.045	28.79
826.219	29.25
826.393	29.72
826.567	29.91
826.741	30.4
826.915	30.4
827.089	30.55
827.263	30.38
827.437	29.7
827.611	29.47
827.784	28.97
827.958	29.28
828.132	28.96
828.306	28.35
828.48	28.03
828.654	27.46
828.827	27.6
829.001	26.81
829.175	26.27
829.349	26.82
829.522	26.86
829.696	27.36
829.87	26.44
830.044	26.94
830.217	27.92
830.391	28.22
830.565	29.72
830.738	28.77
830.912	28.72
831.085	28.96
831.259	29.61
831.432	30.39
831.606	30.43
831.779	29.97
831.953	30.32
832.126	29.57
832.3	30.81
832.473	30.2
832.647	31.01
832.82	32.08
832.994	32.07
833.167	31.16
833.34	30
833.514	29.68
833.687	29.95
833.86	29.24
834.034	29.47
834.207	28.23
834.38	28.38
834.553	27.53
834.727	27.19
834.9	27.09
835.073	27.6
835.246	28.4
835.419	28.36
835.593	29.21
835.766	29.75
835.939	29.99
836.112	30.7
836.285	30.9
836.458	32
836.631	31.63
836.804	31.57
836.977	30.82
837.15	31.85
837.323	31.59
837.496	31.15
837.669	29.04
837.842	29.77
838.015	30.42
838.188	30.22
838.361	30.43
838.533	31.34
838.706	32.43
838.879	34.06
839.052	33.61
839.225	34.67
839.398	35.98
839.57	37.66
839.743	36.65
839.916	37.12
840.088	37.22
840.261	37.83
840.434	37.76
840.607	38.07
840.779	37.82
840.952	36.72
841.124	35.55
841.297	34.13
841.47	35.29
841.642	33.99
841.815	35.63
841.987	34.7
842.16	34.19
842.332	33.03
842.505	33
842.677	29.51
842.85	30.99
843.022	33.55
843.194	32.93
843.367	31.79
843.539	34.68
843.712	31.45
843.884	32.3
844.056	33.05
844.229	33.86
844.401	33.43
844.573	36.22
844.745	34.98
844.918	32.71
845.09	33.57
845.262	31.46
845.434	29.51
845.606	29.54
845.779	29.82
845.951	29.56
846.123	30.14
846.295	29.45
846.467	27.68
846.639	28.84
846.811	29.39
846.983	30.7
847.155	32.1
847.327	33.92
847.499	34.73
847.671	34.51
847.843	32.21
848.015	32.38
848.187	30.56
848.359	31.58
848.531	31.8
848.703	30.6
848.875	29.39
849.047	33.02
849.218	31.21
849.39	30.4
849.562	29.44
849.734	31.08
849.905	30.18
850.077	33.47
850.249	31.81
850.421	33.31
850.592	35.75
850.764	37.19
850.936	35.01
851.107	37.55
851.279	38.04
851.451	41.68
851.622	42.05
851.794	42.64
851.965	41.93
852.137	43.34
852.308	43.26
852.48	45.41
852.651	44.28
852.823	44.25
852.994	44.21
853.166	43.58
853.337	42.63
853.509	44.49
853.68	45.08
853.851	44
854.023	45.54
854.194	42.8
854.365	39.92
854.537	40.33
854.708	40.54
854.879	39.18
855.05	39.77
855.222	37.05
855.393	33.94
855.564	34.5
855.735	36.68
855.906	34.51
856.078	37.17
856.249	36.42
856.42	35.54
856.591	34.95
856.762	35.29
856.933	33.58
857.104	32.36
857.275	34.96
857.446	35.44
857.617	36.34
857.788	36.85
857.959	34.98
858.13	35.36
858.301	36.79
858.472	36.84
858.643	35.74
858.814	38
858.985	40.22
859.155	38.62
859.326	39.22
859.497	35.64
859.668	35.14
859.839	34.08
860.009	36.5
860.18	33.99
860.351	35.75
860.522	32.47
860.692	33.17
860.863	33.56
861.034	34.46
861.204	31.59
861.375	34.31
861.546	35.66
861.716	33.57
861.887	31.77
862.057	32.74
862.228	31.26
862.398	35.72
862.569	33.48
862.739	31.02
862.91	28.52
863.08	28.25
863.251	26.27
863.421	25.83
863.592	33.46
863.762	37.02
863.932	39.33
864.103	39.65
864.273	37.92
864.443	37.14
864.614	41.14
864.784	40.99
864.954	38.75
865.125	37.3
865.295	37.24
865.465	32.42
865.635	28.99
865.805	27.71
865.976	27.3
866.146	26.84
866.316	28.91
866.486	22.81
866.656	22.31
866.826	27.52
866.996	32.09
867.166	29.7
867.336	34.65
867.506	36.79
867.676	35.83
867.846	36.12
868.016	36.15
868.186	37.36
868.356	44.47
868.526	46.38
868.696	45.97
868.866	41.99
869.036	48.32
869.206	46.02
869.376	46.16
869.545	45.62
869.715	48.01
869.885	48.88
870.055	45.85
870.224	43.69
870.394	43
870.564	42.87
870.734	44.56
870.903	39.54
871.073	38.03
871.243	33.78
871.412	36.19
871.582	33.37
871.751	35.36
871.921	37.9
872.091	37
872.26	35.86
872.43	32.02
872.599	32.97
872.769	32.54
872.938	35.95
873.108	38.35
873.277	36.27
873.446	36.44
873.616	35.28
873.785	34.93
873.955	34.66
874.124	34.57
874.293	36.81
874.463	35.43
874.632	38.77
874.801	37.56
874.971	37.05
875.14	38.61
875.309	36.52
875.478	38.29
875.647	37.58
875.817	35.05
875.986	36.42
876.155	34.34
876.324	35.84
876.493	36.51
876.662	36.65
876.831	34.57
877	34.05
877.17	36.79
877.339	35.4
877.508	36.19
877.677	38.02
877.846	40.67
878.015	40.87
878.184	36.24
878.352	35.73
878.521	33.66
878.69	38.16
878.859	36.39
879.028	35.63
879.197	31.96
879.366	32.33
879.534	34.78
879.703	34.36
879.872	32.97
880.041	33.32
880.21	31.46
880.378	31.39
880.547	28.59
880.716	28.75
880.884	27.88
881.053	29.25
881.222	28.5
881.39	27.16
881.559	26.34
881.727	27.04
881.896	27.18
882.065	27.3
882.233	27.32
882.402	28.17
882.57	28.38
882.739	28.41
882.907	28.89
883.076	28.65
883.244	28.95
883.412	28.87
883.581	29.78
883.749	30.09
883.918	30.52
884.086	31.27
884.254	32.17
884.423	32.04
884.591	33.66
884.759	32.81
884.927	34.11
885.096	33.65
885.264	34.61
885.432	33.36
885.6	33.63
885.769	34.03
885.937	32.76
886.105	31.35
886.273	32.88
886.441	31.84
886.609	32.97
886.777	30.94
886.945	33.18
887.113	31.14
887.281	30.25
887.449	30.75
887.617	30.8
887.785	30.96
887.953	29.66
888.121	28.94
888.289	30.08
888.457	30.05
888.625	34.42
888.793	31.22
888.961	34.22
889.129	37.59
889.296	37.51
889.464	37.5
889.632	40.04
889.8	42.18
889.967	40.48
890.135	36.94
