Data from 2938439_Reflection_1.txt Node
Date: Fri Jun 19 18:26:27 EDT 2015
User: robert
Spectrometer: USB4E03002
Autoset integration time: false
Trigger mode: 4
Integration Time (sec): 1.000000E-1
Scans to average: 10
Electric dark correction enabled: true
Nonlinearity correction enabled: false
Boxcar width: 5
Stray light correction enabled: false
XAxis mode: Wavelengths
Stop averaging: false
Number of Pixels in Spectrum: 3648
>>>>>Begin Spectral Data<<<<<
177.575	102.23
177.794	99.86
178.014	88.21
178.233	73.07
178.452	51.12
178.672	65.9
178.891	-17.29
179.11	76.87
179.33	64.95
179.549	72.27
179.768	73.21
179.987	86.86
180.207	101.82
180.426	76.52
180.645	69.8
180.864	61.81
181.084	63.45
181.303	50.41
181.522	65.13
181.741	73.4
181.96	63.8
182.179	66.84
182.398	52.16
182.618	50.69
182.837	48.93
183.056	59.26
183.275	57.06
183.494	60.11
183.713	60.45
183.932	46.4
184.151	29.19
184.37	27.68
184.589	35.01
184.808	40.48
185.027	22.08
185.246	41.01
185.465	18.66
185.684	10.1
185.903	10.87
186.122	17.76
186.341	12.57
186.56	26.16
186.779	9.62
186.998	0.48
187.216	0.71
187.435	12.44
187.654	19.26
187.873	22.48
188.092	24.81
188.311	27.39
188.53	27.89
188.748	37.92
188.967	21.61
189.186	47.79
189.405	45.38
189.623	54.7
189.842	67.09
190.061	69.17
190.28	71.06
190.498	78.24
190.717	106.92
190.936	99.21
191.154	104
191.373	99.35
191.592	116.9
191.81	99.64
192.029	95.07
192.248	114
192.466	97.62
192.685	85.65
192.904	88.3
193.122	65.8
193.341	81.79
193.559	55.99
193.778	123.41
193.996	94.65
194.215	107.04
194.433	128.75
194.652	66.22
194.87	93.55
195.089	79.32
195.307	60.19
195.526	52.73
195.744	38.82
195.963	59.69
196.181	53.66
196.399	64.12
196.618	54.29
196.836	58.59
197.055	95.72
197.273	89.36
197.491	106.33
197.71	135.21
197.928	124.49
198.146	128.31
198.365	117.11
198.583	123.36
198.801	97.82
199.019	122.86
199.238	98.74
199.456	93.28
199.674	67.39
199.892	54.32
200.111	34.88
200.329	35.64
200.547	43.83
200.765	23.77
200.983	18.7
201.202	25.43
201.42	45.56
201.638	44.73
201.856	30.23
202.074	33.67
202.292	32.4
202.51	54.75
202.728	74.51
202.946	83.68
203.165	73.25
203.383	67.71
203.601	71.78
203.819	72.83
204.037	77.61
204.255	81.02
204.473	76.6
204.691	79.95
204.909	60.39
205.127	55.31
205.345	38.46
205.562	54.9
205.78	57.15
205.998	46.55
206.216	50.96
206.434	56.14
206.652	60.58
206.87	79.55
207.088	78.57
207.306	87.3
207.523	88.22
207.741	109.91
207.959	106.17
208.177	108.41
208.395	102.57
208.612	75.61
208.83	63.37
209.048	68.79
209.266	44.81
209.483	43.2
209.701	45.61
209.919	47.28
210.136	47.77
210.354	50.19
210.572	48.88
210.79	44.68
211.007	56.15
211.225	59.46
211.442	47.3
211.66	59.7
211.878	60.12
212.095	117.25
212.313	132.7
212.53	127.68
212.748	141.91
212.966	129.16
213.183	135.03
213.401	123.41
213.618	131.08
213.836	141.91
214.053	137.5
214.271	133.09
214.488	28.52
214.705	7.91
214.923	22.26
215.14	27.58
215.358	31.71
215.575	32.14
215.793	42.94
216.01	38.5
216.227	41.97
216.445	39.78
216.662	41.21
216.879	50.38
217.097	53.96
217.314	50.35
217.531	48.44
217.749	41.77
217.966	43.44
218.183	33.9
218.4	42.2
218.618	44
218.835	48.19
219.052	40.92
219.269	32.09
219.487	29.66
219.704	35.92
219.921	40.68
220.138	48.33
220.355	47.31
220.572	55.57
220.79	55.23
221.007	55.45
221.224	62.07
221.441	67.63
221.658	77
221.875	65.27
222.092	62.46
222.309	59.09
222.526	57.59
222.743	57.29
222.96	45.49
223.177	35.76
223.394	29.79
223.611	22.94
223.828	16.12
224.045	11.44
224.262	25.69
224.479	22.45
224.696	26.12
224.913	27.6
225.13	26.34
225.347	26.69
225.564	29.64
225.781	31.65
225.997	32.53
226.214	31.8
226.431	30.07
226.648	26.27
226.865	24.45
227.082	22.51
227.298	21.31
227.515	20.35
227.732	20.57
227.949	20.77
228.165	21.12
228.382	20.5
228.599	21.72
228.816	22.26
229.032	22.44
229.249	23.82
229.466	23
229.682	22.31
229.899	21.57
230.116	22.14
230.332	23.62
230.549	21
230.765	21.43
230.982	19.05
231.199	16.53
231.415	15.96
231.632	14.32
231.848	14.49
232.065	15.9
232.281	14.05
232.498	15.01
232.714	11.43
232.931	12.86
233.147	12.22
233.364	14.11
233.58	17.79
233.797	23.68
234.013	22.84
234.23	22.95
234.446	23.69
234.662	24.61
234.879	25.13
235.095	26.5
235.312	26.58
235.528	25.37
235.744	23.32
235.961	21.4
236.177	15.29
236.393	15.37
236.61	16.61
236.826	14.67
237.042	13.53
237.258	13.39
237.475	11.74
237.691	11.12
237.907	14.92
238.123	15.08
238.339	16.37
238.556	20.11
238.772	21.25
238.988	22.03
239.204	20.89
239.42	21.52
239.636	21.4
239.853	21.98
240.069	21.9
240.285	20.73
240.501	21.02
240.717	20.49
240.933	18.74
241.149	19.17
241.365	18.86
241.581	19.48
241.797	18.82
242.013	19.06
242.229	19.33
242.445	19.97
242.661	19.58
242.877	19.84
243.093	20.24
243.309	21.28
243.525	20.65
243.741	20.58
243.957	19.23
244.173	18.32
244.388	17.66
244.604	16.95
244.82	15.88
245.036	15.72
245.252	15.38
245.468	14.8
245.683	13.98
245.899	13.15
246.115	12.28
246.331	12.57
246.547	13.24
246.762	13.11
246.978	13.09
247.194	12.93
247.409	13.15
247.625	12.59
247.841	12.74
248.057	12.86
248.272	13.83
248.488	14.5
248.703	14.92
248.919	15.2
249.135	14.64
249.35	14.38
249.566	15.37
249.782	14.67
249.997	14.84
250.213	14.14
250.428	13.87
250.644	13.71
250.859	13.6
251.075	13.4
251.29	13.06
251.506	12.51
251.721	13.7
251.937	13.53
252.152	14.37
252.368	14.31
252.583	15.26
252.798	14.97
253.014	14.71
253.229	14.57
253.445	14
253.66	14.02
253.875	15.54
254.091	13.22
254.306	13.87
254.521	13.36
254.737	13.16
254.952	12.18
255.167	13.04
255.383	13.11
255.598	12.35
255.813	12.76
256.028	13.03
256.244	12.45
256.459	12.44
256.674	11.48
256.889	11.2
257.104	12.08
257.32	12.25
257.535	12.1
257.75	11.85
257.965	12.25
258.18	12.05
258.395	11.97
258.61	11.74
258.826	11.63
259.041	11.57
259.256	11.65
259.471	11.38
259.686	11.72
259.901	11.92
260.116	12.14
260.331	11.96
260.546	11.98
260.761	11.93
260.976	13.24
261.191	14.16
261.406	14.42
261.621	14.48
261.836	14.52
262.05	13.33
262.265	13.58
262.48	13.46
262.695	13.14
262.91	14.25
263.125	13.93
263.34	12.8
263.555	12.23
263.769	12.82
263.984	12.33
264.199	12.47
264.414	12.07
264.629	12.14
264.843	13.7
265.058	14.47
265.273	13.7
265.488	13.54
265.702	12.91
265.917	12.36
266.132	12.41
266.346	13
266.561	13.11
266.776	13.48
266.99	13.77
267.205	11.75
267.42	11.16
267.634	10.83
267.849	10.41
268.063	11.61
268.278	11.87
268.492	11.35
268.707	10.82
268.922	10.99
269.136	11.53
269.351	11.03
269.565	11.16
269.78	10.75
269.994	11.01
270.209	11.67
270.423	10.74
270.637	11.07
270.852	11.75
271.066	12.44
271.281	12.58
271.495	12.36
271.709	11.89
271.924	12.04
272.138	12.37
272.353	12.62
272.567	12.81
272.781	13.79
272.996	14.15
273.21	13.64
273.424	13.01
273.638	13.07
273.853	14.06
274.067	14.46
274.281	15.04
274.495	15.42
274.71	14.49
274.924	14.46
275.138	13.35
275.352	13.15
275.566	13.22
275.781	13.81
275.995	13.38
276.209	12.68
276.423	13.43
276.637	13.02
276.851	12.57
277.065	13.41
277.279	13.9
277.493	14.44
277.707	14.55
277.921	14.89
278.135	14.9
278.349	14.33
278.563	14.41
278.777	14.37
278.991	14.78
279.205	14.68
279.419	15.06
279.633	13.98
279.847	13.58
280.061	13.52
280.275	13.43
280.489	13.23
280.703	13.95
280.917	13.17
281.131	12.38
281.344	12.26
281.558	12.81
281.772	12.23
281.986	12.59
282.2	12.76
282.414	12.15
282.627	11.53
282.841	10.87
283.055	10.5
283.269	10.8
283.482	11.13
283.696	11.29
283.91	10.99
284.123	11.3
284.337	10.66
284.551	10.27
284.764	10.49
284.978	10.68
285.192	11.5
285.405	11.44
285.619	11.63
285.833	11.44
286.046	11.13
286.26	10.9
286.473	10.73
286.687	11.37
286.9	11.75
287.114	11.75
287.327	12.19
287.541	11.81
287.754	12.01
287.968	11.14
288.181	11.11
288.395	11.08
288.608	11.53
288.822	11.95
289.035	12.13
289.248	12.37
289.462	12.91
289.675	12.79
289.889	13.47
290.102	13.75
290.315	14.44
290.529	14.73
290.742	14.89
290.955	14.89
291.169	14.39
291.382	14.59
291.595	14.82
291.808	14.21
292.022	14.57
292.235	14
292.448	13.21
292.661	13.5
292.875	12.85
293.088	12.63
293.301	12.83
293.514	12.98
293.727	12.46
293.94	12.34
294.153	12.81
294.367	12.88
294.58	12.65
294.793	12.7
295.006	13.04
295.219	13.36
295.432	13.57
295.645	13.38
295.858	13.33
296.071	12.74
296.284	12.76
296.497	11.92
296.71	11.48
296.923	12.18
297.136	12.65
297.349	12.37
297.562	12.47
297.775	12.22
297.988	12.23
298.201	12.32
298.414	13.15
298.626	12.57
298.839	12.78
299.052	13.23
299.265	12.12
299.478	11.32
299.691	11.13
299.903	10.69
300.116	10.91
300.329	11.36
300.542	11.04
300.755	11.11
300.967	11.66
301.18	12.07
301.393	11.94
301.605	12.44
301.818	12.57
302.031	12.25
302.243	12.39
302.456	12.84
302.669	12.5
302.881	12.99
303.094	13.33
303.307	12.78
303.519	12.24
303.732	12.03
303.944	12.11
304.157	12.57
304.37	13.63
304.582	13.96
304.795	13.23
305.007	13.44
305.22	12.98
305.432	12.12
305.645	12.74
305.857	13.31
306.069	13.1
306.282	12.29
306.494	12.03
306.707	11.12
306.919	11.1
307.132	11.39
307.344	11.9
307.556	12.02
307.769	12.6
307.981	12.33
308.193	12.55
308.406	13.06
308.618	13.43
308.83	13.05
309.043	13.2
309.255	13.44
309.467	13.12
309.679	12.68
309.892	12.42
310.104	12.01
310.316	12.41
310.528	12.57
310.74	12.31
310.953	12.52
311.165	12.54
311.377	12.76
311.589	13.27
311.801	13.13
312.013	13.1
312.225	13.46
312.437	14.42
312.649	14
312.862	13.62
313.074	13.48
313.286	13.17
313.498	13.93
313.71	13.3
313.922	12.96
314.134	13.39
314.346	13.33
314.558	13.84
314.77	12.93
314.982	13.5
315.193	13.75
315.405	13.44
315.617	13.26
315.829	13.77
316.041	14.02
316.253	13.46
316.465	14.78
316.677	15.01
316.888	15.21
317.1	15.3
317.312	14.65
317.524	14.95
317.736	15.61
317.947	16.38
318.159	16.2
318.371	16.81
318.583	16.52
318.794	15.49
319.006	15.28
319.218	14.6
319.43	15.53
319.641	16.2
319.853	15.32
320.064	14.68
320.276	14.52
320.488	14.31
320.699	13.45
320.911	13.94
321.123	13.41
321.334	13.24
321.546	13.65
321.757	13.21
321.969	12.59
322.18	12.9
322.392	12.86
322.603	13.08
322.815	13.48
323.026	14.8
323.238	14.29
323.449	14.63
323.661	14.62
323.872	14.39
324.083	13.78
324.295	14.72
324.506	14.99
324.718	15.31
324.929	14.9
325.14	15.06
325.352	15.03
325.563	15.71
325.774	16.32
325.986	16.53
326.197	16.47
326.408	17.33
326.62	16.76
326.831	17.03
327.042	17.39
327.253	17.77
327.464	17.4
327.676	17.11
327.887	16.97
328.098	16.28
328.309	16.05
328.52	15.5
328.732	15.22
328.943	14.88
329.154	14.77
329.365	14.04
329.576	13.7
329.787	14.06
329.998	13.83
330.209	13.74
330.42	14.12
330.631	14.41
330.842	14.86
331.053	14.84
331.264	15.17
331.475	15.29
331.686	15.78
331.897	15.76
332.108	15.49
332.319	15.01
332.53	15.64
332.741	15.73
332.952	16.05
333.163	15.55
333.374	15.53
333.585	15.86
333.795	15.48
334.006	15.32
334.217	15
334.428	14.58
334.639	15.11
334.849	14.37
335.06	14.04
335.271	13.8
335.482	14.14
335.692	13.6
335.903	13.95
336.114	14.04
336.325	14.51
336.535	14.61
336.746	13.91
336.957	13.8
337.167	13.72
337.378	13.86
337.589	13.83
337.799	14.5
338.01	14.99
338.22	13.71
338.431	14.1
338.642	13.35
338.852	13.65
339.063	14.05
339.273	13.95
339.484	14.71
339.694	15.11
339.905	15.2
340.115	14.65
340.326	14.19
340.536	14.92
340.746	14.96
340.957	15.37
341.167	15.73
341.378	16.6
341.588	16.75
341.799	16.36
342.009	16
342.219	15.65
342.43	15.48
342.64	15.93
342.85	15.66
343.061	15.9
343.271	16.13
343.481	16
343.691	15.12
343.902	15.19
344.112	14.85
344.322	14.81
344.532	14.9
344.743	15.92
344.953	15.98
345.163	16.21
345.373	15.48
345.583	14.87
345.793	14.31
346.004	14.84
346.214	14.26
346.424	14.41
346.634	14.2
346.844	14.32
347.054	13.63
347.264	12.98
347.474	13.14
347.684	12.86
347.894	13.32
348.104	14.25
348.314	14.46
348.524	14.55
348.734	14.61
348.944	15.24
349.154	15.02
349.364	15.37
349.574	15.66
349.784	15.48
349.994	16
350.204	15.88
350.413	15.69
350.623	15.6
350.833	15.79
351.043	15.46
351.253	14.89
351.463	15.14
351.672	14.46
351.882	14.66
352.092	14.68
352.302	14.48
352.511	14.58
352.721	14.1
352.931	13.99
353.141	13.68
353.35	14.01
353.56	13.87
353.77	13.79
353.979	14.33
354.189	14.62
354.399	14.69
354.608	15.14
354.818	14.52
355.027	14.63
355.237	14.97
355.447	15.02
355.656	15.26
355.866	15.16
356.075	14.98
356.285	14.19
356.494	13.61
356.704	13.09
356.913	12.63
357.123	12.91
357.332	12.63
357.542	12.21
357.751	12.37
357.96	11.99
358.17	12.29
358.379	12.66
358.589	12.74
358.798	12.58
359.007	13.08
359.217	13.47
359.426	13.46
359.635	13.53
359.845	13.64
360.054	13.57
360.263	13.44
360.472	13.15
360.682	12.83
360.891	13.36
361.1	13.67
361.309	13.26
361.519	12.93
361.728	12.57
361.937	12.38
362.146	12.2
362.355	12.31
362.564	12.24
362.774	12.41
362.983	12.11
363.192	11.49
363.401	11.54
363.61	11.33
363.819	11.27
364.028	11.56
364.237	11.63
364.446	11.49
364.655	11.5
364.864	11.37
365.073	11.56
365.282	11.5
365.491	11.43
365.7	10.8
365.909	11.01
366.118	11.33
366.327	11.22
366.536	11.2
366.745	11.6
366.954	11.74
367.162	11.96
367.371	11.83
367.58	12.1
367.789	12.28
367.998	12.85
368.207	13.22
368.415	13.09
368.624	13.18
368.833	13.25
369.042	12.73
369.25	12.44
369.459	12.19
369.668	11.58
369.877	11.73
370.085	11.59
370.294	11.57
370.503	11.16
370.711	10.64
370.92	10.69
371.129	10.45
371.337	10.89
371.546	10.79
371.754	11.01
371.963	11.36
372.171	11.51
372.38	11.64
372.589	11.59
372.797	11.59
373.006	11.59
373.214	11.64
373.423	11.59
373.631	11
373.84	10.9
374.048	10.6
374.256	10.16
374.465	9.78
374.673	9.61
374.882	9.48
375.09	9.69
375.298	9.63
375.507	9.45
375.715	9.45
375.923	9.49
376.132	9.36
376.34	9.4
376.548	9.45
376.757	9.65
376.965	9.91
377.173	9.74
377.381	9.62
377.59	9.63
377.798	9.54
378.006	9.26
378.214	9
378.423	9.03
378.631	9.02
378.839	9.34
379.047	8.99
379.255	8.78
379.463	9.24
379.671	9.17
379.879	9.19
380.088	8.96
380.296	9.25
380.504	9.37
380.712	9.23
380.92	9.41
381.128	9.07
381.336	9.14
381.544	9.12
381.752	8.79
381.96	8.96
382.168	9.37
382.376	9.48
382.584	9.4
382.791	9.53
382.999	9.6
383.207	9.42
383.415	9.58
383.623	9.87
383.831	9.46
384.039	9.09
384.247	8.88
384.454	8.41
384.662	8.27
384.87	7.93
385.078	7.48
385.285	7.26
385.493	7.13
385.701	6.97
385.909	6.62
386.116	6.85
386.324	6.98
386.532	6.77
386.739	6.75
386.947	6.84
387.155	7
387.362	7.13
387.57	7.02
387.778	6.79
387.985	6.71
388.193	6.45
388.4	6.39
388.608	6.54
388.816	6.41
389.023	6.31
389.231	5.99
389.438	5.85
389.646	5.74
389.853	5.75
390.061	5.71
390.268	5.72
390.475	5.82
390.683	5.71
390.89	5.37
391.098	5.46
391.305	5.43
391.512	5.59
391.72	5.63
391.927	5.7
392.135	5.73
392.342	5.73
392.549	5.66
392.756	5.62
392.964	5.51
393.171	5.57
393.378	5.48
393.586	5.52
393.793	5.58
394	5.7
394.207	5.63
394.414	5.6
394.622	5.55
394.829	5.52
395.036	5.44
395.243	5.39
395.45	5.48
395.657	5.22
395.864	4.92
396.072	4.66
396.279	4.54
396.486	4.5
396.693	4.27
396.9	4.26
397.107	4.37
397.314	4.46
397.521	4.57
397.728	4.59
397.935	4.42
398.142	4.61
398.349	4.74
398.556	4.81
398.763	4.92
398.97	5.09
399.177	5.18
399.383	5.05
399.59	4.94
399.797	4.99
400.004	4.68
400.211	5.19
400.418	5.27
400.625	5.22
400.831	5.27
401.038	5.26
401.245	5.27
401.452	5.19
401.658	5.13
401.865	5.16
402.072	5.12
402.279	5.33
402.485	5.28
402.692	5.21
402.899	5.13
403.105	4.92
403.312	4.87
403.519	4.72
403.725	4.65
403.932	4.69
404.138	4.62
404.345	4.52
404.552	4.35
404.758	4.31
404.965	4.34
405.171	4.33
405.378	4.25
405.584	4.28
405.791	4.34
405.997	4.43
406.204	4.36
406.41	4.42
406.617	4.52
406.823	4.71
407.029	4.59
407.236	4.57
407.442	4.74
407.649	4.65
407.855	4.48
408.061	4.48
408.268	4.56
408.474	4.47
408.68	4.34
408.887	4.3
409.093	4.16
409.299	4.12
409.505	4.08
409.712	3.86
409.918	3.94
410.124	3.96
410.33	3.89
410.537	3.82
410.743	4.03
410.949	3.95
411.155	3.79
411.361	3.76
411.567	3.7
411.773	3.57
411.98	3.69
412.186	3.88
412.392	3.98
412.598	3.98
412.804	3.94
413.01	3.92
413.216	4.19
413.422	4.29
413.628	4.28
413.834	4.4
414.04	4.5
414.246	4.46
414.452	4.25
414.658	4.21
414.864	4.31
415.07	4.25
415.275	4.13
415.481	3.88
415.687	3.8
415.893	3.9
416.099	3.81
416.305	3.82
416.511	3.73
416.716	3.71
416.922	3.59
417.128	3.6
417.334	3.66
417.539	3.7
417.745	3.76
417.951	3.7
418.157	3.59
418.362	3.61
418.568	3.48
418.774	3.52
418.979	3.53
419.185	3.63
419.391	3.53
419.596	3.47
419.802	3.44
420.008	3.43
420.213	3.51
420.419	3.49
420.624	3.5
420.83	3.58
421.035	3.52
421.241	3.51
421.446	3.37
421.652	3.39
421.857	3.39
422.063	3.35
422.268	3.29
422.474	3.24
422.679	3.23
422.885	3.17
423.09	3.1
423.295	3.12
423.501	3.09
423.706	3.12
423.911	3.08
424.117	3.04
424.322	3.06
424.527	3.03
424.733	3
424.938	3.06
425.143	3.03
425.349	3.06
425.554	3.03
425.759	3.09
425.964	3.18
426.169	3.19
426.375	3.32
426.58	3.31
426.785	3.36
426.99	3.4
427.195	3.28
427.4	3.32
427.605	3.33
427.811	3.28
428.016	3.26
428.221	3.22
428.426	3.19
428.631	3.1
428.836	3.09
429.041	3.02
429.246	3.05
429.451	3.17
429.656	3.22
429.861	3.27
430.066	3.35
430.271	3.36
430.476	3.42
430.681	3.39
430.886	3.43
431.09	3.44
431.295	3.54
431.5	3.55
431.705	3.48
431.91	3.58
432.115	3.53
432.32	3.49
432.524	3.35
432.729	3.28
432.934	3.28
433.139	3.16
433.343	3.07
433.548	3.08
433.753	3.11
433.958	3.15
434.162	3.11
434.367	3.01
434.572	3.02
434.776	3.13
434.981	3.05
435.186	3.11
435.39	3.16
435.595	3.2
435.799	3.15
436.004	3.03
436.209	3.02
436.413	2.96
436.618	3.02
436.822	2.97
437.027	2.91
437.231	2.97
437.436	2.97
437.64	2.95
437.845	2.92
438.049	2.93
438.253	2.91
438.458	2.94
438.662	2.84
438.867	2.86
439.071	2.85
439.275	2.85
439.48	2.88
439.684	2.87
439.888	2.84
440.093	2.88
440.297	2.83
440.501	2.83
440.706	2.76
440.91	2.84
441.114	2.76
441.318	2.75
441.523	2.7
441.727	2.59
441.931	2.49
442.135	2.54
442.339	2.5
442.543	2.53
442.748	2.55
442.952	2.56
443.156	2.48
443.36	2.53
443.564	2.53
443.768	2.63
443.972	2.72
444.176	2.75
444.38	2.69
444.584	2.8
444.788	2.85
444.992	2.81
445.196	2.82
445.4	2.83
445.604	2.79
445.808	2.81
446.012	2.82
446.216	2.68
446.42	2.7
446.624	2.68
446.828	2.61
447.032	2.55
447.235	2.62
447.439	2.65
447.643	2.6
447.847	2.66
448.051	2.73
448.254	2.61
448.458	2.82
448.662	2.77
448.866	2.8
449.069	2.74
449.273	2.8
449.477	2.76
449.681	2.77
449.884	2.84
450.088	2.82
450.292	2.76
450.495	2.8
450.699	2.65
450.902	2.77
451.106	2.83
451.31	2.84
451.513	2.84
451.717	2.8
451.92	2.71
452.124	2.72
452.327	2.75
452.531	2.79
452.734	2.87
452.938	2.98
453.141	2.9
453.345	2.85
453.548	2.96
453.752	2.88
453.955	2.95
454.158	2.92
454.362	2.98
454.565	2.99
454.769	2.96
454.972	2.91
455.175	2.9
455.379	2.96
455.582	2.95
455.785	2.74
455.988	2.79
456.192	2.76
456.395	2.79
456.598	2.71
456.801	2.64
457.005	2.57
457.208	2.56
457.411	2.53
457.614	2.56
457.817	2.54
458.021	2.62
458.224	2.59
458.427	2.61
458.63	2.63
458.833	2.66
459.036	2.63
459.239	2.66
459.442	2.68
459.645	2.67
459.848	2.59
460.051	2.7
460.254	2.67
460.457	2.77
460.66	2.69
460.863	2.76
461.066	2.77
461.269	2.89
461.472	2.95
461.675	2.93
461.878	3
462.081	3.09
462.284	3.02
462.486	3.02
462.689	2.96
462.892	3.01
463.095	2.96
463.298	2.82
463.5	2.75
463.703	2.7
463.906	2.68
464.109	2.68
464.311	2.69
464.514	2.67
464.717	2.77
464.92	2.79
465.122	2.81
465.325	2.72
465.528	2.87
465.73	2.94
465.933	2.92
466.135	3.02
466.338	3.05
466.541	3.05
466.743	3.11
466.946	3
467.148	2.98
467.351	3
467.553	3.02
467.756	3
467.958	2.93
468.161	3.05
468.363	3.05
468.566	2.92
468.768	2.88
468.971	2.91
469.173	2.91
469.375	2.9
469.578	2.85
469.78	2.88
469.983	2.81
470.185	2.85
470.387	2.71
470.59	2.63
470.792	2.74
470.994	2.77
471.196	2.72
471.399	2.71
471.601	2.7
471.803	2.63
472.005	2.65
472.208	2.75
472.41	2.68
472.612	2.75
472.814	2.68
473.016	2.67
473.218	2.65
473.421	2.67
473.623	2.78
473.825	2.81
474.027	2.94
474.229	2.93
474.431	2.99
474.633	2.96
474.835	2.98
475.037	3
475.239	3
475.441	2.97
475.643	2.88
475.845	2.83
476.047	2.74
476.249	2.67
476.451	2.72
476.653	2.64
476.855	2.64
477.057	2.69
477.258	2.75
477.46	2.75
477.662	2.73
477.864	2.74
478.066	2.73
478.268	2.84
478.469	2.91
478.671	2.89
478.873	2.85
479.075	2.9
479.276	2.85
479.478	2.84
479.68	2.82
479.882	2.81
480.083	2.79
480.285	2.76
480.487	2.69
480.688	2.6
480.89	2.52
481.091	2.5
481.293	2.48
481.495	2.45
481.696	2.41
481.898	2.38
482.099	2.38
482.301	2.35
482.502	2.35
482.704	2.35
482.905	2.35
483.107	2.4
483.308	2.4
483.51	2.4
483.711	2.41
483.913	2.46
484.114	2.46
484.315	2.49
484.517	2.53
484.718	2.53
484.92	2.51
485.121	2.51
485.322	2.48
485.524	2.5
485.725	2.5
485.926	2.52
486.127	2.5
486.329	2.52
486.53	2.52
486.731	2.5
486.932	2.52
487.134	2.54
487.335	2.54
487.536	2.55
487.737	2.53
487.938	2.51
488.139	2.45
488.341	2.46
488.542	2.45
488.743	2.43
488.944	2.46
489.145	2.48
489.346	2.5
489.547	2.52
489.748	2.51
489.949	2.51
490.15	2.54
490.351	2.54
490.552	2.53
490.753	2.53
490.954	2.55
491.155	2.57
491.356	2.57
491.557	2.58
491.758	2.57
491.959	2.62
492.159	2.69
492.36	2.7
492.561	2.77
492.762	2.82
492.963	2.88
493.164	2.91
493.364	2.92
493.565	2.97
493.766	2.91
493.967	2.97
494.167	2.95
494.368	2.93
494.569	2.89
494.769	2.88
494.97	2.83
495.171	2.85
495.371	2.83
495.572	2.82
495.773	2.79
495.973	2.92
496.174	2.83
496.375	2.82
496.575	2.82
496.776	2.84
496.976	2.84
497.177	2.9
497.377	2.91
497.578	2.95
497.778	2.95
497.979	2.92
498.179	2.84
498.38	2.95
498.58	2.94
498.78	2.95
498.981	2.99
499.181	3.02
499.382	3.05
499.582	2.96
499.782	2.92
499.983	2.93
500.183	2.94
500.383	2.91
500.584	2.96
500.784	3.05
500.984	3.04
501.184	3.07
501.385	3.04
501.585	3.05
501.785	3.12
501.985	3.16
502.185	3.16
502.386	3.15
502.586	3.23
502.786	3.23
502.986	3.24
503.186	3.26
503.386	3.23
503.586	3.28
503.786	3.31
503.987	3.4
504.187	3.44
504.387	3.48
504.587	3.6
504.787	3.61
504.987	3.57
505.187	3.59
505.387	3.64
505.587	3.64
505.786	3.61
505.986	3.56
506.186	3.58
506.386	3.58
506.586	3.53
506.786	3.52
506.986	3.52
507.186	3.64
507.386	3.54
507.585	3.54
507.785	3.6
507.985	3.67
508.185	3.68
508.384	3.61
508.584	3.7
508.784	3.83
508.984	3.87
509.183	3.91
509.383	3.9
509.583	3.96
509.782	4.02
509.982	4
510.182	4.04
510.381	4.05
510.581	4.12
510.781	4.06
510.98	4
511.18	3.97
511.379	3.96
511.579	4.05
511.778	4.11
511.978	4.11
512.177	4.11
512.377	4.12
512.576	4.2
512.776	4.2
512.975	4.17
513.175	4.19
513.374	4.21
513.573	4.3
513.773	4.15
513.972	4.21
514.172	4.28
514.371	4.31
514.57	4.35
514.77	4.36
514.969	4.42
515.168	4.49
515.367	4.56
515.567	4.63
515.766	4.55
515.965	4.65
516.164	4.57
516.364	4.57
516.563	4.57
516.762	4.55
516.961	4.58
517.16	4.53
517.359	4.56
517.559	4.54
517.758	4.56
517.957	4.7
518.156	4.73
518.355	4.88
518.554	4.92
518.753	5.04
518.952	5.07
519.151	5.14
519.35	5.18
519.549	5.22
519.748	5.3
519.947	5.34
520.146	5.28
520.345	5.27
520.544	5.27
520.743	5.28
520.942	5.27
521.141	5.25
521.339	5.22
521.538	5.3
521.737	5.33
521.936	5.34
522.135	5.31
522.333	5.31
522.532	5.35
522.731	5.37
522.93	5.36
523.129	5.39
523.327	5.47
523.526	5.51
523.725	5.51
523.923	5.55
524.122	5.55
524.321	5.61
524.519	5.72
524.718	5.73
524.917	5.73
525.115	5.71
525.314	5.69
525.512	5.71
525.711	5.69
525.909	5.74
526.108	5.76
526.306	5.76
526.505	5.75
526.703	5.69
526.902	5.69
527.1	5.68
527.299	5.75
527.497	5.77
527.696	5.79
527.894	5.85
528.092	5.83
528.291	5.81
528.489	5.87
528.688	5.89
528.886	5.94
529.084	5.97
529.283	6.02
529.481	6.06
529.679	6.12
529.877	6.14
530.076	6.14
530.274	6.22
530.472	6.29
530.67	6.28
530.869	6.33
531.067	6.43
531.265	6.51
531.463	6.53
531.661	6.54
531.859	6.51
532.057	6.54
532.255	6.58
532.454	6.61
532.652	6.67
532.85	6.71
533.048	6.74
533.246	6.72
533.444	6.72
533.642	6.76
533.84	6.73
534.038	6.81
534.236	6.84
534.434	6.91
534.632	6.91
534.83	6.89
535.027	6.93
535.225	6.93
535.423	6.95
535.621	6.96
535.819	7.07
536.017	7.18
536.215	7.21
536.412	7.28
536.61	7.27
536.808	7.33
537.006	7.4
537.203	7.46
537.401	7.53
537.599	7.6
537.797	7.66
537.994	7.55
538.192	7.55
538.39	7.6
538.587	7.58
538.785	7.68
538.983	7.73
539.18	7.76
539.378	7.75
539.575	7.86
539.773	7.88
539.97	7.88
540.168	7.94
540.366	7.95
540.563	7.94
540.761	7.98
540.958	7.95
541.155	7.97
541.353	8.01
541.55	8.06
541.748	8.03
541.945	8.07
542.143	8.14
542.34	8.25
542.537	8.31
542.735	8.39
542.932	8.47
543.129	8.55
543.327	8.61
543.524	8.63
543.721	8.67
543.919	8.77
544.116	8.8
544.313	8.85
544.51	8.84
544.708	8.91
544.905	8.93
545.102	8.95
545.299	8.94
545.496	9.01
545.693	9.03
545.891	9.07
546.088	9.09
546.285	9.15
546.482	9.16
546.679	9.17
546.876	9.2
547.073	9.33
547.27	9.34
547.467	9.41
547.664	9.38
547.861	9.48
548.058	9.61
548.255	9.72
548.452	9.76
548.649	9.83
548.846	9.9
549.043	9.97
549.24	10
549.437	10.11
549.633	10.18
549.83	10.3
550.027	10.29
550.224	10.25
550.421	10.14
550.618	10.23
550.814	10.27
551.011	10.24
551.208	10.23
551.405	10.29
551.601	10.38
551.798	10.4
551.995	10.45
552.191	10.5
552.388	10.54
552.585	10.52
552.781	10.51
552.978	10.62
553.175	10.79
553.371	10.95
553.568	11.03
553.764	11.02
553.961	11.11
554.157	11.08
554.354	11.2
554.55	11.31
554.747	11.43
554.943	11.55
555.14	11.63
555.336	11.64
555.533	11.6
555.729	11.64
555.926	11.72
556.122	11.79
556.318	11.99
556.515	12.04
556.711	12.13
556.907	12.21
557.104	12.33
557.3	12.39
557.496	12.54
557.693	12.53
557.889	12.53
558.085	12.62
558.281	12.67
558.478	12.65
558.674	12.71
558.87	12.7
559.066	12.81
559.262	12.81
559.459	12.82
559.655	12.84
559.851	12.94
560.047	13.13
560.243	13.07
560.439	13.12
560.635	13.2
560.831	13.22
561.027	13.29
561.223	13.25
561.419	13.15
561.615	13.21
561.811	13.21
562.007	13.32
562.203	13.29
562.399	13.41
562.595	13.47
562.791	13.53
562.987	13.64
563.183	13.75
563.379	13.84
563.575	13.97
563.771	14.05
563.966	14.14
564.162	14.18
564.358	14.22
564.554	14.39
564.75	14.41
564.945	14.5
565.141	14.51
565.337	14.58
565.533	14.65
565.728	14.77
565.924	14.85
566.12	14.92
566.315	14.94
566.511	14.91
566.707	14.9
566.902	15
567.098	15
567.293	15.01
567.489	15.01
567.684	15.14
567.88	15.21
568.076	15.24
568.271	15.15
568.467	15.21
568.662	15.39
568.858	15.37
569.053	15.43
569.248	15.5
569.444	15.61
569.639	15.71
569.835	15.77
570.03	15.74
570.225	15.76
570.421	15.9
570.616	15.9
570.812	15.87
571.007	15.93
571.202	16.01
571.397	16.03
571.593	16.12
571.788	16.2
571.983	16.15
572.178	16.31
572.374	16.3
572.569	16.36
572.764	16.53
572.959	16.62
573.154	16.67
573.35	16.71
573.545	16.8
573.74	16.81
573.935	16.76
574.13	16.87
574.325	16.81
574.52	16.9
574.715	16.88
574.91	16.9
575.105	16.85
575.3	16.94
575.495	16.97
575.69	16.91
575.885	16.94
576.08	17.02
576.275	17.06
576.47	17.11
576.665	17.19
576.86	17.32
577.055	17.35
577.25	17.48
577.444	17.42
577.639	17.44
577.834	17.59
578.029	17.67
578.224	17.71
578.418	17.82
578.613	17.89
578.808	17.87
579.003	17.87
579.197	17.92
579.392	17.91
579.587	18.07
579.781	18.11
579.976	18.22
580.171	18.23
580.365	18.31
580.56	18.35
580.755	18.49
580.949	18.49
581.144	18.57
581.338	18.56
581.533	18.66
581.727	18.58
581.922	18.74
582.116	18.61
582.311	18.67
582.505	18.64
582.7	18.46
582.894	18.48
583.089	18.51
583.283	18.46
583.478	18.47
583.672	18.64
583.866	18.68
584.061	18.58
584.255	18.68
584.449	18.65
584.644	18.7
584.838	18.91
585.032	18.97
585.226	19.09
585.421	19.24
585.615	19.46
585.809	19.34
586.003	19.38
586.198	19.35
586.392	19.21
586.586	19.38
586.78	19.35
586.974	19.34
587.168	19.28
587.363	19.32
587.557	19.32
587.751	19.12
587.945	19.11
588.139	19.25
588.333	19.45
588.527	19.67
588.721	19.56
588.915	19.63
589.109	19.57
589.303	19.6
589.497	19.56
589.691	19.56
589.885	19.68
590.079	19.8
590.273	19.73
590.466	19.6
590.66	19.6
590.854	19.52
591.048	19.47
591.242	19.54
591.436	19.59
591.629	19.65
591.823	19.64
592.017	19.63
592.211	19.77
592.404	19.78
592.598	19.82
592.792	19.85
592.986	20.05
593.179	20.13
593.373	20.28
593.567	20.3
593.76	20.33
593.954	20.35
594.147	20.45
594.341	20.5
594.535	20.55
594.728	20.6
594.922	20.56
595.115	20.53
595.309	20.57
595.502	20.53
595.696	20.63
595.889	20.63
596.083	20.73
596.276	20.68
596.47	20.68
596.663	20.81
596.856	20.81
597.05	20.87
597.243	20.96
597.437	20.99
597.63	21.02
597.823	20.93
598.017	20.91
598.21	20.78
598.403	20.87
598.596	20.65
598.79	20.48
598.983	20.5
599.176	20.58
599.369	20.46
599.563	20.54
599.756	20.64
599.949	20.65
600.142	20.68
600.335	20.79
600.528	20.77
600.722	20.99
600.915	21.16
601.108	21.19
601.301	21.26
601.494	21.3
601.687	21.19
601.88	21.04
602.073	21.07
602.266	21.17
602.459	21.24
602.652	21.24
602.845	21.28
603.038	21.29
603.231	21.28
603.424	21.24
603.617	21.24
603.809	21.35
604.002	21.45
604.195	21.46
604.388	21.45
604.581	21.43
604.774	21.4
604.966	21.34
605.159	21.33
605.352	21.39
605.545	21.34
605.737	21.4
605.93	21.43
606.123	21.64
606.316	21.8
606.508	21.81
606.701	21.85
606.894	21.87
607.086	21.86
607.279	21.99
607.471	22.07
607.664	22.14
607.857	22.1
608.049	22.08
608.242	21.99
608.434	21.94
608.627	21.98
608.819	22.01
609.012	22.22
609.204	22.29
609.397	22.2
609.589	22.25
609.782	22.26
609.974	22.32
610.166	22.42
610.359	22.38
610.551	22.39
610.743	22.38
610.936	22.48
611.128	22.42
611.32	22.44
611.513	22.55
611.705	22.5
611.897	22.48
612.09	22.67
612.282	22.56
612.474	22.55
612.666	22.56
612.858	22.55
613.051	22.42
613.243	22.45
613.435	22.4
613.627	22.39
613.819	22.35
614.011	22.49
614.203	22.43
614.395	22.34
614.588	22.4
614.78	22.36
614.972	22.41
615.164	22.57
615.356	22.5
615.548	22.44
615.74	22.36
615.932	22.49
616.124	22.45
616.315	22.46
616.507	22.64
616.699	22.75
616.891	22.81
617.083	22.84
617.275	22.73
617.467	22.64
617.659	22.68
617.85	22.65
618.042	22.32
618.234	22.39
618.426	22.14
618.618	22.02
618.809	21.99
619.001	21.98
619.193	22.04
619.384	21.84
619.576	21.93
619.768	21.89
619.959	21.99
620.151	22.21
620.343	22.05
620.534	22.15
620.726	22.17
620.917	22.18
621.109	22.35
621.301	22.38
621.492	22.52
621.684	22.59
621.875	22.76
622.067	22.69
622.258	22.73
622.45	22.96
622.641	23.16
622.832	23.2
623.024	23.06
623.215	22.98
623.407	22.91
623.598	22.95
623.789	22.91
623.981	22.8
624.172	22.78
624.363	22.71
624.555	22.49
624.746	22.3
624.937	22.36
625.129	22.41
625.32	22.35
625.511	22.25
625.702	22.26
625.893	22.42
626.085	22.45
626.276	22.65
626.467	22.73
626.658	23.02
626.849	23.1
627.04	23.15
627.231	23.12
627.422	23.18
627.614	23.28
627.805	23.28
627.996	23.17
628.187	23.2
628.378	23.16
628.569	23.23
628.76	23.06
628.951	23.17
629.142	23.14
629.332	23.26
629.523	23.33
629.714	23.39
629.905	23.4
630.096	23.3
630.287	23.37
630.478	23.17
630.669	23.13
630.859	23.01
631.05	22.92
631.241	22.86
631.432	22.93
631.623	22.84
631.813	22.83
632.004	22.95
632.195	23.02
632.385	23.03
632.576	23.36
632.767	23.4
632.957	23.52
633.148	23.4
633.339	23.51
633.529	23.45
633.72	23.5
633.91	23.58
634.101	23.7
634.292	23.72
634.482	23.7
634.673	23.44
634.863	23.45
635.054	23.4
635.244	23.66
635.435	23.82
635.625	23.73
635.815	23.8
636.006	23.87
636.196	23.81
636.387	23.84
636.577	23.87
636.767	24.05
636.958	24.2
637.148	24.4
637.338	24.37
637.529	24.2
637.719	24.28
637.909	24.31
638.099	24.33
638.29	24.04
638.48	24
638.67	23.99
638.86	23.87
639.05	23.67
639.241	23.59
639.431	23.5
639.621	23.5
639.811	23.58
640.001	23.46
640.191	23.44
640.381	23.78
640.571	23.93
640.761	23.81
640.951	23.96
641.141	24.01
641.331	23.9
641.521	23.77
641.711	23.82
641.901	23.75
642.091	23.69
642.281	23.46
642.471	23.26
642.661	23.37
642.851	23.38
643.041	23.4
643.231	23.47
643.42	23.58
643.61	23.81
643.8	23.7
643.99	23.8
644.18	24.02
644.369	24.12
644.559	24.01
644.749	23.78
644.939	24.04
645.128	23.81
645.318	23.82
645.508	23.84
645.697	23.87
645.887	23.98
646.076	24
646.266	23.93
646.456	24.08
646.645	24.46
646.835	24.63
647.024	24.48
647.214	24.7
647.403	24.78
647.593	24.8
647.782	24.83
647.972	24.62
648.161	24.58
648.351	24.6
648.54	24.6
648.73	24.53
648.919	24.39
649.108	24.29
649.298	24.19
649.487	23.94
649.677	23.82
649.866	23.82
650.055	23.76
650.244	23.62
650.434	23.73
650.623	23.75
650.812	23.69
651.002	23.68
651.191	23.98
651.38	24.13
651.569	24.21
651.758	24.39
651.947	24.57
652.137	24.85
652.326	24.99
652.515	24.77
652.704	24.71
652.893	24.74
653.082	24.8
653.271	24.44
653.46	24.26
653.649	24.27
653.838	24.08
654.027	23.93
654.216	23.98
654.405	24.02
654.594	24.07
654.783	23.97
654.972	24.11
655.161	24.09
655.35	24.23
655.539	24.22
655.728	24.26
655.916	24.35
656.105	24.22
656.294	24.25
656.483	24.53
656.672	24.36
656.86	24.34
657.049	24.14
657.238	24.04
657.427	24.35
657.615	24.27
657.804	24.32
657.993	24.31
658.181	24.23
658.37	24.23
658.559	23.86
658.747	24.05
658.936	24.07
659.125	24.65
659.313	24.76
659.502	24.58
659.69	24.73
659.879	24.8
660.067	24.82
660.256	24.94
660.444	25.01
660.633	25.12
660.821	25.26
661.01	25.47
661.198	24.86
661.387	24.76
661.575	24.72
661.763	24.79
661.952	24.67
662.14	24.57
662.328	24.5
662.517	24.54
662.705	24.51
662.893	24.38
663.082	24.08
663.27	24.16
663.458	24.34
663.646	24.36
663.834	24.28
664.023	24.25
664.211	24.49
664.399	24.85
664.587	24.65
664.775	24.88
664.963	24.74
665.152	25.02
665.34	25.04
665.528	24.91
665.716	25.03
665.904	24.97
666.092	25.03
666.28	24.9
666.468	24.67
666.656	24.59
666.844	24.63
667.032	24.79
667.22	24.75
667.408	24.78
667.596	24.88
667.784	24.87
667.971	24.87
668.159	24.77
668.347	24.88
668.535	24.99
668.723	25.21
668.911	25.13
669.098	25.16
669.286	25.17
669.474	25.14
669.662	25.12
669.849	24.88
670.037	24.91
670.225	25.02
670.413	25
670.6	24.76
670.788	25
670.976	25.09
671.163	25.17
671.351	24.98
671.538	24.97
671.726	24.87
671.913	25.15
672.101	25.35
672.289	25.19
672.476	25.27
672.664	25.11
672.851	24.73
673.039	24.8
673.226	24.58
673.413	24.56
673.601	24.61
673.788	24.78
673.976	24.7
674.163	24.78
674.35	25
674.538	24.98
674.725	25.71
674.912	25.82
675.1	25.66
675.287	26.02
675.474	26.47
675.662	26.31
675.849	26.49
676.036	26.39
676.223	26.21
676.411	26.19
676.598	26.06
676.785	25.68
676.972	25.67
677.159	25.7
677.346	25.33
677.533	25.08
677.721	25.03
677.908	24.98
678.095	24.97
678.282	25.03
678.469	24.93
678.656	24.85
678.843	25.14
679.03	25.21
679.217	25.33
679.404	25.46
679.591	25.31
679.778	25.25
679.964	25.07
680.151	24.9
680.338	24.86
680.525	24.97
680.712	25.1
680.899	24.71
681.086	24.45
681.272	24.21
681.459	24.19
681.646	24.31
681.833	24.6
682.02	24.76
682.206	25.03
682.393	25.27
682.58	25.4
682.766	25.46
682.953	25.71
683.14	25.91
683.326	26.11
683.513	25.94
683.7	26.29
683.886	26.28
684.073	26.19
684.259	26.08
684.446	25.87
684.632	25.74
684.819	25.59
685.005	25.52
685.192	25.68
685.378	25.38
685.565	25.56
685.751	25.32
685.938	25.45
686.124	25.44
686.31	25.69
686.497	25.81
686.683	25.62
686.87	25.85
687.056	25.85
687.242	25.64
687.429	25.9
687.615	25.9
687.801	25.86
687.987	25.44
688.174	25.62
688.36	25.51
688.546	25.54
688.732	25.81
688.918	25.64
689.105	25.56
689.291	25.69
689.477	25.48
689.663	25.46
689.849	25.6
690.035	25.62
690.221	25.44
690.407	25.8
690.593	25.56
690.779	25.48
690.965	25.57
691.151	25.64
691.337	25.74
691.523	25.98
691.709	26.02
691.895	25.41
692.081	25.33
692.267	25.46
692.453	25.16
692.639	25.46
692.825	25.27
693.011	25.04
693.196	25.17
693.382	24.95
693.568	25.06
693.754	25.17
693.94	25.59
694.125	26.23
694.311	25.73
694.497	25.48
694.682	25.48
694.868	25.76
695.054	25.71
695.239	25.78
695.425	25.73
695.611	25.23
695.796	25.12
695.982	24.99
696.168	24.7
696.353	25.08
696.539	25.1
696.724	24.74
696.91	24.65
697.095	24.75
697.281	24.59
697.466	24.57
697.652	24.65
697.837	24.83
698.023	24.98
698.208	24.93
698.393	25
698.579	25.42
698.764	25.44
698.949	25.48
699.135	25.61
699.32	25.63
699.505	25.59
699.691	25.71
699.876	25.55
700.061	25.38
700.246	25.39
700.432	25.34
700.617	24.94
700.802	24.92
700.987	24.79
701.172	24.86
701.358	24.83
701.543	25.28
701.728	25.38
701.913	25.38
702.098	25.77
702.283	25.7
702.468	25.66
702.653	25.62
702.838	25.87
703.023	25.82
703.208	25.46
703.393	25.35
703.578	25.24
703.763	25.17
703.948	25.01
704.133	24.85
704.318	24.89
704.503	24.47
704.688	24.45
704.873	24.21
705.057	24.46
705.242	24.79
705.427	25.32
705.612	25.07
705.797	25.24
705.981	25.34
706.166	25.55
706.351	25.83
706.536	26.05
706.72	26.3
706.905	26.75
707.09	26.66
707.274	26.42
707.459	25.91
707.644	26.13
707.828	26.09
708.013	25.98
708.197	25.46
708.382	25.47
708.567	25.54
708.751	25.38
708.936	24.87
709.12	24.86
709.305	25.01
709.489	24.86
709.673	24.64
709.858	24.57
710.042	24.62
710.227	25.06
710.411	24.78
710.596	24.6
710.78	24.55
710.964	24.78
711.149	24.7
711.333	24.52
711.517	24.6
711.702	24.34
711.886	24.42
712.07	24.3
712.254	24.22
712.438	24.21
712.623	24.49
712.807	24.18
712.991	24.02
713.175	24.12
713.359	23.96
713.544	24.27
713.728	24.58
713.912	24.27
714.096	24.32
714.28	24.28
714.464	24.57
714.648	24.36
714.832	24.61
715.016	24.78
715.2	24.86
715.384	25.47
715.568	25.45
715.752	25.44
715.936	25.77
716.12	25.75
716.304	25.87
716.488	25.71
716.671	25.58
716.855	25.59
717.039	25.66
717.223	25.41
717.407	24.94
717.59	25.22
717.774	25.32
717.958	25.03
718.142	25.16
718.325	24.73
718.509	24.41
718.693	24.91
718.877	24.88
719.06	24.72
719.244	24.86
719.428	25
719.611	24.6
719.795	24.48
719.978	24.51
720.162	24.44
720.345	24.67
720.529	25.52
720.713	25.24
720.896	25.09
721.08	25.17
721.263	24.87
721.446	25.23
721.63	25.3
721.813	25.36
721.997	25.28
722.18	25.44
722.364	25.46
722.547	24.76
722.73	24.84
722.914	25.04
723.097	25.14
723.28	25.55
723.464	25.13
723.647	25.02
723.83	25.22
724.013	25.72
724.197	25.52
724.38	25.21
724.563	25.3
724.746	25.34
724.929	25.62
725.112	25.7
725.296	25.34
725.479	25.32
725.662	25.45
725.845	25.59
726.028	25.49
726.211	25.98
726.394	26.39
726.577	26.61
726.76	26.37
726.943	26
727.126	26.17
727.309	26.18
727.492	26.34
727.675	26.07
727.858	25.42
728.041	25.22
728.224	24.77
728.407	25.03
728.589	24.89
728.772	24.82
728.955	24.85
729.138	24.44
729.321	24.53
729.503	24.56
729.686	24.88
729.869	25.41
730.052	25.81
730.234	26.23
730.417	25.88
730.6	25.98
730.782	26.45
730.965	26.41
731.148	26.38
731.33	26.54
731.513	26.21
731.695	25.99
731.878	26.02
732.061	25.76
732.243	25.53
732.426	25.4
732.608	25.3
732.791	25.29
732.973	25.15
733.156	25.06
733.338	25.17
733.52	25.7
733.703	25.71
733.885	25.53
734.068	25.64
734.25	25.61
734.432	25.72
734.615	26.02
734.797	26.03
734.979	26.7
735.162	27.13
735.344	26.74
735.526	26.41
735.708	26.41
735.891	26.46
736.073	25.96
736.255	25.99
736.437	26.44
736.619	25.72
736.802	25.33
736.984	24.86
737.166	24.78
737.348	25.45
737.53	25.42
737.712	25.87
737.894	25.69
738.076	25.89
738.258	25.94
738.44	25.99
738.622	26.16
738.804	26.23
738.986	26.62
739.168	26.69
739.35	26.48
739.532	26.57
739.714	26.24
739.896	26.12
740.078	26.93
740.259	26.74
740.441	26.22
740.623	26.58
740.805	26.98
740.987	26.8
741.168	26.63
741.35	26.79
741.532	26.84
741.714	27
741.895	27.32
742.077	26.82
742.259	27
742.44	27.43
742.622	27.51
742.804	26.99
742.985	26.63
743.167	26.09
743.348	26.1
743.53	25.69
743.711	25.67
743.893	25.95
744.075	26.14
744.256	25.54
744.438	25
744.619	24.65
744.8	24.67
744.982	24.48
745.163	25.3
745.345	24.9
745.526	25.48
745.707	25.48
745.889	25.32
746.07	24.46
746.252	25.37
746.433	25.63
746.614	26.16
746.795	26.27
746.977	26.72
747.158	26.64
747.339	26.71
747.52	26.88
747.702	26.5
747.883	26.25
748.064	26.74
748.245	26.14
748.426	26.38
748.607	26.4
748.788	26.28
748.97	26.09
749.151	26.31
749.332	26.08
749.513	25.59
749.694	25.49
749.875	25.84
750.056	26.01
750.237	26.36
750.418	26.09
750.599	25.5
750.78	25.59
750.96	25.81
751.141	25.68
751.322	26.05
751.503	25.94
751.684	26.65
751.865	26.48
752.046	26.23
752.226	25.99
752.407	25.91
752.588	26.37
752.769	26.18
752.949	25.51
753.13	25.31
753.311	24.55
753.492	25.12
753.672	24.51
753.853	24.49
754.034	23.81
754.214	24.6
754.395	24.36
754.575	24.45
754.756	24.97
754.937	25.82
755.117	25.95
755.298	26.7
755.478	26.01
755.659	26.34
755.839	26.22
756.02	26.86
756.2	26.06
756.381	26.72
756.561	26.07
756.741	26.69
756.922	26.38
757.102	26.14
757.283	26.11
757.463	26.47
757.643	26.52
757.823	27.27
758.004	27
758.184	27.79
758.364	27.49
758.545	27.8
758.725	27.25
758.905	27.49
759.085	27.39
759.265	27.03
759.446	26.9
759.626	27.23
759.806	26.19
759.986	26.06
760.166	26
760.346	25.36
760.526	25.27
760.706	25.32
760.886	25.39
761.066	25.51
761.246	25.82
761.426	26.24
761.606	25.94
761.786	26.22
761.966	26.47
762.146	25.99
762.326	26.4
762.506	26.57
762.686	25.89
762.866	25.39
763.046	25.45
763.225	25.51
763.405	25.39
763.585	25.19
763.765	25.2
763.945	25.04
764.124	25.02
764.304	24.98
764.484	24.64
764.664	24.98
764.843	25.14
765.023	25.64
765.203	25.43
765.382	25.73
765.562	25.84
765.741	25.61
765.921	26.14
766.101	26.3
766.28	26.21
766.46	26.5
766.639	27.09
766.819	27.62
766.998	27.31
767.178	26.73
767.357	25.88
767.537	25.7
767.716	25.97
767.896	26.12
768.075	26.1
768.254	25.98
768.434	26.43
768.613	26.39
768.792	25.96
768.972	25.71
769.151	26.41
769.33	27.43
769.51	27.71
769.689	27.22
769.868	26.56
770.047	27.21
770.226	27.53
770.406	26.7
770.585	26.27
770.764	26.08
770.943	25.61
771.122	25.63
771.301	25.33
771.48	25.04
771.66	25.73
771.839	26.13
772.018	25.84
772.197	25.58
772.376	25.35
772.555	24.97
772.734	25.69
772.913	25.67
773.092	26.07
773.271	25.46
773.449	25.09
773.628	25.63
773.807	25.52
773.986	25.31
774.165	25.3
774.344	25.6
774.523	26.04
774.701	25.64
774.88	26.46
775.059	26.15
775.238	26.92
775.417	27.35
775.595	27.31
775.774	26.86
775.953	26.77
776.131	27.1
776.31	27.5
776.489	28.01
776.667	27.82
776.846	27.8
777.025	27.22
777.203	26.7
777.382	27.74
777.56	26.65
777.739	26.55
777.917	25.83
778.096	25.74
778.274	25.36
778.453	25.03
778.631	25.14
778.81	24.23
778.988	24.81
779.166	24.47
779.345	23.77
779.523	24.1
779.702	24.23
779.88	25.07
780.058	24.61
780.237	24.22
780.415	24.54
780.593	24.45
780.771	25.01
780.95	25.17
781.128	25.35
781.306	25.24
781.484	25.23
781.662	25.42
781.841	25.34
782.019	25.5
782.197	26.27
782.375	25.43
782.553	25.83
782.731	25.55
782.909	25.33
783.087	25.32
783.265	25.87
783.443	26.53
783.621	26.45
783.799	26.7
783.977	28.2
784.155	28.28
784.333	29.34
784.511	28.65
784.689	28.13
784.867	28.18
785.045	28.42
785.223	27.45
785.4	27.01
785.578	27.29
785.756	26.98
785.934	25.21
786.112	25.33
786.289	24.97
786.467	25.18
786.645	25.48
786.823	24.97
787	25.2
787.178	25.05
787.356	24.61
787.533	24.4
787.711	23.67
787.889	24.51
788.066	24.53
788.244	24.27
788.421	25.08
788.599	24.89
788.776	25.17
788.954	25.07
789.131	25.4
789.309	25.37
789.486	25.69
789.664	26.02
789.841	26.22
790.019	26.29
790.196	25.71
790.373	25.46
790.551	26.22
790.728	26.31
790.906	26.04
791.083	26.51
791.26	26.34
791.437	26.09
791.615	27.17
791.792	26.56
791.969	26.15
792.146	26.93
792.324	26.6
792.501	26.28
792.678	27.28
792.855	27.43
793.032	27.53
793.209	27.92
793.387	28.49
793.564	27.68
793.741	28.28
793.918	28.91
794.095	29.09
794.272	28.62
794.449	28.03
794.626	27.36
794.803	26.38
794.98	26.04
795.157	25.86
795.334	25.21
795.511	25.26
795.688	24.5
795.864	23.45
796.041	22.85
796.218	23.79
796.395	24.59
796.572	25.29
796.749	26.18
796.925	26.04
797.102	25.97
797.279	25.45
797.456	25.79
797.632	26.24
797.809	26.46
797.986	27.43
798.162	27.8
798.339	27.15
798.516	25.97
798.692	26.14
798.869	26.75
799.046	26.91
799.222	27.7
799.399	27.71
799.575	27.28
799.752	27.68
799.928	27.32
800.105	26.11
800.281	27.32
800.458	27.29
800.634	27.1
800.811	26.08
800.987	26.37
801.163	26.33
801.34	25.83
801.516	26.39
801.692	25.31
801.869	24.49
802.045	24.88
802.221	24.39
802.398	23.37
802.574	23
802.75	23.62
802.926	23.42
803.103	23.7
803.279	23.64
803.455	23.39
803.631	25.56
803.807	24.86
803.983	24.81
804.16	24.76
804.336	26.33
804.512	27.28
804.688	27.63
804.864	28.21
805.04	28.99
805.216	29.39
805.392	29.11
805.568	27.25
805.744	29.17
805.92	29.53
806.096	28.86
806.272	28.82
806.448	28.28
806.623	28.43
806.799	28.77
806.975	27.51
807.151	26.54
807.327	26.77
807.503	26.99
807.678	26.1
807.854	25.31
808.03	27.27
808.206	26.95
808.381	26.63
808.557	26.04
808.733	26.03
808.908	25.65
809.084	25.55
809.26	25.79
809.435	26.73
809.611	26.19
809.787	27.03
809.962	24.82
810.138	24.97
810.313	25.67
810.489	26.06
810.664	25.35
810.84	26.39
811.015	27.96
811.191	27.61
811.366	27.52
811.542	28.14
811.717	26.52
811.892	27.09
812.068	27.48
812.243	27.5
812.419	26.73
812.594	26.41
812.769	25.93
812.944	25.03
813.12	25.07
813.295	25.17
813.47	25.54
813.645	26.71
813.821	28.18
813.996	28.27
814.171	26.97
814.346	26.51
814.521	27.3
814.697	27.08
814.872	26.92
815.047	27.36
815.222	27.07
815.397	26.68
815.572	26.72
815.747	25.26
815.922	25.44
816.097	27.19
816.272	27.31
816.447	26.55
816.622	26.94
816.797	27.29
816.972	26.31
817.147	26.9
817.322	26.54
817.496	26.47
817.671	26.22
817.846	26.47
818.021	25.56
818.196	26.41
818.371	26.7
818.545	26.67
818.72	27.72
818.895	28.39
819.069	28.05
819.244	28.45
819.419	27.41
819.594	27.8
819.768	27.17
819.943	27
820.117	26.27
820.292	26.02
820.467	25.65
820.641	25.04
820.816	25.3
820.99	25.05
821.165	25.22
821.339	25.65
821.514	25.38
821.688	25.38
821.863	25.15
822.037	25.22
822.212	25.38
822.386	25.34
822.56	25.37
822.735	25.27
822.909	25.41
823.084	25.25
823.258	25.08
823.432	25.09
823.606	25.09
823.781	25.39
823.955	25.44
824.129	25.06
824.303	25.25
824.478	25.44
824.652	25.48
824.826	24.89
825	24.79
825.174	25.14
825.348	25.2
825.523	24.9
825.697	24.63
825.871	24.74
826.045	25.28
826.219	25.45
826.393	25.05
826.567	24.86
826.741	25.4
826.915	25.54
827.089	25.83
827.263	26.14
827.437	26.25
827.611	26.62
827.784	26.71
827.958	26.81
828.132	26.57
828.306	27.04
828.48	26.75
828.654	26.33
828.827	26.17
829.001	24.88
829.175	24.45
829.349	24.58
829.522	24.75
829.696	24.84
829.87	23.34
830.044	23.91
830.217	24.08
830.391	23.98
830.565	25.16
830.738	25.77
830.912	26.7
831.085	27.4
831.259	28.13
831.432	27.33
831.606	27.09
831.779	27.89
831.953	27.48
832.126	27.54
832.3	28.41
832.473	28.47
832.647	28.45
832.82	28.6
832.994	28.05
833.167	27.92
833.34	28
833.514	27.51
833.687	27.63
833.86	27.27
834.034	26.71
834.207	25.92
834.38	25.31
834.553	24.66
834.727	25.06
834.9	24.84
835.073	24.68
835.246	23.9
835.419	24.65
835.593	25.07
835.766	26.52
835.939	27.41
836.112	28.38
836.285	29.6
836.458	29.89
836.631	29.27
836.804	29.64
836.977	28.89
837.15	30.2
837.323	29.75
837.496	30.2
837.669	28.99
837.842	29.3
838.015	29.48
838.188	28.9
838.361	29.17
838.533	30.03
838.706	29.5
838.879	30.33
839.052	31.61
839.225	31.7
839.398	31.38
839.57	31.77
839.743	31.16
839.916	31.75
840.088	33.27
840.261	34.68
840.434	34.26
840.607	35.38
840.779	36.64
840.952	34.09
841.124	33.96
841.297	32.32
841.47	31.52
841.642	32.08
841.815	31.9
841.987	28.86
842.16	29.13
842.332	28.55
842.505	28.63
842.677	26.14
842.85	28.64
843.022	29.14
843.194	30.45
843.367	31.48
843.539	30.83
843.712	30.64
843.884	32.77
844.056	30.92
844.229	30.47
844.401	31.32
844.573	33.4
844.745	30.12
844.918	30.69
845.09	29.37
845.262	29.61
845.434	28.92
845.606	27.99
845.779	28.96
845.951	31.31
846.123	31.56
846.295	29.23
846.467	27.26
846.639	29.07
846.811	28.14
846.983	31.76
847.155	29.57
847.327	30.64
847.499	30.96
847.671	27.64
847.843	22.64
848.015	23.45
848.187	24.84
848.359	25.44
848.531	26.89
848.703	29.05
848.875	27.74
849.047	30.03
849.218	29.07
849.39	28.45
849.562	29.11
849.734	31.33
849.905	31.75
850.077	32.1
850.249	30.77
850.421	33.69
850.592	33.78
850.764	31.87
850.936	30.74
851.107	30.92
851.279	30.42
851.451	31.39
851.622	33.9
851.794	34.28
851.965	35.38
852.137	36.27
852.308	32.21
852.48	31.52
852.651	33.1
852.823	32.56
852.994	33.29
853.166	36.21
853.337	34.15
853.509	33.37
853.68	31.69
853.851	30.49
854.023	33.02
854.194	35.56
854.365	36.25
854.537	36.74
854.708	36.96
854.879	35.59
855.05	35.91
855.222	35.63
855.393	32.61
855.564	33.06
855.735	35.21
855.906	34.44
856.078	31.85
856.249	34.01
856.42	37.09
856.591	37.16
856.762	38.43
856.933	34.84
857.104	34.83
857.275	38.45
857.446	37.51
857.617	37.63
857.788	35.76
857.959	35.83
858.13	30.06
858.301	27.28
858.472	26.29
858.643	24.38
858.814	25.94
858.985	29.04
859.155	27.67
859.326	32.17
859.497	28.6
859.668	25.63
859.839	26.27
860.009	27.25
860.18	26.88
860.351	28.25
860.522	28.24
860.692	28.76
860.863	27.62
861.034	27.35
861.204	23.02
861.375	27.31
861.546	33.53
861.716	30.11
861.887	31.62
862.057	30.67
862.228	29.46
862.398	31.54
862.569	30.1
862.739	31.85
862.91	31.82
863.08	33.69
863.251	29.12
863.421	26.72
863.592	35.22
863.762	35.77
863.932	34.87
864.103	35.15
864.273	33.09
864.443	32.69
864.614	32.33
864.784	29.67
864.954	26.91
865.125	26.11
865.295	26.76
865.465	22.19
865.635	18.23
865.805	20.6
865.976	20.51
866.146	21.08
866.316	23.7
866.486	21.45
866.656	22.35
866.826	24.75
866.996	26.22
867.166	27.03
867.336	27.3
867.506	31.43
867.676	30.32
867.846	34.56
868.016	35.74
868.186	35.99
868.356	38.81
868.526	39.39
868.696	41.49
868.866	39.3
869.036	37.2
869.206	41.86
869.376	37.38
869.545	38.1
869.715	38.46
869.885	40.44
870.055	36.46
870.224	33.5
870.394	34.61
870.564	32.54
870.734	36.1
870.903	34.33
871.073	32.38
871.243	33.18
871.412	33.91
871.582	28.04
871.751	25.63
871.921	26.5
872.091	27.97
872.26	27.16
872.43	26.39
872.599	24.05
872.769	24.24
872.938	26.22
873.108	24.67
873.277	27.07
873.446	26.13
873.616	26.64
873.785	27.82
873.955	28.68
874.124	28.45
874.293	30.94
874.463	33.32
874.632	35.49
874.801	32.05
874.971	35.01
875.14	29.97
875.309	32.69
875.478	34.01
875.647	35.29
875.817	36.35
875.986	38.9
876.155	36.18
876.324	35.61
876.493	38.88
876.662	38.04
876.831	36.4
877	39.11
877.17	37.85
877.339	39.09
877.508	40.41
877.677	36.27
877.846	37.46
878.015	37.99
878.184	36.34
878.352	32.37
878.521	31.72
878.69	32.57
878.859	31.72
879.028	31.17
879.197	29.57
879.366	29.2
879.534	30.22
879.703	29.91
879.872	29.98
880.041	30.12
880.21	30.12
880.378	31.05
880.547	29.83
880.716	30.52
880.884	29.98
881.053	30.08
881.222	28.88
881.39	28.29
881.559	27.86
881.727	27.98
881.896	27.61
882.065	27.55
882.233	27.08
882.402	27.15
882.57	26.64
882.739	26.53
882.907	26.45
883.076	27.07
883.244	27.39
883.412	27.17
883.581	26.86
883.749	27.55
883.918	27.57
884.086	28.22
884.254	28.95
884.423	29.4
884.591	30.23
884.759	30.14
884.927	29.05
885.096	28.88
885.264	29.39
885.432	28.75
885.6	27.76
885.769	28.01
885.937	27.15
886.105	26.65
886.273	25.86
886.441	25.31
886.609	26.02
886.777	26.08
886.945	27.95
887.113	26.34
887.281	26.7
887.449	27.44
887.617	25.96
887.785	26.11
887.953	25.63
888.121	24.6
888.289	25.52
888.457	21.1
888.625	24.54
888.793	19.54
888.961	21.28
889.129	27.12
889.296	24.89
889.464	26.65
889.632	26.39
889.8	25.86
889.967	27.94
890.135	25.89
