Data from 2938508_Reflection_2.txt Node
Date: Tue Jun 16 22:54:12 EDT 2015
User: robert
Spectrometer: USB4E03002
Autoset integration time: false
Trigger mode: 4
Integration Time (sec): 1.000000E-1
Scans to average: 10
Electric dark correction enabled: true
Nonlinearity correction enabled: false
Boxcar width: 5
Stray light correction enabled: false
XAxis mode: Wavelengths
Stop averaging: false
Number of Pixels in Spectrum: 3648
>>>>>Begin Spectral Data<<<<<
177.575	-66.26
177.794	-100.43
178.014	-37.99
178.233	3.92
178.452	63.56
178.672	26
178.891	702.01
179.11	-935
179.33	-2002.26
179.549	-156.74
179.768	-164.38
179.987	-155
180.207	-221.85
180.426	-143.06
180.645	-1415.82
180.864	601.62
181.084	86.49
181.303	87.03
181.522	69.76
181.741	78.69
181.96	58.62
182.179	69.33
182.398	81.88
182.618	78.47
182.837	67.09
183.056	58.64
183.275	94.99
183.494	98.45
183.713	-11.47
183.932	-141.37
184.151	-245.95
184.37	-1422.82
184.589	268.29
184.808	159.3
185.027	239.64
185.246	187.84
185.465	188.12
185.684	159.41
185.903	232.24
186.122	194.22
186.341	193.59
186.56	178.97
186.779	291.76
186.998	507.34
187.216	792.26
187.435	503.05
187.654	473.26
187.873	866.3
188.092	829.99
188.311	500.34
188.53	514.01
188.748	1878.02
188.967	12573.12
189.186	474.7
189.405	231.41
189.623	226.68
189.842	181.02
190.061	205.38
190.28	164.17
190.498	147.4
190.717	142.35
190.936	140.14
191.154	120.23
191.373	133.14
191.592	147.56
191.81	166.36
192.029	161.67
192.248	179.32
192.466	219.15
192.685	237.92
192.904	334.18
193.122	534.23
193.341	-368.99
193.559	-159.38
193.778	-195.05
193.996	-146.52
194.215	-619.44
194.433	-290.44
194.652	-889.89
194.87	2717.27
195.089	384.24
195.307	388.1
195.526	244.99
195.744	241.09
195.963	195.74
196.181	177.76
196.399	182.95
196.618	209.14
196.836	211.63
197.055	167.76
197.273	202.66
197.491	267.68
197.71	199.52
197.928	241.05
198.146	214.35
198.365	229.11
198.583	293.04
198.801	244.14
199.019	199.84
199.238	212.41
199.456	432.98
199.674	241.34
199.892	197.62
200.111	174.04
200.329	132.06
200.547	103.83
200.765	99.48
200.983	86.37
201.202	72.41
201.42	65.73
201.638	62.43
201.856	75.87
202.074	65.13
202.292	80.41
202.51	106.1
202.728	100.31
202.946	153.15
203.165	168.27
203.383	166.89
203.601	161.06
203.819	187.22
204.037	179.32
204.255	148.28
204.473	155.82
204.691	119.22
204.909	105.53
205.127	123.33
205.345	102.5
205.562	71.12
205.78	78.9
205.998	90.74
206.216	72.8
206.434	70.97
206.652	108.69
206.87	195.02
207.088	250.03
207.306	266.12
207.523	163.6
207.741	164.76
207.959	194.75
208.177	152.49
208.395	133.82
208.612	108.03
208.83	109.3
209.048	112.11
209.266	93.81
209.483	75.96
209.701	68.22
209.919	79.1
210.136	85.84
210.354	75.67
210.572	92.24
210.79	97.57
211.007	95.41
211.225	97.2
211.442	87.95
211.66	87.39
211.878	91.81
212.095	91.31
212.313	90.28
212.53	79.66
212.748	90.19
212.966	79.11
213.183	75.48
213.401	83.71
213.618	81.43
213.836	78.69
214.053	80.28
214.271	81.51
214.488	76.06
214.705	75.26
214.923	102.36
215.14	87.07
215.358	82.01
215.575	74.85
215.793	70.27
216.01	60.36
216.227	78.22
216.445	90.35
216.662	86.81
216.879	86.45
217.097	87.09
217.314	91.53
217.531	76.53
217.749	81.31
217.966	93.73
218.183	87.24
218.4	91.04
218.618	77.91
218.835	70.61
219.052	58.36
219.269	46.87
219.487	50.12
219.704	53.93
219.921	53.5
220.138	55.59
220.355	52.38
220.572	49.96
220.79	59.15
221.007	57.32
221.224	44.96
221.441	52.82
221.658	51.37
221.875	53.92
222.092	48.09
222.309	40.63
222.526	41.87
222.743	38.57
222.96	34.83
223.177	32.11
223.394	40.26
223.611	43.44
223.828	41.76
224.045	45.43
224.262	39.86
224.479	40.03
224.696	44.99
224.913	40.61
225.13	37.23
225.347	35.84
225.564	31.44
225.781	24.53
225.997	23.42
226.214	21.18
226.431	18.16
226.648	17.08
226.865	15.55
227.082	12.92
227.298	12.92
227.515	12.32
227.732	12.09
227.949	11.71
228.165	11.2
228.382	11.07
228.599	10.66
228.816	11.23
229.032	11.32
229.249	11.37
229.466	12.05
229.682	11.59
229.899	11.9
230.116	9.99
230.332	10.44
230.549	11.71
230.765	10.79
230.982	10.7
231.199	11.46
231.415	10.49
231.632	9.58
231.848	11.26
232.065	11.13
232.281	10.85
232.498	13.65
232.714	12.07
232.931	11.49
233.147	11.12
233.364	12.46
233.58	10.32
233.797	9.52
234.013	10
234.23	8.47
234.446	9.27
234.662	9.03
234.879	9.23
235.095	11.76
235.312	14.31
235.528	16.21
235.744	17.17
235.961	18.3
236.177	20.49
236.393	22.76
236.61	25.91
236.826	25.51
237.042	24.79
237.258	24.27
237.475	23.76
237.691	22.64
237.907	21.81
238.123	19.24
238.339	18.12
238.556	18.22
238.772	15.91
238.988	13.28
239.204	13.01
239.42	12.17
239.636	11.43
239.853	11.09
240.069	10.65
240.285	10.31
240.501	10.2
240.717	10.23
240.933	10.01
241.149	10.37
241.365	10.09
241.581	9.15
241.797	9.22
242.013	9.27
242.229	8.88
242.445	9.18
242.661	8.94
242.877	8.55
243.093	8.83
243.309	8.43
243.525	7.97
243.741	8.02
243.957	8.94
244.173	8.91
244.388	8.8
244.604	8.84
244.82	8.13
245.036	7.7
245.252	8.22
245.468	7.92
245.683	7.84
245.899	7.6
246.115	7.5
246.331	7.46
246.547	7.34
246.762	7.39
246.978	7.46
247.194	7.67
247.409	8.31
247.625	8.22
247.841	8.64
248.057	9.11
248.272	9.34
248.488	10.18
248.703	10.03
248.919	10.72
249.135	10.34
249.35	9.84
249.566	10.16
249.782	9.38
249.997	9.18
250.213	9.27
250.428	8.61
250.644	8.43
250.859	7.67
251.075	7.93
251.29	7.14
251.506	7.5
251.721	8.09
251.937	8.03
252.152	7.92
252.368	8.18
252.583	8.15
252.798	9.26
253.014	10.16
253.229	11.74
253.445	10.97
253.66	11.71
253.875	10.96
254.091	10.24
254.306	10.35
254.521	10.94
254.737	11.11
254.952	10.6
255.167	8.93
255.383	8.21
255.598	7.75
255.813	8.03
256.028	7.39
256.244	8.24
256.459	8.48
256.674	7.8
256.889	8.01
257.104	7.27
257.32	6.74
257.535	6.51
257.75	6.48
257.965	6.16
258.18	6.06
258.395	6.16
258.61	5.82
258.826	5.77
259.041	6.22
259.256	6.12
259.471	6.41
259.686	7
259.901	7.01
260.116	7.2
260.331	7.53
260.546	8.23
260.761	8.3
260.976	8.98
261.191	9.11
261.406	8.23
261.621	7.75
261.836	7.36
262.05	7.18
262.265	8.16
262.48	8.19
262.695	8.32
262.91	7.28
263.125	7.05
263.34	6.62
263.555	6.37
263.769	6.77
263.984	6.78
264.199	6.98
264.414	6.45
264.629	6.28
264.843	6.37
265.058	6.32
265.273	6.42
265.488	7.59
265.702	7.9
265.917	8.08
266.132	8.01
266.346	8.11
266.561	7.85
266.776	7.77
266.99	7.34
267.205	7.07
267.42	6.72
267.634	6.87
267.849	5.95
268.063	6.05
268.278	5.92
268.492	6.33
268.707	6.26
268.922	6.3
269.136	6.76
269.351	6.82
269.565	6.88
269.78	7.02
269.994	7.17
270.209	7.18
270.423	6.52
270.637	6.82
270.852	6.63
271.066	6.61
271.281	6.9
271.495	6.37
271.709	6.52
271.924	6.59
272.138	6.59
272.353	6.65
272.567	6.75
272.781	6.82
272.996	6.5
273.21	6.03
273.424	6.26
273.638	5.79
273.853	6.02
274.067	6.42
274.281	6.6
274.495	6.86
274.71	6.97
274.924	6.84
275.138	7.44
275.352	7.41
275.566	8.35
275.781	8.21
275.995	7.96
276.209	7.85
276.423	7.78
276.637	7.43
276.851	7.36
277.065	6.8
277.279	6.89
277.493	6.92
277.707	6.7
277.921	6.3
278.135	6.69
278.349	7
278.563	6.92
278.777	6.92
278.991	7.09
279.205	7.08
279.419	6.84
279.633	6.97
279.847	6.61
280.061	7.05
280.275	6.99
280.489	6.57
280.703	6.69
280.917	6.9
281.131	6.49
281.344	6.29
281.558	6.17
281.772	6.46
281.986	6.2
282.2	6.77
282.414	6.42
282.627	6.37
282.841	6.23
283.055	5.57
283.269	5.29
283.482	5.5
283.696	5.65
283.91	4.86
284.123	4.92
284.337	5.28
284.551	4.99
284.764	4.95
284.978	4.76
285.192	5.07
285.405	5.84
285.619	6.01
285.833	6.11
286.046	6.07
286.26	6.48
286.473	6.78
286.687	6.85
286.9	6.78
287.114	7.27
287.327	7.43
287.541	7.78
287.754	7.55
287.968	7.62
288.181	7.57
288.395	7.58
288.608	7.83
288.822	7.88
289.035	7.57
289.248	8.03
289.462	7.6
289.675	7.34
289.889	6.74
290.102	7.09
290.315	6.97
290.529	6.54
290.742	6.86
290.955	7.21
291.169	7.1
291.382	7.31
291.595	7.06
291.808	7.7
292.022	7.94
292.235	8.05
292.448	7.89
292.661	7.99
292.875	8.26
293.088	7.79
293.301	7.82
293.514	7.63
293.727	7.42
293.94	7.2
294.153	7
294.367	7.11
294.58	7.27
294.793	7.4
295.006	7.34
295.219	7.52
295.432	7.4
295.645	7.1
295.858	7.19
296.071	7.3
296.284	7.36
296.497	7.19
296.71	7.42
296.923	7.55
297.136	7.52
297.349	7.81
297.562	7.74
297.775	7.94
297.988	8.13
298.201	8.29
298.414	8.21
298.626	8.07
298.839	8.35
299.052	7.68
299.265	7.87
299.478	7.46
299.691	7.4
299.903	7.39
300.116	7.77
300.329	7.58
300.542	7.62
300.755	7.97
300.967	7.93
301.18	7.97
301.393	8.2
301.605	8.21
301.818	8.85
302.031	8.7
302.243	9.02
302.456	8.65
302.669	9.36
302.881	8.9
303.094	8.92
303.307	9.19
303.519	9.22
303.732	9.76
303.944	9.43
304.157	9.3
304.37	9.47
304.582	9.38
304.795	9.24
305.007	8.85
305.22	9.58
305.432	9.66
305.645	9.59
305.857	9.6
306.069	9.39
306.282	9.65
306.494	9.36
306.707	8.62
306.919	8.84
307.132	9.17
307.344	8.94
307.556	8.48
307.769	8.05
307.981	8.25
308.193	7.98
308.406	7.9
308.618	7.54
308.83	7.8
309.043	8.35
309.255	8.25
309.467	7.96
309.679	8.01
309.892	8.35
310.104	8.56
310.316	8.38
310.528	8.49
310.74	8.58
310.953	8.92
311.165	8.81
311.377	8.79
311.589	8.55
311.801	8.44
312.013	8.71
312.225	8.38
312.437	8.47
312.649	8.8
312.862	8.69
313.074	8.43
313.286	8.11
313.498	8.1
313.71	8.22
313.922	8.34
314.134	8.43
314.346	7.9
314.558	8.15
314.77	8.11
314.982	7.89
315.193	8.1
315.405	8.45
315.617	8.87
315.829	8.68
316.041	8.69
316.253	9.07
316.465	9.43
316.677	9.95
316.888	9.69
317.1	9.55
317.312	9.47
317.524	9.24
317.736	9.44
317.947	9.47
318.159	9.73
318.371	9.86
318.583	9.13
318.794	9.18
319.006	9.45
319.218	9.08
319.43	9.33
319.641	9.24
319.853	9.8
320.064	9.24
320.276	8.72
320.488	8.79
320.699	8.37
320.911	9.18
321.123	9.49
321.334	9.42
321.546	10.39
321.757	10.05
321.969	10.49
322.18	9.8
322.392	10.07
322.603	10.55
322.815	10.19
323.026	10.31
323.238	10.1
323.449	9.7
323.661	9.33
323.872	9.12
324.083	9.27
324.295	9.11
324.506	10.06
324.718	10.08
324.929	9.71
325.14	10.27
325.352	10.22
325.563	10.23
325.774	10.65
325.986	10.99
326.197	11.19
326.408	11.07
326.62	11.38
326.831	10.93
327.042	10.77
327.253	10.95
327.464	10.59
327.676	10.67
327.887	10.53
328.098	10.41
328.309	10.31
328.52	10.38
328.732	10.53
328.943	10.29
329.154	10.55
329.365	10.5
329.576	10.96
329.787	11.44
329.998	11.16
330.209	11.5
330.42	11.56
330.631	11.66
330.842	11.41
331.053	12.29
331.264	11.97
331.475	11.74
331.686	11.94
331.897	11.59
332.108	11.22
332.319	11.62
332.53	11.4
332.741	11.02
332.952	11.05
333.163	11.04
333.374	10.43
333.585	10.32
333.795	10.15
334.006	10.22
334.217	9.84
334.428	9.84
334.639	9.76
334.849	10.08
335.06	10.71
335.271	10.32
335.482	10.11
335.692	10.03
335.903	10.49
336.114	10.85
336.325	10.78
336.535	11.24
336.746	11.29
336.957	11.55
337.167	11.28
337.378	11.04
337.589	11.04
337.799	11.45
338.01	11.51
338.22	11.21
338.431	10.94
338.642	10.83
338.852	11.14
339.063	10.97
339.273	10.8
339.484	10.61
339.694	10.42
339.905	10.8
340.115	10.69
340.326	10.72
340.536	11.11
340.746	11.13
340.957	11.39
341.167	10.9
341.378	10.89
341.588	10.84
341.799	10.65
342.009	10.65
342.219	10.14
342.43	9.88
342.64	9.89
342.85	9.78
343.061	10.08
343.271	10.16
343.481	10.35
343.691	10.7
343.902	10.52
344.112	11.01
344.322	10.88
344.532	11.16
344.743	11.32
344.953	11.17
345.163	11.45
345.373	11.01
345.583	11.03
345.793	10.9
346.004	10.69
346.214	10.77
346.424	10.14
346.634	10.46
346.844	10.4
347.054	10.38
347.264	10.49
347.474	9.86
347.684	10.13
347.894	9.86
348.104	9.98
348.314	9.75
348.524	10
348.734	10.39
348.944	10.2
349.154	10.53
349.364	10.34
349.574	10.39
349.784	10.58
349.994	10.83
350.204	11.12
350.413	11.04
350.623	11.18
350.833	10.73
351.043	10.62
351.253	10.8
351.463	10.6
351.672	10.51
351.882	10.21
352.092	10.31
352.302	9.99
352.511	9.97
352.721	9.82
352.931	9.71
353.141	10.04
353.35	10.13
353.56	9.9
353.77	9.87
353.979	9.89
354.189	10.25
354.399	10.04
354.608	9.9
354.818	9.77
355.027	10.23
355.237	10.25
355.447	10.16
355.656	10.28
355.866	10.24
356.075	10.2
356.285	10.43
356.494	10.26
356.704	10.24
356.913	10.29
357.123	10.19
357.332	9.83
357.542	9.88
357.751	9.63
357.96	9.48
358.17	9.43
358.379	9.68
358.589	9.49
358.798	9.21
359.007	9.14
359.217	9.18
359.426	9.09
359.635	8.85
359.845	8.72
360.054	8.91
360.263	8.9
360.472	9.07
360.682	8.84
360.891	8.91
361.1	9.21
361.309	9.09
361.519	8.91
361.728	8.99
361.937	9.25
362.146	9.05
362.355	9.13
362.564	9.2
362.774	9.13
362.983	9.44
363.192	9.45
363.401	9.5
363.61	9.86
363.819	9.86
364.028	9.63
364.237	9.47
364.446	9.75
364.655	9.68
364.864	9.51
365.073	9.23
365.282	8.62
365.491	8.63
365.7	8.64
365.909	8.23
366.118	8.38
366.327	8.61
366.536	8.63
366.745	8.78
366.954	8.56
367.162	8.43
367.371	8.41
367.58	8.62
367.789	8.47
367.998	8.18
368.207	8.46
368.415	8.35
368.624	8.44
368.833	8.28
369.042	8.2
369.25	8.47
369.459	8.66
369.668	8.66
369.877	8.58
370.085	8.44
370.294	8.49
370.503	8.62
370.711	8.63
370.92	8.35
371.129	8.57
371.337	8.71
371.546	8.64
371.754	8.61
371.963	8.77
372.171	8.67
372.38	8.67
372.589	8.65
372.797	8.3
373.006	8.44
373.214	8.62
373.423	8.53
373.631	8.39
373.84	8.49
374.048	8.46
374.256	8.32
374.465	8.57
374.673	8.71
374.882	8.73
375.09	8.7
375.298	8.36
375.507	8.46
375.715	8.66
375.923	8.69
376.132	8.46
376.34	8.24
376.548	8.23
376.757	8.25
376.965	8.22
377.173	8.12
377.381	8.3
377.59	8.43
377.798	8.19
378.006	8
378.214	8.02
378.423	8.22
378.631	8.33
378.839	8.4
379.047	8.12
379.255	7.94
379.463	8.02
379.671	8.05
379.879	8.11
380.088	8.12
380.296	8.11
380.504	7.92
380.712	7.82
380.92	7.75
381.128	7.68
381.336	7.98
381.544	8.1
381.752	7.98
381.96	7.73
382.168	7.68
382.376	7.54
382.584	7.55
382.791	7.65
382.999	7.52
383.207	7.62
383.415	7.47
383.623	7.41
383.831	7.46
384.039	7.39
384.247	7.34
384.454	7.34
384.662	7.28
384.87	7.12
385.078	7.16
385.285	7.35
385.493	7.31
385.701	7.54
385.909	7.49
386.116	7.41
386.324	7.49
386.532	7.78
386.739	7.78
386.947	8.04
387.155	8
387.362	7.91
387.57	7.67
387.778	7.69
387.985	7.66
388.193	7.64
388.4	7.5
388.608	7.77
388.816	7.64
389.023	7.65
389.231	7.55
389.438	7.71
389.646	7.53
389.853	7.55
390.061	7.42
390.268	7.46
390.475	7.32
390.683	7.3
390.89	7.13
391.098	7.19
391.305	7.32
391.512	7.29
391.72	7.01
391.927	7.18
392.135	7.21
392.342	7.21
392.549	7.29
392.756	7.4
392.964	7.6
393.171	7.45
393.378	7.39
393.586	7.14
393.793	7.22
394	7.55
394.207	7.39
394.414	7.44
394.622	7.49
394.829	7.28
395.036	6.92
395.243	6.73
395.45	6.76
395.657	6.51
395.864	6.58
396.072	6.74
396.279	6.46
396.486	6.41
396.693	6.32
396.9	6.27
397.107	6.26
397.314	6.36
397.521	6.33
397.728	6.39
397.935	6.59
398.142	6.53
398.349	6.38
398.556	6.39
398.763	6.69
398.97	6.91
399.177	7.21
399.383	7.2
399.59	7.26
399.797	7.28
400.004	7.02
400.211	6.9
400.418	6.74
400.625	6.52
400.831	6.56
401.038	6.24
401.245	5.93
401.452	5.62
401.658	5.57
401.865	5.69
402.072	5.78
402.279	5.87
402.485	5.85
402.692	6.1
402.899	6.2
403.105	6.24
403.312	6.11
403.519	6.22
403.725	6.27
403.932	6.3
404.138	6.15
404.345	6.14
404.552	6.25
404.758	6.13
404.965	5.92
405.171	5.96
405.378	6.03
405.584	6.18
405.791	6.12
405.997	6.13
406.204	6.03
406.41	6.23
406.617	6.19
406.823	6.25
407.029	6.61
407.236	6.79
407.442	6.81
407.649	6.69
407.855	6.79
408.061	6.7
408.268	6.61
408.474	6.56
408.68	6.41
408.887	6.34
409.093	6.28
409.299	6.14
409.505	5.95
409.712	5.76
409.918	5.69
410.124	5.53
410.33	5.5
410.537	5.53
410.743	5.59
410.949	5.58
411.155	5.52
411.361	5.43
411.567	5.31
411.773	5.44
411.98	5.59
412.186	5.63
412.392	5.55
412.598	5.63
412.804	5.64
413.01	5.73
413.216	5.73
413.422	5.84
413.628	5.86
413.834	6.03
414.04	5.96
414.246	5.85
414.452	5.75
414.658	5.82
414.864	5.66
415.07	5.7
415.275	5.61
415.481	5.46
415.687	5.42
415.893	5.42
416.099	5.28
416.305	5.29
416.511	5.3
416.716	5.32
416.922	5.38
417.128	5.36
417.334	5.34
417.539	5.4
417.745	5.51
417.951	5.38
418.157	5.29
418.362	5.24
418.568	5.16
418.774	5.04
418.979	4.98
419.185	5.04
419.391	5.11
419.596	4.97
419.802	4.89
420.008	4.87
420.213	5.26
420.419	5.28
420.624	5.23
420.83	5.23
421.035	5.27
421.241	5.31
421.446	5.13
421.652	5.03
421.857	5.03
422.063	5.01
422.268	4.93
422.474	4.54
422.679	4.5
422.885	4.54
423.09	4.57
423.295	4.62
423.501	4.56
423.706	4.65
423.911	4.67
424.117	4.74
424.322	4.75
424.527	4.81
424.733	4.81
424.938	4.83
425.143	4.86
425.349	4.79
425.554	4.82
425.759	4.91
425.964	4.81
426.169	4.93
426.375	4.96
426.58	4.84
426.785	4.92
426.99	4.96
427.195	4.98
427.4	5
427.605	5.1
427.811	5.09
428.016	5.11
428.221	5.22
428.426	5.14
428.631	5.04
428.836	5.31
429.041	5.17
429.246	5.2
429.451	5.21
429.656	5.12
429.861	5.06
430.066	4.93
430.271	4.86
430.476	4.77
430.681	4.71
430.886	4.77
431.09	4.64
431.295	4.63
431.5	4.7
431.705	4.65
431.91	4.7
432.115	4.65
432.32	4.7
432.524	4.68
432.729	4.8
432.934	4.83
433.139	4.73
433.343	4.76
433.548	4.73
433.753	4.62
433.958	4.59
434.162	4.64
434.367	4.67
434.572	4.65
434.776	4.76
434.981	4.55
435.186	4.55
435.39	4.61
435.595	4.59
435.799	4.51
436.004	4.62
436.209	4.59
436.413	4.57
436.618	4.6
436.822	4.63
437.027	4.55
437.231	4.59
437.436	4.57
437.64	4.53
437.845	4.54
438.049	4.7
438.253	4.55
438.458	4.55
438.662	4.53
438.867	4.5
439.071	4.52
439.275	4.51
439.48	4.55
439.684	4.61
439.888	4.6
440.093	4.57
440.297	4.51
440.501	4.56
440.706	4.61
440.91	4.62
441.114	4.64
441.318	4.55
441.523	4.52
441.727	4.57
441.931	4.51
442.135	4.53
442.339	4.43
442.543	4.38
442.748	4.4
442.952	4.41
443.156	4.38
443.36	4.36
443.564	4.3
443.768	4.34
443.972	4.22
444.176	4.25
444.38	4.22
444.584	4.2
444.788	4.15
444.992	4.02
445.196	4
445.4	3.94
445.604	3.97
445.808	4.05
446.012	3.94
446.216	3.98
446.42	3.93
446.624	3.95
446.828	4.02
447.032	4.15
447.235	4.27
447.439	4.25
447.643	4.28
447.847	4.21
448.051	4.21
448.254	4.29
448.458	4.3
448.662	4.24
448.866	4.17
449.069	4.23
449.273	4.2
449.477	4.3
449.681	4.27
449.884	4.27
450.088	4.32
450.292	4.35
450.495	4.35
450.699	4.32
450.902	4.37
451.106	4.43
451.31	4.25
451.513	4.15
451.717	4.07
451.92	4.06
452.124	4.07
452.327	4.04
452.531	3.89
452.734	3.98
452.938	4.02
453.141	4.08
453.345	4.01
453.548	4.17
453.752	4.18
453.955	4.11
454.158	4.1
454.362	4.12
454.565	4.21
454.769	4.33
454.972	4.2
455.175	4.16
455.379	4.18
455.582	4.26
455.785	4.25
455.988	4.34
456.192	4.48
456.395	4.44
456.598	4.41
456.801	4.3
457.005	4.2
457.208	4.24
457.411	4.27
457.614	4.13
457.817	4.12
458.021	4.04
458.224	3.96
458.427	3.83
458.63	3.83
458.833	3.81
459.036	3.77
459.239	3.83
459.442	3.87
459.645	3.83
459.848	3.86
460.051	3.86
460.254	3.94
460.457	3.96
460.66	4.1
460.863	4.18
461.066	4.16
461.269	4.22
461.472	4.19
461.675	4.09
461.878	4.04
462.081	3.99
462.284	3.96
462.486	3.89
462.689	3.94
462.892	3.91
463.095	3.91
463.298	4.01
463.5	4.06
463.703	4.17
463.906	4.28
464.109	4.36
464.311	4.41
464.514	4.33
464.717	4.38
464.92	4.35
465.122	4.31
465.325	4.22
465.528	4.21
465.73	4.21
465.933	4.22
466.135	4.25
466.338	4.15
466.541	4.2
466.743	4.33
466.946	4.39
467.148	4.38
467.351	4.37
467.553	4.42
467.756	4.55
467.958	4.61
468.161	4.54
468.363	4.49
468.566	4.62
468.768	4.69
468.971	4.61
469.173	4.63
469.375	4.61
469.578	4.65
469.78	4.68
469.983	4.53
470.185	4.43
470.387	4.42
470.59	4.36
470.792	4.34
470.994	4.21
471.196	4.19
471.399	4.09
471.601	4.08
471.803	4.09
472.005	4.08
472.208	4.09
472.41	4.05
472.612	4.13
472.814	4.16
473.016	4.14
473.218	4.26
473.421	4.38
473.623	4.41
473.825	4.41
474.027	4.5
474.229	4.46
474.431	4.45
474.633	4.48
474.835	4.45
475.037	4.48
475.239	4.52
475.441	4.4
475.643	4.34
475.845	4.29
476.047	4.34
476.249	4.28
476.451	4.19
476.653	4.21
476.855	4.19
477.057	4.08
477.258	4.06
477.46	3.99
477.662	4.03
477.864	4.08
478.066	4.15
478.268	4.18
478.469	4.15
478.671	4.27
478.873	4.23
479.075	4.22
479.276	4.33
479.478	4.33
479.68	4.32
479.882	4.31
480.083	4.21
480.285	4.16
480.487	4.09
480.688	4.08
480.89	4.06
481.091	4.06
481.293	4.02
481.495	3.95
481.696	3.92
481.898	3.9
482.099	3.87
482.301	3.89
482.502	3.9
482.704	3.89
482.905	3.88
483.107	3.83
483.308	3.82
483.51	3.82
483.711	3.83
483.913	3.84
484.114	3.89
484.315	3.89
484.517	3.88
484.718	3.87
484.92	3.9
485.121	3.89
485.322	3.92
485.524	3.92
485.725	3.97
485.926	3.97
486.127	3.93
486.329	3.87
486.53	3.91
486.731	3.87
486.932	3.87
487.134	3.91
487.335	3.96
487.536	4.02
487.737	4.07
487.938	4.05
488.139	4.08
488.341	4.1
488.542	4.14
488.743	4.09
488.944	4.13
489.145	4.12
489.346	4.07
489.547	4.04
489.748	4.03
489.949	4.04
490.15	4.05
490.351	4.04
490.552	4.06
490.753	4.06
490.954	4.12
491.155	4.13
491.356	4.15
491.557	4.23
491.758	4.25
491.959	4.26
492.159	4.24
492.36	4.25
492.561	4.33
492.762	4.4
492.963	4.41
493.164	4.38
493.364	4.38
493.565	4.43
493.766	4.31
493.967	4.3
494.167	4.28
494.368	4.29
494.569	4.27
494.769	4.22
494.97	4.2
495.171	4.3
495.371	4.36
495.572	4.41
495.773	4.38
495.973	4.45
496.174	4.51
496.375	4.57
496.575	4.62
496.776	4.68
496.976	4.74
497.177	4.69
497.377	4.67
497.578	4.73
497.778	4.73
497.979	4.71
498.179	4.75
498.38	4.71
498.58	4.77
498.78	4.74
498.981	4.75
499.181	4.71
499.382	4.76
499.582	4.79
499.782	4.69
499.983	4.69
500.183	4.81
500.383	4.79
500.584	4.83
500.784	4.72
500.984	4.73
501.184	4.68
501.385	4.71
501.585	4.71
501.785	4.72
501.985	4.75
502.185	4.81
502.386	4.84
502.586	4.82
502.786	4.79
502.986	4.88
503.186	4.94
503.386	5.03
503.586	5.11
503.786	5.2
503.987	5.15
504.187	5.29
504.387	5.43
504.587	5.39
504.787	5.46
504.987	5.49
505.187	5.51
505.387	5.58
505.587	5.53
505.786	5.6
505.986	5.53
506.186	5.56
506.386	5.53
506.586	5.35
506.786	5.34
506.986	5.37
507.186	5.44
507.386	5.48
507.585	5.45
507.785	5.51
507.985	5.46
508.185	5.57
508.384	5.6
508.584	5.57
508.784	5.64
508.984	5.71
509.183	5.65
509.383	5.62
509.583	5.65
509.782	5.7
509.982	5.74
510.182	5.79
510.381	5.74
510.581	5.8
510.781	5.81
510.98	5.86
511.18	5.87
511.379	6.01
511.579	6.01
511.778	5.95
511.978	5.91
512.177	5.93
512.377	5.88
512.576	5.9
512.776	5.94
512.975	6.05
513.175	6.13
513.374	6.19
513.573	6.18
513.773	6.23
513.972	6.29
514.172	6.39
514.371	6.47
514.57	6.59
514.77	6.68
514.969	6.63
515.168	6.6
515.367	6.51
515.567	6.46
515.766	6.45
515.965	6.47
516.164	6.39
516.364	6.43
516.563	6.46
516.762	6.46
516.961	6.41
517.16	6.43
517.359	6.49
517.559	6.51
517.758	6.54
517.957	6.55
518.156	6.59
518.355	6.71
518.554	6.64
518.753	6.57
518.952	6.53
519.151	6.6
519.35	6.61
519.549	6.64
519.748	6.69
519.947	6.79
520.146	6.86
520.345	6.81
520.544	6.85
520.743	6.89
520.942	6.94
521.141	6.95
521.339	6.99
521.538	7.03
521.737	7.06
521.936	7.17
522.135	7.08
522.333	7.03
522.532	7.06
522.731	6.98
522.93	7.04
523.129	7.05
523.327	7.12
523.526	7.1
523.725	7.12
523.923	7.05
524.122	7.05
524.321	7.08
524.519	7.15
524.718	7.18
524.917	7.28
525.115	7.26
525.314	7.25
525.512	7.27
525.711	7.32
525.909	7.3
526.108	7.36
526.306	7.36
526.505	7.34
526.703	7.34
526.902	7.34
527.1	7.32
527.299	7.37
527.497	7.4
527.696	7.44
527.894	7.42
528.092	7.45
528.291	7.46
528.489	7.46
528.688	7.54
528.886	7.56
529.084	7.6
529.283	7.62
529.481	7.61
529.679	7.7
529.877	7.71
530.076	7.75
530.274	7.83
530.472	7.87
530.67	7.91
530.869	7.93
531.067	7.98
531.265	8.02
531.463	8.04
531.661	8
531.859	8
532.057	8.02
532.255	8.05
532.454	8.04
532.652	8.07
532.85	8.12
533.048	8.17
533.246	8.17
533.444	8.19
533.642	8.3
533.84	8.42
534.038	8.43
534.236	8.49
534.434	8.49
534.632	8.51
534.83	8.6
535.027	8.62
535.225	8.58
535.423	8.61
535.621	8.72
535.819	8.73
536.017	8.78
536.215	8.91
536.412	8.9
536.61	9.06
536.808	9.08
537.006	9.08
537.203	9.15
537.401	9.25
537.599	9.4
537.797	9.39
537.994	9.4
538.192	9.52
538.39	9.46
538.587	9.45
538.785	9.46
538.983	9.54
539.18	9.54
539.378	9.54
539.575	9.56
539.773	9.55
539.97	9.55
540.168	9.54
540.366	9.55
540.563	9.57
540.761	9.63
540.958	9.68
541.155	9.74
541.353	9.82
541.55	9.9
541.748	9.98
541.945	10.04
542.143	10.04
542.34	10.1
542.537	10.14
542.735	10.22
542.932	10.33
543.129	10.36
543.327	10.39
543.524	10.37
543.721	10.47
543.919	10.49
544.116	10.62
544.313	10.71
544.51	10.83
544.708	10.92
544.905	10.98
545.102	11.02
545.299	11.1
545.496	11.16
545.693	11.29
545.891	11.31
546.088	11.38
546.285	11.37
546.482	11.45
546.679	11.56
546.876	11.58
547.073	11.73
547.27	11.77
547.467	11.86
547.664	12
547.861	12.1
548.058	12.16
548.255	12.28
548.452	12.39
548.649	12.49
548.846	12.69
549.043	12.83
549.24	12.82
549.437	12.92
549.633	12.95
549.83	13.03
550.027	13.15
550.224	13.2
550.421	13.31
550.618	13.38
550.814	13.59
551.011	13.58
551.208	13.62
551.405	13.75
551.601	13.83
551.798	13.85
551.995	13.94
552.191	13.98
552.388	14.09
552.585	14.12
552.781	14.25
552.978	14.21
553.175	14.29
553.371	14.39
553.568	14.49
553.764	14.63
553.961	14.86
554.157	14.9
554.354	15.02
554.55	15.19
554.747	15.29
554.943	15.23
555.14	15.42
555.336	15.48
555.533	15.56
555.729	15.65
555.926	15.74
556.122	15.76
556.318	15.81
556.515	15.9
556.711	15.91
556.907	16.14
557.104	16.43
557.3	16.46
557.496	16.59
557.693	16.74
557.889	16.85
558.085	16.9
558.281	16.91
558.478	17.1
558.674	17.19
558.87	17.41
559.066	17.49
559.262	17.49
559.459	17.58
559.655	17.71
559.851	17.83
560.047	17.98
560.243	18.06
560.439	18.24
560.635	18.3
560.831	18.42
561.027	18.38
561.223	18.38
561.419	18.51
561.615	18.68
561.811	18.79
562.007	18.89
562.203	18.85
562.399	18.99
562.595	19.05
562.791	19.02
562.987	18.97
563.183	19.04
563.379	19.19
563.575	19.12
563.771	19.08
563.966	19.13
564.162	19.19
564.358	19.39
564.554	19.49
564.75	19.55
564.945	19.71
565.141	19.89
565.337	19.99
565.533	20.06
565.728	20.26
565.924	20.36
566.12	20.46
566.315	20.59
566.511	20.54
566.707	20.62
566.902	20.81
567.098	20.99
567.293	21.02
567.489	21.07
567.684	21.03
567.88	21.01
568.076	21.16
568.271	21.26
568.467	21.28
568.662	21.52
568.858	21.62
569.053	21.63
569.248	21.67
569.444	21.82
569.639	21.96
569.835	22.12
570.03	22.36
570.225	22.38
570.421	22.39
570.616	22.44
570.812	22.44
571.007	22.55
571.202	22.65
571.397	22.76
571.593	22.87
571.788	23.01
571.983	23.16
572.178	23.18
572.374	23.3
572.569	23.38
572.764	23.5
572.959	23.6
573.154	23.68
573.35	23.73
573.545	23.79
573.74	23.84
573.935	23.89
574.13	23.91
574.325	24.03
574.52	24.06
574.715	24.26
574.91	24.4
575.105	24.45
575.3	24.4
575.495	24.45
575.69	24.46
575.885	24.54
576.08	24.52
576.275	24.55
576.47	24.54
576.665	24.59
576.86	24.68
577.055	24.67
577.25	24.61
577.444	24.8
577.639	25.04
577.834	25.09
578.029	25.09
578.224	25.18
578.418	25.31
578.613	25.44
578.808	25.5
579.003	25.53
579.197	25.52
579.392	25.75
579.587	25.66
579.781	25.63
579.976	25.87
580.171	25.95
580.365	26.01
580.56	26.08
580.755	26.15
580.949	26.22
581.144	26.19
581.338	26.37
581.533	26.32
581.727	26.5
581.922	26.5
582.116	26.4
582.311	26.48
582.505	26.54
582.7	26.53
582.894	26.6
583.089	26.72
583.283	26.69
583.478	26.81
583.672	27.1
583.866	27.03
584.061	27.08
584.255	27.13
584.449	27.16
584.644	27.18
584.838	27.2
585.032	27.2
585.226	27.33
585.421	27.51
585.615	27.25
585.809	27.1
586.003	27.2
586.198	27.23
586.392	27.2
586.586	27.13
586.78	27.1
586.974	27
587.168	26.86
587.363	26.76
587.557	26.71
587.751	26.87
587.945	26.86
588.139	26.96
588.333	26.99
588.527	27.09
588.721	27.21
588.915	27.42
589.109	27.61
589.303	27.7
589.497	27.76
589.691	27.89
589.885	27.88
590.079	27.95
590.273	27.98
590.466	28.07
590.66	27.97
590.854	27.99
591.048	27.96
591.242	27.86
591.436	28.05
591.629	28.15
591.823	28.04
592.017	28.07
592.211	28.01
592.404	27.99
592.598	28
592.792	28.22
592.986	28.25
593.179	28.23
593.373	28.34
593.567	28.32
593.76	28.38
593.954	28.42
594.147	28.58
594.341	28.76
594.535	28.84
594.728	28.8
594.922	28.8
595.115	28.78
595.309	28.73
595.502	28.7
595.696	28.75
595.889	28.66
596.083	28.7
596.276	28.61
596.47	28.61
596.663	28.6
596.856	28.68
597.05	28.73
597.243	28.77
597.437	28.87
597.63	28.89
597.823	28.85
598.017	28.91
598.21	28.91
598.403	28.85
598.596	28.93
598.79	28.88
598.983	28.75
599.176	28.65
599.369	28.66
599.563	28.64
599.756	28.93
599.949	28.95
600.142	28.98
600.335	28.97
600.528	29.06
600.722	29.14
600.915	29.35
601.108	29.51
601.301	29.5
601.494	29.49
601.687	29.47
601.88	29.37
602.073	29.38
602.266	29.38
602.459	29.38
602.652	29.46
602.845	29.33
603.038	29.23
603.231	29.23
603.424	29.25
603.617	29.27
603.809	29.26
604.002	29.27
604.195	29.23
604.388	29.26
604.581	29.33
604.774	29.38
604.966	29.4
605.159	29.56
605.352	29.59
605.545	29.64
605.737	29.74
605.93	29.99
606.123	29.9
606.316	29.87
606.508	29.92
606.701	29.89
606.894	29.74
607.086	29.71
607.279	29.46
607.471	29.37
607.664	29.34
607.857	29.21
608.049	29.09
608.242	29.25
608.434	29.36
608.627	29.4
608.819	29.42
609.012	29.44
609.204	29.4
609.397	29.56
609.589	29.72
609.782	29.9
609.974	29.96
610.166	30
610.359	30.06
610.551	30.2
610.743	30.16
610.936	30.26
611.128	30.43
611.32	30.58
611.513	30.65
611.705	30.66
611.897	30.59
612.09	30.65
612.282	30.58
612.474	30.51
612.666	30.56
612.858	30.55
613.051	30.55
613.243	30.27
613.435	30.29
613.627	30.13
613.819	30.16
614.011	30.26
614.203	30.2
614.395	30.29
614.588	30.35
614.78	30.16
614.972	30.22
615.164	30.21
615.356	30.45
615.548	30.73
615.74	30.86
615.932	30.84
616.124	30.69
616.315	30.88
616.507	30.81
616.699	30.82
616.891	31.05
617.083	31.11
617.275	31.06
617.467	30.96
617.659	30.56
617.85	30.66
618.042	30.55
618.234	30.44
618.426	30.45
618.618	30.53
618.809	30.4
619.001	30.23
619.193	30.19
619.384	30.27
619.576	30.4
619.768	30.6
619.959	30.55
620.151	30.61
620.343	30.94
620.534	30.94
620.726	31.06
620.917	31.17
621.109	31.26
621.301	31.19
621.492	31.15
621.684	31.13
621.875	31.25
622.067	31.29
622.258	31.41
622.45	31.35
622.641	31.3
622.832	31.14
623.024	31.09
623.215	31.12
623.407	31.22
623.598	31.34
623.789	31.22
623.981	30.96
624.172	30.77
624.363	30.6
624.555	30.47
624.746	30.58
624.937	30.69
625.129	30.65
625.32	30.57
625.511	30.61
625.702	30.52
625.893	30.67
626.085	30.82
626.276	30.74
626.467	30.84
626.658	30.9
626.849	30.84
627.04	30.79
627.231	30.92
627.422	30.88
627.614	30.79
627.805	30.88
627.996	30.74
628.187	30.75
628.378	31.15
628.569	31.1
628.76	31.12
628.951	31.17
629.142	31.15
629.332	31.12
629.523	31.22
629.714	31.48
629.905	31.43
630.096	31.61
630.287	31.68
630.478	31.6
630.669	31.68
630.859	31.85
631.05	31.74
631.241	31.68
631.432	31.59
631.623	31.56
631.813	31.39
632.004	31.22
632.195	31.02
632.385	30.88
632.576	30.93
632.767	30.85
632.957	30.82
633.148	31
633.339	31.05
633.529	31.1
633.72	31.21
633.91	31.2
634.101	31.31
634.292	31.47
634.482	31.44
634.673	31.46
634.863	31.52
635.054	31.42
635.244	31.25
635.435	31.39
635.625	31.51
635.815	31.24
636.006	31.25
636.196	31.2
636.387	31.3
636.577	31.53
636.767	31.52
636.958	31.44
637.148	31.41
637.338	31.42
637.529	31.38
637.719	31.39
637.909	31.72
638.099	31.8
638.29	31.9
638.48	31.91
638.67	31.56
638.86	31.36
639.05	31.57
639.241	31.65
639.431	31.7
639.621	31.66
639.811	31.55
640.001	31.38
640.191	31.38
640.381	31.43
640.571	31.28
640.761	31.42
640.951	31.69
641.141	31.63
641.331	31.73
641.521	31.83
641.711	31.93
641.901	32.08
642.091	32.15
642.281	32.16
642.471	32.3
642.661	32.37
642.851	32.42
643.041	32.13
643.231	32.16
643.42	32.11
643.61	31.99
643.8	31.89
643.99	32
644.18	32.06
644.369	31.91
644.559	32.06
644.749	31.85
644.939	31.88
645.128	31.91
645.318	32.01
645.508	31.96
645.697	31.86
645.887	31.94
646.076	31.69
646.266	31.62
646.456	31.69
646.645	31.45
646.835	31.7
647.024	31.73
647.214	31.76
647.403	31.65
647.593	31.5
647.782	31.53
647.972	31.55
648.161	31.63
648.351	31.6
648.54	31.61
648.73	31.52
648.919	31.64
649.108	31.7
649.298	31.79
649.487	31.81
649.677	32.04
649.866	32.26
650.055	32.32
650.244	32.3
650.434	32.5
650.623	32.65
650.812	32.9
651.002	32.64
651.191	32.52
651.38	32.49
651.569	32.26
651.758	32.21
651.947	32.32
652.137	32.45
652.326	32.54
652.515	32.45
652.704	32.31
652.893	32.04
653.082	32.23
653.271	32.2
653.46	32.27
653.649	32.38
653.838	32.31
654.027	32.17
654.216	31.98
654.405	31.94
654.594	31.88
654.783	32.1
654.972	32.41
655.161	32.33
655.35	32.36
655.539	32.32
655.728	32.44
655.916	32.22
656.105	32.21
656.294	32.15
656.483	31.98
656.672	31.97
656.86	31.76
657.049	31.56
657.238	31.81
657.427	31.78
657.615	31.71
657.804	31.64
657.993	31.78
658.181	31.7
658.37	31.74
658.559	31.76
658.747	31.63
658.936	31.74
659.125	31.94
659.313	31.7
659.502	31.92
659.69	32.01
659.879	32.09
660.067	32.24
660.256	32.17
660.444	32.29
660.633	32.25
660.821	32.56
661.01	32.44
661.198	32.36
661.387	32.53
661.575	32.39
661.763	32.63
661.952	32.72
662.14	32.57
662.328	32.74
662.517	32.73
662.705	33.09
662.893	33.04
663.082	32.99
663.27	32.83
663.458	32.63
663.646	32.6
663.834	32.51
664.023	32.5
664.211	32.79
664.399	32.8
664.587	32.82
664.775	32.76
664.963	32.69
665.152	32.81
665.34	33.1
665.528	33.18
665.716	33.29
665.904	33.06
666.092	32.96
666.28	32.79
666.468	32.77
666.656	32.79
666.844	32.62
667.032	32.81
667.22	32.61
667.408	32.47
667.596	32.63
667.784	32.63
667.971	32.64
668.159	32.68
668.347	32.76
668.535	32.9
668.723	32.6
668.911	32.6
669.098	32.5
669.286	32.85
669.474	32.85
669.662	32.42
669.849	32.43
670.037	32.52
670.225	32.67
670.413	32.56
670.6	32.6
670.788	32.99
670.976	32.99
671.163	33
671.351	32.72
671.538	32.88
671.726	33
671.913	32.92
672.101	32.92
672.289	32.69
672.476	32.78
672.664	32.5
672.851	32.02
673.039	32.06
673.226	31.91
673.413	31.97
673.601	31.86
673.788	31.98
673.976	32.25
674.163	32.03
674.35	32.1
674.538	32.1
674.725	32.32
674.912	32.5
675.1	32.24
675.287	32.39
675.474	32.43
675.662	32.22
675.849	32.26
676.036	32.12
676.223	32.22
676.411	32.46
676.598	32.39
676.785	32.38
676.972	32.46
677.159	32.56
677.346	32.57
677.533	32.75
677.721	32.7
677.908	32.79
678.095	32.66
678.282	32.75
678.469	32.4
678.656	32.47
678.843	32.54
679.03	32.58
679.217	32.78
679.404	32.66
679.591	32.56
679.778	32.64
679.964	32.46
680.151	32.65
680.338	32.76
680.525	32.82
680.712	32.91
680.899	32.85
681.086	32.63
681.272	32.58
681.459	32.75
681.646	32.84
681.833	32.95
682.02	33.11
682.206	32.96
682.393	32.76
682.58	33.05
682.766	32.78
682.953	32.63
683.14	32.91
683.326	32.95
683.513	32.89
683.7	32.69
683.886	32.67
684.073	32.73
684.259	32.82
684.446	32.79
684.632	32.65
684.819	32.97
685.005	32.89
685.192	32.88
685.378	32.79
685.565	32.68
685.751	32.74
685.938	32.77
686.124	32.83
686.31	32.67
686.497	32.89
686.683	33.22
686.87	33.04
687.056	33.4
687.242	33.29
687.429	33.56
687.615	33.57
687.801	33.68
687.987	33.7
688.174	33.51
688.36	33.76
688.546	33.7
688.732	33.42
688.918	33.18
689.105	33.04
689.291	33.07
689.477	32.92
689.663	33.3
689.849	33.26
690.035	33.19
690.221	33.46
690.407	33.72
690.593	33.69
690.779	33.69
690.965	33.88
691.151	33.63
691.337	33.58
691.523	33.53
691.709	33.39
691.895	33.44
692.081	33.53
692.267	33.4
692.453	33.14
692.639	33.29
692.825	33.11
693.011	33.22
693.196	33.59
693.382	34.06
693.568	34.25
693.754	34.32
693.94	34.16
694.125	34.25
694.311	34.29
694.497	34.03
694.682	33.72
694.868	33.75
695.054	33.7
695.239	33.79
695.425	33.13
695.611	32.88
695.796	32.65
695.982	32.95
696.168	32.81
696.353	32.81
696.539	32.83
696.724	32.83
696.91	33.1
697.095	33.3
697.281	32.98
697.466	33.08
697.652	33.25
697.837	33.26
698.023	33.02
698.208	33.1
698.393	32.9
698.579	33.02
698.764	33.03
698.949	32.93
699.135	32.78
699.32	32.97
699.505	33.28
699.691	33.28
699.876	33.34
700.061	33.54
700.246	33.34
700.432	33.47
700.617	33.57
700.802	33.78
700.987	33.41
701.172	33.39
701.358	33.6
701.543	33.82
701.728	33.42
701.913	33.45
702.098	33.79
702.283	33.98
702.468	34.26
702.653	34.16
702.838	34.12
703.023	34.55
703.208	34.6
703.393	34.43
703.578	33.93
703.763	34.27
703.948	34.43
704.133	33.66
704.318	33.88
704.503	33.71
704.688	33.73
704.873	33.71
705.057	33.49
705.242	33.54
705.427	33.43
705.612	33.33
705.797	33.21
705.981	32.8
706.166	32.87
706.351	32.66
706.536	32.56
706.72	32.28
706.905	32.13
707.09	32.33
707.274	32.13
707.459	32.1
707.644	32.09
707.828	32.02
708.013	31.93
708.197	32.48
708.382	32.49
708.567	32.72
708.751	32.85
708.936	33.17
709.12	33.22
709.305	33.35
709.489	33.37
709.673	33.45
709.858	33.56
710.042	33.81
710.227	33.62
710.411	33.57
710.596	33.27
710.78	33.18
710.964	33.25
711.149	33.16
711.333	33.02
711.517	33.49
711.702	33.35
711.886	33.19
712.07	33.25
712.254	33.3
712.438	33.3
712.623	33.51
712.807	33.72
712.991	33.41
713.175	33.57
713.359	33.48
713.544	32.99
713.728	33.13
713.912	32.96
714.096	32.91
714.28	32.89
714.464	32.95
714.648	32.66
714.832	32.2
715.016	32.48
715.2	32.29
715.384	32.28
715.568	32.17
715.752	32.14
715.936	32.55
716.12	32.75
716.304	32.88
716.488	33.08
716.671	33.58
716.855	33.78
717.039	33.66
717.223	34.07
717.407	34.46
717.59	34.59
717.774	34.78
717.958	34.55
718.142	34.51
718.325	34.07
718.509	33.94
718.693	33.87
718.877	33.97
719.06	33.97
719.244	33.68
719.428	33.52
719.611	33.67
719.795	33.74
719.978	34.18
720.162	34
720.345	34.68
720.529	34.75
720.713	34.3
720.896	34.37
721.08	34.03
721.263	33.99
721.446	34.23
721.63	33.94
721.813	33.62
721.997	33.24
722.18	33.28
722.364	32.61
722.547	32.21
722.73	32.44
722.914	32.44
723.097	32.7
723.28	32.69
723.464	32.17
723.647	32.42
723.83	32.33
724.013	32.42
724.197	32.46
724.38	32.58
724.563	33.24
724.746	33.2
724.929	33.39
725.112	33.36
725.296	33.29
725.479	33.45
725.662	33.44
725.845	33.3
726.028	33.59
726.211	33.69
726.394	33.79
726.577	33.2
726.76	33.4
726.943	33.41
727.126	33.18
727.309	33.24
727.492	33.45
727.675	33.44
727.858	33.72
728.041	33.52
728.224	33.32
728.407	33.16
728.589	32.84
728.772	32.57
728.955	32.59
729.138	32.83
729.321	32.83
729.503	32.61
729.686	32.35
729.869	32.46
730.052	32.57
730.234	32.57
730.417	32.74
730.6	33.17
730.782	33.12
730.965	33.21
731.148	33.3
731.33	33.09
731.513	33.41
731.695	33.45
731.878	33.11
732.061	33.14
732.243	33.22
732.426	33.36
732.608	33.57
732.791	33.66
732.973	33.24
733.156	33.33
733.338	33.38
733.52	33.37
733.703	33.75
733.885	34.23
734.068	34.02
734.25	33.76
734.432	33.59
734.615	33.46
734.797	33.39
734.979	33.91
735.162	33.47
735.344	33.42
735.526	33.19
735.708	33.41
735.891	33.43
736.073	33.84
736.255	33.78
736.437	33.69
736.619	34.09
736.802	34.45
736.984	34.05
737.166	34.32
737.348	34.48
737.53	34.46
737.712	34.32
737.894	33.95
738.076	33.91
738.258	33.96
738.44	34.34
738.622	34.23
738.804	34.19
738.986	34.55
739.168	34.28
739.35	34.16
739.532	33.94
739.714	33.46
739.896	33.54
740.078	33.42
740.259	33.96
740.441	33.44
740.623	33.08
740.805	33.35
740.987	33.19
741.168	33.12
741.35	33.56
741.532	33.59
741.714	34.1
741.895	34.67
742.077	34.77
742.259	34.33
742.44	34.82
742.622	35.01
742.804	34.49
742.985	34.72
743.167	34.82
743.348	34.49
743.53	34.57
743.711	34.71
743.893	33.7
744.075	33.6
744.256	33.82
744.438	33.61
744.619	33.74
744.8	34.2
744.982	33.78
745.163	34.63
745.345	34.69
745.526	34.82
745.707	34.65
745.889	35.56
746.07	34.93
746.252	34.8
746.433	34.78
746.614	34.6
746.795	33.92
746.977	34.61
747.158	33.73
747.339	34.51
747.52	34.29
747.702	34.47
747.883	33.82
748.064	34.3
748.245	34.59
748.426	34.64
748.607	34.81
748.788	35.33
748.97	34.21
749.151	34.2
749.332	33.97
749.513	33.55
749.694	32.93
749.875	33.13
750.056	33.95
750.237	34.03
750.418	34.13
750.599	34.04
750.78	34.49
750.96	35.08
751.141	34.95
751.322	33.95
751.503	34.76
751.684	35.18
751.865	35.1
752.046	34.04
752.226	34.45
752.407	34.16
752.588	33.98
752.769	33.23
752.949	32.97
753.13	33.79
753.311	34.73
753.492	34.63
753.672	34.6
753.853	35.13
754.034	35.18
754.214	34.35
754.395	34.92
754.575	35.23
754.756	35.21
754.937	35.89
755.117	35.37
755.298	35.31
755.478	35.37
755.659	35.72
755.839	35.44
756.02	35.39
756.2	35.62
756.381	34.71
756.561	34.13
756.741	35.16
756.922	34.96
757.102	35.2
757.283	34.79
757.463	34.78
757.643	34.12
757.823	34.46
758.004	34.98
758.184	34.85
758.364	35.53
758.545	36.53
758.725	35.15
758.905	35.51
759.085	34.91
759.265	34.94
759.446	34.91
759.626	34.79
759.806	34.17
759.986	33.54
760.166	33.26
760.346	32.02
760.526	31.23
760.706	31.75
760.886	31.03
761.066	31.92
761.246	31.62
761.426	31.73
761.606	31.78
761.786	31.89
761.966	32.08
762.146	32.79
762.326	33.15
762.506	33.36
762.686	33.37
762.866	33.65
763.046	33.27
763.225	33.12
763.405	32.72
763.585	33.17
763.765	32.97
763.945	32.82
764.124	32.63
764.304	33.05
764.484	33.25
764.664	33.2
764.843	33.36
765.023	33.41
765.203	33.47
765.382	33.61
765.562	33.46
765.741	33.8
765.921	33.79
766.101	33.6
766.28	33.37
766.46	32.38
766.639	32.25
766.819	31.45
766.998	32.11
767.178	33.38
767.357	33.77
767.537	33.47
767.716	33.68
767.896	34.12
768.075	34.37
768.254	35.02
768.434	35.8
768.613	36.21
768.792	37.07
768.972	36.25
769.151	35.27
769.33	35.49
769.51	35.37
769.689	35.39
769.868	35.09
770.047	35.59
770.226	35.06
770.406	35.11
770.585	34.95
770.764	34.25
770.943	34.38
771.122	34.37
771.301	34.23
771.48	34.24
771.66	34.35
771.839	34.6
772.018	34.77
772.197	34.84
772.376	35.11
772.555	34.7
772.734	34.89
772.913	35.06
773.092	35.76
773.271	35.77
773.449	36.85
773.628	36.33
773.807	35.99
773.986	35.07
774.165	35.21
774.344	34.41
774.523	34.45
774.701	35.02
774.88	34.2
775.059	33.31
775.238	33.66
775.417	32.51
775.595	33.28
775.774	34.04
775.953	34.06
776.131	33.46
776.31	33.91
776.489	34.83
776.667	34.53
776.846	34.91
777.025	35.12
777.203	34.65
777.382	34.96
777.56	34.26
777.739	33.22
777.917	32.74
778.096	33.43
778.274	33.12
778.453	32.31
778.631	32.07
778.81	32.19
778.988	31.46
779.166	31.72
779.345	31.27
779.523	30.88
779.702	31
779.88	31.18
780.058	31.11
780.237	31.35
780.415	31.64
780.593	31.96
780.771	32.5
780.95	33.81
781.128	33.48
781.306	33.96
781.484	34.31
781.662	35.38
781.841	35.6
782.019	35.43
782.197	36.13
782.375	36.85
782.553	36.97
782.731	36.48
782.909	36.89
783.087	37.41
783.265	37.24
783.443	37.05
783.621	36.05
783.799	36.19
783.977	36.41
784.155	36.5
784.333	36.06
784.511	35.71
784.689	35.91
784.867	35.61
785.045	35.35
785.223	35.56
785.4	35.62
785.578	36.17
785.756	36.21
785.934	35.9
786.112	35.45
786.289	35.89
786.467	35.86
786.645	36.45
786.823	35.31
787	35.19
787.178	34.95
787.356	36.61
787.533	36.74
787.711	36.84
787.889	36.56
788.066	35.68
788.244	35.93
788.421	36.32
788.599	35.97
788.776	37.34
788.954	36.84
789.131	37
789.309	35.97
789.486	35.76
789.664	35.55
789.841	37.05
790.019	37.92
790.196	37.55
790.373	37.44
790.551	37.36
790.728	36.31
790.906	36.59
791.083	36.13
791.26	35.51
791.437	35.07
791.615	35.27
791.792	34.46
791.969	34.38
792.146	33.74
792.324	33.36
792.501	33.1
792.678	32.88
792.855	32.97
793.032	33.31
793.209	33.84
793.387	33.9
793.564	33.35
793.741	32.26
793.918	32.51
794.095	33.28
794.272	33.3
794.449	33.95
794.626	34.16
794.803	33.97
794.98	34.31
795.157	34.15
795.334	34.9
795.511	36.35
795.688	36.95
795.864	37.01
796.041	36.92
796.218	37.35
796.395	36.3
796.572	36.86
796.749	37.35
796.925	36.95
797.102	37.43
797.279	36.65
797.456	35.45
797.632	34.96
797.809	34.61
797.986	33.98
798.162	33.61
798.339	34.63
798.516	35.03
798.692	34.86
798.869	35.46
799.046	35.58
799.222	36.34
799.399	36.15
799.575	37.08
799.752	37.34
799.928	37.14
800.105	37.85
800.281	36.44
800.458	36.26
800.634	37.28
800.811	36.39
800.987	36.07
801.163	36.02
801.34	36.16
801.516	35.56
801.692	36.25
801.869	35.4
802.045	35.88
802.221	36.3
802.398	35.42
802.574	34.78
802.75	35.26
802.926	36.47
803.103	36.54
803.279	37.01
803.455	37.97
803.631	37.11
803.807	38.29
803.983	37.29
804.16	37.6
804.336	37.93
804.512	36.94
804.688	36.62
804.864	35.41
805.04	36.14
805.216	36.46
805.392	36.18
805.568	36.98
805.744	35.96
805.92	34.95
806.096	35.93
806.272	35.13
806.448	36.18
806.623	36.97
806.799	36.43
806.975	35.83
807.151	35.3
807.327	34.98
807.503	34.28
807.678	34.77
807.854	36.28
808.03	35.84
808.206	37.26
808.381	36.2
808.557	36.2
808.733	36.14
808.908	34.07
809.084	33.44
809.26	33.24
809.435	32.36
809.611	32.81
809.787	30.55
809.962	29.85
810.138	28.26
810.313	29.87
810.489	30.04
810.664	29.45
810.84	32.12
811.015	34.39
811.191	35.1
811.366	36.55
811.542	37.11
811.717	38.74
811.892	40.43
812.068	41.37
812.243	40.63
812.419	40.27
812.594	41.17
812.769	40.29
812.944	38.32
813.12	38.11
813.295	37.05
813.47	36.31
813.645	36.18
813.821	34.27
813.996	34.38
814.171	33.91
814.346	34.75
814.521	36.61
814.697	37.93
814.872	37.94
815.047	37.94
815.222	38.54
815.397	39.1
815.572	39.48
815.747	40.27
815.922	39.58
816.097	39.44
816.272	37.71
816.447	36.14
816.622	35.18
816.797	34.81
816.972	34.83
817.147	34.97
817.322	34.91
817.496	35.29
817.671	34.56
817.846	35.35
818.021	36.34
818.196	37.25
818.371	37.91
818.545	37.76
818.72	37.84
818.895	37.73
819.069	36.68
819.244	36.17
819.419	34.94
819.594	34.97
819.768	34.52
819.943	34.1
820.117	32.97
820.292	32.97
820.467	32.26
820.641	32.01
820.816	31.8
820.99	31.81
821.165	31.54
821.339	31.53
821.514	31.55
821.688	31.49
821.863	31.33
822.037	31.87
822.212	31.46
822.386	31.45
822.56	31.49
822.735	31.55
822.909	31.72
823.084	31.93
823.258	32.04
823.432	32.18
823.606	32.19
823.781	32.53
823.955	32.31
824.129	32.43
824.303	32.54
824.478	32.73
824.652	32.38
824.826	31.92
825	31.92
825.174	32.29
825.348	32.09
825.523	31.74
825.697	31.3
825.871	31.46
826.045	31.36
826.219	31.86
826.393	31.78
826.567	32.14
826.741	32.92
826.915	32.82
827.089	32.62
827.263	32.75
827.437	33.02
827.611	32.93
827.784	32.65
827.958	33.42
828.132	32.94
828.306	33.1
828.48	33.53
828.654	33.58
828.827	34.16
829.001	34
829.175	34.21
829.349	34.64
829.522	34.96
829.696	35.73
829.87	36.03
830.044	36.14
830.217	36.42
830.391	36.33
830.565	35.81
830.738	36.11
830.912	36.88
831.085	36.82
831.259	36.28
831.432	36.18
831.606	36.38
831.779	34.15
831.953	34.44
832.126	33.87
832.3	33.54
832.473	33.04
832.647	31.96
832.82	31.52
832.994	30.94
833.167	31.47
833.34	30.94
833.514	30.49
833.687	30.71
833.86	31.02
834.034	31.33
834.207	31.18
834.38	32.05
834.553	32.39
834.727	32.6
834.9	33.11
835.073	32.46
835.246	33.88
835.419	33.29
835.593	33.93
835.766	33.74
835.939	34.25
836.112	33.65
836.285	33.55
836.458	34.52
836.631	34.83
836.804	34.78
836.977	36.31
837.15	34.86
837.323	36.17
837.496	36.14
837.669	36.52
837.842	35.69
838.015	37.07
838.188	36.57
838.361	35.91
838.533	34.75
838.706	35.42
838.879	36.67
839.052	36.98
839.225	36.9
839.398	37.55
839.57	36.77
839.743	37.47
839.916	38.23
840.088	37.96
840.261	36.65
840.434	39.18
840.607	37.92
840.779	35.99
840.952	37.05
841.124	37.66
841.297	39.15
841.47	39.92
841.642	40.51
841.815	39.28
841.987	40.16
842.16	41.63
842.332	42.07
842.505	43.78
842.677	44.04
842.85	44.15
843.022	42.33
843.194	42.68
843.367	44.44
843.539	43.26
843.712	43.1
843.884	45.26
844.056	45.41
844.229	44.45
844.401	45.44
844.573	50.52
844.745	49.85
844.918	53.19
845.09	51.1
845.262	52.91
845.434	52.24
845.606	50.28
845.779	48.15
845.951	48.05
846.123	47.64
846.295	44.81
846.467	37.58
846.639	39.14
846.811	36.42
846.983	34.6
847.155	30.45
847.327	33.6
847.499	42.29
847.671	42.62
847.843	43.17
848.015	42.54
848.187	43.13
848.359	46.24
848.531	47.14
848.703	47.17
848.875	50.07
849.047	52.31
849.218	49.22
849.39	42.95
849.562	44.92
849.734	42.8
849.905	42.54
850.077	43.05
850.249	45.55
850.421	44.97
850.592	47.85
850.764	48.38
850.936	47.81
851.107	47.39
851.279	49.82
851.451	46.08
851.622	47.44
851.794	48.27
851.965	47.77
852.137	46.39
852.308	45.96
852.48	45.33
852.651	46.42
852.823	45.15
852.994	44.18
853.166	40.7
853.337	41.64
853.509	42.78
853.68	43.71
853.851	45.37
854.023	46.56
854.194	44.61
854.365	41.7
854.537	40.11
854.708	40.57
854.879	43.07
855.05	47.24
855.222	48.1
855.393	47.84
855.564	46.44
855.735	47.01
855.906	42.12
856.078	45.56
856.249	46.92
856.42	45.89
856.591	46.33
856.762	43.78
856.933	41.75
857.104	41.42
857.275	44.47
857.446	47.33
857.617	45.43
857.788	46.92
857.959	42.95
858.13	41.11
858.301	41.23
858.472	39.19
858.643	42.83
858.814	41.22
858.985	42.19
859.155	39.17
859.326	35.27
859.497	36.41
859.668	41.67
859.839	44.08
860.009	46.77
860.18	46.47
860.351	48.23
860.522	44.06
860.692	47.25
860.863	48.8
861.034	48.17
861.204	45.58
861.375	45.94
861.546	41.05
861.716	42.02
861.887	44.39
862.057	45.18
862.228	48.92
862.398	47.74
862.569	48.61
862.739	46.39
862.91	46.24
863.08	50.85
863.251	51.27
863.421	51.62
863.592	48.24
863.762	46.26
863.932	47.68
864.103	43.01
864.273	47.14
864.443	44.35
864.614	45.75
864.784	44.89
864.954	44.2
865.125	47.72
865.295	48.87
865.465	50.63
865.635	49.15
865.805	51.83
865.976	51.44
866.146	50.54
866.316	51.93
866.486	49.5
866.656	50.91
866.826	49.24
866.996	47.1
867.166	45.67
867.336	45.45
867.506	48.4
867.676	45.23
867.846	43.84
868.016	48.53
868.186	50.77
868.356	49.79
868.526	50.64
868.696	53.15
868.866	50.75
869.036	50.94
869.206	53.62
869.376	49.63
869.545	45.09
869.715	48.55
869.885	40.52
870.055	40.05
870.224	40.18
870.394	40.9
870.564	44.47
870.734	45.7
870.903	46.94
871.073	45.97
871.243	45.64
871.412	50.48
871.582	52.58
871.751	53.41
871.921	54.36
872.091	56.08
872.26	55.61
872.43	49.97
872.599	52.97
872.769	53.67
872.938	50.19
873.108	52.65
873.277	53.58
873.446	46.21
873.616	47.18
873.785	44.01
873.955	43.75
874.124	43.62
874.293	46.37
874.463	43.88
874.632	44.05
874.801	50.12
874.971	50.37
875.14	44.17
875.309	45.63
875.478	45.95
875.647	45.22
875.817	44.07
875.986	43.43
876.155	41.84
876.324	41.29
876.493	38.55
876.662	35.4
876.831	36.38
877	38.81
877.17	42.66
877.339	45.67
877.508	48.63
877.677	51.01
877.846	51.55
878.015	51.21
878.184	51.15
878.352	50.37
878.521	47.93
878.69	46.23
878.859	48.66
879.028	45.75
879.197	44.99
879.366	40.6
879.534	37.81
879.703	36.42
879.872	36.91
880.041	35.59
880.21	35.24
880.378	35.99
880.547	34.38
880.716	32.85
880.884	32.48
881.053	31.56
881.222	31.86
881.39	31.83
881.559	31.51
881.727	31.7
881.896	31.47
882.065	31.09
882.233	31.33
882.402	31.91
882.57	31.18
882.739	31.64
882.907	31.9
883.076	32.03
883.244	32.71
883.412	32.35
883.581	32.55
883.749	33.7
883.918	34.43
884.086	34.92
884.254	35.05
884.423	36.51
884.591	36.89
884.759	38.19
884.927	39.21
885.096	39.98
885.264	41.87
885.432	41.6
885.6	41.55
885.769	41.86
885.937	43.15
886.105	44.82
886.273	44.83
886.441	44.49
886.609	42.09
886.777	41.99
886.945	41.46
887.113	40.67
887.281	41.14
887.449	38.67
887.617	40.71
887.785	37.53
887.953	35.67
888.121	34.5
888.289	38.37
888.457	42.42
888.625	40.99
888.793	41.83
888.961	41.92
889.129	45.16
889.296	49.63
889.464	47.94
889.632	50.02
889.8	52.59
889.967	57.73
890.135	57.94
