Data from 2938455_Reflection_2.txt Node
Date: Fri Jun 19 17:47:59 EDT 2015
User: robert
Spectrometer: USB4E03002
Autoset integration time: false
Trigger mode: 4
Integration Time (sec): 1.000000E-1
Scans to average: 10
Electric dark correction enabled: true
Nonlinearity correction enabled: false
Boxcar width: 5
Stray light correction enabled: false
XAxis mode: Wavelengths
Stop averaging: false
Number of Pixels in Spectrum: 3648
>>>>>Begin Spectral Data<<<<<
177.575	477.29
177.794	-1051.04
178.014	531.47
178.233	49.96
178.452	82.71
178.672	316.67
178.891	-220.36
179.11	77.66
179.33	69.64
179.549	-240.72
179.768	-219
179.987	190.29
180.207	1865.83
180.426	1531.31
180.645	-401.37
180.864	872.97
181.084	-4470.97
181.303	-453.55
181.522	-245.17
181.741	-171.94
181.96	-115.05
182.179	-167.56
182.398	-188
182.618	-98.49
182.837	-42.36
183.056	0.47
183.275	30.04
183.494	-15.15
183.713	5.75
183.932	-97.38
184.151	-279.5
184.37	-179.81
184.589	-110.19
184.808	-150.97
185.027	-252.87
185.246	3805.61
185.465	773.97
185.684	447.98
185.903	212.36
186.122	328.43
186.341	255.08
186.56	324.27
186.779	201.75
186.998	145
187.216	141.7
187.435	156.6
187.654	292.83
187.873	207.08
188.092	-3997.83
188.311	-570.53
188.53	680.8
188.748	348.4
188.967	235.57
189.186	477.62
189.405	-194.05
189.623	-183.96
189.842	192.16
190.061	253.36
190.28	224.33
190.498	114.83
190.717	133.39
190.936	96.5
191.154	66.83
191.373	50.43
191.592	54.38
191.81	72.67
192.029	90.51
192.248	93.4
192.466	78.85
192.685	76.76
192.904	95.65
193.122	87.43
193.341	83.8
193.559	90.5
193.778	110.13
193.996	107.71
194.215	93.46
194.433	110.16
194.652	101.39
194.87	114.64
195.089	113.13
195.307	92.51
195.526	98.43
195.744	130.98
195.963	190.7
196.181	171.27
196.399	185.96
196.618	210.35
196.836	164.77
197.055	164.84
197.273	181.92
197.491	208.82
197.71	227.1
197.928	238.47
198.146	204.46
198.365	169.55
198.583	149.28
198.801	125.25
199.019	112.63
199.238	102.84
199.456	73.15
199.674	75.38
199.892	66.77
200.111	60.71
200.329	53.64
200.547	47.1
200.765	56.01
200.983	58.5
201.202	89.37
201.42	137.35
201.638	192.37
201.856	318.01
202.074	267.29
202.292	870.37
202.51	588.35
202.728	865.62
202.946	592.87
203.165	590.64
203.383	213.78
203.601	187.23
203.819	123.84
204.037	154.85
204.255	159.3
204.473	212.45
204.691	215.11
204.909	163.29
205.127	165.39
205.345	172.32
205.562	237.92
205.78	219.66
205.998	204.22
206.216	182.47
206.434	236.32
206.652	480.49
206.87	216.51
207.088	239.98
207.306	-2639.29
207.523	1416.51
207.741	321.21
207.959	486.5
208.177	4111.43
208.395	-1970.71
208.612	-459.51
208.83	570.03
209.048	159.44
209.266	157.58
209.483	116.38
209.701	85.7
209.919	73.08
210.136	86.85
210.354	78.52
210.572	70.79
210.79	101.18
211.007	102.41
211.225	80.71
211.442	65.41
211.66	57.56
211.878	61.75
212.095	-208.94
212.313	-159.78
212.53	-128.87
212.748	-118.56
212.966	-102.05
213.183	-379.75
213.401	-437.27
213.618	-2813.14
213.836	2034.88
214.053	444.41
214.271	-890.58
214.488	98.47
214.705	117.03
214.923	118.12
215.14	98.34
215.358	100.61
215.575	83.62
215.793	82.18
216.01	73.78
216.227	41.86
216.445	97.81
216.662	96.01
216.879	100.96
217.097	66.03
217.314	33.02
217.531	57.97
217.749	79.11
217.966	115.17
218.183	112.67
218.4	95.57
218.618	92.48
218.835	77.09
219.052	60
219.269	58.6
219.487	71.06
219.704	87.78
219.921	66.57
220.138	47.14
220.355	19.02
220.572	17.83
220.79	34.31
221.007	32.97
221.224	47.61
221.441	46.44
221.658	42.46
221.875	32.14
222.092	23.24
222.309	29.11
222.526	37.29
222.743	42.01
222.96	47.55
223.177	48.66
223.394	49.85
223.611	43.45
223.828	47.24
224.045	49.23
224.262	59.01
224.479	59.67
224.696	50.57
224.913	48.42
225.13	46.34
225.347	40.36
225.564	34.55
225.781	29.85
225.997	26.83
226.214	24.28
226.431	21.42
226.648	19.77
226.865	20.69
227.082	22.38
227.298	20.73
227.515	20.09
227.732	18.52
227.949	17.03
228.165	19.33
228.382	18.98
228.599	18.62
228.816	16.8
229.032	15.44
229.249	14.93
229.466	12.99
229.682	12.58
229.899	10.81
230.116	9.49
230.332	12.33
230.549	5.43
230.765	10.28
230.982	11.25
231.199	13.35
231.415	16.3
231.632	12.46
231.848	12.61
232.065	14.32
232.281	18.36
232.498	22.49
232.714	19.93
232.931	19.94
233.147	14.58
233.364	15.36
233.58	15.38
233.797	16.98
234.013	16.18
234.23	15.16
234.446	16.84
234.662	17.27
234.879	16.29
235.095	18.7
235.312	23.62
235.528	25.28
235.744	25.78
235.961	30.44
236.177	26.73
236.393	30.57
236.61	30.53
236.826	28.24
237.042	25.42
237.258	25.01
237.475	22.88
237.691	18.07
237.907	14.41
238.123	14.16
238.339	15.34
238.556	16.84
238.772	15.6
238.988	16.76
239.204	16.45
239.42	15.77
239.636	16.35
239.853	16.57
240.069	17.03
240.285	18.24
240.501	18.07
240.717	16.16
240.933	16.3
241.149	16.09
241.365	16.12
241.581	16.17
241.797	16.75
242.013	15.28
242.229	15.76
242.445	15.97
242.661	16.84
242.877	15.58
243.093	15.18
243.309	13.96
243.525	13.7
243.741	12.94
243.957	13.11
244.173	12.83
244.388	13.46
244.604	13.2
244.82	13.44
245.036	12.85
245.252	12.9
245.468	13.06
245.683	13.22
245.899	13.2
246.115	13.72
246.331	13.68
246.547	13.82
246.762	13.86
246.978	13.88
247.194	13.54
247.409	13.66
247.625	14.62
247.841	14.56
248.057	15.09
248.272	14.82
248.488	13.17
248.703	12.47
248.919	12.25
249.135	11.79
249.35	12.16
249.566	12.67
249.782	12.34
249.997	11.78
250.213	10.5
250.428	10.17
250.644	11.39
250.859	12.46
251.075	12.6
251.29	11.95
251.506	12.76
251.721	12.13
251.937	11.45
252.152	12.3
252.368	11.76
252.583	13.99
252.798	14.24
253.014	11.95
253.229	11.88
253.445	12.46
253.66	13.76
253.875	11.89
254.091	10.68
254.306	11.72
254.521	8.63
254.737	7.3
254.952	5.7
255.167	4.79
255.383	7.48
255.598	7.7
255.813	6.78
256.028	6.04
256.244	7.09
256.459	7.55
256.674	7.22
256.889	8.81
257.104	9.43
257.32	10.54
257.535	10.37
257.75	10.25
257.965	10.52
258.18	11.07
258.395	11.44
258.61	11.63
258.826	11.93
259.041	11.85
259.256	11.48
259.471	11.26
259.686	11.03
259.901	11.08
260.116	10.87
260.331	9.76
260.546	9.83
260.761	9.16
260.976	8.75
261.191	8.2
261.406	8.57
261.621	10.3
261.836	10.74
262.05	9.2
262.265	8.68
262.48	9.94
262.695	11.44
262.91	10.58
263.125	10.43
263.34	9.42
263.555	9.64
263.769	9.57
263.984	7.86
264.199	8.42
264.414	10.22
264.629	11.53
264.843	9.94
265.058	10.56
265.273	10.1
265.488	11.29
265.702	12.3
265.917	11.89
266.132	11.57
266.346	12.29
266.561	12.38
266.776	11.96
266.99	11.81
267.205	11.75
267.42	10.8
267.634	11.08
267.849	9.63
268.063	9.61
268.278	8.75
268.492	8.91
268.707	8.58
268.922	8.24
269.136	7.87
269.351	7.23
269.565	7.21
269.78	7.95
269.994	7.64
270.209	8.41
270.423	8.17
270.637	9.1
270.852	8.79
271.066	8.62
271.281	9.11
271.495	9.16
271.709	9.93
271.924	9.78
272.138	9.27
272.353	9.65
272.567	9.72
272.781	10.05
272.996	10.4
273.21	11.57
273.424	11.46
273.638	10.91
273.853	11.68
274.067	10.54
274.281	11.31
274.495	10.98
274.71	11.85
274.924	11.22
275.138	10.79
275.352	10.06
275.566	9.73
275.781	9.16
275.995	9.51
276.209	8.91
276.423	9.28
276.637	8.74
276.851	8.85
277.065	7.74
277.279	8.71
277.493	8.18
277.707	8.66
277.921	8.23
278.135	9.01
278.349	8.38
278.563	8.87
278.777	9.59
278.991	10.09
279.205	10.81
279.419	11.02
279.633	11.06
279.847	11.73
280.061	12.12
280.275	11.52
280.489	11.2
280.703	11.73
280.917	11.73
281.131	11.02
281.344	11.3
281.558	11.27
281.772	11.25
281.986	11.34
282.2	11.11
282.414	11.45
282.627	11.52
282.841	12.03
283.055	11.67
283.269	11.25
283.482	11.26
283.696	10.8
283.91	10.15
284.123	10.36
284.337	9.47
284.551	9.05
284.764	8.71
284.978	9.03
285.192	8.77
285.405	9.53
285.619	8.81
285.833	9.5
286.046	9.37
286.26	10.36
286.473	10.54
286.687	11.31
286.9	11.77
287.114	11.7
287.327	12.14
287.541	12
287.754	10.94
287.968	12.08
288.181	10.93
288.395	11.4
288.608	11.11
288.822	10.48
289.035	10.22
289.248	10.41
289.462	10.69
289.675	10.23
289.889	9.83
290.102	10.26
290.315	10.09
290.529	10.37
290.742	10.2
290.955	10.23
291.169	10.53
291.382	11.22
291.595	11.57
291.808	11.37
292.022	12.25
292.235	12.61
292.448	12.6
292.661	12.36
292.875	12.64
293.088	12.69
293.301	12.75
293.514	13.49
293.727	12.66
293.94	12.39
294.153	11.89
294.367	11.21
294.58	11.42
294.793	11.26
295.006	11.64
295.219	11.99
295.432	11.58
295.645	11.18
295.858	11.18
296.071	11.11
296.284	11.4
296.497	11.72
296.71	11.33
296.923	11.69
297.136	12.24
297.349	11.92
297.562	11.61
297.775	12.3
297.988	12.82
298.201	12.47
298.414	13.3
298.626	13.13
298.839	13.3
299.052	13.56
299.265	13.83
299.478	13.56
299.691	14.52
299.903	15.03
300.116	14
300.329	14
300.542	14.3
300.755	14.1
300.967	14.68
301.18	14.51
301.393	15.02
301.605	14.06
301.818	14.05
302.031	13.4
302.243	13.39
302.456	14.01
302.669	14.12
302.881	14.25
303.094	14.81
303.307	13.61
303.519	13.3
303.732	13.27
303.944	14.24
304.157	14.29
304.37	14.51
304.582	14.42
304.795	14.88
305.007	14.9
305.22	14.21
305.432	13.31
305.645	13.81
305.857	14.43
306.069	15
306.282	13.87
306.494	13.6
306.707	13.55
306.919	13.79
307.132	13.74
307.344	14.28
307.556	14.5
307.769	13.94
307.981	13.91
308.193	13.54
308.406	13.22
308.618	14.67
308.83	15.16
309.043	14.3
309.255	14.07
309.467	14.43
309.679	14.15
309.892	14.43
310.104	15.49
310.316	15.56
310.528	15.98
310.74	16.32
310.953	15.33
311.165	15.59
311.377	16.62
311.589	16.6
311.801	16.13
312.013	16.65
312.225	16.63
312.437	16.3
312.649	16.01
312.862	15.64
313.074	15.43
313.286	15.76
313.498	14.41
313.71	14.06
313.922	14.86
314.134	15.03
314.346	14.31
314.558	13.41
314.77	13.55
314.982	14.36
315.193	15.28
315.405	15.55
315.617	15.11
315.829	16.71
316.041	17.73
316.253	17.29
316.465	17.43
316.677	16.72
316.888	18.35
317.1	17.96
317.312	18.41
317.524	17.36
317.736	17.15
317.947	17.34
318.159	15.97
318.371	15.34
318.583	15.77
318.794	14.45
319.006	15.04
319.218	14.08
319.43	13.95
319.641	13.17
319.853	14.13
320.064	15.18
320.276	15.61
320.488	17.03
320.699	17.12
320.911	15.81
321.123	17.95
321.334	17.7
321.546	18.18
321.757	18.43
321.969	18.63
322.18	18.21
322.392	17.36
322.603	17
322.815	16.24
323.026	16.04
323.238	16.54
323.449	15.66
323.661	15.9
323.872	15.83
324.083	16.36
324.295	16.1
324.506	16.02
324.718	15.52
324.929	15.38
325.14	15.73
325.352	15.47
325.563	15.6
325.774	15.12
325.986	15.84
326.197	16.28
326.408	15.86
326.62	15.81
326.831	14.98
327.042	15.31
327.253	15.55
327.464	15.75
327.676	15.96
327.887	15.69
328.098	16.51
328.309	15.85
328.52	14.72
328.732	15
328.943	15.52
329.154	15.84
329.365	16.43
329.576	16.62
329.787	15.86
329.998	16.18
330.209	16.87
330.42	16.43
330.631	16.74
330.842	16.65
331.053	16.58
331.264	16.09
331.475	16.79
331.686	15.97
331.897	16.2
332.108	16.95
332.319	16.65
332.53	16.48
332.741	16.41
332.952	15.82
333.163	15.61
333.374	14.89
333.585	14.74
333.795	14.75
334.006	14.88
334.217	14.27
334.428	13.61
334.639	13.7
334.849	13.9
335.06	14.31
335.271	14.48
335.482	15.17
335.692	15.14
335.903	15.35
336.114	14.88
336.325	15.12
336.535	15.19
336.746	15.43
336.957	15.83
337.167	15.78
337.378	15.1
337.589	15.03
337.799	14.94
338.01	15.17
338.22	15.08
338.431	15.36
338.642	15.3
338.852	15.33
339.063	15.03
339.273	14.68
339.484	13.77
339.694	14.91
339.905	15.09
340.115	14.37
340.326	14.48
340.536	14.09
340.746	13.82
340.957	13.72
341.167	13.84
341.378	13.74
341.588	13.78
341.799	14.17
342.009	13.67
342.219	14
342.43	14.76
342.64	14.43
342.85	15.11
343.061	15.21
343.271	14.7
343.481	14.91
343.691	14.77
343.902	14.44
344.112	14.7
344.322	13.41
344.532	13.11
344.743	13.03
344.953	12.89
345.163	12.18
345.373	12.01
345.583	12.15
345.793	11.71
346.004	12.04
346.214	12.06
346.424	13.01
346.634	13.53
346.844	13.58
347.054	13.85
347.264	14.51
347.474	14.63
347.684	14.64
347.894	14.91
348.104	14.49
348.314	14.02
348.524	13.53
348.734	12.34
348.944	13.09
349.154	12.67
349.364	12.19
349.574	11.37
349.784	11.79
349.994	11.78
350.204	11.67
350.413	11.2
350.623	11.95
350.833	12.76
351.043	12.5
351.253	12.51
351.463	12.79
351.672	13.21
351.882	13.38
352.092	12.91
352.302	13.63
352.511	13.77
352.721	14.38
352.931	13.63
353.141	12.69
353.35	12.87
353.56	12.57
353.77	12.42
353.979	11.92
354.189	12.12
354.399	11.85
354.608	11.62
354.818	11.16
355.027	11.25
355.237	11.21
355.447	11.71
355.656	11.75
355.866	12
356.075	12.19
356.285	12.15
356.494	11.85
356.704	12.07
356.913	11.59
357.123	11.85
357.332	11.43
357.542	11.54
357.751	11.38
357.96	11.46
358.17	10.82
358.379	10.62
358.589	10.8
358.798	10.94
359.007	10.87
359.217	10.86
359.426	10.88
359.635	11.57
359.845	11.52
360.054	11.45
360.263	11.1
360.472	11.37
360.682	11.02
360.891	10.6
361.1	10.56
361.309	10.75
361.519	10.92
361.728	10.54
361.937	10.2
362.146	9.97
362.355	10.23
362.564	10.42
362.774	10.3
362.983	10.54
363.192	10.82
363.401	10.58
363.61	10.42
363.819	9.94
364.028	9.99
364.237	9.65
364.446	9.68
364.655	9.33
364.864	9.27
365.073	9.32
365.282	9.29
365.491	9.12
365.7	9.85
365.909	9.71
366.118	9.62
366.327	9.66
366.536	9.97
366.745	10.45
366.954	10.22
367.162	10.25
367.371	10.04
367.58	9.84
367.789	10.3
367.998	9.64
368.207	9.69
368.415	9.4
368.624	9.24
368.833	9.12
369.042	9.03
369.25	9.42
369.459	9.89
369.668	9.62
369.877	9.87
370.085	9.01
370.294	8.98
370.503	8.88
370.711	9.61
370.92	9.76
371.129	9.6
371.337	9.09
371.546	9.22
371.754	8.63
371.963	8.91
372.171	8.68
372.38	9.33
372.589	8.88
372.797	9.02
373.006	8.51
373.214	8.44
373.423	8.53
373.631	8.89
373.84	8.09
374.048	8.27
374.256	8.01
374.465	8.24
374.673	7.67
374.882	7.98
375.09	7.84
375.298	7.95
375.507	8.03
375.715	8.25
375.923	8.05
376.132	8.41
376.34	7.87
376.548	7.96
376.757	7.5
376.965	7.73
377.173	7.87
377.381	7.65
377.59	7.59
377.798	7.39
378.006	7.06
378.214	7
378.423	6.93
378.631	7.07
378.839	6.56
379.047	6.94
379.255	6.9
379.463	6.8
379.671	6.92
379.879	6.75
380.088	6.57
380.296	6.66
380.504	6.91
380.712	7.17
380.92	7.26
381.128	7.54
381.336	7.23
381.544	7.1
381.752	7.01
381.96	6.56
382.168	6.64
382.376	7.01
382.584	6.71
382.791	6.38
382.999	6.15
383.207	5.79
383.415	5.71
383.623	6.03
383.831	6.27
384.039	6.24
384.247	6.38
384.454	6.62
384.662	6.32
384.87	6.18
385.078	6.18
385.285	5.83
385.493	6.31
385.701	6.41
385.909	6.18
386.116	5.83
386.324	5.94
386.532	6.03
386.739	5.83
386.947	5.86
387.155	5.95
387.362	6.19
387.57	6.12
387.778	5.93
387.985	5.88
388.193	5.99
388.4	6.15
388.608	6.03
388.816	5.98
389.023	5.98
389.231	5.86
389.438	5.8
389.646	5.49
389.853	5.76
390.061	5.65
390.268	5.55
390.475	5.33
390.683	5.23
390.89	5.1
391.098	5.09
391.305	5
391.512	4.99
391.72	4.92
391.927	4.87
392.135	4.85
392.342	4.84
392.549	4.68
392.756	4.55
392.964	4.63
393.171	4.76
393.378	4.83
393.586	4.55
393.793	4.52
394	4.63
394.207	4.72
394.414	4.75
394.622	4.69
394.829	4.89
395.036	5.02
395.243	4.72
395.45	4.72
395.657	4.79
395.864	5.03
396.072	5.03
396.279	4.85
396.486	4.77
396.693	4.54
396.9	4.44
397.107	4.31
397.314	4.33
397.521	4.32
397.728	4.08
397.935	3.91
398.142	3.97
398.349	3.92
398.556	3.89
398.763	3.87
398.97	3.78
399.177	4.04
399.383	4.11
399.59	4.08
399.797	4.26
400.004	4.38
400.211	4.39
400.418	4.45
400.625	4.36
400.831	4.48
401.038	4.32
401.245	4.62
401.452	4.39
401.658	4.37
401.865	4.35
402.072	4.33
402.279	4.35
402.485	4.24
402.692	4
402.899	4.15
403.105	4.14
403.312	4.21
403.519	4.06
403.725	4.1
403.932	4.19
404.138	4.18
404.345	4.17
404.552	4.05
404.758	4.05
404.965	4.23
405.171	4.07
405.378	4.2
405.584	4.15
405.791	4.19
405.997	4.29
406.204	4.15
406.41	4.29
406.617	4.18
406.823	4.02
407.029	4.09
407.236	4.03
407.442	4.31
407.649	4.09
407.855	4.35
408.061	4.39
408.268	4.28
408.474	4.32
408.68	4.15
408.887	4.27
409.093	4.34
409.299	4.27
409.505	4.24
409.712	3.97
409.918	3.93
410.124	3.64
410.33	3.62
410.537	3.44
410.743	3.42
410.949	3.58
411.155	3.53
411.361	3.55
411.567	3.4
411.773	3.29
411.98	3.39
412.186	3.54
412.392	3.66
412.598	3.66
412.804	3.83
413.01	3.77
413.216	3.53
413.422	3.67
413.628	3.91
413.834	3.97
414.04	4.1
414.246	4.09
414.452	4.08
414.658	4.09
414.864	3.97
415.07	3.91
415.275	3.94
415.481	4.08
415.687	3.79
415.893	3.65
416.099	3.62
416.305	3.53
416.511	3.5
416.716	3.48
416.922	3.38
417.128	3.38
417.334	3.44
417.539	3.45
417.745	3.36
417.951	3.48
418.157	3.42
418.362	3.44
418.568	3.4
418.774	3.32
418.979	3.24
419.185	3.31
419.391	3.25
419.596	3.19
419.802	3.13
420.008	3.19
420.213	2.67
420.419	2.65
420.624	2.67
420.83	2.73
421.035	2.72
421.241	2.8
421.446	2.79
421.652	2.85
421.857	2.89
422.063	2.95
422.268	2.87
422.474	3.34
422.679	3.37
422.885	3.4
423.09	3.39
423.295	3.54
423.501	3.44
423.706	3.39
423.911	3.35
424.117	3.38
424.322	3.42
424.527	3.38
424.733	3.43
424.938	3.37
425.143	3.34
425.349	3.3
425.554	3.23
425.759	3.32
425.964	3.36
426.169	3.34
426.375	3.2
426.58	3.13
426.785	3.32
426.99	3.26
427.195	3.44
427.4	3.43
427.605	3.46
427.811	3.44
428.016	3.4
428.221	3.39
428.426	3.43
428.631	3.52
428.836	3.54
429.041	3.59
429.246	3.67
429.451	3.63
429.656	3.62
429.861	3.67
430.066	3.56
430.271	3.61
430.476	3.62
430.681	3.61
430.886	3.54
431.09	3.44
431.295	3.43
431.5	3.38
431.705	3.31
431.91	3.37
432.115	3.36
432.32	3.43
432.524	3.33
432.729	3.33
432.934	3.28
433.139	3.24
433.343	3.25
433.548	3.02
433.753	3.02
433.958	3.12
434.162	3.11
434.367	3.06
434.572	3.04
434.776	3.12
434.981	3.15
435.186	3.18
435.39	3.27
435.595	3.27
435.799	3.35
436.004	3.46
436.209	3.46
436.413	3.48
436.618	3.51
436.822	3.5
437.027	3.44
437.231	3.46
437.436	3.5
437.64	3.5
437.845	3.56
438.049	3.62
438.253	3.58
438.458	3.53
438.662	3.42
438.867	3.46
439.071	3.5
439.275	3.46
439.48	3.41
439.684	3.32
439.888	3.29
440.093	3.2
440.297	3.11
440.501	3.08
440.706	3
440.91	3.07
441.114	2.97
441.318	2.99
441.523	3.08
441.727	3
441.931	3.05
442.135	3.08
442.339	3.19
442.543	3.25
442.748	3.19
442.952	3.27
443.156	3.33
443.36	3.33
443.564	3.34
443.768	3.27
443.972	3.37
444.176	3.45
444.38	3.41
444.584	3.31
444.788	3.25
444.992	3.23
445.196	3.26
445.4	3.11
445.604	3.14
445.808	3.09
446.012	3.09
446.216	3.03
446.42	3.01
446.624	3
446.828	3.03
447.032	3.03
447.235	3
447.439	2.88
447.643	2.94
447.847	2.93
448.051	2.96
448.254	2.98
448.458	3.02
448.662	2.97
448.866	2.95
449.069	2.95
449.273	3.09
449.477	3.22
449.681	3.3
449.884	3.34
450.088	3.33
450.292	3.15
450.495	3.09
450.699	3.07
450.902	3.02
451.106	3.01
451.31	2.99
451.513	2.87
451.717	2.84
451.92	2.82
452.124	2.86
452.327	2.94
452.531	3.18
452.734	3.23
452.938	3.26
453.141	3.27
453.345	3.34
453.548	3.24
453.752	3.33
453.955	3.25
454.158	3.24
454.362	3.18
454.565	3.07
454.769	2.93
454.972	2.91
455.175	2.83
455.379	2.84
455.582	2.84
455.785	2.94
455.988	2.92
456.192	2.95
456.395	3.02
456.598	3.03
456.801	3.04
457.005	3.08
457.208	3.1
457.411	3.17
457.614	3.17
457.817	3.14
458.021	3.19
458.224	3.09
458.427	3.12
458.63	3.06
458.833	3.06
459.036	3.06
459.239	3.05
459.442	3.01
459.645	2.97
459.848	3.02
460.051	2.98
460.254	2.97
460.457	3.04
460.66	3.05
460.863	3.08
461.066	3.15
461.269	3.14
461.472	3.19
461.675	3.26
461.878	3.25
462.081	3.15
462.284	3.22
462.486	3.32
462.689	3.27
462.892	3.13
463.095	3.24
463.298	3.1
463.5	3.22
463.703	3.09
463.906	3.09
464.109	3.12
464.311	3.19
464.514	3.32
464.717	3.34
464.92	3.41
465.122	3.51
465.325	3.49
465.528	3.55
465.73	3.43
465.933	3.46
466.135	3.54
466.338	3.55
466.541	3.54
466.743	3.31
466.946	3.17
467.148	3.09
467.351	3.14
467.553	3.04
467.756	3.02
467.958	3.06
468.161	3.16
468.363	3.12
468.566	2.97
468.768	2.86
468.971	2.9
469.173	2.92
469.375	2.94
469.578	2.89
469.78	2.9
469.983	2.83
470.185	2.67
470.387	2.69
470.59	2.67
470.792	2.76
470.994	2.92
471.196	2.99
471.399	2.93
471.601	2.94
471.803	2.88
472.005	2.91
472.208	3.05
472.41	3.19
472.612	3.06
472.814	3.03
473.016	3.14
473.218	3.24
473.421	3.19
473.623	3.27
473.825	3.32
474.027	3.35
474.229	3.42
474.431	3.42
474.633	3.43
474.835	3.44
475.037	3.43
475.239	3.33
475.441	3.17
475.643	3.1
475.845	3.07
476.047	3.05
476.249	3.06
476.451	2.97
476.653	2.9
476.855	2.84
477.057	2.78
477.258	2.81
477.46	2.84
477.662	2.84
477.864	2.92
478.066	2.88
478.268	2.89
478.469	2.89
478.671	2.86
478.873	2.84
479.075	2.91
479.276	2.95
479.478	2.9
479.68	2.98
479.882	2.94
480.083	2.93
480.285	2.95
480.487	2.97
480.688	2.96
480.89	2.98
481.091	2.98
481.293	2.94
481.495	2.96
481.696	2.97
481.898	2.94
482.099	2.96
482.301	2.98
482.502	2.98
482.704	2.95
482.905	2.94
483.107	2.92
483.308	2.92
483.51	2.92
483.711	2.92
483.913	2.92
484.114	2.95
484.315	2.9
484.517	2.88
484.718	2.88
484.92	2.89
485.121	2.92
485.322	2.94
485.524	2.95
485.725	2.94
485.926	2.93
486.127	2.92
486.329	2.91
486.53	2.94
486.731	2.92
486.932	2.91
487.134	2.9
487.335	2.88
487.536	2.87
487.737	2.87
487.938	2.82
488.139	2.86
488.341	2.87
488.542	2.86
488.743	2.82
488.944	2.88
489.145	2.85
489.346	2.87
489.547	2.86
489.748	2.89
489.949	2.91
490.15	3
490.351	2.98
490.552	3
490.753	2.98
490.954	3.01
491.155	2.99
491.356	3
491.557	3.01
491.758	3.04
491.959	3.06
492.159	3.05
492.36	3.02
492.561	3.03
492.762	2.98
492.963	2.97
493.164	2.97
493.364	2.94
493.565	2.82
493.766	2.86
493.967	2.82
494.167	2.76
494.368	2.74
494.569	2.76
494.769	2.74
494.97	2.72
495.171	2.69
495.371	2.72
495.572	2.77
495.773	2.86
495.973	2.85
496.174	2.93
496.375	2.98
496.575	3.04
496.776	3.05
496.976	3.01
497.177	3.12
497.377	3.16
497.578	3.17
497.778	3.21
497.979	3.32
498.179	3.36
498.38	3.34
498.58	3.33
498.78	3.3
498.981	3.31
499.181	3.41
499.382	3.33
499.582	3.37
499.782	3.43
499.983	3.48
500.183	3.41
500.383	3.36
500.584	3.38
500.784	3.39
500.984	3.47
501.184	3.45
501.385	3.42
501.585	3.47
501.785	3.43
501.985	3.34
502.185	3.23
502.386	3.25
502.586	3.2
502.786	3.21
502.986	3.23
503.186	3.2
503.386	3.21
503.586	3.17
503.786	3.14
503.987	3.12
504.187	3.13
504.387	3.17
504.587	3.21
504.787	3.3
504.987	3.21
505.187	3.2
505.387	3.18
505.587	3.09
505.786	3.18
505.986	3.15
506.186	3.13
506.386	3.24
506.586	3.26
506.786	3.19
506.986	3.17
507.186	3.28
507.386	3.26
507.585	3.25
507.785	3.3
507.985	3.23
508.185	3.29
508.384	3.37
508.584	3.26
508.784	3.28
508.984	3.35
509.183	3.37
509.383	3.33
509.583	3.31
509.782	3.38
509.982	3.39
510.182	3.43
510.381	3.41
510.581	3.36
510.781	3.4
510.98	3.43
511.18	3.49
511.379	3.49
511.579	3.43
511.778	3.4
511.978	3.31
512.177	3.29
512.377	3.33
512.576	3.26
512.776	3.28
512.975	3.28
513.175	3.19
513.374	3.16
513.573	3.18
513.773	3.23
513.972	3.23
514.172	3.23
514.371	3.31
514.57	3.26
514.77	3.29
514.969	3.29
515.168	3.26
515.367	3.3
515.567	3.18
515.766	3.17
515.965	3.23
516.164	3.3
516.364	3.32
516.563	3.25
516.762	3.23
516.961	3.23
517.16	3.33
517.359	3.36
517.559	3.36
517.758	3.39
517.957	3.38
518.156	3.3
518.355	3.26
518.554	3.22
518.753	3.26
518.952	3.28
519.151	3.3
519.35	3.22
519.549	3.21
519.748	3.17
519.947	3.18
520.146	3.22
520.345	3.25
520.544	3.24
520.743	3.29
520.942	3.29
521.141	3.39
521.339	3.41
521.538	3.43
521.737	3.43
521.936	3.45
522.135	3.41
522.333	3.33
522.532	3.41
522.731	3.47
522.93	3.46
523.129	3.46
523.327	3.43
523.526	3.46
523.725	3.46
523.923	3.5
524.122	3.48
524.321	3.59
524.519	3.66
524.718	3.63
524.917	3.65
525.115	3.66
525.314	3.63
525.512	3.66
525.711	3.64
525.909	3.64
526.108	3.61
526.306	3.64
526.505	3.58
526.703	3.57
526.902	3.54
527.1	3.53
527.299	3.52
527.497	3.51
527.696	3.49
527.894	3.51
528.092	3.53
528.291	3.57
528.489	3.6
528.688	3.63
528.886	3.62
529.084	3.68
529.283	3.68
529.481	3.74
529.679	3.78
529.877	3.79
530.076	3.84
530.274	3.83
530.472	3.8
530.67	3.78
530.869	3.76
531.067	3.74
531.265	3.73
531.463	3.77
531.661	3.75
531.859	3.79
532.057	3.8
532.255	3.78
532.454	3.78
532.652	3.76
532.85	3.79
533.048	3.85
533.246	3.87
533.444	3.92
533.642	3.94
533.84	3.97
534.038	4.03
534.236	4.07
534.434	4.06
534.632	4.11
534.83	4.17
535.027	4.2
535.225	4.16
535.423	4.19
535.621	4.14
535.819	4.12
536.017	4.12
536.215	4.05
536.412	4.02
536.61	4.03
536.808	4.04
537.006	3.98
537.203	3.99
537.401	4.01
537.599	4.1
537.797	4.15
537.994	4.21
538.192	4.21
538.39	4.24
538.587	4.32
538.785	4.38
538.983	4.39
539.18	4.49
539.378	4.4
539.575	4.43
539.773	4.39
539.97	4.42
540.168	4.44
540.366	4.48
540.563	4.52
540.761	4.5
540.958	4.52
541.155	4.5
541.353	4.54
541.55	4.64
541.748	4.66
541.945	4.71
542.143	4.72
542.34	4.75
542.537	4.78
542.735	4.79
542.932	4.84
543.129	4.85
543.327	4.97
543.524	4.93
543.721	4.84
543.919	4.84
544.116	4.88
544.313	4.89
544.51	4.84
544.708	4.83
544.905	4.87
545.102	4.97
545.299	5.02
545.496	5.01
545.693	5.05
545.891	5.19
546.088	5.22
546.285	5.24
546.482	5.26
546.679	5.32
546.876	5.32
547.073	5.41
547.27	5.36
547.467	5.37
547.664	5.43
547.861	5.49
548.058	5.55
548.255	5.64
548.452	5.74
548.649	5.91
548.846	5.98
549.043	6.06
549.24	6.07
549.437	6.1
549.633	6.02
549.83	5.98
550.027	5.93
550.224	5.92
550.421	5.92
550.618	5.89
550.814	5.84
551.011	5.89
551.208	5.93
551.405	5.88
551.601	5.93
551.798	5.99
551.995	6.08
552.191	6.18
552.388	6.21
552.585	6.27
552.781	6.26
552.978	6.19
553.175	6.2
553.371	6.24
553.568	6.38
553.764	6.5
553.961	6.54
554.157	6.45
554.354	6.46
554.55	6.55
554.747	6.62
554.943	6.82
555.14	7.02
555.336	7.04
555.533	7.17
555.729	7.18
555.926	7.16
556.122	7.32
556.318	7.5
556.515	7.57
556.711	7.45
556.907	7.52
557.104	7.39
557.3	7.45
557.496	7.57
557.693	7.55
557.889	7.58
558.085	7.6
558.281	7.59
558.478	7.57
558.674	7.51
558.87	7.68
559.066	7.6
559.262	7.73
559.459	7.72
559.655	7.81
559.851	7.71
560.047	7.77
560.243	7.78
560.439	7.78
560.635	7.8
560.831	7.9
561.027	7.91
561.223	7.93
561.419	7.92
561.615	7.97
561.811	8
562.007	8.18
562.203	8.14
562.399	8.23
562.595	8.31
562.791	8.44
562.987	8.64
563.183	8.74
563.379	8.78
563.575	8.82
563.771	8.69
563.966	8.59
564.162	8.69
564.358	8.7
564.554	8.71
564.75	8.69
564.945	8.72
565.141	8.67
565.337	8.71
565.533	8.78
565.728	8.86
565.924	9.01
566.12	9.1
566.315	9.03
566.511	9.12
566.707	9.25
566.902	9.33
567.098	9.36
567.293	9.41
567.489	9.43
567.684	9.42
567.88	9.42
568.076	9.44
568.271	9.54
568.467	9.69
568.662	9.83
568.858	9.82
569.053	9.84
569.248	9.83
569.444	9.94
569.639	9.97
569.835	10.09
570.03	10.06
570.225	10.06
570.421	10.01
570.616	9.96
570.812	9.86
571.007	9.84
571.202	9.88
571.397	9.95
571.593	9.92
571.788	9.99
571.983	9.94
572.178	10.05
572.374	10.25
572.569	10.3
572.764	10.36
572.959	10.5
573.154	10.57
573.35	10.62
573.545	10.69
573.74	10.71
573.935	10.64
574.13	10.69
574.325	10.71
574.52	10.62
574.715	10.77
574.91	10.81
575.105	10.86
575.3	10.93
575.495	10.93
575.69	10.92
575.885	11
576.08	11.14
576.275	11.29
576.47	11.35
576.665	11.43
576.86	11.44
577.055	11.47
577.25	11.46
577.444	11.58
577.639	11.69
577.834	11.71
578.029	11.74
578.224	11.68
578.418	11.64
578.613	11.69
578.808	11.66
579.003	11.57
579.197	11.69
579.392	11.64
579.587	11.64
579.781	11.68
579.976	11.75
580.171	11.66
580.365	11.69
580.56	11.85
580.755	11.79
580.949	11.89
581.144	11.88
581.338	12
581.533	12.16
581.727	12.22
581.922	12.28
582.116	12.32
582.311	12.48
582.505	12.55
582.7	12.58
582.894	12.66
583.089	12.75
583.283	12.95
583.478	12.84
583.672	12.93
583.866	12.82
584.061	12.87
584.255	12.91
584.449	12.91
584.644	13.04
584.838	13.06
585.032	13.09
585.226	12.96
585.421	12.78
585.615	12.73
585.809	12.59
586.003	12.73
586.198	12.68
586.392	12.7
586.586	12.72
586.78	12.67
586.974	12.63
587.168	12.58
587.363	12.62
587.557	12.81
587.751	12.89
587.945	12.93
588.139	12.95
588.333	12.98
588.527	13
588.721	13.04
588.915	13.23
589.109	13.32
589.303	13.34
589.497	13.48
589.691	13.4
589.885	13.42
590.079	13.43
590.273	13.22
590.466	13.22
590.66	13.15
590.854	13.21
591.048	13.19
591.242	13.05
591.436	13
591.629	12.97
591.823	13.1
592.017	13.26
592.211	13.16
592.404	13.35
592.598	13.5
592.792	13.47
592.986	13.39
593.179	13.32
593.373	13.37
593.567	13.56
593.76	13.38
593.954	13.29
594.147	13.34
594.341	13.48
594.535	13.47
594.728	13.38
594.922	13.49
595.115	13.46
595.309	13.49
595.502	13.49
595.696	13.58
595.889	13.69
596.083	13.76
596.276	13.62
596.47	13.68
596.663	13.63
596.856	13.62
597.05	13.61
597.243	13.68
597.437	13.64
597.63	13.65
597.823	13.47
598.017	13.46
598.21	13.34
598.403	13.42
598.596	13.35
598.79	13.47
598.983	13.53
599.176	13.53
599.369	13.57
599.563	13.53
599.756	13.54
599.949	13.62
600.142	13.71
600.335	13.83
600.528	13.8
600.722	13.87
600.915	13.97
601.108	13.84
601.301	13.93
601.494	13.93
601.687	14.08
601.88	14.06
602.073	14.13
602.266	14.18
602.459	14.18
602.652	14
602.845	13.97
603.038	13.92
603.231	14.09
603.424	13.99
603.617	14
603.809	13.83
604.002	13.84
604.195	13.74
604.388	13.63
604.581	13.63
604.774	13.89
604.966	13.72
605.159	13.71
605.352	13.64
605.545	13.66
605.737	13.49
605.93	13.72
606.123	13.58
606.316	13.6
606.508	13.63
606.701	13.7
606.894	13.58
607.086	13.87
607.279	13.91
607.471	13.93
607.664	14.05
607.857	14.31
608.049	14.21
608.242	14.38
608.434	14.38
608.627	14.43
608.819	14.32
609.012	14.38
609.204	14.29
609.397	14.34
609.589	14.31
609.782	14.37
609.974	14.38
610.166	14.4
610.359	14.48
610.551	14.58
610.743	14.59
610.936	14.76
611.128	14.89
611.32	14.91
611.513	14.87
611.705	14.82
611.897	14.69
612.09	14.65
612.282	14.65
612.474	14.64
612.666	14.78
612.858	14.97
613.051	15.07
613.243	15.11
613.435	15.02
613.627	15.08
613.819	15.08
614.011	15.24
614.203	15.35
614.395	15.34
614.588	15.27
614.78	15.17
614.972	14.97
615.164	14.83
615.356	14.64
615.548	14.49
615.74	14.56
615.932	14.56
616.124	14.49
616.315	14.53
616.507	14.82
616.699	14.9
616.891	14.77
617.083	14.85
617.275	14.88
617.467	14.92
617.659	15.34
617.85	15.32
618.042	15.49
618.234	15.69
618.426	15.44
618.618	15.12
618.809	14.99
619.001	15.18
619.193	15.26
619.384	15.25
619.576	15.16
619.768	15.02
619.959	14.96
620.151	14.73
620.343	14.39
620.534	14.36
620.726	14.3
620.917	14.48
621.109	14.31
621.301	14.22
621.492	14.17
621.684	14.42
621.875	14.31
622.067	14.42
622.258	14.58
622.45	14.66
622.641	14.71
622.832	14.95
623.024	14.86
623.215	14.84
623.407	14.8
623.598	14.76
623.789	14.63
623.981	14.66
624.172	14.4
624.363	14.58
624.555	14.65
624.746	14.68
624.937	14.7
625.129	14.76
625.32	14.83
625.511	14.91
625.702	14.93
625.893	14.93
626.085	14.99
626.276	15.02
626.467	14.97
626.658	14.83
626.849	14.77
627.04	14.67
627.231	14.64
627.422	14.65
627.614	14.54
627.805	14.36
627.996	14.32
628.187	14.33
628.378	14.35
628.569	14.14
628.76	14.23
628.951	14.37
629.142	14.24
629.332	14.21
629.523	14.33
629.714	14.47
629.905	14.84
630.096	14.92
630.287	14.81
630.478	14.72
630.669	14.85
630.859	14.94
631.05	14.91
631.241	15.2
631.432	15.18
631.623	14.89
631.813	14.73
632.004	14.58
632.195	14.54
632.385	14.52
632.576	14.53
632.767	14.45
632.957	14.51
633.148	14.52
633.339	14.44
633.529	14.54
633.72	14.69
633.91	14.77
634.101	14.69
634.292	14.8
634.482	14.89
634.673	15.2
634.863	15.21
635.054	15.1
635.244	15.03
635.435	14.98
635.625	14.94
635.815	14.88
636.006	14.92
636.196	15.19
636.387	14.85
636.577	14.84
636.767	14.73
636.958	14.7
637.148	14.72
637.338	14.77
637.529	14.52
637.719	14.61
637.909	14.79
638.099	14.79
638.29	14.57
638.48	15
638.67	15.07
638.86	15.11
639.05	15.2
639.241	15.27
639.431	15.26
639.621	15.45
639.811	15.52
640.001	15.54
640.191	15.46
640.381	15.5
640.571	15.28
640.761	15.28
640.951	15.25
641.141	15.13
641.331	15.12
641.521	15.11
641.711	15.19
641.901	14.98
642.091	14.89
642.281	14.94
642.471	14.97
642.661	15.26
642.851	15.21
643.041	15.29
643.231	15.43
643.42	15.26
643.61	15.6
643.8	15.64
643.99	15.66
644.18	15.64
644.369	15.66
644.559	15.73
644.749	15.54
644.939	15.41
645.128	15.34
645.318	15.35
645.508	15.38
645.697	15.08
645.887	15.03
646.076	15.29
646.266	15.14
646.456	15.08
646.645	15.18
646.835	15.09
647.024	15.25
647.214	15.16
647.403	15.17
647.593	15.04
647.782	14.96
647.972	14.89
648.161	14.87
648.351	15.01
648.54	15.22
648.73	14.93
648.919	15.09
649.108	14.98
649.298	15.02
649.487	14.82
649.677	15.12
649.866	15.16
650.055	15.33
650.244	15.25
650.434	15.29
650.623	15.21
650.812	15.33
651.002	15.24
651.191	15.44
651.38	15.68
651.569	15.97
651.758	15.97
651.947	16.29
652.137	16.26
652.326	16.08
652.515	16.16
652.704	16
652.893	16
653.082	15.88
653.271	16.13
653.46	16.09
653.649	16.19
653.838	16.26
654.027	15.86
654.216	15.82
654.405	16.07
654.594	15.88
654.783	16.09
654.972	16.27
655.161	16.65
655.35	16.41
655.539	16.25
655.728	16.41
655.916	16.13
656.105	16.26
656.294	16.32
656.483	16.15
656.672	16.29
656.86	16.11
657.049	16.04
657.238	15.82
657.427	15.74
657.615	15.78
657.804	15.41
657.993	15.54
658.181	15.58
658.37	15.59
658.559	15.65
658.747	15.57
658.936	15.62
659.125	15.46
659.313	15.7
659.502	15.65
659.69	15.52
659.879	15.59
660.067	15.7
660.256	15.52
660.444	15.62
660.633	15.74
660.821	15.7
661.01	15.84
661.198	15.94
661.387	15.63
661.575	15.46
661.763	15.72
661.952	15.94
662.14	15.85
662.328	16.06
662.517	16.29
662.705	15.79
662.893	16.05
663.082	15.8
663.27	15.79
663.458	15.67
663.646	16.09
663.834	16.27
664.023	15.95
664.211	16.06
664.399	16.08
664.587	15.81
664.775	16.4
664.963	16.28
665.152	16.48
665.34	16.65
665.528	16.67
665.716	16.42
665.904	16.09
666.092	16.29
666.28	15.99
666.468	16.07
666.656	15.92
666.844	15.73
667.032	16.04
667.22	15.96
667.408	15.99
667.596	16.16
667.784	16.06
667.971	16.25
668.159	16.2
668.347	16.2
668.535	16.13
668.723	16.14
668.911	16.03
669.098	15.79
669.286	15.68
669.474	15.45
669.662	15.46
669.849	15.67
670.037	15.52
670.225	15.65
670.413	15.56
670.6	15.36
670.788	15.52
670.976	15.8
671.163	15.87
671.351	15.94
671.538	15.96
671.726	15.95
671.913	15.83
672.101	15.77
672.289	15.82
672.476	15.92
672.664	16.2
672.851	16.08
673.039	15.96
673.226	15.93
673.413	16.03
673.601	16.28
673.788	16.47
673.976	16.38
674.163	16.33
674.35	16.22
674.538	16.37
674.725	16.22
674.912	16.02
675.1	16.06
675.287	16.05
675.474	16.18
675.662	16.46
675.849	16.41
676.036	16.63
676.223	16.81
676.411	17.03
676.598	16.76
676.785	16.66
676.972	16.59
677.159	16.58
677.346	16.35
677.533	16.24
677.721	16.06
677.908	15.95
678.095	15.94
678.282	16.06
678.469	15.94
678.656	16.08
678.843	16.32
679.03	16.54
679.217	16.67
679.404	16.87
679.591	16.84
679.778	16.72
679.964	16.79
680.151	16.83
680.338	16.75
680.525	16.38
680.712	16.47
680.899	16.3
681.086	16.61
681.272	16.31
681.459	16.16
681.646	16.36
681.833	16.23
682.02	16.22
682.206	16.16
682.393	16.1
682.58	16.5
682.766	16.64
682.953	16.94
683.14	16.38
683.326	16.72
683.513	16.9
683.7	16.78
683.886	16.88
684.073	16.83
684.259	16.74
684.446	17.02
684.632	17.09
684.819	16.82
685.005	16.62
685.192	16.9
685.378	16.95
685.565	17.03
685.751	16.92
685.938	16.98
686.124	16.87
686.31	16.87
686.497	16.38
686.683	16.21
686.87	16.41
687.056	16.16
687.242	16.15
687.429	15.84
687.615	15.82
687.801	16.1
687.987	16.17
688.174	16.42
688.36	16.72
688.546	17.07
688.732	16.92
688.918	16.51
689.105	16.53
689.291	16.45
689.477	16.66
689.663	16.47
689.849	16.21
690.035	16.17
690.221	16.06
690.407	16.12
690.593	15.86
690.779	15.91
690.965	16.27
691.151	16.56
691.337	16.73
691.523	16.52
691.709	16.87
691.895	17.08
692.081	16.95
692.267	16.95
692.453	17.05
692.639	17.07
692.825	17.02
693.011	16.82
693.196	16.8
693.382	16.62
693.568	16.77
693.754	16.82
693.94	16.48
694.125	16.81
694.311	16.93
694.497	16.45
694.682	16.6
694.868	16.87
695.054	17.11
695.239	17.11
695.425	17.19
695.611	17.32
695.796	16.99
695.982	17.16
696.168	16.74
696.353	16.5
696.539	16.75
696.724	16.28
696.91	16.12
697.095	16.36
697.281	16.43
697.466	16.25
697.652	16.01
697.837	16.15
698.023	16.01
698.208	15.96
698.393	16.08
698.579	15.98
698.764	16.14
698.949	16.18
699.135	15.97
699.32	15.89
699.505	16.21
699.691	16.12
699.876	16.01
700.061	16.13
700.246	16.22
700.432	16.43
700.617	16.5
700.802	16.79
700.987	17.03
701.172	17.2
701.358	17.16
701.543	17.32
701.728	17.96
701.913	18.01
702.098	18.24
702.283	18.35
702.468	17.99
702.653	18.01
702.838	18.05
703.023	18.3
703.208	17.9
703.393	17.66
703.578	17.3
703.763	17.16
703.948	17.28
704.133	16.85
704.318	16.76
704.503	16.73
704.688	16.91
704.873	16.77
705.057	16.44
705.242	16.79
705.427	17.06
705.612	17.37
705.797	17.44
705.981	17.39
706.166	17.77
706.351	18.06
706.536	18.27
706.72	18.07
706.905	18.27
707.09	17.92
707.274	17.53
707.459	17.88
707.644	17.69
707.828	17.81
708.013	17.66
708.197	17.48
708.382	18
708.567	17.81
708.751	17.81
708.936	17.8
709.12	17.99
709.305	18.08
709.489	17.81
709.673	17.63
709.858	17.1
710.042	16.95
710.227	17.34
710.411	16.77
710.596	16.96
710.78	17.07
710.964	16.91
711.149	17.4
711.333	17.73
711.517	17.4
711.702	17.63
711.886	17.63
712.07	17.59
712.254	17.28
712.438	17.18
712.623	17.12
712.807	16.73
712.991	16.79
713.175	16.26
713.359	16
713.544	16.29
713.728	16.18
713.912	16.14
714.096	16.51
714.28	16.51
714.464	16.65
714.648	17.01
714.832	17.11
715.016	16.85
715.2	16.91
715.384	17.21
715.568	17.25
715.752	17.3
715.936	17.53
716.12	17.25
716.304	17.19
716.488	16.94
716.671	16.64
716.855	16.99
717.039	17.27
717.223	17.5
717.407	17.22
717.59	17.14
717.774	17.23
717.958	17.24
718.142	17.73
718.325	17.95
718.509	18.15
718.693	17.88
718.877	17.48
719.06	17.82
719.244	17.59
719.428	17.5
719.611	17.87
719.795	18.19
719.978	18.03
720.162	17.54
720.345	17.52
720.529	17.8
720.713	18.18
720.896	18.27
721.08	17.77
721.263	17.57
721.446	17.91
721.63	17.37
721.813	16.43
721.997	16.54
722.18	16.41
722.364	16.51
722.547	15.88
722.73	15.46
722.914	15.71
723.097	16.21
723.28	16.6
723.464	16.4
723.647	17.02
723.83	17.56
724.013	17.87
724.197	18.11
724.38	17.93
724.563	18.19
724.746	18.35
724.929	18.28
725.112	18.22
725.296	18.04
725.479	18.34
725.662	18.05
725.845	18.05
726.028	17
726.211	17.2
726.394	17.19
726.577	17.55
726.76	17.6
726.943	18.1
727.126	17.84
727.309	17.61
727.492	17.33
727.675	17.46
727.858	16.87
728.041	17.65
728.224	17.58
728.407	17.26
728.589	17.14
728.772	16.7
728.955	16.26
729.138	16.37
729.321	16.5
729.503	16.67
729.686	16.94
729.869	17.45
730.052	17.67
730.234	17.66
730.417	18.3
730.6	18.03
730.782	18.52
730.965	17.95
731.148	17.92
731.33	18.46
731.513	18.46
731.695	18.31
731.878	18.43
732.061	18.06
732.243	18.13
732.426	17.74
732.608	18.03
732.791	18.22
732.973	18.57
733.156	18.25
733.338	18.02
733.52	17.91
733.703	17.7
733.885	17.09
734.068	16.95
734.25	17.01
734.432	17.11
734.615	16.91
734.797	16.25
734.979	16.32
735.162	16.34
735.344	16.39
735.526	16.07
735.708	15.98
735.891	16.24
736.073	16.54
736.255	16.16
736.437	15.81
736.619	16.09
736.802	16.62
736.984	16.63
737.166	16.57
737.348	16.96
737.53	17.2
737.712	17.37
737.894	17.6
738.076	17.38
738.258	17.68
738.44	17.91
738.622	17.76
738.804	17.65
738.986	17.88
739.168	18.17
739.35	17.67
739.532	17.54
739.714	17.84
739.896	17.5
740.078	18.54
740.259	18.02
740.441	18.63
740.623	18.94
740.805	19.19
740.987	18.77
741.168	18.77
741.35	18.51
741.532	18.55
741.714	18.41
741.895	18.51
742.077	17.35
742.259	17.83
742.44	17.41
742.622	17.43
742.804	17.48
742.985	17.73
743.167	17.78
743.348	18.67
743.53	19.05
743.711	18.8
743.893	19.26
744.075	19.73
744.256	19.43
744.438	20.08
744.619	19.16
744.8	18.94
744.982	19.44
745.163	19.95
745.345	20.19
745.526	20.1
745.707	20.54
745.889	20.43
746.07	20.43
746.252	20.64
746.433	20.06
746.614	20.89
746.795	20.4
746.977	19.99
747.158	19.99
747.339	19
747.52	19.23
747.702	18.73
747.883	18.92
748.064	18.83
748.245	18.72
748.426	18.15
748.607	17.96
748.788	17.87
748.97	17.89
749.151	17.52
749.332	17.45
749.513	17.03
749.694	16.13
749.875	15.2
750.056	15.55
750.237	15.57
750.418	16.05
750.599	15.4
750.78	15.52
750.96	15.39
751.141	15.66
751.322	15.69
751.503	15.78
751.684	16.95
751.865	17.2
752.046	17.06
752.226	17.14
752.407	17.41
752.588	17.86
752.769	18.05
752.949	17.96
753.13	17.49
753.311	17.17
753.492	16.66
753.672	16.95
753.853	17
754.034	16.96
754.214	17.55
754.395	17.62
754.575	18.37
754.756	18.27
754.937	18.54
755.117	18.63
755.298	19.02
755.478	19.4
755.659	18.72
755.839	19.25
756.02	18.85
756.2	17.76
756.381	16.84
756.561	15.91
756.741	16.48
756.922	16.24
757.102	15.78
757.283	16.33
757.463	16.76
757.643	16.73
757.823	16.74
758.004	16.82
758.184	16.92
758.364	17.37
758.545	17.28
758.725	16.92
758.905	17.55
759.085	18.3
759.265	17.57
759.446	17.3
759.626	17.83
759.806	17.66
759.986	18.09
760.166	18.37
760.346	18.64
760.526	19.28
760.706	19.05
760.886	19.01
761.066	19.31
761.246	20.16
761.426	20.05
761.606	19.24
761.786	19.17
761.966	18.88
762.146	19.23
762.326	19.52
762.506	19.26
762.686	19.29
762.866	18.88
763.046	18.76
763.225	18.09
763.405	17.98
763.585	18
763.765	18.1
763.945	18.08
764.124	17.31
764.304	17.35
764.484	17.48
764.664	17.34
764.843	17.28
765.023	16.81
765.203	16.8
765.382	17.3
765.562	17.68
765.741	16.83
765.921	16.95
766.101	17.65
766.28	17.14
766.46	16.73
766.639	17.08
766.819	17.88
766.998	18.14
767.178	17.7
767.357	17.66
767.537	18.05
767.716	18.71
767.896	18.88
768.075	18.96
768.254	18.73
768.434	19.99
768.613	20.24
768.792	19.76
768.972	20.23
769.151	20.49
769.33	20.39
769.51	19.92
769.689	20.26
769.868	20.21
770.047	20.27
770.226	20.11
770.406	18.72
770.585	18.37
770.764	18.17
770.943	17.77
771.122	18.38
771.301	18.15
771.48	17.9
771.66	17.96
771.839	17.39
772.018	16.47
772.197	16.47
772.376	16.94
772.555	17.07
772.734	17.51
772.913	16.66
773.092	17.64
773.271	17.36
773.449	17.53
773.628	17.06
773.807	16.8
773.986	17.38
774.165	17.76
774.344	18.58
774.523	19.56
774.701	19.59
774.88	19.93
775.059	18.45
775.238	18.93
775.417	19.85
775.595	20.07
775.774	20.85
775.953	20.74
776.131	20.96
776.31	19.43
776.489	18.21
776.667	17.9
776.846	18.41
777.025	18.77
777.203	18.7
777.382	17.62
777.56	18.21
777.739	17.97
777.917	19.03
778.096	19.46
778.274	19.66
778.453	20.06
778.631	19.87
778.81	19.58
778.988	20.64
779.166	20.14
779.345	20.04
779.523	19.9
779.702	19.81
779.88	19
780.058	17.65
780.237	19.03
780.415	18.27
780.593	18.33
780.771	18.37
780.95	18.68
781.128	19.13
781.306	19.72
781.484	19.56
781.662	19.84
781.841	19.56
782.019	19.78
782.197	18.78
782.375	20.02
782.553	20.07
782.731	20.46
782.909	19.7
783.087	20.37
783.265	20.74
783.443	20.96
783.621	21.19
783.799	21.49
783.977	21.89
784.155	21.15
784.333	20.52
784.511	20.87
784.689	19.73
784.867	18.69
785.045	17.78
785.223	17.15
785.4	16.99
785.578	16.79
785.756	17.58
785.934	17.61
786.112	18.73
786.289	19.84
786.467	19.5
786.645	20.61
786.823	20.86
787	21.16
787.178	21.27
787.356	21.74
787.533	21.27
787.711	21
787.889	20.72
788.066	20.33
788.244	20.03
788.421	20.37
788.599	19.74
788.776	20.08
788.954	19.86
789.131	19.72
789.309	18.62
789.486	19.27
789.664	19.17
789.841	20.34
790.019	20.96
790.196	20.38
790.373	19.97
790.551	21
790.728	20.68
790.906	21.43
791.083	22.03
791.26	22.52
791.437	22.37
791.615	22.57
791.792	20.63
791.969	19.84
792.146	19.77
792.324	19.32
792.501	18.85
792.678	20.07
792.855	19.19
793.032	17.63
793.209	18.49
793.387	18.68
793.564	18.6
793.741	19.2
793.918	19
794.095	18.9
794.272	19.06
794.449	19.15
794.626	19.29
794.803	19.53
794.98	21.06
795.157	20.16
795.334	19.17
795.511	18.95
795.688	19.78
795.864	20.82
796.041	21.12
796.218	23.07
796.395	23.1
796.572	21.67
796.749	21.35
796.925	20.38
797.102	21.51
797.279	21.91
797.456	21.94
797.632	21.88
797.809	21.16
797.986	21.57
798.162	19.79
798.339	19.87
798.516	20.9
798.692	21.53
798.869	22
799.046	20.16
799.222	19.48
799.399	19.88
799.575	19.39
799.752	20.19
799.928	20.35
800.105	20
800.281	18.06
800.458	17.51
800.634	17.42
800.811	18
800.987	19.68
801.163	20.89
801.34	19.72
801.516	20.13
801.692	20.85
801.869	19.44
802.045	20.87
802.221	23.55
802.398	23.75
802.574	23.71
802.75	23.02
802.926	21.95
803.103	21.21
803.279	22.04
803.455	22.24
803.631	21.16
803.807	23.57
803.983	23.59
804.16	22.52
804.336	23.19
804.512	22.9
804.688	23.25
804.864	22.36
805.04	22.65
805.216	21.21
805.392	21
805.568	20.61
805.744	19.74
805.92	19.71
806.096	19.99
806.272	19.71
806.448	21.19
806.623	20.38
806.799	21.54
806.975	21.86
807.151	23.95
807.327	22.93
807.503	23.54
807.678	24.38
807.854	24.3
808.03	25.09
808.206	25.09
808.381	22.43
808.557	23.47
808.733	22.83
808.908	22.29
809.084	22.22
809.26	22.52
809.435	22.98
809.611	21.35
809.787	20.87
809.962	20.64
810.138	20.34
810.313	21.48
810.489	21.64
810.664	23.9
810.84	24.27
811.015	24.13
811.191	24.49
811.366	23.73
811.542	23.82
811.717	23.02
811.892	24.57
812.068	24.61
812.243	24.86
812.419	23.74
812.594	22.5
812.769	22.24
812.944	22.05
813.12	22.62
813.295	23.76
813.47	22.23
813.645	23.2
813.821	20.14
813.996	20.15
814.171	20.91
814.346	20.39
814.521	20.15
814.697	21.16
814.872	21.27
815.047	21.36
815.222	21.34
815.397	22.29
815.572	20.49
815.747	20.56
815.922	19.33
816.097	18.84
816.272	19.85
816.447	20.23
816.622	19.6
816.797	20.6
816.972	20.64
817.147	20.34
817.322	20.5
817.496	21.68
817.671	23.2
817.846	24.25
818.021	24.18
818.196	24.24
818.371	23.32
818.545	24.37
818.72	23.69
818.895	23.24
819.069	22.46
819.244	22.72
819.419	22.68
819.594	21.77
819.768	21.94
819.943	21.24
820.117	21.32
820.292	21.78
820.467	21.03
820.641	20.65
820.816	20.54
820.99	20.67
821.165	20.26
821.339	20.43
821.514	20.46
821.688	20.54
821.863	20.46
822.037	20.17
822.212	19.97
822.386	19.73
822.56	19.63
822.735	19.75
822.909	19.82
823.084	19.99
823.258	19.86
823.432	19.58
823.606	19.18
823.781	19.2
823.955	19.09
824.129	18.86
824.303	19.34
824.478	19.6
824.652	19.2
824.826	18.99
825	18.98
825.174	18.55
825.348	18.79
825.523	18.81
825.697	18.6
825.871	19.11
826.045	19.3
826.219	19.26
826.393	18.89
826.567	19.28
826.741	18.96
826.915	18.88
827.089	19.43
827.263	19.55
827.437	19.85
827.611	20.48
827.784	20.43
827.958	20.59
828.132	20.21
828.306	20.78
828.48	20.66
828.654	21.23
828.827	21.83
829.001	22.41
829.175	22.22
829.349	22.38
829.522	21.99
829.696	22.65
829.87	23.2
830.044	23.46
830.217	23.02
830.391	22.98
830.565	23.4
830.738	22.75
830.912	21.74
831.085	21.57
831.259	21.52
831.432	21.64
831.606	21.18
831.779	19.87
831.953	19.52
832.126	19.27
832.3	19.13
832.473	18.59
832.647	17.84
832.82	18.16
832.994	18.5
833.167	18.46
833.34	19.64
833.514	18.83
833.687	18.33
833.86	18.59
834.034	18.47
834.207	19.47
834.38	19.52
834.553	20.24
834.727	19.93
834.9	19.94
835.073	19.44
835.246	18.21
835.419	18.61
835.593	20.25
835.766	20.26
835.939	20.56
836.112	20.01
836.285	20.74
836.458	20.84
836.631	20.75
836.804	21.08
836.977	21.98
837.15	22.51
837.323	24.1
837.496	23.23
837.669	22.92
837.842	23.19
838.015	21.75
838.188	20.65
838.361	18.98
838.533	20
838.706	20.28
838.879	20.83
839.052	20.97
839.225	19.69
839.398	20.09
839.57	22.86
839.743	23.25
839.916	25.11
840.088	25.79
840.261	27.89
840.434	28.15
840.607	26.9
840.779	25
840.952	24.29
841.124	23.07
841.297	24.78
841.47	22.29
841.642	20.74
841.815	19.65
841.987	18.39
842.16	17.99
842.332	15.71
842.505	17.17
842.677	18.97
842.85	19.94
843.022	21.34
843.194	20.48
843.367	21.93
843.539	23.57
843.712	23.13
843.884	24.04
844.056	26.45
844.229	28.37
844.401	28.95
844.573	28.98
844.745	29.37
844.918	30.75
845.09	32.19
845.262	30.22
845.434	28.85
845.606	30.21
845.779	30.14
845.951	25.06
846.123	26.77
846.295	26.64
846.467	26.9
846.639	28.13
846.811	26.74
846.983	23.32
847.155	26.08
847.327	28.58
847.499	26.32
847.671	25.04
847.843	23.55
848.015	18.41
848.187	21.91
848.359	22.38
848.531	22.59
848.703	26.35
848.875	27.3
849.047	25.24
849.218	25.23
849.39	26.94
849.562	28.51
849.734	32.38
849.905	41.89
850.077	39.45
850.249	38.63
850.421	37.31
850.592	34.61
850.764	34.69
850.936	32.67
851.107	32.43
851.279	29.47
851.451	31.83
851.622	28.58
851.794	20.73
851.965	24.9
852.137	25.47
852.308	22.66
852.48	23.39
852.651	30.1
852.823	34.91
852.994	38.79
853.166	44.13
853.337	43.54
853.509	52.62
853.68	52.76
853.851	44.93
854.023	40.41
854.194	44.1
854.365	43.94
854.537	39.06
854.708	39.01
854.879	37.38
855.05	36.91
855.222	34.77
855.393	30.79
855.564	31.05
855.735	36.16
855.906	40.23
856.078	38.49
856.249	39.59
856.42	36.45
856.591	36.13
856.762	32.43
856.933	29.77
857.104	30.48
857.275	26.94
857.446	29.22
857.617	30.07
857.788	31.62
857.959	32.98
858.13	32.71
858.301	38.7
858.472	35.16
858.643	37.4
858.814	41.48
858.985	42.39
859.155	43.03
859.326	41.44
859.497	37.61
859.668	37.06
859.839	35.51
860.009	35.68
860.18	33.64
860.351	39.12
860.522	39.14
860.692	36.83
860.863	36.81
861.034	39.15
861.204	37.16
861.375	36.43
861.546	38.38
861.716	40.61
861.887	39.76
862.057	39.39
862.228	35.85
862.398	34.35
862.569	31.13
862.739	29.48
862.91	28.48
863.08	30.79
863.251	31.9
863.421	27.59
863.592	29.03
863.762	28.91
863.932	29.04
864.103	28.67
864.273	31.47
864.443	40.26
864.614	40.12
864.784	39.21
864.954	37.46
865.125	36.51
865.295	38.09
865.465	39.6
865.635	42.64
865.805	41.25
865.976	44.24
866.146	49.63
866.316	44.29
866.486	44.72
866.656	46.81
866.826	51.95
866.996	54.85
867.166	54.02
867.336	57.59
867.506	51.47
867.676	48.43
867.846	49.36
868.016	37.59
868.186	38.97
868.356	37.43
868.526	38.05
868.696	39.34
868.866	37.49
869.036	33.48
869.206	25.45
869.376	30.73
869.545	36.76
869.715	35.54
869.885	36.81
870.055	37.98
870.224	37.96
870.394	39.32
870.564	38.72
870.734	41.27
870.903	40.54
871.073	41.94
871.243	37.2
871.412	31.35
871.582	32.62
871.751	37.14
871.921	34.75
872.091	35.79
872.26	34.24
872.43	31.78
872.599	28.81
872.769	35.35
872.938	34.58
873.108	34.94
873.277	35.51
873.446	35.47
873.616	35.82
873.785	36.07
873.955	35.31
874.124	34.97
874.293	36.75
874.463	38.69
874.632	34.77
874.801	35.29
874.971	38.96
875.14	37.64
875.309	36.55
875.478	33.45
875.647	28.54
875.817	26.81
875.986	20.98
876.155	16.22
876.324	15.66
876.493	13.91
876.662	15.69
876.831	12.6
877	17.61
877.17	16.28
877.339	12.61
877.508	19.96
877.677	19.23
877.846	25.35
878.015	28.53
878.184	23.12
878.352	25.52
878.521	26.49
878.69	30
878.859	26.65
879.028	28.39
879.197	29.62
879.366	26.03
879.534	26.34
879.703	23.54
879.872	21.35
880.041	24
880.21	24.01
880.378	23.08
880.547	20.93
880.716	22.14
880.884	22.13
881.053	22.01
881.222	23.38
881.39	23.44
881.559	24.05
881.727	24.83
881.896	24.56
882.065	23.76
882.233	23.75
882.402	24.23
882.57	24.4
882.739	23.86
882.907	23.38
883.076	23.07
883.244	22.86
883.412	22.53
883.581	21.98
883.749	21.3
883.918	21.15
884.086	21.29
884.254	21.55
884.423	21.28
884.591	21.24
884.759	21.62
884.927	21.09
885.096	21.26
885.264	21.86
885.432	21.17
885.6	23.42
885.769	23.67
885.937	23.37
886.105	22.26
886.273	21.86
886.441	22.11
886.609	24.52
886.777	25.32
886.945	28.15
887.113	27.64
887.281	29.68
887.449	27.56
887.617	29.17
887.785	29.57
887.953	29.18
888.121	26.13
888.289	26.45
888.457	26.51
888.625	29.12
888.793	27.25
888.961	29.89
889.129	28.48
889.296	26.94
889.464	27.75
889.632	27.36
889.8	27.44
889.967	32.73
890.135	33.92
