Data from 2938533_Reflection_1.txt Node
Date: Tue Jun 16 00:02:43 EDT 2015
User: robert
Spectrometer: USB4E03002
Autoset integration time: false
Trigger mode: 4
Integration Time (sec): 1.000000E-1
Scans to average: 10
Electric dark correction enabled: true
Nonlinearity correction enabled: false
Boxcar width: 6
Stray light correction enabled: false
XAxis mode: Wavelengths
Stop averaging: false
Number of Pixels in Spectrum: 3648
>>>>>Begin Spectral Data<<<<<
177.575	-350.88
177.794	-239.47
178.014	-70.19
178.233	-62.76
178.452	-5.01
178.672	-50.9
178.891	-150
179.11	125.93
179.33	65.19
179.549	4.56
179.768	3.28
179.987	-42.69
180.207	-86.26
180.426	-158.02
180.645	-123.67
180.864	-53.66
181.084	-73.93
181.303	-157.81
181.522	-147.11
181.741	-123.6
181.96	-175.76
182.179	-61.61
182.398	-80.47
182.618	-25.78
182.837	274.07
183.056	-2057.14
183.275	-19.23
183.494	58.75
183.713	204.71
183.932	96.3
184.151	229.51
184.37	193.4
184.589	287.91
184.808	261.94
185.027	224.42
185.246	153.61
185.465	154.69
185.684	172.48
185.903	173.4
186.122	217.45
186.341	157.84
186.56	145.59
186.779	154.94
186.998	188.16
187.216	173.71
187.435	156.21
187.654	126.75
187.873	138.01
188.092	231.69
188.311	174.64
188.53	166.53
188.748	176.47
188.967	177.37
189.186	489.09
189.405	301.69
189.623	277.5
189.842	159.2
190.061	149
190.28	111.55
190.498	145.51
190.717	174.34
190.936	152.93
191.154	149.66
191.373	212.03
191.592	232.94
191.81	279.33
192.029	187.46
192.248	230.3
192.466	-1335
192.685	-533.33
192.904	195
193.122	381.82
193.341	82.11
193.559	69.77
193.778	94.87
193.996	164.52
194.215	37.3
194.433	10.49
194.652	56.07
194.87	-5.88
195.089	12.69
195.307	92.93
195.526	133.57
195.744	326.35
195.963	234.35
196.181	220.91
196.399	173.93
196.618	218.25
196.836	187.98
197.055	326.06
197.273	742.11
197.491	446.72
197.71	476.98
197.928	513.71
198.146	477.33
198.365	-269.57
198.583	-212.07
198.801	0.85
199.019	-27.75
199.238	-27.2
199.456	-87.95
199.674	-322.48
199.892	-102.33
200.111	-480.65
200.329	256.25
200.547	59.69
200.765	33.33
200.983	157.61
201.202	135.44
201.42	120.53
201.638	195.87
201.856	117.29
202.074	127.61
202.292	165.94
202.51	171.11
202.728	286.11
202.946	543.64
203.165	301.23
203.383	570.97
203.601	396.41
203.819	3172.22
204.037	442.86
204.255	602.04
204.473	209.96
204.691	-740
204.909	-202.3
205.127	0.81
205.345	-169.66
205.562	-204.76
205.78	-38.6
205.998	-34.52
206.216	-92.88
206.434	9.07
206.652	-59.1
206.87	12.55
207.088	32.74
207.306	27.61
207.523	-17.58
207.741	-30
207.959	79.02
208.177	76.36
208.395	18.18
208.612	42.1
208.83	-26.01
209.048	-54.78
209.266	-17.53
209.483	-23.84
209.701	1
209.919	19.61
210.136	27.87
210.354	28.67
210.572	13.4
210.79	1.73
211.007	-5.92
211.225	26.52
211.442	43.25
211.66	64.95
211.878	60.04
212.095	61.79
212.313	32.56
212.53	25.45
212.748	18.94
212.966	9.28
213.183	-19.73
213.401	9.23
213.618	-6.97
213.836	-11.26
214.053	-21.42
214.271	-34.97
214.488	-3.96
214.705	21.34
214.923	8.65
215.14	-3.92
215.358	0.19
215.575	10.27
215.793	6.64
216.01	23.14
216.227	13.37
216.445	24.19
216.662	26.53
216.879	32.55
217.097	20.51
217.314	-1.9
217.531	3.61
217.749	20.28
217.966	35.67
218.183	24.28
218.4	13.37
218.618	21.3
218.835	28.43
219.052	31.74
219.269	31.75
219.487	27.43
219.704	23.16
219.921	20.33
220.138	19.7
220.355	12.57
220.572	8.17
220.79	0.39
221.007	15.56
221.224	7.02
221.441	10.51
221.658	10.95
221.875	20.32
222.092	28.28
222.309	30.92
222.526	31.2
222.743	39.69
222.96	38.17
223.177	32.67
223.394	29.7
223.611	30.83
223.828	20.83
224.045	32.44
224.262	31.26
224.479	28.52
224.696	23.41
224.913	15.19
225.13	15.3
225.347	13.58
225.564	12
225.781	13.55
225.997	14.87
226.214	15.13
226.431	16.29
226.648	16.17
226.865	13.57
227.082	12.83
227.298	12.73
227.515	12.86
227.732	13.42
227.949	13.73
228.165	13.39
228.382	12.47
228.599	13.23
228.816	12.9
229.032	13.08
229.249	11.93
229.466	11.61
229.682	13.22
229.899	13.21
230.116	12.9
230.332	12.42
230.549	12.91
230.765	11.23
230.982	12.93
231.199	13.17
231.415	12.87
231.632	12.06
231.848	12.79
232.065	13.92
232.281	16.01
232.498	13.58
232.714	14.07
232.931	15.67
233.147	14.39
233.364	13.95
233.58	15.96
233.797	15.87
234.013	16.1
234.23	14.4
234.446	14.99
234.662	13.97
234.879	13.56
235.095	12.6
235.312	12.77
235.528	12.53
235.744	10.31
235.961	11.65
236.177	11.34
236.393	11.62
236.61	11.98
236.826	13.28
237.042	13.74
237.258	13.11
237.475	13.92
237.691	12.54
237.907	12.96
238.123	14.16
238.339	13.73
238.556	14.2
238.772	14.21
238.988	14.39
239.204	12.81
239.42	11.98
239.636	12.41
239.853	13.15
240.069	13.75
240.285	13.53
240.501	13.76
240.717	13.02
240.933	13.03
241.149	13.48
241.365	13.27
241.581	13
241.797	12.67
242.013	12.79
242.229	13.52
242.445	12.49
242.661	12.06
242.877	11.69
243.093	11.27
243.309	11.55
243.525	12.33
243.741	12.04
243.957	11.02
244.173	10.87
244.388	11.3
244.604	11.49
244.82	11.35
245.036	10.93
245.252	10.96
245.468	11.02
245.683	10.71
245.899	10.45
246.115	10.2
246.331	9.96
246.547	9.73
246.762	9.98
246.978	10.41
247.194	10.03
247.409	9.79
247.625	9.99
247.841	9.3
248.057	9.54
248.272	9.31
248.488	9.97
248.703	9.89
248.919	9.92
249.135	10.16
249.35	9.7
249.566	9.71
249.782	9.3
249.997	9.26
250.213	8.94
250.428	8.33
250.644	9.34
250.859	9.1
251.075	9.1
251.29	8.15
251.506	7.94
251.721	7.99
251.937	7.47
252.152	8.49
252.368	8.56
252.583	8.39
252.798	8.7
253.014	9.54
253.229	9.79
253.445	10.03
253.66	10.09
253.875	10.89
254.091	11.96
254.306	13.23
254.521	12.58
254.737	12.26
254.952	12.18
255.167	11.95
255.383	11.46
255.598	11.05
255.813	11.06
256.028	10.77
256.244	10.63
256.459	10.77
256.674	10.64
256.889	10.37
257.104	10.41
257.32	10.29
257.535	10.05
257.75	9.45
257.965	9.09
258.18	9.22
258.395	8.85
258.61	8.54
258.826	8.67
259.041	8.42
259.256	8.07
259.471	7.85
259.686	7.72
259.901	7.51
260.116	7.63
260.331	7.95
260.546	8.19
260.761	8.64
260.976	8.38
261.191	8.74
261.406	8.64
261.621	9.05
261.836	8.51
262.05	8.79
262.265	8.7
262.48	8.51
262.695	8.39
262.91	8.3
263.125	8.18
263.34	7.69
263.555	7.38
263.769	7.27
263.984	7.96
264.199	7.87
264.414	7.34
264.629	8.15
264.843	8.24
265.058	8.01
265.273	8.14
265.488	7.74
265.702	7.98
265.917	7.92
266.132	7.91
266.346	7.94
266.561	7.94
266.776	7.67
266.99	8.06
267.205	8.13
267.42	7.8
267.634	7.83
267.849	8.31
268.063	8.65
268.278	8.6
268.492	8.61
268.707	8.82
268.922	8.73
269.136	8.55
269.351	8.57
269.565	8.26
269.78	8.27
269.994	8.64
270.209	8.77
270.423	8.3
270.637	7.89
270.852	7.86
271.066	7.96
271.281	7.93
271.495	7.79
271.709	7.88
271.924	7.84
272.138	7.85
272.353	8.16
272.567	7.74
272.781	7.3
272.996	6.94
273.21	6.87
273.424	7.13
273.638	7.13
273.853	7.84
274.067	7.34
274.281	7.35
274.495	7.57
274.71	7.58
274.924	7.58
275.138	7.14
275.352	7.5
275.566	7.37
275.781	7.9
275.995	8.05
276.209	7.77
276.423	6.93
276.637	5.86
276.851	6.27
277.065	6.1
277.279	6.17
277.493	6.38
277.707	6.27
277.921	6.42
278.135	6.71
278.349	6.23
278.563	6.5
278.777	6.98
278.991	7.03
279.205	7.04
279.419	7.4
279.633	7.05
279.847	7.27
280.061	7.24
280.275	7.72
280.489	7.23
280.703	7.64
280.917	7.62
281.131	8.15
281.344	7.64
281.558	7.79
281.772	8.02
281.986	8.31
282.2	8.35
282.414	8.61
282.627	8.28
282.841	8.06
283.055	7.62
283.269	8.33
283.482	8.2
283.696	7.86
283.91	7.7
284.123	7.76
284.337	7.59
284.551	7.56
284.764	7.57
284.978	7.59
285.192	7.79
285.405	7.92
285.619	7.85
285.833	7.78
286.046	7.43
286.26	7.51
286.473	7.52
286.687	7.46
286.9	7.76
287.114	7.69
287.327	7.5
287.541	7.56
287.754	7.37
287.968	6.74
288.181	6.71
288.395	6.91
288.608	6.88
288.822	6.78
289.035	6.61
289.248	6.96
289.462	7.21
289.675	7.05
289.889	7.2
290.102	7.31
290.315	7.28
290.529	7.56
290.742	8.04
290.955	8.06
291.169	8.52
291.382	8.43
291.595	9.06
291.808	9.42
292.022	9.78
292.235	9.75
292.448	9.63
292.661	9.69
292.875	10.03
293.088	9.96
293.301	9.55
293.514	9.34
293.727	9.48
293.94	9.43
294.153	9.85
294.367	9.33
294.58	9.03
294.793	8.36
295.006	8.24
295.219	8.38
295.432	8.43
295.645	8.26
295.858	8.63
296.071	8.94
296.284	8.99
296.497	9
296.71	8.79
296.923	8.57
297.136	8.97
297.349	9.18
297.562	9.77
297.775	10
297.988	9.93
298.201	9.61
298.414	9.77
298.626	9.38
298.839	9.22
299.052	9.36
299.265	9.28
299.478	9.43
299.691	9.42
299.903	9.57
300.116	9.49
300.329	9.41
300.542	9.35
300.755	9.78
300.967	10.1
301.18	10.06
301.393	10.11
301.605	10.16
301.818	10.3
302.031	10.16
302.243	9.96
302.456	9.86
302.669	9.81
302.881	9.71
303.094	9.74
303.307	9.92
303.519	9.85
303.732	9.8
303.944	9.65
304.157	10.15
304.37	10.26
304.582	9.91
304.795	10.17
305.007	9.92
305.22	10.18
305.432	10.32
305.645	10.17
305.857	10.08
306.069	9.8
306.282	9.86
306.494	10.12
306.707	10.18
306.919	9.83
307.132	9.65
307.344	9.87
307.556	9.85
307.769	9.85
307.981	9.79
308.193	9.73
308.406	10.05
308.618	9.86
308.83	9.85
309.043	9.53
309.255	9.68
309.467	9.71
309.679	9.79
309.892	9.87
310.104	9.99
310.316	9.99
310.528	10.36
310.74	10.44
310.953	10.26
311.165	10.24
311.377	10.55
311.589	10.91
311.801	11.42
312.013	11.07
312.225	11.18
312.437	11.02
312.649	11.05
312.862	10.64
313.074	10.6
313.286	10.22
313.498	10
313.71	9.95
313.922	9.81
314.134	9.74
314.346	9.46
314.558	9.15
314.77	9.02
314.982	8.93
315.193	9.06
315.405	9.32
315.617	9.89
315.829	9.79
316.041	10.31
316.253	10.34
316.465	10.52
316.677	10.44
316.888	10.18
317.1	10.17
317.312	10.26
317.524	10.26
317.736	10.46
317.947	10.48
318.159	10.11
318.371	10.15
318.583	10.62
318.794	10.69
319.006	10.97
319.218	10.77
319.43	10.72
319.641	10.8
319.853	11.23
320.064	10.81
320.276	11.13
320.488	10.81
320.699	10.91
320.911	10.94
321.123	10.71
321.334	10.72
321.546	10.32
321.757	10.1
321.969	10.24
322.18	10.44
322.392	10.51
322.603	9.86
322.815	10.16
323.026	9.83
323.238	9.76
323.449	9.83
323.661	9.89
323.872	9.97
324.083	9.66
324.295	9.6
324.506	9.61
324.718	9.72
324.929	9.56
325.14	9.55
325.352	9.63
325.563	9.9
325.774	9.87
325.986	9.79
326.197	9.85
326.408	9.81
326.62	9.54
326.831	9.36
327.042	9.29
327.253	9.32
327.464	9.21
327.676	9.4
327.887	9.42
328.098	9.46
328.309	9.06
328.52	9.04
328.732	9.15
328.943	8.98
329.154	9.25
329.365	9.36
329.576	9.64
329.787	10.61
329.998	10.84
330.209	10.58
330.42	10.82
330.631	10.76
330.842	10.83
331.053	10.63
331.264	10.76
331.475	10.92
331.686	10.92
331.897	11.07
332.108	11.05
332.319	10.93
332.53	10.23
332.741	9.98
332.952	9.99
333.163	9.47
333.374	9.18
333.585	9.42
333.795	9.4
334.006	9.57
334.217	9.52
334.428	9.44
334.639	9.34
334.849	9.32
335.06	9.48
335.271	9.62
335.482	9.6
335.692	9.98
335.903	10.22
336.114	10.85
336.325	10.43
336.535	10.57
336.746	10.91
336.957	11.09
337.167	10.78
337.378	10.59
337.589	10.65
337.799	10.58
338.01	10.45
338.22	10.63
338.431	10.69
338.642	10.42
338.852	9.79
339.063	9.68
339.273	9.76
339.484	9.44
339.694	9.03
339.905	9.01
340.115	9.15
340.326	9.11
340.536	8.83
340.746	8.75
340.957	8.3
341.167	7.84
341.378	8.01
341.588	7.94
341.799	8.3
342.009	8.1
342.219	7.61
342.43	7.84
342.64	7.99
342.85	7.98
343.061	8.04
343.271	8.29
343.481	8.58
343.691	8.92
343.902	9.01
344.112	8.88
344.322	9.26
344.532	8.77
344.743	8.87
344.953	8.78
345.163	8.92
345.373	9.13
345.583	9.21
345.793	8.95
346.004	8.65
346.214	8.03
346.424	7.83
346.634	7.81
346.844	7.74
347.054	7.38
347.264	7.71
347.474	7.8
347.684	8.51
347.894	8.44
348.104	8.42
348.314	8.49
348.524	8.19
348.734	8.37
348.944	8.66
349.154	8.77
349.364	8.8
349.574	8.71
349.784	8.8
349.994	9.12
350.204	8.76
350.413	8.49
350.623	8.26
350.833	8.1
351.043	7.62
351.253	7.96
351.463	7.96
351.672	7.99
351.882	7.66
352.092	7.58
352.302	7.79
352.511	7.62
352.721	7.1
352.931	7.36
353.141	7.42
353.35	7.51
353.56	7.5
353.77	7.63
353.979	7.69
354.189	7.73
354.399	7.73
354.608	7.94
354.818	8.05
355.027	7.75
355.237	8.13
355.447	8.21
355.656	8.09
355.866	8.18
356.075	8.1
356.285	8.18
356.494	7.91
356.704	7.63
356.913	7.55
357.123	7.54
357.332	7.37
357.542	7.34
357.751	7.52
357.96	7.23
358.17	7.26
358.379	7.31
358.589	6.92
358.798	6.95
359.007	6.74
359.217	6.77
359.426	6.99
359.635	7
359.845	6.95
360.054	6.98
360.263	6.73
360.472	6.76
360.682	6.72
360.891	6.7
361.1	6.77
361.309	6.7
361.519	6.41
361.728	6.58
361.937	6.62
362.146	6.38
362.355	6.35
362.564	6.33
362.774	6.36
362.983	6.6
363.192	6.6
363.401	6.79
363.61	6.81
363.819	6.52
364.028	6.74
364.237	7.06
364.446	7.06
364.655	7.05
364.864	7.09
365.073	7.01
365.282	7.11
365.491	7.11
365.7	6.85
365.909	6.81
366.118	6.57
366.327	6.38
366.536	6.31
366.745	6.51
366.954	6.36
367.162	6.13
367.371	6.27
367.58	6.44
367.789	6.42
367.998	6.37
368.207	6.36
368.415	6.36
368.624	6.09
368.833	6.08
369.042	6.43
369.25	6.85
369.459	6.38
369.668	6.38
369.877	6.24
370.085	5.9
370.294	6.03
370.503	6.01
370.711	5.76
370.92	5.64
371.129	5.72
371.337	5.84
371.546	5.86
371.754	5.46
371.963	5.24
372.171	5.54
372.38	5.59
372.589	5.76
372.797	6.14
373.006	5.89
373.214	5.92
373.423	5.93
373.631	6.01
373.84	5.95
374.048	5.89
374.256	5.81
374.465	5.83
374.673	5.74
374.882	5.67
375.09	5.66
375.298	5.64
375.507	5.57
375.715	5.71
375.923	5.7
376.132	5.79
376.34	5.73
376.548	5.76
376.757	5.85
376.965	5.68
377.173	5.6
377.381	5.54
377.59	5.67
377.798	5.63
378.006	5.57
378.214	5.49
378.423	5.54
378.631	5.2
378.839	5.25
379.047	5.21
379.255	5.25
379.463	5.21
379.671	5.4
379.879	5.64
380.088	5.63
380.296	5.51
380.504	5.51
380.712	5.57
380.92	5.53
381.128	5.34
381.336	5.55
381.544	5.4
381.752	5.48
381.96	5.5
382.168	5.42
382.376	5.56
382.584	5.62
382.791	5.7
382.999	5.81
383.207	5.71
383.415	5.71
383.623	5.6
383.831	5.5
384.039	5.47
384.247	5.54
384.454	5.39
384.662	5.26
384.87	5.37
385.078	5.18
385.285	5.02
385.493	4.93
385.701	4.84
385.909	4.76
386.116	4.63
386.324	4.85
386.532	4.75
386.739	4.7
386.947	4.61
387.155	4.75
387.362	4.82
387.57	4.84
387.778	4.98
387.985	4.85
388.193	4.98
388.4	4.98
388.608	5.14
388.816	5.25
389.023	5.26
389.231	5.37
389.438	5.46
389.646	5.44
389.853	5.4
390.061	5.34
390.268	5.22
390.475	5.1
390.683	5
390.89	4.88
391.098	4.84
391.305	4.69
391.512	4.56
391.72	4.41
391.927	4.38
392.135	4.38
392.342	4.39
392.549	4.33
392.756	4.28
392.964	4.22
393.171	4.24
393.378	4.55
393.586	4.53
393.793	4.4
394	4.41
394.207	4.48
394.414	4.44
394.622	4.46
394.829	4.4
395.036	4.35
395.243	4.48
395.45	4.68
395.657	4.73
395.864	4.68
396.072	4.41
396.279	4.46
396.486	4.53
396.693	4.55
396.9	4.63
397.107	4.66
397.314	4.68
397.521	4.74
397.728	4.82
397.935	4.6
398.142	4.52
398.349	4.49
398.556	4.56
398.763	4.63
398.97	4.54
399.177	4.54
399.383	4.52
399.59	4.47
399.797	4.4
400.004	4.52
400.211	4.53
400.418	4.52
400.625	4.56
400.831	4.43
401.038	4.39
401.245	4.25
401.452	4.26
401.658	4.33
401.865	4.2
402.072	4.08
402.279	4.02
402.485	3.88
402.692	3.85
402.899	3.77
403.105	3.65
403.312	3.73
403.519	3.81
403.725	3.89
403.932	3.92
404.138	3.87
404.345	3.86
404.552	3.96
404.758	4.09
404.965	4.09
405.171	4.34
405.378	4.21
405.584	4.24
405.791	4.44
405.997	4.51
406.204	4.48
406.41	4.2
406.617	4.43
406.823	4.52
407.029	4.61
407.236	4.6
407.442	4.56
407.649	4.51
407.855	4.44
408.061	4.39
408.268	4.4
408.474	4.34
408.68	4.21
408.887	4.27
409.093	4.5
409.299	4.36
409.505	4.29
409.712	4.18
409.918	4.22
410.124	4.18
410.33	4.06
410.537	4.02
410.743	3.92
410.949	3.89
411.155	3.82
411.361	3.66
411.567	3.55
411.773	3.48
411.98	3.54
412.186	3.64
412.392	3.78
412.598	3.66
412.804	3.56
413.01	3.68
413.216	3.68
413.422	3.93
413.628	3.74
413.834	3.78
414.04	3.8
414.246	3.87
414.452	3.82
414.658	3.75
414.864	3.67
415.07	3.56
415.275	3.55
415.481	3.7
415.687	3.67
415.893	3.71
416.099	3.6
416.305	3.77
416.511	3.72
416.716	3.73
416.922	3.62
417.128	3.68
417.334	3.7
417.539	3.72
417.745	3.69
417.951	3.7
418.157	3.71
418.362	3.7
418.568	3.59
418.774	3.57
418.979	3.51
419.185	3.49
419.391	3.47
419.596	3.53
419.802	3.59
420.008	3.54
420.213	3.52
420.419	3.52
420.624	3.49
420.83	3.43
421.035	3.41
421.241	3.44
421.446	3.45
421.652	3.48
421.857	3.49
422.063	3.52
422.268	3.51
422.474	3.42
422.679	3.38
422.885	3.4
423.09	3.38
423.295	3.4
423.501	3.39
423.706	3.47
423.911	3.5
424.117	3.54
424.322	3.49
424.527	3.52
424.733	3.5
424.938	3.52
425.143	3.5
425.349	3.5
425.554	3.46
425.759	3.51
425.964	3.56
426.169	3.58
426.375	3.55
426.58	3.54
426.785	3.48
426.99	3.48
427.195	3.41
427.4	3.52
427.605	3.46
427.811	3.56
428.016	3.67
428.221	3.67
428.426	3.59
428.631	3.57
428.836	3.57
429.041	3.58
429.246	3.46
429.451	3.58
429.656	3.53
429.861	3.61
430.066	3.51
430.271	3.41
430.476	3.4
430.681	3.4
430.886	3.37
431.09	3.5
431.295	3.45
431.5	3.46
431.705	3.44
431.91	3.52
432.115	3.55
432.32	3.59
432.524	3.5
432.729	3.53
432.934	3.63
433.139	3.61
433.343	3.51
433.548	3.42
433.753	3.3
433.958	3.28
434.162	3.19
434.367	3.16
434.572	3.18
434.776	3.05
434.981	3.09
435.186	3.1
435.39	3.08
435.595	3.05
435.799	3.02
436.004	3.12
436.209	3.23
436.413	3.28
436.618	3.26
436.822	3.32
437.027	3.28
437.231	3.26
437.436	3.26
437.64	3.17
437.845	3.13
438.049	3.15
438.253	3.1
438.458	3.09
438.662	3.06
438.867	3.04
439.071	2.96
439.275	2.96
439.48	2.92
439.684	2.9
439.888	2.89
440.093	2.94
440.297	2.9
440.501	2.91
440.706	2.84
440.91	2.81
441.114	2.82
441.318	2.81
441.523	2.76
441.727	2.79
441.931	2.82
442.135	2.79
442.339	2.82
442.543	2.78
442.748	2.76
442.952	2.82
443.156	2.89
443.36	2.92
443.564	2.94
443.768	3
443.972	2.98
444.176	3.05
444.38	3.01
444.584	3.03
444.788	3.11
444.992	3.12
445.196	3.11
445.4	3.11
445.604	3.09
445.808	3.05
446.012	2.94
446.216	2.98
446.42	3.02
446.624	3.01
446.828	2.96
447.032	3.01
447.235	2.93
447.439	2.88
447.643	2.87
447.847	2.91
448.051	2.96
448.254	3.05
448.458	3.12
448.662	3.26
448.866	3.21
449.069	3.1
449.273	3.08
449.477	3.14
449.681	3.15
449.884	3.23
450.088	3.22
450.292	3.21
450.495	3.14
450.699	2.99
450.902	2.89
451.106	2.75
451.31	2.7
451.513	2.75
451.717	2.72
451.92	2.77
452.124	2.75
452.327	2.66
452.531	2.66
452.734	2.72
452.938	2.65
453.141	2.65
453.345	2.72
453.548	2.75
453.752	2.85
453.955	2.88
454.158	2.82
454.362	2.91
454.565	2.93
454.769	2.95
454.972	3.03
455.175	3.07
455.379	2.96
455.582	3.06
455.785	3.01
455.988	2.94
456.192	2.9
456.395	2.8
456.598	2.74
456.801	2.82
457.005	2.82
457.208	2.71
457.411	2.66
457.614	2.61
457.817	2.58
458.021	2.62
458.224	2.57
458.427	2.64
458.63	2.65
458.833	2.65
459.036	2.69
459.239	2.71
459.442	2.64
459.645	2.61
459.848	2.65
460.051	2.64
460.254	2.72
460.457	2.67
460.66	2.64
460.863	2.72
461.066	2.72
461.269	2.79
461.472	2.76
461.675	2.78
461.878	2.82
462.081	2.84
462.284	2.82
462.486	2.72
462.689	2.77
462.892	2.74
463.095	2.77
463.298	2.78
463.5	2.77
463.703	2.71
463.906	2.66
464.109	2.62
464.311	2.56
464.514	2.58
464.717	2.63
464.92	2.6
465.122	2.68
465.325	2.72
465.528	2.78
465.73	2.81
465.933	2.83
466.135	2.88
466.338	2.93
466.541	3
466.743	3.01
466.946	3.03
467.148	3.04
467.351	3.07
467.553	3.09
467.756	3.07
467.958	3.09
468.161	3.03
468.363	2.93
468.566	2.89
468.768	2.72
468.971	2.76
469.173	2.7
469.375	2.81
469.578	2.88
469.78	2.97
469.983	2.95
470.185	2.89
470.387	2.99
470.59	3.01
470.792	3
470.994	3.03
471.196	3.05
471.399	3.16
471.601	3.08
471.803	3.08
472.005	3.07
472.208	3.11
472.41	2.99
472.612	2.97
472.814	3.04
473.016	3.02
473.218	2.9
473.421	2.83
473.623	2.89
473.825	2.89
474.027	2.78
474.229	2.81
474.431	2.77
474.633	2.73
474.835	2.69
475.037	2.71
475.239	2.65
475.441	2.57
475.643	2.51
475.845	2.57
476.047	2.69
476.249	2.56
476.451	2.54
476.653	2.58
476.855	2.52
477.057	2.52
477.258	2.5
477.46	2.45
477.662	2.42
477.864	2.47
478.066	2.51
478.268	2.62
478.469	2.61
478.671	2.51
478.873	2.61
479.075	2.66
479.276	2.69
479.478	2.68
479.68	2.68
479.882	2.68
480.083	2.63
480.285	2.63
480.487	2.59
480.688	2.6
480.89	2.58
481.091	2.61
481.293	2.63
481.495	2.62
481.696	2.62
481.898	2.63
482.099	2.68
482.301	2.7
482.502	2.71
482.704	2.73
482.905	2.73
483.107	2.74
483.308	2.75
483.51	2.72
483.711	2.7
483.913	2.69
484.114	2.69
484.315	2.69
484.517	2.66
484.718	2.66
484.92	2.66
485.121	2.65
485.322	2.64
485.524	2.64
485.725	2.64
485.926	2.63
486.127	2.65
486.329	2.67
486.53	2.67
486.731	2.67
486.932	2.62
487.134	2.62
487.335	2.58
487.536	2.58
487.737	2.57
487.938	2.58
488.139	2.6
488.341	2.59
488.542	2.58
488.743	2.6
488.944	2.58
489.145	2.63
489.346	2.67
489.547	2.69
489.748	2.73
489.949	2.73
490.15	2.7
490.351	2.72
490.552	2.72
490.753	2.7
490.954	2.74
491.155	2.73
491.356	2.7
491.557	2.67
491.758	2.6
491.959	2.59
492.159	2.59
492.36	2.52
492.561	2.56
492.762	2.57
492.963	2.6
493.164	2.66
493.364	2.69
493.565	2.67
493.766	2.64
493.967	2.7
494.167	2.8
494.368	2.82
494.569	2.78
494.769	2.86
494.97	2.93
495.171	2.96
495.371	2.97
495.572	2.86
495.773	2.87
495.973	2.86
496.174	2.9
496.375	2.93
496.575	2.94
496.776	2.91
496.976	2.96
497.177	3.02
497.377	2.99
497.578	3.02
497.778	3.01
497.979	3.06
498.179	3.11
498.38	3.14
498.58	3.14
498.78	3.1
498.981	3.17
499.181	3.12
499.382	3.05
499.582	3.08
499.782	3
499.983	3.06
500.183	3.02
500.383	3.02
500.584	2.99
500.784	3.01
500.984	2.92
501.184	2.91
501.385	2.94
501.585	2.89
501.785	2.89
501.985	2.86
502.185	2.85
502.386	2.9
502.586	2.92
502.786	2.91
502.986	2.97
503.186	2.94
503.386	2.97
503.586	3.01
503.786	3
503.987	3.03
504.187	3.05
504.387	3.08
504.587	3.2
504.787	3.14
504.987	3.13
505.187	3.11
505.387	3.09
505.587	3.12
505.786	3.19
505.986	3.18
506.186	3.24
506.386	3.32
506.586	3.26
506.786	3.32
506.986	3.31
507.186	3.37
507.386	3.47
507.585	3.54
507.785	3.58
507.985	3.62
508.185	3.56
508.384	3.53
508.584	3.55
508.784	3.52
508.984	3.46
509.183	3.51
509.383	3.55
509.583	3.51
509.782	3.51
509.982	3.49
510.182	3.47
510.381	3.5
510.581	3.52
510.781	3.46
510.98	3.45
511.18	3.41
511.379	3.41
511.579	3.44
511.778	3.46
511.978	3.36
512.177	3.47
512.377	3.43
512.576	3.4
512.776	3.49
512.975	3.46
513.175	3.47
513.374	3.55
513.573	3.67
513.773	3.75
513.972	3.8
514.172	3.78
514.371	3.83
514.57	3.85
514.77	3.87
514.969	3.85
515.168	3.94
515.367	3.85
515.567	3.86
515.766	3.86
515.965	3.91
516.164	3.82
516.364	3.84
516.563	3.8
516.762	3.89
516.961	3.89
517.16	3.99
517.359	3.99
517.559	3.98
517.758	3.97
517.957	4.01
518.156	4.06
518.355	4.1
518.554	4.08
518.753	4.12
518.952	4.12
519.151	4.18
519.35	4.18
519.549	4.24
519.748	4.26
519.947	4.31
520.146	4.36
520.345	4.36
520.544	4.4
520.743	4.4
520.942	4.41
521.141	4.42
521.339	4.49
521.538	4.42
521.737	4.48
521.936	4.53
522.135	4.48
522.333	4.43
522.532	4.44
522.731	4.52
522.93	4.55
523.129	4.55
523.327	4.54
523.526	4.52
523.725	4.62
523.923	4.65
524.122	4.74
524.321	4.72
524.519	4.71
524.718	4.78
524.917	4.81
525.115	4.81
525.314	4.82
525.512	4.83
525.711	4.86
525.909	4.89
526.108	4.92
526.306	4.9
526.505	4.9
526.703	4.92
526.902	4.95
527.1	4.95
527.299	4.93
527.497	4.96
527.696	5
527.894	5
528.092	5.04
528.291	5.04
528.489	5.05
528.688	5.08
528.886	5.09
529.084	5.07
529.283	5.08
529.481	5.05
529.679	5.09
529.877	5.15
530.076	5.13
530.274	5.11
530.472	5.16
530.67	5.17
530.869	5.2
531.067	5.21
531.265	5.22
531.463	5.28
531.661	5.36
531.859	5.34
532.057	5.43
532.255	5.41
532.454	5.42
532.652	5.45
532.85	5.48
533.048	5.47
533.246	5.47
533.444	5.5
533.642	5.53
533.84	5.56
534.038	5.56
534.236	5.59
534.434	5.68
534.632	5.65
534.83	5.75
535.027	5.77
535.225	5.75
535.423	5.78
535.621	5.75
535.819	5.83
536.017	5.87
536.215	5.93
536.412	5.96
536.61	5.99
536.808	6.01
537.006	5.99
537.203	6.03
537.401	6.02
537.599	6.08
537.797	6.19
537.994	6.22
538.192	6.31
538.39	6.27
538.587	6.22
538.785	6.24
538.983	6.2
539.18	6.21
539.378	6.21
539.575	6.27
539.773	6.32
539.97	6.38
540.168	6.38
540.366	6.36
540.563	6.37
540.761	6.42
540.958	6.45
541.155	6.53
541.353	6.53
541.55	6.56
541.748	6.6
541.945	6.64
542.143	6.69
542.34	6.73
542.537	6.75
542.735	6.78
542.932	6.81
543.129	6.92
543.327	6.91
543.524	6.92
543.721	6.89
543.919	6.97
544.116	7.11
544.313	7.18
544.51	7.28
544.708	7.3
544.905	7.24
545.102	7.2
545.299	7.26
545.496	7.31
545.693	7.26
545.891	7.31
546.088	7.37
546.285	7.41
546.482	7.44
546.679	7.37
546.876	7.31
547.073	7.2
547.27	7.13
547.467	7.23
547.664	7.25
547.861	7.27
548.058	7.27
548.255	7.33
548.452	7.39
548.649	7.41
548.846	7.5
549.043	7.56
549.24	7.63
549.437	7.68
549.633	7.77
549.83	7.86
550.027	7.86
550.224	7.95
550.421	7.96
550.618	8.18
550.814	8.26
551.011	8.3
551.208	8.36
551.405	8.35
551.601	8.42
551.798	8.5
551.995	8.59
552.191	8.57
552.388	8.59
552.585	8.54
552.781	8.61
552.978	8.72
553.175	8.68
553.371	8.62
553.568	8.58
553.764	8.58
553.961	8.75
554.157	8.79
554.354	8.77
554.55	8.84
554.747	9.05
554.943	9.11
555.14	9.22
555.336	9.29
555.533	9.45
555.729	9.49
555.926	9.64
556.122	9.75
556.318	9.8
556.515	9.78
556.711	9.88
556.907	9.94
557.104	9.95
557.3	9.96
557.496	10.05
557.693	10.2
557.889	10.28
558.085	10.25
558.281	10.27
558.478	10.28
558.674	10.36
558.87	10.5
559.066	10.6
559.262	10.61
559.459	10.71
559.655	10.89
559.851	10.86
560.047	11.01
560.243	11.14
560.439	11.13
560.635	11.19
560.831	11.28
561.027	11.39
561.223	11.43
561.419	11.5
561.615	11.63
561.811	11.72
562.007	11.75
562.203	11.71
562.399	11.81
562.595	11.84
562.791	11.84
562.987	11.91
563.183	12
563.379	12.02
563.575	12.09
563.771	12.11
563.966	12.05
564.162	12.05
564.358	12.04
564.554	12.07
564.75	12.1
564.945	12.14
565.141	12.15
565.337	12.17
565.533	12.21
565.728	12.27
565.924	12.38
566.12	12.45
566.315	12.5
566.511	12.7
566.707	12.73
566.902	12.79
567.098	12.84
567.293	12.99
567.489	13.09
567.684	13.16
567.88	13.17
568.076	13.22
568.271	13.19
568.467	13.18
568.662	13.15
568.858	13.25
569.053	13.26
569.248	13.33
569.444	13.43
569.639	13.58
569.835	13.48
570.03	13.55
570.225	13.6
570.421	13.81
570.616	13.95
570.812	14.07
571.007	14.1
571.202	14.12
571.397	14.1
571.593	14.07
571.788	14.16
571.983	14.16
572.178	14.11
572.374	14.24
572.569	14.32
572.764	14.33
572.959	14.34
573.154	14.35
573.35	14.29
573.545	14.37
573.74	14.47
573.935	14.52
574.13	14.63
574.325	14.63
574.52	14.56
574.715	14.66
574.91	14.8
575.105	14.79
575.3	14.86
575.495	14.83
575.69	14.86
575.885	14.98
576.08	15.03
576.275	15.03
576.47	15.24
576.665	15.38
576.86	15.42
577.055	15.64
577.25	15.83
577.444	15.77
577.639	15.86
577.834	15.91
578.029	16.05
578.224	16.13
578.418	16.22
578.613	16.32
578.808	16.43
579.003	16.5
579.197	16.47
579.392	16.55
579.587	16.62
579.781	16.56
579.976	16.71
580.171	16.75
580.365	16.87
580.56	16.96
580.755	17.01
580.949	17
581.144	16.93
581.338	16.91
581.533	16.88
581.727	16.77
581.922	16.89
582.116	16.89
582.311	16.94
582.505	16.89
582.7	16.81
582.894	16.83
583.089	16.75
583.283	16.84
583.478	16.89
583.672	16.94
583.866	17.01
584.061	17.08
584.255	17.22
584.449	17.29
584.644	17.27
584.838	17.18
585.032	17.3
585.226	17.5
585.421	17.46
585.615	17.52
585.809	17.56
586.003	17.53
586.198	17.64
586.392	17.66
586.586	17.64
586.78	17.84
586.974	17.78
587.168	17.85
587.363	18.05
587.557	18.07
587.751	18.11
587.945	18.09
588.139	18.34
588.333	18.36
588.527	18.47
588.721	18.51
588.915	18.61
589.109	18.69
589.303	18.53
589.497	18.6
589.691	18.67
589.885	18.73
590.079	18.71
590.273	18.76
590.466	18.9
590.66	18.82
590.854	18.83
591.048	18.86
591.242	18.88
591.436	18.91
591.629	18.79
591.823	18.77
592.017	18.82
592.211	18.85
592.404	18.81
592.598	18.87
592.792	18.96
592.986	19.07
593.179	19.02
593.373	19
593.567	19.12
593.76	19.18
593.954	19.19
594.147	19.35
594.341	19.51
594.535	19.51
594.728	19.52
594.922	19.65
595.115	19.61
595.309	19.66
595.502	19.63
595.696	19.52
595.889	19.62
596.083	19.64
596.276	19.6
596.47	19.71
596.663	19.71
596.856	19.72
597.05	19.77
597.243	19.95
597.437	19.83
597.63	19.91
597.823	19.85
598.017	19.88
598.21	20.06
598.403	19.99
598.596	19.96
598.79	20.06
598.983	20.04
599.176	20.03
599.369	20
599.563	20
599.756	19.83
599.949	19.99
600.142	20.09
600.335	20.13
600.528	20.22
600.722	20.29
600.915	20.4
601.108	20.44
601.301	20.44
601.494	20.55
601.687	20.58
601.88	20.62
602.073	20.76
602.266	20.84
602.459	20.79
602.652	20.79
602.845	20.87
603.038	20.87
603.231	20.86
603.424	20.81
603.617	20.81
603.809	20.91
604.002	20.85
604.195	20.99
604.388	21.02
604.581	20.98
604.774	20.91
604.966	20.86
605.159	20.8
605.352	20.65
605.545	20.69
605.737	20.7
605.93	20.69
606.123	20.86
606.316	20.9
606.508	20.96
606.701	20.9
606.894	20.93
607.086	20.9
607.279	21.03
607.471	21.23
607.664	21.38
607.857	21.52
608.049	21.54
608.242	21.54
608.434	21.68
608.627	21.68
608.819	21.58
609.012	21.69
609.204	21.67
609.397	21.65
609.589	21.65
609.782	21.66
609.974	21.57
610.166	21.48
610.359	21.6
610.551	21.54
610.743	21.57
610.936	21.46
611.128	21.38
611.32	21.35
611.513	21.25
611.705	21.3
611.897	21.34
612.09	21.44
612.282	21.39
612.474	21.4
612.666	21.44
612.858	21.31
613.051	21.47
613.243	21.48
613.435	21.62
613.627	21.56
613.819	21.75
614.011	21.77
614.203	21.85
614.395	21.79
614.588	21.59
614.78	21.7
614.972	21.84
615.164	21.98
615.356	22.06
615.548	22.03
615.74	22
615.932	21.92
616.124	22.07
616.315	22.02
616.507	21.99
616.699	21.91
616.891	21.96
617.083	22.19
617.275	22.14
617.467	22.11
617.659	22.22
617.85	22.2
618.042	22.23
618.234	22.25
618.426	22.25
618.618	22.19
618.809	22.05
619.001	22.36
619.193	22.47
619.384	22.63
619.576	22.54
619.768	22.69
619.959	22.74
620.151	22.48
620.343	22.44
620.534	22.59
620.726	22.79
620.917	22.83
621.109	22.72
621.301	22.86
621.492	22.66
621.684	22.55
621.875	22.48
622.067	22.47
622.258	22.43
622.45	22.44
622.641	22.6
622.832	22.7
623.024	22.74
623.215	22.75
623.407	22.95
623.598	23.18
623.789	23.37
623.981	23.29
624.172	23.44
624.363	23.56
624.555	23.63
624.746	23.57
624.937	23.55
625.129	23.45
625.32	23.51
625.511	23.37
625.702	23.33
625.893	23.29
626.085	23.22
626.276	23.1
626.467	23.21
626.658	23.23
626.849	23.21
627.04	23.29
627.231	23.31
627.422	23.34
627.614	23.45
627.805	23.48
627.996	23.57
628.187	23.69
628.378	23.69
628.569	23.74
628.76	23.89
628.951	23.98
629.142	24.03
629.332	24.12
629.523	24.05
629.714	24.31
629.905	24.47
630.096	24.67
630.287	24.68
630.478	24.73
630.669	24.63
630.859	24.64
631.05	24.66
631.241	24.51
631.432	24.16
631.623	24.23
631.813	24.14
632.004	24.27
632.195	24.2
632.385	24.08
632.576	23.95
632.767	23.79
632.957	23.76
633.148	23.6
633.339	23.63
633.529	23.6
633.72	23.67
633.91	23.83
634.101	23.82
634.292	23.86
634.482	23.81
634.673	23.9
634.863	23.81
635.054	23.9
635.244	24.09
635.435	24.14
635.625	24.2
635.815	24.34
636.006	24.55
636.196	24.53
636.387	24.86
636.577	24.76
636.767	24.72
636.958	24.81
637.148	24.66
637.338	24.78
637.529	24.76
637.719	24.57
637.909	24.44
638.099	24.62
638.29	24.39
638.48	24.11
638.67	24.26
638.86	24.05
639.05	24.09
639.241	24.02
639.431	23.99
639.621	23.9
639.811	23.91
640.001	23.84
640.191	23.87
640.381	23.83
640.571	23.8
640.761	23.91
640.951	24.04
641.141	23.88
641.331	24.06
641.521	24.09
641.711	24.27
641.901	24.38
642.091	24.53
642.281	24.8
642.471	24.85
642.661	25
642.851	25.26
643.041	25.41
643.231	25.46
643.42	25.53
643.61	25.73
643.8	25.66
643.99	25.71
644.18	25.74
644.369	25.62
644.559	25.61
644.749	25.51
644.939	25.51
645.128	25.43
645.318	25.57
645.508	25.49
645.697	25.62
645.887	25.72
646.076	25.79
646.266	25.97
646.456	25.94
646.645	26
646.835	26.01
647.024	26.18
647.214	26.22
647.403	26.43
647.593	26.61
647.782	26.35
647.972	26.42
648.161	26.42
648.351	26.32
648.54	26.12
648.73	25.88
648.919	25.88
649.108	25.82
649.298	25.88
649.487	25.86
649.677	25.66
649.866	25.66
650.055	25.58
650.244	25.74
650.434	25.64
650.623	25.62
650.812	25.59
651.002	25.5
651.191	25.47
651.38	25.63
651.569	25.77
651.758	25.86
651.947	25.87
652.137	25.96
652.326	25.86
652.515	25.89
652.704	25.89
652.893	25.97
653.082	25.87
653.271	25.97
653.46	26.2
653.649	26.4
653.838	26.5
654.027	26.37
654.216	26.33
654.405	26.23
654.594	26.23
654.783	26.25
654.972	26.52
655.161	26.5
655.35	26.66
655.539	26.87
655.728	26.83
655.916	26.91
656.105	26.73
656.294	26.74
656.483	26.84
656.672	26.92
656.86	26.94
657.049	26.85
657.238	26.99
657.427	26.72
657.615	26.7
657.804	26.42
657.993	26.28
658.181	26.34
658.37	26.24
658.559	26.39
658.747	26.26
658.936	26.18
659.125	26.02
659.313	26.01
659.502	26.06
659.69	25.9
659.879	26.07
660.067	26.2
660.256	26.36
660.444	26.29
660.633	26.3
660.821	26.29
661.01	26.21
661.198	26.17
661.387	26.29
661.575	26.57
661.763	26.64
661.952	26.89
662.14	26.87
662.328	26.95
662.517	26.72
662.705	27
662.893	27.3
663.082	27.08
663.27	27.24
663.458	27.1
663.646	27.23
663.834	27.19
664.023	27.03
664.211	26.99
664.399	26.92
664.587	27.09
664.775	27.03
664.963	27.41
665.152	27.1
665.34	27.05
665.528	27.33
665.716	27.32
665.904	27.62
666.092	27.6
666.28	27.62
666.468	27.66
666.656	27.77
666.844	27.99
667.032	28
667.22	27.81
667.408	27.62
667.596	27.9
667.784	27.84
667.971	27.87
668.159	27.84
668.347	27.88
668.535	27.83
668.723	27.59
668.911	27.68
669.098	27.78
669.286	27.53
669.474	27.61
669.662	27.73
669.849	27.86
670.037	27.85
670.225	27.78
670.413	27.67
670.6	27.7
670.788	27.65
670.976	27.63
671.163	27.74
671.351	27.46
671.538	27.41
671.726	27.3
671.913	26.92
672.101	26.87
672.289	26.69
672.476	26.36
672.664	26.42
672.851	26.74
673.039	26.74
673.226	26.73
673.413	26.81
673.601	26.91
673.788	27.17
673.976	27.08
674.163	27.41
674.35	27.62
674.538	27.72
674.725	27.8
674.912	27.96
675.1	28.22
675.287	28.05
675.474	28.14
675.662	28.01
675.849	27.93
676.036	27.78
676.223	28.03
676.411	27.96
676.598	28.08
676.785	28.1
676.972	28.2
677.159	28.19
677.346	28.35
677.533	28.09
677.721	27.95
677.908	27.85
678.095	28.09
678.282	28.31
678.469	28.6
678.656	28.31
678.843	28.41
679.03	28.12
679.217	28.2
679.404	28.01
679.591	28.08
679.778	27.97
679.964	27.84
680.151	27.88
680.338	28.04
680.525	27.99
680.712	27.81
680.899	27.72
681.086	27.92
681.272	27.87
681.459	28.05
681.646	28.15
681.833	28.33
682.02	28.37
682.206	28.59
682.393	28.78
682.58	28.95
682.766	29
682.953	29.01
683.14	28.96
683.326	29.02
683.513	29.12
683.7	29.39
683.886	29.13
684.073	28.96
684.259	28.8
684.446	28.88
684.632	28.8
684.819	28.77
685.005	29.02
685.192	28.96
685.378	29
685.565	29.18
685.751	29.3
685.938	29.31
686.124	29.35
686.31	29.34
686.497	29.4
686.683	29.7
686.87	29.43
687.056	29.33
687.242	29.5
687.429	29.05
687.615	28.84
687.801	28.91
687.987	28.72
688.174	28.67
688.36	28.42
688.546	28.23
688.732	28.4
688.918	28.48
689.105	28.29
689.291	28.42
689.477	28.44
689.663	28.55
689.849	28.82
690.035	29.19
690.221	29.12
690.407	29.21
690.593	29.4
690.779	29.46
690.965	29.37
691.151	29.52
691.337	29.43
691.523	29.15
691.709	29.18
691.895	29.09
692.081	28.96
692.267	28.74
692.453	28.5
692.639	28.59
692.825	28.9
693.011	28.69
693.196	28.87
693.382	29.07
693.568	29.12
693.754	29.16
693.94	29.51
694.125	29.55
694.311	29.89
694.497	29.94
694.682	30.05
694.868	30.04
695.054	29.87
695.239	29.89
695.425	30.01
695.611	29.73
695.796	29.62
695.982	29.75
696.168	29.83
696.353	29.99
696.539	30.07
696.724	29.77
696.91	29.93
697.095	29.94
697.281	29.85
697.466	29.9
697.652	29.8
697.837	29.79
698.023	29.94
698.208	29.86
698.393	29.78
698.579	29.84
698.764	29.86
698.949	29.88
699.135	30.13
699.32	30.12
699.505	30.08
699.691	30.2
699.876	30.2
700.061	30.12
700.246	29.98
700.432	29.86
700.617	30.07
700.802	30.04
700.987	29.87
701.172	29.64
701.358	29.69
701.543	29.39
701.728	29.06
701.913	29.3
702.098	29.35
702.283	29.39
702.468	29.63
702.653	29.55
702.838	29.76
703.023	29.7
703.208	29.7
703.393	29.95
703.578	30.03
703.763	30
703.948	30.53
704.133	30.94
704.318	30.67
704.503	30.73
704.688	30.6
704.873	30.64
705.057	31.14
705.242	31
705.427	31.08
705.612	31.27
705.797	31.16
705.981	31.31
706.166	30.97
706.351	30.63
706.536	30.56
706.72	30.86
706.905	30.77
707.09	31.08
707.274	31.15
707.459	30.8
707.644	30.94
707.828	31.07
708.013	31.25
708.197	31.35
708.382	31.08
708.567	31.32
708.751	31.41
708.936	31.3
709.12	31.16
709.305	31.23
709.489	30.95
709.673	31.01
709.858	30.97
710.042	31.16
710.227	30.89
710.411	30.29
710.596	30.15
710.78	30.49
710.964	30.41
711.149	30.63
711.333	30.8
711.517	30.74
711.702	30.86
711.886	31.09
712.07	30.92
712.254	31.2
712.438	31.02
712.623	31.13
712.807	31.33
712.991	31.3
713.175	31.44
713.359	31.87
713.544	31.55
713.728	31.41
713.912	31.28
714.096	31.35
714.28	31.63
714.464	31.88
714.648	31.52
714.832	31.47
715.016	31.16
715.2	31.31
715.384	31.48
715.568	31.47
715.752	31.19
715.936	31.28
716.12	31.31
716.304	31.62
716.488	31.61
716.671	31.23
716.855	31.15
717.039	31.29
717.223	31.21
717.407	31.79
717.59	31.59
717.774	31.34
717.958	31.07
718.142	31.02
718.325	30.97
718.509	30.79
718.693	30.85
718.877	30.66
719.06	30.81
719.244	30.49
719.428	30.34
719.611	30.4
719.795	30.12
719.978	30.44
720.162	30.83
720.345	30.5
720.529	30.53
720.713	30.6
720.896	31.12
721.08	30.77
721.263	30.44
721.446	29.94
721.63	29.82
721.813	29.74
721.997	29.32
722.18	29.75
722.364	29.6
722.547	29.09
722.73	29.46
722.914	29.39
723.097	29.77
723.28	29.59
723.464	29.54
723.647	30.1
723.83	30.41
724.013	29.99
724.197	30.71
724.38	31.31
724.563	31.31
724.746	31.7
724.929	32.34
725.112	32.02
725.296	32.05
725.479	31.5
725.662	31.04
725.845	31.37
726.028	31.08
726.211	30.79
726.394	31.16
726.577	30.66
726.76	30.38
726.943	29.99
727.126	29.85
727.309	29.52
727.492	29.6
727.675	29.7
727.858	29.75
728.041	30.01
728.224	30.1
728.407	30.36
728.589	30.47
728.772	30.9
728.955	31.06
729.138	31.13
729.321	31.01
729.503	30.8
729.686	30.65
729.869	30.42
730.052	30.68
730.234	30.54
730.417	30.27
730.6	30.1
730.782	30.13
730.965	30.36
731.148	30.15
731.33	30.5
731.513	30.61
731.695	30.64
731.878	30.41
732.061	30.59
732.243	31.01
732.426	30.46
732.608	30.99
732.791	30.96
732.973	31.16
733.156	30.91
733.338	31.33
733.52	30.99
733.703	30.53
733.885	30.74
734.068	31.2
734.25	31.36
734.432	31.44
734.615	31.52
734.797	31.92
734.979	31.81
735.162	32.48
735.344	32.5
735.526	32.7
735.708	32.3
735.891	32.47
736.073	32.72
736.255	32.39
736.437	31.58
736.619	31.91
736.802	31.96
736.984	32.44
737.166	32.21
737.348	31.95
737.53	31.52
737.712	31.36
737.894	31.21
738.076	31.16
738.258	31.18
738.44	31.11
738.622	31.32
738.804	31.55
738.986	31.5
739.168	31.47
739.35	30.86
739.532	31.19
739.714	31.05
739.896	31.21
740.078	30.89
740.259	31.27
740.441	31.26
740.623	31.89
740.805	32
740.987	32.22
741.168	32.6
741.35	32.41
741.532	32.1
741.714	31.96
741.895	31.9
742.077	32.52
742.259	32.69
742.44	32.59
742.622	32.35
742.804	32.16
742.985	31.41
743.167	31.56
743.348	31.39
743.53	31.21
743.711	31.46
743.893	32.09
744.075	32.06
744.256	31.97
744.438	31.55
744.619	30.96
744.8	31.66
744.982	31.47
745.163	31.39
745.345	31.9
745.526	31.86
745.707	31.45
745.889	31.47
746.07	31.19
746.252	31.02
746.433	30.92
746.614	30.99
746.795	30.76
746.977	31.09
747.158	30.94
747.339	31.68
747.52	31.85
747.702	31.67
747.883	31.23
748.064	31.4
748.245	32.03
748.426	31.93
748.607	31.38
748.788	31.97
748.97	31.87
749.151	32.58
749.332	32.6
749.513	32.15
749.694	31.35
749.875	31.54
750.056	31.54
750.237	31.74
750.418	31.93
750.599	31.56
750.78	32.09
750.96	32.22
751.141	31.59
751.322	31.74
751.503	31.16
751.684	31.6
751.865	31.74
752.046	31.37
752.226	31.29
752.407	30.85
752.588	30.93
752.769	30.61
752.949	30.45
753.13	30.04
753.311	30.13
753.492	30.72
753.672	30.87
753.853	31.37
754.034	31
754.214	30.97
754.395	31.69
754.575	31.57
754.756	32.04
754.937	32.13
755.117	32.66
755.298	32.62
755.478	32.51
755.659	32.7
755.839	32.25
756.02	31.62
756.2	31.63
756.381	31.37
756.561	31.75
756.741	31.67
756.922	32.39
757.102	32.51
757.283	32.96
757.463	33.14
757.643	33.67
757.823	33.58
758.004	33.47
758.184	33.79
758.364	33.93
758.545	33.8
758.725	34.13
758.905	34.54
759.085	34.01
759.265	33.6
759.446	33.45
759.626	32.94
759.806	32.54
759.986	31.95
760.166	32.03
760.346	32.13
760.526	31.62
760.706	31.47
760.886	30.82
761.066	30.48
761.246	30.01
761.426	30.29
761.606	30.31
761.786	30.06
761.966	29.91
762.146	29.88
762.326	30.02
762.506	30.12
762.686	30.07
762.866	30.38
763.046	30.58
763.225	30.82
763.405	30.9
763.585	31.06
763.765	31.35
763.945	31.46
764.124	31.54
764.304	31.65
764.484	31.67
764.664	31.71
764.843	31.77
765.023	31.62
765.203	31.32
765.382	31.53
765.562	31.84
765.741	32.21
765.921	32.11
766.101	32.1
766.28	31.92
766.46	32.3
766.639	32.46
766.819	32.54
766.998	32.78
767.178	32.55
767.357	32.62
767.537	33.14
767.716	32.92
767.896	33.09
768.075	32.98
768.254	33.24
768.434	32.75
768.613	32.3
768.792	32.69
768.972	32.52
769.151	32.06
769.33	31.69
769.51	31.61
769.689	31.78
769.868	31.64
770.047	31.64
770.226	30.89
770.406	30.89
770.585	30.2
770.764	30.61
770.943	30.91
771.122	31
771.301	31.22
771.48	31.24
771.66	30.85
771.839	31.23
772.018	31.79
772.197	31.87
772.376	32.11
772.555	32.15
772.734	32
772.913	32.31
773.092	32.68
773.271	32.69
773.449	32.18
773.628	32.18
773.807	31.94
773.986	32.52
774.165	33.19
774.344	32.6
774.523	33.38
774.701	33.39
774.88	32.79
775.059	32.81
775.238	32.58
775.417	32.27
775.595	32.42
775.774	32.25
775.953	31.47
776.131	32.38
776.31	32.97
776.489	32.54
776.667	32.46
776.846	32.25
777.025	31.98
777.203	32.46
777.382	32.39
777.56	31.99
777.739	32.2
777.917	32.6
778.096	32.33
778.274	32.41
778.453	32.85
778.631	32.42
778.81	33.06
778.988	33.23
779.166	32.72
779.345	32.08
779.523	32.99
779.702	34.16
779.88	34.96
780.058	34.73
780.237	34.3
780.415	34.53
780.593	35.76
780.771	35.26
780.95	35.42
781.128	35.08
781.306	34.98
781.484	34.97
781.662	35.52
781.841	34.6
782.019	33.66
782.197	33.09
782.375	32.93
782.553	32.82
782.731	32.88
782.909	32.25
783.087	31.94
783.265	31.79
783.443	30.67
783.621	31.64
783.799	30.51
783.977	30.26
784.155	30.13
784.333	29.8
784.511	29.7
784.689	30.34
784.867	30.55
785.045	31.1
785.223	31.09
785.4	30.97
785.578	31.17
785.756	31.96
785.934	31.38
786.112	32.46
786.289	33.83
786.467	34.79
786.645	35.6
786.823	36.89
787	35.67
787.178	35.81
787.356	35.57
787.533	35.4
787.711	35.71
787.889	35.23
788.066	35.25
788.244	34.93
788.421	35.05
788.599	34.15
788.776	34.05
788.954	34.14
789.131	33.36
789.309	33.95
789.486	33.18
789.664	33.12
789.841	33.1
790.019	33.47
790.196	33.64
790.373	34.23
790.551	34.86
790.728	35.22
790.906	35.82
791.083	35.93
791.26	35.57
791.437	35.86
791.615	36.68
791.792	37.05
791.969	36.83
792.146	37.58
792.324	37.52
792.501	38.4
792.678	37.71
792.855	36.52
793.032	35.51
793.209	35.08
793.387	34.13
793.564	33.73
793.741	32.89
793.918	32.32
794.095	32.23
794.272	32.63
794.449	32.07
794.626	31.59
794.803	30.76
794.98	30.55
795.157	31.37
795.334	31.32
795.511	31.7
795.688	32.39
795.864	32.05
796.041	31.89
796.218	31.56
796.395	31.2
796.572	30.68
796.749	30.32
796.925	30.36
797.102	30.77
797.279	30.94
797.456	31.09
797.632	31.27
797.809	30.91
797.986	31.33
798.162	31.65
798.339	33.13
798.516	33.23
798.692	34.18
798.869	33.97
799.046	34.83
799.222	34.71
799.399	34.92
799.575	34.78
799.752	33.91
799.928	34.04
800.105	33.57
800.281	33.78
800.458	33.6
800.634	32.53
800.811	32.5
800.987	32.9
801.163	33.18
801.34	31.83
801.516	31.75
801.692	30.11
801.869	31.05
802.045	31.55
802.221	32.49
802.398	32.6
802.574	32.55
802.75	33.4
802.926	33.71
803.103	34.1
803.279	33.97
803.455	33.79
803.631	35.12
803.807	35.9
803.983	36.97
804.16	36.6
804.336	36.45
804.512	35.57
804.688	35.47
804.864	35.32
805.04	34.98
805.216	34.17
805.392	33.21
805.568	33.22
805.744	33.18
805.92	33.03
806.096	32.74
806.272	33.53
806.448	33.28
806.623	33.63
806.799	33.22
806.975	33.95
807.151	32.45
807.327	31.23
807.503	31.92
807.678	33.02
807.854	31.67
808.03	33.05
808.206	33.35
808.381	32.54
808.557	31.13
808.733	31.2
808.908	30.32
809.084	31.12
809.26	30.39
809.435	31.9
809.611	32.93
809.787	33.25
809.962	33.54
810.138	33.99
810.313	33.64
810.489	33.95
810.664	35.01
810.84	35.68
811.015	35.81
811.191	36.36
811.366	36.79
811.542	37.6
811.717	37.1
811.892	37.45
812.068	37.14
812.243	36.29
812.419	36.78
812.594	35.56
812.769	34.28
812.944	34.22
813.12	34.08
813.295	33.79
813.47	34.27
813.645	34.18
813.821	33.32
813.996	32.48
814.171	32.68
814.346	32.79
814.521	33.1
814.697	33.87
814.872	35.03
815.047	35.03
815.222	35.15
815.397	36.01
815.572	36.45
815.747	36.05
815.922	35.4
816.097	36.99
816.272	37.7
816.447	37.66
816.622	38.01
816.797	38.75
816.972	38.17
817.147	37.47
817.322	37.16
817.496	37.98
817.671	37.5
817.846	36.98
818.021	36.8
818.196	36.79
818.371	34.82
818.545	35.35
818.72	34.4
818.895	34.29
819.069	34.22
819.244	34.29
819.419	33.5
819.594	33.64
819.768	33.39
819.943	33.15
820.117	33.51
820.292	33.52
820.467	33.82
820.641	34.49
820.816	34.34
820.99	34.47
821.165	34.73
821.339	34.5
821.514	34.37
821.688	34.73
821.863	34.71
822.037	34.5
822.212	34.47
822.386	34.39
822.56	34.4
822.735	34.29
822.909	34.28
823.084	34.16
823.258	34.23
823.432	33.92
823.606	34.05
823.781	33.91
823.955	33.81
824.129	33.69
824.303	33.61
824.478	33.91
824.652	34.04
824.826	33.81
825	33.92
825.174	33.62
825.348	33.66
825.523	33.77
825.697	33.83
825.871	33.56
826.045	33.51
826.219	33.89
826.393	34.66
826.567	35.15
826.741	34.61
826.915	34.36
827.089	34.77
827.263	34.94
827.437	35.43
827.611	35.54
827.784	35.76
827.958	36.27
828.132	36.61
828.306	37.16
828.48	37.24
828.654	36.65
828.827	35.8
829.001	36.56
829.175	37.06
829.349	37.34
829.522	37.38
829.696	37.02
829.87	36.69
830.044	36.1
830.217	35.47
830.391	34.59
830.565	33.96
830.738	32.96
830.912	33.73
831.085	34.79
831.259	34.52
831.432	33.55
831.606	33.11
831.779	32.59
831.953	33.72
832.126	34.39
832.3	34.75
832.473	34.83
832.647	34.83
832.82	34.47
832.994	35.42
833.167	34.66
833.34	34.61
833.514	34.96
833.687	35.39
833.86	35.83
834.034	35.87
834.207	35.15
834.38	34.77
834.553	34.7
834.727	34.33
834.9	34.9
835.073	36.07
835.246	35.48
835.419	36.29
835.593	36.74
835.766	36.31
835.939	36.13
836.112	36.14
836.285	36.45
836.458	36.55
836.631	37.3
836.804	36.57
836.977	37.57
837.15	37.59
837.323	36.27
837.496	35.29
837.669	34.56
837.842	34.01
838.015	32.85
838.188	31.85
838.361	30.95
838.533	30.44
838.706	29.66
838.879	28.94
839.052	30.26
839.225	29.62
839.398	29.75
839.57	30.4
839.743	31.99
839.916	33.53
840.088	33.59
840.261	33.76
840.434	35.31
840.607	35.2
840.779	35.15
840.952	34.43
841.124	36.49
841.297	35.69
841.47	36.19
841.642	36.29
841.815	37.59
841.987	36.12
842.16	34.57
842.332	34.42
842.505	35.5
842.677	35.56
842.85	38.09
843.022	40.17
843.194	43.26
843.367	42.22
843.539	43.44
843.712	42.81
843.884	40.37
844.056	40.11
844.229	43.04
844.401	42.35
844.573	41.72
844.745	42.08
844.918	38.87
845.09	38.88
845.262	35.73
845.434	32.53
845.606	33.43
845.779	35.04
845.951	35.24
846.123	39.36
846.295	40.4
846.467	38.48
846.639	39.98
846.811	38.6
846.983	37.77
847.155	41.42
847.327	37.72
847.499	39.31
847.671	42.21
847.843	45.13
848.015	42.03
848.187	40.34
848.359	39.75
848.531	37.19
848.703	40.09
848.875	37.13
849.047	38.43
849.218	36.26
849.39	36.48
849.562	36.59
849.734	37.5
849.905	36.14
850.077	27.73
850.249	29.74
850.421	30.71
850.592	30.99
850.764	34.52
850.936	31.62
851.107	32.78
851.279	34.21
851.451	35.24
851.622	34.48
851.794	37.18
851.965	37.63
852.137	39.01
852.308	43.78
852.48	45.79
852.651	45.15
852.823	43.34
852.994	43.87
853.166	46.8
853.337	47.8
853.509	46.51
853.68	47.02
853.851	45.75
854.023	45.27
854.194	45.38
854.365	42.94
854.537	42.02
854.708	42.1
854.879	43.56
855.05	44.45
855.222	42.3
855.393	39.4
855.564	38.76
855.735	39.21
855.906	38.53
856.078	40.84
856.249	40.56
856.42	40.92
856.591	39.57
856.762	39.37
856.933	38.03
857.104	40.6
857.275	41.6
857.446	45.38
857.617	45.66
857.788	46.41
857.959	47.58
858.13	49.47
858.301	48.17
858.472	47.68
858.643	45.29
858.814	46.65
858.985	42.9
859.155	42.52
859.326	40.83
859.497	38.55
859.668	33.63
859.839	35.69
860.009	37.31
860.18	34.97
860.351	33.33
860.522	36.49
860.692	34.26
860.863	37.07
861.034	38.15
861.204	40.18
861.375	36.65
861.546	36.38
861.716	35.96
861.887	38.8
862.057	38.14
862.228	38.45
862.398	40.13
862.569	43.09
862.739	40.8
862.91	44.27
863.08	40.37
863.251	38.55
863.421	42.03
863.592	47.66
863.762	47.29
863.932	46.77
864.103	46.79
864.273	48.13
864.443	44.38
864.614	42.29
864.784	43.27
864.954	39.72
865.125	37.97
865.295	40.15
865.465	42.51
865.635	40.96
865.805	41.27
865.976	42.38
866.146	45.07
866.316	41.48
866.486	42.37
866.656	37.38
866.826	39.9
866.996	36.72
867.166	40.26
867.336	40.86
867.506	38.32
867.676	43.64
867.846	39.15
868.016	37.98
868.186	36.1
868.356	36.57
868.526	40.48
868.696	39.22
868.866	42.54
869.036	41.72
869.206	44.55
869.376	47.87
869.545	45.07
869.715	44.63
869.885	38.51
870.055	41.84
870.224	43
870.394	47.27
870.564	43.93
870.734	43.31
870.903	42.57
871.073	50.09
871.243	48.73
871.412	50.28
871.582	48.67
871.751	51.78
871.921	53.25
872.091	53.25
872.26	53.03
872.43	48.02
872.599	47.86
872.769	50.9
872.938	48.42
873.108	47.17
873.277	43.36
873.446	46.26
873.616	44.5
873.785	40.89
873.955	44.89
874.124	46.03
874.293	45.26
874.463	45.18
874.632	44.82
874.801	40.96
874.971	37.49
875.14	40.85
875.309	43.07
875.478	46.36
875.647	43.18
875.817	39.74
875.986	39.89
876.155	31.2
876.324	29.45
876.493	28.76
876.662	30.03
876.831	33.17
877	34.95
877.17	35.25
877.339	34.52
877.508	33.78
877.677	29.55
877.846	33.13
878.015	37.05
878.184	38.37
878.352	41.89
878.521	42.72
878.69	41.92
878.859	41.29
879.028	39.51
879.197	37.25
879.366	41.43
879.534	39.58
879.703	39.24
879.872	38.25
880.041	35.65
880.21	35.22
880.378	35.05
880.547	34.39
880.716	33.61
880.884	34.84
881.053	34.43
881.222	34.18
881.39	34.59
881.559	34.47
881.727	34.38
881.896	34.23
882.065	34.76
882.233	35.41
882.402	35.52
882.57	35.63
882.739	35.98
882.907	36.52
883.076	36.3
883.244	36.88
883.412	37.16
883.581	37.53
883.749	36.52
883.918	36.97
884.086	36.78
884.254	37.34
884.423	36.77
884.591	35.5
884.759	34.76
884.927	34.5
885.096	34.85
885.264	34.69
885.432	34.01
885.6	35.21
885.769	34.53
885.937	34.06
886.105	34.26
886.273	35.71
886.441	35.31
886.609	36.05
886.777	40.14
886.945	44.46
887.113	43.35
887.281	42.44
887.449	44.01
887.617	45.8
887.785	41.45
887.953	42.47
888.121	43.47
888.289	41.97
888.457	38.95
888.625	38.19
888.793	36.52
888.961	32.95
889.129	29.25
889.296	31.32
889.464	29.86
889.632	26.77
889.8	22.66
889.967	27.75
890.135	24.45
