Data from 2938476_Reflection_1.txt Node
Date: Wed Jun 17 13:16:16 EDT 2015
User: robert
Spectrometer: USB4E03002
Autoset integration time: false
Trigger mode: 4
Integration Time (sec): 1.000000E-1
Scans to average: 10
Electric dark correction enabled: true
Nonlinearity correction enabled: false
Boxcar width: 5
Stray light correction enabled: false
XAxis mode: Wavelengths
Stop averaging: false
Number of Pixels in Spectrum: 3648
>>>>>Begin Spectral Data<<<<<
177.575	98.65
177.794	43.16
178.014	45.59
178.233	69.86
178.452	76
178.672	158.26
178.891	27.26
179.11	-129.06
179.33	-116.73
179.549	-132
179.768	-232.75
179.987	-125.26
180.207	-64.78
180.426	-29.24
180.645	-238.24
180.864	-6.67
181.084	-9.8
181.303	-10.25
181.522	10.35
181.741	-6.56
181.96	5.64
182.179	2.62
182.398	224.73
182.618	-97.06
182.837	-19.22
183.056	41.27
183.275	57.27
183.494	49.67
183.713	37.86
183.932	18.29
184.151	-31.05
184.37	-5.06
184.589	14.45
184.808	40.04
185.027	36.49
185.246	29.52
185.465	-108.92
185.684	-175.41
185.903	-1409.84
186.122	-198.86
186.341	-22.67
186.56	41.12
186.779	53.31
186.998	-42.95
187.216	-138.36
187.435	-35.36
187.654	-50.37
187.873	-38.85
188.092	-330.13
188.311	49.32
188.53	-48.6
188.748	34.99
188.967	124.01
189.186	266.67
189.405	168.96
189.623	112.96
189.842	42.3
190.061	0.93
190.28	-26.97
190.498	-57.74
190.717	23.31
190.936	31.43
191.154	409.75
191.373	-2619.33
191.592	-1088.65
191.81	536.12
192.029	534.88
192.248	198.02
192.466	161.45
192.685	100.91
192.904	167.57
193.122	881.52
193.341	1398.92
193.559	-5.22
193.778	93.18
193.996	129.68
194.215	53.92
194.433	69.41
194.652	4.2
194.87	11.01
195.089	41.47
195.307	251.28
195.526	247.78
195.744	120.7
195.963	103.02
196.181	162.39
196.399	138.25
196.618	102.84
196.836	88.57
197.055	100.29
197.273	134.48
197.491	219.9
197.71	223.09
197.928	128.85
198.146	150.23
198.365	124.94
198.583	100.92
198.801	106.09
199.019	160.08
199.238	150.58
199.456	67.65
199.674	50.7
199.892	27.14
200.111	32.4
200.329	60.29
200.547	0.08
200.765	29.01
200.983	56.7
201.202	61.94
201.42	18
201.638	76.13
201.856	113.41
202.074	77.08
202.292	94.77
202.51	62.91
202.728	0.09
202.946	39.17
203.165	39.26
203.383	31.88
203.601	26.87
203.819	6.31
204.037	6.01
204.255	16.45
204.473	46.67
204.691	69.71
204.909	104.16
205.127	125.71
205.345	168.84
205.562	200.59
205.78	160.89
205.998	209.57
206.216	211.44
206.434	203.82
206.652	18.15
206.87	-23.04
207.088	-58.5
207.306	-39.85
207.523	-1.01
207.741	-8.42
207.959	-19.25
208.177	6.41
208.395	10.33
208.612	-2.09
208.83	46.22
209.048	46.83
209.266	37.96
209.483	13.15
209.701	-23.15
209.919	-136.59
210.136	-248.25
210.354	-156.58
210.572	-525.75
210.79	-375.66
211.007	-235.43
211.225	-918.8
211.442	-75.78
211.66	-49.45
211.878	-0.47
212.095	-8.79
212.313	-11.17
212.53	4.2
212.748	9.7
212.966	15.42
213.183	43.48
213.401	32.14
213.618	42.7
213.836	33.34
214.053	36.02
214.271	36.21
214.488	33.01
214.705	56.5
214.923	56.98
215.14	58.23
215.358	47.89
215.575	24.9
215.793	37.8
216.01	23.88
216.227	21.49
216.445	18.88
216.662	20.93
216.879	28.67
217.097	26.19
217.314	13.82
217.531	19.78
217.749	18.29
217.966	16.92
218.183	15.02
218.4	20.01
218.618	23.07
218.835	15.42
219.052	13.13
219.269	6.67
219.487	9.64
219.704	13.36
219.921	3.69
220.138	7.87
220.355	5.88
220.572	2.51
220.79	-2.77
221.007	-6.74
221.224	-7.25
221.441	-4.53
221.658	6.46
221.875	4.59
222.092	12.5
222.309	8.56
222.526	5.15
222.743	12.82
222.96	22.15
223.177	18.24
223.394	20.62
223.611	19.87
223.828	21.76
224.045	21.31
224.262	19.1
224.479	11.91
224.696	13.94
224.913	14.52
225.13	13.6
225.347	10.59
225.564	13.64
225.781	13.91
225.997	13.39
226.214	11.04
226.431	8.64
226.648	11.26
226.865	11.16
227.082	11.9
227.298	11.34
227.515	12.38
227.732	11.09
227.949	10.93
228.165	9.84
228.382	10.8
228.599	10.58
228.816	11.39
229.032	9.12
229.249	10.67
229.466	9.18
229.682	10.36
229.899	7.67
230.116	9.23
230.332	10.51
230.549	10.86
230.765	9.46
230.982	12.22
231.199	11.9
231.415	13.11
231.632	11.05
231.848	13.02
232.065	10.97
232.281	11.32
232.498	11.53
232.714	8.6
232.931	7.41
233.147	7.37
233.364	6.13
233.58	6.42
233.797	8.12
234.013	8.56
234.23	8.28
234.446	8.33
234.662	8.65
234.879	9.53
235.095	11.5
235.312	11.44
235.528	9.78
235.744	9.93
235.961	8.5
236.177	8.35
236.393	8.57
236.61	9.04
236.826	7.6
237.042	9.38
237.258	8.75
237.475	6.63
237.691	10.13
237.907	11.52
238.123	12.43
238.339	13.85
238.556	13.38
238.772	12.6
238.988	11.8
239.204	12.87
239.42	12.7
239.636	12.99
239.853	12.84
240.069	11.15
240.285	11.33
240.501	10.55
240.717	10.58
240.933	10.44
241.149	11.16
241.365	10.91
241.581	11.25
241.797	10.81
242.013	10.47
242.229	10.13
242.445	11.07
242.661	10.78
242.877	10.35
243.093	9.61
243.309	9.32
243.525	8.83
243.741	9.34
243.957	7.84
244.173	8.08
244.388	8.3
244.604	9.09
244.82	8.61
245.036	8.44
245.252	8.2
245.468	8.77
245.683	8.45
245.899	8.02
246.115	7.78
246.331	8.52
246.547	8.29
246.762	8.02
246.978	8.13
247.194	8.07
247.409	8.56
247.625	9.06
247.841	8.7
248.057	8.91
248.272	9.08
248.488	9.72
248.703	9.18
248.919	9.13
249.135	9.02
249.35	8.85
249.566	9.07
249.782	8.68
249.997	8.6
250.213	8.25
250.428	8.02
250.644	8.4
250.859	7.67
251.075	6.99
251.29	7.39
251.506	7.76
251.721	8.15
251.937	7.47
252.152	8.21
252.368	8.22
252.583	8.67
252.798	9.59
253.014	8.75
253.229	9.31
253.445	11.03
253.66	11.06
253.875	9.87
254.091	8.48
254.306	9.76
254.521	8.6
254.737	7.68
254.952	8.44
255.167	7.75
255.383	7.68
255.598	8.06
255.813	8.16
256.028	8.09
256.244	8.31
256.459	8.22
256.674	7.59
256.889	7.58
257.104	7.74
257.32	7.29
257.535	7.28
257.75	7.48
257.965	7.01
258.18	6.89
258.395	6.65
258.61	7.09
258.826	7.11
259.041	7.03
259.256	7.12
259.471	7.23
259.686	6.85
259.901	6.72
260.116	7.11
260.331	7.1
260.546	7.06
260.761	7
260.976	6.16
261.191	5.64
261.406	5.98
261.621	5.58
261.836	5.05
262.05	5.15
262.265	5.27
262.48	4.77
262.695	4.72
262.91	5.1
263.125	4.98
263.34	5.47
263.555	6.02
263.769	5.86
263.984	5.82
264.199	6.4
264.414	6.22
264.629	6.46
264.843	6.01
265.058	5.82
265.273	4.83
265.488	5.02
265.702	4.53
265.917	4.4
266.132	3.49
266.346	3.87
266.561	3.58
266.776	4.24
266.99	3.84
267.205	4.44
267.42	4.38
267.634	5.52
267.849	5.71
268.063	6.3
268.278	6.45
268.492	7.2
268.707	6.1
268.922	6.31
269.136	6.15
269.351	6.33
269.565	5.99
269.78	5.96
269.994	5.34
270.209	5.29
270.423	5.01
270.637	5
270.852	5.15
271.066	5.44
271.281	5.67
271.495	5.71
271.709	5.88
271.924	5.82
272.138	6.09
272.353	6.26
272.567	6.18
272.781	6.27
272.996	6.36
273.21	6.31
273.424	7.11
273.638	6.6
273.853	6.4
274.067	6.5
274.281	6.85
274.495	6.77
274.71	6.47
274.924	6.5
275.138	6.58
275.352	6.22
275.566	5.79
275.781	4.72
275.995	4.93
276.209	5.42
276.423	4.91
276.637	4.43
276.851	5.07
277.065	5.23
277.279	5.21
277.493	5.06
277.707	5.17
277.921	5.88
278.135	6.7
278.349	6.75
278.563	6.02
278.777	6.33
278.991	6.58
279.205	5.99
279.419	6.15
279.633	6.21
279.847	6.71
280.061	6.51
280.275	5.83
280.489	5.27
280.703	5.51
280.917	5.81
281.131	5.55
281.344	5.82
281.558	5.87
281.772	5.27
281.986	5.14
282.2	4.77
282.414	5.03
282.627	5.28
282.841	5.64
283.055	5.39
283.269	5.72
283.482	5.76
283.696	5.1
283.91	5.12
284.123	5.55
284.337	5.49
284.551	5.64
284.764	5.63
284.978	5.65
285.192	5.69
285.405	5.58
285.619	5.29
285.833	5.7
286.046	6.06
286.26	6.41
286.473	6.57
286.687	6.85
286.9	6.38
287.114	6.7
287.327	6.9
287.541	6.9
287.754	7.18
287.968	7.32
288.181	7.13
288.395	7.34
288.608	6.95
288.822	6.68
289.035	6.68
289.248	6.86
289.462	6.54
289.675	6.66
289.889	6.95
290.102	6.77
290.315	6.32
290.529	6.23
290.742	6.18
290.955	6.42
291.169	7.05
291.382	7.15
291.595	7.54
291.808	7.74
292.022	7.12
292.235	7.23
292.448	7.76
292.661	8.1
292.875	8.24
293.088	7.98
293.301	7.86
293.514	7.29
293.727	7.57
293.94	7.19
294.153	7.25
294.367	7.65
294.58	7.56
294.793	7.3
295.006	7.19
295.219	7.38
295.432	7.42
295.645	7.44
295.858	7.49
296.071	7.46
296.284	7.65
296.497	7.38
296.71	7.24
296.923	7
297.136	6.93
297.349	6.83
297.562	6.82
297.775	7.02
297.988	7.14
298.201	7.16
298.414	6.28
298.626	6.46
298.839	7.02
299.052	7.13
299.265	7.55
299.478	7.55
299.691	7.94
299.903	7.61
300.116	7.26
300.329	7.59
300.542	7.65
300.755	8.24
300.967	8.1
301.18	7.53
301.393	7.34
301.605	7.09
301.818	7.1
302.031	6.81
302.243	6.62
302.456	6.94
302.669	6.39
302.881	6.3
303.094	6.68
303.307	6.71
303.519	7.33
303.732	7.47
303.944	6.88
304.157	7.27
304.37	7.22
304.582	7.11
304.795	7.23
305.007	7.02
305.22	7.25
305.432	7.14
305.645	7.24
305.857	7.22
306.069	7.4
306.282	7.45
306.494	6.96
306.707	6.57
306.919	6.35
307.132	5.73
307.344	6.29
307.556	6.09
307.769	6.01
307.981	6.13
308.193	6.42
308.406	6.44
308.618	6.95
308.83	7.28
309.043	7.7
309.255	8.08
309.467	8.46
309.679	8.26
309.892	8.71
310.104	8.55
310.316	8.62
310.528	8.05
310.74	8.1
310.953	8.22
311.165	8.08
311.377	8.01
311.589	8.96
311.801	9
312.013	9.29
312.225	8.9
312.437	9.23
312.649	8.67
312.862	8.94
313.074	9.55
313.286	9.27
313.498	9.61
313.71	9.62
313.922	9.02
314.134	9.02
314.346	8.73
314.558	9.05
314.77	8.81
314.982	9.37
315.193	9.2
315.405	9.13
315.617	9.44
315.829	8.91
316.041	9.72
316.253	9.18
316.465	9.17
316.677	9.23
316.888	8.76
317.1	8.62
317.312	8.36
317.524	8.94
317.736	8.25
317.947	7.94
318.159	8.41
318.371	7.79
318.583	7.93
318.794	8.24
319.006	8.65
319.218	8.56
319.43	9.3
319.641	9.27
319.853	9.14
320.064	9.14
320.276	8.85
320.488	8.34
320.699	8.5
320.911	8.83
321.123	8.92
321.334	8.7
321.546	9.01
321.757	8.43
321.969	8.99
322.18	8.33
322.392	8.97
322.603	9.81
322.815	9.98
323.026	10.09
323.238	9.75
323.449	9.12
323.661	9.06
323.872	9.21
324.083	9.8
324.295	9.65
324.506	9.85
324.718	9.57
324.929	8.83
325.14	8.79
325.352	8.82
325.563	8.68
325.774	9.3
325.986	9.22
326.197	9.49
326.408	9.3
326.62	9.04
326.831	8.92
327.042	9.31
327.253	9.1
327.464	9.02
327.676	9.22
327.887	9.19
328.098	8.8
328.309	9.25
328.52	8.93
328.732	8.62
328.943	8.43
329.154	9.04
329.365	8.72
329.576	9.52
329.787	10.16
329.998	9.71
330.209	9.84
330.42	10.37
330.631	9.81
330.842	9.76
331.053	9.78
331.264	10.15
331.475	9.82
331.686	9.89
331.897	10.03
332.108	9.65
332.319	10.24
332.53	10.52
332.741	10.22
332.952	10.43
333.163	10.36
333.374	10.44
333.585	10.19
333.795	9.92
334.006	9.52
334.217	8.85
334.428	8.68
334.639	8.92
334.849	8.44
335.06	8.44
335.271	8.59
335.482	8.21
335.692	7.87
335.903	8.16
336.114	8.23
336.325	8.5
336.535	8.59
336.746	8.5
336.957	8.1
337.167	8.41
337.378	8.53
337.589	8.5
337.799	8.88
338.01	9.2
338.22	9.27
338.431	9.75
338.642	9.87
338.852	10.17
339.063	10.45
339.273	10.12
339.484	9.93
339.694	9.19
339.905	9.26
340.115	9.75
340.326	10.08
340.536	9.99
340.746	10
340.957	9.75
341.167	9.52
341.378	9.67
341.588	9.96
341.799	10.22
342.009	10.41
342.219	10.63
342.43	10.65
342.64	10.82
342.85	10.31
343.061	10.48
343.271	10.35
343.481	10.54
343.691	10.21
343.902	10.04
344.112	10.16
344.322	10.56
344.532	10.24
344.743	9.8
344.953	9.47
345.163	9.93
345.373	9.68
345.583	9.59
345.793	9.29
346.004	10.22
346.214	10.14
346.424	9.77
346.634	9.83
346.844	9.97
347.054	9.62
347.264	9.46
347.474	9.69
347.684	9.58
347.894	9.58
348.104	9.73
348.314	8.86
348.524	8.84
348.734	8.82
348.944	8.58
349.154	8.16
349.364	8.93
349.574	8.88
349.784	8.45
349.994	8.6
350.204	9.04
350.413	8.97
350.623	9.12
350.833	8.82
351.043	8.93
351.253	8.59
351.463	9.25
351.672	8.6
351.882	8.54
352.092	8.47
352.302	8.43
352.511	8.5
352.721	8.84
352.931	8.94
353.141	9.12
353.35	9.01
353.56	9.08
353.77	8.69
353.979	8.97
354.189	8.82
354.399	9.08
354.608	9.03
354.818	8.62
355.027	8.42
355.237	8.35
355.447	8.43
355.656	8.89
355.866	8.91
356.075	8.73
356.285	8.55
356.494	8.7
356.704	8.65
356.913	8.84
357.123	9.04
357.332	9.2
357.542	8.87
357.751	8.9
357.96	8.54
358.17	8.79
358.379	9.07
358.589	9.09
358.798	8.96
359.007	8.94
359.217	8.74
359.426	8.51
359.635	8.45
359.845	8.88
360.054	8.85
360.263	8.8
360.472	8.78
360.682	8.73
360.891	8.96
361.1	9.05
361.309	8.98
361.519	8.91
361.728	8.94
361.937	9.09
362.146	8.76
362.355	8.66
362.564	8.76
362.774	8.66
362.983	8.73
363.192	8.47
363.401	8.42
363.61	8.42
363.819	8.75
364.028	9.09
364.237	8.68
364.446	8.84
364.655	8.76
364.864	8.78
365.073	8.92
365.282	8.83
365.491	8.9
365.7	9.02
365.909	8.96
366.118	8.78
366.327	8.39
366.536	8.51
366.745	8.61
366.954	8.64
367.162	8.57
367.371	8.2
367.58	7.95
367.789	7.98
367.998	7.68
368.207	7.56
368.415	7.46
368.624	7.57
368.833	7.51
369.042	7.14
369.25	7.44
369.459	7.45
369.668	7.5
369.877	7.54
370.085	7.35
370.294	7.71
370.503	7.64
370.711	7.68
370.92	7.51
371.129	7.6
371.337	7.72
371.546	7.39
371.754	6.86
371.963	7.23
372.171	7.28
372.38	6.99
372.589	6.72
372.797	6.95
373.006	6.5
373.214	6.64
373.423	6.76
373.631	6.97
373.84	6.98
374.048	7.46
374.256	6.98
374.465	6.96
374.673	7.45
374.882	7.58
375.09	7.55
375.298	7.62
375.507	7.68
375.715	7.53
375.923	7.34
376.132	7.43
376.34	7.52
376.548	7.47
376.757	7.38
376.965	7.19
377.173	7.15
377.381	6.92
377.59	7.12
377.798	7.12
378.006	7.1
378.214	7.08
378.423	7.13
378.631	6.94
378.839	7.08
379.047	7.14
379.255	6.86
379.463	6.65
379.671	6.71
379.879	6.51
380.088	6.51
380.296	6.58
380.504	6.39
380.712	6.43
380.92	6.27
381.128	6.54
381.336	6.37
381.544	6.55
381.752	6.54
381.96	6.54
382.168	6.62
382.376	6.29
382.584	6.16
382.791	5.97
382.999	5.94
383.207	6.07
383.415	5.67
383.623	5.68
383.831	5.71
384.039	5.94
384.247	5.89
384.454	5.72
384.662	5.68
384.87	5.67
385.078	5.83
385.285	5.83
385.493	5.92
385.701	6.28
385.909	6.38
386.116	6.37
386.324	6.12
386.532	6.18
386.739	6.34
386.947	6.54
387.155	6.6
387.362	6.53
387.57	6.22
387.778	5.97
387.985	5.69
388.193	5.61
388.4	5.61
388.608	5.65
388.816	5.49
389.023	5.48
389.231	5.59
389.438	5.41
389.646	5.56
389.853	5.58
390.061	5.55
390.268	5.4
390.475	5.51
390.683	5.42
390.89	5.59
391.098	5.55
391.305	5.51
391.512	5.27
391.72	5.32
391.927	5.22
392.135	5.25
392.342	5.21
392.549	5.45
392.756	5.21
392.964	5.35
393.171	5.27
393.378	5.39
393.586	5.41
393.793	5.46
394	5.53
394.207	5.47
394.414	5.68
394.622	5.66
394.829	5.46
395.036	5.33
395.243	5.07
395.45	4.98
395.657	5.13
395.864	5.15
396.072	5.2
396.279	5.25
396.486	5.19
396.693	4.83
396.9	4.77
397.107	4.8
397.314	4.97
397.521	5.11
397.728	4.97
397.935	4.93
398.142	4.65
398.349	4.47
398.556	4.34
398.763	4.4
398.97	4.34
399.177	4.41
399.383	4.52
399.59	4.31
399.797	4.29
400.004	4.45
400.211	4.31
400.418	4.39
400.625	4.46
400.831	4.27
401.038	4.28
401.245	4.3
401.452	4.29
401.658	4.18
401.865	4.38
402.072	4.22
402.279	4.21
402.485	4.13
402.692	4.28
402.899	4.34
403.105	4.44
403.312	4.51
403.519	4.69
403.725	4.67
403.932	4.76
404.138	4.85
404.345	4.92
404.552	4.88
404.758	4.86
404.965	4.84
405.171	4.78
405.378	4.65
405.584	4.45
405.791	4.41
405.997	4.46
406.204	4.44
406.41	4.31
406.617	4.2
406.823	4.11
407.029	4.3
407.236	4.21
407.442	4.12
407.649	4.26
407.855	4.31
408.061	4.3
408.268	4.25
408.474	3.98
408.68	4.25
408.887	4.41
409.093	4.66
409.299	4.62
409.505	4.45
409.712	4.45
409.918	4.28
410.124	4.24
410.33	4.33
410.537	4.37
410.743	4.64
410.949	4.27
411.155	4.33
411.361	4.04
411.567	4
411.773	4.23
411.98	4.41
412.186	4.55
412.392	4.77
412.598	4.6
412.804	4.66
413.01	4.46
413.216	4.58
413.422	4.31
413.628	4.31
413.834	4.18
414.04	4.04
414.246	3.9
414.452	3.93
414.658	3.9
414.864	3.96
415.07	3.92
415.275	4.01
415.481	3.98
415.687	4.08
415.893	4.14
416.099	4.14
416.305	4.2
416.511	4.26
416.716	4.26
416.922	4.12
417.128	4.22
417.334	4.19
417.539	4.17
417.745	4.21
417.951	4.2
418.157	4.1
418.362	4.1
418.568	4.13
418.774	4.03
418.979	4.01
419.185	4.12
419.391	4.01
419.596	4.01
419.802	4.03
420.008	4.06
420.213	3.55
420.419	3.61
420.624	3.64
420.83	3.63
421.035	3.6
421.241	3.56
421.446	3.46
421.652	3.48
421.857	3.49
422.063	3.47
422.268	3.42
422.474	3.96
422.679	3.94
422.885	3.92
423.09	3.89
423.295	3.97
423.501	4.06
423.706	4.13
423.911	4.14
424.117	4.17
424.322	4.22
424.527	4.29
424.733	4.19
424.938	4.29
425.143	4.36
425.349	4.36
425.554	4.4
425.759	4.35
425.964	4.28
426.169	4.19
426.375	4.16
426.58	4.12
426.785	3.99
426.99	4.04
427.195	3.94
427.4	3.9
427.605	3.89
427.811	3.82
428.016	3.87
428.221	3.94
428.426	4.08
428.631	3.97
428.836	3.9
429.041	3.88
429.246	3.9
429.451	3.98
429.656	4.04
429.861	4.12
430.066	4.15
430.271	4.1
430.476	4.02
430.681	4
430.886	4.12
431.09	4.1
431.295	4.18
431.5	4.21
431.705	4.15
431.91	4.07
432.115	4.05
432.32	4.06
432.524	4.13
432.729	4.23
432.934	4.16
433.139	4.12
433.343	4.17
433.548	4.1
433.753	4.11
433.958	4.05
434.162	4.01
434.367	4.02
434.572	3.98
434.776	3.97
434.981	3.94
435.186	4.05
435.39	4.1
435.595	4.09
435.799	4.14
436.004	4.05
436.209	4.17
436.413	4.24
436.618	4.11
436.822	4.15
437.027	4.04
437.231	4.02
437.436	3.89
437.64	3.76
437.845	3.81
438.049	3.78
438.253	3.83
438.458	3.78
438.662	3.73
438.867	3.74
439.071	3.76
439.275	3.81
439.48	3.83
439.684	3.88
439.888	4
440.093	3.91
440.297	3.94
440.501	3.95
440.706	3.9
440.91	3.94
441.114	4.03
441.318	3.9
441.523	3.96
441.727	4.03
441.931	4.1
442.135	4.01
442.339	3.99
442.543	4.01
442.748	3.88
442.952	3.92
443.156	3.95
443.36	3.93
443.564	4.02
443.768	3.95
443.972	3.86
444.176	3.79
444.38	3.82
444.584	3.81
444.788	3.8
444.992	3.89
445.196	3.88
445.4	3.81
445.604	3.76
445.808	3.74
446.012	3.76
446.216	3.76
446.42	3.78
446.624	3.78
446.828	3.82
447.032	3.78
447.235	3.83
447.439	3.81
447.643	3.82
447.847	3.81
448.051	3.81
448.254	3.79
448.458	3.78
448.662	3.73
448.866	3.78
449.069	3.78
449.273	3.76
449.477	3.64
449.681	3.71
449.884	3.72
450.088	3.75
450.292	3.73
450.495	3.72
450.699	3.68
450.902	3.75
451.106	3.63
451.31	3.56
451.513	3.64
451.717	3.66
451.92	3.66
452.124	3.72
452.327	3.79
452.531	3.74
452.734	3.67
452.938	3.7
453.141	3.66
453.345	3.65
453.548	3.72
453.752	3.69
453.955	3.76
454.158	3.72
454.362	3.72
454.565	3.66
454.769	3.8
454.972	3.82
455.175	3.86
455.379	3.74
455.582	3.8
455.785	3.85
455.988	3.83
456.192	3.83
456.395	3.85
456.598	3.76
456.801	3.75
457.005	3.68
457.208	3.79
457.411	3.76
457.614	3.78
457.817	3.74
458.021	3.69
458.224	3.68
458.427	3.66
458.63	3.66
458.833	3.67
459.036	3.74
459.239	3.73
459.442	3.68
459.645	3.72
459.848	3.75
460.051	3.85
460.254	3.94
460.457	3.94
460.66	3.91
460.863	3.83
461.066	3.92
461.269	3.81
461.472	3.83
461.675	3.79
461.878	3.8
462.081	3.78
462.284	3.81
462.486	3.67
462.689	3.67
462.892	3.71
463.095	3.81
463.298	3.67
463.5	3.67
463.703	3.6
463.906	3.61
464.109	3.52
464.311	3.57
464.514	3.46
464.717	3.63
464.92	3.56
465.122	3.58
465.325	3.5
465.528	3.72
465.73	3.84
465.933	4
466.135	4.01
466.338	4.01
466.541	4.08
466.743	4.11
466.946	3.98
467.148	4.06
467.351	4.05
467.553	4.13
467.756	4
467.958	3.85
468.161	3.78
468.363	3.8
468.566	3.85
468.768	3.72
468.971	3.64
469.173	3.58
469.375	3.55
469.578	3.52
469.78	3.48
469.983	3.44
470.185	3.49
470.387	3.52
470.59	3.55
470.792	3.49
470.994	3.49
471.196	3.61
471.399	3.69
471.601	3.76
471.803	3.79
472.005	3.86
472.208	3.87
472.41	3.93
472.612	3.94
472.814	3.89
473.016	3.9
473.218	4.03
473.421	3.95
473.623	3.99
473.825	3.95
474.027	3.89
474.229	3.85
474.431	3.83
474.633	3.79
474.835	3.71
475.037	3.75
475.239	3.75
475.441	3.68
475.643	3.7
475.845	3.7
476.047	3.74
476.249	3.77
476.451	3.85
476.653	3.9
476.855	3.9
477.057	3.84
477.258	3.83
477.46	3.87
477.662	3.96
477.864	3.9
478.066	3.87
478.268	3.86
478.469	3.82
478.671	3.65
478.873	3.63
479.075	3.59
479.276	3.66
479.478	3.59
479.68	3.56
479.882	3.48
480.083	3.51
480.285	3.53
480.487	3.45
480.688	3.51
480.89	3.55
481.091	3.55
481.293	3.56
481.495	3.55
481.696	3.56
481.898	3.58
482.099	3.6
482.301	3.59
482.502	3.59
482.704	3.62
482.905	3.64
483.107	3.64
483.308	3.64
483.51	3.66
483.711	3.66
483.913	3.7
484.114	3.72
484.315	3.72
484.517	3.72
484.718	3.68
484.92	3.66
485.121	3.6
485.322	3.59
485.524	3.59
485.725	3.57
485.926	3.55
486.127	3.54
486.329	3.52
486.53	3.49
486.731	3.5
486.932	3.53
487.134	3.53
487.335	3.55
487.536	3.57
487.737	3.58
487.938	3.58
488.139	3.63
488.341	3.59
488.542	3.64
488.743	3.68
488.944	3.67
489.145	3.68
489.346	3.67
489.547	3.65
489.748	3.61
489.949	3.61
490.15	3.63
490.351	3.63
490.552	3.64
490.753	3.65
490.954	3.66
491.155	3.69
491.356	3.71
491.557	3.73
491.758	3.77
491.959	3.85
492.159	3.9
492.36	3.89
492.561	3.9
492.762	3.91
492.963	3.83
493.164	3.87
493.364	3.86
493.565	3.88
493.766	3.93
493.967	3.97
494.167	3.94
494.368	3.93
494.569	3.95
494.769	4
494.97	4.03
495.171	4.17
495.371	4.12
495.572	4.17
495.773	4.21
495.973	4.17
496.174	4.15
496.375	4.15
496.575	4.13
496.776	4.15
496.976	4.12
497.177	4.16
497.377	4.14
497.578	4.08
497.778	4.1
497.979	4.11
498.179	4.14
498.38	4.18
498.58	4.18
498.78	4.22
498.981	4.17
499.181	4.21
499.382	4.21
499.582	4.12
499.782	4.2
499.983	4.16
500.183	4.09
500.383	4.19
500.584	4.17
500.784	4.21
500.984	4.18
501.184	4.2
501.385	4.26
501.585	4.33
501.785	4.41
501.985	4.46
502.185	4.52
502.386	4.56
502.586	4.53
502.786	4.56
502.986	4.64
503.186	4.62
503.386	4.72
503.586	4.74
503.786	4.67
503.987	4.69
504.187	4.64
504.387	4.62
504.587	4.62
504.787	4.64
504.987	4.63
505.187	4.57
505.387	4.68
505.587	4.68
505.786	4.68
505.986	4.78
506.186	4.74
506.386	4.85
506.586	4.88
506.786	4.86
506.986	4.85
507.186	4.87
507.386	4.92
507.585	4.86
507.785	4.91
507.985	4.86
508.185	4.88
508.384	4.92
508.584	4.89
508.784	4.96
508.984	5.03
509.183	5.09
509.383	5.13
509.583	5.17
509.782	5.28
509.982	5.35
510.182	5.42
510.381	5.42
510.581	5.48
510.781	5.53
510.98	5.52
511.18	5.55
511.379	5.56
511.579	5.57
511.778	5.53
511.978	5.63
512.177	5.51
512.377	5.53
512.576	5.57
512.776	5.55
512.975	5.54
513.175	5.53
513.374	5.49
513.573	5.49
513.773	5.57
513.972	5.61
514.172	5.59
514.371	5.66
514.57	5.66
514.77	5.71
514.969	5.75
515.168	5.78
515.367	5.75
515.567	5.84
515.766	5.88
515.965	5.86
516.164	5.96
516.364	5.95
516.563	5.97
516.762	6
516.961	5.95
517.16	5.95
517.359	5.98
517.559	6.07
517.758	6.07
517.957	6.1
518.156	6.15
518.355	6.08
518.554	6.12
518.753	6.18
518.952	6.12
519.151	6.17
519.35	6.24
519.549	6.24
519.748	6.19
519.947	6.27
520.146	6.3
520.345	6.29
520.544	6.31
520.743	6.3
520.942	6.24
521.141	6.37
521.339	6.33
521.538	6.3
521.737	6.35
521.936	6.37
522.135	6.31
522.333	6.27
522.532	6.26
522.731	6.35
522.93	6.34
523.129	6.37
523.327	6.31
523.526	6.34
523.725	6.33
523.923	6.32
524.122	6.36
524.321	6.41
524.519	6.4
524.718	6.4
524.917	6.33
525.115	6.34
525.314	6.43
525.512	6.46
525.711	6.46
525.909	6.47
526.108	6.53
526.306	6.48
526.505	6.49
526.703	6.53
526.902	6.58
527.1	6.65
527.299	6.67
527.497	6.65
527.696	6.72
527.894	6.78
528.092	6.83
528.291	6.86
528.489	6.94
528.688	7.01
528.886	7.07
529.084	7.11
529.283	7.13
529.481	7.2
529.679	7.26
529.877	7.27
530.076	7.31
530.274	7.31
530.472	7.28
530.67	7.31
530.869	7.27
531.067	7.25
531.265	7.28
531.463	7.29
531.661	7.24
531.859	7.24
532.057	7.25
532.255	7.27
532.454	7.3
532.652	7.33
532.85	7.38
533.048	7.41
533.246	7.45
533.444	7.43
533.642	7.52
533.84	7.56
534.038	7.59
534.236	7.62
534.434	7.6
534.632	7.62
534.83	7.69
535.027	7.63
535.225	7.68
535.423	7.66
535.621	7.72
535.819	7.68
536.017	7.75
536.215	7.82
536.412	7.84
536.61	7.92
536.808	8
537.006	7.93
537.203	7.98
537.401	8.02
537.599	8.08
537.797	8.08
537.994	8.16
538.192	8.12
538.39	8.06
538.587	8.1
538.785	8.01
538.983	7.98
539.18	8.07
539.378	8.07
539.575	8.05
539.773	8.07
539.97	8.13
540.168	8.08
540.366	8.16
540.563	8.19
540.761	8.22
540.958	8.33
541.155	8.38
541.353	8.39
541.55	8.44
541.748	8.52
541.945	8.59
542.143	8.64
542.34	8.75
542.537	8.77
542.735	8.84
542.932	8.88
543.129	8.88
543.327	8.92
543.524	9.02
543.721	9.07
543.919	9.08
544.116	9.11
544.313	9.12
544.51	9.12
544.708	9.14
544.905	9.15
545.102	9.16
545.299	9.22
545.496	9.25
545.693	9.3
545.891	9.35
546.088	9.39
546.285	9.37
546.482	9.38
546.679	9.44
546.876	9.49
547.073	9.56
547.27	9.58
547.467	9.65
547.664	9.73
547.861	9.75
548.058	9.82
548.255	9.84
548.452	10.05
548.649	10.15
548.846	10.26
549.043	10.3
549.24	10.4
549.437	10.5
549.633	10.49
549.83	10.56
550.027	10.6
550.224	10.65
550.421	10.73
550.618	10.59
550.814	10.62
551.011	10.64
551.208	10.79
551.405	10.82
551.601	10.83
551.798	10.88
551.995	10.88
552.191	10.9
552.388	10.92
552.585	10.92
552.781	11.15
552.978	11.16
553.175	11.16
553.371	11.08
553.568	11.14
553.764	11.28
553.961	11.35
554.157	11.55
554.354	11.6
554.55	11.74
554.747	11.96
554.943	11.86
555.14	12.04
555.336	12.37
555.533	12.52
555.729	12.6
555.926	12.73
556.122	12.67
556.318	12.6
556.515	12.76
556.711	12.82
556.907	12.81
557.104	12.94
557.3	12.87
557.496	12.77
557.693	12.84
557.889	12.9
558.085	12.91
558.281	12.98
558.478	13.24
558.674	13.2
558.87	13.34
559.066	13.34
559.262	13.37
559.459	13.5
559.655	13.56
559.851	13.62
560.047	13.64
560.243	13.64
560.439	13.78
560.635	13.65
560.831	13.8
561.027	13.69
561.223	13.82
561.419	13.9
561.615	13.96
561.811	13.9
562.007	13.94
562.203	14
562.399	14.11
562.595	14.26
562.791	14.48
562.987	14.54
563.183	14.69
563.379	14.67
563.575	14.8
563.771	14.9
563.966	15.13
564.162	15.19
564.358	15.35
564.554	15.39
564.75	15.42
564.945	15.44
565.141	15.47
565.337	15.52
565.533	15.73
565.728	15.72
565.924	15.8
566.12	15.87
566.315	15.95
566.511	15.99
566.707	16.12
566.902	16.19
567.098	16.19
567.293	16.29
567.489	16.39
567.684	16.39
567.88	16.58
568.076	16.67
568.271	16.79
568.467	16.9
568.662	16.94
568.858	17
569.053	17.1
569.248	17.21
569.444	17.3
569.639	17.33
569.835	17.4
570.03	17.4
570.225	17.37
570.421	17.32
570.616	17.38
570.812	17.42
571.007	17.54
571.202	17.62
571.397	17.7
571.593	17.76
571.788	17.89
571.983	17.95
572.178	18.01
572.374	18.22
572.569	18.35
572.764	18.43
572.959	18.6
573.154	18.69
573.35	18.72
573.545	18.74
573.74	18.85
573.935	18.85
574.13	19.03
574.325	19.27
574.52	19.3
574.715	19.32
574.91	19.42
575.105	19.45
575.3	19.5
575.495	19.58
575.69	19.79
575.885	19.9
576.08	20.09
576.275	20.05
576.47	20.06
576.665	20.16
576.86	20.31
577.055	20.41
577.25	20.53
577.444	20.48
577.639	20.59
577.834	20.63
578.029	20.73
578.224	20.68
578.418	20.86
578.613	20.89
578.808	20.85
579.003	20.95
579.197	20.93
579.392	21.05
579.587	21.23
579.781	21.29
579.976	21.4
580.171	21.34
580.365	21.45
580.56	21.53
580.755	21.61
580.949	21.83
581.144	21.85
581.338	22
581.533	22.03
581.727	22.28
581.922	22.39
582.116	22.53
582.311	22.78
582.505	23.04
582.7	23.1
582.894	23.2
583.089	23.19
583.283	23.22
583.478	23.39
583.672	23.47
583.866	23.46
584.061	23.53
584.255	23.42
584.449	23.41
584.644	23.23
584.838	23.11
585.032	23.19
585.226	23.3
585.421	23.45
585.615	23.35
585.809	23.54
586.003	23.42
586.198	23.49
586.392	23.61
586.586	23.66
586.78	23.87
586.974	24.14
587.168	24.18
587.363	24.08
587.557	24.11
587.751	24.26
587.945	24.31
588.139	24.52
588.333	24.6
588.527	24.6
588.721	24.64
588.915	24.8
589.109	24.73
589.303	24.73
589.497	24.9
589.691	24.96
589.885	25
590.079	24.86
590.273	24.88
590.466	24.98
590.66	25.16
590.854	25.16
591.048	25.01
591.242	25.08
591.436	25.17
591.629	25.28
591.823	25.34
592.017	25.3
592.211	25.44
592.404	25.59
592.598	25.5
592.792	25.45
592.986	25.54
593.179	25.63
593.373	25.65
593.567	25.58
593.76	25.61
593.954	25.65
594.147	25.73
594.341	25.72
594.535	25.66
594.728	25.72
594.922	25.65
595.115	25.7
595.309	25.63
595.502	25.77
595.696	25.93
595.889	26.04
596.083	26.14
596.276	26.25
596.47	26.31
596.663	26.42
596.856	26.44
597.05	26.76
597.243	26.81
597.437	27.05
597.63	27.16
597.823	27.26
598.017	27.23
598.21	27.33
598.403	27.39
598.596	27.48
598.79	27.48
598.983	27.6
599.176	27.52
599.369	27.66
599.563	27.62
599.756	27.54
599.949	27.58
600.142	27.71
600.335	27.62
600.528	27.6
600.722	27.56
600.915	27.69
601.108	27.7
601.301	27.66
601.494	27.74
601.687	27.83
601.88	27.91
602.073	27.93
602.266	27.89
602.459	27.93
602.652	27.96
602.845	28.14
603.038	28.22
603.231	28.36
603.424	28.46
603.617	28.38
603.809	28.48
604.002	28.53
604.195	28.59
604.388	28.59
604.581	28.71
604.774	28.72
604.966	28.69
605.159	28.61
605.352	28.71
605.545	28.71
605.737	28.81
605.93	28.75
606.123	28.83
606.316	28.95
606.508	29.03
606.701	29.01
606.894	29.09
607.086	29.2
607.279	29.15
607.471	29.08
607.664	29.24
607.857	29.27
608.049	29.27
608.242	29.32
608.434	29.3
608.627	29.35
608.819	29.37
609.012	29.34
609.204	29.48
609.397	29.56
609.589	29.45
609.782	29.49
609.974	29.58
610.166	29.82
610.359	29.8
610.551	29.91
610.743	29.81
610.936	29.94
611.128	30.19
611.32	30.2
611.513	30.36
611.705	30.53
611.897	30.61
612.09	30.61
612.282	30.56
612.474	30.68
612.666	30.53
612.858	30.79
613.051	30.7
613.243	30.66
613.435	30.46
613.627	30.23
613.819	30.28
614.011	30.27
614.203	30.24
614.395	30.24
614.588	30.07
614.78	30.03
614.972	29.9
615.164	30.05
615.356	30.13
615.548	30.22
615.74	30.33
615.932	30.31
616.124	30.23
616.315	30.3
616.507	30.22
616.699	30.4
616.891	30.44
617.083	30.75
617.275	30.71
617.467	30.54
617.659	30.66
617.85	30.95
618.042	31.06
618.234	31.21
618.426	31.28
618.618	31.32
618.809	31.32
619.001	31.3
619.193	31.01
619.384	31.14
619.576	31.27
619.768	31.33
619.959	31.29
620.151	31.37
620.343	31.05
620.534	30.97
620.726	31.02
620.917	31.19
621.109	31.52
621.301	31.8
621.492	31.91
621.684	31.8
621.875	31.72
622.067	31.81
622.258	31.8
622.45	32.05
622.641	32.28
622.832	32.38
623.024	32.09
623.215	31.89
623.407	31.76
623.598	31.68
623.789	31.77
623.981	31.85
624.172	31.72
624.363	31.71
624.555	31.72
624.746	31.52
624.937	31.53
625.129	31.69
625.32	31.85
625.511	31.93
625.702	31.97
625.893	32.06
626.085	32.1
626.276	32.21
626.467	32.29
626.658	32.26
626.849	32.38
627.04	32.58
627.231	32.56
627.422	32.58
627.614	32.53
627.805	32.53
627.996	32.61
628.187	32.67
628.378	32.65
628.569	32.64
628.76	32.77
628.951	32.93
629.142	32.64
629.332	32.71
629.523	32.71
629.714	32.94
629.905	33.01
630.096	32.92
630.287	32.86
630.478	32.8
630.669	32.85
630.859	32.95
631.05	32.88
631.241	32.95
631.432	33.08
631.623	32.94
631.813	32.78
632.004	32.66
632.195	32.75
632.385	32.77
632.576	32.85
632.767	32.81
632.957	32.8
633.148	32.81
633.339	32.82
633.529	32.97
633.72	33.09
633.91	33.21
634.101	33.34
634.292	33.43
634.482	33.44
634.673	33.5
634.863	33.44
635.054	33.42
635.244	33.4
635.435	33.59
635.625	33.32
635.815	33.47
636.006	33.62
636.196	33.75
636.387	33.67
636.577	33.74
636.767	33.73
636.958	33.94
637.148	34.04
637.338	34.25
637.529	34.19
637.719	34.54
637.909	34.38
638.099	34.22
638.29	34.12
638.48	34.21
638.67	34
638.86	34.03
639.05	34.09
639.241	33.99
639.431	34.04
639.621	34.13
639.811	33.99
640.001	34.19
640.191	34.33
640.381	34.38
640.571	34.36
640.761	34.55
640.951	34.44
641.141	34.46
641.331	34.63
641.521	34.43
641.711	34.39
641.901	34.42
642.091	34.29
642.281	34.26
642.471	34.46
642.661	34.55
642.851	34.49
643.041	34.72
643.231	34.81
643.42	34.79
643.61	34.93
643.8	34.99
643.99	34.87
644.18	34.86
644.369	34.73
644.559	34.71
644.749	34.65
644.939	35.04
645.128	35.05
645.318	34.99
645.508	34.96
645.697	34.77
645.887	34.96
646.076	35.09
646.266	35.16
646.456	35.48
646.645	35.23
646.835	35.33
647.024	35.08
647.214	34.97
647.403	34.95
647.593	34.94
647.782	35.19
647.972	35.08
648.161	34.97
648.351	35.06
648.54	34.98
648.73	35.16
648.919	35.22
649.108	35.36
649.298	35.38
649.487	35.55
649.677	35.52
649.866	35.59
650.055	35.68
650.244	35.57
650.434	35.62
650.623	35.54
650.812	35.57
651.002	35.44
651.191	35.5
651.38	35.72
651.569	35.52
651.758	35.54
651.947	35.46
652.137	35.6
652.326	35.86
652.515	35.77
652.704	36.1
652.893	36.21
653.082	36.39
653.271	36.19
653.46	36
653.649	36.25
653.838	36.25
654.027	36.33
654.216	36.09
654.405	35.86
654.594	36.01
654.783	35.69
654.972	35.52
655.161	35.38
655.35	35.5
655.539	35.56
655.728	35.32
655.916	35.7
656.105	35.4
656.294	35.54
656.483	35.79
656.672	35.69
656.86	35.75
657.049	35.86
657.238	35.88
657.427	35.9
657.615	35.98
657.804	36.02
657.993	35.82
658.181	36.16
658.37	36.12
658.559	36.29
658.747	36.46
658.936	36.61
659.125	36.45
659.313	36.5
659.502	36.54
659.69	36.72
659.879	37
660.067	37.07
660.256	36.91
660.444	36.9
660.633	36.54
660.821	36.46
661.01	36.43
661.198	36.85
661.387	37
661.575	37
661.763	36.76
661.952	36.57
662.14	36.88
662.328	36.94
662.517	37.11
662.705	37.41
662.893	37.4
663.082	37.37
663.27	37.18
663.458	37.05
663.646	37.24
663.834	37.26
664.023	37.29
664.211	36.82
664.399	36.59
664.587	36.39
664.775	36.41
664.963	36.33
665.152	36.3
665.34	36.74
665.528	36.84
665.716	36.64
665.904	36.81
666.092	36.79
666.28	36.95
666.468	37.29
666.656	37.5
666.844	37.58
667.032	37.82
667.22	38
667.408	37.82
667.596	37.81
667.784	37.92
667.971	37.62
668.159	37.8
668.347	37.8
668.535	38.04
668.723	38.23
668.911	37.89
669.098	37.64
669.286	37.49
669.474	37.25
669.662	37.17
669.849	37.18
670.037	37.34
670.225	37.17
670.413	37.35
670.6	37.05
670.788	36.99
670.976	37.3
671.163	37.33
671.351	37.37
671.538	37.54
671.726	37.85
671.913	37.71
672.101	37.81
672.289	38.11
672.476	37.89
672.664	38.21
672.851	38.35
673.039	38.37
673.226	38.51
673.413	38.53
673.601	38.49
673.788	38.17
673.976	38.23
674.163	38.22
674.35	38.16
674.538	38.24
674.725	38.02
674.912	37.58
675.1	37.72
675.287	37.83
675.474	38.01
675.662	38.12
675.849	38.11
676.036	38.2
676.223	38.37
676.411	38.35
676.598	38.52
676.785	38.25
676.972	38.3
677.159	38.19
677.346	38.08
677.533	38.12
677.721	38.12
677.908	38.21
678.095	38.3
678.282	38.1
678.469	38.05
678.656	38.02
678.843	38.2
679.03	38.16
679.217	38.13
679.404	38.23
679.591	38.16
679.778	38.05
679.964	38.15
680.151	38.08
680.338	38.24
680.525	38.34
680.712	38.28
680.899	38.53
681.086	38.78
681.272	38.94
681.459	38.99
681.646	39.18
681.833	39.3
682.02	39.4
682.206	39.37
682.393	39.41
682.58	39.43
682.766	39.35
682.953	39.03
683.14	38.76
683.326	38.84
683.513	38.8
683.7	38.58
683.886	38.41
684.073	38.31
684.259	38.35
684.446	38.31
684.632	37.98
684.819	38.08
685.005	38.28
685.192	38.44
685.378	38.41
685.565	38.38
685.751	38.13
685.938	38.07
686.124	38.16
686.31	38.18
686.497	38.41
686.683	38.53
686.87	38.63
687.056	38.47
687.242	38.56
687.429	38.52
687.615	38.52
687.801	38.8
687.987	38.99
688.174	38.8
688.36	38.78
688.546	38.56
688.732	38.64
688.918	38.74
689.105	38.83
689.291	38.97
689.477	38.96
689.663	39.01
689.849	39.15
690.035	39.1
690.221	39.46
690.407	39.73
690.593	39.66
690.779	39.66
690.965	39.75
691.151	40.03
691.337	39.71
691.523	39.91
691.709	39.95
691.895	39.76
692.081	40
692.267	39.97
692.453	39.79
692.639	40.02
692.825	40.05
693.011	39.54
693.196	39.48
693.382	39.69
693.568	39.56
693.754	39.59
693.94	39.51
694.125	39.54
694.311	39.42
694.497	39.54
694.682	39.56
694.868	39.72
695.054	39.93
695.239	39.96
695.425	40.08
695.611	39.93
695.796	39.95
695.982	39.94
696.168	39.89
696.353	40
696.539	39.89
696.724	39.93
696.91	39.85
697.095	39.95
697.281	39.97
697.466	39.83
697.652	39.83
697.837	39.78
698.023	39.95
698.208	39.89
698.393	39.8
698.579	39.94
698.764	39.95
698.949	40.06
699.135	40.02
699.32	40.14
699.505	40.13
699.691	40.21
699.876	40.14
700.061	39.96
700.246	39.9
700.432	40.01
700.617	39.8
700.802	39.86
700.987	39.75
701.172	40.49
701.358	40.42
701.543	40.64
701.728	40.92
701.913	41
702.098	41.07
702.283	41.49
702.468	41.93
702.653	42.2
702.838	42.44
703.023	42.58
703.208	41.79
703.393	41.67
703.578	41.54
703.763	41.44
703.948	41.47
704.133	41.43
704.318	41.22
704.503	40.85
704.688	40.79
704.873	40.41
705.057	39.88
705.242	39.85
705.427	40.13
705.612	40.54
705.797	40.09
705.981	40.22
706.166	40.6
706.351	40.5
706.536	40.42
706.72	40.48
706.905	40.49
707.09	41.06
707.274	41.11
707.459	40.72
707.644	40.42
707.828	40.57
708.013	40.74
708.197	40.37
708.382	40.63
708.567	40.41
708.751	40.18
708.936	40.29
709.12	39.89
709.305	39.82
709.489	39.77
709.673	39.95
709.858	40.21
710.042	40.18
710.227	40.8
710.411	40.71
710.596	40.96
710.78	41.06
710.964	40.74
711.149	40.97
711.333	41.02
711.517	41.45
711.702	41.09
711.886	40.92
712.07	40.92
712.254	40.39
712.438	40.1
712.623	40.17
712.807	40.28
712.991	40.52
713.175	40.55
713.359	40.58
713.544	40.17
713.728	40.45
713.912	40.28
714.096	40.13
714.28	40.22
714.464	40.29
714.648	40.14
714.832	40.13
715.016	40.05
715.2	40.02
715.384	40.16
715.568	40.21
715.752	39.82
715.936	39.96
716.12	40.18
716.304	40.11
716.488	40.24
716.671	40.13
716.855	40.13
717.039	40.07
717.223	39.99
717.407	39.77
717.59	39.85
717.774	40.17
717.958	40.16
718.142	40.12
718.325	40.39
718.509	40.58
718.693	40.98
718.877	41
719.06	41.38
719.244	41.62
719.428	41.69
719.611	41.98
719.795	42.18
719.978	42.14
720.162	41.92
720.345	41.84
720.529	41.75
720.713	41.49
720.896	41.65
721.08	41.72
721.263	41.76
721.446	41.86
721.63	41.45
721.813	41.15
721.997	41.47
722.18	41.39
722.364	41.28
722.547	41.17
722.73	40.97
722.914	41.21
723.097	40.89
723.28	40.95
723.464	40.8
723.647	40.95
723.83	41.05
724.013	40.81
724.197	40.82
724.38	41.15
724.563	41.06
724.746	41.59
724.929	41.52
725.112	41.46
725.296	41.32
725.479	41.5
725.662	41.7
725.845	41.83
726.028	41.67
726.211	41.48
726.394	41.42
726.577	41.77
726.76	41.71
726.943	41.48
727.126	41.59
727.309	41.3
727.492	41.06
727.675	41.1
727.858	41.24
728.041	41.56
728.224	41.82
728.407	41.89
728.589	41.18
728.772	41.01
728.955	41.07
729.138	41.02
729.321	41.14
729.503	41.11
729.686	40.9
729.869	40.8
730.052	40.93
730.234	41.27
730.417	40.7
730.6	41.07
730.782	41.42
730.965	41.39
731.148	41.17
731.33	41.52
731.513	42
731.695	42.1
731.878	41.82
732.061	41.54
732.243	41.53
732.426	41.76
732.608	42.09
732.791	41.83
732.973	41.43
733.156	41.97
733.338	41.56
733.52	41.07
733.703	41.22
733.885	41.65
734.068	41.86
734.25	41.46
734.432	41.14
734.615	40.65
734.797	40.31
734.979	40.84
735.162	40.48
735.344	40.84
735.526	41.05
735.708	41.29
735.891	41.03
736.073	40.84
736.255	40.54
736.437	41.5
736.619	41.21
736.802	41.23
736.984	41.18
737.166	41.53
737.348	41.28
737.53	41.2
737.712	40.61
737.894	40.54
738.076	41.08
738.258	41.25
738.44	40.5
738.622	41.06
738.804	40.94
738.986	40.39
739.168	39.78
739.35	39.54
739.532	39.32
739.714	40.11
739.896	39.76
740.078	39.31
740.259	38.58
740.441	39.49
740.623	39.95
740.805	40.49
740.987	41.3
741.168	41.92
741.35	42.3
741.532	42.59
741.714	42.12
741.895	42.39
742.077	42.12
742.259	43.08
742.44	42.75
742.622	42.22
742.804	41.65
742.985	41.43
743.167	41.17
743.348	40.92
743.53	41.48
743.711	40.73
743.893	40.69
744.075	40.6
744.256	40.69
744.438	40.88
744.619	40.72
744.8	40.88
744.982	40.62
745.163	41.15
745.345	41.36
745.526	41.25
745.707	41.94
745.889	42.19
746.07	42.62
746.252	42.98
746.433	42.5
746.614	42.6
746.795	42.64
746.977	42.85
747.158	43.1
747.339	42.89
747.52	42.27
747.702	42.54
747.883	42.48
748.064	42.87
748.245	42.42
748.426	42.31
748.607	42.73
748.788	43.23
748.97	43.16
749.151	42.22
749.332	42.1
749.513	42.44
749.694	41.7
749.875	41.38
750.056	40.68
750.237	40.72
750.418	40.71
750.599	41.21
750.78	41.13
750.96	41.31
751.141	41.35
751.322	41.6
751.503	41.3
751.684	41.78
751.865	42.51
752.046	42.92
752.226	43.34
752.407	43.49
752.588	43.03
752.769	42.89
752.949	42.46
753.13	42.2
753.311	42.36
753.492	42.95
753.672	42.79
753.853	42.61
754.034	42.82
754.214	42.53
754.395	42.22
754.575	42.16
754.756	42.32
754.937	42.6
755.117	43.13
755.298	43.18
755.478	42.46
755.659	42.46
755.839	42.97
756.02	42.94
756.2	42.44
756.381	42.51
756.561	42.33
756.741	41.86
756.922	41.33
757.102	41.14
757.283	41.62
757.463	41.92
757.643	42.6
757.823	41.96
758.004	42.02
758.184	41.84
758.364	42.33
758.545	42.65
758.725	42.27
758.905	42.24
759.085	41.8
759.265	41.44
759.446	40.86
759.626	40.39
759.806	40.79
759.986	40.57
760.166	41.28
760.346	41.05
760.526	40
760.706	40.83
760.886	40.98
761.066	40.76
761.246	40.89
761.426	41.69
761.606	40.69
761.786	40.03
761.966	40.07
762.146	39.7
762.326	39.78
762.506	40.13
762.686	39.85
762.866	40.08
763.046	40.44
763.225	40.41
763.405	40.18
763.585	40.63
763.765	41.04
763.945	41.28
764.124	41.57
764.304	41.54
764.484	41.75
764.664	42.18
764.843	42.24
765.023	42.4
765.203	42.24
765.382	42.28
765.562	42.75
765.741	42.39
765.921	42.33
766.101	42.36
766.28	42.59
766.46	42.61
766.639	42.25
766.819	41.85
766.998	42.53
767.178	42.46
767.357	42.79
767.537	42.29
767.716	43.3
767.896	43.21
768.075	43.18
768.254	43.06
768.434	43.72
768.613	43.68
768.792	43.8
768.972	42.7
769.151	42.89
769.33	42.38
769.51	43.44
769.689	43.41
769.868	43.53
770.047	43.73
770.226	43.07
770.406	42.21
770.585	42.39
770.764	42.65
770.943	42.61
771.122	43
771.301	43.33
771.48	42.75
771.66	41.9
771.839	41.65
772.018	41.09
772.197	41.87
772.376	42.88
772.555	43.29
772.734	43.29
772.913	43.8
773.092	42.71
773.271	43.33
773.449	43.33
773.628	42.51
773.807	42.77
773.986	42.79
774.165	42.62
774.344	41.3
774.523	41.24
774.701	41.59
774.88	41.89
775.059	43.14
775.238	42.34
775.417	42.71
775.595	44.05
775.774	43.79
775.953	43.37
776.131	43.93
776.31	44.84
776.489	44.75
776.667	43.8
776.846	43.28
777.025	42.69
777.203	42.24
777.382	41.29
777.56	41.35
777.739	40.68
777.917	41.48
778.096	41.31
778.274	41.31
778.453	40.73
778.631	41.41
778.81	41.43
778.988	41.52
779.166	42.15
779.345	43.2
779.523	42.46
779.702	42.33
779.88	43.09
780.058	42.13
780.237	42.83
780.415	43.04
780.593	42.73
780.771	43.09
780.95	42.98
781.128	42.62
781.306	41.9
781.484	43.09
781.662	43.73
781.841	42.84
782.019	43.81
782.197	42.29
782.375	41.77
782.553	41.8
782.731	41.8
782.909	41.73
783.087	41.63
783.265	42.31
783.443	40.81
783.621	40.91
783.799	40.38
783.977	40.3
784.155	41.1
784.333	42.03
784.511	42.17
784.689	42.23
784.867	41.79
785.045	41.06
785.223	40.4
785.4	39.99
785.578	39.05
785.756	39.94
785.934	40.26
786.112	40.3
786.289	40.23
786.467	40.08
786.645	39.66
786.823	39.34
787	40.16
787.178	39.98
787.356	40.99
787.533	41.85
787.711	41.03
787.889	39.52
788.066	39.22
788.244	39.54
788.421	39.84
788.599	40.4
788.776	40.8
788.954	40.72
789.131	40.96
789.309	40.93
789.486	40.87
789.664	41.07
789.841	42.63
790.019	43.66
790.196	42.89
790.373	43.68
790.551	43.46
790.728	44.01
790.906	44.64
791.083	45.55
791.26	45.2
791.437	45.23
791.615	45.74
791.792	45.91
791.969	45.25
792.146	46.05
792.324	44.87
792.501	45.15
792.678	44.78
792.855	43.44
793.032	42.09
793.209	42.62
793.387	42.8
793.564	41.81
793.741	41.42
793.918	40.77
794.095	40.68
794.272	40.98
794.449	40.98
794.626	41.51
794.803	42.69
794.98	42.78
795.157	41.66
795.334	39.97
795.511	40.21
795.688	39.67
795.864	39.34
796.041	38.92
796.218	39.26
796.395	38.49
796.572	37.93
796.749	37.76
796.925	38.55
797.102	39.44
797.279	41.04
797.456	41.61
797.632	42.01
797.809	42.73
797.986	43.65
798.162	43.23
798.339	44.09
798.516	43.43
798.692	43.51
798.869	42.91
799.046	42.5
799.222	42.46
799.399	41.61
799.575	40.8
799.752	40.81
799.928	39.62
800.105	38.92
800.281	38.22
800.458	39.91
800.634	39.87
800.811	39.92
800.987	39.97
801.163	39.4
801.34	39.64
801.516	40.31
801.692	39.89
801.869	39.35
802.045	40.84
802.221	41.72
802.398	41.31
802.574	39.5
802.75	39.4
802.926	40.47
803.103	40.85
803.279	41.19
803.455	41.07
803.631	42.03
803.807	43.59
803.983	42.77
804.16	42.15
804.336	42.11
804.512	43.69
804.688	43.75
804.864	42.65
805.04	42.75
805.216	43.31
805.392	43.63
805.568	43.18
805.744	42.92
805.92	42.2
806.096	42.29
806.272	41.42
806.448	41.35
806.623	41.03
806.799	40.75
806.975	40.71
807.151	40.39
807.327	40.23
807.503	38.81
807.678	38.52
807.854	38.81
808.03	38.54
808.206	39.12
808.381	39.45
808.557	39.48
808.733	40.23
808.908	39.99
809.084	40.39
809.26	39.96
809.435	41.13
809.611	41.2
809.787	41.96
809.962	41.34
810.138	41.4
810.313	40.8
810.489	42.28
810.664	42.45
810.84	44.08
811.015	43.31
811.191	43.21
811.366	43.36
811.542	42.54
811.717	41.74
811.892	42.9
812.068	42.93
812.243	42.83
812.419	40.96
812.594	40.58
812.769	39.67
812.944	39.12
813.12	38.72
813.295	40.26
813.47	42.04
813.645	42.58
813.821	43.19
813.996	44.08
814.171	44.33
814.346	45.23
814.521	44.81
814.697	43.66
814.872	44.7
815.047	45.02
815.222	43.92
815.397	42.66
815.572	42.95
815.747	41.3
815.922	41.1
816.097	42.13
816.272	40.89
816.447	42.02
816.622	42.31
816.797	42.09
816.972	42.99
817.147	42.5
817.322	43.06
817.496	42.93
817.671	45.55
817.846	44.39
818.021	43.51
818.196	44.04
818.371	43.73
818.545	44.28
818.72	44.65
818.895	42.93
819.069	43.25
819.244	43.08
819.419	41.71
819.594	39.94
819.768	40.81
819.943	41.15
820.117	41.01
820.292	41.08
820.467	40.66
820.641	40.74
820.816	40.76
820.99	40.05
821.165	39.48
821.339	39.82
821.514	39.6
821.688	39.32
821.863	39.22
822.037	39.24
822.212	39.23
822.386	39.13
822.56	38.97
822.735	39.15
822.909	39.44
823.084	39.69
823.258	39.87
823.432	39.91
823.606	39.82
823.781	39.73
823.955	39.84
824.129	39.69
824.303	39.81
824.478	40.18
824.652	40.08
824.826	39.64
825	39.69
825.174	39.44
825.348	39.55
825.523	39.59
825.697	39.56
825.871	39.5
826.045	39.39
826.219	39.6
826.393	39.21
826.567	39.12
826.741	39.37
826.915	39.27
827.089	39.55
827.263	40.12
827.437	40.43
827.611	40.63
827.784	40.58
827.958	40.94
828.132	40.63
828.306	40.3
828.48	40.93
828.654	40.95
828.827	40.97
829.001	40.7
829.175	40.28
829.349	40.65
829.522	41.24
829.696	41.49
829.87	41.36
830.044	41.64
830.217	42.06
830.391	41.77
830.565	41.96
830.738	42.4
830.912	41.94
831.085	40.5
831.259	39.85
831.432	39.15
831.606	39.18
831.779	38.4
831.953	38.61
832.126	38.45
832.3	37.95
832.473	38.63
832.647	38.59
832.82	39.13
832.994	39.45
833.167	38.72
833.34	37.92
833.514	37.61
833.687	38.08
833.86	38.1
834.034	37.95
834.207	38.61
834.38	38.68
834.553	39.33
834.727	39.52
834.9	39.51
835.073	40.36
835.246	41.74
835.419	41.97
835.593	42
835.766	42.44
835.939	42.56
836.112	42.07
836.285	40.93
836.458	40.25
836.631	38.97
836.804	39.02
836.977	38.63
837.15	36.89
837.323	37.85
837.496	37.29
837.669	36.7
837.842	37.79
838.015	38.57
838.188	39.54
838.361	38.35
838.533	39.18
838.706	38.67
838.879	39.61
839.052	39.78
839.225	39.49
839.398	39.86
839.57	39.7
839.743	39.51
839.916	37.74
840.088	35.36
840.261	36.94
840.434	36.86
840.607	38.27
840.779	38.06
840.952	39.78
841.124	38.34
841.297	39
841.47	38.29
841.642	38.49
841.815	39.85
841.987	43.17
842.16	41.56
842.332	42.62
842.505	43.92
842.677	43.79
842.85	42.26
843.022	42.89
843.194	41.12
843.367	40.74
843.539	39.36
843.712	39.31
843.884	37.64
844.056	37.77
844.229	35.68
844.401	34.54
844.573	35.95
844.745	34.44
844.918	38.09
845.09	42.35
845.262	44.12
845.434	46.38
845.606	47.52
845.779	49.98
845.951	49.87
846.123	52.31
846.295	53.97
846.467	54.41
846.639	56.71
846.811	55.38
846.983	51.49
847.155	52.26
847.327	51.97
847.499	54.51
847.671	52.47
847.843	53.25
848.015	52.17
848.187	50.06
848.359	48.22
848.531	49.91
848.703	46.01
848.875	46.12
849.047	45.75
849.218	43.23
849.39	41.96
849.562	41.73
849.734	43.19
849.905	42.22
850.077	43.82
850.249	45.55
850.421	42.41
850.592	45.92
850.764	47.79
850.936	46.4
851.107	48.58
851.279	47.21
851.451	50.48
851.622	51.13
851.794	48.85
851.965	47.15
852.137	42.47
852.308	44.02
852.48	42.44
852.651	41.17
852.823	38.19
852.994	38.85
853.166	38.79
853.337	38.49
853.509	36.93
853.68	41.19
853.851	41.19
854.023	45.13
854.194	42.46
854.365	41.05
854.537	42.45
854.708	48.3
854.879	42.48
855.05	44.81
855.222	43.91
855.393	46.4
855.564	44.51
855.735	45.47
855.906	44.56
856.078	47.95
856.249	46.35
856.42	43.72
856.591	40.1
856.762	41.94
856.933	37.09
857.104	38.61
857.275	36.42
857.446	36.64
857.617	31.75
857.788	30.31
857.959	29.9
858.13	29.5
858.301	31.12
858.472	34.47
858.643	41.04
858.814	42.9
858.985	38.79
859.155	39.76
859.326	41.94
859.497	47.88
859.668	51.61
859.839	51.46
860.009	54.42
860.18	54.86
860.351	56.28
860.522	53.36
860.692	57.19
860.863	57.94
861.034	58.39
861.204	54.83
861.375	54.78
861.546	52.26
861.716	55.79
861.887	57.97
862.057	55.61
862.228	55.92
862.398	55.22
862.569	54.23
862.739	57.06
862.91	56.07
863.08	56.38
863.251	58.44
863.421	59.83
863.592	55.08
863.762	52.51
863.932	57.02
864.103	52.51
864.273	51.56
864.443	48.23
864.614	45.16
864.784	45.13
864.954	45.9
865.125	44.55
865.295	43.74
865.465	46.97
865.635	48.67
865.805	47.17
865.976	51.31
866.146	52.06
866.316	54.07
866.486	55.37
866.656	57.47
866.826	59.47
866.996	56.48
867.166	55.45
867.336	56.1
867.506	52.94
867.676	52.6
867.846	49.05
868.016	44.71
868.186	46.31
868.356	41.95
868.526	42.77
868.696	43.74
868.866	47.79
869.036	50.52
869.206	47.68
869.376	50.41
869.545	51.97
869.715	51.65
869.885	54.68
870.055	50.84
870.224	55.52
870.394	51.53
870.564	48.83
870.734	49.7
870.903	46.73
871.073	47.9
871.243	45.63
871.412	44.29
871.582	46.25
871.751	45.27
871.921	43.93
872.091	43.65
872.26	44.52
872.43	44.86
872.599	41.36
872.769	42.03
872.938	38.81
873.108	39.98
873.277	43.91
873.446	42.47
873.616	45.41
873.785	50.06
873.955	47.37
874.124	47.82
874.293	48.84
874.463	50.26
874.632	53.34
874.801	54.17
874.971	57.73
875.14	54.84
875.309	53.88
875.478	50.39
875.647	48.22
875.817	48.02
875.986	47.66
876.155	45.24
876.324	45.61
876.493	42.84
876.662	40.31
876.831	33.48
877	35.01
877.17	38
877.339	38.94
877.508	38.71
877.677	36.36
877.846	34.7
878.015	35.01
878.184	35.35
878.352	38.18
878.521	39.27
878.69	40.54
878.859	43.68
879.028	38.9
879.197	40.89
879.366	40.91
879.534	44.61
879.703	43.73
879.872	41.51
880.041	40.92
880.21	38.61
880.378	39.98
880.547	39.95
880.716	38.25
880.884	39.47
881.053	38.34
881.222	38.61
881.39	38.42
881.559	38.12
881.727	39.44
881.896	38.98
882.065	39.69
882.233	38.92
882.402	38.71
882.57	38.75
882.739	38.87
882.907	39.65
883.076	39
883.244	39.09
883.412	39.23
883.581	39.56
883.749	39.76
883.918	39.31
884.086	39.6
884.254	40
884.423	40.52
884.591	40.44
884.759	39.76
884.927	41.12
885.096	41.39
885.264	42.42
885.432	42.57
885.6	42.47
885.769	42.87
885.937	43.18
886.105	44.47
886.273	45.44
886.441	44.78
886.609	45.47
886.777	47.96
886.945	47.81
887.113	48.19
887.281	46.75
887.449	46.62
887.617	48.46
887.785	50.41
887.953	49.15
888.121	51.14
888.289	56.33
888.457	52.26
888.625	49.73
888.793	49.91
888.961	48.93
889.129	50.36
889.296	56.12
889.464	55.77
889.632	54.86
889.8	56.74
889.967	50.53
890.135	45.54
