Data from 2938521_Reflection_3.txt Node
Date: Tue Jun 16 22:17:53 EDT 2015
User: robert
Spectrometer: USB4E03002
Autoset integration time: false
Trigger mode: 4
Integration Time (sec): 1.000000E-1
Scans to average: 10
Electric dark correction enabled: true
Nonlinearity correction enabled: false
Boxcar width: 5
Stray light correction enabled: false
XAxis mode: Wavelengths
Stop averaging: false
Number of Pixels in Spectrum: 3648
>>>>>Begin Spectral Data<<<<<
177.575	-134.68
177.794	-98.25
178.014	-8.95
178.233	-20.74
178.452	-14.35
178.672	2.48
178.891	68.31
179.11	1579.34
179.33	3826.55
179.549	1036.49
179.768	426.87
179.987	638.46
180.207	591.14
180.426	216.1
180.645	190.21
180.864	187.43
181.084	186.88
181.303	177.23
181.522	126.63
181.741	112.19
181.96	113.75
182.179	125.03
182.398	105.24
182.618	98.05
182.837	93.41
183.056	80.09
183.275	85.35
183.494	85.7
183.713	81.55
183.932	80.5
184.151	75.61
184.37	70.33
184.589	80.7
184.808	92.78
185.027	107.86
185.246	143.82
185.465	143.61
185.684	158.45
185.903	155.81
186.122	144.89
186.341	143.18
186.56	208.24
186.779	215.97
186.998	231.2
187.216	204.5
187.435	213.51
187.654	205.22
187.873	296.94
188.092	386.1
188.311	-236.72
188.53	-200.77
188.748	-272.69
188.967	-4766.67
189.186	367.61
189.405	168.62
189.623	144.29
189.842	169.67
190.061	110.28
190.28	121.04
190.498	88.56
190.717	97.21
190.936	81.37
191.154	72.23
191.373	79.97
191.592	86.35
191.81	79.83
192.029	76.19
192.248	81.13
192.466	125.96
192.685	120.61
192.904	127.71
193.122	133.01
193.341	135.09
193.559	110.15
193.778	96.43
193.996	112.45
194.215	140.17
194.433	153.38
194.652	127.18
194.87	121.96
195.089	107.77
195.307	123.67
195.526	127.5
195.744	130.44
195.963	172.41
196.181	165.47
196.399	169.74
196.618	163.65
196.836	139.67
197.055	132.16
197.273	126.85
197.491	131.43
197.71	133.52
197.928	112.01
198.146	115.45
198.365	108.78
198.583	117.1
198.801	109.91
199.019	115.21
199.238	133.7
199.456	139.77
199.674	148.49
199.892	152.78
200.111	138.51
200.329	141.9
200.547	117.86
200.765	96.35
200.983	91.25
201.202	89.09
201.42	96.94
201.638	95.94
201.856	98.53
202.074	93.53
202.292	78.61
202.51	89
202.728	94.59
202.946	108.53
203.165	123.43
203.383	143.07
203.601	172.76
203.819	145.74
204.037	124.41
204.255	126.91
204.473	105.76
204.691	107.05
204.909	96
205.127	104.02
205.345	94.93
205.562	97.51
205.78	97.52
205.998	74.94
206.216	70.41
206.434	79.99
206.652	80.91
206.87	80.73
207.088	81.02
207.306	88.13
207.523	82.9
207.741	83.92
207.959	88.88
208.177	83.67
208.395	88.38
208.612	89.3
208.83	89.29
209.048	76
209.266	78.64
209.483	68.99
209.701	60.17
209.919	60.5
210.136	65.72
210.354	63.97
210.572	80.6
210.79	75.59
211.007	72.62
211.225	72.18
211.442	72.37
211.66	71.23
211.878	96.19
212.095	171.63
212.313	178.4
212.53	191.9
212.748	167.34
212.966	144.02
213.183	149.55
213.401	165.68
213.618	146.56
213.836	170.43
214.053	159.01
214.271	161.88
214.488	83.71
214.705	88.85
214.923	82.55
215.14	76.37
215.358	83.87
215.575	63.79
215.793	69.57
216.01	64.94
216.227	67.49
216.445	69.58
216.662	58.75
216.879	50.83
217.097	46.55
217.314	51.72
217.531	57.09
217.749	51.44
217.966	62.64
218.183	53.02
218.4	44.48
218.618	48.76
218.835	48.83
219.052	48.27
219.269	51.68
219.487	61.75
219.704	62.04
219.921	60.41
220.138	60.37
220.355	55.68
220.572	66.74
220.79	72.56
221.007	65.9
221.224	68.81
221.441	72.98
221.658	74.48
221.875	64.39
222.092	55.7
222.309	50.77
222.526	49.28
222.743	50.62
222.96	44.09
223.177	46.73
223.394	46.01
223.611	43.75
223.828	38.58
224.045	39.84
224.262	41.31
224.479	38.39
224.696	37.21
224.913	35.95
225.13	32.16
225.347	31.23
225.564	26.01
225.781	23.31
225.997	21.39
226.214	21.58
226.431	18.98
226.648	16.4
226.865	16.55
227.082	15.84
227.298	15.02
227.515	15.12
227.732	14.41
227.949	14.89
228.165	15.39
228.382	15
228.599	15.22
228.816	16.06
229.032	16.3
229.249	16.43
229.466	16.86
229.682	17.86
229.899	18.94
230.116	18.32
230.332	18.78
230.549	18.68
230.765	20.17
230.982	21.06
231.199	20.82
231.415	22.07
231.632	22.17
231.848	22.59
232.065	21.15
232.281	20.86
232.498	21.52
232.714	21.08
232.931	20.57
233.147	19.21
233.364	18.26
233.58	17.1
233.797	16.66
234.013	17.46
234.23	16.88
234.446	16.03
234.662	15.26
234.879	15.15
235.095	14.46
235.312	13.51
235.528	16.41
235.744	15.9
235.961	15.99
236.177	15.88
236.393	17.06
236.61	17.4
236.826	19.24
237.042	20.24
237.258	21.98
237.475	22.51
237.691	22.7
237.907	20.68
238.123	19.83
238.339	19.76
238.556	18.94
238.772	18.75
238.988	17.96
239.204	16.44
239.42	15.39
239.636	14.1
239.853	13.38
240.069	13.38
240.285	12.98
240.501	12.85
240.717	12.37
240.933	12.21
241.149	11.68
241.365	11.45
241.581	11.96
241.797	12.69
242.013	12.54
242.229	13.08
242.445	13.02
242.661	12.66
242.877	13.07
243.093	13.12
243.309	13.4
243.525	12.76
243.741	13
243.957	12.25
244.173	11
244.388	10.74
244.604	10.62
244.82	10.37
245.036	10.36
245.252	10.27
245.468	10.31
245.683	10.27
245.899	10.07
246.115	10.31
246.331	10.12
246.547	10.44
246.762	10.78
246.978	10.85
247.194	10.95
247.409	11.05
247.625	11.05
247.841	10.66
248.057	10.79
248.272	11.28
248.488	10.67
248.703	11.2
248.919	10.65
249.135	9.83
249.35	9.03
249.566	9.02
249.782	9.26
249.997	9.55
250.213	9.5
250.428	8.7
250.644	8.37
250.859	8.88
251.075	9.11
251.29	9.36
251.506	9.3
251.721	9.6
251.937	10.09
252.152	9.87
252.368	9.15
252.583	9.97
252.798	11
253.014	11.48
253.229	10.79
253.445	10.94
253.66	11.02
253.875	11.5
254.091	12.31
254.306	11.39
254.521	11.69
254.737	11.79
254.952	11.38
255.167	10.86
255.383	10.96
255.598	9.94
255.813	9.42
256.028	9.05
256.244	9.06
256.459	8.7
256.674	8.41
256.889	7.97
257.104	7.54
257.32	7.42
257.535	7.33
257.75	7.11
257.965	7.2
258.18	7.01
258.395	7.13
258.61	6.86
258.826	6.74
259.041	6.83
259.256	6.95
259.471	7.34
259.686	7.52
259.901	7.34
260.116	7.31
260.331	7.64
260.546	7.96
260.761	7.93
260.976	8.29
261.191	8.22
261.406	8.42
261.621	8.32
261.836	7.75
262.05	7.81
262.265	8.04
262.48	8.36
262.695	8.14
262.91	7.93
263.125	8.24
263.34	7.79
263.555	7.45
263.769	7.75
263.984	7.91
264.199	8.09
264.414	7.4
264.629	7.95
264.843	8.11
265.058	8.13
265.273	7.8
265.488	7.59
265.702	8.11
265.917	9
266.132	8.62
266.346	8.67
266.561	8.72
266.776	9.04
266.99	8.72
267.205	8.73
267.42	8.8
267.634	9.21
267.849	9.32
268.063	9.11
268.278	8.17
268.492	8.33
268.707	8.76
268.922	8.77
269.136	8.41
269.351	8.24
269.565	7.21
269.78	7.18
269.994	6.47
270.209	6.28
270.423	6.79
270.637	7.04
270.852	6.26
271.066	5.77
271.281	5.76
271.495	6.44
271.709	6.93
271.924	7.12
272.138	7.54
272.353	8.18
272.567	8.24
272.781	7.72
272.996	7.83
273.21	8.64
273.424	8.94
273.638	8.84
273.853	8.52
274.067	8.15
274.281	8.54
274.495	8.38
274.71	8.2
274.924	8.27
275.138	8.16
275.352	7.92
275.566	8.54
275.781	8.59
275.995	8.35
276.209	8.3
276.423	8.47
276.637	9.1
276.851	8.67
277.065	8.71
277.279	8.98
277.493	9.33
277.707	9.69
277.921	8.8
278.135	8.56
278.349	9.3
278.563	8.97
278.777	9.19
278.991	8.64
279.205	8.59
279.419	8.63
279.633	8.42
279.847	8.31
280.061	8.34
280.275	8.54
280.489	8.52
280.703	8.17
280.917	8.26
281.131	7.62
281.344	7.86
281.558	7.74
281.772	8
281.986	7.94
282.2	7.87
282.414	7.52
282.627	7.18
282.841	7.31
283.055	7.58
283.269	7.46
283.482	7.42
283.696	7.05
283.91	7.15
284.123	6.39
284.337	6.29
284.551	6.26
284.764	6.46
284.978	6.68
285.192	6.35
285.405	6.03
285.619	6.18
285.833	6.19
286.046	6.24
286.26	6.4
286.473	6.99
286.687	7.25
286.9	7.32
287.114	7.08
287.327	7.21
287.541	7.03
287.754	6.79
287.968	6.86
288.181	6.86
288.395	6.67
288.608	6.68
288.822	6.66
289.035	6.23
289.248	5.79
289.462	6.18
289.675	5.9
289.889	6.3
290.102	6.39
290.315	6.45
290.529	6.59
290.742	6.66
290.955	6.79
291.169	6.58
291.382	7.4
291.595	7.75
291.808	7.79
292.022	8.12
292.235	8.1
292.448	8.62
292.661	8.2
292.875	8.57
293.088	8.84
293.301	8.35
293.514	8.23
293.727	7.89
293.94	7.96
294.153	7.28
294.367	7.04
294.58	6.64
294.793	6.09
295.006	6.01
295.219	5.95
295.432	5.82
295.645	5.84
295.858	6.01
296.071	5.82
296.284	5.97
296.497	6.23
296.71	6.28
296.923	6.81
297.136	7.05
297.349	7.33
297.562	7.45
297.775	7.6
297.988	7.91
298.201	8.16
298.414	8.25
298.626	7.91
298.839	7.97
299.052	7.82
299.265	7.9
299.478	8.07
299.691	8.08
299.903	7.6
300.116	7.51
300.329	7.76
300.542	7.72
300.755	7.8
300.967	8
301.18	8.2
301.393	8.32
301.605	7.76
301.818	7.91
302.031	7.95
302.243	7.98
302.456	8.23
302.669	8.07
302.881	8.37
303.094	8.34
303.307	8.22
303.519	7.98
303.732	8.61
303.944	8.64
304.157	8.53
304.37	8.53
304.582	9.03
304.795	8.93
305.007	8.68
305.22	8.68
305.432	8.49
305.645	8.41
305.857	8.94
306.069	8.49
306.282	8.54
306.494	8.12
306.707	8.05
306.919	7.73
307.132	8.06
307.344	8.36
307.556	8.11
307.769	8.36
307.981	8.24
308.193	7.72
308.406	7.67
308.618	8.01
308.83	7.99
309.043	8.08
309.255	7.89
309.467	7.53
309.679	7.2
309.892	7.03
310.104	6.95
310.316	7.69
310.528	7.84
310.74	7.99
310.953	7.81
311.165	8.13
311.377	8.12
311.589	8.25
311.801	8.23
312.013	8.79
312.225	9.1
312.437	9.04
312.649	8.65
312.862	8.45
313.074	8.08
313.286	8.17
313.498	8.15
313.71	8.22
313.922	8.63
314.134	8.42
314.346	8.18
314.558	8.05
314.77	8.62
314.982	8.56
315.193	8.78
315.405	8.95
315.617	8.74
315.829	8.56
316.041	8.43
316.253	7.81
316.465	8.57
316.677	8.15
316.888	8.09
317.1	7.75
317.312	8.18
317.524	8.25
317.736	8.47
317.947	9.07
318.159	9.16
318.371	8.91
318.583	9.26
318.794	8.64
319.006	8.81
319.218	8.87
319.43	8.97
319.641	8.64
319.853	8.5
320.064	8.76
320.276	8.65
320.488	8.57
320.699	9.26
320.911	9.4
321.123	9.44
321.334	9.92
321.546	10.32
321.757	9.93
321.969	9.93
322.18	9.88
322.392	9.45
322.603	9.38
322.815	9.21
323.026	8.71
323.238	8.52
323.449	8.64
323.661	8.31
323.872	8.27
324.083	8.68
324.295	8.2
324.506	7.94
324.718	8
324.929	8.16
325.14	8.32
325.352	8.46
325.563	8.47
325.774	8.55
325.986	8.57
326.197	8.34
326.408	7.84
326.62	7.93
326.831	8.06
327.042	7.92
327.253	7.46
327.464	7.84
327.676	7.31
327.887	7.43
328.098	7.36
328.309	7.58
328.52	7.46
328.732	7.6
328.943	8.11
329.154	8.38
329.365	8.41
329.576	8.05
329.787	7.41
329.998	7.92
330.209	8.02
330.42	7.99
330.631	7.65
330.842	7.59
331.053	7.55
331.264	7.28
331.475	7.1
331.686	7.66
331.897	7.82
332.108	7.77
332.319	7.67
332.53	7.25
332.741	7.3
332.952	7.24
333.163	7.26
333.374	7.45
333.585	7.21
333.795	7.55
334.006	7.58
334.217	7.42
334.428	7.6
334.639	7.45
334.849	7.43
335.06	7.28
335.271	7.4
335.482	7.42
335.692	7.17
335.903	7.32
336.114	7.33
336.325	6.53
336.535	7.17
336.746	7.35
336.957	7.59
337.167	8.31
337.378	8.28
337.589	8.33
337.799	8.08
338.01	8.41
338.22	8.21
338.431	8.44
338.642	8.86
338.852	8.65
339.063	8.48
339.273	8.31
339.484	7.67
339.694	7.66
339.905	7.23
340.115	7.24
340.326	6.87
340.536	6.97
340.746	6.36
340.957	6.16
341.167	5.96
341.378	5.72
341.588	5.48
341.799	5.57
342.009	5.51
342.219	5.75
342.43	5.81
342.64	6.23
342.85	6.25
343.061	6.63
343.271	6.96
343.481	6.69
343.691	6.69
343.902	7.04
344.112	7.07
344.322	7.01
344.532	6.94
344.743	6.86
344.953	6.59
345.163	6.46
345.373	6.33
345.583	5.92
345.793	5.84
346.004	6.18
346.214	5.81
346.424	6.06
346.634	6.3
346.844	6.51
347.054	6.62
347.264	6.66
347.474	6.64
347.684	6.32
347.894	6.18
348.104	6.48
348.314	6.38
348.524	6.57
348.734	5.96
348.944	6.07
349.154	6.02
349.364	5.83
349.574	5.57
349.784	5.31
349.994	5.48
350.204	5.36
350.413	5.27
350.623	5.4
350.833	5.4
351.043	5.74
351.253	5.54
351.463	5.24
351.672	5.54
351.882	5.9
352.092	6.05
352.302	5.58
352.511	5.85
352.721	6.16
352.931	6.29
353.141	6.37
353.35	6.66
353.56	6.34
353.77	6.6
353.979	6.88
354.189	6.75
354.399	7.16
354.608	7.58
354.818	7.61
355.027	7.51
355.237	7.27
355.447	7.09
355.656	6.66
355.866	6.63
356.075	6.48
356.285	6.2
356.494	6.34
356.704	5.99
356.913	5.94
357.123	5.91
357.332	5.77
357.542	5.76
357.751	5.99
357.96	5.91
358.17	6.12
358.379	6.11
358.589	6.13
358.798	5.77
359.007	5.73
359.217	5.84
359.426	5.65
359.635	5.64
359.845	5.42
360.054	5.15
360.263	5.16
360.472	5.12
360.682	5.01
360.891	4.89
361.1	4.94
361.309	5.14
361.519	4.91
361.728	5.02
361.937	5.12
362.146	5.19
362.355	5.45
362.564	5.32
362.774	5.33
362.983	5.43
363.192	5.54
363.401	5.71
363.61	5.47
363.819	5.48
364.028	5.63
364.237	5.46
364.446	5.61
364.655	5.37
364.864	5.58
365.073	5.86
365.282	5.84
365.491	5.63
365.7	5.6
365.909	5.59
366.118	5.62
366.327	5.3
366.536	5.36
366.745	5.32
366.954	5.26
367.162	5.31
367.371	5.32
367.58	5.29
367.789	5.42
367.998	5.65
368.207	5.84
368.415	5.82
368.624	5.8
368.833	5.68
369.042	5.64
369.25	5.94
369.459	6.01
369.668	5.89
369.877	5.76
370.085	5.85
370.294	5.52
370.503	5.11
370.711	5.28
370.92	5.08
371.129	5.08
371.337	4.82
371.546	4.43
371.754	4.41
371.963	3.98
372.171	4.11
372.38	3.98
372.589	4.12
372.797	4.33
373.006	3.96
373.214	4.32
373.423	4.2
373.631	4.44
373.84	4.66
374.048	4.54
374.256	4.79
374.465	4.89
374.673	4.94
374.882	4.9
375.09	4.74
375.298	5.1
375.507	5.19
375.715	5.61
375.923	5.73
376.132	5.65
376.34	5.77
376.548	5.67
376.757	5.62
376.965	5.59
377.173	5.45
377.381	5.74
377.59	5.74
377.798	5.69
378.006	5.61
378.214	5.51
378.423	5.34
378.631	5.12
378.839	5.28
379.047	5.06
379.255	4.91
379.463	5.1
379.671	4.81
379.879	4.51
380.088	4.56
380.296	4.09
380.504	4.02
380.712	4.32
380.92	4.47
381.128	4.4
381.336	4.53
381.544	4.29
381.752	4.09
381.96	4.35
382.168	4.46
382.376	4.33
382.584	4.73
382.791	4.69
382.999	4.47
383.207	4.48
383.415	4.38
383.623	4.41
383.831	4.61
384.039	4.64
384.247	4.36
384.454	4.33
384.662	4.11
384.87	3.87
385.078	3.85
385.285	3.92
385.493	3.71
385.701	3.82
385.909	3.62
386.116	3.69
386.324	3.76
386.532	4
386.739	3.92
386.947	4.08
387.155	4.06
387.362	3.97
387.57	3.86
387.778	3.88
387.985	3.77
388.193	3.84
388.4	3.54
388.608	3.5
388.816	3.36
389.023	3.44
389.231	3.32
389.438	3.43
389.646	3.56
389.853	3.67
390.061	3.59
390.268	3.62
390.475	3.78
390.683	4.1
390.89	3.98
391.098	4.03
391.305	4.16
391.512	4.4
391.72	4.21
391.927	4.07
392.135	3.92
392.342	3.95
392.549	4.07
392.756	3.93
392.964	3.69
393.171	3.87
393.378	3.87
393.586	3.83
393.793	3.56
394	3.83
394.207	3.91
394.414	4.14
394.622	4.23
394.829	4.19
395.036	4.18
395.243	4.33
395.45	4.21
395.657	4.1
395.864	4.05
396.072	4.24
396.279	3.96
396.486	4.1
396.693	3.91
396.9	3.98
397.107	3.8
397.314	3.92
397.521	3.98
397.728	4.09
397.935	4.19
398.142	4.1
398.349	4.05
398.556	4.09
398.763	4.1
398.97	4.41
399.177	4.24
399.383	4.16
399.59	3.89
399.797	3.75
400.004	3.55
400.211	3.55
400.418	3.47
400.625	3.61
400.831	3.7
401.038	3.67
401.245	3.56
401.452	3.78
401.658	3.96
401.865	4.04
402.072	4.06
402.279	4.16
402.485	4.11
402.692	4.13
402.899	4.01
403.105	3.89
403.312	3.9
403.519	3.87
403.725	3.61
403.932	3.5
404.138	3.71
404.345	3.6
404.552	3.68
404.758	3.69
404.965	3.66
405.171	3.6
405.378	3.74
405.584	3.63
405.791	3.55
405.997	3.79
406.204	3.96
406.41	3.91
406.617	4.09
406.823	3.94
407.029	3.89
407.236	3.93
407.442	4.07
407.649	3.99
407.855	3.85
408.061	3.82
408.268	3.59
408.474	3.46
408.68	3.32
408.887	3.2
409.093	3.31
409.299	3.24
409.505	3.25
409.712	3.11
409.918	3.32
410.124	3.45
410.33	3.54
410.537	3.56
410.743	3.62
410.949	3.61
411.155	3.71
411.361	3.48
411.567	3.52
411.773	3.41
411.98	3.54
412.186	3.38
412.392	3.35
412.598	3.14
412.804	3.09
413.01	2.99
413.216	2.95
413.422	2.94
413.628	2.94
413.834	2.85
414.04	2.84
414.246	2.65
414.452	2.5
414.658	2.64
414.864	2.75
415.07	2.76
415.275	2.92
415.481	2.9
415.687	2.83
415.893	2.89
416.099	2.93
416.305	2.96
416.511	2.9
416.716	2.9
416.922	2.79
417.128	2.85
417.334	2.88
417.539	2.67
417.745	2.72
417.951	2.79
418.157	2.87
418.362	2.93
418.568	2.9
418.774	2.97
418.979	3.01
419.185	2.9
419.391	2.79
419.596	2.8
419.802	2.8
420.008	2.73
420.213	3.32
420.419	3.28
420.624	3.16
420.83	3.14
421.035	3.2
421.241	3.2
421.446	3.19
421.652	3.26
421.857	3.19
422.063	3.26
422.268	3.31
422.474	2.62
422.679	2.6
422.885	2.64
423.09	2.63
423.295	2.52
423.501	2.48
423.706	2.52
423.911	2.46
424.117	2.51
424.322	2.47
424.527	2.42
424.733	2.41
424.938	2.36
425.143	2.39
425.349	2.49
425.554	2.54
425.759	2.51
425.964	2.53
426.169	2.63
426.375	2.59
426.58	2.63
426.785	2.63
426.99	2.78
427.195	2.78
427.4	2.86
427.605	2.88
427.811	2.89
428.016	2.87
428.221	2.91
428.426	2.8
428.631	2.78
428.836	2.85
429.041	2.95
429.246	2.81
429.451	2.7
429.656	2.58
429.861	2.47
430.066	2.5
430.271	2.58
430.476	2.53
430.681	2.47
430.886	2.5
431.09	2.44
431.295	2.37
431.5	2.33
431.705	2.41
431.91	2.43
432.115	2.42
432.32	2.36
432.524	2.29
432.729	2.31
432.934	2.38
433.139	2.39
433.343	2.38
433.548	2.43
433.753	2.51
433.958	2.43
434.162	2.45
434.367	2.52
434.572	2.54
434.776	2.51
434.981	2.62
435.186	2.58
435.39	2.56
435.595	2.61
435.799	2.43
436.004	2.47
436.209	2.55
436.413	2.46
436.618	2.44
436.822	2.46
437.027	2.49
437.231	2.34
437.436	2.32
437.64	2.26
437.845	2.23
438.049	2.25
438.253	2.16
438.458	2.13
438.662	2.11
438.867	2.03
439.071	1.98
439.275	2.02
439.48	2.08
439.684	2.07
439.888	2.18
440.093	2.19
440.297	2.21
440.501	2.25
440.706	2.28
440.91	2.38
441.114	2.37
441.318	2.43
441.523	2.45
441.727	2.39
441.931	2.48
442.135	2.46
442.339	2.4
442.543	2.47
442.748	2.43
442.952	2.47
443.156	2.39
443.36	2.39
443.564	2.37
443.768	2.25
443.972	2.25
444.176	2.24
444.38	2.2
444.584	2.18
444.788	2.19
444.992	2.21
445.196	2.18
445.4	2.16
445.604	2.16
445.808	2.16
446.012	2.23
446.216	2.23
446.42	2.2
446.624	2.13
446.828	2.2
447.032	2.15
447.235	2.16
447.439	2.15
447.643	2.2
447.847	2.18
448.051	2.26
448.254	2.27
448.458	2.23
448.662	2.26
448.866	2.4
449.069	2.42
449.273	2.49
449.477	2.51
449.681	2.44
449.884	2.47
450.088	2.59
450.292	2.5
450.495	2.53
450.699	2.63
450.902	2.51
451.106	2.33
451.31	2.24
451.513	2.27
451.717	2.27
451.92	2.3
452.124	2.21
452.327	2.15
452.531	2.12
452.734	2.09
452.938	2.02
453.141	2.04
453.345	2.07
453.548	2.09
453.752	1.97
453.955	2
454.158	1.95
454.362	1.9
454.565	1.95
454.769	1.99
454.972	2.04
455.175	2.11
455.379	2.17
455.582	2.23
455.785	2.31
455.988	2.32
456.192	2.23
456.395	2.27
456.598	2.36
456.801	2.28
457.005	2.29
457.208	2.26
457.411	2.22
457.614	2.2
457.817	2.18
458.021	2.14
458.224	2.15
458.427	2.15
458.63	2.15
458.833	2.15
459.036	2.12
459.239	2.12
459.442	2.08
459.645	2.1
459.848	2.04
460.051	2.03
460.254	1.97
460.457	1.94
460.66	1.98
460.863	1.97
461.066	2.04
461.269	2.15
461.472	2.21
461.675	2.28
461.878	2.35
462.081	2.43
462.284	2.43
462.486	2.45
462.689	2.49
462.892	2.5
463.095	2.57
463.298	2.37
463.5	2.33
463.703	2.25
463.906	2.27
464.109	2.19
464.311	2.22
464.514	2.28
464.717	2.4
464.92	2.36
465.122	2.33
465.325	2.29
465.528	2.47
465.73	2.44
465.933	2.41
466.135	2.33
466.338	2.37
466.541	2.42
466.743	2.35
466.946	2.32
467.148	2.29
467.351	2.34
467.553	2.33
467.756	2.38
467.958	2.43
468.161	2.44
468.363	2.46
468.566	2.44
468.768	2.42
468.971	2.39
469.173	2.32
469.375	2.31
469.578	2.12
469.78	2.17
469.983	2.03
470.185	2
470.387	1.94
470.59	1.89
470.792	1.8
470.994	1.78
471.196	1.82
471.399	1.88
471.601	1.97
471.803	1.98
472.005	2
472.208	2.09
472.41	2.1
472.612	2.22
472.814	2.25
473.016	2.28
473.218	2.34
473.421	2.33
473.623	2.39
473.825	2.38
474.027	2.54
474.229	2.47
474.431	2.44
474.633	2.41
474.835	2.4
475.037	2.42
475.239	2.37
475.441	2.27
475.643	2.27
475.845	2.2
476.047	2.21
476.249	2.11
476.451	2.12
476.653	2.22
476.855	2.19
477.057	2.13
477.258	2.07
477.46	2.16
477.662	2.2
477.864	2.19
478.066	2.2
478.268	2.09
478.469	2.15
478.671	2.14
478.873	2
479.075	2.04
479.276	2.07
479.478	2.07
479.68	1.99
479.882	1.99
480.083	1.99
480.285	1.98
480.487	2.02
480.688	1.98
480.89	1.97
481.091	1.92
481.293	1.89
481.495	1.89
481.696	1.87
481.898	1.87
482.099	1.85
482.301	1.84
482.502	1.83
482.704	1.83
482.905	1.83
483.107	1.83
483.308	1.87
483.51	1.86
483.711	1.82
483.913	1.82
484.114	1.85
484.315	1.86
484.517	1.85
484.718	1.85
484.92	1.86
485.121	1.86
485.322	1.83
485.524	1.79
485.725	1.8
485.926	1.81
486.127	1.85
486.329	1.82
486.53	1.84
486.731	1.86
486.932	1.87
487.134	1.87
487.335	1.85
487.536	1.89
487.737	1.91
487.938	1.9
488.139	1.96
488.341	1.95
488.542	1.94
488.743	1.92
488.944	1.92
489.145	1.97
489.346	1.98
489.547	2.01
489.748	2
489.949	2.05
490.15	2.02
490.351	1.97
490.552	1.99
490.753	1.98
490.954	2
491.155	2.01
491.356	1.98
491.557	2.02
491.758	2.05
491.959	2.02
492.159	2.02
492.36	2.02
492.561	2.03
492.762	2.05
492.963	2.11
493.164	2.08
493.364	2.07
493.565	2.11
493.766	2.06
493.967	2.02
494.167	2.09
494.368	2.03
494.569	2.09
494.769	2.08
494.97	2.07
495.171	2.06
495.371	2.09
495.572	2.13
495.773	2.08
495.973	2.12
496.174	2.11
496.375	2.12
496.575	2.14
496.776	2.2
496.976	2.24
497.177	2.22
497.377	2.29
497.578	2.34
497.778	2.35
497.979	2.37
498.179	2.29
498.38	2.35
498.58	2.37
498.78	2.38
498.981	2.37
499.181	2.34
499.382	2.34
499.582	2.32
499.782	2.28
499.983	2.25
500.183	2.25
500.383	2.42
500.584	2.38
500.784	2.38
500.984	2.39
501.184	2.35
501.385	2.42
501.585	2.47
501.785	2.38
501.985	2.34
502.185	2.36
502.386	2.38
502.586	2.2
502.786	2.2
502.986	2.2
503.186	2.17
503.386	2.17
503.586	2.18
503.786	2.18
503.987	2.26
504.187	2.29
504.387	2.27
504.587	2.32
504.787	2.43
504.987	2.51
505.187	2.49
505.387	2.47
505.587	2.57
505.786	2.49
505.986	2.48
506.186	2.48
506.386	2.44
506.586	2.57
506.786	2.45
506.986	2.43
507.186	2.35
507.386	2.36
507.585	2.42
507.785	2.36
507.985	2.44
508.185	2.49
508.384	2.44
508.584	2.39
508.784	2.33
508.984	2.45
509.183	2.41
509.383	2.45
509.583	2.5
509.782	2.41
509.982	2.43
510.182	2.38
510.381	2.33
510.581	2.4
510.781	2.51
510.98	2.5
511.18	2.45
511.379	2.56
511.579	2.52
511.778	2.52
511.978	2.59
512.177	2.5
512.377	2.51
512.576	2.58
512.776	2.57
512.975	2.58
513.175	2.59
513.374	2.52
513.573	2.49
513.773	2.57
513.972	2.58
514.172	2.66
514.371	2.77
514.57	2.71
514.77	2.65
514.969	2.69
515.168	2.69
515.367	2.75
515.567	2.79
515.766	2.77
515.965	2.69
516.164	2.68
516.364	2.62
516.563	2.53
516.762	2.55
516.961	2.49
517.16	2.45
517.359	2.38
517.559	2.37
517.758	2.39
517.957	2.37
518.156	2.42
518.355	2.42
518.554	2.41
518.753	2.48
518.952	2.54
519.151	2.63
519.35	2.66
519.549	2.7
519.748	2.61
519.947	2.64
520.146	2.72
520.345	2.71
520.544	2.72
520.743	2.79
520.942	2.76
521.141	2.78
521.339	2.83
521.538	2.68
521.737	2.78
521.936	2.86
522.135	2.85
522.333	2.84
522.532	2.83
522.731	2.78
522.93	2.79
523.129	2.86
523.327	2.84
523.526	2.74
523.725	2.86
523.923	2.81
524.122	2.85
524.321	2.85
524.519	2.84
524.718	2.82
524.917	2.83
525.115	2.79
525.314	2.72
525.512	2.74
525.711	2.78
525.909	2.77
526.108	2.75
526.306	2.78
526.505	2.78
526.703	2.8
526.902	2.81
527.1	2.83
527.299	2.84
527.497	2.88
527.696	2.89
527.894	2.93
528.092	2.97
528.291	2.98
528.489	2.94
528.688	2.95
528.886	2.96
529.084	3.01
529.283	3.05
529.481	3.08
529.679	3.07
529.877	3.07
530.076	3.08
530.274	3.08
530.472	3.1
530.67	3.15
530.869	3.22
531.067	3.21
531.265	3.17
531.463	3.14
531.661	3.15
531.859	3.13
532.057	3.19
532.255	3.17
532.454	3.13
532.652	3.18
532.85	3.19
533.048	3.18
533.246	3.22
533.444	3.23
533.642	3.32
533.84	3.35
534.038	3.43
534.236	3.4
534.434	3.42
534.632	3.46
534.83	3.51
535.027	3.54
535.225	3.58
535.423	3.59
535.621	3.64
535.819	3.58
536.017	3.56
536.215	3.59
536.412	3.59
536.61	3.66
536.808	3.65
537.006	3.62
537.203	3.63
537.401	3.7
537.599	3.78
537.797	3.72
537.994	3.82
538.192	3.92
538.39	3.98
538.587	4
538.785	4.02
538.983	4.08
539.18	4.09
539.378	4.08
539.575	4.07
539.773	4.02
539.97	4.09
540.168	4.11
540.366	4.13
540.563	4.12
540.761	4.15
540.958	4.13
541.155	4.13
541.353	4.19
541.55	4.21
541.748	4.23
541.945	4.33
542.143	4.34
542.34	4.34
542.537	4.4
542.735	4.41
542.932	4.36
543.129	4.45
543.327	4.51
543.524	4.58
543.721	4.61
543.919	4.67
544.116	4.65
544.313	4.88
544.51	4.93
544.708	4.95
544.905	5.06
545.102	5.22
545.299	5.19
545.496	5.25
545.693	5.2
545.891	5.22
546.088	5.18
546.285	5.23
546.482	5.09
546.679	5.19
546.876	5.14
547.073	5.14
547.27	5.17
547.467	5.3
547.664	5.34
547.861	5.42
548.058	5.59
548.255	5.73
548.452	5.8
548.649	5.93
548.846	5.96
549.043	6.01
549.24	6.05
549.437	5.98
549.633	5.98
549.83	6
550.027	6.06
550.224	6
550.421	5.98
550.618	5.97
550.814	6
551.011	5.96
551.208	6.06
551.405	6.08
551.601	6.22
551.798	6.27
551.995	6.21
552.191	6.25
552.388	6.27
552.585	6.35
552.781	6.43
552.978	6.39
553.175	6.55
553.371	6.6
553.568	6.7
553.764	6.8
553.961	6.94
554.157	7.12
554.354	7.16
554.55	7.19
554.747	7.16
554.943	7.27
555.14	7.47
555.336	7.46
555.533	7.46
555.729	7.46
555.926	7.5
556.122	7.54
556.318	7.54
556.515	7.68
556.711	7.8
556.907	7.99
557.104	8.05
557.3	8.05
557.496	8.09
557.693	8.12
557.889	8.26
558.085	8.37
558.281	8.45
558.478	8.55
558.674	8.58
558.87	8.55
559.066	8.58
559.262	8.64
559.459	8.56
559.655	8.54
559.851	8.62
560.047	8.67
560.243	8.8
560.439	8.72
560.635	8.83
560.831	8.79
561.027	8.86
561.223	8.87
561.419	8.88
561.615	8.96
561.811	9.15
562.007	9.25
562.203	9.3
562.399	9.2
562.595	9.37
562.791	9.46
562.987	9.62
563.183	9.75
563.379	9.92
563.575	9.99
563.771	10.17
563.966	10.29
564.162	10.39
564.358	10.48
564.554	10.52
564.75	10.61
564.945	10.57
565.141	10.63
565.337	10.76
565.533	10.75
565.728	10.73
565.924	10.73
566.12	10.75
566.315	10.78
566.511	10.76
566.707	10.85
566.902	10.88
567.098	11.08
567.293	11.1
567.489	11.12
567.684	11.14
567.88	11.29
568.076	11.39
568.271	11.51
568.467	11.69
568.662	11.89
568.858	12.09
569.053	12.09
569.248	12.01
569.444	12.1
569.639	12.22
569.835	12.33
570.03	12.46
570.225	12.56
570.421	12.63
570.616	12.6
570.812	12.74
571.007	12.67
571.202	12.82
571.397	12.96
571.593	13.04
571.788	13.06
571.983	13.17
572.178	13.14
572.374	13.3
572.569	13.3
572.764	13.35
572.959	13.24
573.154	13.37
573.35	13.4
573.545	13.44
573.74	13.44
573.935	13.45
574.13	13.47
574.325	13.54
574.52	13.49
574.715	13.54
574.91	13.58
575.105	13.73
575.3	13.8
575.495	13.94
575.69	13.92
575.885	14.12
576.08	14.22
576.275	14.23
576.47	14.38
576.665	14.43
576.86	14.54
577.055	14.76
577.25	14.72
577.444	14.65
577.639	14.68
577.834	14.88
578.029	14.86
578.224	14.93
578.418	15.13
578.613	15.21
578.808	15.19
579.003	15.23
579.197	15.16
579.392	15.28
579.587	15.5
579.781	15.47
579.976	15.45
580.171	15.57
580.365	15.64
580.56	15.66
580.755	15.72
580.949	15.9
581.144	15.95
581.338	16.08
581.533	16.13
581.727	16.14
581.922	16.14
582.116	16.33
582.311	16.23
582.505	16.18
582.7	16.2
582.894	16.25
583.089	16.27
583.283	16.22
583.478	16.22
583.672	16.22
583.866	16.31
584.061	16.28
584.255	16.19
584.449	16.46
584.644	16.54
584.838	16.61
585.032	16.54
585.226	16.57
585.421	16.71
585.615	16.75
585.809	16.76
586.003	16.76
586.198	16.93
586.392	16.97
586.586	16.9
586.78	17.05
586.974	17.08
587.168	17.28
587.363	17.27
587.557	17.28
587.751	17.26
587.945	17.26
588.139	17.36
588.333	17.38
588.527	17.5
588.721	17.44
588.915	17.41
589.109	17.4
589.303	17.31
589.497	17.32
589.691	17.29
589.885	17.3
590.079	17.44
590.273	17.32
590.466	17.27
590.66	17.28
590.854	17.36
591.048	17.44
591.242	17.48
591.436	17.46
591.629	17.57
591.823	17.65
592.017	17.82
592.211	17.82
592.404	18.03
592.598	18.05
592.792	18.06
592.986	18.16
593.179	18.1
593.373	18.09
593.567	18.27
593.76	18.25
593.954	18.41
594.147	18.39
594.341	18.39
594.535	18.41
594.728	18.45
594.922	18.48
595.115	18.44
595.309	18.5
595.502	18.58
595.696	18.55
595.889	18.6
596.083	18.57
596.276	18.61
596.47	18.77
596.663	18.72
596.856	18.89
597.05	18.91
597.243	18.92
597.437	18.88
597.63	18.9
597.823	18.91
598.017	18.95
598.21	19.04
598.403	19
598.596	18.96
598.79	19.04
598.983	18.95
599.176	18.95
599.369	19.15
599.563	19.25
599.756	19.31
599.949	19.41
600.142	19.36
600.335	19.27
600.528	19.39
600.722	19.45
600.915	19.48
601.108	19.61
601.301	19.64
601.494	19.52
601.687	19.53
601.88	19.51
602.073	19.41
602.266	19.51
602.459	19.51
602.652	19.46
602.845	19.41
603.038	19.31
603.231	19.4
603.424	19.44
603.617	19.48
603.809	19.45
604.002	19.35
604.195	19.49
604.388	19.45
604.581	19.55
604.774	19.57
604.966	19.5
605.159	19.5
605.352	19.42
605.545	19.37
605.737	19.29
605.93	19.38
606.123	19.58
606.316	19.61
606.508	19.75
606.701	19.74
606.894	19.73
607.086	19.84
607.279	19.9
607.471	19.85
607.664	19.97
607.857	20.11
608.049	20.21
608.242	20.13
608.434	20.18
608.627	20.12
608.819	20.06
609.012	20.15
609.204	20.22
609.397	20.32
609.589	20.48
609.782	20.49
609.974	20.52
610.166	20.4
610.359	20.42
610.551	20.33
610.743	20.4
610.936	20.41
611.128	20.35
611.32	20.24
611.513	20.24
611.705	20.18
611.897	20.08
612.09	20.14
612.282	20.32
612.474	20.34
612.666	20.26
612.858	20.18
613.051	20.43
613.243	20.37
613.435	20.57
613.627	20.67
613.819	20.59
614.011	20.94
614.203	21
614.395	20.94
614.588	20.99
614.78	21.05
614.972	21.21
615.164	21.05
615.356	21.08
615.548	20.98
615.74	21.03
615.932	21.04
616.124	20.74
616.315	20.83
616.507	20.81
616.699	20.89
616.891	20.92
617.083	20.87
617.275	21.13
617.467	21.24
617.659	21.27
617.85	21.32
618.042	21.44
618.234	21.48
618.426	21.36
618.618	21.48
618.809	21.43
619.001	21.41
619.193	21.4
619.384	21.07
619.576	21.1
619.768	21.28
619.959	21.14
620.151	21.33
620.343	21.42
620.534	21.58
620.726	21.62
620.917	21.79
621.109	21.82
621.301	21.8
621.492	21.83
621.684	21.91
621.875	21.91
622.067	21.83
622.258	21.56
622.45	21.54
622.641	21.33
622.832	21.33
623.024	21.34
623.215	21.36
623.407	21.47
623.598	21.57
623.789	21.49
623.981	21.47
624.172	21.68
624.363	21.83
624.555	21.91
624.746	21.81
624.937	21.74
625.129	21.86
625.32	21.86
625.511	21.95
625.702	22.06
625.893	22.03
626.085	21.93
626.276	21.86
626.467	21.92
626.658	21.74
626.849	21.88
627.04	21.82
627.231	21.68
627.422	21.86
627.614	21.79
627.805	21.69
627.996	21.72
628.187	21.79
628.378	21.72
628.569	21.61
628.76	21.72
628.951	21.66
629.142	21.66
629.332	21.49
629.523	21.4
629.714	21.38
629.905	21.57
630.096	21.76
630.287	22.03
630.478	22.02
630.669	22.07
630.859	22.11
631.05	22.19
631.241	22.24
631.432	22.31
631.623	22.36
631.813	22.47
632.004	22.25
632.195	21.9
632.385	21.57
632.576	21.54
632.767	21.5
632.957	21.71
633.148	21.82
633.339	22
633.529	22.1
633.72	22.03
633.91	21.87
634.101	21.82
634.292	22.04
634.482	22.12
634.673	22.32
634.863	22.5
635.054	22.45
635.244	22.38
635.435	22.38
635.625	22.25
635.815	22.31
636.006	22.47
636.196	22.71
636.387	22.88
636.577	22.85
636.767	22.86
636.958	22.71
637.148	22.64
637.338	22.56
637.529	22.41
637.719	22.7
637.909	22.75
638.099	22.84
638.29	22.88
638.48	22.83
638.67	22.95
638.86	22.97
639.05	23.05
639.241	23.07
639.431	22.99
639.621	23.09
639.811	23.15
640.001	23.03
640.191	22.76
640.381	22.61
640.571	22.59
640.761	22.56
640.951	22.41
641.141	22.39
641.331	21.99
641.521	22.26
641.711	22.34
641.901	22.26
642.091	22.34
642.281	22.4
642.471	22.41
642.661	22.62
642.851	22.86
643.041	22.88
643.231	22.94
643.42	23.43
643.61	23.55
643.8	23.57
643.99	23.53
644.18	23.46
644.369	23.77
644.559	23.77
644.749	23.77
644.939	23.44
645.128	23.63
645.318	23.63
645.508	23.36
645.697	23.4
645.887	23.38
646.076	23.26
646.266	23.46
646.456	23.43
646.645	23.75
646.835	23.34
647.024	23.55
647.214	23.46
647.403	23.41
647.593	23.45
647.782	23.2
647.972	23.28
648.161	23.5
648.351	23.35
648.54	23.15
648.73	22.86
648.919	23.14
649.108	23.02
649.298	23.16
649.487	23.22
649.677	23.32
649.866	23.39
650.055	23.31
650.244	23.1
650.434	23.42
650.623	23.63
650.812	23.63
651.002	23.46
651.191	23.48
651.38	23.37
651.569	23.33
651.758	23.23
651.947	23.39
652.137	23.32
652.326	23.45
652.515	23.4
652.704	23.26
652.893	23.2
653.082	23.21
653.271	23.45
653.46	23.55
653.649	23.75
653.838	24.08
654.027	24.05
654.216	23.96
654.405	24.14
654.594	23.98
654.783	24
654.972	24.19
655.161	24.36
655.35	24.09
655.539	24.42
655.728	24.37
655.916	24.17
656.105	24.05
656.294	24.39
656.483	24.07
656.672	24
656.86	23.9
657.049	23.92
657.238	23.88
657.427	23.97
657.615	23.66
657.804	23.72
657.993	23.61
658.181	23.73
658.37	23.66
658.559	23.73
658.747	23.72
658.936	23.9
659.125	23.87
659.313	23.92
659.502	23.89
659.69	23.93
659.879	23.9
660.067	24.2
660.256	24.11
660.444	24.13
660.633	24.3
660.821	24.53
661.01	24.63
661.198	24.67
661.387	24.74
661.575	24.72
661.763	24.76
661.952	24.79
662.14	24.74
662.328	24.67
662.517	24.62
662.705	24.68
662.893	24.45
663.082	24.38
663.27	24.5
663.458	24.28
663.646	24.46
663.834	24.4
664.023	24.31
664.211	24.3
664.399	24.6
664.587	24.54
664.775	24.45
664.963	24.6
665.152	24.61
665.34	24.6
665.528	24.73
665.716	24.69
665.904	24.6
666.092	24.65
666.28	24.46
666.468	24.53
666.656	24.62
666.844	24.88
667.032	24.74
667.22	24.87
667.408	24.8
667.596	25.02
667.784	24.92
667.971	24.95
668.159	24.9
668.347	25.2
668.535	24.86
668.723	24.83
668.911	24.61
669.098	24.76
669.286	24.61
669.474	24.56
669.662	24.49
669.849	24.66
670.037	24.61
670.225	24.83
670.413	24.7
670.6	24.95
670.788	24.88
670.976	25.08
671.163	25.07
671.351	25.29
671.538	25.37
671.726	25.57
671.913	25.48
672.101	25.76
672.289	25.61
672.476	25.5
672.664	25.38
672.851	25.53
673.039	25.31
673.226	25.14
673.413	24.92
673.601	24.88
673.788	24.56
673.976	24.76
674.163	24.52
674.35	24.68
674.538	24.89
674.725	24.72
674.912	24.58
675.1	24.34
675.287	24.47
675.474	24.28
675.662	24.41
675.849	24.61
676.036	24.56
676.223	24.67
676.411	24.5
676.598	24.26
676.785	24.63
676.972	24.85
677.159	25.04
677.346	24.88
677.533	25.05
677.721	24.95
677.908	25.03
678.095	25.09
678.282	25.19
678.469	25.12
678.656	25.19
678.843	25.09
679.03	25
679.217	25.33
679.404	25.52
679.591	25.44
679.778	25.62
679.964	25.55
680.151	25.38
680.338	25.34
680.525	25.51
680.712	25.85
680.899	25.99
681.086	26.1
681.272	25.84
681.459	25.78
681.646	26.04
681.833	25.69
682.02	25.36
682.206	25.49
682.393	25.54
682.58	25.43
682.766	25.16
682.953	25.19
683.14	24.98
683.326	25.31
683.513	25.74
683.7	25.75
683.886	25.96
684.073	26.41
684.259	26.53
684.446	26.81
684.632	26.76
684.819	26.62
685.005	26.4
685.192	26.89
685.378	26.84
685.565	26.4
685.751	26.19
685.938	26.32
686.124	26.13
686.31	25.9
686.497	25.34
686.683	25.68
686.87	25.71
687.056	25.55
687.242	25.41
687.429	25.29
687.615	25.09
687.801	25.13
687.987	25.1
688.174	25.09
688.36	25.32
688.546	25.66
688.732	25.39
688.918	25.61
689.105	25.74
689.291	25.77
689.477	25.6
689.663	26.21
689.849	26.04
690.035	25.92
690.221	26.12
690.407	26.34
690.593	26.49
690.779	26.64
690.965	26.67
691.151	26.6
691.337	26.74
691.523	26.79
691.709	26.74
691.895	27.46
692.081	27.43
692.267	27.41
692.453	27.09
692.639	26.95
692.825	26.85
693.011	26.78
693.196	26.94
693.382	26.66
693.568	26.54
693.754	26.79
693.94	26.11
694.125	26.46
694.311	26.2
694.497	25.94
694.682	26.07
694.868	26.42
695.054	26.31
695.239	26.47
695.425	26.29
695.611	26.67
695.796	26.22
695.982	26.32
696.168	26.05
696.353	26
696.539	26.23
696.724	26.21
696.91	25.82
697.095	25.98
697.281	25.74
697.466	25.65
697.652	25.7
697.837	25.9
698.023	25.97
698.208	26.14
698.393	26.29
698.579	26.24
698.764	26.24
698.949	26.53
699.135	26.44
699.32	26.69
699.505	26.81
699.691	26.35
699.876	26.23
700.061	26.2
700.246	26.25
700.432	26.26
700.617	26.19
700.802	25.68
700.987	25.54
701.172	26.07
701.358	26.02
701.543	26.2
701.728	26.71
701.913	27.12
702.098	27.27
702.283	27.23
702.468	27.36
702.653	27.79
702.838	28.26
703.023	28.11
703.208	27.62
703.393	27.62
703.578	27.69
703.763	27.58
703.948	27.28
704.133	27.45
704.318	27.11
704.503	27.52
704.688	27.34
704.873	27.38
705.057	27.49
705.242	27.54
705.427	27.55
705.612	27.74
705.797	27.65
705.981	27.54
706.166	27.38
706.351	27.72
706.536	26.93
706.72	27.1
706.905	27.05
707.09	26.88
707.274	26.59
707.459	26.68
707.644	26.59
707.828	26.88
708.013	26.57
708.197	26.45
708.382	26.37
708.567	26.71
708.751	26.42
708.936	26
709.12	26.41
709.305	26.86
709.489	26.86
709.673	26.75
709.858	26.77
710.042	27.32
710.227	27.62
710.411	27.69
710.596	28.17
710.78	28.34
710.964	28.87
711.149	29.01
711.333	28.87
711.517	29.05
711.702	29.39
711.886	29.34
712.07	29.06
712.254	28.81
712.438	28.7
712.623	28.46
712.807	28.33
712.991	28.33
713.175	27.93
713.359	27.94
713.544	27.51
713.728	27.24
713.912	26.99
714.096	27.09
714.28	27.2
714.464	27.36
714.648	27.14
714.832	27.4
715.016	27.13
715.2	27.16
715.384	27.12
715.568	27.29
715.752	27.14
715.936	27.46
716.12	27.51
716.304	27.65
716.488	27.38
716.671	27.57
716.855	27.66
717.039	27.98
717.223	28.1
717.407	27.91
717.59	27.89
717.774	27.73
717.958	27.47
718.142	27.03
718.325	26.9
718.509	27.03
718.693	26.95
718.877	26.69
719.06	26.13
719.244	26.25
719.428	26.56
719.611	26.37
719.795	27
719.978	27.42
720.162	27.77
720.345	27.98
720.529	27.96
720.713	27.94
720.896	27.98
721.08	28.36
721.263	28.01
721.446	27.98
721.63	28.44
721.813	27.77
721.997	27.58
722.18	28.17
722.364	28.25
722.547	27.79
722.73	27.92
722.914	27.26
723.097	27.76
723.28	27.89
723.464	27.41
723.647	27.29
723.83	27.5
724.013	27.67
724.197	27.23
724.38	26.92
724.563	27.29
724.746	26.96
724.929	27.61
725.112	27.5
725.296	27.82
725.479	28.42
725.662	28.13
725.845	28.51
726.028	28.19
726.211	27.98
726.394	28.09
726.577	28.43
726.76	28.8
726.943	28.71
727.126	28.46
727.309	28.09
727.492	28.02
727.675	28.12
727.858	27.45
728.041	27.52
728.224	27.27
728.407	27.5
728.589	27.1
728.772	26.7
728.955	26.75
729.138	26.92
729.321	27.09
729.503	27.45
729.686	28.23
729.869	28.63
730.052	28.28
730.234	28.83
730.417	28.63
730.6	28.78
730.782	29.05
730.965	28.91
731.148	28.77
731.33	28.73
731.513	28.13
731.695	27.63
731.878	27.49
732.061	27.54
732.243	27.33
732.426	26.81
732.608	26.56
732.791	27.02
732.973	27.51
733.156	27.71
733.338	27.51
733.52	27.82
733.703	27.7
733.885	28.34
734.068	28.27
734.25	28.99
734.432	29.53
734.615	29.49
734.797	28.76
734.979	28.38
735.162	28.48
735.344	29.12
735.526	28.87
735.708	28.87
735.891	28.98
736.073	29.44
736.255	28.39
736.437	28.43
736.619	28.83
736.802	28.79
736.984	28.57
737.166	28.2
737.348	27.85
737.53	28.05
737.712	28.31
737.894	28.42
738.076	28.33
738.258	28.42
738.44	27.8
738.622	27.97
738.804	27.75
738.986	28.34
739.168	28.02
739.35	28.25
739.532	28.24
739.714	28.23
739.896	26.65
740.078	26.81
740.259	27.49
740.441	28.46
740.623	28.26
740.805	28.44
740.987	28.12
741.168	28.36
741.35	28.33
741.532	28.38
741.714	27.79
741.895	28.66
742.077	28.43
742.259	27.63
742.44	27.03
742.622	27.25
742.804	27.61
742.985	27.61
743.167	27.71
743.348	26.93
743.53	27.2
743.711	27.75
743.893	28.61
744.075	28.68
744.256	28.6
744.438	29.18
744.619	28.93
744.8	28.8
744.982	28.65
745.163	28.79
745.345	29.51
745.526	29.91
745.707	29.86
745.889	29.05
746.07	28.76
746.252	29.28
746.433	29.59
746.614	29.63
746.795	29.89
746.977	29.59
747.158	30.19
747.339	30.32
747.52	29.61
747.702	29.25
747.883	28.82
748.064	29.03
748.245	28.6
748.426	27.84
748.607	28.1
748.788	27.76
748.97	28
749.151	27.26
749.332	28.3
749.513	28.81
749.694	28.72
749.875	29.82
750.056	30.24
750.237	30.39
750.418	30.9
750.599	30.94
750.78	30.53
750.96	30.71
751.141	31.25
751.322	29.76
751.503	28.88
751.684	29.51
751.865	28.88
752.046	28.72
752.226	29.01
752.407	28.45
752.588	28.26
752.769	29.72
752.949	29.78
753.13	29.88
753.311	29.9
753.492	30.61
753.672	30.22
753.853	30.48
754.034	30.61
754.214	30.16
754.395	30.14
754.575	30.22
754.756	30.02
754.937	29.95
755.117	29.43
755.298	29.86
755.478	29.94
755.659	29.33
755.839	28.77
756.02	28.66
756.2	28.71
756.381	29.05
756.561	29.11
756.741	28.78
756.922	28.94
757.102	29.16
757.283	28.8
757.463	28.36
757.643	29.51
757.823	30.57
758.004	30.24
758.184	30.01
758.364	30.36
758.545	30.33
758.725	29.58
758.905	29.37
759.085	29.26
759.265	29.19
759.446	28.72
759.626	29.06
759.806	27.97
759.986	28.17
760.166	28.64
760.346	27.78
760.526	27.71
760.706	27.71
760.886	27.65
761.066	28.05
761.246	28.93
761.426	29.74
761.606	28.41
761.786	29.26
761.966	29.64
762.146	29.71
762.326	29.88
762.506	29.83
762.686	30.19
762.866	30.04
763.046	29.84
763.225	29.17
763.405	28.8
763.585	28.78
763.765	28.55
763.945	27.83
764.124	27.7
764.304	27.83
764.484	28.49
764.664	28.47
764.843	29.08
765.023	28.86
765.203	28.93
765.382	29.2
765.562	29.91
765.741	29.97
765.921	30.71
766.101	31.26
766.28	31.44
766.46	30.66
766.639	30.43
766.819	29.98
766.998	30.48
767.178	30.94
767.357	31.08
767.537	31.07
767.716	30.55
767.896	30.25
768.075	29.83
768.254	29.5
768.434	29.87
768.613	30.41
768.792	30.15
768.972	30.03
769.151	29.95
769.33	29.61
769.51	30.23
769.689	30.59
769.868	30.68
770.047	30.49
770.226	30.49
770.406	29.84
770.585	29.41
770.764	29.96
770.943	29.96
771.122	30.28
771.301	30.76
771.48	30.61
771.66	30.24
771.839	30.71
772.018	30.64
772.197	31.07
772.376	32.14
772.555	32.09
772.734	32.36
772.913	31.69
773.092	30.89
773.271	30.92
773.449	30.54
773.628	30.23
773.807	29.8
773.986	29.76
774.165	29.91
774.344	29.08
774.523	29.48
774.701	28.27
774.88	28.83
775.059	28.84
775.238	28.21
775.417	28.15
775.595	30.1
775.774	30.58
775.953	30.54
776.131	30.38
776.31	30.51
776.489	29.75
776.667	29.9
776.846	29.89
777.025	30.72
777.203	30.61
777.382	30.32
777.56	28.82
777.739	28.05
777.917	29.49
778.096	28.78
778.274	28.85
778.453	29.45
778.631	29.74
778.81	29.96
778.988	29.21
779.166	28.86
779.345	29.78
779.523	30.67
779.702	30.68
779.88	29.99
780.058	30.53
780.237	31.08
780.415	31.17
780.593	31.31
780.771	30.58
780.95	31.44
781.128	32.88
781.306	32.84
781.484	32.57
781.662	32.69
781.841	32.9
782.019	32.79
782.197	32.57
782.375	32.71
782.553	32.56
782.731	33.44
782.909	32.84
783.087	32.22
783.265	32.52
783.443	32.03
783.621	32.49
783.799	31.63
783.977	31.52
784.155	31.54
784.333	31.27
784.511	31.41
784.689	31.27
784.867	31.56
785.045	31.72
785.223	31.87
785.4	32.81
785.578	32.84
785.756	33.48
785.934	33.8
786.112	33.2
786.289	33.44
786.467	33.81
786.645	33.21
786.823	33.55
787	33.48
787.178	32.67
787.356	30.97
787.533	30.81
787.711	31.64
787.889	31.28
788.066	31.61
788.244	31.56
788.421	31.51
788.599	32.12
788.776	31.86
788.954	31.69
789.131	32.17
789.309	33.2
789.486	33.99
789.664	33.67
789.841	34.04
790.019	33.57
790.196	33.02
790.373	32.87
790.551	33.09
790.728	32.65
790.906	33.01
791.083	31.74
791.26	32.38
791.437	31.76
791.615	31.31
791.792	31.45
791.969	31.94
792.146	32.17
792.324	32.63
792.501	33.31
792.678	34.06
792.855	34.07
793.032	35.07
793.209	34.96
793.387	35.34
793.564	35.52
793.741	34.86
793.918	34.62
794.095	35.28
794.272	33.94
794.449	32.64
794.626	33.13
794.803	33.16
794.98	33.03
795.157	32.73
795.334	32.76
795.511	31.44
795.688	32.14
795.864	32.22
796.041	32.81
796.218	33.41
796.395	34.2
796.572	32.92
796.749	32.87
796.925	31.79
797.102	31.28
797.279	30.79
797.456	31.42
797.632	30.74
797.809	30.39
797.986	29.53
798.162	29.82
798.339	29.4
798.516	29.72
798.692	28.24
798.869	29.23
799.046	29.96
799.222	29.92
799.399	30.09
799.575	31.68
799.752	31.76
799.928	32.02
800.105	31.6
800.281	32.4
800.458	32.52
800.634	33.07
800.811	33.46
800.987	31.62
801.163	31.56
801.34	32.55
801.516	31.85
801.692	31.89
801.869	30.95
802.045	31.08
802.221	29.81
802.398	30.26
802.574	31.11
802.75	30.46
802.926	31.45
803.103	31.78
803.279	30.61
803.455	29.68
803.631	30.68
803.807	32.01
803.983	33.14
804.16	32.96
804.336	31.57
804.512	29.79
804.688	30.64
804.864	31.44
805.04	31.22
805.216	32.29
805.392	32.91
805.568	32.38
805.744	31.87
805.92	31.28
806.096	32.99
806.272	33.79
806.448	36.44
806.623	35.84
806.799	35.7
806.975	35.91
807.151	34.43
807.327	33.68
807.503	33.57
807.678	34.49
807.854	33.54
808.03	32.47
808.206	33.08
808.381	31.47
808.557	30.86
808.733	30
808.908	30.81
809.084	32.38
809.26	31.99
809.435	32.57
809.611	31.62
809.787	31.92
809.962	32.18
810.138	31.7
810.313	31.86
810.489	33.74
810.664	34.55
810.84	32.78
811.015	31.7
811.191	33.74
811.366	32.72
811.542	33.12
811.717	34.47
811.892	34.32
812.068	34.52
812.243	34.36
812.419	33.59
812.594	33.4
812.769	34.16
812.944	34.98
813.12	35.57
813.295	35.7
813.47	35.02
813.645	33.71
813.821	33.87
813.996	34.83
814.171	36
814.346	35.24
814.521	35.34
814.697	37.31
814.872	36.94
815.047	35.4
815.222	37.36
815.397	36.49
815.572	36.31
815.747	35.23
815.922	33.35
816.097	32.49
816.272	33.74
816.447	33.57
816.622	32.71
816.797	31.98
816.972	32.41
817.147	30.99
817.322	32.45
817.496	33.01
817.671	33.16
817.846	33.71
818.021	33.49
818.196	31.87
818.371	32.73
818.545	32.28
818.72	33.42
818.895	32.88
819.069	32.49
819.244	32.69
819.419	32.87
819.594	33.08
819.768	32.77
819.943	32.36
820.117	32.91
820.292	32.77
820.467	31.51
820.641	30.8
820.816	30.48
820.99	30.28
821.165	29.96
821.339	29.59
821.514	29.69
821.688	29.6
821.863	29.3
822.037	28.93
822.212	28.66
822.386	28.9
822.56	28.88
822.735	28.82
822.909	28.9
823.084	28.81
823.258	28.57
823.432	28.66
823.606	28.63
823.781	28.97
823.955	29.12
824.129	29.39
824.303	29.6
824.478	30.02
824.652	30.16
824.826	30.1
825	29.94
825.174	30.16
825.348	29.66
825.523	29.98
825.697	29.97
825.871	29.96
826.045	29.64
826.219	29.1
826.393	28.64
826.567	28.71
826.741	29.06
826.915	29.36
827.089	30.16
827.263	30.48
827.437	30.21
827.611	30.6
827.784	31.45
827.958	31.66
828.132	31.85
828.306	32.32
828.48	32.87
828.654	33.19
828.827	33.55
829.001	32.81
829.175	32.7
829.349	33.54
829.522	33.87
829.696	33.75
829.87	34.28
830.044	35.65
830.217	35.06
830.391	34.7
830.565	33.9
830.738	33.48
830.912	33.96
831.085	34
831.259	34.46
831.432	33.01
831.606	32.8
831.779	31.62
831.953	30.5
832.126	30.52
832.3	30.96
832.473	31.45
832.647	30.89
832.82	31.23
832.994	31.22
833.167	31.02
833.34	31.62
833.514	31.98
833.687	31.79
833.86	32.02
834.034	31.85
834.207	31.67
834.38	31.46
834.553	32.15
834.727	32.19
834.9	32.86
835.073	31.79
835.246	31.78
835.419	31.36
835.593	32.49
835.766	32.71
835.939	33.44
836.112	33.4
836.285	33.33
836.458	34.64
836.631	34.43
836.804	35.02
836.977	36.83
837.15	37.33
837.323	37.04
837.496	37.17
837.669	37.56
837.842	37.64
838.015	37.71
838.188	38.05
838.361	36.14
838.533	34.53
838.706	33.49
838.879	33.22
839.052	33.03
839.225	33.79
839.398	32.22
839.57	32.28
839.743	34.51
839.916	35.42
840.088	35.51
840.261	35.02
840.434	37.59
840.607	37.44
840.779	36.74
840.952	36.11
841.124	34.62
841.297	36.82
841.47	37.67
841.642	36.14
841.815	36.72
841.987	38.06
842.16	38.78
842.332	39.4
842.505	37.13
842.677	38.31
842.85	40.34
843.022	43.67
843.194	41.62
843.367	40.5
843.539	40.4
843.712	38.94
843.884	38.71
844.056	41.27
844.229	40.49
844.401	43.21
844.573	42.37
844.745	40.16
844.918	40.42
845.09	40.11
845.262	42.22
845.434	44.23
845.606	43.5
845.779	42.53
845.951	41.69
846.123	40.1
846.295	40.41
846.467	42.02
846.639	44.74
846.811	42.33
846.983	45.61
847.155	40.49
847.327	41.54
847.499	40.4
847.671	43.11
847.843	39.18
848.015	39.37
848.187	40.1
848.359	40.24
848.531	37.21
848.703	37.25
848.875	35.97
849.047	39.89
849.218	38.06
849.39	42.11
849.562	38.31
849.734	40.26
849.905	41.22
850.077	39.78
850.249	33.99
850.421	35.13
850.592	32.18
850.764	33.39
850.936	36.43
851.107	36.27
851.279	31.67
851.451	36.15
851.622	37.83
851.794	37.54
851.965	39.21
852.137	46.47
852.308	48.39
852.48	55.9
852.651	54.76
852.823	52.25
852.994	50.46
853.166	49.08
853.337	46.21
853.509	47.8
853.68	50.22
853.851	48.17
854.023	43.25
854.194	43.31
854.365	38.09
854.537	37.57
854.708	36.47
854.879	40.01
855.05	42.95
855.222	46.77
855.393	48.16
855.564	44.64
855.735	47.69
855.906	51.59
856.078	48.24
856.249	50.84
856.42	52.35
856.591	51.7
856.762	50.99
856.933	53.52
857.104	49.96
857.275	49.79
857.446	49.69
857.617	49.81
857.788	47.31
857.959	51.59
858.13	51.79
858.301	51.34
858.472	47.85
858.643	45.74
858.814	45.23
858.985	48.1
859.155	46.31
859.326	48.06
859.497	44.39
859.668	43.51
859.839	39.16
860.009	35.65
860.18	35.12
860.351	41.72
860.522	43.87
860.692	41.8
860.863	36.73
861.034	38.54
861.204	38.9
861.375	43.17
861.546	46.51
861.716	48.39
861.887	46.94
862.057	46.09
862.228	43.44
862.398	39.76
862.569	44.14
862.739	49.99
862.91	47.37
863.08	49.89
863.251	49.24
863.421	47.74
863.592	49.16
863.762	52.52
863.932	51.64
864.103	49.72
864.273	55.44
864.443	52.8
864.614	50.57
864.784	54.12
864.954	50.94
865.125	49.53
865.295	52.52
865.465	50.53
865.635	47.64
865.805	53.48
865.976	55.95
866.146	54.17
866.316	56.75
866.486	57.16
866.656	53.58
866.826	53.3
866.996	51.79
867.166	51.32
867.336	51.2
867.506	53.68
867.676	47.39
867.846	48.12
868.016	44.82
868.186	42.2
868.356	41.23
868.526	41.28
868.696	42.19
868.866	43.77
869.036	36.8
869.206	40.65
869.376	42.33
869.545	45.04
869.715	44.51
869.885	44.02
870.055	47.65
870.224	49.03
870.394	49.25
870.564	50.97
870.734	49.08
870.903	54.67
871.073	51.67
871.243	50.84
871.412	50.89
871.582	51.37
871.751	53.9
871.921	47.4
872.091	46.62
872.26	44.02
872.43	43.23
872.599	45
872.769	43.35
872.938	43.03
873.108	41.34
873.277	37.36
873.446	34.4
873.616	33.19
873.785	41.22
873.955	40.3
874.124	38.98
874.293	41.61
874.463	41.35
874.632	42.66
874.801	42.57
874.971	43.29
875.14	52.17
875.309	54.08
875.478	52.15
875.647	49.69
875.817	46.97
875.986	51.18
876.155	44.22
876.324	44.4
876.493	42.27
876.662	44.44
876.831	43.02
877	38.43
877.17	39.04
877.339	42.59
877.508	42.43
877.677	46.8
877.846	45.8
878.015	48.38
878.184	47.34
878.352	47.51
878.521	47.09
878.69	46.4
878.859	46.33
879.028	45.26
879.197	42.83
879.366	39.48
879.534	38.8
879.703	38.34
879.872	36.92
880.041	36.97
880.21	35.93
880.378	35.13
880.547	35.05
880.716	34.34
880.884	33.87
881.053	33.23
881.222	33.66
881.39	33.26
881.559	32.77
881.727	33.13
881.896	32.92
882.065	32.87
882.233	31.86
882.402	31.63
882.57	32.36
882.739	32.4
882.907	32.94
883.076	32.41
883.244	32.68
883.412	32.64
883.581	32.65
883.749	32.98
883.918	34
884.086	34.86
884.254	35.51
884.423	35.27
884.591	34.77
884.759	34.03
884.927	34.58
885.096	33.24
885.264	34.57
885.432	36.08
885.6	36.92
885.769	34.9
885.937	35.91
886.105	37.07
886.273	36.66
886.441	39.64
886.609	42.9
886.777	44.9
886.945	48.28
887.113	47.43
887.281	44.33
887.449	43.94
887.617	46.67
887.785	48.17
887.953	46.82
888.121	47.81
888.289	45.05
888.457	42.63
888.625	42.76
888.793	42.78
888.961	41.03
889.129	42.85
889.296	40.81
889.464	40.33
889.632	37.61
889.8	37.2
889.967	35.57
890.135	37.34
