Data from 2938460_Reflection_3.txt Node
Date: Wed Jun 17 14:04:08 EDT 2015
User: robert
Spectrometer: USB4E03002
Autoset integration time: false
Trigger mode: 4
Integration Time (sec): 1.000000E-1
Scans to average: 10
Electric dark correction enabled: true
Nonlinearity correction enabled: false
Boxcar width: 5
Stray light correction enabled: false
XAxis mode: Wavelengths
Stop averaging: false
Number of Pixels in Spectrum: 3648
>>>>>Begin Spectral Data<<<<<
177.575	-43.8
177.794	-34.96
178.014	3.56
178.233	-156.19
178.452	263.49
178.672	273.8
178.891	61.69
179.11	64.37
179.33	-170.31
179.549	-1554.32
179.768	-393.75
179.987	-122.02
180.207	-587.69
180.426	-140.35
180.645	205.34
180.864	152.1
181.084	137.93
181.303	135.18
181.522	134.5
181.741	195.3
181.96	149.26
182.179	120.29
182.398	40.6
182.618	49.29
182.837	56.53
183.056	57.37
183.275	88.6
183.494	186.75
183.713	162.78
183.932	938.51
184.151	589.02
184.37	334.09
184.589	191.71
184.808	210.78
185.027	742.68
185.246	482.57
185.465	325.54
185.684	353.31
185.903	385.62
186.122	319.35
186.341	187.16
186.56	173.89
186.779	293.11
186.998	340.89
187.216	201.2
187.435	162.17
187.654	141.12
187.873	137.86
188.092	139.28
188.311	124.94
188.53	138.13
188.748	158.8
188.967	142.06
189.186	115.17
189.405	128.03
189.623	113.57
189.842	189.64
190.061	-909.2
190.28	-3.9
190.498	48.68
190.717	-46.25
190.936	47.92
191.154	-95.24
191.373	-173.77
191.592	-677.61
191.81	168.67
192.029	-417.01
192.248	627.13
192.466	353.48
192.685	141.46
192.904	158.43
193.122	150.64
193.341	168.37
193.559	154.12
193.778	141.55
193.996	173.74
194.215	193.14
194.433	165.23
194.652	123.49
194.87	119.54
195.089	156.53
195.307	146.4
195.526	310.14
195.744	215.69
195.963	200.65
196.181	205.12
196.399	158.31
196.618	153.11
196.836	172.69
197.055	214.9
197.273	209.86
197.491	175.04
197.71	182.64
197.928	164.35
198.146	161.61
198.365	180.98
198.583	175.63
198.801	163.23
199.019	179.98
199.238	149.38
199.456	119.02
199.674	105.34
199.892	113.32
200.111	90.86
200.329	124.97
200.547	133.77
200.765	95.93
200.983	83.44
201.202	112.41
201.42	103.75
201.638	127.74
201.856	129.95
202.074	124.76
202.292	100.16
202.51	110.92
202.728	107.46
202.946	116.85
203.165	120.89
203.383	125.53
203.601	109.89
203.819	106.94
204.037	102.66
204.255	108.94
204.473	117.29
204.691	144.4
204.909	137.8
205.127	107.65
205.345	107.54
205.562	116.42
205.78	152.48
205.998	166.96
206.216	181.41
206.434	141.71
206.652	149.63
206.87	151.72
207.088	143.45
207.306	141.44
207.523	156.24
207.741	147.51
207.959	147.99
208.177	118.4
208.395	96.85
208.612	82.14
208.83	100.56
209.048	77.57
209.266	71.08
209.483	75.74
209.701	81.47
209.919	75.37
210.136	86.34
210.354	78.11
210.572	81.59
210.79	88.68
211.007	95.27
211.225	91.91
211.442	104.6
211.66	113.57
211.878	112.32
212.095	178.14
212.313	178.32
212.53	153.02
212.748	177.17
212.966	184.31
213.183	192.84
213.401	178.44
213.618	152.58
213.836	158.15
214.053	139.72
214.271	137.85
214.488	76
214.705	78.3
214.923	91.92
215.14	86.29
215.358	91.47
215.575	84.94
215.793	75.82
216.01	67.5
216.227	61.18
216.445	67.81
216.662	71.21
216.879	79.4
217.097	70.8
217.314	66.42
217.531	65.92
217.749	55.79
217.966	48.32
218.183	38.62
218.4	35.95
218.618	28.33
218.835	-4.07
219.052	12.77
219.269	-14.96
219.487	-0.17
219.704	17.24
219.921	8.39
220.138	7.73
220.355	9.69
220.572	27.53
220.79	36.89
221.007	54.63
221.224	59.75
221.441	51.91
221.658	60.04
221.875	60.06
222.092	55.35
222.309	55.28
222.526	56.56
222.743	57.69
222.96	54.53
223.177	54.11
223.394	44.46
223.611	43.4
223.828	44.02
224.045	32.45
224.262	30.61
224.479	30.19
224.696	33.87
224.913	30.85
225.13	28.07
225.347	26.72
225.564	23.99
225.781	22.77
225.997	22.35
226.214	21.52
226.431	20.89
226.648	19.77
226.865	19.23
227.082	18.9
227.298	19.45
227.515	18.65
227.732	18.1
227.949	18.77
228.165	18.38
228.382	16.87
228.599	15.85
228.816	16.17
229.032	16.42
229.249	15.36
229.466	14.06
229.682	13.15
229.899	14.6
230.116	14.82
230.332	13.1
230.549	12.4
230.765	13.91
230.982	13.94
231.199	16.72
231.415	17.94
231.632	20.05
231.848	20.88
232.065	19.97
232.281	18.23
232.498	17.65
232.714	18.38
232.931	20.58
233.147	21.1
233.364	20.55
233.58	19.03
233.797	20.26
234.013	17.88
234.23	15.38
234.446	14.78
234.662	14.4
234.879	13.51
235.095	13.37
235.312	15.03
235.528	14.62
235.744	16.17
235.961	14.96
236.177	9.56
236.393	11.88
236.61	14.84
236.826	16.92
237.042	17.98
237.258	19.62
237.475	18.39
237.691	16.58
237.907	14.14
238.123	14.53
238.339	15.73
238.556	19.56
238.772	18.19
238.988	17.14
239.204	15.61
239.42	16.03
239.636	16.08
239.853	16.05
240.069	15.4
240.285	15.29
240.501	14.61
240.717	14.12
240.933	13.31
241.149	13.26
241.365	13.85
241.581	14.95
241.797	15
242.013	14.29
242.229	14.47
242.445	14.93
242.661	15.12
242.877	16.2
243.093	15.68
243.309	15.31
243.525	14.58
243.741	13.14
243.957	11.87
244.173	10.76
244.388	10.85
244.604	10.56
244.82	10.19
245.036	10.23
245.252	9.51
245.468	9.55
245.683	9.8
245.899	9.77
246.115	9.93
246.331	9.93
246.547	10.01
246.762	9.65
246.978	9.58
247.194	10.04
247.409	10.41
247.625	10.43
247.841	10.58
248.057	10.15
248.272	10.52
248.488	10.47
248.703	9.86
248.919	9.11
249.135	9.35
249.35	10.51
249.566	9.64
249.782	8.98
249.997	9.53
250.213	9.45
250.428	9.18
250.644	9.34
250.859	9.23
251.075	9.79
251.29	10.18
251.506	10.18
251.721	9.44
251.937	9.75
252.152	9.78
252.368	10.07
252.583	11.41
252.798	11.79
253.014	12.45
253.229	13.5
253.445	13.6
253.66	14.6
253.875	14.57
254.091	15.36
254.306	13.99
254.521	14.65
254.737	12.42
254.952	10.62
255.167	9.8
255.383	9.95
255.598	9.8
255.813	9.52
256.028	8.76
256.244	8.96
256.459	7.75
256.674	8.25
256.889	7.71
257.104	7.5
257.32	7.89
257.535	7.94
257.75	7.55
257.965	7.44
258.18	7.06
258.395	7.32
258.61	7.36
258.826	7.6
259.041	7.55
259.256	7.67
259.471	8.16
259.686	8.04
259.901	8.48
260.116	8.42
260.331	8.53
260.546	8.65
260.761	8.24
260.976	8.01
261.191	7.58
261.406	7.6
261.621	7.35
261.836	7.45
262.05	7.07
262.265	7.32
262.48	7.07
262.695	6.92
262.91	8
263.125	8.47
263.34	8.85
263.555	9.47
263.769	9.61
263.984	9.75
264.199	9.5
264.414	10.08
264.629	9.56
264.843	9.55
265.058	8.89
265.273	8.48
265.488	8.82
265.702	9.13
265.917	9.05
266.132	9.18
266.346	9.19
266.561	9.42
266.776	9.55
266.99	9.14
267.205	9.04
267.42	8.92
267.634	9.4
267.849	9.18
268.063	8.48
268.278	9.06
268.492	9.18
268.707	8.98
268.922	8.66
269.136	7.91
269.351	8.11
269.565	8.26
269.78	7.97
269.994	7.66
270.209	7.76
270.423	7.26
270.637	6.4
270.852	6.07
271.066	6.62
271.281	6.56
271.495	6.38
271.709	6.59
271.924	6.36
272.138	6.76
272.353	6.93
272.567	6.58
272.781	7.23
272.996	7.45
273.21	7.44
273.424	6.74
273.638	6.85
273.853	7.58
274.067	7.04
274.281	7.58
274.495	7.51
274.71	7.23
274.924	6.94
275.138	6.89
275.352	6.51
275.566	6.75
275.781	7.07
275.995	7.75
276.209	7.29
276.423	7.35
276.637	6.77
276.851	6.74
277.065	6.83
277.279	7.73
277.493	7.63
277.707	8.19
277.921	7.93
278.135	7.45
278.349	6.44
278.563	7.16
278.777	7.15
278.991	7.24
279.205	7.88
279.419	7.97
279.633	7.66
279.847	7.83
280.061	7.91
280.275	8.1
280.489	8.46
280.703	8.45
280.917	8.33
281.131	8.7
281.344	8.84
281.558	8.29
281.772	8.26
281.986	7.88
282.2	7.7
282.414	7.51
282.627	7.07
282.841	7.07
283.055	7.22
283.269	7.38
283.482	7.39
283.696	7.17
283.91	7.27
284.123	7.2
284.337	7.17
284.551	7.25
284.764	7.59
284.978	7.77
285.192	7.76
285.405	7.93
285.619	7.57
285.833	7.3
286.046	7.35
286.26	7.47
286.473	7.46
286.687	8.1
286.9	8.34
287.114	7.83
287.327	7.77
287.541	7.38
287.754	7.32
287.968	7.17
288.181	6.8
288.395	7.4
288.608	7.29
288.822	7.17
289.035	6.53
289.248	6.44
289.462	6.46
289.675	6.32
289.889	6.8
290.102	6.83
290.315	6.88
290.529	7.6
290.742	7.18
290.955	7.22
291.169	7.02
291.382	8.03
291.595	7.99
291.808	8.44
292.022	8.59
292.235	8.32
292.448	8.93
292.661	9.07
292.875	8.78
293.088	8.62
293.301	9
293.514	9.29
293.727	8.91
293.94	9.05
294.153	9.05
294.367	8.95
294.58	9.11
294.793	8.44
295.006	8.75
295.219	9.3
295.432	9.42
295.645	9.48
295.858	9.55
296.071	9.31
296.284	9.19
296.497	8.79
296.71	8.98
296.923	9.26
297.136	9.35
297.349	9.43
297.562	9.04
297.775	9.16
297.988	9.09
298.201	9.24
298.414	9.25
298.626	9.1
298.839	9.77
299.052	9.48
299.265	9.16
299.478	9.57
299.691	9.81
299.903	9.63
300.116	9.88
300.329	9.56
300.542	9.55
300.755	9.94
300.967	10.46
301.18	10.47
301.393	10.61
301.605	10.52
301.818	10.34
302.031	9.95
302.243	10.19
302.456	10.33
302.669	10.33
302.881	10.48
303.094	10.29
303.307	10.63
303.519	10.98
303.732	11.84
303.944	11.97
304.157	12.41
304.37	12.64
304.582	12.91
304.795	12.94
305.007	13.43
305.22	13.21
305.432	13.49
305.645	13.25
305.857	12.85
306.069	12.86
306.282	12.98
306.494	12.79
306.707	12.91
306.919	12.28
307.132	11.88
307.344	11.85
307.556	12.44
307.769	12.47
307.981	12.53
308.193	12.51
308.406	11.86
308.618	12.2
308.83	12.02
309.043	11.59
309.255	12.05
309.467	11.97
309.679	12.11
309.892	12.05
310.104	12.19
310.316	12.18
310.528	12.45
310.74	12.86
310.953	12.86
311.165	12.96
311.377	12.97
311.589	13.38
311.801	14.02
312.013	13.98
312.225	13.7
312.437	13.74
312.649	14.05
312.862	13.79
313.074	14.26
313.286	14.09
313.498	14.55
313.71	15.09
313.922	14.83
314.134	14.7
314.346	14.68
314.558	15.15
314.77	15.18
314.982	15.13
315.193	15.26
315.405	14.69
315.617	14.61
315.829	14.57
316.041	14.59
316.253	14.27
316.465	14.52
316.677	15.02
316.888	15.02
317.1	15.25
317.312	15.41
317.524	15.41
317.736	16.08
317.947	16.66
318.159	16.52
318.371	16.84
318.583	17.32
318.794	17.23
319.006	17.31
319.218	17.04
319.43	17.26
319.641	17.23
319.853	17.73
320.064	17.82
320.276	17.65
320.488	17.6
320.699	17.95
320.911	18.39
321.123	18.65
321.334	18.75
321.546	19.06
321.757	19.26
321.969	19.4
322.18	19.6
322.392	19.07
322.603	19.28
322.815	19.99
323.026	20.26
323.238	20.18
323.449	19.84
323.661	19.64
323.872	20.08
324.083	20.8
324.295	21.4
324.506	21.79
324.718	22.68
324.929	23.57
325.14	23.78
325.352	23.74
325.563	24.26
325.774	25.14
325.986	26.11
326.197	26
326.408	25.91
326.62	25.62
326.831	26.02
327.042	26.18
327.253	26.41
327.464	26.83
327.676	27.54
327.887	27.87
328.098	28.28
328.309	28.6
328.52	29.56
328.732	29.99
328.943	30.93
329.154	31.16
329.365	31.8
329.576	31.83
329.787	32.44
329.998	33
330.209	33.91
330.42	34.25
330.631	34.53
330.842	35.44
331.053	35.57
331.264	36.07
331.475	36.71
331.686	37.23
331.897	37.32
332.108	37.71
332.319	37.75
332.53	37.37
332.741	37.66
332.952	37.87
333.163	37.53
333.374	37.75
333.585	38.18
333.795	38.53
334.006	38.52
334.217	39.23
334.428	39.39
334.639	39.53
334.849	40.17
335.06	40.49
335.271	40.53
335.482	40.25
335.692	40.36
335.903	40.07
336.114	39.53
336.325	40.33
336.535	40.19
336.746	40.62
336.957	40.81
337.167	40.92
337.378	40.92
337.589	41.39
337.799	41.94
338.01	42.87
338.22	43.05
338.431	43.55
338.642	43.09
338.852	43.57
339.063	43.36
339.273	43.14
339.484	43.01
339.694	42.75
339.905	42.33
340.115	42.55
340.326	42.32
340.536	42.63
340.746	42.58
340.957	42.66
341.167	42.45
341.378	42.08
341.588	42.43
341.799	42.41
342.009	42.72
342.219	43.11
342.43	42.87
342.64	42.34
342.85	42.29
343.061	42.22
343.271	42.27
343.481	42.35
343.691	42.36
343.902	41.96
344.112	41.96
344.322	41.85
344.532	41.39
344.743	41.43
344.953	41.82
345.163	41.64
345.373	41.67
345.583	41.39
345.793	41.23
346.004	41.81
346.214	41.73
346.424	41.66
346.634	41.92
346.844	42.45
347.054	42.29
347.264	42.24
347.474	42.2
347.684	42.12
347.894	42.43
348.104	42.2
348.314	41.6
348.524	41.62
348.734	41.72
348.944	41.71
349.154	41.77
349.364	41.47
349.574	41
349.784	40.89
349.994	41.16
350.204	40.91
350.413	41.48
350.623	41.72
350.833	42.08
351.043	41.96
351.253	41.45
351.463	41.07
351.672	41.32
351.882	41.59
352.092	41.79
352.302	41.63
352.511	41.78
352.721	41.2
352.931	41.12
353.141	40.92
353.35	40.99
353.56	41.12
353.77	40.86
353.979	40.8
354.189	40.71
354.399	40.55
354.608	40.26
354.818	39.99
355.027	40.23
355.237	40.2
355.447	40.22
355.656	40.13
355.866	40.08
356.075	40.53
356.285	40.49
356.494	40.29
356.704	40.22
356.913	40.21
357.123	40.32
357.332	40
357.542	39.8
357.751	39.81
357.96	39.68
358.17	39.53
358.379	39.54
358.589	39.77
358.798	39.67
359.007	39.63
359.217	39.7
359.426	39.51
359.635	39.56
359.845	39.73
360.054	39.65
360.263	39.81
360.472	39.97
360.682	39.75
360.891	39.69
361.1	39.79
361.309	39.7
361.519	39.72
361.728	39.56
361.937	39.61
362.146	39.52
362.355	39.41
362.564	39.36
362.774	39.23
362.983	39.17
363.192	39.03
363.401	38.87
363.61	38.62
363.819	38.71
364.028	38.76
364.237	38.52
364.446	38.4
364.655	38.34
364.864	38.22
365.073	38.15
365.282	38.23
365.491	38.08
365.7	38.18
365.909	38.59
366.118	38.69
366.327	38.73
366.536	39.04
366.745	39.24
366.954	39.4
367.162	39.23
367.371	39.15
367.58	38.89
367.789	38.72
367.998	38.65
368.207	38.58
368.415	37.94
368.624	38.16
368.833	37.98
369.042	37.56
369.25	37.59
369.459	37.87
369.668	37.75
369.877	37.59
370.085	37.68
370.294	37.71
370.503	37.22
370.711	37.59
370.92	37.28
371.129	37.11
371.337	37.4
371.546	36.88
371.754	36.87
371.963	36.79
372.171	36.71
372.38	36.68
372.589	36.66
372.797	36.72
373.006	36.42
373.214	36.64
373.423	36.61
373.631	36.18
373.84	36.2
374.048	36.03
374.256	36.23
374.465	36.45
374.673	36.32
374.882	36.28
375.09	36.12
375.298	35.86
375.507	35.41
375.715	35.4
375.923	35.24
376.132	35.3
376.34	35.15
376.548	35.05
376.757	34.83
376.965	34.96
377.173	34.79
377.381	34.95
377.59	35.15
377.798	35.2
378.006	35.01
378.214	35.27
378.423	35.23
378.631	35.04
378.839	34.95
379.047	34.79
379.255	34.6
379.463	34.35
379.671	34.21
379.879	33.99
380.088	34.18
380.296	34.06
380.504	34.01
380.712	33.88
380.92	33.95
381.128	33.77
381.336	33.62
381.544	33.59
381.752	33.51
381.96	33.46
382.168	33.52
382.376	33.35
382.584	33.29
382.791	33.07
382.999	33.02
383.207	32.78
383.415	32.82
383.623	32.96
383.831	32.85
384.039	33.01
384.247	32.94
384.454	32.87
384.662	32.65
384.87	32.76
385.078	32.92
385.285	32.69
385.493	32.58
385.701	32.3
385.909	32.34
386.116	32.27
386.324	32.04
386.532	31.78
386.739	31.53
386.947	31.46
387.155	31.47
387.362	31.27
387.57	31.28
387.778	31.42
387.985	31.37
388.193	31.18
388.4	31.24
388.608	31.56
388.816	31.52
389.023	31.5
389.231	31.56
389.438	31.2
389.646	31.05
389.853	30.99
390.061	30.86
390.268	30.86
390.475	30.82
390.683	30.82
390.89	30.57
391.098	30.67
391.305	30.69
391.512	30.58
391.72	30.68
391.927	30.7
392.135	30.6
392.342	30.59
392.549	30.59
392.756	30.43
392.964	30.47
393.171	30.47
393.378	30.31
393.586	30.25
393.793	30.26
394	30.02
394.207	30.07
394.414	30.21
394.622	30.07
394.829	30.12
395.036	30.19
395.243	29.92
395.45	29.92
395.657	30.08
395.864	30.09
396.072	30.1
396.279	30.03
396.486	29.84
396.693	29.82
396.9	29.66
397.107	29.63
397.314	29.66
397.521	29.48
397.728	29.53
397.935	29.69
398.142	29.74
398.349	29.54
398.556	29.87
398.763	29.89
398.97	29.73
399.177	29.87
399.383	29.8
399.59	29.67
399.797	29.77
400.004	29.52
400.211	29.17
400.418	28.99
400.625	29.16
400.831	28.8
401.038	28.94
401.245	28.88
401.452	28.8
401.658	28.58
401.865	28.53
402.072	28.34
402.279	28.47
402.485	28.51
402.692	28.64
402.899	28.48
403.105	28.58
403.312	28.32
403.519	28.5
403.725	28.43
403.932	28.46
404.138	28.47
404.345	28.63
404.552	28.57
404.758	28.58
404.965	28.35
405.171	28.29
405.378	28.32
405.584	28.27
405.791	27.97
405.997	27.96
406.204	28.07
406.41	28.07
406.617	28.01
406.823	28.04
407.029	27.93
407.236	28.09
407.442	28.07
407.649	28.25
407.855	28.04
408.061	28.08
408.268	27.98
408.474	27.85
408.68	27.69
408.887	27.61
409.093	27.51
409.299	27.55
409.505	27.48
409.712	27.49
409.918	27.03
410.124	27.15
410.33	27.16
410.537	27.09
410.743	27.14
410.949	27.2
411.155	27.1
411.361	26.73
411.567	26.55
411.773	26.35
411.98	26.11
412.186	26.29
412.392	26.47
412.598	26.56
412.804	26.55
413.01	26.41
413.216	26.42
413.422	26.47
413.628	26.59
413.834	26.51
414.04	26.56
414.246	26.61
414.452	26.44
414.658	26.31
414.864	26.2
415.07	26.19
415.275	26.22
415.481	25.98
415.687	25.84
415.893	25.85
416.099	25.81
416.305	25.68
416.511	25.77
416.716	25.78
416.922	25.69
417.128	25.65
417.334	25.67
417.539	25.51
417.745	25.54
417.951	25.61
418.157	25.47
418.362	25.43
418.568	25.32
418.774	25.12
418.979	25.02
419.185	24.99
419.391	24.89
419.596	24.73
419.802	24.72
420.008	24.62
420.213	25.01
420.419	25.04
420.624	24.95
420.83	24.88
421.035	24.89
421.241	24.85
421.446	24.71
421.652	24.62
421.857	24.64
422.063	24.52
422.268	24.44
422.474	23.91
422.679	23.8
422.885	23.8
423.09	23.82
423.295	23.72
423.501	23.68
423.706	23.7
423.911	23.72
424.117	23.75
424.322	23.74
424.527	23.82
424.733	23.7
424.938	23.76
425.143	23.76
425.349	23.7
425.554	23.71
425.759	23.65
425.964	23.59
426.169	23.48
426.375	23.25
426.58	23.32
426.785	23.22
426.99	23.25
427.195	23.21
427.4	23.02
427.605	23.06
427.811	23.07
428.016	23.08
428.221	23.08
428.426	23.07
428.631	23.12
428.836	23.08
429.041	22.98
429.246	22.88
429.451	22.8
429.656	22.85
429.861	22.94
430.066	23.01
430.271	23.01
430.476	23.08
430.681	23.14
430.886	23.18
431.09	23.08
431.295	23.1
431.5	23.13
431.705	23.25
431.91	23.34
432.115	23.31
432.32	23.25
432.524	23.28
432.729	23.19
432.934	23.17
433.139	23.08
433.343	23.18
433.548	23.3
433.753	23.29
433.958	23.24
434.162	23.26
434.367	23.2
434.572	23.17
434.776	22.98
434.981	22.95
435.186	22.93
435.39	23.03
435.595	23.05
435.799	22.91
436.004	22.94
436.209	22.9
436.413	22.81
436.618	22.63
436.822	22.58
437.027	22.75
437.231	22.81
437.436	22.72
437.64	22.72
437.845	22.67
438.049	22.83
438.253	22.81
438.458	22.75
438.662	22.79
438.867	22.97
439.071	23.07
439.275	23.02
439.48	22.93
439.684	22.96
439.888	22.87
440.093	22.88
440.297	22.71
440.501	22.68
440.706	22.66
440.91	22.7
441.114	22.64
441.318	22.49
441.523	22.49
441.727	22.57
441.931	22.73
442.135	22.76
442.339	22.74
442.543	22.8
442.748	22.83
442.952	22.86
443.156	22.73
443.36	22.72
443.564	22.71
443.768	22.64
443.972	22.59
444.176	22.51
444.38	22.52
444.584	22.38
444.788	22.37
444.992	22.31
445.196	22.29
445.4	22.3
445.604	22.21
445.808	22.27
446.012	22.26
446.216	22.2
446.42	22.04
446.624	22.07
446.828	22.12
447.032	22.03
447.235	22
447.439	22.08
447.643	22.07
447.847	22.16
448.051	22.13
448.254	22.12
448.458	22.22
448.662	22.28
448.866	22.14
449.069	22.16
449.273	22.17
449.477	22.19
449.681	22.05
449.884	21.94
450.088	21.88
450.292	21.83
450.495	21.75
450.699	21.68
450.902	21.66
451.106	21.57
451.31	21.45
451.513	21.48
451.717	21.45
451.92	21.44
452.124	21.36
452.327	21.39
452.531	21.34
452.734	21.4
452.938	21.36
453.141	21.43
453.345	21.58
453.548	21.57
453.752	21.64
453.955	21.69
454.158	21.65
454.362	21.69
454.565	21.61
454.769	21.75
454.972	21.79
455.175	21.8
455.379	21.73
455.582	21.6
455.785	21.78
455.988	21.71
456.192	21.55
456.395	21.61
456.598	21.6
456.801	21.67
457.005	21.5
457.208	21.48
457.411	21.54
457.614	21.52
457.817	21.56
458.021	21.42
458.224	21.49
458.427	21.47
458.63	21.45
458.833	21.48
459.036	21.45
459.239	21.53
459.442	21.48
459.645	21.39
459.848	21.41
460.051	21.41
460.254	21.55
460.457	21.37
460.66	21.43
460.863	21.51
461.066	21.59
461.269	21.55
461.472	21.65
461.675	21.62
461.878	21.77
462.081	21.94
462.284	22.01
462.486	21.88
462.689	22.07
462.892	22.14
463.095	22.14
463.298	22.22
463.5	22.26
463.703	22.15
463.906	22.34
464.109	22.26
464.311	22.15
464.514	22.14
464.717	22.32
464.92	22.36
465.122	22.47
465.325	22.52
465.528	22.48
465.73	22.63
465.933	22.64
466.135	22.62
466.338	22.65
466.541	22.67
466.743	22.65
466.946	22.63
467.148	22.68
467.351	22.6
467.553	22.6
467.756	22.55
467.958	22.49
468.161	22.52
468.363	22.52
468.566	22.52
468.768	22.55
468.971	22.59
469.173	22.64
469.375	22.54
469.578	22.56
469.78	22.55
469.983	22.56
470.185	22.6
470.387	22.65
470.59	22.7
470.792	22.67
470.994	22.58
471.196	22.55
471.399	22.43
471.601	22.48
471.803	22.44
472.005	22.42
472.208	22.42
472.41	22.35
472.612	22.26
472.814	22.22
473.016	22.34
473.218	22.52
473.421	22.53
473.623	22.53
473.825	22.46
474.027	22.47
474.229	22.43
474.431	22.49
474.633	22.55
474.835	22.55
475.037	22.63
475.239	22.56
475.441	22.47
475.643	22.55
475.845	22.65
476.047	22.67
476.249	22.74
476.451	22.72
476.653	22.7
476.855	22.7
477.057	22.71
477.258	22.65
477.46	22.66
477.662	22.64
477.864	22.6
478.066	22.46
478.268	22.51
478.469	22.55
478.671	22.6
478.873	22.62
479.075	22.65
479.276	22.62
479.478	22.62
479.68	22.71
479.882	22.68
480.083	22.69
480.285	22.8
480.487	22.78
480.688	22.7
480.89	22.68
481.091	22.65
481.293	22.64
481.495	22.64
481.696	22.62
481.898	22.54
482.099	22.49
482.301	22.42
482.502	22.35
482.704	22.28
482.905	22.24
483.107	22.19
483.308	22.14
483.51	22.04
483.711	21.99
483.913	21.94
484.114	21.94
484.315	21.93
484.517	21.89
484.718	21.88
484.92	21.91
485.121	21.96
485.322	21.99
485.524	22.01
485.725	22.07
485.926	22.05
486.127	22.08
486.329	22.03
486.53	22.02
486.731	22.05
486.932	22.05
487.134	22.04
487.335	22
487.536	22
487.737	22
487.938	22.02
488.139	22.04
488.341	22.04
488.542	22.1
488.743	22.21
488.944	22.27
489.145	22.31
489.346	22.41
489.547	22.44
489.748	22.41
489.949	22.46
490.15	22.5
490.351	22.53
490.552	22.55
490.753	22.55
490.954	22.49
491.155	22.5
491.356	22.49
491.557	22.51
491.758	22.55
491.959	22.62
492.159	22.66
492.36	22.64
492.561	22.69
492.762	22.68
492.963	22.75
493.164	22.86
493.364	22.92
493.565	22.99
493.766	23.02
493.967	23.05
494.167	23.07
494.368	23
494.569	23.12
494.769	23.2
494.97	23.26
495.171	23.32
495.371	23.43
495.572	23.51
495.773	23.52
495.973	23.52
496.174	23.52
496.375	23.59
496.575	23.64
496.776	23.61
496.976	23.57
497.177	23.69
497.377	23.72
497.578	23.63
497.778	23.65
497.979	23.79
498.179	23.76
498.38	23.88
498.58	23.91
498.78	23.97
498.981	24.13
499.181	24.24
499.382	24.29
499.582	24.35
499.782	24.53
499.983	24.6
500.183	24.61
500.383	24.74
500.584	24.68
500.784	24.8
500.984	24.85
501.184	24.68
501.385	24.86
501.585	24.87
501.785	24.9
501.985	24.88
502.185	25.03
502.386	25.15
502.586	25.17
502.786	25.44
502.986	25.55
503.186	25.6
503.386	25.82
503.586	25.81
503.786	25.79
503.987	25.92
504.187	25.95
504.387	25.92
504.587	25.96
504.787	26.03
504.987	26.08
505.187	26.05
505.387	26.19
505.587	26.3
505.786	26.43
505.986	26.62
506.186	26.7
506.386	26.83
506.586	26.94
506.786	27.01
506.986	27.19
507.186	27.29
507.386	27.49
507.585	27.6
507.785	27.62
507.985	27.63
508.185	27.76
508.384	27.88
508.584	28.01
508.784	28.11
508.984	28.3
509.183	28.38
509.383	28.37
509.583	28.48
509.782	28.58
509.982	28.78
510.182	28.93
510.381	29.05
510.581	29.14
510.781	29.24
510.98	29.4
511.18	29.44
511.379	29.54
511.579	29.65
511.778	29.64
511.978	29.61
512.177	29.69
512.377	29.86
512.576	29.9
512.776	29.93
512.975	30.07
513.175	30.09
513.374	30.33
513.573	30.54
513.773	30.71
513.972	30.86
514.172	31.17
514.371	31.35
514.57	31.46
514.77	31.69
514.969	31.91
515.168	32.06
515.367	32.3
515.567	32.4
515.766	32.48
515.965	32.61
516.164	32.82
516.364	32.94
516.563	32.99
516.762	33.02
516.961	33.08
517.16	33.17
517.359	33.25
517.559	33.27
517.758	33.27
517.957	33.44
518.156	33.53
518.355	33.59
518.554	33.73
518.753	33.82
518.952	33.9
519.151	33.91
519.35	34.05
519.549	34.1
519.748	34.29
519.947	34.49
520.146	34.42
520.345	34.53
520.544	34.54
520.743	34.59
520.942	34.74
521.141	34.89
521.339	35.24
521.538	35.37
521.737	35.54
521.936	35.61
522.135	35.78
522.333	35.99
522.532	36.12
522.731	36.38
522.93	36.58
523.129	36.71
523.327	36.85
523.526	36.9
523.725	36.98
523.923	37.12
524.122	37.3
524.321	37.38
524.519	37.55
524.718	37.62
524.917	37.73
525.115	37.79
525.314	37.86
525.512	38.02
525.711	38.28
525.909	38.51
526.108	38.64
526.306	38.72
526.505	38.82
526.703	38.89
526.902	38.96
527.1	39
527.299	38.97
527.497	38.94
527.696	38.9
527.894	38.77
528.092	38.71
528.291	38.67
528.489	38.62
528.688	38.58
528.886	38.51
529.084	38.47
529.283	38.47
529.481	38.57
529.679	38.8
529.877	39
530.076	39.19
530.274	39.36
530.472	39.56
530.67	39.83
530.869	39.95
531.067	40.16
531.265	40.35
531.463	40.52
531.661	40.62
531.859	40.61
532.057	40.55
532.255	40.52
532.454	40.48
532.652	40.46
532.85	40.4
533.048	40.42
533.246	40.38
533.444	40.38
533.642	40.37
533.84	40.43
534.038	40.52
534.236	40.7
534.434	40.87
534.632	41.03
534.83	41.12
535.027	41.23
535.225	41.31
535.423	41.49
535.621	41.47
535.819	41.49
536.017	41.44
536.215	41.42
536.412	41.48
536.61	41.53
536.808	41.55
537.006	41.59
537.203	41.67
537.401	41.75
537.599	41.81
537.797	42.11
537.994	42.29
538.192	42.53
538.39	42.72
538.587	42.88
538.785	42.98
538.983	43.06
539.18	43.23
539.378	43.26
539.575	43.3
539.773	43.3
539.97	43.15
540.168	43.13
540.366	43.05
540.563	42.97
540.761	42.87
540.958	42.84
541.155	42.79
541.353	42.69
541.55	42.65
541.748	42.63
541.945	42.6
542.143	42.69
542.34	42.72
542.537	42.81
542.735	42.83
542.932	42.93
543.129	42.99
543.327	43.01
543.524	43.19
543.721	43.29
543.919	43.37
544.116	43.42
544.313	43.46
544.51	43.49
544.708	43.56
544.905	43.64
545.102	43.72
545.299	43.73
545.496	43.81
545.693	43.73
545.891	43.77
546.088	43.76
546.285	43.82
546.482	43.79
546.679	43.84
546.876	43.77
547.073	43.87
547.27	43.8
547.467	43.93
547.664	43.98
547.861	44.1
548.058	44.12
548.255	44.18
548.452	44.38
548.649	44.6
548.846	44.65
549.043	44.82
549.24	44.96
549.437	45.09
549.633	45.16
549.83	45.29
550.027	45.33
550.224	45.46
550.421	45.71
550.618	45.56
550.814	45.55
551.011	45.63
551.208	45.54
551.405	45.47
551.601	45.54
551.798	45.55
551.995	45.42
552.191	45.49
552.388	45.32
552.585	45.13
552.781	45.23
552.978	45.22
553.175	45.19
553.371	45.37
553.568	45.47
553.764	45.53
553.961	45.49
554.157	45.54
554.354	45.53
554.55	45.65
554.747	45.81
554.943	45.78
555.14	45.85
555.336	45.87
555.533	45.98
555.729	46.1
555.926	45.93
556.122	46.03
556.318	46.23
556.515	46.22
556.711	46.26
556.907	46.39
557.104	46.63
557.3	46.78
557.496	46.83
557.693	46.89
557.889	46.86
558.085	46.88
558.281	47
558.478	46.97
558.674	47.07
558.87	47.13
559.066	47.05
559.262	46.95
559.459	47.05
559.655	47.24
559.851	47.09
560.047	47.14
560.243	47.28
560.439	47.22
560.635	47.31
560.831	47.27
561.027	47.28
561.223	47.3
561.419	47.38
561.615	47.27
561.811	47.3
562.007	47.37
562.203	47.5
562.399	47.49
562.595	47.57
562.791	47.77
562.987	48.07
563.183	48.39
563.379	48.43
563.575	48.44
563.771	48.57
563.966	48.61
564.162	48.75
564.358	48.78
564.554	48.93
564.75	48.97
564.945	48.89
565.141	48.89
565.337	48.8
565.533	48.88
565.728	48.94
565.924	48.85
566.12	48.82
566.315	48.76
566.511	48.55
566.707	48.61
566.902	48.59
567.098	48.56
567.293	48.48
567.489	48.58
567.684	48.58
567.88	48.62
568.076	48.68
568.271	48.77
568.467	48.83
568.662	49.11
568.858	49.07
569.053	49.21
569.248	49.35
569.444	49.39
569.639	49.37
569.835	49.48
570.03	49.56
570.225	49.62
570.421	49.65
570.616	49.6
570.812	49.67
571.007	49.64
571.202	49.75
571.397	49.84
571.593	49.88
571.788	49.78
571.983	49.85
572.178	49.86
572.374	49.92
572.569	49.96
572.764	50.1
572.959	50.1
573.154	50.25
573.35	50.09
573.545	50.05
573.74	50.1
573.935	50.27
574.13	50.27
574.325	50.31
574.52	50.38
574.715	50.32
574.91	50.29
575.105	50.29
575.3	50.3
575.495	50.39
575.69	50.42
575.885	50.55
576.08	50.57
576.275	50.6
576.47	50.58
576.665	50.53
576.86	50.63
577.055	50.69
577.25	50.76
577.444	50.87
577.639	50.98
577.834	50.91
578.029	50.76
578.224	50.75
578.418	50.71
578.613	50.76
578.808	50.74
579.003	50.82
579.197	50.92
579.392	50.89
579.587	50.91
579.781	50.97
579.976	51.14
580.171	51.27
580.365	51.26
580.56	51.28
580.755	51.39
580.949	51.69
581.144	51.66
581.338	51.74
581.533	51.69
581.727	51.71
581.922	51.71
582.116	51.72
582.311	51.77
582.505	51.87
582.7	51.97
582.894	52.09
583.089	51.95
583.283	52.02
583.478	52.01
583.672	52.11
583.866	52.04
584.061	52.02
584.255	52.17
584.449	52.23
584.644	52.26
584.838	52.24
585.032	52.13
585.226	52.36
585.421	52.51
585.615	52.53
585.809	52.59
586.003	52.8
586.198	52.69
586.392	52.72
586.586	52.7
586.78	52.81
586.974	52.84
587.168	52.64
587.363	52.46
587.557	52.23
587.751	52.35
587.945	52.55
588.139	52.55
588.333	52.73
588.527	52.59
588.721	52.66
588.915	52.57
589.109	52.69
589.303	52.88
589.497	52.86
589.691	53.09
589.885	53.06
590.079	52.77
590.273	52.59
590.466	52.71
590.66	52.69
590.854	52.59
591.048	52.61
591.242	52.7
591.436	52.73
591.629	52.88
591.823	52.82
592.017	52.86
592.211	53.06
592.404	53.31
592.598	53.26
592.792	53.31
592.986	53.49
593.179	53.46
593.373	53.44
593.567	53.59
593.76	53.54
593.954	53.6
594.147	53.67
594.341	53.79
594.535	53.85
594.728	53.76
594.922	53.92
595.115	53.8
595.309	53.92
595.502	53.93
595.696	53.86
595.889	53.77
596.083	53.87
596.276	53.8
596.47	53.72
596.663	53.6
596.856	53.6
597.05	53.51
597.243	53.57
597.437	53.49
597.63	53.39
597.823	53.38
598.017	53.58
598.21	53.41
598.403	53.49
598.596	53.56
598.79	53.65
598.983	53.87
599.176	53.94
599.369	54.09
599.563	54.24
599.756	54.39
599.949	54.37
600.142	54.37
600.335	54.48
600.528	54.61
600.722	54.52
600.915	54.52
601.108	54.59
601.301	54.85
601.494	54.7
601.687	54.69
601.88	54.71
602.073	54.8
602.266	54.78
602.459	54.69
602.652	54.49
602.845	54.7
603.038	54.63
603.231	54.65
603.424	54.42
603.617	54.48
603.809	54.39
604.002	54.33
604.195	54.34
604.388	54.28
604.581	54.37
604.774	54.43
604.966	54.21
605.159	54.22
605.352	54.12
605.545	54.14
605.737	54.23
605.93	54.45
606.123	54.6
606.316	54.7
606.508	54.93
606.701	55.05
606.894	55.08
607.086	55.25
607.279	55.24
607.471	55.23
607.664	55.39
607.857	55.37
608.049	55.35
608.242	55.19
608.434	54.95
608.627	54.74
608.819	54.69
609.012	54.83
609.204	54.88
609.397	55
609.589	54.85
609.782	54.78
609.974	54.79
610.166	54.68
610.359	54.69
610.551	54.95
610.743	55.15
610.936	55.32
611.128	55.23
611.32	55.17
611.513	55.06
611.705	55.27
611.897	55.13
612.09	55
612.282	55.14
612.474	55.14
612.666	54.9
612.858	54.93
613.051	54.84
613.243	54.71
613.435	54.63
613.627	54.49
613.819	54.63
614.011	55.09
614.203	55.17
614.395	55.09
614.588	55.2
614.78	55.39
614.972	55.32
615.164	55.05
615.356	55.11
615.548	54.9
615.74	55.19
615.932	55.03
616.124	54.55
616.315	54.67
616.507	54.72
616.699	54.69
616.891	54.55
617.083	54.58
617.275	54.72
617.467	54.73
617.659	54.91
617.85	55.01
618.042	55.06
618.234	55.24
618.426	54.97
618.618	55
618.809	54.8
619.001	54.89
619.193	54.95
619.384	54.93
619.576	54.98
619.768	54.93
619.959	54.8
620.151	54.78
620.343	54.58
620.534	54.79
620.726	54.83
620.917	55.24
621.109	55.22
621.301	55.09
621.492	55.34
621.684	55.38
621.875	55.52
622.067	55.49
622.258	55.58
622.45	55.74
622.641	55.66
622.832	55.71
623.024	55.44
623.215	55.51
623.407	55.7
623.598	55.3
623.789	55.45
623.981	55.22
624.172	55.3
624.363	55.23
624.555	55.39
624.746	55.49
624.937	55.36
625.129	55.49
625.32	55.61
625.511	55.56
625.702	55.54
625.893	55.33
626.085	55.53
626.276	55.46
626.467	55.42
626.658	55.1
626.849	55.11
627.04	55.04
627.231	55.03
627.422	54.87
627.614	54.84
627.805	55.05
627.996	55.19
628.187	55.04
628.378	54.99
628.569	55.12
628.76	55.37
628.951	55.36
629.142	55.42
629.332	55.3
629.523	55.3
629.714	55.31
629.905	55.22
630.096	55
630.287	55.15
630.478	55.24
630.669	55.23
630.859	55.43
631.05	55.34
631.241	55.25
631.432	55.32
631.623	55.4
631.813	55.47
632.004	55.34
632.195	55.33
632.385	55.26
632.576	55.24
632.767	55.39
632.957	55.3
633.148	55.41
633.339	55.45
633.529	55.44
633.72	55.49
633.91	55.33
634.101	55.48
634.292	55.62
634.482	55.71
634.673	55.73
634.863	55.55
635.054	55.38
635.244	55.31
635.435	55.19
635.625	55.18
635.815	55.1
636.006	55.15
636.196	55.29
636.387	55.13
636.577	55.08
636.767	55.14
636.958	54.84
637.148	54.89
637.338	55.03
637.529	55.27
637.719	55.24
637.909	55.17
638.099	55.21
638.29	55.34
638.48	55.57
638.67	55.59
638.86	55.43
639.05	55.54
639.241	55.32
639.431	55.27
639.621	55.39
639.811	55.36
640.001	55.34
640.191	55.25
640.381	55.01
640.571	55.24
640.761	55.12
640.951	55.24
641.141	55.45
641.331	55.6
641.521	55.45
641.711	55.3
641.901	55.25
642.091	55.37
642.281	55.4
642.471	55.43
642.661	55.25
642.851	55.58
643.041	55.6
643.231	55.55
643.42	55.59
643.61	55.7
643.8	55.69
643.99	55.61
644.18	55.72
644.369	55.83
644.559	55.78
644.749	55.59
644.939	55.25
645.128	55.13
645.318	55.25
645.508	55.39
645.697	55.22
645.887	55.18
646.076	55.36
646.266	55.38
646.456	55.33
646.645	55.59
646.835	55.71
647.024	55.81
647.214	55.96
647.403	55.96
647.593	55.99
647.782	56.11
647.972	56.1
648.161	56.17
648.351	56.14
648.54	55.99
648.73	55.72
648.919	55.8
649.108	55.8
649.298	55.68
649.487	55.67
649.677	55.47
649.866	55.54
650.055	55.67
650.244	55.69
650.434	55.51
650.623	55.7
650.812	55.75
651.002	55.95
651.191	55.91
651.38	55.92
651.569	55.75
651.758	55.9
651.947	55.82
652.137	55.82
652.326	55.89
652.515	55.75
652.704	55.88
652.893	56.19
653.082	55.91
653.271	56.05
653.46	56.02
653.649	56.25
653.838	56.18
654.027	56.26
654.216	56.29
654.405	56.33
654.594	56.71
654.783	56.52
654.972	56.15
655.161	56.22
655.35	56.35
655.539	56.55
655.728	56.49
655.916	56.7
656.105	56.56
656.294	56.76
656.483	56.53
656.672	56.49
656.86	56.48
657.049	56.47
657.238	56.41
657.427	56.35
657.615	56.46
657.804	56.47
657.993	56.45
658.181	56.37
658.37	56.44
658.559	56.54
658.747	56.2
658.936	56.24
659.125	56.2
659.313	56.18
659.502	56.13
659.69	55.94
659.879	55.8
660.067	55.53
660.256	55.72
660.444	55.42
660.633	55.48
660.821	55.69
661.01	55.7
661.198	55.94
661.387	56.01
661.575	55.96
661.763	56.06
661.952	56.16
662.14	56.32
662.328	56.27
662.517	56.24
662.705	56.03
662.893	56.15
663.082	56.11
663.27	56.05
663.458	55.99
663.646	55.96
663.834	55.86
664.023	55.7
664.211	55.86
664.399	55.84
664.587	56.03
664.775	56.14
664.963	56.26
665.152	56.13
665.34	56.19
665.528	56.29
665.716	56.25
665.904	56.25
666.092	56.29
666.28	55.81
666.468	55.87
666.656	55.73
666.844	55.81
667.032	55.9
667.22	56.16
667.408	55.97
667.596	56.07
667.784	56.05
667.971	55.98
668.159	55.87
668.347	56.16
668.535	56.17
668.723	56.04
668.911	55.98
669.098	55.92
669.286	55.96
669.474	56.2
669.662	56.26
669.849	56.47
670.037	56.84
670.225	56.98
670.413	57.17
670.6	56.98
670.788	56.96
670.976	57
671.163	56.83
671.351	56.52
671.538	56.44
671.726	55.99
671.913	55.82
672.101	55.58
672.289	55.83
672.476	55.47
672.664	55.75
672.851	55.91
673.039	55.87
673.226	55.99
673.413	56.09
673.601	55.98
673.788	56.15
673.976	56.2
674.163	55.98
674.35	55.92
674.538	56.15
674.725	56
674.912	55.99
675.1	56.29
675.287	56.42
675.474	56.6
675.662	56.42
675.849	56.6
676.036	56.59
676.223	56.93
676.411	56.9
676.598	56.64
676.785	56.88
676.972	56.84
677.159	56.49
677.346	56.5
677.533	56.43
677.721	56.43
677.908	56.29
678.095	56.4
678.282	56.15
678.469	55.89
678.656	56.24
678.843	56.24
679.03	56.23
679.217	56.51
679.404	56.41
679.591	56.26
679.778	56.28
679.964	56.35
680.151	56.25
680.338	56.24
680.525	56.51
680.712	56.28
680.899	56.09
681.086	56.24
681.272	55.76
681.459	55.81
681.646	55.84
681.833	56.04
682.02	55.69
682.206	55.52
682.393	55.64
682.58	55.49
682.766	55.61
682.953	55.68
683.14	55.68
683.326	56.53
683.513	56.26
683.7	56.37
683.886	56.3
684.073	56.56
684.259	56.58
684.446	56.77
684.632	56.77
684.819	56.67
685.005	56.27
685.192	56.08
685.378	55.7
685.565	55.93
685.751	56.06
685.938	55.75
686.124	55.91
686.31	55.86
686.497	55.83
686.683	56.24
686.87	56.07
687.056	56.23
687.242	56.12
687.429	55.65
687.615	55.39
687.801	55.31
687.987	55.73
688.174	55.57
688.36	55.86
688.546	55.83
688.732	55.41
688.918	55.27
689.105	55.48
689.291	55.85
689.477	56.2
689.663	56.58
689.849	56.46
690.035	56.28
690.221	56.41
690.407	56.5
690.593	56.14
690.779	56.12
690.965	56.42
691.151	56.34
691.337	55.94
691.523	55.71
691.709	55.56
691.895	55.78
692.081	55.57
692.267	55.83
692.453	55.77
692.639	56.27
692.825	56.58
693.011	56.56
693.196	56.57
693.382	56.66
693.568	56.41
693.754	56.4
693.94	56.2
694.125	56.37
694.311	56.47
694.497	56.33
694.682	56.21
694.868	56.07
695.054	56.2
695.239	56.24
695.425	56.53
695.611	57.09
695.796	57.06
695.982	57.2
696.168	57.31
696.353	57.02
696.539	57.37
696.724	57.39
696.91	57.26
697.095	57.39
697.281	57.14
697.466	57.14
697.652	57.1
697.837	56.97
698.023	56.98
698.208	56.67
698.393	56.55
698.579	56.11
698.764	55.88
698.949	55.89
699.135	55.73
699.32	55.71
699.505	55.27
699.691	55.1
699.876	54.97
700.061	54.59
700.246	54.66
700.432	54.61
700.617	54.89
700.802	55.26
700.987	55.34
701.172	55.5
701.358	55.72
701.543	56.27
701.728	55.98
701.913	55.97
702.098	56.12
702.283	56.45
702.468	56.15
702.653	56.16
702.838	56.22
703.023	56.14
703.208	55.69
703.393	56.24
703.578	56.22
703.763	56.64
703.948	57.12
704.133	57.01
704.318	57.04
704.503	57.46
704.688	57.51
704.873	56.94
705.057	57.09
705.242	57.15
705.427	56.31
705.612	56.03
705.797	55.86
705.981	55.78
706.166	56.05
706.351	56.12
706.536	56.16
706.72	55.98
706.905	56.13
707.09	56
707.274	56.42
707.459	56.57
707.644	56.98
707.828	56.88
708.013	56.46
708.197	56.37
708.382	56.28
708.567	55.9
708.751	55.97
708.936	55.98
709.12	55.78
709.305	55.34
709.489	55.37
709.673	54.71
709.858	54.85
710.042	55.01
710.227	55.24
710.411	55.13
710.596	55.43
710.78	55.62
710.964	55.73
711.149	56.18
711.333	56.05
711.517	56.07
711.702	56.27
711.886	56.13
712.07	56.24
712.254	55.89
712.438	56.06
712.623	56.08
712.807	55.88
712.991	55.61
713.175	55.65
713.359	56.09
713.544	56
713.728	56.15
713.912	56.34
714.096	56.55
714.28	56.41
714.464	56.26
714.648	56.1
714.832	56.24
715.016	56.24
715.2	55.62
715.384	55.51
715.568	55.45
715.752	54.8
715.936	54.82
716.12	54.37
716.304	55.09
716.488	54.89
716.671	55.1
716.855	55.02
717.039	54.76
717.223	54.88
717.407	54.97
717.59	55.22
717.774	56.01
717.958	56.11
718.142	56.54
718.325	55.72
718.509	56.23
718.693	56.33
718.877	56.23
719.06	56.84
719.244	57.24
719.428	56.89
719.611	56.72
719.795	57.07
719.978	57.16
720.162	57.21
720.345	57.8
720.529	57.33
720.713	57.31
720.896	57.24
721.08	56.52
721.263	56.61
721.446	56.8
721.63	56.92
721.813	56.19
721.997	56.2
722.18	56.15
722.364	55.85
722.547	55.97
722.73	55.85
722.914	55.78
723.097	56.09
723.28	55.87
723.464	55.74
723.647	55.81
723.83	55.95
724.013	56.13
724.197	56.08
724.38	56.19
724.563	56.25
724.746	56.4
724.929	56.69
725.112	56.79
725.296	56.83
725.479	56.76
725.662	57.03
725.845	57.34
726.028	56.7
726.211	56.57
726.394	56.7
726.577	56.78
726.76	56.37
726.943	56.15
727.126	55.87
727.309	55.88
727.492	56.22
727.675	55.9
727.858	55.62
728.041	56.05
728.224	56.31
728.407	56.08
728.589	55.99
728.772	56.27
728.955	56.74
729.138	56.67
729.321	56.59
729.503	56.49
729.686	56.53
729.869	56.87
730.052	56.82
730.234	56.66
730.417	56.72
730.6	56.75
730.782	56.82
730.965	56.16
731.148	56.99
731.33	57.19
731.513	57.04
731.695	56.95
731.878	57.08
732.061	56.56
732.243	57.08
732.426	57.03
732.608	56.98
732.791	56.84
732.973	57.2
733.156	57.18
733.338	56.99
733.52	56.97
733.703	57.14
733.885	56.47
734.068	56.93
734.25	56.43
734.432	56.03
734.615	55.77
734.797	55.47
734.979	55.26
735.162	54.67
735.344	54.45
735.526	54.57
735.708	54.48
735.891	54.74
736.073	54.82
736.255	54.46
736.437	55.02
736.619	55.33
736.802	55.31
736.984	55.15
737.166	55.82
737.348	55.84
737.53	56.24
737.712	56.04
737.894	56.01
738.076	55.87
738.258	56.23
738.44	55.94
738.622	56.11
738.804	56.35
738.986	56.37
739.168	55.84
739.35	55.83
739.532	55.68
739.714	56.23
739.896	56.11
740.078	55.92
740.259	55.59
740.441	56.08
740.623	55.33
740.805	55.6
740.987	55.49
741.168	55.17
741.35	55.88
741.532	55.58
741.714	54.92
741.895	54.55
742.077	54.68
742.259	54.48
742.44	54.33
742.622	55.14
742.804	55.41
742.985	55.59
743.167	55.98
743.348	54.98
743.53	55.09
743.711	54.91
743.893	55.83
744.075	55.69
744.256	55.51
744.438	55.67
744.619	55.3
744.8	54.51
744.982	54.38
745.163	54.58
745.345	54.87
745.526	55.09
745.707	56.02
745.889	56.3
746.07	56.33
746.252	56.88
746.433	56.51
746.614	57.32
746.795	57.42
746.977	57.34
747.158	57.72
747.339	57.84
747.52	57.96
747.702	57.71
747.883	57.39
748.064	57.53
748.245	57.96
748.426	58.45
748.607	58.17
748.788	58.88
748.97	59.67
749.151	59.29
749.332	59.73
749.513	59.25
749.694	59.3
749.875	59.32
750.056	58.66
750.237	57.27
750.418	56.35
750.599	55.41
750.78	54.49
750.96	54.11
751.141	54.41
751.322	54.13
751.503	53.76
751.684	53.27
751.865	52.63
752.046	52.96
752.226	53.52
752.407	53.09
752.588	53.28
752.769	53.98
752.949	54.21
753.13	54.5
753.311	54.79
753.492	55.28
753.672	55.81
753.853	56.11
754.034	56.43
754.214	57.53
754.395	58.07
754.575	59
754.756	58.95
754.937	58.93
755.117	58.25
755.298	57.79
755.478	57.63
755.659	58.08
755.839	58.46
756.02	58.17
756.2	57.64
756.381	57.69
756.561	57.21
756.741	57.76
756.922	57.84
757.102	57.48
757.283	57.89
757.463	57.61
757.643	56.88
757.823	56.1
758.004	56.3
758.184	56.4
758.364	56.7
758.545	56.81
758.725	56.07
758.905	56.19
759.085	56.21
759.265	55.77
759.446	56
759.626	56.37
759.806	57.03
759.986	56.88
760.166	56.68
760.346	56.09
760.526	56.57
760.706	56.64
760.886	56.49
761.066	56.72
761.246	56.75
761.426	56.5
761.606	55.97
761.786	56.11
761.966	56.28
762.146	55.56
762.326	55.63
762.506	55.39
762.686	54.86
762.866	54.86
763.046	54.96
763.225	55
763.405	55.37
763.585	55.51
763.765	54.86
763.945	54.25
764.124	54.77
764.304	54.91
764.484	54.41
764.664	54.79
764.843	54.69
765.023	54.57
765.203	54.54
765.382	54.34
765.562	54.32
765.741	54.55
765.921	55.28
766.101	54.86
766.28	54.6
766.46	55.32
766.639	55.75
766.819	55.63
766.998	55.52
767.178	55.25
767.357	55.11
767.537	55.44
767.716	55.76
767.896	55.81
768.075	56.58
768.254	56.96
768.434	57.3
768.613	57.54
768.792	57.54
768.972	57.82
769.151	57.51
769.33	57.57
769.51	58.07
769.689	58.56
769.868	58.99
770.047	59.55
770.226	59.95
770.406	59.38
770.585	58.98
770.764	58.88
770.943	58.64
771.122	59.21
771.301	59.44
771.48	58.8
771.66	58.06
771.839	57.38
772.018	56.64
772.197	55.87
772.376	55.23
772.555	54.69
772.734	55.58
772.913	55.27
773.092	55.45
773.271	55.3
773.449	55.15
773.628	55.04
773.807	54.94
773.986	55.46
774.165	55.96
774.344	56.61
774.523	56.82
774.701	56.4
774.88	56.85
775.059	56.87
775.238	56.86
775.417	56.75
775.595	56.6
775.774	57.84
775.953	57.47
776.131	57.81
776.31	57.94
776.489	58.21
776.667	57.07
776.846	57.01
777.025	56.58
777.203	56.87
777.382	58.37
777.56	58.37
777.739	57.03
777.917	57.2
778.096	56.53
778.274	55.53
778.453	55.24
778.631	56.13
778.81	55.11
778.988	56.1
779.166	55.73
779.345	54.09
779.523	54.61
779.702	55.19
779.88	54.72
780.058	54.18
780.237	54.82
780.415	55.08
780.593	54.99
780.771	55.37
780.95	53.96
781.128	53.07
781.306	52.89
781.484	53.16
781.662	52.31
781.841	51.29
782.019	52.11
782.197	51.49
782.375	50.38
782.553	51.13
782.731	51.84
782.909	52.24
783.087	53.19
783.265	53.77
783.443	53.94
783.621	55.04
783.799	55.96
783.977	55.98
784.155	56.68
784.333	58.6
784.511	58.22
784.689	58.09
784.867	58.81
785.045	58.94
785.223	58.75
785.4	58.49
785.578	57.8
785.756	58.18
785.934	57.65
786.112	58.06
786.289	56.46
786.467	56.41
786.645	57.18
786.823	56.19
787	55.67
787.178	55.07
787.356	54.89
787.533	55.4
787.711	55.26
787.889	56.09
788.066	56.05
788.244	57.16
788.421	56.41
788.599	55.57
788.776	56.42
788.954	56.58
789.131	56.7
789.309	56.81
789.486	56.84
789.664	57.08
789.841	57.32
790.019	57.32
790.196	56.43
790.373	57.03
790.551	57.27
790.728	56.43
790.906	57.8
791.083	58.3
791.26	58.01
791.437	57.57
791.615	57.16
791.792	56.29
791.969	55.84
792.146	55.77
792.324	54.65
792.501	53.9
792.678	55.16
792.855	53.52
793.032	53.1
793.209	54.1
793.387	54.89
793.564	55.76
793.741	55.55
793.918	55.78
794.095	56.64
794.272	57.07
794.449	57.7
794.626	58.03
794.803	58.6
794.98	58.47
795.157	57.71
795.334	57.08
795.511	56.32
795.688	56.77
795.864	56.01
796.041	55.88
796.218	57.49
796.395	58.13
796.572	57.28
796.749	57.25
796.925	57
797.102	57.52
797.279	57.14
797.456	57.14
797.632	56.54
797.809	56.61
797.986	55.97
798.162	54.85
798.339	53.72
798.516	54.41
798.692	54.8
798.869	55.64
799.046	54.69
799.222	55.21
799.399	54.51
799.575	55.29
799.752	55.11
799.928	55.11
800.105	55.02
800.281	54.56
800.458	53.14
800.634	52.02
800.811	51.47
800.987	52.23
801.163	52.28
801.34	53.41
801.516	52.8
801.692	53.9
801.869	53.93
802.045	53.64
802.221	54.77
802.398	56.36
802.574	57.84
802.75	57.69
802.926	56.6
803.103	57.31
803.279	58.02
803.455	58.21
803.631	57.52
803.807	58.44
803.983	59.44
804.16	59.33
804.336	58.05
804.512	58.29
804.688	58.57
804.864	60.12
805.04	58.56
805.216	57.42
805.392	58.17
805.568	59.01
805.744	59.03
805.92	58.44
806.096	59.35
806.272	60.05
806.448	59.34
806.623	60.16
806.799	59.56
806.975	59.97
807.151	60.04
807.327	57.53
807.503	55.93
807.678	55.14
807.854	56.45
808.03	55.74
808.206	55.96
808.381	54.84
808.557	53.91
808.733	53.87
808.908	54.59
809.084	55.05
809.26	57.4
809.435	57.74
809.611	58.61
809.787	56.05
809.962	56.28
810.138	54.75
810.313	55.69
810.489	55.51
810.664	56.24
810.84	56.41
811.015	55.98
811.191	56.27
811.366	56.97
811.542	56.69
811.717	57.26
811.892	57.07
812.068	57.85
812.243	58.55
812.419	60.29
812.594	59.29
812.769	58.75
812.944	59.24
813.12	58.53
813.295	58.84
813.47	57.26
813.645	57.67
813.821	56.02
813.996	58.3
814.171	58.35
814.346	56.86
814.521	57.2
814.697	58.71
814.872	58.33
815.047	57.61
815.222	57.96
815.397	59.09
815.572	59.24
815.747	59.96
815.922	57.99
816.097	56.2
816.272	56.79
816.447	56.59
816.622	55.65
816.797	56.65
816.972	58.63
817.147	58.14
817.322	56.99
817.496	55.48
817.671	55.46
817.846	55.56
818.021	56.43
818.196	57.06
818.371	57.32
818.545	55.93
818.72	53.97
818.895	53.31
819.069	52.84
819.244	53.76
819.419	54.41
819.594	54.36
819.768	54.13
819.943	55.27
820.117	55.02
820.292	54.75
820.467	55.23
820.641	55.52
820.816	55.68
820.99	55.6
821.165	55.32
821.339	55.09
821.514	55.11
821.688	54.92
821.863	54.25
822.037	53.94
822.212	54.04
822.386	53.81
822.56	53.61
822.735	53.24
822.909	53.02
823.084	53.14
823.258	52.95
823.432	52.97
823.606	53.12
823.781	53.4
823.955	53.43
824.129	53.05
824.303	53.27
824.478	53.23
824.652	53.58
824.826	53.84
825	53.45
825.174	53.89
825.348	53.4
825.523	53.05
825.697	52.88
825.871	52.79
826.045	52.94
826.219	53.12
826.393	53.13
826.567	52.8
826.741	53.22
826.915	53.61
827.089	53.88
827.263	54.17
827.437	53.79
827.611	53.18
827.784	53.29
827.958	53.22
828.132	52.6
828.306	52.96
828.48	53.12
828.654	52.02
828.827	51.31
829.001	50.87
829.175	51.47
829.349	52.35
829.522	53.11
829.696	53.33
829.87	53.81
830.044	54.59
830.217	55.73
830.391	56.9
830.565	58.74
830.738	60.1
830.912	60.3
831.085	59.41
831.259	59.5
831.432	59.7
831.606	59.18
831.779	58.79
831.953	57.78
832.126	56.82
832.3	55.42
832.473	54.99
832.647	54.13
832.82	54.66
832.994	54.69
833.167	54.74
833.34	54.47
833.514	54.26
833.687	54.77
833.86	55.27
834.034	54.59
834.207	55.02
834.38	55.08
834.553	55.39
834.727	55.33
834.9	55.55
835.073	55.29
835.246	55.66
835.419	55.8
835.593	55.22
835.766	55.47
835.939	56.7
836.112	56.57
836.285	55.84
836.458	56.76
836.631	56.14
836.804	56.41
836.977	57.14
837.15	57.08
837.323	56.59
837.496	56.83
837.669	55.28
837.842	56.45
838.015	56.97
838.188	56.53
838.361	55.41
838.533	56.67
838.706	56.18
838.879	55.76
839.052	56.15
839.225	57.16
839.398	57.09
839.57	59.7
839.743	57.57
839.916	56.84
840.088	59.01
840.261	59.83
840.434	58.52
840.607	58.7
840.779	58.66
840.952	58.6
841.124	59.57
841.297	59.12
841.47	57.3
841.642	56.68
841.815	54.18
841.987	51.08
842.16	50.02
842.332	48.25
842.505	47.75
842.677	48.09
842.85	48.37
843.022	47.3
843.194	47.01
843.367	47.97
843.539	47.99
843.712	50
843.884	51.64
844.056	51.69
844.229	53.96
844.401	57.23
844.573	58.75
844.745	59.23
844.918	61.55
845.09	64.65
845.262	67.05
845.434	68.7
845.606	70.9
845.779	71.93
845.951	70.85
846.123	71.46
846.295	69.62
846.467	67.15
846.639	69.44
846.811	68.2
846.983	64.95
847.155	63.11
847.327	64.59
847.499	64.02
847.671	62.85
847.843	64.47
848.015	61.95
848.187	61.34
848.359	62.52
848.531	61.14
848.703	60.93
848.875	63.47
849.047	60.8
849.218	58.77
849.39	60.09
849.562	58.14
849.734	55.37
849.905	57.78
850.077	59.69
850.249	62.86
850.421	60.85
850.592	58.03
850.764	59.03
850.936	63.13
851.107	66.52
851.279	67.54
851.451	70.25
851.622	70.25
851.794	69.05
851.965	65.46
852.137	59.49
852.308	59.25
852.48	63.97
852.651	62.25
852.823	60.3
852.994	57.52
853.166	53.5
853.337	51.6
853.509	55.8
853.68	56.47
853.851	56.51
854.023	58.91
854.194	59.67
854.365	57.49
854.537	54.46
854.708	57.68
854.879	55.57
855.05	58.83
855.222	62.94
855.393	62.58
855.564	62.62
855.735	67.48
855.906	64.13
856.078	61.82
856.249	67.62
856.42	68.63
856.591	63.7
856.762	70.1
856.933	69.3
857.104	67.08
857.275	65.49
857.446	63.75
857.617	63.54
857.788	67.84
857.959	68.8
858.13	63.53
858.301	64.71
858.472	65.76
858.643	62.36
858.814	63.66
858.985	64.06
859.155	67.25
859.326	69.74
859.497	63.78
859.668	59.91
859.839	61.88
860.009	62.27
860.18	61.95
860.351	60.19
860.522	62.59
860.692	62.99
860.863	59.26
861.034	55.19
861.204	56.52
861.375	60.85
861.546	65.02
861.716	63.85
861.887	65.64
862.057	64.27
862.228	65.62
862.398	62.9
862.569	60.95
862.739	64.19
862.91	64.36
863.08	62.34
863.251	64.27
863.421	60.65
863.592	64.59
863.762	61.47
863.932	62.25
864.103	61.75
864.273	64.52
864.443	63.42
864.614	64.61
864.784	66.67
864.954	67.44
865.125	68.57
865.295	72.3
865.465	66.13
865.635	69
865.805	71.43
865.976	68.94
866.146	66.18
866.316	66.31
866.486	66
866.656	65.49
866.826	66.07
866.996	62.66
867.166	61
867.336	62.75
867.506	62.51
867.676	59.67
867.846	60.37
868.016	60.35
868.186	60.96
868.356	59.59
868.526	54.58
868.696	55.57
868.866	55
869.036	52.19
869.206	50.13
869.376	49.94
869.545	50.48
869.715	50.87
869.885	47.93
870.055	50.2
870.224	58.54
870.394	63.45
870.564	66.93
870.734	68.81
870.903	71.28
871.073	72.7
871.243	72.8
871.412	73.49
871.582	73.56
871.751	83
871.921	84.76
872.091	75.99
872.26	73.09
872.43	67.45
872.599	70.24
872.769	69.09
872.938	68.31
873.108	73.36
873.277	75.94
873.446	77.8
873.616	71.59
873.785	71.75
873.955	71.26
874.124	69.06
874.293	68.77
874.463	65.34
874.632	63.77
874.801	66.63
874.971	63.44
875.14	63.38
875.309	63.78
875.478	65.23
875.647	58.63
875.817	59.27
875.986	62.55
876.155	63.26
876.324	64.19
876.493	63.3
876.662	58.7
876.831	55.92
877	55.79
877.17	53.31
877.339	53.26
877.508	56.71
877.677	58.3
877.846	60.15
878.015	59.03
878.184	57.96
878.352	59.76
878.521	61.37
878.69	63.31
878.859	61.99
879.028	61.73
879.197	59.35
879.366	56.81
879.534	59.3
879.703	58.74
879.872	59.31
880.041	57.38
880.21	56.7
880.378	57.85
880.547	57.02
880.716	55.97
880.884	55.95
881.053	55.93
881.222	56.58
881.39	54.62
881.559	54.28
881.727	53.76
881.896	53.32
882.065	53.7
882.233	52.45
882.402	53.06
882.57	53.22
882.739	53.3
882.907	54.66
883.076	54.4
883.244	53.93
883.412	53.87
883.581	53.49
883.749	54.09
883.918	54.13
884.086	54.7
884.254	55.12
884.423	54.82
884.591	54.84
884.759	53.7
884.927	53.53
885.096	54.02
885.264	55.37
885.432	57.35
885.6	58.75
885.769	57.22
885.937	57.69
886.105	57.62
886.273	59.23
886.441	60.86
886.609	62.1
886.777	63.3
886.945	64.35
887.113	61.41
887.281	58.86
887.449	56.92
887.617	59.13
887.785	60.57
887.953	58.11
888.121	57.23
888.289	54.78
888.457	54.33
888.625	53.79
888.793	52.89
888.961	51.74
889.129	54.82
889.296	53.42
889.464	54.19
889.632	53.07
889.8	51.87
889.967	51.28
890.135	50.64
