Data from 2938458_Reflection_1.txt Node
Date: Fri Jun 19 17:39:25 EDT 2015
User: robert
Spectrometer: USB4E03002
Autoset integration time: false
Trigger mode: 4
Integration Time (sec): 1.000000E-1
Scans to average: 10
Electric dark correction enabled: true
Nonlinearity correction enabled: false
Boxcar width: 5
Stray light correction enabled: false
XAxis mode: Wavelengths
Stop averaging: false
Number of Pixels in Spectrum: 3648
>>>>>Begin Spectral Data<<<<<
177.575	312.3
177.794	-823.96
178.014	255.17
178.233	89.84
178.452	213.53
178.672	153.75
178.891	63.21
179.11	40.89
179.33	-10.81
179.549	-163.93
179.768	-44.77
179.987	188.16
180.207	538.33
180.426	526.52
180.645	-18.2
180.864	325.97
181.084	-1691.94
181.303	-154.1
181.522	-86.72
181.741	-18.7
181.96	-26.26
182.179	-42.4
182.398	-43.78
182.618	-35.26
182.837	39.63
183.056	61.82
183.275	84.18
183.494	67.52
183.713	94.81
183.932	223.49
184.151	713.82
184.37	236.24
184.589	127.28
184.808	116.54
185.027	68.84
185.246	38.79
185.465	41.84
185.684	68.51
185.903	35.62
186.122	74.41
186.341	111.52
186.56	142.73
186.779	85.76
186.998	94.29
187.216	74.51
187.435	44.78
187.654	96.33
187.873	228.61
188.092	-2328.26
188.311	-318.53
188.53	99.81
188.748	7.14
188.967	20.07
189.186	33.81
189.405	137.5
189.623	433.11
189.842	28.01
190.061	50.58
190.28	-7.83
190.498	7.02
190.717	4.89
190.936	1.09
191.154	15.66
191.373	7.04
191.592	17.59
191.81	22.23
192.029	32.12
192.248	30.29
192.466	34.92
192.685	41
192.904	58.79
193.122	54.94
193.341	47.38
193.559	39.5
193.778	44.65
193.996	22.4
194.215	-1.26
194.433	-5.37
194.652	-4.1
194.87	-30.83
195.089	-15.47
195.307	-30.22
195.526	-25.56
195.744	-2.33
195.963	-6.03
196.181	-8.31
196.399	36.92
196.618	61.27
196.836	68
197.055	69.48
197.273	74.07
197.491	78.26
197.71	106.47
197.928	115.56
198.146	96.75
198.365	84.52
198.583	88.26
198.801	57.59
199.019	65.26
199.238	41.02
199.456	22.55
199.674	17.83
199.892	-0.44
200.111	-10.47
200.329	-12.17
200.547	-26.47
200.765	-30.8
200.983	-73.87
201.202	-60.11
201.42	-98.38
201.638	-212.29
201.856	-428.5
202.074	-397.75
202.292	-1200.19
202.51	-459.65
202.728	-830.94
202.946	-586.26
203.165	-355.53
203.383	-161.26
203.601	-147.03
203.819	-105.58
204.037	-113.95
204.255	-38.48
204.473	-11.73
204.691	-13.34
204.909	-3.37
205.127	5.87
205.345	18.88
205.562	-53.81
205.78	0.7
205.998	-34.36
206.216	-35
206.434	-26.38
206.652	-130.64
206.87	-43.34
207.088	-87.53
207.306	1465.36
207.523	-568.73
207.741	-24.08
207.959	-164.19
208.177	-2686.29
208.395	838.57
208.612	173.43
208.83	-83.22
209.048	-2.62
209.266	5.03
209.483	17.36
209.701	2.89
209.919	-14.54
210.136	-31.52
210.354	17.65
210.572	19.43
210.79	0.74
211.007	-1.23
211.225	-7.46
211.442	23.95
211.66	25.85
211.878	41.71
212.095	231.43
212.313	196.97
212.53	228.02
212.748	226.11
212.966	226
213.183	848.67
213.401	957.2
213.618	5367.15
213.836	-2375.58
214.053	-751.81
214.271	1612.89
214.488	-44.95
214.705	-71.13
214.923	-67.55
215.14	-30.18
215.358	12.24
215.575	33.54
215.793	32.22
216.01	46.08
216.227	41.43
216.445	62.22
216.662	32.92
216.879	68.6
217.097	78.11
217.314	51.88
217.531	35.76
217.749	13.55
217.966	43.14
218.183	25.94
218.4	-4.37
218.618	4.51
218.835	-10.09
219.052	1.59
219.269	-19.25
219.487	-19.62
219.704	-22.22
219.921	-31.41
220.138	-45.19
220.355	-62.54
220.572	-38.55
220.79	-25.05
221.007	-32.98
221.224	-23.94
221.441	-39.29
221.658	-39.86
221.875	-37.41
222.092	-10.61
222.309	-12.18
222.526	10.92
222.743	17.05
222.96	0.63
223.177	-2.6
223.394	10.71
223.611	13.55
223.828	20.94
224.045	17.53
224.262	25.12
224.479	24.5
224.696	28.44
224.913	19.92
225.13	20.24
225.347	25.07
225.564	26.13
225.781	22.86
225.997	23.68
226.214	21.67
226.431	21.23
226.648	17.87
226.865	15.48
227.082	16.23
227.298	15.11
227.515	14.05
227.732	11.64
227.949	9.27
228.165	9.89
228.382	7.33
228.599	8.43
228.816	9.06
229.032	9.45
229.249	11.13
229.466	8.68
229.682	7.85
229.899	9.35
230.116	8.61
230.332	10.15
230.549	8.56
230.765	14.13
230.982	12.17
231.199	13.51
231.415	14.48
231.632	12.25
231.848	13.6
232.065	16.05
232.281	13.67
232.498	18.94
232.714	17.89
232.931	18.14
233.147	11.83
233.364	11.89
233.58	10
233.797	9.83
234.013	7.78
234.23	7.35
234.446	10.78
234.662	10.09
234.879	8.88
235.095	10.96
235.312	10.28
235.528	11.01
235.744	13.54
235.961	15.07
236.177	15.01
236.393	15.01
236.61	13.82
236.826	12.24
237.042	13.46
237.258	12.33
237.475	12.64
237.691	10.72
237.907	9.8
238.123	6.48
238.339	8
238.556	8.58
238.772	10.62
238.988	11.82
239.204	11.2
239.42	11.24
239.636	11.25
239.853	10.64
240.069	11.76
240.285	13.78
240.501	14.84
240.717	12.94
240.933	13.29
241.149	12.91
241.365	14.41
241.581	15.02
241.797	14.56
242.013	14.77
242.229	14.97
242.445	14.89
242.661	13.98
242.877	13.81
243.093	14.52
243.309	12.95
243.525	13.06
243.741	12.32
243.957	12.68
244.173	12.76
244.388	12.72
244.604	12.81
244.82	13.21
245.036	13.27
245.252	13.42
245.468	13.68
245.683	14.41
245.899	14.07
246.115	13.71
246.331	12.99
246.547	12.87
246.762	13.02
246.978	13.06
247.194	12.84
247.409	12.95
247.625	13.26
247.841	12.7
248.057	11.61
248.272	11.63
248.488	10.36
248.703	10.25
248.919	9.38
249.135	7.94
249.35	7.99
249.566	8.4
249.782	8.91
249.997	8.81
250.213	9.12
250.428	9.8
250.644	9.81
250.859	10.83
251.075	10.34
251.29	11.47
251.506	12.63
251.721	12.24
251.937	11.27
252.152	10.96
252.368	10.57
252.583	9.71
252.798	9.3
253.014	7.94
253.229	8.4
253.445	8.93
253.66	8.53
253.875	6.38
254.091	6.02
254.306	5.09
254.521	2.67
254.737	1.29
254.952	1.99
255.167	2.02
255.383	3.95
255.598	3.69
255.813	4.01
256.028	3.79
256.244	5.25
256.459	5.04
256.674	5.56
256.889	7.49
257.104	7.62
257.32	8.54
257.535	8.5
257.75	8.86
257.965	8.85
258.18	8.94
258.395	9.27
258.61	9.44
258.826	9.83
259.041	9.89
259.256	9.36
259.471	9.72
259.686	9.57
259.901	9.62
260.116	9.15
260.331	8.48
260.546	8.99
260.761	8.14
260.976	8.1
261.191	7.41
261.406	7.88
261.621	8.74
261.836	8.62
262.05	7.26
262.265	5.91
262.48	6.15
262.695	7.46
262.91	5.93
263.125	6.84
263.34	5.48
263.555	6.08
263.769	6.92
263.984	6.09
264.199	6.31
264.414	7.96
264.629	9.29
264.843	9.46
265.058	9.15
265.273	9.69
265.488	10.12
265.702	10.49
265.917	10.32
266.132	9.8
266.346	10.65
266.561	10.47
266.776	10.21
266.99	10.19
267.205	9.35
267.42	9.42
267.634	9.46
267.849	8.11
268.063	8.74
268.278	7.99
268.492	7.43
268.707	6.85
268.922	6.59
269.136	6.49
269.351	5.87
269.565	6.54
269.78	6.06
269.994	5.24
270.209	6.07
270.423	6.1
270.637	6.62
270.852	6.54
271.066	6.82
271.281	7.28
271.495	6.88
271.709	7.84
271.924	7.89
272.138	8.09
272.353	8.24
272.567	8.04
272.781	8.21
272.996	8.81
273.21	9.18
273.424	9.15
273.638	9
273.853	9.44
274.067	9.3
274.281	9.68
274.495	9.53
274.71	10.22
274.924	10.25
275.138	9.3
275.352	8.74
275.566	8.73
275.781	7.75
275.995	7.34
276.209	7.09
276.423	6.8
276.637	6.65
276.851	6.57
277.065	6.73
277.279	7.08
277.493	7.69
277.707	7.74
277.921	7.47
278.135	8.45
278.349	8.85
278.563	9.42
278.777	9.81
278.991	8.62
279.205	9.21
279.419	8.89
279.633	9.16
279.847	8.69
280.061	9.21
280.275	9.18
280.489	8.36
280.703	8.21
280.917	7.93
281.131	7.16
281.344	8.32
281.558	8.31
281.772	8.02
281.986	8.13
282.2	8.48
282.414	9.01
282.627	8.73
282.841	9
283.055	8.65
283.269	8.54
283.482	8.67
283.696	8.37
283.91	8.59
284.123	8.74
284.337	8.32
284.551	8.06
284.764	6.97
284.978	7.31
285.192	7.37
285.405	8.04
285.619	7.89
285.833	8.49
286.046	8.33
286.26	8.26
286.473	8.76
286.687	9
286.9	9.51
287.114	10.16
287.327	10.08
287.541	10.27
287.754	9.83
287.968	10.23
288.181	9.67
288.395	9.87
288.608	10.3
288.822	9.96
289.035	10.47
289.248	10.07
289.462	10.57
289.675	11.07
289.889	10.81
290.102	11.31
290.315	11.96
290.529	12.15
290.742	12.67
290.955	12.05
291.169	12.14
291.382	12.1
291.595	12.56
291.808	12.08
292.022	12.93
292.235	13.53
292.448	13.67
292.661	13.14
292.875	13.56
293.088	12.96
293.301	13.87
293.514	14.73
293.727	14.14
293.94	14.15
294.153	14.53
294.367	13.79
294.58	13.46
294.793	13.43
295.006	14.24
295.219	14.7
295.432	14.73
295.645	14.59
295.858	14.79
296.071	15.37
296.284	15.51
296.497	15.86
296.71	16.27
296.923	16.65
297.136	16.84
297.349	16.45
297.562	16.34
297.775	16.95
297.988	16.78
298.201	17.05
298.414	17.26
298.626	17.52
298.839	17.08
299.052	15.97
299.265	17
299.478	17.33
299.691	17.61
299.903	17.52
300.116	17.69
300.329	18.21
300.542	17.95
300.755	17.06
300.967	16.89
301.18	17.22
301.393	18.26
301.605	18.03
301.818	17.83
302.031	18.01
302.243	17.4
302.456	17.43
302.669	17.84
302.881	17.85
303.094	18.99
303.307	18.66
303.519	17.96
303.732	18.16
303.944	17.89
304.157	17.31
304.37	16.77
304.582	17.59
304.795	17.4
305.007	16.24
305.22	15.44
305.432	14.21
305.645	15.02
305.857	16.24
306.069	16.91
306.282	16.92
306.494	17.38
306.707	17.68
306.919	17.69
307.132	17.84
307.344	18.4
307.556	18.39
307.769	18.72
307.981	18.26
308.193	18.37
308.406	17.59
308.618	17.87
308.83	17.7
309.043	17.72
309.255	17.65
309.467	17.76
309.679	17.76
309.892	18.12
310.104	18.86
310.316	19.14
310.528	18.69
310.74	19.06
310.953	19.23
311.165	19.75
311.377	19.4
311.589	19.83
311.801	20.42
312.013	20.64
312.225	20.6
312.437	20.42
312.649	20.12
312.862	20.42
313.074	20.63
313.286	19.96
313.498	19.01
313.71	18.99
313.922	18.82
314.134	18.04
314.346	17.69
314.558	17.61
314.77	17.43
314.982	18.23
315.193	18.56
315.405	17.94
315.617	18.65
315.829	20.13
316.041	21.34
316.253	21.14
316.465	21.44
316.677	21.74
316.888	22.17
317.1	21.65
317.312	21.59
317.524	20.74
317.736	21.39
317.947	20.28
318.159	19.6
318.371	18.74
318.583	19.32
318.794	18.59
319.006	18.97
319.218	18.41
319.43	18.59
319.641	18.04
319.853	18.39
320.064	18.75
320.276	19.47
320.488	19.84
320.699	20.71
320.911	20.09
321.123	20.36
321.334	19.12
321.546	19.11
321.757	19.42
321.969	19.82
322.18	19.82
322.392	19.08
322.603	19.17
322.815	18.67
323.026	18.48
323.238	18.09
323.449	17.93
323.661	18.6
323.872	19.6
324.083	19.86
324.295	19.5
324.506	19.95
324.718	19.72
324.929	19.85
325.14	20.22
325.352	19.62
325.563	19.81
325.774	19.74
325.986	20.07
326.197	19.05
326.408	18.72
326.62	19.12
326.831	17.85
327.042	18.28
327.253	17.69
327.464	17.95
327.676	18.46
327.887	18.73
328.098	19.7
328.309	18.72
328.52	19.03
328.732	19.2
328.943	18.58
329.154	19.06
329.365	19.29
329.576	19.48
329.787	19.05
329.998	19.06
330.209	19.58
330.42	18.93
330.631	19.56
330.842	19.93
331.053	19.61
331.264	19.63
331.475	20.5
331.686	20.37
331.897	21.23
332.108	21.78
332.319	21.51
332.53	21.55
332.741	21.78
332.952	22.09
333.163	21.53
333.374	21.33
333.585	22.21
333.795	21.53
334.006	21.43
334.217	20.78
334.428	20.4
334.639	20.5
334.849	20.67
335.06	20.53
335.271	20.04
335.482	20.05
335.692	20.46
335.903	20.32
336.114	20.53
336.325	20.68
336.535	20.56
336.746	20.22
336.957	20.79
337.167	20.4
337.378	20.8
337.589	21.16
337.799	21.52
338.01	21.06
338.22	21.07
338.431	20.92
338.642	20.58
338.852	20.53
339.063	20.55
339.273	19.97
339.484	19.52
339.694	19.59
339.905	19.8
340.115	19.34
340.326	19.25
340.536	18.88
340.746	18.69
340.957	18.81
341.167	19.12
341.378	19.32
341.588	19.52
341.799	20.22
342.009	19.34
342.219	18.98
342.43	18.89
342.64	19.42
342.85	19.43
343.061	19.81
343.271	19.64
343.481	19.37
343.691	19.66
343.902	19.21
344.112	18.81
344.322	18.71
344.532	18.82
344.743	19.34
344.953	18.54
345.163	18.8
345.373	18.49
345.583	18.36
345.793	18.23
346.004	18.32
346.214	18.66
346.424	19.02
346.634	19.36
346.844	19.22
347.054	18.83
347.264	19.63
347.474	19.31
347.684	19.37
347.894	20.46
348.104	20.7
348.314	20.19
348.524	19.59
348.734	19.53
348.944	19.92
349.154	19.97
349.364	19.94
349.574	19.74
349.784	20.02
349.994	20.2
350.204	18.87
350.413	18.63
350.623	19.06
350.833	19.57
351.043	19.47
351.253	19.28
351.463	19.4
351.672	19.41
351.882	19.66
352.092	18.95
352.302	18.98
352.511	19.63
352.721	19.81
352.931	19
353.141	18.56
353.35	18.25
353.56	17.97
353.77	18.07
353.979	18.2
354.189	18.03
354.399	18.39
354.608	18.1
354.818	17.75
355.027	17.6
355.237	17.16
355.447	17.13
355.656	16.73
355.866	17.4
356.075	17.78
356.285	17.79
356.494	17.99
356.704	17.81
356.913	17.75
357.123	18.07
357.332	18.06
357.542	18.26
357.751	18.46
357.96	18.61
358.17	17.97
358.379	16.98
358.589	16.83
358.798	16.63
359.007	16.61
359.217	16.62
359.426	16.11
359.635	15.9
359.845	16.34
360.054	16.23
360.263	16.5
360.472	16.7
360.682	17.09
360.891	16.99
361.1	16.88
361.309	17.03
361.519	17.2
361.728	17.09
361.937	16.89
362.146	16.57
362.355	16.55
362.564	16.68
362.774	16.39
362.983	16.08
363.192	16.45
363.401	16.37
363.61	16.43
363.819	15.91
364.028	15.89
364.237	16.18
364.446	16.4
364.655	16.3
364.864	16.1
365.073	16.08
365.282	16.05
365.491	15.75
365.7	15.87
365.909	15.63
366.118	15.39
366.327	15.76
366.536	15.72
366.745	16.04
366.954	15.68
367.162	15.09
367.371	15.31
367.58	15.35
367.789	15.72
367.998	15.5
368.207	15.21
368.415	15.37
368.624	15.15
368.833	15.37
369.042	14.57
369.25	15.09
369.459	15.69
369.668	15.37
369.877	15.33
370.085	14.61
370.294	14.41
370.503	14.25
370.711	14.26
370.92	14.06
371.129	13.94
371.337	13.91
371.546	13.6
371.754	12.92
371.963	12.87
372.171	12.9
372.38	13.43
372.589	13.28
372.797	13.87
373.006	13.86
373.214	14.21
373.423	13.96
373.631	14.12
373.84	13.91
374.048	14.15
374.256	14.22
374.465	14.13
374.673	13.93
374.882	13.81
375.09	13.59
375.298	13.62
375.507	13.69
375.715	13.9
375.923	13.86
376.132	14.04
376.34	13.64
376.548	13.3
376.757	13.22
376.965	13.18
377.173	13.25
377.381	12.74
377.59	12.53
377.798	12.33
378.006	12.19
378.214	12.23
378.423	12.03
378.631	12.32
378.839	12.17
379.047	11.99
379.255	11.66
379.463	11.44
379.671	11.73
379.879	11.67
380.088	11.2
380.296	11.08
380.504	10.92
380.712	10.89
380.92	10.61
381.128	10.73
381.336	10.72
381.544	10.63
381.752	10.77
381.96	10.43
382.168	10.38
382.376	10.62
382.584	10.34
382.791	10.15
382.999	10.18
383.207	9.86
383.415	9.6
383.623	9.46
383.831	9.4
384.039	9.45
384.247	9.53
384.454	9.69
384.662	9.61
384.87	9.36
385.078	9.52
385.285	9.31
385.493	9.75
385.701	9.56
385.909	9.55
386.116	9.46
386.324	9.11
386.532	9.09
386.739	8.9
386.947	9.01
387.155	9.12
387.362	9.01
387.57	8.88
387.778	8.52
387.985	8.69
388.193	8.54
388.4	8.47
388.608	8.86
388.816	8.79
389.023	8.75
389.231	8.57
389.438	8.59
389.646	8.56
389.853	8.69
390.061	8.7
390.268	8.65
390.475	8.61
390.683	8.73
390.89	8.26
391.098	8.21
391.305	8.18
391.512	8.17
391.72	8.11
391.927	7.83
392.135	7.75
392.342	7.79
392.549	7.67
392.756	7.56
392.964	7.51
393.171	7.7
393.378	7.61
393.586	7.21
393.793	6.91
394	6.86
394.207	6.92
394.414	6.81
394.622	6.59
394.829	6.85
395.036	6.96
395.243	6.65
395.45	6.45
395.657	6.55
395.864	6.87
396.072	6.99
396.279	6.97
396.486	7.19
396.693	7.11
396.9	7.21
397.107	7.03
397.314	6.97
397.521	7.1
397.728	7.04
397.935	6.93
398.142	7.02
398.349	6.72
398.556	6.62
398.763	6.41
398.97	6.34
399.177	6.41
399.383	6.25
399.59	6.23
399.797	6.21
400.004	6.25
400.211	6.47
400.418	6.35
400.625	6.55
400.831	6.51
401.038	6.53
401.245	6.81
401.452	6.48
401.658	6.54
401.865	6.5
402.072	6.64
402.279	6.64
402.485	6.33
402.692	6.21
402.899	6.26
403.105	6.31
403.312	6.17
403.519	5.87
403.725	6.09
403.932	6.12
404.138	6.11
404.345	5.96
404.552	5.96
404.758	5.97
404.965	6.07
405.171	5.99
405.378	6.11
405.584	6.14
405.791	6.35
405.997	6.45
406.204	6.47
406.41	6.59
406.617	6.64
406.823	6.52
407.029	6.43
407.236	6.28
407.442	6.43
407.649	6.29
407.855	6.39
408.061	6.46
408.268	6.37
408.474	6.33
408.68	6.27
408.887	6.31
409.093	6.49
409.299	6.61
409.505	6.76
409.712	6.72
409.918	6.73
410.124	6.72
410.33	6.6
410.537	6.32
410.743	6.3
410.949	6.14
411.155	6.13
411.361	6.07
411.567	5.83
411.773	5.7
411.98	5.51
412.186	5.64
412.392	5.69
412.598	5.68
412.804	5.9
413.01	5.72
413.216	5.76
413.422	5.69
413.628	5.67
413.834	5.85
414.04	5.98
414.246	6.1
414.452	5.97
414.658	5.88
414.864	5.84
415.07	5.72
415.275	5.91
415.481	5.93
415.687	5.86
415.893	5.9
416.099	5.87
416.305	5.77
416.511	5.7
416.716	5.72
416.922	5.71
417.128	5.56
417.334	5.65
417.539	5.65
417.745	5.63
417.951	5.64
418.157	5.57
418.362	5.62
418.568	5.64
418.774	5.6
418.979	5.59
419.185	5.58
419.391	5.71
419.596	5.67
419.802	5.55
420.008	5.54
420.213	5.07
420.419	4.97
420.624	4.93
420.83	4.89
421.035	4.87
421.241	4.84
421.446	4.76
421.652	4.74
421.857	4.72
422.063	4.81
422.268	4.84
422.474	5.35
422.679	5.43
422.885	5.4
423.09	5.43
423.295	5.51
423.501	5.55
423.706	5.62
423.911	5.57
424.117	5.59
424.322	5.6
424.527	5.53
424.733	5.47
424.938	5.43
425.143	5.51
425.349	5.46
425.554	5.51
425.759	5.42
425.964	5.33
426.169	5.2
426.375	5.15
426.58	5.08
426.785	5.22
426.99	5.24
427.195	5.36
427.4	5.28
427.605	5.23
427.811	5.09
428.016	5.18
428.221	5.18
428.426	5.29
428.631	5.33
428.836	5.35
429.041	5.33
429.246	5.35
429.451	5.19
429.656	5.15
429.861	5.22
430.066	5.17
430.271	5.17
430.476	5.29
430.681	5.24
430.886	5.16
431.09	5.1
431.295	5.18
431.5	5.1
431.705	5.21
431.91	5.23
432.115	5.2
432.32	5.29
432.524	5.23
432.729	5.16
432.934	5.19
433.139	5.12
433.343	5.1
433.548	4.96
433.753	5.09
433.958	5.11
434.162	5.12
434.367	5.07
434.572	5
434.776	4.98
434.981	4.97
435.186	5.02
435.39	5.21
435.595	5.28
435.799	5.3
436.004	5.36
436.209	5.35
436.413	5.41
436.618	5.55
436.822	5.57
437.027	5.56
437.231	5.61
437.436	5.66
437.64	5.6
437.845	5.63
438.049	5.61
438.253	5.5
438.458	5.44
438.662	5.34
438.867	5.3
439.071	5.35
439.275	5.38
439.48	5.35
439.684	5.22
439.888	5.17
440.093	5.04
440.297	4.98
440.501	4.99
440.706	4.93
440.91	4.95
441.114	4.87
441.318	4.84
441.523	4.84
441.727	4.75
441.931	4.83
442.135	4.99
442.339	5.03
442.543	5.15
442.748	5.11
442.952	5.12
443.156	5.15
443.36	5.19
443.564	5.13
443.768	5.07
443.972	5.15
444.176	5.16
444.38	5.14
444.584	5.09
444.788	5.02
444.992	5.02
445.196	5.12
445.4	5.03
445.604	5.04
445.808	5.07
446.012	5.13
446.216	5.11
446.42	5.13
446.624	5.09
446.828	5.18
447.032	5.18
447.235	5.12
447.439	5
447.643	5.05
447.847	4.98
448.051	5
448.254	4.89
448.458	4.95
448.662	4.95
448.866	4.84
449.069	4.78
449.273	4.83
449.477	4.89
449.681	4.89
449.884	4.9
450.088	5
450.292	4.85
450.495	4.84
450.699	4.7
450.902	4.69
451.106	4.72
451.31	4.76
451.513	4.71
451.717	4.68
451.92	4.81
452.124	4.92
452.327	4.99
452.531	5.16
452.734	5.24
452.938	5.25
453.141	5.18
453.345	5.18
453.548	5.06
453.752	5.1
453.955	5.07
454.158	4.98
454.362	4.8
454.565	4.62
454.769	4.55
454.972	4.56
455.175	4.57
455.379	4.55
455.582	4.57
455.785	4.63
455.988	4.77
456.192	4.75
456.395	4.85
456.598	4.86
456.801	4.94
457.005	5.02
457.208	5.02
457.411	4.98
457.614	4.98
457.817	5.05
458.021	5.1
458.224	4.95
458.427	4.96
458.63	4.88
458.833	4.9
459.036	4.84
459.239	4.8
459.442	4.74
459.645	4.78
459.848	4.79
460.051	4.69
460.254	4.6
460.457	4.61
460.66	4.68
460.863	4.66
461.066	4.76
461.269	4.76
461.472	4.74
461.675	4.97
461.878	5.04
462.081	5.02
462.284	5.03
462.486	5.22
462.689	5.2
462.892	5.09
463.095	5.1
463.298	4.99
463.5	5.05
463.703	5.02
463.906	4.89
464.109	4.81
464.311	4.84
464.514	4.95
464.717	4.94
464.92	4.96
465.122	4.96
465.325	4.95
465.528	4.96
465.73	4.9
465.933	4.95
466.135	4.96
466.338	5.04
466.541	5.09
466.743	5.01
466.946	4.97
467.148	4.95
467.351	4.94
467.553	4.94
467.756	4.92
467.958	4.89
468.161	4.95
468.363	4.95
468.566	4.89
468.768	4.72
468.971	4.65
469.173	4.63
469.375	4.65
469.578	4.73
469.78	4.76
469.983	4.75
470.185	4.68
470.387	4.64
470.59	4.59
470.792	4.58
470.994	4.74
471.196	4.85
471.399	4.86
471.601	4.86
471.803	4.77
472.005	4.76
472.208	4.83
472.41	5
472.612	4.94
472.814	4.92
473.016	4.92
473.218	4.98
473.421	4.96
473.623	5.01
473.825	5.04
474.027	5.07
474.229	5.16
474.431	5.19
474.633	5.05
474.835	5.04
475.037	4.99
475.239	5.02
475.441	4.89
475.643	4.78
475.845	4.76
476.047	4.83
476.249	4.88
476.451	4.82
476.653	4.75
476.855	4.77
477.057	4.72
477.258	4.77
477.46	4.81
477.662	4.81
477.864	4.92
478.066	4.82
478.268	4.74
478.469	4.66
478.671	4.58
478.873	4.57
479.075	4.57
479.276	4.62
479.478	4.58
479.68	4.55
479.882	4.53
480.083	4.51
480.285	4.58
480.487	4.63
480.688	4.67
480.89	4.7
481.091	4.71
481.293	4.73
481.495	4.74
481.696	4.74
481.898	4.74
482.099	4.77
482.301	4.75
482.502	4.72
482.704	4.69
482.905	4.68
483.107	4.69
483.308	4.69
483.51	4.7
483.711	4.71
483.913	4.72
484.114	4.74
484.315	4.71
484.517	4.72
484.718	4.74
484.92	4.74
485.121	4.77
485.322	4.79
485.524	4.77
485.725	4.74
485.926	4.72
486.127	4.72
486.329	4.72
486.53	4.74
486.731	4.73
486.932	4.75
487.134	4.78
487.335	4.77
487.536	4.78
487.737	4.83
487.938	4.81
488.139	4.86
488.341	4.89
488.542	4.9
488.743	4.9
488.944	4.91
489.145	4.87
489.346	4.89
489.547	4.91
489.748	4.86
489.949	4.83
490.15	4.87
490.351	4.8
490.552	4.79
490.753	4.73
490.954	4.74
491.155	4.73
491.356	4.75
491.557	4.73
491.758	4.7
491.959	4.74
492.159	4.75
492.36	4.76
492.561	4.78
492.762	4.81
492.963	4.85
493.164	4.8
493.364	4.85
493.565	4.76
493.766	4.81
493.967	4.82
494.167	4.8
494.368	4.81
494.569	4.8
494.769	4.83
494.97	4.87
495.171	4.87
495.371	4.91
495.572	4.86
495.773	4.97
495.973	4.97
496.174	4.94
496.375	4.94
496.575	4.95
496.776	4.93
496.976	4.89
497.177	4.87
497.377	4.89
497.578	4.89
497.778	4.92
497.979	4.95
498.179	4.94
498.38	4.96
498.58	4.91
498.78	4.89
498.981	4.96
499.181	4.99
499.382	4.96
499.582	4.96
499.782	4.97
499.983	4.99
500.183	4.95
500.383	4.99
500.584	5.01
500.784	5.1
500.984	5.09
501.184	5.2
501.385	5.27
501.585	5.29
501.785	5.34
501.985	5.35
502.185	5.32
502.386	5.36
502.586	5.28
502.786	5.3
502.986	5.35
503.186	5.42
503.386	5.35
503.586	5.24
503.786	5.25
503.987	5.26
504.187	5.27
504.387	5.32
504.587	5.3
504.787	5.41
504.987	5.43
505.187	5.4
505.387	5.36
505.587	5.28
505.786	5.32
505.986	5.36
506.186	5.35
506.386	5.35
506.586	5.36
506.786	5.37
506.986	5.36
507.186	5.36
507.386	5.41
507.585	5.45
507.785	5.58
507.985	5.65
508.185	5.64
508.384	5.66
508.584	5.63
508.784	5.69
508.984	5.67
509.183	5.63
509.383	5.65
509.583	5.63
509.782	5.63
509.982	5.58
510.182	5.48
510.381	5.52
510.581	5.51
510.781	5.57
510.98	5.6
511.18	5.74
511.379	5.8
511.579	5.73
511.778	5.72
511.978	5.73
512.177	5.75
512.377	5.82
512.576	5.77
512.776	5.86
512.975	5.91
513.175	5.88
513.374	5.76
513.573	5.83
513.773	5.94
513.972	5.86
514.172	5.9
514.371	5.92
514.57	5.94
514.77	5.96
514.969	5.91
515.168	5.82
515.367	5.87
515.567	5.91
515.766	5.94
515.965	5.98
516.164	6.12
516.364	6.07
516.563	6.06
516.762	6.1
516.961	6.12
517.16	6.2
517.359	6.26
517.559	6.25
517.758	6.26
517.957	6.22
518.156	6.19
518.355	6.19
518.554	6.18
518.753	6.2
518.952	6.24
519.151	6.26
519.35	6.18
519.549	6.27
519.748	6.2
519.947	6.21
520.146	6.24
520.345	6.33
520.544	6.32
520.743	6.41
520.942	6.44
521.141	6.44
521.339	6.45
521.538	6.56
521.737	6.45
521.936	6.51
522.135	6.48
522.333	6.43
522.532	6.43
522.731	6.48
522.93	6.44
523.129	6.43
523.327	6.47
523.526	6.54
523.725	6.5
523.923	6.54
524.122	6.56
524.321	6.63
524.519	6.71
524.718	6.7
524.917	6.71
525.115	6.76
525.314	6.83
525.512	6.85
525.711	6.85
525.909	6.84
526.108	6.83
526.306	6.84
526.505	6.81
526.703	6.8
526.902	6.81
527.1	6.82
527.299	6.82
527.497	6.81
527.696	6.8
527.894	6.8
528.092	6.84
528.291	6.86
528.489	6.89
528.688	6.89
528.886	6.9
529.084	6.92
529.283	6.89
529.481	6.91
529.679	6.93
529.877	6.94
530.076	6.97
530.274	6.96
530.472	6.99
530.67	7
530.869	7.02
531.067	6.98
531.265	7.01
531.463	7.09
531.661	7.11
531.859	7.12
532.057	7.12
532.255	7.12
532.454	7.09
532.652	7.08
532.85	7.1
533.048	7.14
533.246	7.22
533.444	7.26
533.642	7.25
533.84	7.29
534.038	7.36
534.236	7.44
534.434	7.45
534.632	7.55
534.83	7.54
535.027	7.56
535.225	7.58
535.423	7.57
535.621	7.54
535.819	7.55
536.017	7.52
536.215	7.5
536.412	7.44
536.61	7.47
536.808	7.49
537.006	7.48
537.203	7.54
537.401	7.48
537.599	7.49
537.797	7.54
537.994	7.56
538.192	7.56
538.39	7.61
538.587	7.69
538.785	7.66
538.983	7.67
539.18	7.71
539.378	7.65
539.575	7.71
539.773	7.71
539.97	7.73
540.168	7.74
540.366	7.8
540.563	7.83
540.761	7.82
540.958	7.9
541.155	7.86
541.353	7.89
541.55	7.94
541.748	7.97
541.945	8.02
542.143	8.05
542.34	8.12
542.537	8.04
542.735	8.01
542.932	8.06
543.129	8.03
543.327	8.13
543.524	8.16
543.721	8.2
543.919	8.2
544.116	8.22
544.313	8.2
544.51	8.2
544.708	8.38
544.905	8.41
545.102	8.45
545.299	8.5
545.496	8.5
545.693	8.48
545.891	8.47
546.088	8.54
546.285	8.63
546.482	8.65
546.679	8.65
546.876	8.62
547.073	8.61
547.27	8.61
547.467	8.59
547.664	8.63
547.861	8.71
548.058	8.82
548.255	8.84
548.452	8.86
548.649	8.97
548.846	8.94
549.043	8.93
549.24	9.03
549.437	9.06
549.633	9.05
549.83	9.05
550.027	9.07
550.224	9.04
550.421	9.1
550.618	9.17
550.814	9.16
551.011	9.26
551.208	9.31
551.405	9.32
551.601	9.39
551.798	9.51
551.995	9.6
552.191	9.61
552.388	9.64
552.585	9.57
552.781	9.49
552.978	9.47
553.175	9.45
553.371	9.5
553.568	9.37
553.764	9.39
553.961	9.39
554.157	9.39
554.354	9.53
554.55	9.72
554.747	9.88
554.943	9.99
555.14	10.1
555.336	10.28
555.533	10.32
555.729	10.56
555.926	10.59
556.122	10.64
556.318	10.8
556.515	10.8
556.711	10.66
556.907	10.72
557.104	10.64
557.3	10.68
557.496	10.67
557.693	10.62
557.889	10.63
558.085	10.61
558.281	10.62
558.478	10.59
558.674	10.62
558.87	10.7
559.066	10.63
559.262	10.76
559.459	10.84
559.655	10.82
559.851	10.82
560.047	10.86
560.243	10.9
560.439	10.94
560.635	10.87
560.831	10.93
561.027	11.02
561.223	11.02
561.419	11.12
561.615	11.14
561.811	11.26
562.007	11.38
562.203	11.34
562.399	11.29
562.595	11.4
562.791	11.5
562.987	11.64
563.183	11.63
563.379	11.73
563.575	11.73
563.771	11.66
563.966	11.65
564.162	11.71
564.358	11.76
564.554	11.91
564.75	11.87
564.945	11.95
565.141	11.91
565.337	11.94
565.533	12.02
565.728	12.01
565.924	12.1
566.12	12.1
566.315	12.22
566.511	12.34
566.707	12.37
566.902	12.45
567.098	12.44
567.293	12.47
567.489	12.57
567.684	12.63
567.88	12.68
568.076	12.75
568.271	12.9
568.467	12.91
568.662	13.02
568.858	13.09
569.053	13.13
569.248	13.11
569.444	13.22
569.639	13.17
569.835	13.21
570.03	13.32
570.225	13.33
570.421	13.33
570.616	13.26
570.812	13.22
571.007	13.26
571.202	13.26
571.397	13.34
571.593	13.36
571.788	13.45
571.983	13.43
572.178	13.41
572.374	13.51
572.569	13.52
572.764	13.59
572.959	13.63
573.154	13.63
573.35	13.64
573.545	13.69
573.74	13.64
573.935	13.72
574.13	13.77
574.325	13.8
574.52	13.79
574.715	13.87
574.91	13.87
575.105	13.92
575.3	13.92
575.495	14
575.69	13.97
575.885	14.04
576.08	14.08
576.275	14.15
576.47	14.24
576.665	14.24
576.86	14.27
577.055	14.37
577.25	14.42
577.444	14.57
577.639	14.67
577.834	14.85
578.029	14.82
578.224	14.82
578.418	14.79
578.613	14.77
578.808	14.77
579.003	14.76
579.197	14.72
579.392	14.62
579.587	14.64
579.781	14.68
579.976	14.65
580.171	14.62
580.365	14.62
580.56	14.82
580.755	14.79
580.949	14.86
581.144	14.95
581.338	15.14
581.533	15.32
581.727	15.22
581.922	15.29
582.116	15.21
582.311	15.29
582.505	15.29
582.7	15.23
582.894	15.27
583.089	15.29
583.283	15.18
583.478	15.29
583.672	15.28
583.866	15.4
584.061	15.41
584.255	15.54
584.449	15.58
584.644	15.61
584.838	15.56
585.032	15.63
585.226	15.54
585.421	15.56
585.615	15.48
585.809	15.41
586.003	15.52
586.198	15.54
586.392	15.52
586.586	15.68
586.78	15.64
586.974	15.79
587.168	15.69
587.363	15.85
587.557	15.96
587.751	15.92
587.945	16
588.139	15.97
588.333	15.93
588.527	16.02
588.721	15.96
588.915	16.24
589.109	16.35
589.303	16.45
589.497	16.44
589.691	16.46
589.885	16.49
590.079	16.47
590.273	16.41
590.466	16.35
590.66	16.26
590.854	16.23
591.048	16.13
591.242	15.81
591.436	15.66
591.629	15.74
591.823	15.67
592.017	15.8
592.211	15.74
592.404	15.71
592.598	15.87
592.792	15.89
592.986	15.93
593.179	15.83
593.373	15.92
593.567	16.14
593.76	16.07
593.954	16.13
594.147	16.08
594.341	16.15
594.535	16.24
594.728	16.22
594.922	16.22
595.115	16.25
595.309	16.29
595.502	16.3
595.696	16.35
595.889	16.36
596.083	16.36
596.276	16.34
596.47	16.41
596.663	16.38
596.856	16.38
597.05	16.45
597.243	16.53
597.437	16.5
597.63	16.64
597.823	16.55
598.017	16.57
598.21	16.49
598.403	16.52
598.596	16.39
598.79	16.43
598.983	16.44
599.176	16.43
599.369	16.45
599.563	16.32
599.756	16.18
599.949	16.1
600.142	16.12
600.335	16.11
600.528	15.93
600.722	15.97
600.915	16.12
601.108	15.96
601.301	15.96
601.494	15.89
601.687	16.13
601.88	16.12
602.073	16.25
602.266	16.25
602.459	16.42
602.652	16.4
602.845	16.47
603.038	16.46
603.231	16.65
603.424	16.63
603.617	16.62
603.809	16.65
604.002	16.71
604.195	16.7
604.388	16.73
604.581	16.63
604.774	16.82
604.966	16.75
605.159	16.74
605.352	16.74
605.545	16.82
605.737	16.78
605.93	16.81
606.123	16.72
606.316	16.78
606.508	16.81
606.701	16.83
606.894	16.79
607.086	16.93
607.279	16.88
607.471	16.93
607.664	16.87
607.857	17.01
608.049	16.9
608.242	16.93
608.434	16.85
608.627	16.8
608.819	16.8
609.012	16.81
609.204	16.71
609.397	16.67
609.589	16.56
609.782	16.62
609.974	16.47
610.166	16.52
610.359	16.66
610.551	16.63
610.743	16.77
610.936	16.96
611.128	16.93
611.32	17.08
611.513	17.13
611.705	17.22
611.897	17.24
612.09	17.34
612.282	17.36
612.474	17.26
612.666	17.44
612.858	17.32
613.051	17.1
613.243	17.21
613.435	17.1
613.627	17.05
613.819	17.02
614.011	16.98
614.203	17.05
614.395	16.96
614.588	16.88
614.78	16.74
614.972	16.77
615.164	16.77
615.356	16.66
615.548	16.68
615.74	16.66
615.932	16.57
616.124	16.53
616.315	16.54
616.507	16.62
616.699	16.64
616.891	16.76
617.083	16.88
617.275	16.93
617.467	16.99
617.659	17.17
617.85	17.26
618.042	17.4
618.234	17.49
618.426	17.34
618.618	17.4
618.809	17.43
619.001	17.3
619.193	17.29
619.384	17.4
619.576	17.46
619.768	17.49
619.959	17.49
620.151	17.28
620.343	17.37
620.534	17.44
620.726	17.33
620.917	17.38
621.109	17.4
621.301	17.35
621.492	17.22
621.684	17.25
621.875	17.01
622.067	17.01
622.258	17.05
622.45	16.89
622.641	17.04
622.832	17.05
623.024	17.07
623.215	17.33
623.407	17.26
623.598	17.18
623.789	17.14
623.981	17.15
624.172	17.26
624.363	17.39
624.555	17.53
624.746	17.42
624.937	17.48
625.129	17.47
625.32	17.48
625.511	17.57
625.702	17.71
625.893	17.77
626.085	17.77
626.276	17.71
626.467	17.69
626.658	17.59
626.849	17.56
627.04	17.47
627.231	17.53
627.422	17.4
627.614	17.3
627.805	17.13
627.996	17.04
628.187	17.19
628.378	17.21
628.569	17.21
628.76	17.17
628.951	17.28
629.142	17.23
629.332	17.17
629.523	17.28
629.714	17.43
629.905	17.76
630.096	17.93
630.287	17.84
630.478	17.75
630.669	17.74
630.859	17.71
631.05	17.63
631.241	17.91
631.432	17.92
631.623	17.78
631.813	17.61
632.004	17.44
632.195	17.31
632.385	17.27
632.576	17.23
632.767	17.17
632.957	17.45
633.148	17.58
633.339	17.48
633.529	17.53
633.72	17.52
633.91	17.52
634.101	17.52
634.292	17.43
634.482	17.49
634.673	17.6
634.863	17.7
635.054	17.44
635.244	17.39
635.435	17.51
635.625	17.53
635.815	17.56
636.006	17.96
636.196	18.08
636.387	18.19
636.577	18.16
636.767	18.18
636.958	18.19
637.148	18.44
637.338	18.31
637.529	18.05
637.719	18.17
637.909	18.2
638.099	17.95
638.29	17.79
638.48	17.95
638.67	18.02
638.86	17.99
639.05	17.85
639.241	17.79
639.431	17.87
639.621	17.86
639.811	17.88
640.001	17.99
640.191	18.05
640.381	18.05
640.571	17.69
640.761	17.78
640.951	17.94
641.141	17.86
641.331	17.89
641.521	17.79
641.711	17.87
641.901	17.59
642.091	17.33
642.281	17.25
642.471	17.29
642.661	17.59
642.851	17.41
643.041	17.3
643.231	17.47
643.42	17.23
643.61	17.47
643.8	17.55
643.99	17.77
644.18	17.8
644.369	17.84
644.559	17.76
644.749	17.55
644.939	17.47
645.128	17.55
645.318	17.58
645.508	17.63
645.697	17.52
645.887	17.56
646.076	17.46
646.266	17.54
646.456	17.69
646.645	17.95
646.835	18.08
647.024	18.19
647.214	17.91
647.403	17.89
647.593	18.04
647.782	18.03
647.972	17.98
648.161	18.01
648.351	18.01
648.54	17.77
648.73	17.5
648.919	17.49
649.108	17.48
649.298	17.72
649.487	17.79
649.677	17.83
649.866	17.93
650.055	18.02
650.244	17.95
650.434	18.05
650.623	18.11
650.812	18.13
651.002	17.98
651.191	18.09
651.38	18.07
651.569	18.15
651.758	18.13
651.947	18.14
652.137	18.12
652.326	18.2
652.515	18.16
652.704	18.29
652.893	18.25
653.082	18.49
653.271	18.65
653.46	18.89
653.649	18.74
653.838	18.74
654.027	18.57
654.216	18.54
654.405	18.57
654.594	18.5
654.783	18.4
654.972	18.61
655.161	18.66
655.35	18.59
655.539	18.16
655.728	18.4
655.916	18.39
656.105	18.42
656.294	18.33
656.483	18.15
656.672	18.1
656.86	18.18
657.049	18.21
657.238	18.31
657.427	18.2
657.615	18.34
657.804	18.21
657.993	18.34
658.181	18.37
658.37	18.46
658.559	18.47
658.747	18.54
658.936	18.41
659.125	18.07
659.313	17.97
659.502	17.96
659.69	17.9
659.879	17.73
660.067	17.56
660.256	17.52
660.444	17.48
660.633	17.6
660.821	17.48
661.01	17.74
661.198	18.15
661.387	18.05
661.575	18
661.763	18.12
661.952	18.37
662.14	18.38
662.328	18.49
662.517	18.68
662.705	18.44
662.893	18.8
663.082	18.44
663.27	18.29
663.458	18.16
663.646	18.41
663.834	18.4
664.023	18.27
664.211	18.43
664.399	18.25
664.587	18.14
664.775	18.42
664.963	18.44
665.152	18.56
665.34	18.81
665.528	18.82
665.716	18.53
665.904	18.45
666.092	18.77
666.28	18.57
666.468	18.58
666.656	18.67
666.844	18.45
667.032	18.45
667.22	18.52
667.408	18.3
667.596	18.38
667.784	18.27
667.971	18.58
668.159	18.46
668.347	18.59
668.535	18.75
668.723	18.45
668.911	18.68
669.098	18.38
669.286	18.29
669.474	18.28
669.662	18.39
669.849	18.53
670.037	18.29
670.225	18.23
670.413	18.09
670.6	18.06
670.788	18.28
670.976	18.32
671.163	18.24
671.351	18.22
671.538	18.35
671.726	18.44
671.913	18.42
672.101	18.51
672.289	18.59
672.476	18.41
672.664	18.43
672.851	18.46
673.039	18.38
673.226	18.75
673.413	18.9
673.601	18.89
673.788	18.94
673.976	18.88
674.163	18.8
674.35	18.61
674.538	18.8
674.725	19.09
674.912	18.82
675.1	18.87
675.287	18.58
675.474	18.69
675.662	18.9
675.849	18.58
676.036	18.87
676.223	18.84
676.411	19
676.598	19.16
676.785	18.88
676.972	18.99
677.159	18.9
677.346	18.92
677.533	18.71
677.721	18.5
677.908	18.67
678.095	18.49
678.282	18.65
678.469	18.56
678.656	18.76
678.843	18.77
679.03	18.99
679.217	19.19
679.404	19.3
679.591	19.36
679.778	19.36
679.964	19.47
680.151	19.56
680.338	19.4
680.525	19.46
680.712	19.13
680.899	19.25
681.086	19.24
681.272	19
681.459	19.14
681.646	19.28
681.833	19.13
682.02	19.16
682.206	19.23
682.393	19.4
682.58	19.56
682.766	19.6
682.953	19.61
683.14	19.51
683.326	19.7
683.513	19.59
683.7	19.29
683.886	19.25
684.073	19.08
684.259	18.88
684.446	18.92
684.632	18.73
684.819	18.67
685.005	18.78
685.192	18.73
685.378	18.8
685.565	18.79
685.751	19.02
685.938	19.32
686.124	19.27
686.31	19.21
686.497	18.98
686.683	19
686.87	18.98
687.056	18.48
687.242	18.49
687.429	18.35
687.615	18.47
687.801	18.55
687.987	18.51
688.174	18.5
688.36	18.89
688.546	18.99
688.732	18.84
688.918	18.91
689.105	18.99
689.291	18.78
689.477	18.74
689.663	18.58
689.849	18.81
690.035	18.64
690.221	18.56
690.407	18.3
690.593	18.4
690.779	18.81
690.965	18.86
691.151	18.89
691.337	19.07
691.523	18.94
691.709	18.97
691.895	18.66
692.081	18.79
692.267	19.09
692.453	19.21
692.639	18.93
692.825	18.66
693.011	18.62
693.196	18.64
693.382	18.86
693.568	19.34
693.754	19.25
693.94	19.23
694.125	19.19
694.311	18.9
694.497	18.61
694.682	18.72
694.868	18.62
695.054	18.85
695.239	19.07
695.425	19.13
695.611	18.94
695.796	19.04
695.982	18.99
696.168	18.9
696.353	19.07
696.539	19.52
696.724	19.4
696.91	19.43
697.095	19.58
697.281	19.69
697.466	19.69
697.652	19.68
697.837	19.58
698.023	19.73
698.208	19.8
698.393	19.86
698.579	19.69
698.764	19.69
698.949	19.86
699.135	19.7
699.32	19.51
699.505	19.5
699.691	19.25
699.876	19.27
700.061	19.16
700.246	18.99
700.432	18.93
700.617	18.93
700.802	19.2
700.987	19.09
701.172	18.9
701.358	19.11
701.543	19.18
701.728	19.32
701.913	19.28
702.098	19.23
702.283	19.81
702.468	19.56
702.653	19.4
702.838	19.27
703.023	19.23
703.208	18.98
703.393	18.68
703.578	18.09
703.763	18.22
703.948	18.43
704.133	18.39
704.318	17.85
704.503	17.94
704.688	18.08
704.873	17.94
705.057	18.11
705.242	18.6
705.427	18.49
705.612	19.07
705.797	19.18
705.981	19.33
706.166	19.19
706.351	19.57
706.536	19.64
706.72	19.69
706.905	19.92
707.09	19.35
707.274	19.14
707.459	19.46
707.644	19.26
707.828	19.05
708.013	18.81
708.197	18.94
708.382	18.82
708.567	18.8
708.751	18.79
708.936	18.79
709.12	19.04
709.305	18.94
709.489	18.6
709.673	18.83
709.858	19.03
710.042	18.68
710.227	19.18
710.411	18.85
710.596	18.95
710.78	18.81
710.964	18.77
711.149	18.9
711.333	19.21
711.517	19.4
711.702	19.38
711.886	19.16
712.07	19.43
712.254	19.15
712.438	19.38
712.623	19.43
712.807	19.28
712.991	19.29
713.175	19.17
713.359	18.72
713.544	18.77
713.728	18.69
713.912	18.79
714.096	19.06
714.28	19.03
714.464	18.89
714.648	18.73
714.832	18.92
715.016	18.74
715.2	18.83
715.384	19.28
715.568	19.25
715.752	19.27
715.936	19.5
716.12	19.17
716.304	18.92
716.488	19.37
716.671	19.31
716.855	19.55
717.039	19.67
717.223	20.04
717.407	19.55
717.59	19.52
717.774	19.47
717.958	19.09
718.142	19.66
718.325	19.94
718.509	19.65
718.693	19.55
718.877	19.38
719.06	19.86
719.244	19.39
719.428	19.59
719.611	19.96
719.795	19.96
719.978	20.33
720.162	20.16
720.345	20.14
720.529	20.06
720.713	20.43
720.896	20.55
721.08	19.94
721.263	19.77
721.446	20.4
721.63	19.92
721.813	19.46
721.997	18.78
722.18	18.41
722.364	18.36
722.547	18.35
722.73	17.79
722.914	17.79
723.097	18.13
723.28	18.74
723.464	18.14
723.647	18.29
723.83	18.56
724.013	19.23
724.197	19.2
724.38	19.32
724.563	19.44
724.746	20.06
724.929	20.06
725.112	20.06
725.296	19.78
725.479	19.91
725.662	19.91
725.845	20.09
726.028	19.11
726.211	19.32
726.394	18.92
726.577	19.08
726.76	18.84
726.943	18.89
727.126	18.59
727.309	18.86
727.492	18.49
727.675	18.49
727.858	18.3
728.041	19.28
728.224	19.02
728.407	19.27
728.589	19.35
728.772	19.1
728.955	19.31
729.138	19.5
729.321	19.43
729.503	20
729.686	20.25
729.869	20.28
730.052	20.31
730.234	20.52
730.417	20.64
730.6	20.14
730.782	20.59
730.965	19.88
731.148	19.28
731.33	19.36
731.513	19.04
731.695	18.42
731.878	18.73
732.061	18.43
732.243	18.3
732.426	18.07
732.608	18.47
732.791	18.07
732.973	18.52
733.156	18.93
733.338	18.62
733.52	18.66
733.703	19.28
733.885	18.33
734.068	18.51
734.25	18.64
734.432	18.68
734.615	18.73
734.797	18.96
734.979	18.51
735.162	18.76
735.344	18.78
735.526	18.6
735.708	18.59
735.891	19.27
736.073	18.77
736.255	19.09
736.437	18.83
736.619	18.8
736.802	19.04
736.984	19.66
737.166	19.31
737.348	19.8
737.53	20.47
737.712	20.31
737.894	20.25
738.076	20.45
738.258	20.22
738.44	20.53
738.622	20.88
738.804	20.75
738.986	20.38
739.168	20.79
739.35	20.33
739.532	19.7
739.714	19.99
739.896	19.93
740.078	20.28
740.259	19.66
740.441	19.74
740.623	19.37
740.805	19.63
740.987	19.67
741.168	19.28
741.35	19.51
741.532	20.27
741.714	20.06
741.895	19.7
742.077	19.03
742.259	19.4
742.44	19.38
742.622	18.92
742.804	19.12
742.985	19.21
743.167	19.45
743.348	19.51
743.53	19.27
743.711	19.06
743.893	19.16
744.075	19.46
744.256	19.13
744.438	19.79
744.619	19.45
744.8	18.97
744.982	18.89
745.163	18.71
745.345	18.7
745.526	18.4
745.707	18.74
745.889	19.25
746.07	19.08
746.252	19.52
746.433	18.93
746.614	19.09
746.795	19.66
746.977	19.63
747.158	20.56
747.339	19.87
747.52	19.75
747.702	19.73
747.883	19.53
748.064	19.68
748.245	19.53
748.426	18.85
748.607	19.39
748.788	18.42
748.97	18.55
749.151	18.24
749.332	18.81
749.513	18.54
749.694	17.92
749.875	17.96
750.056	18.33
750.237	18.65
750.418	19.32
750.599	18.9
750.78	18.59
750.96	18.53
751.141	19.03
751.322	18.48
751.503	18.78
751.684	19.54
751.865	19.35
752.046	19.24
752.226	18.84
752.407	18.52
752.588	18.79
752.769	19.67
752.949	19.49
753.13	18.1
753.311	17.52
753.492	17.31
753.672	16.87
753.853	17.46
754.034	17.58
754.214	18.18
754.395	18.03
754.575	18.85
754.756	18.53
754.937	18.69
755.117	18.56
755.298	19
755.478	18.53
755.659	18.11
755.839	17.31
756.02	17.04
756.2	15.64
756.381	15.87
756.561	14.8
756.741	14.95
756.922	14.84
757.102	15.77
757.283	16.83
757.463	17.83
757.643	18.32
757.823	18.42
758.004	18.32
758.184	19.24
758.364	19.18
758.545	19.22
758.725	19.55
758.905	20.05
759.085	19.53
759.265	18.79
759.446	18.29
759.626	18.12
759.806	18.53
759.986	18.65
760.166	18.25
760.346	18.64
760.526	18.76
760.706	18.61
760.886	18.68
761.066	19.44
761.246	19.72
761.426	19.37
761.606	19.03
761.786	18.71
761.966	18.57
762.146	19.05
762.326	19.01
762.506	19.25
762.686	18.95
762.866	18.84
763.046	19.13
763.225	19.44
763.405	20.29
763.585	20.53
763.765	21
763.945	21
764.124	20.27
764.304	20.17
764.484	20.28
764.664	20.36
764.843	20.25
765.023	19.55
765.203	18.63
765.382	17.8
765.562	18.08
765.741	17.4
765.921	17.61
766.101	18.64
766.28	18.79
766.46	18.18
766.639	17.86
766.819	17.84
766.998	17.53
767.178	17.67
767.357	18.51
767.537	18.63
767.716	18.9
767.896	18.63
768.075	19.14
768.254	18.02
768.434	18.56
768.613	19.46
768.792	19.86
768.972	20.45
769.151	20.11
769.33	20.44
769.51	20.39
769.689	21.15
769.868	21
770.047	20.27
770.226	21.41
770.406	20.96
770.585	20.4
770.764	19.49
770.943	19.91
771.122	21.29
771.301	20.48
771.48	20.06
771.66	18.98
771.839	18.7
772.018	18.28
772.197	17.56
772.376	17.92
772.555	17.61
772.734	18.07
772.913	17.34
773.092	17.15
773.271	16.41
773.449	16.44
773.628	16.39
773.807	16.9
773.986	16.39
774.165	16.69
774.344	16.83
774.523	17.85
774.701	18.33
774.88	18.26
775.059	17.9
775.238	19.1
775.417	20.44
775.595	20.62
775.774	21.09
775.953	22.26
776.131	22.88
776.31	22.16
776.489	21.1
776.667	20.37
776.846	20.82
777.025	21.35
777.203	20.33
777.382	19
777.56	19.13
777.739	18.01
777.917	17.73
778.096	18.16
778.274	18.87
778.453	19.86
778.631	20.46
778.81	19.37
778.988	19
779.166	19.18
779.345	18.76
779.523	18.31
779.702	19.3
779.88	19.64
780.058	19.22
780.237	19.18
780.415	18.33
780.593	17.75
780.771	17.7
780.95	17.7
781.128	17.8
781.306	17.8
781.484	18.75
781.662	18.55
781.841	17.6
782.019	16.83
782.197	16.73
782.375	17.73
782.553	17.95
782.731	19.01
782.909	18.57
783.087	19.46
783.265	19.96
783.443	20.41
783.621	19.89
783.799	20.4
783.977	20.94
784.155	20.86
784.333	19.83
784.511	19.46
784.689	18.79
784.867	18.24
785.045	17.57
785.223	17.56
785.4	17.52
785.578	18.3
785.756	18.95
785.934	18.34
786.112	18.06
786.289	17.99
786.467	18.25
786.645	19.02
786.823	20.07
787	20.06
787.178	20.25
787.356	19.52
787.533	19.22
787.711	19.03
787.889	18.9
788.066	19.62
788.244	20.18
788.421	20.11
788.599	19.87
788.776	18.92
788.954	18.47
789.131	18.42
789.309	18.75
789.486	18.33
789.664	17.68
789.841	19.06
790.019	19.33
790.196	19.45
790.373	19.47
790.551	19.42
790.728	19.99
790.906	20.72
791.083	20.32
791.26	19.64
791.437	19.72
791.615	20.22
791.792	18.44
791.969	17.07
792.146	16.5
792.324	16.1
792.501	16.31
792.678	17.15
792.855	16.42
793.032	15.93
793.209	15.89
793.387	15.63
793.564	15.52
793.741	16.55
793.918	17.34
794.095	17.81
794.272	18.26
794.449	18.7
794.626	17.91
794.803	18.18
794.98	18.13
795.157	17.91
795.334	17.94
795.511	17.9
795.688	17.05
795.864	17.84
796.041	17.29
796.218	17.7
796.395	17.05
796.572	17.01
796.749	17.1
796.925	18.01
797.102	19.13
797.279	20.75
797.456	20.99
797.632	22.75
797.809	21.55
797.986	21.78
798.162	20.98
798.339	20.82
798.516	22.05
798.692	21.42
798.869	20.75
799.046	19.53
799.222	18.64
799.399	19.32
799.575	17.98
799.752	18.74
799.928	18.94
800.105	17.94
800.281	18.31
800.458	16.81
800.634	17.56
800.811	17.81
800.987	18.71
801.163	18.37
801.34	16.24
801.516	16.44
801.692	16.71
801.869	16.49
802.045	18.56
802.221	18.8
802.398	19.68
802.574	19.54
802.75	18.95
802.926	19.23
803.103	19.06
803.279	19.05
803.455	19.72
803.631	19.22
803.807	20.61
803.983	20.97
804.16	20.35
804.336	20.47
804.512	20.38
804.688	20.86
804.864	20.65
805.04	21.57
805.216	22.43
805.392	22.26
805.568	21.07
805.744	20.05
805.92	19.26
806.096	20.22
806.272	19
806.448	19.58
806.623	20.26
806.799	20.52
806.975	19.41
807.151	19.97
807.327	18.48
807.503	20.11
807.678	21.04
807.854	20.95
808.03	19.83
808.206	21.48
808.381	20.38
808.557	19.62
808.733	17.99
808.908	18.78
809.084	18.27
809.26	18.17
809.435	17.05
809.611	16.03
809.787	16.81
809.962	17.06
810.138	15.85
810.313	15.37
810.489	15.09
810.664	15.59
810.84	14.23
811.015	15.38
811.191	17.1
811.366	17.64
811.542	16.98
811.717	17.02
811.892	17.85
812.068	17.5
812.243	19.74
812.419	20.5
812.594	22.13
812.769	23.81
812.944	22.94
813.12	21.66
813.295	22.86
813.47	22.4
813.645	20.8
813.821	20.36
813.996	21.19
814.171	21.64
814.346	20.66
814.521	20.36
814.697	20.29
814.872	20.07
815.047	20.67
815.222	19.59
815.397	20.29
815.572	20.74
815.747	20.52
815.922	18.98
816.097	17.07
816.272	18.95
816.447	18.95
816.622	17.93
816.797	19.44
816.972	19.3
817.147	20.03
817.322	20.12
817.496	20.51
817.671	21.48
817.846	23.44
818.021	24.05
818.196	22.16
818.371	20.8
818.545	22.05
818.72	22.4
818.895	22.82
819.069	22.23
819.244	23.24
819.419	22.92
819.594	22.04
819.768	21.01
819.943	20.6
820.117	20.72
820.292	20.89
820.467	20.41
820.641	19.64
820.816	19.78
820.99	20.1
821.165	19.64
821.339	19.66
821.514	19.72
821.688	20.07
821.863	20.03
822.037	20.09
822.212	20.18
822.386	20.06
822.56	20.15
822.735	20.19
822.909	20.21
823.084	20.21
823.258	20.29
823.432	20.34
823.606	20.2
823.781	20.45
823.955	20.54
824.129	20.47
824.303	20.9
824.478	20.93
824.652	20.94
824.826	20.65
825	20.54
825.174	20.47
825.348	20.17
825.523	19.82
825.697	19.59
825.871	20.01
826.045	20
826.219	19.57
826.393	19.57
826.567	19.42
826.741	18.98
826.915	19.32
827.089	18.99
827.263	19.2
827.437	19.46
827.611	19.64
827.784	19.4
827.958	19.39
828.132	19.49
828.306	19.55
828.48	19.15
828.654	19.72
828.827	19.66
829.001	20.74
829.175	20.68
829.349	20.45
829.522	20.33
829.696	20.44
829.87	20.25
830.044	19.81
830.217	19.69
830.391	19.59
830.565	20.32
830.738	20.55
830.912	18.86
831.085	17.8
831.259	17.86
831.432	17.11
831.606	16.87
831.779	16.77
831.953	17.01
832.126	17.06
832.3	16.49
832.473	16.6
832.647	16.22
832.82	16.41
832.994	16.36
833.167	16.76
833.34	17.51
833.514	17.4
833.687	17.42
833.86	17.77
834.034	17.82
834.207	19.24
834.38	18.26
834.553	18.59
834.727	19.27
834.9	20.26
835.073	20.42
835.246	20.08
835.419	20.2
835.593	21.04
835.766	20.97
835.939	19.5
836.112	18.72
836.285	19.74
836.458	19.42
836.631	17.69
836.804	16.57
836.977	15.17
837.15	15.3
837.323	15.55
837.496	14.22
837.669	14.28
837.842	16.86
838.015	16.04
838.188	16.72
838.361	16.37
838.533	18.16
838.706	20.29
838.879	22.13
839.052	22.13
839.225	22.84
839.398	24.02
839.57	25.07
839.743	23.99
839.916	26.72
840.088	24.09
840.261	24.72
840.434	24.89
840.607	24.38
840.779	23.5
840.952	22.69
841.124	20.3
841.297	20.52
841.47	18.87
841.642	18.25
841.815	14.15
841.987	16.84
842.16	15.8
842.332	16.27
842.505	13.67
842.677	14.3
842.85	15.74
843.022	18
843.194	16.55
843.367	15.18
843.539	16.63
843.712	18.31
843.884	15.49
844.056	16.87
844.229	16.9
844.401	17.64
844.573	17.72
844.745	14.3
844.918	14.72
845.09	15.28
845.262	17.71
845.434	18.23
845.606	19.67
845.779	21.68
845.951	18.67
846.123	21.1
846.295	22.94
846.467	23.14
846.639	25.58
846.811	22.69
846.983	24.48
847.155	23.14
847.327	24.22
847.499	20.88
847.671	18.37
847.843	19.44
848.015	16.19
848.187	19.39
848.359	20.47
848.531	23.21
848.703	25.72
848.875	21.23
849.047	19.81
849.218	13.58
849.39	17.21
849.562	21.8
849.734	21.82
849.905	22.43
850.077	17.7
850.249	17.05
850.421	15.62
850.592	11.59
850.764	12.8
850.936	11.36
851.107	15.14
851.279	14.04
851.451	7.54
851.622	5.54
851.794	1.44
851.965	5
852.137	5.68
852.308	4.01
852.48	5.03
852.651	8.27
852.823	12.95
852.994	13.27
853.166	11.66
853.337	16.46
853.509	22.97
853.68	24.97
853.851	20.68
854.023	17
854.194	17.62
854.365	25.22
854.537	24.76
854.708	23.86
854.879	26.06
855.05	26.85
855.222	26.89
855.393	23.47
855.564	22.15
855.735	25.3
855.906	27.34
856.078	27.88
856.249	21.39
856.42	18.56
856.591	18.35
856.762	10.94
856.933	11.1
857.104	13.43
857.275	11.33
857.446	13.04
857.617	15.53
857.788	15.08
857.959	13.36
858.13	16.34
858.301	17.23
858.472	16.98
858.643	21.14
858.814	19.82
858.985	19.68
859.155	19.99
859.326	17.6
859.497	12.37
859.668	14.13
859.839	18.79
860.009	15.53
860.18	14.02
860.351	13.59
860.522	9.82
860.692	5.88
860.863	2.41
861.034	5.49
861.204	9.9
861.375	6.95
861.546	7.95
861.716	4.38
861.887	2.06
862.057	1.22
862.228	4.09
862.398	8.63
862.569	9.49
862.739	9.82
862.91	8.37
863.08	6.85
863.251	8.05
863.421	6.71
863.592	4.34
863.762	8.29
863.932	13.69
864.103	14.49
864.273	15.29
864.443	19.55
864.614	17.15
864.784	15.22
864.954	13.23
865.125	14.04
865.295	13.15
865.465	17.35
865.635	19.14
865.805	17.42
865.976	14.69
866.146	15.09
866.316	14.28
866.486	17.29
866.656	21.16
866.826	23.04
866.996	23.78
867.166	27.1
867.336	31.67
867.506	21.36
867.676	16.52
867.846	13.53
868.016	12.54
868.186	17.99
868.356	22.26
868.526	22.85
868.696	24.81
868.866	26.82
869.036	17.97
869.206	11.94
869.376	20.12
869.545	24.36
869.715	23.23
869.885	22.83
870.055	22.72
870.224	16.74
870.394	18.6
870.564	15.66
870.734	15.56
870.903	20.5
871.073	24.03
871.243	21.39
871.412	19.7
871.582	23.33
871.751	25.25
871.921	25.14
872.091	25.77
872.26	20.24
872.43	20.23
872.599	16.96
872.769	17.74
872.938	17.33
873.108	18.98
873.277	20.38
873.446	17.39
873.616	15.87
873.785	13.09
873.955	13.22
874.124	16.1
874.293	15.43
874.463	18.96
874.632	17.71
874.801	13.07
874.971	13.41
875.14	12.8
875.309	16.08
875.478	18.15
875.647	15.17
875.817	14.65
875.986	13.83
876.155	12.31
876.324	8.96
876.493	3.07
876.662	6.1
876.831	4.86
877	6.98
877.17	4.93
877.339	-1.6
877.508	5.51
877.677	6.06
877.846	7.33
878.015	13.17
878.184	14.77
878.352	20.33
878.521	20.41
878.69	23.16
878.859	21.73
879.028	22.58
879.197	26.42
879.366	20.21
879.534	20.88
879.703	18.51
879.872	17.55
880.041	17.81
880.21	18.46
880.378	19.13
880.547	18.58
880.716	18.8
880.884	18.54
881.053	17.78
881.222	19.36
881.39	18.96
881.559	19.56
881.727	20.19
881.896	20.56
882.065	20.55
882.233	20.62
882.402	20.31
882.57	20.34
882.739	20.52
882.907	20.87
883.076	21.62
883.244	21.46
883.412	20.95
883.581	20.68
883.749	20.82
883.918	19.72
884.086	18.65
884.254	19.1
884.423	19.07
884.591	19.28
884.759	19.49
884.927	18.15
885.096	19.77
885.264	20.73
885.432	20.12
885.6	20.35
885.769	20.55
885.937	20.49
886.105	19.37
886.273	17.84
886.441	16.28
886.609	16.46
886.777	16.3
886.945	14.31
887.113	15.9
887.281	16.54
887.449	15.08
887.617	17.39
887.785	19.78
887.953	17.22
888.121	18.71
888.289	20.92
888.457	18.17
888.625	21.17
888.793	20.34
888.961	21.59
889.129	19.69
889.296	16.37
889.464	15.3
889.632	16.26
889.8	21.12
889.967	22.27
890.135	21.98
