Data from 2938435_Reflection_1.txt Node
Date: Fri Jun 19 18:38:39 EDT 2015
User: robert
Spectrometer: USB4E03002
Autoset integration time: false
Trigger mode: 4
Integration Time (sec): 1.000000E-1
Scans to average: 10
Electric dark correction enabled: true
Nonlinearity correction enabled: false
Boxcar width: 5
Stray light correction enabled: false
XAxis mode: Wavelengths
Stop averaging: false
Number of Pixels in Spectrum: 3648
>>>>>Begin Spectral Data<<<<<
177.575	540.62
177.794	413.12
178.014	960.88
178.233	-125166.67
178.452	374.42
178.672	482.03
178.891	10.6
179.11	-639.51
179.33	-1309.5
179.549	-663.6
179.768	-224.24
179.987	12476.6
180.207	-481.78
180.426	-530.04
180.645	-283.14
180.864	-685.13
181.084	-248.56
181.303	-238.84
181.522	-126.32
181.741	-141.57
181.96	-205.65
182.179	-219.67
182.398	-74.01
182.618	48.16
182.837	-137.56
183.056	-156.19
183.275	-94.48
183.494	1475
183.713	482.15
183.932	325.33
184.151	-233.8
184.37	1084.8
184.589	592.92
184.808	449.05
185.027	186.84
185.246	453.35
185.465	-3159.5
185.684	1685.03
185.903	-91.69
186.122	-99.76
186.341	-54.29
186.56	5776.47
186.779	-6975
186.998	-171.97
187.216	-617.8
187.435	-568.32
187.654	-309.3
187.873	-22.52
188.092	22.76
188.311	31.8
188.53	41.8
188.748	13.2
188.967	17.6
189.186	5.47
189.405	-35.54
189.623	41.27
189.842	160.78
190.061	80.04
190.28	120.8
190.498	27.66
190.717	69.69
190.936	121.08
191.154	109.86
191.373	150.58
191.592	153.35
191.81	138.25
192.029	107.85
192.248	73.3
192.466	86.13
192.685	51.08
192.904	97.99
193.122	74.42
193.341	5.42
193.559	2.08
193.778	21.33
193.996	31.37
194.215	17.08
194.433	42.38
194.652	74.5
194.87	87.51
195.089	142.04
195.307	138.14
195.526	122.77
195.744	170.39
195.963	268.07
196.181	346.48
196.399	265.95
196.618	456.35
196.836	267.22
197.055	591.92
197.273	2502.6
197.491	-1250.7
197.71	496.89
197.928	-2463.02
198.146	409.22
198.365	152.08
198.583	184.66
198.801	169.07
199.019	114.15
199.238	160.33
199.456	123.08
199.674	86.89
199.892	94.89
200.111	110.41
200.329	155.12
200.547	149.84
200.765	-2240.54
200.983	97.79
201.202	122.45
201.42	87.24
201.638	12.99
201.856	67.78
202.074	67.6
202.292	54.45
202.51	53.71
202.728	41.04
202.946	51.31
203.165	46.47
203.383	95.78
203.601	92.74
203.819	259.67
204.037	676.59
204.255	-579.05
204.473	448.44
204.691	-690.33
204.909	-1096.99
205.127	-488.18
205.345	1210.67
205.562	161.37
205.78	130.44
205.998	268.66
206.216	351.95
206.434	-2243.12
206.652	114.55
206.87	103.87
207.088	64.8
207.306	82.88
207.523	127.25
207.741	106.81
207.959	298.28
208.177	-30.99
208.395	-237.97
208.612	149.66
208.83	152.89
209.048	109.15
209.266	-1551.38
209.483	99.22
209.701	85.6
209.919	94.57
210.136	129.21
210.354	143.59
210.572	110.24
210.79	110.25
211.007	153.57
211.225	143.31
211.442	-1332.11
211.66	457.12
211.878	304.63
212.095	49.07
212.313	67.08
212.53	73.16
212.748	80.19
212.966	47.05
213.183	53.43
213.401	43.89
213.618	46.52
213.836	81.52
214.053	57.66
214.271	10.67
214.488	176.38
214.705	161.69
214.923	161.37
215.14	168.43
215.358	149.8
215.575	178.86
215.793	236.14
216.01	176.45
216.227	132.45
216.445	114.27
216.662	74.45
216.879	62.72
217.097	68.54
217.314	56.37
217.531	62.64
217.749	50.24
217.966	47.4
218.183	41.95
218.4	38.51
218.618	53.81
218.835	65.42
219.052	70.5
219.269	60.36
219.487	61.41
219.704	68.7
219.921	67.96
220.138	70.9
220.355	54.62
220.572	63.77
220.79	73.19
221.007	78.63
221.224	62.55
221.441	66.95
221.658	55.08
221.875	56.73
222.092	43.93
222.309	43.21
222.526	39.42
222.743	50.96
222.96	45.24
223.177	38.05
223.394	36.06
223.611	37.05
223.828	35.22
224.045	35.47
224.262	31.56
224.479	35.73
224.696	34.1
224.913	37.04
225.13	34.54
225.347	38.75
225.564	36
225.781	30.66
225.997	27.93
226.214	25.74
226.431	25.54
226.648	27.83
226.865	26.72
227.082	25.45
227.298	22.96
227.515	23.42
227.732	20.32
227.949	19.34
228.165	20.39
228.382	19
228.599	19.06
228.816	18.98
229.032	17.25
229.249	16.71
229.466	16.96
229.682	16.99
229.899	16.57
230.116	16.76
230.332	14.76
230.549	9.72
230.765	13.21
230.982	13.39
231.199	13.08
231.415	11.22
231.632	12.44
231.848	11.61
232.065	12.58
232.281	11.92
232.498	10.26
232.714	13.2
232.931	16.91
233.147	12.49
233.364	14.25
233.58	16.12
233.797	14.98
234.013	14.32
234.23	15.5
234.446	14.2
234.662	14.89
234.879	13.32
235.095	12.58
235.312	11.67
235.528	14.05
235.744	16.09
235.961	16.29
236.177	19.25
236.393	19.86
236.61	22.05
236.826	24.53
237.042	26.69
237.258	30.12
237.475	31.58
237.691	30.36
237.907	29.55
238.123	25.56
238.339	20.56
238.556	18.48
238.772	18.67
238.988	15.83
239.204	15.99
239.42	15.96
239.636	14.09
239.853	13.86
240.069	15.76
240.285	16.38
240.501	15.61
240.717	17.74
240.933	18.47
241.149	19.05
241.365	19.44
241.581	18.08
241.797	17.45
242.013	19.13
242.229	18.83
242.445	18.37
242.661	18.17
242.877	19.72
243.093	19.36
243.309	18.68
243.525	19.18
243.741	19.42
243.957	20.54
244.173	19.76
244.388	19.34
244.604	19.32
244.82	19.36
245.036	18.71
245.252	18.01
245.468	17.98
245.683	17.8
245.899	17.06
246.115	17.06
246.331	16.88
246.547	16.83
246.762	17.33
246.978	17.04
247.194	16.65
247.409	17.01
247.625	17.23
247.841	17.2
248.057	17.59
248.272	17.84
248.488	16.82
248.703	17.25
248.919	17.97
249.135	15.62
249.35	16.58
249.566	15.76
249.782	15.61
249.997	15.94
250.213	15.61
250.428	15.11
250.644	15.03
250.859	15.61
251.075	15.16
251.29	13.72
251.506	15.42
251.721	14.93
251.937	16.31
252.152	15.47
252.368	15.11
252.583	16.81
252.798	16.71
253.014	15.59
253.229	17.26
253.445	17.85
253.66	20.74
253.875	19.48
254.091	20.37
254.306	20.06
254.521	20.72
254.737	21.22
254.952	20.19
255.167	21.4
255.383	22.74
255.598	22.07
255.813	20.59
256.028	19.53
256.244	18.35
256.459	17.64
256.674	16.99
256.889	16.39
257.104	16.07
257.32	14.82
257.535	14.13
257.75	13.78
257.965	12.91
258.18	12.96
258.395	12.77
258.61	12.95
258.826	12.87
259.041	12.71
259.256	12.51
259.471	12.4
259.686	12.79
259.901	12.65
260.116	12.26
260.331	12.52
260.546	12.4
260.761	12.13
260.976	12.28
261.191	12.43
261.406	13.14
261.621	13.86
261.836	13.29
262.05	13.45
262.265	14.6
262.48	15.12
262.695	16.09
262.91	16.09
263.125	16.45
263.34	16.15
263.555	14.87
263.769	14.27
263.984	12.88
264.199	13.77
264.414	12.99
264.629	12.27
264.843	12.68
265.058	12.2
265.273	11.93
265.488	12.27
265.702	12.12
265.917	13.11
266.132	12.16
266.346	12.48
266.561	11.75
266.776	12.02
266.99	11.44
267.205	10.22
267.42	9.87
267.634	10.13
267.849	9.64
268.063	10.37
268.278	9.99
268.492	9.7
268.707	10.9
268.922	11.22
269.136	12.4
269.351	12.97
269.565	14.18
269.78	13.85
269.994	13.44
270.209	13.51
270.423	13.59
270.637	13.5
270.852	14.44
271.066	13.87
271.281	13.77
271.495	13.03
271.709	12.52
271.924	12.11
272.138	12.6
272.353	13.62
272.567	13.24
272.781	13.03
272.996	12.98
273.21	11.55
273.424	11.51
273.638	12.24
273.853	11.7
274.067	12.48
274.281	12.31
274.495	12.53
274.71	12.02
274.924	12.36
275.138	12.39
275.352	12.91
275.566	14.39
275.781	14.12
275.995	13.4
276.209	12.96
276.423	13.12
276.637	12.56
276.851	12.04
277.065	11.94
277.279	11.98
277.493	11.93
277.707	12.24
277.921	12.26
278.135	12.43
278.349	12.91
278.563	14.4
278.777	14.06
278.991	14.6
279.205	14.56
279.419	15.06
279.633	14.99
279.847	14.74
280.061	14.96
280.275	14.91
280.489	14.91
280.703	14.21
280.917	14.34
281.131	14.27
281.344	14.3
281.558	14.53
281.772	14.42
281.986	15.11
282.2	15.51
282.414	14.69
282.627	14.87
282.841	14.96
283.055	14.98
283.269	14.02
283.482	13.66
283.696	14.41
283.91	14.72
284.123	15.11
284.337	14.37
284.551	13.9
284.764	13.94
284.978	13.27
285.192	13.39
285.405	13.69
285.619	14.06
285.833	14.63
286.046	14.54
286.26	13.85
286.473	12.17
286.687	12.37
286.9	12.62
287.114	12.93
287.327	13.68
287.541	14.13
287.754	13.9
287.968	14.03
288.181	14.21
288.395	14.34
288.608	14.86
288.822	16.2
289.035	16.74
289.248	16.89
289.462	16.39
289.675	15.96
289.889	15.74
290.102	16.1
290.315	15.84
290.529	15.12
290.742	14.69
290.955	14.82
291.169	14.35
291.382	14.15
291.595	14.12
291.808	15.09
292.022	14.96
292.235	15.09
292.448	14.58
292.661	15.08
292.875	15.57
293.088	15.15
293.301	15.21
293.514	15.4
293.727	15.47
293.94	15.74
294.153	15.67
294.367	15.99
294.58	15.55
294.793	16.33
295.006	16.17
295.219	17
295.432	17.14
295.645	17.36
295.858	17.36
296.071	17.4
296.284	17.72
296.497	17.71
296.71	18.18
296.923	18.47
297.136	18.62
297.349	19.32
297.562	18.88
297.775	19.16
297.988	19.13
298.201	19
298.414	18.65
298.626	18.48
298.839	18.58
299.052	18.34
299.265	17.85
299.478	17.53
299.691	17.25
299.903	17.54
300.116	16.94
300.329	17.58
300.542	18.36
300.755	18.58
300.967	18.04
301.18	18.61
301.393	18.9
301.605	19.99
301.818	20.3
302.031	20.56
302.243	19.65
302.456	20.77
302.669	20.44
302.881	20.1
303.094	21.16
303.307	21.33
303.519	20.41
303.732	20.48
303.944	20.28
304.157	20.27
304.37	19.55
304.582	20.39
304.795	19.64
305.007	19.57
305.22	19.61
305.432	18.69
305.645	19.4
305.857	20.42
306.069	20.97
306.282	21.09
306.494	20.63
306.707	20.43
306.919	20.39
307.132	20.11
307.344	20.69
307.556	19.8
307.769	19.48
307.981	19.41
308.193	18.88
308.406	18.04
308.618	18.05
308.83	18.15
309.043	19.05
309.255	18.82
309.467	19.44
309.679	19.22
309.892	20.12
310.104	20.43
310.316	20.23
310.528	20.56
310.74	21.06
310.953	21.27
311.165	21.62
311.377	21.7
311.589	21.88
311.801	21.67
312.013	21.02
312.225	21.03
312.437	21.4
312.649	21.7
312.862	21.9
313.074	22
313.286	21.39
313.498	21.17
313.71	20.89
313.922	21.88
314.134	21.74
314.346	22.02
314.558	21.89
314.77	21.51
314.982	21.13
315.193	20.23
315.405	20.19
315.617	20.18
315.829	20.04
316.041	19.9
316.253	19.51
316.465	20.55
316.677	21.53
316.888	21.76
317.1	21.72
317.312	21.73
317.524	22.6
317.736	22.08
317.947	22.44
318.159	22.37
318.371	22.26
318.583	21.9
318.794	21.38
319.006	20.22
319.218	20.95
319.43	21.44
319.641	21.71
319.853	21.4
320.064	23.07
320.276	22.87
320.488	23.24
320.699	22.74
320.911	22.01
321.123	22.33
321.334	22.68
321.546	21.71
321.757	22.3
321.969	21.76
322.18	21.9
322.392	20.29
322.603	20.65
322.815	21.16
323.026	22.33
323.238	22.53
323.449	22.2
323.661	22.01
323.872	21.67
324.083	21.2
324.295	22.11
324.506	22.42
324.718	22.9
324.929	23.13
325.14	22.7
325.352	22.36
325.563	22.28
325.774	21.86
325.986	21.66
326.197	22.51
326.408	22.97
326.62	22.43
326.831	21.87
327.042	21.49
327.253	20.72
327.464	21.07
327.676	21.27
327.887	22.29
328.098	22.6
328.309	22.79
328.52	22.45
328.732	22.1
328.943	22.37
329.154	22.67
329.365	22.99
329.576	22.39
329.787	21.86
329.998	21.95
330.209	21.9
330.42	22.7
330.631	22.93
330.842	23.03
331.053	22.42
331.264	22.55
331.475	22.75
331.686	23.11
331.897	24.04
332.108	24.87
332.319	24.08
332.53	23.84
332.741	23.88
332.952	24.22
333.163	23.18
333.374	23.72
333.585	23.96
333.795	23.66
334.006	22.52
334.217	22.52
334.428	21.85
334.639	21.73
334.849	21.78
335.06	21.44
335.271	21.22
335.482	22.14
335.692	21.26
335.903	21.01
336.114	21.03
336.325	21.75
336.535	21.02
336.746	21.4
336.957	21.32
337.167	21.61
337.378	21.35
337.589	21.98
337.799	21.4
338.01	21.85
338.22	21.59
338.431	21.63
338.642	21.44
338.852	22.39
339.063	22.22
339.273	22.34
339.484	21.66
339.694	21.41
339.905	21.32
340.115	21.22
340.326	21.04
340.536	21.28
340.746	20.79
340.957	20.25
341.167	19.45
341.378	19.32
341.588	20.08
341.799	20.05
342.009	20.47
342.219	20.23
342.43	20.55
342.64	20.57
342.85	20.03
343.061	19.91
343.271	20.98
343.481	21.27
343.691	20.83
343.902	20.2
344.112	19.54
344.322	18.88
344.532	18.55
344.743	18.47
344.953	18.59
345.163	18.95
345.373	19.54
345.583	19.55
345.793	19.92
346.004	20.18
346.214	20.67
346.424	21.19
346.634	21.8
346.844	21.68
347.054	21.28
347.264	21.27
347.474	21.46
347.684	21.05
347.894	20.72
348.104	20.36
348.314	19.94
348.524	19.54
348.734	20.05
348.944	19.4
349.154	19.37
349.364	19.95
349.574	20.09
349.784	20.26
349.994	20.41
350.204	19.92
350.413	19.7
350.623	19.86
350.833	19.57
351.043	19.71
351.253	19.85
351.463	19.95
351.672	20.18
351.882	20.14
352.092	19.72
352.302	20.04
352.511	19.98
352.721	20.15
352.931	19.99
353.141	20.29
353.35	20.09
353.56	20.77
353.77	20.39
353.979	20.03
354.189	19.8
354.399	19.37
354.608	19.22
354.818	18.59
355.027	18.31
355.237	18.36
355.447	17.73
355.656	17.52
355.866	16.54
356.075	16.3
356.285	15.92
356.494	15.47
356.704	16.11
356.913	15.98
357.123	16.45
357.332	16.88
357.542	16.77
357.751	17.39
357.96	17.16
358.17	17.43
358.379	17.46
358.589	17.77
358.798	18.1
359.007	17.56
359.217	17.41
359.426	17.65
359.635	17.29
359.845	17.45
360.054	17.32
360.263	16.7
360.472	16.34
360.682	16.73
360.891	16.67
361.1	16.68
361.309	16.87
361.519	16.69
361.728	16.55
361.937	16.66
362.146	16.52
362.355	16.3
362.564	17.41
362.774	17.19
362.983	16.74
363.192	16.64
363.401	16.44
363.61	16.14
363.819	15.86
364.028	15.76
364.237	15.28
364.446	15.5
364.655	15.52
364.864	15.02
365.073	15.65
365.282	15.81
365.491	16.31
365.7	16.41
365.909	16.4
366.118	16.73
366.327	16.65
366.536	16.84
366.745	16.26
366.954	16.59
367.162	16.65
367.371	16.58
367.58	16.19
367.789	15.77
367.998	15.76
368.207	15.72
368.415	14.99
368.624	14.4
368.833	14.78
369.042	14.52
369.25	14.09
369.459	14.17
369.668	13.8
369.877	13.78
370.085	13.32
370.294	13.23
370.503	12.69
370.711	13.23
370.92	13.75
371.129	13.58
371.337	13.65
371.546	13.52
371.754	12.95
371.963	12.97
372.171	13.15
372.38	13.23
372.589	12.86
372.797	13.38
373.006	13.32
373.214	13.42
373.423	13.03
373.631	12.87
373.84	13.12
374.048	13.37
374.256	13.44
374.465	13.39
374.673	13.27
374.882	13.37
375.09	13.16
375.298	13.13
375.507	12.84
375.715	13
375.923	13.46
376.132	13.2
376.34	12.94
376.548	12.86
376.757	12.87
376.965	12.76
377.173	12.51
377.381	12.57
377.59	12.37
377.798	12.14
378.006	11.92
378.214	12
378.423	11.86
378.631	11.56
378.839	11.6
379.047	11.37
379.255	11.57
379.463	11.78
379.671	11.66
379.879	11.93
380.088	12.48
380.296	12.27
380.504	12.21
380.712	12.3
380.92	12.8
381.128	12.62
381.336	12.35
381.544	12.32
381.752	11.91
381.96	11.71
382.168	11.29
382.376	10.74
382.584	10.97
382.791	10.67
382.999	10.4
383.207	10.28
383.415	10.02
383.623	10.19
383.831	10.07
384.039	10.05
384.247	9.73
384.454	9.83
384.662	9.66
384.87	9.51
385.078	9.12
385.285	9.25
385.493	9.08
385.701	9.02
385.909	8.7
386.116	8.48
386.324	8.55
386.532	8.71
386.739	8.88
386.947	8.95
387.155	8.95
387.362	9.03
387.57	8.87
387.778	8.83
387.985	8.7
388.193	8.53
388.4	8.63
388.608	8.38
388.816	8.29
389.023	7.68
389.231	7.79
389.438	7.47
389.646	7.35
389.853	7.42
390.061	7.4
390.268	7.53
390.475	7.55
390.683	7.52
390.89	7.63
391.098	7.58
391.305	7.77
391.512	7.58
391.72	7.8
391.927	7.74
392.135	7.26
392.342	7.16
392.549	7.07
392.756	7.18
392.964	6.9
393.171	6.85
393.378	6.77
393.586	6.75
393.793	6.6
394	6.47
394.207	6.69
394.414	6.8
394.622	6.67
394.829	6.82
395.036	6.72
395.243	6.77
395.45	6.67
395.657	6.74
395.864	6.58
396.072	6.63
396.279	6.55
396.486	6.33
396.693	6.4
396.9	6.27
397.107	5.94
397.314	6.01
397.521	6.17
397.728	6.21
397.935	6.11
398.142	6.37
398.349	6.5
398.556	6.53
398.763	6.47
398.97	6.58
399.177	6.89
399.383	7.18
399.59	7.1
399.797	6.83
400.004	6.9
400.211	6.77
400.418	6.67
400.625	6.46
400.831	6.36
401.038	6.36
401.245	6.33
401.452	5.99
401.658	5.69
401.865	5.61
402.072	5.78
402.279	5.91
402.485	6.09
402.692	6.05
402.899	6.13
403.105	6.09
403.312	6.03
403.519	5.99
403.725	6.11
403.932	6.32
404.138	6.43
404.345	6.34
404.552	6.04
404.758	5.94
404.965	5.93
405.171	5.83
405.378	5.88
405.584	5.98
405.791	6.03
405.997	6.1
406.204	5.84
406.41	5.88
406.617	5.9
406.823	6.07
407.029	5.86
407.236	5.73
407.442	5.76
407.649	5.87
407.855	5.59
408.061	5.41
408.268	5.29
408.474	5.53
408.68	5.42
408.887	5.39
409.093	5.26
409.299	5.38
409.505	5.53
409.712	5.41
409.918	5.27
410.124	5.52
410.33	5.68
410.537	5.83
410.743	5.69
410.949	5.65
411.155	5.76
411.361	5.66
411.567	5.77
411.773	5.71
411.98	5.82
412.186	5.75
412.392	5.73
412.598	5.55
412.804	5.39
413.01	5.53
413.216	5.59
413.422	5.53
413.628	5.55
413.834	5.51
414.04	5.29
414.246	5.2
414.452	5.36
414.658	5.37
414.864	5.39
415.07	5.27
415.275	5.19
415.481	5.08
415.687	4.96
415.893	5
416.099	5.05
416.305	5.2
416.511	5.33
416.716	5.27
416.922	5.15
417.128	5.25
417.334	5.23
417.539	5.26
417.745	5.3
417.951	5.34
418.157	5.38
418.362	5.39
418.568	5.42
418.774	5.35
418.979	5.32
419.185	5.23
419.391	5.28
419.596	5.4
419.802	5.39
420.008	5.37
420.213	4.62
420.419	4.62
420.624	4.49
420.83	4.39
421.035	4.39
421.241	4.34
421.446	4.45
421.652	4.35
421.857	4.25
422.063	4.21
422.268	4.24
422.474	4.99
422.679	4.93
422.885	5.06
423.09	5.05
423.295	4.97
423.501	4.96
423.706	4.92
423.911	4.88
424.117	4.99
424.322	4.93
424.527	4.88
424.733	4.94
424.938	4.94
425.143	4.83
425.349	4.81
425.554	4.94
425.759	5.03
425.964	5.06
426.169	5.18
426.375	5.06
426.58	5.12
426.785	5.11
426.99	4.95
427.195	5.09
427.4	5.15
427.605	5.34
427.811	5.3
428.016	5.35
428.221	5.34
428.426	5.18
428.631	5.37
428.836	5.39
429.041	5.48
429.246	5.41
429.451	5.34
429.656	5.19
429.861	4.95
430.066	4.81
430.271	4.78
430.476	4.75
430.681	4.7
430.886	4.68
431.09	4.62
431.295	4.59
431.5	4.74
431.705	4.76
431.91	4.84
432.115	4.99
432.32	5.17
432.524	5.15
432.729	5.17
432.934	5.2
433.139	5.2
433.343	5.34
433.548	5.33
433.753	5.17
433.958	5.07
434.162	5.07
434.367	5.09
434.572	5.02
434.776	5.07
434.981	5.1
435.186	5.14
435.39	5
435.595	4.79
435.799	4.89
436.004	4.96
436.209	5.03
436.413	5.07
436.618	4.91
436.822	4.9
437.027	4.8
437.231	4.78
437.436	4.71
437.64	4.76
437.845	4.81
438.049	4.77
438.253	4.81
438.458	4.83
438.662	4.81
438.867	4.85
439.071	4.81
439.275	4.84
439.48	4.82
439.684	4.84
439.888	4.86
440.093	4.85
440.297	4.83
440.501	4.77
440.706	4.75
440.91	4.71
441.114	4.69
441.318	4.65
441.523	4.66
441.727	4.72
441.931	4.7
442.135	4.66
442.339	4.64
442.543	4.56
442.748	4.57
442.952	4.54
443.156	4.55
443.36	4.55
443.564	4.61
443.768	4.62
443.972	4.65
444.176	4.62
444.38	4.58
444.584	4.64
444.788	4.72
444.992	4.79
445.196	4.8
445.4	4.81
445.604	4.82
445.808	4.81
446.012	4.81
446.216	4.8
446.42	4.91
446.624	4.91
446.828	4.96
447.032	4.91
447.235	4.87
447.439	4.86
447.643	4.89
447.847	4.89
448.051	4.92
448.254	4.83
448.458	4.83
448.662	4.78
448.866	4.8
449.069	4.68
449.273	4.71
449.477	4.6
449.681	4.58
449.884	4.56
450.088	4.58
450.292	4.53
450.495	4.6
450.699	4.58
450.902	4.5
451.106	4.56
451.31	4.54
451.513	4.59
451.717	4.63
451.92	4.67
452.124	4.61
452.327	4.54
452.531	4.61
452.734	4.61
452.938	4.5
453.141	4.69
453.345	4.51
453.548	4.48
453.752	4.46
453.955	4.43
454.158	4.4
454.362	4.41
454.565	4.4
454.769	4.17
454.972	4.22
455.175	4.23
455.379	4.15
455.582	4.29
455.785	4.33
455.988	4.33
456.192	4.38
456.395	4.35
456.598	4.32
456.801	4.32
457.005	4.42
457.208	4.3
457.411	4.37
457.614	4.34
457.817	4.37
458.021	4.41
458.224	4.4
458.427	4.47
458.63	4.51
458.833	4.56
459.036	4.62
459.239	4.65
459.442	4.75
459.645	4.66
459.848	4.61
460.051	4.61
460.254	4.59
460.457	4.57
460.66	4.5
460.863	4.42
461.066	4.3
461.269	4.3
461.472	4.2
461.675	4.08
461.878	4.22
462.081	4.26
462.284	4.19
462.486	4.24
462.689	4.11
462.892	4.15
463.095	4.26
463.298	4.37
463.5	4.4
463.703	4.62
463.906	4.67
464.109	4.7
464.311	4.65
464.514	4.7
464.717	4.75
464.92	4.86
465.122	4.89
465.325	4.85
465.528	4.81
465.73	4.74
465.933	4.72
466.135	4.7
466.338	4.73
466.541	4.78
466.743	4.83
466.946	4.72
467.148	4.7
467.351	4.73
467.553	4.81
467.756	4.9
467.958	5.02
468.161	4.89
468.363	4.91
468.566	4.92
468.768	4.98
468.971	4.87
469.173	4.85
469.375	4.94
469.578	4.86
469.78	4.83
469.983	4.78
470.185	4.62
470.387	4.73
470.59	4.7
470.792	4.61
470.994	4.58
471.196	4.65
471.399	4.77
471.601	4.72
471.803	4.73
472.005	4.64
472.208	4.69
472.41	4.75
472.612	4.71
472.814	4.73
473.016	4.83
473.218	4.71
473.421	4.72
473.623	4.62
473.825	4.52
474.027	4.57
474.229	4.69
474.431	4.66
474.633	4.62
474.835	4.7
475.037	4.76
475.239	4.64
475.441	4.79
475.643	4.75
475.845	4.7
476.047	4.8
476.249	4.74
476.451	4.66
476.653	4.57
476.855	4.63
477.057	4.56
477.258	4.52
477.46	4.5
477.662	4.52
477.864	4.47
478.066	4.57
478.268	4.55
478.469	4.53
478.671	4.54
478.873	4.56
479.075	4.5
479.276	4.52
479.478	4.49
479.68	4.55
479.882	4.49
480.083	4.5
480.285	4.44
480.487	4.38
480.688	4.38
480.89	4.34
481.091	4.33
481.293	4.33
481.495	4.28
481.696	4.28
481.898	4.23
482.099	4.22
482.301	4.23
482.502	4.23
482.704	4.24
482.905	4.26
483.107	4.27
483.308	4.3
483.51	4.32
483.711	4.34
483.913	4.34
484.114	4.39
484.315	4.39
484.517	4.38
484.718	4.37
484.92	4.4
485.121	4.38
485.322	4.38
485.524	4.37
485.725	4.34
485.926	4.34
486.127	4.36
486.329	4.34
486.53	4.35
486.731	4.33
486.932	4.39
487.134	4.39
487.335	4.36
487.536	4.39
487.737	4.38
487.938	4.4
488.139	4.44
488.341	4.45
488.542	4.46
488.743	4.47
488.944	4.48
489.145	4.4
489.346	4.4
489.547	4.44
489.748	4.39
489.949	4.37
490.15	4.34
490.351	4.28
490.552	4.24
490.753	4.26
490.954	4.27
491.155	4.31
491.356	4.38
491.557	4.37
491.758	4.35
491.959	4.4
492.159	4.46
492.36	4.51
492.561	4.56
492.762	4.66
492.963	4.63
493.164	4.63
493.364	4.62
493.565	4.62
493.766	4.58
493.967	4.57
494.167	4.6
494.368	4.54
494.569	4.49
494.769	4.52
494.97	4.48
495.171	4.51
495.371	4.51
495.572	4.56
495.773	4.5
495.973	4.56
496.174	4.6
496.375	4.6
496.575	4.58
496.776	4.62
496.976	4.57
497.177	4.6
497.377	4.63
497.578	4.63
497.778	4.5
497.979	4.55
498.179	4.53
498.38	4.54
498.58	4.44
498.78	4.49
498.981	4.49
499.181	4.46
499.382	4.41
499.582	4.45
499.782	4.51
499.983	4.58
500.183	4.54
500.383	4.59
500.584	4.59
500.784	4.7
500.984	4.71
501.184	4.75
501.385	4.87
501.585	4.87
501.785	4.78
501.985	4.79
502.185	4.89
502.386	4.96
502.586	4.89
502.786	4.88
502.986	4.86
503.186	4.95
503.386	4.97
503.586	4.95
503.786	5.03
503.987	5.17
504.187	5.15
504.387	5.16
504.587	5.19
504.787	5.26
504.987	5.36
505.187	5.39
505.387	5.38
505.587	5.36
505.786	5.32
505.986	5.27
506.186	5.18
506.386	5.27
506.586	5.27
506.786	5.29
506.986	5.29
507.186	5.32
507.386	5.4
507.585	5.37
507.785	5.42
507.985	5.51
508.185	5.55
508.384	5.58
508.584	5.59
508.784	5.5
508.984	5.46
509.183	5.56
509.383	5.51
509.583	5.51
509.782	5.6
509.982	5.63
510.182	5.62
510.381	5.64
510.581	5.63
510.781	5.64
510.98	5.78
511.18	5.87
511.379	5.86
511.579	5.83
511.778	5.83
511.978	5.75
512.177	5.8
512.377	5.81
512.576	5.74
512.776	5.81
512.975	5.83
513.175	5.9
513.374	5.89
513.573	5.88
513.773	5.96
513.972	5.95
514.172	6.11
514.371	6.12
514.57	6.12
514.77	6.32
514.969	6.36
515.168	6.28
515.367	6.21
515.567	6.2
515.766	6.26
515.965	6.27
516.164	6.32
516.364	6.35
516.563	6.32
516.762	6.39
516.961	6.39
517.16	6.42
517.359	6.52
517.559	6.58
517.758	6.66
517.957	6.73
518.156	6.82
518.355	6.89
518.554	6.86
518.753	6.92
518.952	6.91
519.151	6.89
519.35	6.93
519.549	6.99
519.748	6.99
519.947	7.06
520.146	7.06
520.345	7.05
520.544	7.03
520.743	7.08
520.942	7.11
521.141	7.13
521.339	7.17
521.538	7.17
521.737	7.15
521.936	7.14
522.135	7.14
522.333	7.18
522.532	7.17
522.731	7.15
522.93	7.2
523.129	7.22
523.327	7.25
523.526	7.25
523.725	7.28
523.923	7.29
524.122	7.29
524.321	7.21
524.519	7.22
524.718	7.28
524.917	7.34
525.115	7.36
525.314	7.33
525.512	7.4
525.711	7.41
525.909	7.38
526.108	7.39
526.306	7.45
526.505	7.49
526.703	7.5
526.902	7.51
527.1	7.53
527.299	7.54
527.497	7.62
527.696	7.67
527.894	7.7
528.092	7.77
528.291	7.86
528.489	7.92
528.688	7.98
528.886	8.08
529.084	8.12
529.283	8.22
529.481	8.25
529.679	8.25
529.877	8.22
530.076	8.27
530.274	8.29
530.472	8.25
530.67	8.24
530.869	8.27
531.067	8.22
531.265	8.25
531.463	8.22
531.661	8.23
531.859	8.3
532.057	8.38
532.255	8.4
532.454	8.5
532.652	8.55
532.85	8.63
533.048	8.7
533.246	8.77
533.444	8.84
533.642	8.91
533.84	9.01
534.038	9.08
534.236	9.08
534.434	9.15
534.632	9.08
534.83	9.08
535.027	9.05
535.225	9.07
535.423	9.11
535.621	9.09
535.819	9.09
536.017	9.11
536.215	9.15
536.412	9.2
536.61	9.28
536.808	9.41
537.006	9.45
537.203	9.55
537.401	9.57
537.599	9.65
537.797	9.72
537.994	9.78
538.192	9.8
538.39	9.75
538.587	9.76
538.785	9.71
538.983	9.72
539.18	9.74
539.378	9.69
539.575	9.7
539.773	9.64
539.97	9.67
540.168	9.72
540.366	9.77
540.563	9.86
540.761	9.94
540.958	10
541.155	10.01
541.353	10.03
541.55	10.14
541.748	10.21
541.945	10.34
542.143	10.43
542.34	10.47
542.537	10.55
542.735	10.55
542.932	10.52
543.129	10.64
543.327	10.69
543.524	10.77
543.721	10.75
543.919	10.82
544.116	10.76
544.313	10.75
544.51	10.75
544.708	10.77
544.905	10.81
545.102	10.9
545.299	10.88
545.496	10.94
545.693	11.05
545.891	11.15
546.088	11.12
546.285	11.23
546.482	11.32
546.679	11.42
546.876	11.52
547.073	11.62
547.27	11.65
547.467	11.78
547.664	11.83
547.861	11.8
548.058	11.87
548.255	11.98
548.452	12.01
548.649	12.09
548.846	12.18
549.043	12.21
549.24	12.11
549.437	12.22
549.633	12.12
549.83	12.25
550.027	12.26
550.224	12.21
550.421	12.3
550.618	12.34
550.814	12.37
551.011	12.37
551.208	12.28
551.405	12.5
551.601	12.42
551.798	12.49
551.995	12.52
552.191	12.67
552.388	12.79
552.585	12.73
552.781	12.76
552.978	12.77
553.175	12.88
553.371	12.94
553.568	12.95
553.764	13.01
553.961	13.15
554.157	13.26
554.354	13.19
554.55	13.21
554.747	13.34
554.943	13.46
555.14	13.55
555.336	13.42
555.533	13.58
555.729	13.74
555.926	13.96
556.122	13.93
556.318	13.9
556.515	14.07
556.711	14.15
556.907	14.19
557.104	14.22
557.3	14.24
557.496	14.28
557.693	14.36
557.889	14.19
558.085	14.29
558.281	14.42
558.478	14.52
558.674	14.55
558.87	14.57
559.066	14.7
559.262	14.84
559.459	14.87
559.655	14.95
559.851	14.98
560.047	15.1
560.243	15.07
560.439	15.09
560.635	15.11
560.831	15.21
561.027	15.31
561.223	15.37
561.419	15.38
561.615	15.56
561.811	15.78
562.007	15.76
562.203	15.94
562.399	16.06
562.595	16.05
562.791	16.1
562.987	16.1
563.183	16.15
563.379	16.16
563.575	16.24
563.771	16.17
563.966	16.15
564.162	16.19
564.358	16.23
564.554	16.28
564.75	16.44
564.945	16.52
565.141	16.59
565.337	16.66
565.533	16.75
565.728	16.75
565.924	16.83
566.12	16.91
566.315	16.97
566.511	16.93
566.707	17.03
566.902	17.01
567.098	17.01
567.293	17
567.489	16.95
567.684	16.91
567.88	17.01
568.076	17.11
568.271	17.04
568.467	17.25
568.662	17.38
568.858	17.36
569.053	17.38
569.248	17.43
569.444	17.56
569.639	17.64
569.835	17.75
570.03	17.76
570.225	17.84
570.421	18.09
570.616	18.1
570.812	18.14
571.007	18.27
571.202	18.34
571.397	18.5
571.593	18.58
571.788	18.74
571.983	18.78
572.178	18.88
572.374	18.86
572.569	18.85
572.764	18.88
572.959	18.94
573.154	18.92
573.35	18.99
573.545	18.99
573.74	18.93
573.935	18.88
574.13	18.91
574.325	18.9
574.52	18.97
574.715	19
574.91	18.95
575.105	18.98
575.3	19.07
575.495	19.15
575.69	19.05
575.885	19.07
576.08	19.06
576.275	19.13
576.47	19.11
576.665	19.18
576.86	19.16
577.055	19.41
577.25	19.41
577.444	19.4
577.639	19.35
577.834	19.54
578.029	19.49
578.224	19.67
578.418	19.61
578.613	19.81
578.808	19.83
579.003	19.93
579.197	19.87
579.392	19.84
579.587	19.86
579.781	19.82
579.976	19.77
580.171	19.9
580.365	19.85
580.56	19.99
580.755	19.89
580.949	20.02
581.144	20.11
581.338	20
581.533	20.2
581.727	20.26
581.922	20.39
582.116	20.39
582.311	20.39
582.505	20.43
582.7	20.49
582.894	20.67
583.089	20.71
583.283	20.68
583.478	20.77
583.672	20.7
583.866	20.67
584.061	20.71
584.255	20.77
584.449	20.92
584.644	20.96
584.838	20.91
585.032	20.94
585.226	20.72
585.421	20.57
585.615	20.57
585.809	20.66
586.003	20.78
586.198	20.7
586.392	20.86
586.586	20.84
586.78	20.96
586.974	21.14
587.168	21.16
587.363	21.37
587.557	21.52
587.751	21.69
587.945	21.64
588.139	21.69
588.333	21.73
588.527	21.8
588.721	21.86
588.915	21.79
589.109	21.82
589.303	21.71
589.497	21.65
589.691	21.72
589.885	21.62
590.079	21.78
590.273	21.73
590.466	21.8
590.66	21.62
590.854	21.56
591.048	21.57
591.242	21.4
591.436	21.41
591.629	21.42
591.823	21.34
592.017	21.47
592.211	21.39
592.404	21.3
592.598	21.38
592.792	21.54
592.986	21.59
593.179	21.74
593.373	21.89
593.567	22.01
593.76	21.9
593.954	22.06
594.147	22
594.341	22.04
594.535	22.09
594.728	21.99
594.922	22
595.115	22.14
595.309	21.99
595.502	21.97
595.696	21.91
595.889	22.08
596.083	21.92
596.276	21.92
596.47	21.97
596.663	22.12
596.856	22.23
597.05	22.23
597.243	22.19
597.437	22.32
597.63	22.29
597.823	22.42
598.017	22.47
598.21	22.66
598.403	22.83
598.596	22.83
598.79	22.75
598.983	22.73
599.176	22.65
599.369	22.66
599.563	22.69
599.756	22.75
599.949	22.89
600.142	22.82
600.335	22.83
600.528	22.81
600.722	22.73
600.915	22.75
601.108	22.77
601.301	22.96
601.494	22.97
601.687	22.85
601.88	22.83
602.073	22.82
602.266	22.8
602.459	22.71
602.652	22.64
602.845	22.74
603.038	22.76
603.231	22.97
603.424	22.96
603.617	22.89
603.809	22.92
604.002	22.99
604.195	22.93
604.388	23.03
604.581	23.18
604.774	23.18
604.966	23.18
605.159	23.24
605.352	23.03
605.545	22.98
605.737	23.1
605.93	23.16
606.123	23.17
606.316	23.22
606.508	23.12
606.701	23.06
606.894	23.05
607.086	23.06
607.279	23.1
607.471	23.24
607.664	23.31
607.857	23.28
608.049	23.24
608.242	23.28
608.434	23.24
608.627	23.24
608.819	23.22
609.012	23.42
609.204	23.55
609.397	23.7
609.589	23.66
609.782	23.59
609.974	23.62
610.166	23.71
610.359	23.67
610.551	23.79
610.743	23.94
610.936	23.97
611.128	23.94
611.32	23.96
611.513	23.64
611.705	23.68
611.897	23.81
612.09	23.93
612.282	24.06
612.474	24.24
612.666	24.09
612.858	23.91
613.051	23.88
613.243	23.8
613.435	23.62
613.627	23.73
613.819	23.93
614.011	23.88
614.203	23.93
614.395	23.81
614.588	23.8
614.78	24.02
614.972	24.28
615.164	24.28
615.356	24.35
615.548	24.57
615.74	24.58
615.932	24.3
616.124	24.36
616.315	24.13
616.507	24.45
616.699	24.44
616.891	24.19
617.083	24.18
617.275	24.21
617.467	24.24
617.659	24.21
617.85	24.16
618.042	24.16
618.234	24.06
618.426	24.09
618.618	23.91
618.809	23.79
619.001	23.85
619.193	23.73
619.384	23.88
619.576	23.74
619.768	23.56
619.959	23.56
620.151	23.7
620.343	23.79
620.534	23.83
620.726	23.77
620.917	23.93
621.109	23.92
621.301	23.95
621.492	24.12
621.684	24.19
621.875	24.25
622.067	24.38
622.258	24.16
622.45	24.25
622.641	24.28
622.832	24.22
623.024	24.29
623.215	24.42
623.407	24.51
623.598	24.29
623.789	24.48
623.981	24.49
624.172	24.61
624.363	24.85
624.555	24.8
624.746	24.83
624.937	24.94
625.129	24.78
625.32	24.74
625.511	24.77
625.702	24.84
625.893	24.7
626.085	24.8
626.276	24.61
626.467	24.72
626.658	24.74
626.849	24.9
627.04	24.95
627.231	24.98
627.422	25.02
627.614	25.03
627.805	25.14
627.996	25.16
628.187	25.08
628.378	25.25
628.569	25.05
628.76	25.05
628.951	24.98
629.142	24.92
629.332	24.94
629.523	25.03
629.714	25.03
629.905	24.96
630.096	24.96
630.287	24.93
630.478	24.8
630.669	24.8
630.859	24.86
631.05	24.87
631.241	24.97
631.432	25.07
631.623	25.11
631.813	24.94
632.004	24.75
632.195	24.76
632.385	24.66
632.576	24.86
632.767	24.92
632.957	24.8
633.148	24.77
633.339	24.74
633.529	24.7
633.72	24.49
633.91	24.65
634.101	24.8
634.292	24.79
634.482	25.05
634.673	24.82
634.863	24.75
635.054	24.93
635.244	24.83
635.435	24.92
635.625	24.78
635.815	24.9
636.006	25.19
636.196	25.13
636.387	25.22
636.577	25.18
636.767	25.25
636.958	25.41
637.148	25.39
637.338	25.46
637.529	25.35
637.719	25.33
637.909	25.26
638.099	24.91
638.29	25.11
638.48	25.15
638.67	25.25
638.86	25.34
639.05	25.08
639.241	25.1
639.431	24.92
639.621	24.93
639.811	24.97
640.001	25.03
640.191	25.18
640.381	25.04
640.571	25.01
640.761	24.9
640.951	24.79
641.141	25.14
641.331	25.22
641.521	25.61
641.711	25.53
641.901	25.68
642.091	25.66
642.281	25.62
642.471	25.72
642.661	25.74
642.851	26.02
643.041	26.13
643.231	26.1
643.42	25.94
643.61	25.82
643.8	25.87
643.99	25.89
644.18	25.89
644.369	25.91
644.559	25.84
644.749	25.72
644.939	25.45
645.128	25.5
645.318	25.48
645.508	25.67
645.697	25.66
645.887	25.88
646.076	25.98
646.266	25.92
646.456	25.68
646.645	25.85
646.835	25.92
647.024	25.96
647.214	26.07
647.403	26.03
647.593	25.96
647.782	25.94
647.972	25.71
648.161	25.7
648.351	25.94
648.54	25.99
648.73	26
648.919	26.18
649.108	26.23
649.298	26.25
649.487	26.22
649.677	26.04
649.866	26.08
650.055	26
650.244	25.74
650.434	25.69
650.623	25.83
650.812	25.69
651.002	25.72
651.191	25.75
651.38	25.72
651.569	25.94
651.758	25.94
651.947	26
652.137	26.15
652.326	26.19
652.515	26.31
652.704	26.3
652.893	26.33
653.082	26
653.271	26.02
653.46	25.83
653.649	25.58
653.838	25.78
654.027	25.8
654.216	26.07
654.405	26.37
654.594	26.41
654.783	26.49
654.972	26.43
655.161	26.52
655.35	26.55
655.539	26.84
655.728	26.91
655.916	26.85
656.105	26.57
656.294	26.49
656.483	26.31
656.672	26.11
656.86	26.18
657.049	26.3
657.238	26.31
657.427	26.04
657.615	25.94
657.804	25.85
657.993	25.95
658.181	26.07
658.37	25.9
658.559	25.9
658.747	25.89
658.936	25.8
659.125	25.98
659.313	26.1
659.502	26.36
659.69	26.38
659.879	26.55
660.067	26.69
660.256	26.85
660.444	27.04
660.633	27.26
660.821	27.41
661.01	27.56
661.198	27.38
661.387	27.59
661.575	27.5
661.763	27.52
661.952	27.51
662.14	27.25
662.328	26.97
662.517	26.9
662.705	26.69
662.893	26.49
663.082	26.4
663.27	26.29
663.458	26.1
663.646	26.32
663.834	26.33
664.023	26.11
664.211	26.11
664.399	26.55
664.587	26.5
664.775	26.49
664.963	26.68
665.152	26.65
665.34	26.78
665.528	26.63
665.716	26.13
665.904	26.16
666.092	26.32
666.28	26.6
666.468	26.27
666.656	26.43
666.844	26.52
667.032	26.62
667.22	26.62
667.408	26.49
667.596	26.63
667.784	26.91
667.971	27.05
668.159	26.92
668.347	26.74
668.535	26.62
668.723	26.55
668.911	26.54
669.098	26.27
669.286	26.33
669.474	26.23
669.662	26.43
669.849	26.73
670.037	26.43
670.225	26.81
670.413	26.7
670.6	26.98
670.788	26.94
670.976	26.83
671.163	27.09
671.351	26.99
671.538	27.41
671.726	27.15
671.913	26.77
672.101	26.76
672.289	26.65
672.476	26.56
672.664	26.46
672.851	26.52
673.039	26.81
673.226	26.8
673.413	27.1
673.601	26.73
673.788	26.59
673.976	26.68
674.163	26.51
674.35	26.46
674.538	26.54
674.725	26.66
674.912	26.59
675.1	26.6
675.287	26.4
675.474	26.19
675.662	26.36
675.849	26.54
676.036	26.64
676.223	27.02
676.411	27.03
676.598	26.95
676.785	26.85
676.972	26.88
677.159	26.69
677.346	26.73
677.533	26.81
677.721	26.81
677.908	26.9
678.095	26.62
678.282	26.46
678.469	26.52
678.656	26.8
678.843	26.95
679.03	27.01
679.217	27.02
679.404	27.2
679.591	27.19
679.778	27.13
679.964	26.87
680.151	27.1
680.338	27.33
680.525	27.37
680.712	27.33
680.899	27.14
681.086	27.1
681.272	27.21
681.459	27.09
681.646	27.08
681.833	27.05
682.02	27.04
682.206	26.97
682.393	26.93
682.58	26.83
682.766	26.77
682.953	26.83
683.14	27.09
683.326	26.95
683.513	26.96
683.7	27.11
683.886	27.18
684.073	27.42
684.259	27.44
684.446	27.16
684.632	27.23
684.819	27.54
685.005	27.79
685.192	27.46
685.378	27.75
685.565	27.75
685.751	27.63
685.938	27.97
686.124	27.94
686.31	27.95
686.497	27.81
686.683	27.81
686.87	27.75
687.056	27.38
687.242	27.45
687.429	27.2
687.615	27.37
687.801	27.31
687.987	27.02
688.174	27.09
688.36	27.18
688.546	27.51
688.732	27.24
688.918	27.23
689.105	27.56
689.291	27.57
689.477	27.65
689.663	27.27
689.849	27.39
690.035	27.39
690.221	27.53
690.407	27.58
690.593	27.77
690.779	28.2
690.965	28.13
691.151	28.24
691.337	28.28
691.523	28.53
691.709	28.73
691.895	28.64
692.081	28.68
692.267	28.81
692.453	28.72
692.639	28.83
692.825	28.48
693.011	28.49
693.196	28.06
693.382	28.03
693.568	27.89
693.754	27.83
693.94	28.12
694.125	28.23
694.311	28.27
694.497	28.5
694.682	28.54
694.868	28.73
695.054	28.41
695.239	28.68
695.425	28.73
695.611	28.65
695.796	28.84
695.982	28.6
696.168	28.32
696.353	28.35
696.539	28.14
696.724	28.03
696.91	27.78
697.095	27.74
697.281	27.4
697.466	27.35
697.652	27.31
697.837	27.37
698.023	27.28
698.208	27.41
698.393	27.05
698.579	27.04
698.764	27.06
698.949	27.17
699.135	27.28
699.32	27.57
699.505	27.43
699.691	27.56
699.876	27.7
700.061	27.72
700.246	27.57
700.432	27.95
700.617	28.06
700.802	27.98
700.987	28.03
701.172	28.06
701.358	28.05
701.543	28.22
701.728	28.12
701.913	27.28
702.098	27.85
702.283	28.2
702.468	28.03
702.653	27.87
702.838	27.74
703.023	28.05
703.208	28.45
703.393	28.53
703.578	28.43
703.763	28.52
703.948	29.13
704.133	28.48
704.318	28.19
704.503	27.83
704.688	27.78
704.873	28
705.057	28
705.242	27.79
705.427	27.58
705.612	27.76
705.797	28.05
705.981	28.04
706.166	28.59
706.351	28.63
706.536	28.89
706.72	28.76
706.905	28.43
707.09	28.2
707.274	28.16
707.459	28.31
707.644	28.54
707.828	28.16
708.013	27.87
708.197	27.8
708.382	27.72
708.567	27.67
708.751	27.71
708.936	27.75
709.12	27.67
709.305	27.7
709.489	27.63
709.673	27.46
709.858	27.34
710.042	27.44
710.227	27.11
710.411	27.52
710.596	27.46
710.78	27.66
710.964	27.77
711.149	27.66
711.333	27.54
711.517	27.8
711.702	27.93
711.886	28.1
712.07	28.26
712.254	28.37
712.438	28.1
712.623	28.1
712.807	27.97
712.991	28.13
713.175	28.26
713.359	28.34
713.544	28.11
713.728	28.01
713.912	27.94
714.096	27.93
714.28	27.82
714.464	27.92
714.648	28.05
714.832	28.1
715.016	28
715.2	28.09
715.384	27.99
715.568	28.28
715.752	28.43
715.936	28.7
716.12	28.75
716.304	28.81
716.488	28.85
716.671	28.69
716.855	28.8
717.039	28.64
717.223	28.39
717.407	28.31
717.59	28.25
717.774	27.97
717.958	27.73
718.142	27.82
718.325	27.9
718.509	27.96
718.693	28.06
718.877	27.78
719.06	28.08
719.244	28.27
719.428	28.96
719.611	28.67
719.795	28.76
719.978	29.01
720.162	29.02
720.345	28.98
720.529	29
720.713	29.21
720.896	29.42
721.08	29.06
721.263	29.1
721.446	28.9
721.63	29.36
721.813	29.64
721.997	29.53
722.18	29.17
722.364	28.93
722.547	28.92
722.73	29.1
722.914	28.81
723.097	28.86
723.28	28.49
723.464	28.26
723.647	28.14
723.83	27.81
724.013	27.59
724.197	27.71
724.38	28.21
724.563	28.08
724.746	28.03
724.929	28.29
725.112	28.41
725.296	29.01
725.479	29.21
725.662	29.33
725.845	29.3
726.028	29.19
726.211	29.39
726.394	29.18
726.577	29.01
726.76	28.58
726.943	28.63
727.126	28.84
727.309	28.72
727.492	28.44
727.675	28.39
727.858	28.58
728.041	28.86
728.224	28.97
728.407	29.01
728.589	28.91
728.772	29.64
728.955	29.74
729.138	29.73
729.321	29.9
729.503	29.86
729.686	29.97
729.869	29.67
730.052	29.43
730.234	29.35
730.417	29.18
730.6	29.27
730.782	28.76
730.965	28.61
731.148	28.55
731.33	28.19
731.513	28.71
731.695	28.04
731.878	28.25
732.061	28.47
732.243	28.03
732.426	28.01
732.608	28.51
732.791	28.69
732.973	28.42
733.156	28.51
733.338	28.69
733.52	27.99
733.703	28.21
733.885	28.26
734.068	28.12
734.25	29.11
734.432	29.47
734.615	29.19
734.797	29.09
734.979	29.28
735.162	29.29
735.344	29.06
735.526	29.59
735.708	29.8
735.891	29.61
736.073	29.73
736.255	28.96
736.437	28.79
736.619	28.21
736.802	28.11
736.984	27.92
737.166	27.59
737.348	28.06
737.53	27.32
737.712	26.99
737.894	27.15
738.076	26.91
738.258	26.94
738.44	26.76
738.622	26.68
738.804	26.29
738.986	27.05
739.168	27.03
739.35	26.86
739.532	27.17
739.714	27.87
739.896	28.45
740.078	28.91
740.259	28.87
740.441	29.18
740.623	29.64
740.805	30.08
740.987	29.93
741.168	29.81
741.35	29.69
741.532	29.94
741.714	29.82
741.895	29.13
742.077	28.3
742.259	28.59
742.44	28.3
742.622	28.58
742.804	28.91
742.985	28.67
743.167	29.07
743.348	29.27
743.53	29.21
743.711	28.58
743.893	29.06
744.075	29.6
744.256	29.81
744.438	29.64
744.619	29.67
744.8	29.24
744.982	29.78
745.163	29.45
745.345	29.75
745.526	29.95
745.707	30.08
745.889	29.5
746.07	30.23
746.252	29.79
746.433	29.71
746.614	30.22
746.795	30.89
746.977	30.29
747.158	29.98
747.339	29.98
747.52	29.35
747.702	29.62
747.883	29.89
748.064	29.66
748.245	30.06
748.426	30.42
748.607	29.88
748.788	29.81
748.97	30
749.151	30.59
749.332	30.65
749.513	31.14
749.694	30.58
749.875	29.8
750.056	28.85
750.237	28.68
750.418	29.03
750.599	28.78
750.78	28.07
750.96	28.1
751.141	28.08
751.322	27.58
751.503	27.78
751.684	28.33
751.865	29.23
752.046	29.67
752.226	29.13
752.407	28.42
752.588	28.8
752.769	28.76
752.949	28.69
753.13	29.4
753.311	28.76
753.492	29.03
753.672	28.75
753.853	28.44
754.034	28.49
754.214	28.51
754.395	28.89
754.575	28.63
754.756	28.74
754.937	28.97
755.117	28.03
755.298	28.28
755.478	27.88
755.659	28.74
755.839	28.64
756.02	28.99
756.2	29.3
756.381	29.12
756.561	29.45
756.741	29.31
756.922	28.91
757.102	28.67
757.283	28.79
757.463	28.65
757.643	27.36
757.823	27.88
758.004	27.65
758.184	27.78
758.364	28.17
758.545	27.88
758.725	28.27
758.905	28.14
759.085	28.32
759.265	28.7
759.446	29.21
759.626	30.35
759.806	29.99
759.986	29.95
760.166	29.74
760.346	29.12
760.526	29.22
760.706	29.26
760.886	28.93
761.066	29.96
761.246	29.57
761.426	28.87
761.606	28.49
761.786	28.64
761.966	28.3
762.146	28.03
762.326	27.81
762.506	27.82
762.686	27.46
762.866	27.79
763.046	26.96
763.225	26.82
763.405	26.73
763.585	26.69
763.765	26.52
763.945	26.98
764.124	27.12
764.304	27.62
764.484	27.66
764.664	27.82
764.843	28.18
765.023	28.43
765.203	28.58
765.382	28.99
765.562	29.23
765.741	29.55
765.921	29.1
766.101	29.18
766.28	29.19
766.46	29.02
766.639	29.27
766.819	28.55
766.998	28.14
767.178	28.23
767.357	28
767.537	27.79
767.716	27.73
767.896	27.83
768.075	27.82
768.254	27.78
768.434	27.94
768.613	27.48
768.792	27.56
768.972	27.54
769.151	27
769.33	27.13
769.51	27.12
769.689	26.72
769.868	26.59
770.047	27.27
770.226	27.4
770.406	27.07
770.585	27.32
770.764	27.49
770.943	28.79
771.122	29.43
771.301	29.13
771.48	29.36
771.66	29.63
771.839	29.5
772.018	29.15
772.197	28.54
772.376	27.89
772.555	28.06
772.734	28.09
772.913	27.52
773.092	27.95
773.271	27.39
773.449	26.85
773.628	26.76
773.807	27.84
773.986	27.33
774.165	28.28
774.344	29.18
774.523	29.52
774.701	29.8
774.88	29.95
775.059	30.02
775.238	31
775.417	31.61
775.595	30.94
775.774	30.32
775.953	30.89
776.131	30.31
776.31	29.83
776.489	29.16
776.667	29.37
776.846	28.91
777.025	28.33
777.203	27.88
777.382	27.86
777.56	29.03
777.739	28.53
777.917	28.25
778.096	28.27
778.274	27.7
778.453	28.3
778.631	27.75
778.81	27.8
778.988	27.75
779.166	28.4
779.345	27.49
779.523	26.8
779.702	27.79
779.88	28.19
780.058	28.94
780.237	30.37
780.415	30.81
780.593	30.98
780.771	31.2
780.95	31.4
781.128	31
781.306	32.28
781.484	32.05
781.662	31.03
781.841	31.4
782.019	30.64
782.197	29.48
782.375	29.07
782.553	28.87
782.731	29.09
782.909	29.06
783.087	29.02
783.265	27.48
783.443	27.09
783.621	27.13
783.799	26.02
783.977	26.03
784.155	26.92
784.333	26.63
784.511	27.64
784.689	27.19
784.867	26.92
785.045	27.41
785.223	28.08
785.4	28.22
785.578	29.32
785.756	30.1
785.934	29.32
786.112	29.53
786.289	29.18
786.467	28.84
786.645	29.34
786.823	29.2
787	28.97
787.178	28.87
787.356	29.37
787.533	29.27
787.711	28.97
787.889	29.69
788.066	29.67
788.244	30.04
788.421	29.83
788.599	29.3
788.776	29.67
788.954	30.22
789.131	30.72
789.309	31.44
789.486	31.51
789.664	31.91
789.841	31.67
790.019	31.37
790.196	31.46
790.373	31.47
790.551	31.57
790.728	30.97
790.906	29.65
791.083	29.02
791.26	28.93
791.437	27.68
791.615	28.33
791.792	29.08
791.969	29.91
792.146	29.95
792.324	29.94
792.501	30.53
792.678	31.17
792.855	31.85
793.032	32.33
793.209	32.57
793.387	32.42
793.564	31.98
793.741	31.44
793.918	30.39
794.095	31.11
794.272	30.91
794.449	30.74
794.626	30.67
794.803	32.03
794.98	32.1
795.157	30.79
795.334	31.69
795.511	31.39
795.688	30.97
795.864	30.88
796.041	30.61
796.218	30.31
796.395	29.53
796.572	29.84
796.749	27.5
796.925	26.93
797.102	27.95
797.279	27.83
797.456	27.6
797.632	28.17
797.809	27.95
797.986	26.58
798.162	26.92
798.339	28.65
798.516	28.67
798.692	29.36
798.869	29.69
799.046	28.76
799.222	29.36
799.399	28.69
799.575	28.26
799.752	28.69
799.928	29.61
800.105	28.74
800.281	28.03
800.458	28.44
800.634	29.05
800.811	29.12
800.987	30.09
801.163	30.04
801.34	30.88
801.516	31.46
801.692	31.74
801.869	31.89
802.045	32.13
802.221	30.92
802.398	30.51
802.574	29.97
802.75	30.37
802.926	29.86
803.103	29.07
803.279	28.48
803.455	27.99
803.631	27.88
803.807	26.93
803.983	27.25
804.16	28.57
804.336	27.65
804.512	27.96
804.688	27.69
804.864	27.99
805.04	28.12
805.216	29.13
805.392	29.89
805.568	31.1
805.744	30.48
805.92	30.95
806.096	30.07
806.272	30.97
806.448	30.59
806.623	31.41
806.799	30.71
806.975	31.43
807.151	30.45
807.327	29.3
807.503	29.26
807.678	31.1
807.854	31.09
808.03	31.5
808.206	31.65
808.381	32.06
808.557	31.59
808.733	32.81
808.908	32.43
809.084	32.58
809.26	33.65
809.435	32.81
809.611	32.45
809.787	31.16
809.962	30.44
810.138	30.03
810.313	30.45
810.489	29.95
810.664	28.96
810.84	29.15
811.015	30.14
811.191	29.07
811.366	29.02
811.542	28.44
811.717	29.07
811.892	28.81
812.068	28.34
812.243	28.36
812.419	28.13
812.594	27.55
812.769	27.23
812.944	27.25
813.12	28.47
813.295	28.26
813.47	27.7
813.645	29.64
813.821	30.46
813.996	31.15
814.171	32.11
814.346	30.44
814.521	31.09
814.697	30.83
814.872	30.13
815.047	29.55
815.222	30.02
815.397	30.5
815.572	29.51
815.747	30
815.922	28.57
816.097	28.09
816.272	29.11
816.447	29.09
816.622	29.41
816.797	30.16
816.972	30.47
817.147	29.88
817.322	31.25
817.496	30.75
817.671	30.16
817.846	31.55
818.021	31.12
818.196	31.23
818.371	31.71
818.545	31.97
818.72	30.85
818.895	30.38
819.069	31.09
819.244	30.43
819.419	30.65
819.594	30.73
819.768	29.84
819.943	29.69
820.117	29.52
820.292	29.34
820.467	28.79
820.641	29.38
820.816	29.03
820.99	28.81
821.165	28.88
821.339	28.95
821.514	28.88
821.688	28.81
821.863	28.67
822.037	28.79
822.212	28.73
822.386	28.72
822.56	28.49
822.735	28.96
822.909	28.8
823.084	28.51
823.258	28.39
823.432	28.22
823.606	28.32
823.781	28.6
823.955	28.7
824.129	28.84
824.303	28.95
824.478	29.25
824.652	28.78
824.826	28.89
825	29.4
825.174	29.79
825.348	30.01
825.523	30.05
825.697	29.71
825.871	29.94
826.045	29.69
826.219	29.88
826.393	29.81
826.567	30.16
826.741	30.48
826.915	30.04
827.089	29.49
827.263	29.38
827.437	29.92
827.611	30.11
827.784	29.93
827.958	30.17
828.132	29.62
828.306	29.54
828.48	29.54
828.654	29.02
828.827	29.49
829.001	29.95
829.175	30.4
829.349	30.64
829.522	30.55
829.696	30.06
829.87	29.92
830.044	30.75
830.217	30.01
830.391	28.94
830.565	29.91
830.738	30.4
830.912	30.65
831.085	29.92
831.259	28.67
831.432	28.99
831.606	28.98
831.779	30.15
831.953	30.9
832.126	30.82
832.3	30.68
832.473	30.3
832.647	29.95
832.82	29.29
832.994	29.4
833.167	29.41
833.34	28.72
833.514	29.15
833.687	28.91
833.86	28.31
834.034	28.58
834.207	28.69
834.38	28.45
834.553	28.14
834.727	28.13
834.9	28.74
835.073	29.58
835.246	30.1
835.419	29.35
835.593	28.86
835.766	29.27
835.939	30.09
836.112	31.48
836.285	31.73
836.458	32.52
836.631	32.62
836.804	32.36
836.977	31.9
837.15	31.38
837.323	33.36
837.496	33.35
837.669	32.58
837.842	31.1
838.015	29.3
838.188	30.9
838.361	31.11
838.533	32.39
838.706	32.95
838.879	32.11
839.052	33.41
839.225	32.24
839.398	31.65
839.57	32.8
839.743	33.38
839.916	34.03
840.088	32.29
840.261	31.45
840.434	29.45
840.607	29.64
840.779	30.62
840.952	31.2
841.124	31.43
841.297	32.53
841.47	31.36
841.642	30.68
841.815	31.68
841.987	32.59
842.16	33.52
842.332	35.5
842.505	33.88
842.677	33.26
842.85	34.14
843.022	34.91
843.194	34.41
843.367	36.13
843.539	38.58
843.712	36.47
843.884	35.08
844.056	33.01
844.229	35.21
844.401	37.72
844.573	36.12
844.745	35.89
844.918	33.86
845.09	35.71
845.262	36.47
845.434	35.81
845.606	34
845.779	36.61
845.951	35.92
846.123	33.38
846.295	33.7
846.467	35.97
846.639	33.92
846.811	31.11
846.983	30.27
847.155	28.06
847.327	26.95
847.499	31.13
847.671	26.99
847.843	28.71
848.015	30.7
848.187	28.54
848.359	29.11
848.531	29.34
848.703	31.07
848.875	32.18
849.047	32.93
849.218	32.59
849.39	31.48
849.562	33.72
849.734	34.58
849.905	34.79
850.077	34.1
850.249	32.43
850.421	30.63
850.592	32.32
850.764	28.57
850.936	31.16
851.107	35.21
851.279	33.59
851.451	34.6
851.622	36.91
851.794	33.27
851.965	37.02
852.137	40.24
852.308	41.9
852.48	43.32
852.651	45.44
852.823	42.5
852.994	40.18
853.166	41.5
853.337	41.54
853.509	39.19
853.68	37.55
853.851	33.37
854.023	30.28
854.194	32.44
854.365	30.74
854.537	32.63
854.708	33.8
854.879	34.01
855.05	36.83
855.222	35.53
855.393	35.11
855.564	38.7
855.735	41.55
855.906	44.18
856.078	42.25
856.249	43.13
856.42	40.99
856.591	40.32
856.762	37.34
856.933	37.93
857.104	38.2
857.275	37.54
857.446	37.51
857.617	36.95
857.788	34.82
857.959	36.39
858.13	37.1
858.301	36.89
858.472	36.93
858.643	38.67
858.814	36.39
858.985	36.58
859.155	36.02
859.326	38.86
859.497	40.34
859.668	37.51
859.839	35.32
860.009	36.92
860.18	37.3
860.351	40.56
860.522	42.32
860.692	43.43
860.863	41.75
861.034	39.24
861.204	36.89
861.375	33.85
861.546	37.16
861.716	36.75
861.887	37.34
862.057	36.73
862.228	30.46
862.398	31.38
862.569	32.4
862.739	33.62
862.91	35.18
863.08	34.02
863.251	31.84
863.421	30.38
863.592	32.71
863.762	35.34
863.932	37.92
864.103	39.96
864.273	38.9
864.443	38.15
864.614	41.58
864.784	39.44
864.954	36.02
865.125	39.18
865.295	42.78
865.465	43.07
865.635	36.67
865.805	31.39
865.976	33.97
866.146	33.01
866.316	33.01
866.486	28.19
866.656	31.79
866.826	33.84
866.996	30.52
867.166	30.18
867.336	29.28
867.506	29.27
867.676	31.62
867.846	30.69
868.016	29.08
868.186	27.54
868.356	29.02
868.526	28.52
868.696	30.56
868.866	34.99
869.036	32.57
869.206	33.28
869.376	35.61
869.545	37.37
869.715	42
869.885	43.31
870.055	44.89
870.224	46.98
870.394	45.21
870.564	46.56
870.734	44.81
870.903	47.23
871.073	40.94
871.243	37.38
871.412	39.28
871.582	34.08
871.751	34.61
871.921	34.17
872.091	33.52
872.26	32.9
872.43	29.77
872.599	34.6
872.769	34.82
872.938	40.62
873.108	40.38
873.277	37.69
873.446	35.39
873.616	33.91
873.785	33.3
873.955	31.03
874.124	33.53
874.293	34.82
874.463	33.17
874.632	30.82
874.801	27.64
874.971	30.74
875.14	26.99
875.309	23.59
875.478	27.08
875.647	27.44
875.817	31.93
875.986	34.59
876.155	32.98
876.324	30.2
876.493	31.44
876.662	33.1
876.831	34.12
877	34.76
877.17	42.39
877.339	39.94
877.508	39.45
877.677	36.54
877.846	35.73
878.015	36.15
878.184	35.22
878.352	39.21
878.521	37.96
878.69	33.66
878.859	35.67
879.028	31.6
879.197	28.72
879.366	28.62
879.534	28.05
879.703	26.47
879.872	27.2
880.041	27.89
880.21	25.51
880.378	26.8
880.547	27.2
880.716	26.64
880.884	29.39
881.053	30.77
881.222	30.87
881.39	31.18
881.559	31.14
881.727	31.4
881.896	32.51
882.065	32.52
882.233	32.04
882.402	31.88
882.57	32.15
882.739	31.96
882.907	31.99
883.076	31.9
883.244	31.96
883.412	32.12
883.581	31.91
883.749	31.38
883.918	31.47
884.086	32.05
884.254	32.6
884.423	32.78
884.591	32.39
884.759	32.42
884.927	32.33
885.096	32.49
885.264	33.39
885.432	32.08
885.6	30.51
885.769	30.65
885.937	30.45
886.105	30.84
886.273	30.81
886.441	29.03
886.609	28.64
886.777	28.45
886.945	28.69
887.113	28.24
887.281	31.41
887.449	35.9
887.617	36.78
887.785	37.67
887.953	37.4
888.121	35.32
888.289	34.11
888.457	35.27
888.625	37.32
888.793	35.99
888.961	35.07
889.129	34.61
889.296	29.68
889.464	28.37
889.632	25.78
889.8	23.97
889.967	26.56
890.135	33.3
