Data from 2938446_Reflection_2.txt Node
Date: Fri Jun 19 18:08:37 EDT 2015
User: robert
Spectrometer: USB4E03002
Autoset integration time: false
Trigger mode: 4
Integration Time (sec): 1.000000E-1
Scans to average: 10
Electric dark correction enabled: true
Nonlinearity correction enabled: false
Boxcar width: 5
Stray light correction enabled: false
XAxis mode: Wavelengths
Stop averaging: false
Number of Pixels in Spectrum: 3648
>>>>>Begin Spectral Data<<<<<
177.575	55.62
177.794	168.25
178.014	487.46
178.233	-962.83
178.452	-296.79
178.672	81.29
178.891	-45.26
179.11	-16.13
179.33	-284.29
179.549	46.69
179.768	-309.62
179.987	-137.63
180.207	2455.17
180.426	-3517.14
180.645	-777.33
180.864	-322.22
181.084	-150.96
181.303	-206.13
181.522	-245.76
181.741	-197.26
181.96	-280.27
182.179	-339.45
182.398	-655.88
182.618	-231.04
182.837	-337.12
183.056	-428.93
183.275	26446
183.494	1032.02
183.713	-5410.76
183.932	3073.64
184.151	736.6
184.37	2871.91
184.589	479.94
184.808	302.96
185.027	251.85
185.246	236.58
185.465	343.85
185.684	1415.94
185.903	1452.4
186.122	411.12
186.341	657.74
186.56	939.33
186.779	372.89
186.998	350.44
187.216	-421.08
187.435	-149.97
187.654	-126.39
187.873	-1238.12
188.092	6667.65
188.311	2113.77
188.53	-2032.35
188.748	-544.86
188.967	-300.28
189.186	-526.63
189.405	-487.95
189.623	-2976.41
189.842	868.93
190.061	2194.12
190.28	-224.89
190.498	-371.3
190.717	-32946.67
190.936	-576.99
191.154	-392.33
191.373	-559.63
191.592	35.61
191.81	-4.05
192.029	-30.05
192.248	-71.26
192.466	-80.68
192.685	-117.94
192.904	-127.68
193.122	-95.17
193.341	-119.49
193.559	-193.39
193.778	-120.77
193.996	-330.49
194.215	-179.64
194.433	-128.9
194.652	-142.91
194.87	-89.84
195.089	-78.91
195.307	-26.87
195.526	-15.32
195.744	-29.24
195.963	-62.59
196.181	-81.63
196.399	-127.85
196.618	-929.54
196.836	1328.68
197.055	1051.61
197.273	1204.27
197.491	290.71
197.71	322.75
197.928	228.71
198.146	509.9
198.365	1530.7
198.583	254.88
198.801	215.36
199.019	1047.43
199.238	792.16
199.456	3937.22
199.674	942.05
199.892	-417.24
200.111	480.82
200.329	-2135.25
200.547	626.93
200.765	1238.77
200.983	-557.93
201.202	-204.06
201.42	-283.54
201.638	-345.33
201.856	-189.26
202.074	-260.51
202.292	-296.16
202.51	-120.24
202.728	-408.53
202.946	-146.87
203.165	-335.36
203.383	-364.99
203.601	-578.48
203.819	-896.11
204.037	-282.11
204.255	-553.92
204.473	1731.1
204.691	1114.31
204.909	-3300.45
205.127	-347.08
205.345	-243.94
205.562	-158.47
205.78	-356.15
205.998	-118.42
206.216	-16.89
206.434	-207.43
206.652	-95.84
206.87	-29.05
207.088	-40.93
207.306	-50.25
207.523	-43.51
207.741	-30.78
207.959	-330.57
208.177	-122.28
208.395	-925.68
208.612	-195.39
208.83	-118.77
209.048	-115.78
209.266	-184.16
209.483	-35.68
209.701	-117.25
209.919	-99.04
210.136	-178.28
210.354	-108.19
210.572	-107.95
210.79	-37.61
211.007	-149.1
211.225	-33.46
211.442	-35.01
211.66	-15.14
211.878	-214.19
212.095	-35.76
212.313	-43.09
212.53	-47.45
212.748	-13.7
212.966	-0.62
213.183	-26.28
213.401	0.33
213.618	-17.26
213.836	-17.12
214.053	-3.19
214.271	24.62
214.488	16.92
214.705	5.65
214.923	0.16
215.14	-5.48
215.358	-12.87
215.575	-6.54
215.793	-28.83
216.01	-25.69
216.227	-32.69
216.445	-61.54
216.662	-87.92
216.879	-197.16
217.097	-82.79
217.314	-98.18
217.531	-112.02
217.749	-394.91
217.966	-394.13
218.183	-538.84
218.4	-341.52
218.618	-286.13
218.835	-423.54
219.052	-545.94
219.269	-202.13
219.487	-166.79
219.704	-177.11
219.921	-106.8
220.138	-31.2
220.355	-36.16
220.572	-22.74
220.79	-22.94
221.007	-36.24
221.224	-24.57
221.441	-17.3
221.658	-23.85
221.875	-44.46
222.092	-29.86
222.309	-30.97
222.526	-49.27
222.743	-32.35
222.96	-34.49
223.177	-18.37
223.394	8.64
223.611	17.01
223.828	25.36
224.045	23.99
224.262	33.99
224.479	32.35
224.696	22.89
224.913	21.73
225.13	19.27
225.347	24.57
225.564	22.34
225.781	22.44
225.997	17.72
226.214	15.46
226.431	13.44
226.648	11.04
226.865	9.63
227.082	9.02
227.298	8.6
227.515	8.59
227.732	8.72
227.949	9.13
228.165	7.73
228.382	9.03
228.599	7.76
228.816	7.72
229.032	7.11
229.249	7.34
229.466	9.76
229.682	9.45
229.899	10.17
230.116	7.29
230.332	7.17
230.549	6.06
230.765	7.03
230.982	11.05
231.199	12.54
231.415	16.3
231.632	22
231.848	22.35
232.065	23.62
232.281	23.58
232.498	21.88
232.714	19.83
232.931	19.55
233.147	20.16
233.364	17.39
233.58	18.87
233.797	17.58
234.013	11.96
234.23	8.96
234.446	11.14
234.662	11.29
234.879	14.39
235.095	13.22
235.312	15.57
235.528	15.75
235.744	17.9
235.961	17.5
236.177	15.9
236.393	19.13
236.61	20.98
236.826	18.28
237.042	15.77
237.258	16.17
237.475	16.22
237.691	12.39
237.907	9.34
238.123	9.4
238.339	7.77
238.556	9.42
238.772	9.86
238.988	10.52
239.204	10.9
239.42	13.77
239.636	13.47
239.853	14.13
240.069	15.59
240.285	16.11
240.501	15.55
240.717	15.73
240.933	14.66
241.149	14.14
241.365	13.16
241.581	13.6
241.797	12.4
242.013	11.6
242.229	12.43
242.445	12.01
242.661	11.86
242.877	12
243.093	11.73
243.309	12.18
243.525	12.79
243.741	13.63
243.957	12.82
244.173	14.21
244.388	14.84
244.604	14.08
244.82	14.46
245.036	14.34
245.252	14.34
245.468	14.22
245.683	14.79
245.899	14.67
246.115	15.15
246.331	15.35
246.547	14.92
246.762	14.75
246.978	14.58
247.194	14.71
247.409	14.4
247.625	14.52
247.841	14.62
248.057	14.18
248.272	14.07
248.488	12.72
248.703	14.17
248.919	15.24
249.135	14.51
249.35	15.06
249.566	14.44
249.782	14.77
249.997	14.76
250.213	13.9
250.428	13.27
250.644	13.02
250.859	13.88
251.075	12.05
251.29	10.08
251.506	10.4
251.721	10.34
251.937	9.75
252.152	9.48
252.368	8.51
252.583	10.1
252.798	10.95
253.014	11.61
253.229	10.53
253.445	11.05
253.66	11.95
253.875	11.76
254.091	10.13
254.306	10.22
254.521	10.17
254.737	10.84
254.952	11.44
255.167	11.4
255.383	10.49
255.598	11.67
255.813	11.02
256.028	10.69
256.244	10.41
256.459	10.96
256.674	11.12
256.889	11.16
257.104	11.14
257.32	10.27
257.535	10.11
257.75	10.03
257.965	9.67
258.18	9.9
258.395	10.24
258.61	10.31
258.826	9.96
259.041	9.67
259.256	9.64
259.471	9.16
259.686	9.17
259.901	9.18
260.116	9.45
260.331	9.23
260.546	9.66
260.761	8.93
260.976	8.73
261.191	8.73
261.406	8.39
261.621	9.01
261.836	9.45
262.05	9.72
262.265	8.51
262.48	7.03
262.695	6.44
262.91	5.79
263.125	7.79
263.34	8.18
263.555	8.95
263.769	9.85
263.984	9.04
264.199	9.83
264.414	8.47
264.629	8.77
264.843	9.92
265.058	10.74
265.273	10.08
265.488	8.6
265.702	7.77
265.917	7.7
266.132	7.76
266.346	7.64
266.561	7.84
266.776	9.27
266.99	9.14
267.205	8.04
267.42	7.71
267.634	7.9
267.849	8.37
268.063	8.97
268.278	9.23
268.492	9.53
268.707	9.34
268.922	8.87
269.136	8.29
269.351	9.01
269.565	9.44
269.78	9.16
269.994	9.87
270.209	9.99
270.423	9.68
270.637	9.26
270.852	8.73
271.066	9.15
271.281	8.69
271.495	8.97
271.709	8.44
271.924	8.32
272.138	8.7
272.353	7.98
272.567	7.14
272.781	7.21
272.996	7.49
273.21	7.42
273.424	7.74
273.638	8.47
273.853	7.87
274.067	8.1
274.281	8.47
274.495	9.1
274.71	10.05
274.924	10.47
275.138	11.08
275.352	10.46
275.566	10.45
275.781	10.1
275.995	9.46
276.209	10.08
276.423	9.83
276.637	10.31
276.851	9.83
277.065	9.25
277.279	9.25
277.493	9.7
277.707	10.19
277.921	11.24
278.135	11.03
278.349	11.34
278.563	10.72
278.777	10.72
278.991	10.31
279.205	10.28
279.419	9.4
279.633	9.46
279.847	9.34
280.061	10.26
280.275	9.36
280.489	9.49
280.703	9.58
280.917	10.39
281.131	11.15
281.344	10.73
281.558	10.92
281.772	11.56
281.986	11.2
282.2	10.73
282.414	10.25
282.627	11.05
282.841	11.55
283.055	11.45
283.269	11.53
283.482	11.85
283.696	12.12
283.91	11.92
284.123	11.55
284.337	11.92
284.551	11.77
284.764	11.83
284.978	10.89
285.192	10.03
285.405	10.06
285.619	9.41
285.833	8.82
286.046	9.3
286.26	9.22
286.473	9.61
286.687	9.53
286.9	9.72
287.114	9.53
287.327	10.6
287.541	11.01
287.754	11.26
287.968	11.61
288.181	11.3
288.395	11.86
288.608	11.96
288.822	12.21
289.035	12.43
289.248	12.54
289.462	12.69
289.675	12.38
289.889	13.02
290.102	12.88
290.315	12.8
290.529	12.71
290.742	11.79
290.955	11.72
291.169	11.69
291.382	11.26
291.595	11.42
291.808	11.23
292.022	10.19
292.235	9
292.448	9.37
292.661	9.18
292.875	9.48
293.088	9.8
293.301	9.84
293.514	9.77
293.727	10.47
293.94	10.42
294.153	10.46
294.367	11.66
294.58	12.44
294.793	12.04
295.006	12.07
295.219	12.01
295.432	11.58
295.645	11.93
295.858	11.22
296.071	10.91
296.284	11.14
296.497	11.47
296.71	11.22
296.923	11.24
297.136	11.63
297.349	11.76
297.562	12.06
297.775	12.77
297.988	12.74
298.201	13.42
298.414	13.94
298.626	13.26
298.839	13.11
299.052	13.3
299.265	13.66
299.478	13.34
299.691	14.08
299.903	14.7
300.116	14.65
300.329	14.85
300.542	15.93
300.755	15.67
300.967	16.9
301.18	17.05
301.393	17.08
301.605	16.09
301.818	15.8
302.031	15.81
302.243	15.92
302.456	15.15
302.669	15.76
302.881	15.06
303.094	15.06
303.307	14.35
303.519	14.14
303.732	14.06
303.944	14.19
304.157	14.49
304.37	12.93
304.582	12.32
304.795	12.76
305.007	12.52
305.22	11.78
305.432	12.09
305.645	12.37
305.857	12.29
306.069	12.17
306.282	12.77
306.494	13.15
306.707	14.41
306.919	14.23
307.132	13.51
307.344	12.79
307.556	13.09
307.769	13.3
307.981	13.02
308.193	12.77
308.406	11.97
308.618	12.26
308.83	11.77
309.043	11
309.255	10.86
309.467	12.02
309.679	11.55
309.892	11.84
310.104	11.02
310.316	10.94
310.528	11
310.74	11.27
310.953	10.63
311.165	10.59
311.377	10.5
311.589	10.99
311.801	10.5
312.013	11.27
312.225	10.77
312.437	10.68
312.649	10.69
312.862	10.36
313.074	10.47
313.286	9.95
313.498	9.99
313.71	10.88
313.922	10.36
314.134	10.49
314.346	9.3
314.558	9.37
314.77	8.93
314.982	9.15
315.193	10.13
315.405	10.22
315.617	10.67
315.829	10.39
316.041	9.86
316.253	10.25
316.465	9.96
316.677	11.98
316.888	12.29
317.1	13.22
317.312	12.89
317.524	11.84
317.736	12.52
317.947	12.71
318.159	13.12
318.371	13.51
318.583	13.59
318.794	13.77
319.006	12.04
319.218	11.42
319.43	11.04
319.641	10.69
319.853	11.27
320.064	11.54
320.276	11.33
320.488	11.93
320.699	11.59
320.911	11.67
321.123	11.22
321.334	12.64
321.546	13.26
321.757	13.76
321.969	14.24
322.18	13.66
322.392	13.68
322.603	13.47
322.815	12.87
323.026	13.6
323.238	12.73
323.449	13.31
323.661	12.71
323.872	13.17
324.083	13.39
324.295	13.88
324.506	14.29
324.718	13.89
324.929	14.5
325.14	15.09
325.352	14.6
325.563	15.53
325.774	14.91
325.986	14.89
326.197	14.44
326.408	13.26
326.62	12.7
326.831	12.68
327.042	12.19
327.253	12.17
327.464	12.37
327.676	12.6
327.887	12.22
328.098	12.27
328.309	12.11
328.52	12.09
328.732	12.79
328.943	12.73
329.154	13.02
329.365	13.8
329.576	13.89
329.787	12.56
329.998	12.4
330.209	11.37
330.42	11.64
330.631	11.89
330.842	12.44
331.053	12.16
331.264	12.26
331.475	12.31
331.686	12.17
331.897	11.39
332.108	12.19
332.319	11.88
332.53	13
332.741	13.34
332.952	12.85
333.163	11.94
333.374	12.33
333.585	12.15
333.795	12.47
334.006	12.36
334.217	12.75
334.428	12.66
334.639	12.68
334.849	12.75
335.06	12.47
335.271	13.34
335.482	13.26
335.692	13.49
335.903	14.03
336.114	13.42
336.325	13.27
336.535	13.97
336.746	13.74
336.957	14.22
337.167	14.77
337.378	15.59
337.589	15.6
337.799	15.73
338.01	15.37
338.22	15.94
338.431	16.14
338.642	16.44
338.852	15.42
339.063	16.23
339.273	15.62
339.484	15.11
339.694	13.2
339.905	12.33
340.115	13.1
340.326	14.03
340.536	13.59
340.746	14.43
340.957	14.9
341.167	15.25
341.378	14.59
341.588	14.46
341.799	13.82
342.009	14.96
342.219	15.39
342.43	15.6
342.64	15.06
342.85	14.86
343.061	13.59
343.271	12.78
343.481	12.52
343.691	12.32
343.902	12.35
344.112	12.53
344.322	12.27
344.532	12.33
344.743	11.86
344.953	11.34
345.163	11.32
345.373	11.61
345.583	11.64
345.793	11.73
346.004	12.05
346.214	12.44
346.424	12.88
346.634	13.14
346.844	12.95
347.054	12.34
347.264	12.54
347.474	11.92
347.684	11.92
347.894	11.63
348.104	11.27
348.314	11.09
348.524	10.9
348.734	10.28
348.944	10.54
349.154	9.82
349.364	10.29
349.574	10.57
349.784	10.96
349.994	10.99
350.204	10.58
350.413	10.82
350.623	11.06
350.833	11.22
351.043	11.72
351.253	11.17
351.463	12.01
351.672	11.28
351.882	11.16
352.092	11.34
352.302	11.66
352.511	12.91
352.721	13.15
352.931	12.73
353.141	13.24
353.35	12.95
353.56	13.56
353.77	13.43
353.979	14.55
354.189	14.39
354.399	14.37
354.608	14.09
354.818	13.58
355.027	13.15
355.237	13.22
355.447	12.83
355.656	13.4
355.866	13.05
356.075	13
356.285	12.53
356.494	12.61
356.704	12.41
356.913	12.65
357.123	13.26
357.332	13.87
357.542	14.25
357.751	14.3
357.96	13.81
358.17	13.26
358.379	13.51
358.589	13.7
358.798	14.17
359.007	14.39
359.217	14.16
359.426	13.77
359.635	13.88
359.845	13.37
360.054	13.16
360.263	13.13
360.472	13.51
360.682	12.87
360.891	12.35
361.1	12.11
361.309	11.84
361.519	11.25
361.728	11.15
361.937	10.62
362.146	10.57
362.355	10.45
362.564	10.46
362.774	10.09
362.983	10.24
363.192	10.69
363.401	10.23
363.61	10.39
363.819	11.09
364.028	11.05
364.237	11.36
364.446	11.51
364.655	12.19
364.864	12.4
365.073	12.95
365.282	13.13
365.491	12.67
365.7	13.22
365.909	12.48
366.118	12.02
366.327	11.95
366.536	12.01
366.745	12.07
366.954	11.3
367.162	11.38
367.371	11.16
367.58	10.97
367.789	11.07
367.998	10.93
368.207	11.28
368.415	11.3
368.624	11.27
368.833	10.86
369.042	10.68
369.25	10.63
369.459	10.3
369.668	9.65
369.877	9.43
370.085	9.78
370.294	9.37
370.503	9.76
370.711	10.03
370.92	10.1
371.129	9.97
371.337	9.78
371.546	9.7
371.754	9.53
371.963	9.76
372.171	10.06
372.38	9.76
372.589	9.75
372.797	9.46
373.006	9.51
373.214	9.54
373.423	9.66
373.631	9.64
373.84	9.53
374.048	9.62
374.256	9.56
374.465	9.55
374.673	8.83
374.882	8.8
375.09	8.4
375.298	8.13
375.507	7.91
375.715	7.85
375.923	7.96
376.132	7.87
376.34	7.7
376.548	7.94
376.757	7.92
376.965	8.52
377.173	8.62
377.381	9.05
377.59	9.08
377.798	9.07
378.006	8.8
378.214	8.65
378.423	8.76
378.631	8.73
378.839	8.33
379.047	8.03
379.255	8.14
379.463	8.02
379.671	7.76
379.879	8.01
380.088	8.06
380.296	8.13
380.504	8.38
380.712	8.57
380.92	8.4
381.128	8.43
381.336	8.71
381.544	8.67
381.752	8.62
381.96	9.01
382.168	8.68
382.376	8.34
382.584	8.31
382.791	8.1
382.999	8
383.207	7.86
383.415	7.57
383.623	7.49
383.831	7.34
384.039	7.01
384.247	6.64
384.454	6.26
384.662	6.13
384.87	6.24
385.078	5.95
385.285	5.75
385.493	6.02
385.701	6.27
385.909	5.89
386.116	5.67
386.324	5.78
386.532	5.77
386.739	5.99
386.947	6.04
387.155	5.65
387.362	5.5
387.57	5.46
387.778	5.25
387.985	5.03
388.193	5.22
388.4	5.12
388.608	5.29
388.816	5.01
389.023	5.25
389.231	5.04
389.438	5.18
389.646	5.75
389.853	5.69
390.061	5.64
390.268	5.8
390.475	5.62
390.683	5.77
390.89	5.57
391.098	5.64
391.305	5.42
391.512	5.63
391.72	5.45
391.927	4.99
392.135	5.07
392.342	5.2
392.549	4.97
392.756	4.91
392.964	4.68
393.171	4.6
393.378	4.73
393.586	4.73
393.793	4.8
394	4.96
394.207	5.14
394.414	4.96
394.622	4.7
394.829	4.68
395.036	4.72
395.243	4.8
395.45	4.97
395.657	4.98
395.864	4.95
396.072	4.8
396.279	4.77
396.486	4.64
396.693	4.59
396.9	4.77
397.107	4.77
397.314	4.96
397.521	4.99
397.728	5.06
397.935	4.97
398.142	5.04
398.349	4.91
398.556	4.75
398.763	4.62
398.97	4.67
399.177	4.7
399.383	4.84
399.59	4.46
399.797	4.45
400.004	4.24
400.211	4.12
400.418	4.07
400.625	4.15
400.831	4.25
401.038	4.34
401.245	4.36
401.452	4.14
401.658	4.1
401.865	4.26
402.072	4.17
402.279	4.27
402.485	4.31
402.692	4.22
402.899	4.28
403.105	4.27
403.312	4.34
403.519	4.31
403.725	4.51
403.932	4.44
404.138	4.54
404.345	4.62
404.552	4.63
404.758	4.65
404.965	4.71
405.171	4.58
405.378	4.52
405.584	4.42
405.791	4.3
405.997	4.23
406.204	4.28
406.41	4.18
406.617	4.15
406.823	4.1
407.029	4.02
407.236	3.73
407.442	3.78
407.649	4.01
407.855	3.92
408.061	3.97
408.268	3.9
408.474	3.84
408.68	3.9
408.887	3.84
409.093	3.84
409.299	4.06
409.505	4.15
409.712	3.98
409.918	3.95
410.124	4.04
410.33	3.95
410.537	3.97
410.743	4
410.949	4
411.155	4.01
411.361	3.8
411.567	3.52
411.773	3.61
411.98	3.8
412.186	3.52
412.392	3.41
412.598	3.57
412.804	3.37
413.01	3.42
413.216	3.31
413.422	3.29
413.628	3.31
413.834	3.5
414.04	3.52
414.246	3.45
414.452	3.7
414.658	3.76
414.864	3.72
415.07	3.79
415.275	3.75
415.481	3.59
415.687	3.67
415.893	3.73
416.099	3.83
416.305	3.82
416.511	3.84
416.716	3.63
416.922	3.69
417.128	3.75
417.334	3.87
417.539	3.83
417.745	3.94
417.951	3.96
418.157	3.98
418.362	3.89
418.568	3.87
418.774	3.85
418.979	4.03
419.185	4
419.391	3.96
419.596	3.88
419.802	3.89
420.008	3.9
420.213	4.44
420.419	4.4
420.624	4.41
420.83	4.44
421.035	4.51
421.241	4.37
421.446	4.43
421.652	4.43
421.857	4.48
422.063	4.48
422.268	4.52
422.474	3.92
422.679	3.93
422.885	3.91
423.09	3.92
423.295	3.82
423.501	3.83
423.706	3.78
423.911	3.84
424.117	3.81
424.322	3.79
424.527	3.78
424.733	3.8
424.938	3.89
425.143	3.79
425.349	3.67
425.554	3.64
425.759	3.72
425.964	3.62
426.169	3.5
426.375	3.43
426.58	3.53
426.785	3.46
426.99	3.44
427.195	3.32
427.4	3.37
427.605	3.39
427.811	3.44
428.016	3.27
428.221	3.32
428.426	3.29
428.631	3.3
428.836	3.12
429.041	3.14
429.246	3.11
429.451	3.15
429.656	3.16
429.861	3.14
430.066	3.21
430.271	3.28
430.476	3.22
430.681	3.19
430.886	3.22
431.09	3.31
431.295	3.3
431.5	3.31
431.705	3.27
431.91	3.29
432.115	3.36
432.32	3.35
432.524	3.33
432.729	3.46
432.934	3.59
433.139	3.55
433.343	3.55
433.548	3.5
433.753	3.5
433.958	3.53
434.162	3.48
434.367	3.38
434.572	3.36
434.776	3.39
434.981	3.25
435.186	3.24
435.39	3.21
435.595	3.19
435.799	3.24
436.004	3.24
436.209	3.22
436.413	3.19
436.618	3.24
436.822	3.29
437.027	3.22
437.231	3.23
437.436	3.24
437.64	3.22
437.845	3.25
438.049	3.23
438.253	3.27
438.458	3.25
438.662	3.26
438.867	3.32
439.071	3.23
439.275	3.35
439.48	3.33
439.684	3.33
439.888	3.39
440.093	3.43
440.297	3.41
440.501	3.34
440.706	3.34
440.91	3.4
441.114	3.27
441.318	3.34
441.523	3.23
441.727	3.3
441.931	3.22
442.135	3.32
442.339	3.29
442.543	3.34
442.748	3.4
442.952	3.41
443.156	3.35
443.36	3.41
443.564	3.45
443.768	3.42
443.972	3.36
444.176	3.38
444.38	3.26
444.584	3.25
444.788	3.3
444.992	3.31
445.196	3.31
445.4	3.35
445.604	3.36
445.808	3.34
446.012	3.38
446.216	3.37
446.42	3.37
446.624	3.4
446.828	3.29
447.032	3.23
447.235	3.18
447.439	3.17
447.643	3.18
447.847	3.16
448.051	3.14
448.254	3.09
448.458	3.16
448.662	3.16
448.866	3.16
449.069	3.3
449.273	3.31
449.477	3.24
449.681	3.39
449.884	3.34
450.088	3.33
450.292	3.29
450.495	3.25
450.699	3.31
450.902	3.25
451.106	3.22
451.31	3.12
451.513	3.05
451.717	3.09
451.92	2.94
452.124	3.03
452.327	3.06
452.531	3.13
452.734	3.19
452.938	3.05
453.141	3.06
453.345	3.13
453.548	3.19
453.752	3.28
453.955	3.32
454.158	3.32
454.362	3.29
454.565	3.24
454.769	3.27
454.972	3.26
455.175	3.33
455.379	3.43
455.582	3.41
455.785	3.41
455.988	3.37
456.192	3.45
456.395	3.49
456.598	3.36
456.801	3.39
457.005	3.24
457.208	3.28
457.411	3.38
457.614	3.29
457.817	3.35
458.021	3.39
458.224	3.35
458.427	3.3
458.63	3.32
458.833	3.34
459.036	3.27
459.239	3.35
459.442	3.32
459.645	3.3
459.848	3.33
460.051	3.32
460.254	3.33
460.457	3.37
460.66	3.27
460.863	3.19
461.066	3.19
461.269	3.32
461.472	3.37
461.675	3.38
461.878	3.31
462.081	3.31
462.284	3.23
462.486	3.11
462.689	3.13
462.892	3.24
463.095	3.28
463.298	3.25
463.5	3.13
463.703	3.04
463.906	2.98
464.109	2.95
464.311	2.99
464.514	2.99
464.717	2.98
464.92	2.93
465.122	2.99
465.325	2.94
465.528	3.02
465.73	3.11
465.933	3.06
466.135	3.16
466.338	3.13
466.541	3.06
466.743	3.06
466.946	3.16
467.148	3.27
467.351	3.25
467.553	3.28
467.756	3.17
467.958	3.18
468.161	3.23
468.363	3.12
468.566	3.1
468.768	3.07
468.971	3.03
469.173	2.89
469.375	2.85
469.578	2.8
469.78	2.8
469.983	2.94
470.185	2.97
470.387	2.95
470.59	3.04
470.792	3.2
470.994	3.26
471.196	3.27
471.399	3.39
471.601	3.42
471.803	3.43
472.005	3.45
472.208	3.5
472.41	3.39
472.612	3.46
472.814	3.36
473.016	3.26
473.218	3.13
473.421	3.15
473.623	3.13
473.825	3.04
474.027	3.07
474.229	3.08
474.431	3.01
474.633	2.97
474.835	2.91
475.037	2.97
475.239	2.95
475.441	3.17
475.643	3.18
475.845	3.17
476.047	3.16
476.249	3.23
476.451	3.2
476.653	3.22
476.855	3.33
477.057	3.38
477.258	3.48
477.46	3.56
477.662	3.47
477.864	3.51
478.066	3.51
478.268	3.51
478.469	3.33
478.671	3.3
478.873	3.27
479.075	3.32
479.276	3.23
479.478	3.16
479.68	3.13
479.882	3.21
480.083	3.14
480.285	3.18
480.487	3.21
480.688	3.26
480.89	3.35
481.091	3.33
481.293	3.32
481.495	3.36
481.696	3.37
481.898	3.37
482.099	3.35
482.301	3.38
482.502	3.36
482.704	3.36
482.905	3.36
483.107	3.33
483.308	3.36
483.51	3.35
483.711	3.35
483.913	3.35
484.114	3.34
484.315	3.34
484.517	3.33
484.718	3.33
484.92	3.35
485.121	3.41
485.322	3.42
485.524	3.4
485.725	3.37
485.926	3.37
486.127	3.39
486.329	3.4
486.53	3.36
486.731	3.37
486.932	3.34
487.134	3.3
487.335	3.28
487.536	3.33
487.737	3.34
487.938	3.36
488.139	3.36
488.341	3.34
488.542	3.36
488.743	3.43
488.944	3.44
489.145	3.47
489.346	3.51
489.547	3.45
489.748	3.38
489.949	3.36
490.15	3.35
490.351	3.34
490.552	3.34
490.753	3.33
490.954	3.32
491.155	3.31
491.356	3.31
491.557	3.33
491.758	3.36
491.959	3.34
492.159	3.35
492.36	3.33
492.561	3.34
492.762	3.32
492.963	3.3
493.164	3.31
493.364	3.33
493.565	3.39
493.766	3.35
493.967	3.32
494.167	3.35
494.368	3.33
494.569	3.4
494.769	3.38
494.97	3.4
495.171	3.41
495.371	3.36
495.572	3.38
495.773	3.39
495.973	3.43
496.174	3.49
496.375	3.52
496.575	3.56
496.776	3.54
496.976	3.58
497.177	3.58
497.377	3.58
497.578	3.57
497.778	3.51
497.979	3.49
498.179	3.49
498.38	3.42
498.58	3.46
498.78	3.53
498.981	3.53
499.181	3.46
499.382	3.48
499.582	3.47
499.782	3.61
499.983	3.65
500.183	3.61
500.383	3.68
500.584	3.73
500.784	3.75
500.984	3.68
501.184	3.68
501.385	3.75
501.585	3.81
501.785	3.85
501.985	3.86
502.185	3.83
502.386	3.82
502.586	3.74
502.786	3.75
502.986	3.72
503.186	3.73
503.386	3.7
503.586	3.74
503.786	3.68
503.987	3.71
504.187	3.67
504.387	3.74
504.587	3.81
504.787	3.85
504.987	3.81
505.187	3.84
505.387	3.94
505.587	4.03
505.786	4.05
505.986	4.06
506.186	4.06
506.386	4.06
506.586	4.02
506.786	4.03
506.986	4.02
507.186	4.02
507.386	4.01
507.585	3.98
507.785	4
507.985	3.93
508.185	3.89
508.384	3.89
508.584	3.94
508.784	4.02
508.984	4.06
509.183	4.03
509.383	4.1
509.583	4.13
509.782	4.13
509.982	4.12
510.182	4.13
510.381	4.24
510.581	4.24
510.781	4.25
510.98	4.2
511.18	4.2
511.379	4.3
511.579	4.29
511.778	4.33
511.978	4.34
512.177	4.36
512.377	4.45
512.576	4.37
512.776	4.38
512.975	4.34
513.175	4.32
513.374	4.34
513.573	4.37
513.773	4.3
513.972	4.3
514.172	4.26
514.371	4.29
514.57	4.28
514.77	4.42
514.969	4.47
515.168	4.56
515.367	4.67
515.567	4.72
515.766	4.73
515.965	4.87
516.164	4.87
516.364	4.96
516.563	4.97
516.762	4.96
516.961	4.94
517.16	4.94
517.359	4.9
517.559	4.85
517.758	4.85
517.957	4.88
518.156	4.9
518.355	4.88
518.554	4.87
518.753	4.97
518.952	5.03
519.151	4.99
519.35	5.04
519.549	5.09
519.748	5.14
519.947	5.13
520.146	5.11
520.345	5.03
520.544	5.09
520.743	5.13
520.942	5.01
521.141	4.99
521.339	5.1
521.538	5.07
521.737	5.11
521.936	5.15
522.135	5.16
522.333	5.14
522.532	5.28
522.731	5.29
522.93	5.22
523.129	5.27
523.327	5.33
523.526	5.34
523.725	5.32
523.923	5.38
524.122	5.36
524.321	5.39
524.519	5.44
524.718	5.44
524.917	5.45
525.115	5.52
525.314	5.56
525.512	5.53
525.711	5.53
525.909	5.6
526.108	5.57
526.306	5.6
526.505	5.61
526.703	5.63
526.902	5.65
527.1	5.66
527.299	5.72
527.497	5.74
527.696	5.81
527.894	5.86
528.092	5.88
528.291	5.94
528.489	5.96
528.688	6
528.886	6.03
529.084	6.06
529.283	6.11
529.481	6.09
529.679	6.09
529.877	6.08
530.076	6.02
530.274	5.99
530.472	5.96
530.67	6.01
530.869	5.96
531.067	5.93
531.265	5.95
531.463	5.88
531.661	5.88
531.859	5.87
532.057	5.86
532.255	5.92
532.454	5.98
532.652	5.98
532.85	6
533.048	6.08
533.246	6.12
533.444	6.11
533.642	6.22
533.84	6.24
534.038	6.31
534.236	6.32
534.434	6.34
534.632	6.34
534.83	6.39
535.027	6.34
535.225	6.33
535.423	6.28
535.621	6.31
535.819	6.24
536.017	6.27
536.215	6.28
536.412	6.3
536.61	6.27
536.808	6.3
537.006	6.29
537.203	6.34
537.401	6.36
537.599	6.42
537.797	6.39
537.994	6.53
538.192	6.49
538.39	6.53
538.587	6.61
538.785	6.69
538.983	6.69
539.18	6.73
539.378	6.74
539.575	6.73
539.773	6.77
539.97	6.82
540.168	6.81
540.366	6.86
540.563	6.85
540.761	6.85
540.958	6.84
541.155	6.9
541.353	6.95
541.55	7.02
541.748	7.06
541.945	7.12
542.143	7.15
542.34	7.14
542.537	7.15
542.735	7.22
542.932	7.25
543.129	7.24
543.327	7.22
543.524	7.17
543.721	7.22
543.919	7.27
544.116	7.23
544.313	7.23
544.51	7.3
544.708	7.36
544.905	7.35
545.102	7.36
545.299	7.4
545.496	7.37
545.693	7.44
545.891	7.4
546.088	7.42
546.285	7.38
546.482	7.44
546.679	7.52
546.876	7.63
547.073	7.63
547.27	7.67
547.467	7.78
547.664	7.9
547.861	7.92
548.058	7.86
548.255	7.89
548.452	8.03
548.649	8.07
548.846	8.08
549.043	8.01
549.24	8.11
549.437	8.06
549.633	7.99
549.83	8
550.027	7.99
550.224	8.06
550.421	8.1
550.618	8.13
550.814	8.13
551.011	8.1
551.208	8.09
551.405	8.15
551.601	8.25
551.798	8.36
551.995	8.4
552.191	8.45
552.388	8.58
552.585	8.67
552.781	8.64
552.978	8.66
553.175	8.72
553.371	8.76
553.568	8.79
553.764	8.78
553.961	8.78
554.157	8.83
554.354	8.91
554.55	8.94
554.747	8.93
554.943	8.95
555.14	9.06
555.336	9.15
555.533	9.28
555.729	9.19
555.926	9.25
556.122	9.18
556.318	9.22
556.515	9.23
556.711	9.18
556.907	9.16
557.104	9.22
557.3	9.18
557.496	9.27
557.693	9.32
557.889	9.44
558.085	9.45
558.281	9.64
558.478	9.75
558.674	9.78
558.87	9.84
559.066	9.9
559.262	10.02
559.459	10.11
559.655	10.18
559.851	10.11
560.047	10.18
560.243	10.25
560.439	10.28
560.635	10.24
560.831	10.34
561.027	10.43
561.223	10.45
561.419	10.42
561.615	10.29
561.811	10.17
562.007	10.3
562.203	10.19
562.399	10.28
562.595	10.3
562.791	10.34
562.987	10.4
563.183	10.35
563.379	10.44
563.575	10.6
563.771	10.82
563.966	10.85
564.162	10.88
564.358	11.05
564.554	11.06
564.75	11.22
564.945	11.32
565.141	11.3
565.337	11.51
565.533	11.58
565.728	11.65
565.924	11.68
566.12	11.82
566.315	11.84
566.511	11.96
566.707	12.05
566.902	12.04
567.098	11.98
567.293	12.09
567.489	12.05
567.684	12.01
567.88	12.04
568.076	12.06
568.271	12.12
568.467	12.17
568.662	12.13
568.858	12.18
569.053	12.26
569.248	12.45
569.444	12.54
569.639	12.55
569.835	12.59
570.03	12.54
570.225	12.62
570.421	12.56
570.616	12.68
570.812	12.8
571.007	12.86
571.202	12.87
571.397	12.79
571.593	12.76
571.788	12.77
571.983	12.89
572.178	12.89
572.374	13
572.569	13.13
572.764	13.12
572.959	13.15
573.154	13.27
573.35	13.28
573.545	13.32
573.74	13.26
573.935	13.4
574.13	13.46
574.325	13.62
574.52	13.68
574.715	13.7
574.91	13.77
575.105	13.73
575.3	13.7
575.495	13.8
575.69	13.96
575.885	14.07
576.08	14.07
576.275	13.97
576.47	13.91
576.665	13.88
576.86	13.91
577.055	13.93
577.25	13.99
577.444	13.95
577.639	13.96
577.834	13.85
578.029	13.96
578.224	13.97
578.418	14.22
578.613	14.35
578.808	14.33
579.003	14.35
579.197	14.27
579.392	14.33
579.587	14.37
579.781	14.41
579.976	14.51
580.171	14.64
580.365	14.71
580.56	14.45
580.755	14.46
580.949	14.48
581.144	14.56
581.338	14.66
581.533	14.71
581.727	14.83
581.922	14.82
582.116	14.72
582.311	14.61
582.505	14.5
582.7	14.64
582.894	14.64
583.089	14.66
583.283	14.53
583.478	14.48
583.672	14.5
583.866	14.42
584.061	14.28
584.255	14.43
584.449	14.52
584.644	14.64
584.838	14.74
585.032	14.82
585.226	15.02
585.421	15.06
585.615	15.1
585.809	15.11
586.003	15.23
586.198	15.28
586.392	15.36
586.586	15.28
586.78	15.38
586.974	15.41
587.168	15.33
587.363	15.22
587.557	15.29
587.751	15.43
587.945	15.52
588.139	15.44
588.333	15.69
588.527	15.63
588.721	15.68
588.915	15.64
589.109	15.62
589.303	15.74
589.497	15.64
589.691	15.74
589.885	15.72
590.079	15.71
590.273	15.86
590.466	15.76
590.66	15.76
590.854	15.92
591.048	15.93
591.242	15.96
591.436	15.9
591.629	16.01
591.823	16.04
592.017	16.16
592.211	16.26
592.404	16.14
592.598	16.05
592.792	16.22
592.986	16.18
593.179	16.31
593.373	16.4
593.567	16.46
593.76	16.52
593.954	16.4
594.147	16.31
594.341	16.23
594.535	16.37
594.728	16.53
594.922	16.55
595.115	16.55
595.309	16.49
595.502	16.43
595.696	16.5
595.889	16.53
596.083	16.68
596.276	16.7
596.47	16.71
596.663	16.54
596.856	16.58
597.05	16.51
597.243	16.39
597.437	16.54
597.63	16.57
597.823	16.49
598.017	16.54
598.21	16.49
598.403	16.55
598.596	16.58
598.79	16.64
598.983	16.49
599.176	16.53
599.369	16.65
599.563	16.54
599.756	16.57
599.949	16.57
600.142	16.51
600.335	16.45
600.528	16.52
600.722	16.5
600.915	16.61
601.108	16.79
601.301	16.72
601.494	16.78
601.687	16.76
601.88	16.75
602.073	16.68
602.266	16.7
602.459	16.8
602.652	16.71
602.845	16.68
603.038	16.78
603.231	16.68
603.424	16.8
603.617	16.8
603.809	16.85
604.002	16.84
604.195	17.02
604.388	17.05
604.581	16.97
604.774	16.95
604.966	16.96
605.159	16.87
605.352	16.98
605.545	17
605.737	16.99
605.93	16.98
606.123	17.07
606.316	17.05
606.508	17.13
606.701	17.31
606.894	17.49
607.086	17.48
607.279	17.54
607.471	17.44
607.664	17.47
607.857	17.52
608.049	17.52
608.242	17.46
608.434	17.54
608.627	17.47
608.819	17.37
609.012	17.24
609.204	17.36
609.397	17.41
609.589	17.56
609.782	17.51
609.974	17.36
610.166	17.28
610.359	17.33
610.551	17.31
610.743	17.16
610.936	17.16
611.128	17.2
611.32	17.27
611.513	17.21
611.705	17.09
611.897	17.19
612.09	17.38
612.282	17.52
612.474	17.47
612.666	17.22
612.858	17.41
613.051	17.61
613.243	17.59
613.435	17.5
613.627	17.43
613.819	17.36
614.011	17.33
614.203	17.29
614.395	17.4
614.588	17.4
614.78	17.47
614.972	17.52
615.164	17.32
615.356	17.3
615.548	17.13
615.74	17.13
615.932	17.39
616.124	17.27
616.315	17.28
616.507	17.01
616.699	16.93
616.891	17.02
617.083	16.98
617.275	17.01
617.467	17.05
617.659	17.15
617.85	17.21
618.042	17.01
618.234	17.24
618.426	17.29
618.618	17.34
618.809	17.41
619.001	17.3
619.193	17.22
619.384	17.26
619.576	17.18
619.768	17.36
619.959	17.44
620.151	17.48
620.343	17.3
620.534	17.46
620.726	17.59
620.917	17.47
621.109	17.5
621.301	17.61
621.492	17.55
621.684	17.6
621.875	17.59
622.067	17.64
622.258	17.59
622.45	17.85
622.641	17.76
622.832	17.58
623.024	17.8
623.215	17.92
623.407	17.95
623.598	18.03
623.789	18.2
623.981	18.12
624.172	18
624.363	18.03
624.555	17.81
624.746	17.77
624.937	17.93
625.129	18.01
625.32	17.94
625.511	17.91
625.702	17.93
625.893	17.87
626.085	17.83
626.276	17.93
626.467	17.93
626.658	18.07
626.849	18.11
627.04	18.19
627.231	18.09
627.422	18.24
627.614	18.45
627.805	18.38
627.996	18.39
628.187	18.41
628.378	18.26
628.569	18.18
628.76	18
628.951	17.9
629.142	17.71
629.332	17.68
629.523	17.7
629.714	17.62
629.905	17.66
630.096	17.57
630.287	17.51
630.478	17.55
630.669	17.52
630.859	17.76
631.05	17.86
631.241	18.02
631.432	18.09
631.623	17.97
631.813	17.81
632.004	17.89
632.195	17.94
632.385	18.09
632.576	18.14
632.767	18.22
632.957	18.03
633.148	18.07
633.339	18
633.529	18.08
633.72	18.07
633.91	18.27
634.101	18.11
634.292	18.2
634.482	18.16
634.673	18.26
634.863	18.28
635.054	18.17
635.244	18.02
635.435	17.94
635.625	17.84
635.815	17.99
636.006	17.83
636.196	18.05
636.387	17.91
636.577	17.94
636.767	17.81
636.958	17.87
637.148	18.05
637.338	18.18
637.529	18.42
637.719	18.32
637.909	17.98
638.099	18.07
638.29	17.97
638.48	18.14
638.67	17.92
638.86	18.07
639.05	18.25
639.241	18.36
639.431	18.18
639.621	18.07
639.811	18.34
640.001	18.42
640.191	18.19
640.381	18.4
640.571	18.18
640.761	18.42
640.951	18.09
641.141	17.87
641.331	17.69
641.521	17.85
641.711	17.66
641.901	17.4
642.091	17.46
642.281	17.59
642.471	17.36
642.661	17.42
642.851	17.41
643.041	17.71
643.231	17.88
643.42	17.93
643.61	17.99
643.8	18.24
643.99	18.46
644.18	18.74
644.369	18.77
644.559	18.87
644.749	19.07
644.939	18.82
645.128	18.9
645.318	18.72
645.508	18.66
645.697	18.36
645.887	18.24
646.076	18.21
646.266	17.9
646.456	17.98
646.645	17.9
646.835	17.73
647.024	17.95
647.214	17.9
647.403	17.91
647.593	18
647.782	18.34
647.972	18.49
648.161	18.55
648.351	18.72
648.54	18.77
648.73	18.91
648.919	18.75
649.108	18.7
649.298	18.52
649.487	18.68
649.677	18.67
649.866	18.49
650.055	18.55
650.244	18.49
650.434	18.54
650.623	18.3
650.812	18.43
651.002	18.65
651.191	18.83
651.38	18.99
651.569	18.77
651.758	18.68
651.947	18.74
652.137	18.61
652.326	18.49
652.515	18.35
652.704	18.62
652.893	18.33
653.082	18.25
653.271	18.09
653.46	17.86
653.649	17.82
653.838	18.01
654.027	17.89
654.216	17.82
654.405	17.64
654.594	17.68
654.783	17.64
654.972	17.88
655.161	18.04
655.35	18.09
655.539	18.35
655.728	18.64
655.916	18.32
656.105	18.36
656.294	18.6
656.483	18.8
656.672	19
656.86	18.9
657.049	18.82
657.238	18.78
657.427	18.89
657.615	18.8
657.804	18.77
657.993	18.97
658.181	19.16
658.37	18.87
658.559	18.8
658.747	18.79
658.936	18.89
659.125	18.92
659.313	18.86
659.502	18.7
659.69	18.78
659.879	18.68
660.067	18.69
660.256	18.55
660.444	18.65
660.633	18.69
660.821	18.57
661.01	18.38
661.198	18.52
661.387	18.58
661.575	18.52
661.763	18.36
661.952	18.41
662.14	18.56
662.328	18.49
662.517	18.62
662.705	18.62
662.893	18.74
663.082	18.78
663.27	18.5
663.458	18.5
663.646	18.77
663.834	18.92
664.023	18.99
664.211	19.03
664.399	19.09
664.587	18.98
664.775	19.06
664.963	18.69
665.152	18.8
665.34	18.83
665.528	18.85
665.716	18.89
665.904	18.84
666.092	18.54
666.28	18.42
666.468	18.38
666.656	18.51
666.844	18.48
667.032	18.71
667.22	18.66
667.408	18.84
667.596	18.82
667.784	18.85
667.971	18.91
668.159	18.95
668.347	19
668.535	19.05
668.723	19.17
668.911	19.29
669.098	19.27
669.286	19.38
669.474	19.28
669.662	19.31
669.849	19.02
670.037	18.99
670.225	19.36
670.413	19.17
670.6	19.13
670.788	19.19
670.976	18.85
671.163	19.04
671.351	18.76
671.538	18.58
671.726	18.4
671.913	18.47
672.101	18.45
672.289	18.08
672.476	17.97
672.664	18.11
672.851	17.81
673.039	18.11
673.226	18.15
673.413	18.25
673.601	18.39
673.788	18.67
673.976	18.8
674.163	19
674.35	19.22
674.538	19.52
674.725	19.46
674.912	19.37
675.1	19.27
675.287	18.93
675.474	19.01
675.662	18.94
675.849	18.81
676.036	18.77
676.223	18.88
676.411	18.84
676.598	18.59
676.785	18.52
676.972	18.88
677.159	19.06
677.346	19.28
677.533	19.09
677.721	19.15
677.908	18.91
678.095	19.07
678.282	19.07
678.469	18.98
678.656	19.37
678.843	19.51
679.03	19.21
679.217	19.22
679.404	19.25
679.591	19.37
679.778	19.46
679.964	19.57
680.151	19.63
680.338	19.59
680.525	19.58
680.712	19.38
680.899	19.4
681.086	19.5
681.272	19.24
681.459	19.25
681.646	19.33
681.833	19.43
682.02	19.43
682.206	19.14
682.393	18.89
682.58	19.09
682.766	19.04
682.953	18.94
683.14	18.78
683.326	18.79
683.513	18.86
683.7	18.98
683.886	18.71
684.073	19.12
684.259	19.21
684.446	19.3
684.632	19.15
684.819	19.11
685.005	19.07
685.192	19.32
685.378	19.39
685.565	19.47
685.751	19.23
685.938	19.4
686.124	19
686.31	19.19
686.497	19.31
686.683	19.34
686.87	19.23
687.056	19.33
687.242	19.13
687.429	19.12
687.615	18.95
687.801	19.06
687.987	19
688.174	19.31
688.36	19.15
688.546	19.02
688.732	19.19
688.918	19.73
689.105	19.91
689.291	20.31
689.477	20.34
689.663	20.29
689.849	20.33
690.035	20.43
690.221	20.35
690.407	20.4
690.593	20.6
690.779	20.72
690.965	20.25
691.151	19.98
691.337	19.92
691.523	20.2
691.709	20.55
691.895	20.46
692.081	20.39
692.267	19.99
692.453	19.83
692.639	19.67
692.825	19.16
693.011	19.28
693.196	19.33
693.382	19.23
693.568	18.95
693.754	18.47
693.94	18.91
694.125	18.78
694.311	18.66
694.497	18.84
694.682	18.79
694.868	18.98
695.054	18.96
695.239	18.82
695.425	18.7
695.611	18.88
695.796	18.95
695.982	18.59
696.168	18.7
696.353	19.04
696.539	19.04
696.724	18.95
696.91	19.06
697.095	18.93
697.281	19.06
697.466	19.21
697.652	19.18
697.837	19.12
698.023	19.17
698.208	19.31
698.393	19.51
698.579	19.54
698.764	19.6
698.949	19.66
699.135	19.86
699.32	19.94
699.505	19.77
699.691	19.78
699.876	19.96
700.061	19.99
700.246	19.8
700.432	19.58
700.617	19.57
700.802	19.75
700.987	19.69
701.172	19.53
701.358	19.63
701.543	19.47
701.728	19.46
701.913	18.96
702.098	18.36
702.283	18.48
702.468	18.49
702.653	18.23
702.838	17.95
703.023	17.85
703.208	17.79
703.393	17.81
703.578	18.09
703.763	17.9
703.948	18.57
704.133	18.99
704.318	18.84
704.503	19.16
704.688	19.07
704.873	19.19
705.057	19.66
705.242	19.9
705.427	19.59
705.612	19.5
705.797	19.51
705.981	19.43
706.166	19.72
706.351	19.75
706.536	19.45
706.72	19.78
706.905	19.73
707.09	19.18
707.274	18.95
707.459	18.87
707.644	18.78
707.828	18.96
708.013	18.74
708.197	18.77
708.382	18.66
708.567	18.61
708.751	18.26
708.936	18.75
709.12	19.14
709.305	18.97
709.489	18.97
709.673	18.93
709.858	18.76
710.042	18.79
710.227	18.79
710.411	18.87
710.596	18.97
710.78	19.04
710.964	18.63
711.149	18.92
711.333	19.26
711.517	19.49
711.702	19.47
711.886	19.55
712.07	19.52
712.254	19.55
712.438	19.39
712.623	19.29
712.807	19.4
712.991	19.47
713.175	18.81
713.359	18.75
713.544	18.77
713.728	18.99
713.912	18.95
714.096	18.88
714.28	18.76
714.464	19.1
714.648	19.37
714.832	19.22
715.016	19.39
715.2	19.5
715.384	19.4
715.568	19.31
715.752	19.27
715.936	19.69
716.12	19.63
716.304	19.62
716.488	19.73
716.671	19.54
716.855	19.89
717.039	19.52
717.223	19.68
717.407	19.84
717.59	19.7
717.774	19.93
717.958	19.67
718.142	19.74
718.325	19.65
718.509	19.37
718.693	19.63
718.877	19.58
719.06	19.9
719.244	20
719.428	20.05
719.611	20.4
719.795	20.06
719.978	19.99
720.162	20.32
720.345	20.48
720.529	20.43
720.713	20.22
720.896	20.47
721.08	20.12
721.263	19.89
721.446	19.76
721.63	19.55
721.813	19.66
721.997	19.29
722.18	19.05
722.364	18.53
722.547	18.29
722.73	18.36
722.914	18.22
723.097	18.52
723.28	18.79
723.464	18.79
723.647	18.9
723.83	18.85
724.013	19.68
724.197	19.91
724.38	20.29
724.563	20.01
724.746	19.55
724.929	19.49
725.112	19.1
725.296	18.7
725.479	18.62
725.662	18.64
725.845	19.02
726.028	18.58
726.211	18.61
726.394	18.75
726.577	18.9
726.76	19.19
726.943	19.14
727.126	19.08
727.309	19.48
727.492	19.72
727.675	19.53
727.858	19.41
728.041	19.51
728.224	19.39
728.407	19.12
728.589	19.55
728.772	19.8
728.955	20.01
729.138	20.33
729.321	20.23
729.503	20.34
729.686	20.14
729.869	20.01
730.052	19.71
730.234	19.8
730.417	19.92
730.6	19.63
730.782	19.41
730.965	19.21
731.148	19.54
731.33	19.37
731.513	19.04
731.695	19.45
731.878	19.6
732.061	19.89
732.243	19.64
732.426	19.73
732.608	20.38
732.791	20.15
732.973	19.88
733.156	19.34
733.338	19.2
733.52	19.33
733.703	18.92
733.885	18.89
734.068	18.75
734.25	18.88
734.432	18.8
734.615	18.39
734.797	18.94
734.979	18.92
735.162	19.37
735.344	19.35
735.526	19.34
735.708	19.76
735.891	19.48
736.073	20.06
736.255	19.71
736.437	19.61
736.619	19.2
736.802	18.99
736.984	18.74
737.166	18.56
737.348	18.03
737.53	18.04
737.712	17.75
737.894	18.04
738.076	17.34
738.258	18.01
738.44	18.05
738.622	18.49
738.804	18.56
738.986	18.96
739.168	18.94
739.35	19.75
739.532	19.59
739.714	19.88
739.896	19.82
740.078	19.77
740.259	19.59
740.441	19.81
740.623	20.03
740.805	19.79
740.987	19.66
741.168	19.69
741.35	19.68
741.532	20.06
741.714	19.03
741.895	19
742.077	19.39
742.259	19.39
742.44	19.29
742.622	19.45
742.804	18.97
742.985	19.06
743.167	19.2
743.348	19.26
743.53	18.79
743.711	19.9
743.893	19.91
744.075	19.7
744.256	19.18
744.438	19.08
744.619	18.08
744.8	18.01
744.982	17.86
745.163	17.46
745.345	17.02
745.526	17.44
745.707	17.48
745.889	17.49
746.07	17.51
746.252	18.12
746.433	17.86
746.614	17.91
746.795	18.54
746.977	18.99
747.158	19.02
747.339	19.51
747.52	19.28
747.702	19.1
747.883	19.29
748.064	19.14
748.245	18.68
748.426	19.09
748.607	19.66
748.788	19.79
748.97	20
749.151	20.1
749.332	19.87
749.513	19.8
749.694	19.78
749.875	19.61
750.056	20.17
750.237	20.19
750.418	19.85
750.599	19.42
750.78	19.28
750.96	19.27
751.141	18.93
751.322	19.35
751.503	19.18
751.684	19.39
751.865	18.66
752.046	18.28
752.226	18.76
752.407	18.69
752.588	18.38
752.769	18.3
752.949	18.39
753.13	18.95
753.311	18.97
753.492	19.43
753.672	19.47
753.853	21
754.034	21.29
754.214	20.67
754.395	21.46
754.575	22.07
754.756	22.15
754.937	21.91
755.117	21.3
755.298	20.91
755.478	20.14
755.659	20.12
755.839	19.43
756.02	18.96
756.2	19.45
756.381	18.56
756.561	18.51
756.741	19.17
756.922	19.02
757.102	19.06
757.283	18.8
757.463	20.09
757.643	20.11
757.823	19.96
758.004	19.35
758.184	19.19
758.364	20.29
758.545	20.52
758.725	20.12
758.905	19.99
759.085	20.45
759.265	21.07
759.446	20.25
759.626	19.96
759.806	20.01
759.986	21.31
760.166	21.54
760.346	21.06
760.526	20.87
760.706	20.98
760.886	20.77
761.066	21.15
761.246	20.91
761.426	21
761.606	21.33
761.786	21.57
761.966	20.85
762.146	20.58
762.326	20.51
762.506	20.6
762.686	20.4
762.866	20.72
763.046	20.38
763.225	19.96
763.405	19.85
763.585	19.73
763.765	19.65
763.945	19.71
764.124	20.09
764.304	20.04
764.484	20.13
764.664	20.39
764.843	20.23
765.023	20.04
765.203	20.17
765.382	20.79
765.562	20.49
765.741	20.41
765.921	20.51
766.101	19.93
766.28	19.58
766.46	18.95
766.639	18.75
766.819	18.74
766.998	18.82
767.178	19.6
767.357	18.88
767.537	19.28
767.716	19.15
767.896	19.52
768.075	19.31
768.254	19.17
768.434	19.73
768.613	19.77
768.792	19.27
768.972	20.3
769.151	19.89
769.33	19.54
769.51	19.08
769.689	19.3
769.868	19.89
770.047	20.24
770.226	20.84
770.406	20.17
770.585	19.64
770.764	20.32
770.943	19.14
771.122	18.43
771.301	18.45
771.48	18.23
771.66	17.61
771.839	15.89
772.018	15.8
772.197	16.04
772.376	17.68
772.555	17.85
772.734	17.49
772.913	17.65
773.092	18.45
773.271	18.9
773.449	19.39
773.628	19.25
773.807	20.47
773.986	20.37
774.165	19.9
774.344	18.61
774.523	18.19
774.701	18.42
774.88	18.66
775.059	19.02
775.238	18.1
775.417	17.81
775.595	17.48
775.774	16.32
775.953	15.88
776.131	15.98
776.31	15.55
776.489	15.97
776.667	15.51
776.846	14.82
777.025	14.55
777.203	15.14
777.382	15.69
777.56	16.58
777.739	17.48
777.917	18.51
778.096	18.24
778.274	18.82
778.453	18.88
778.631	19.41
778.81	19.42
778.988	18.77
779.166	18.76
779.345	18.36
779.523	17.98
779.702	18.08
779.88	18.08
780.058	18.65
780.237	17.95
780.415	17.92
780.593	18.25
780.771	18.54
780.95	18.22
781.128	18.84
781.306	18.97
781.484	19.55
781.662	19.66
781.841	19.44
782.019	19.26
782.197	19.51
782.375	19.14
782.553	18.59
782.731	18.47
782.909	19.37
783.087	18.77
783.265	19.31
783.443	19.54
783.621	19.04
783.799	20.01
783.977	19.92
784.155	20.93
784.333	21.23
784.511	21.18
784.689	21.36
784.867	20.99
785.045	22.45
785.223	21.3
785.4	21.11
785.578	20.47
785.756	18.76
785.934	19.06
786.112	18.55
786.289	19.28
786.467	18.67
786.645	18.28
786.823	18.89
787	18.31
787.178	18.63
787.356	18.05
787.533	18.63
787.711	18.91
787.889	18.49
788.066	18.56
788.244	18.48
788.421	18.5
788.599	19.5
788.776	19.09
788.954	18.31
789.131	18.56
789.309	18.99
789.486	17.94
789.664	17.73
789.841	19.12
790.019	19.54
790.196	19.21
790.373	19.21
790.551	18.7
790.728	18.66
790.906	18.93
791.083	18.04
791.26	18.3
791.437	19.11
791.615	19.3
791.792	17.83
791.969	17.04
792.146	16.42
792.324	16.77
792.501	17.15
792.678	15.93
792.855	16.41
793.032	17.19
793.209	16.75
793.387	16.52
793.564	17.54
793.741	17.98
793.918	18.4
794.095	18.86
794.272	19.8
794.449	19.68
794.626	21.2
794.803	21.26
794.98	21.82
795.157	22.47
795.334	22.82
795.511	21.61
795.688	20.35
795.864	20.44
796.041	20.64
796.218	19.66
796.395	19.36
796.572	19.37
796.749	19.51
796.925	19.5
797.102	18.51
797.279	18.86
797.456	19.86
797.632	21.58
797.809	21.16
797.986	20.89
798.162	21.32
798.339	21.39
798.516	20.54
798.692	20.18
798.869	20.26
799.046	20.59
799.222	20.36
799.399	19.87
799.575	18.89
799.752	19.1
799.928	19.33
800.105	19.56
800.281	19.68
800.458	19.78
800.634	19.63
800.811	19.53
800.987	20.72
801.163	20.82
801.34	20.51
801.516	20.51
801.692	20.24
801.869	20.2
802.045	20.29
802.221	20.08
802.398	20.48
802.574	19.87
802.75	18.77
802.926	17.42
803.103	16.29
803.279	16.51
803.455	17.02
803.631	16.91
803.807	15.95
803.983	15.7
804.16	16.09
804.336	16.88
804.512	18.62
804.688	18.84
804.864	18.65
805.04	19.58
805.216	19.85
805.392	19.33
805.568	19.53
805.744	20.71
805.92	19.99
806.096	19.39
806.272	18.3
806.448	17.39
806.623	17.41
806.799	17.6
806.975	17.93
807.151	18.78
807.327	19.13
807.503	18.98
807.678	18.33
807.854	18.94
808.03	18.33
808.206	18.79
808.381	18.97
808.557	19.73
808.733	20.88
808.908	21.09
809.084	20.33
809.26	21.62
809.435	21.76
809.611	21.25
809.787	21.74
809.962	22.91
810.138	22.91
810.313	23.15
810.489	22.47
810.664	21.64
810.84	20.26
811.015	19.88
811.191	17.13
811.366	17.66
811.542	18.72
811.717	19.29
811.892	19.75
812.068	19.78
812.243	18.5
812.419	18.42
812.594	18.15
812.769	19.52
812.944	20.41
813.12	20.34
813.295	19.04
813.47	19.17
813.645	18.68
813.821	18.74
813.996	18.41
814.171	18.57
814.346	18.65
814.521	19.66
814.697	18.18
814.872	17.53
815.047	18.38
815.222	19.7
815.397	19.82
815.572	19.02
815.747	18.49
815.922	18.84
816.097	19.99
816.272	19.66
816.447	18.11
816.622	20.39
816.797	21.28
816.972	21.92
817.147	21.92
817.322	21.25
817.496	21.67
817.671	21.61
817.846	21.13
818.021	19.91
818.196	19.96
818.371	18.89
818.545	17.81
818.72	17.7
818.895	17.45
819.069	16.83
819.244	16.82
819.419	17.59
819.594	17.89
819.768	18.95
819.943	19.76
820.117	20.31
820.292	20.53
820.467	20.74
820.641	20.41
820.816	21.32
820.99	21.88
821.165	21.73
821.339	21.51
821.514	21.35
821.688	21.36
821.863	20.97
822.037	21.01
822.212	21.21
822.386	21.25
822.56	21.41
822.735	21.18
822.909	20.99
823.084	21.15
823.258	21.12
823.432	21.33
823.606	21.49
823.781	21.79
823.955	21.89
824.129	21.92
824.303	21.75
824.478	21.89
824.652	21.91
824.826	22.11
825	21.9
825.174	22.11
825.348	21.68
825.523	21
825.697	20.97
825.871	21.11
826.045	21.8
826.219	22.34
826.393	21.92
826.567	21.59
826.741	21.2
826.915	21.43
827.089	21.24
827.263	21.46
827.437	22.11
827.611	22.2
827.784	21.9
827.958	21.28
828.132	20.84
828.306	21.41
828.48	21.73
828.654	22.44
828.827	22.33
829.001	22.38
829.175	22.41
829.349	21.32
829.522	22.03
829.696	21.73
829.87	22.18
830.044	22.46
830.217	21.3
830.391	20.76
830.565	18.96
830.738	18.94
830.912	18.7
831.085	18.08
831.259	17.64
831.432	16.08
831.606	16.45
831.779	15.73
831.953	14.87
832.126	16.35
832.3	16.96
832.473	17.72
832.647	18.46
832.82	18.81
832.994	19.68
833.167	20.6
833.34	20.78
833.514	20.93
833.687	21.85
833.86	22.43
834.034	21.89
834.207	21.45
834.38	21.83
834.553	21.56
834.727	21.87
834.9	22.03
835.073	21.87
835.246	21.94
835.419	21.72
835.593	20.61
835.766	20.73
835.939	20.45
836.112	20.18
836.285	19.79
836.458	18.96
836.631	17.53
836.804	16.92
836.977	17.01
837.15	17.88
837.323	17.41
837.496	17.1
837.669	15.19
837.842	16.08
838.015	16.81
838.188	17.3
838.361	19.08
838.533	20.83
838.706	19.77
838.879	20.11
839.052	19.19
839.225	18.53
839.398	18.6
839.57	21.38
839.743	19.38
839.916	19.89
840.088	20.07
840.261	18.79
840.434	16.73
840.607	18.82
840.779	17.19
840.952	16.79
841.124	19.57
841.297	21.38
841.47	19.22
841.642	20.89
841.815	18.8
841.987	18.01
842.16	18.35
842.332	19.06
842.505	18.3
842.677	16.82
842.85	18.62
843.022	15.43
843.194	13.72
843.367	14.89
843.539	14.46
843.712	15.53
843.884	16.8
844.056	18.55
844.229	17.99
844.401	18.95
844.573	20.36
844.745	18.22
844.918	18.67
845.09	17.5
845.262	14.25
845.434	14.39
845.606	14.03
845.779	11.2
845.951	8.62
846.123	8.89
846.295	7.76
846.467	9.32
846.639	10.4
846.811	13.67
846.983	14.31
847.155	16.8
847.327	16.1
847.499	19.77
847.671	21.38
847.843	20.58
848.015	21.58
848.187	20
848.359	20.03
848.531	19.67
848.703	19.17
848.875	18.64
849.047	19.43
849.218	16.24
849.39	12.3
849.562	11.17
849.734	11.81
849.905	12.85
850.077	11.76
850.249	11.15
850.421	11.39
850.592	9.68
850.764	11.41
850.936	8.63
851.107	15.85
851.279	15.6
851.451	14.32
851.622	12.75
851.794	10.07
851.965	9.86
852.137	9.28
852.308	4.21
852.48	4.17
852.651	6.16
852.823	9.85
852.994	4.37
853.166	1.9
853.337	2.72
853.509	0.09
853.68	0.96
853.851	2.79
854.023	3.04
854.194	8.07
854.365	9.24
854.537	5.81
854.708	3.72
854.879	4.99
855.05	8.66
855.222	8.99
855.393	13.81
855.564	13.48
855.735	12.87
855.906	10.57
856.078	7.41
856.249	1.37
856.42	5.66
856.591	8.52
856.762	8.6
856.933	11.92
857.104	9.36
857.275	5.28
857.446	8.27
857.617	8.19
857.788	10.84
857.959	12.04
858.13	15.11
858.301	11.36
858.472	8.43
858.643	6.41
858.814	0.28
858.985	4.04
859.155	6.32
859.326	1.45
859.497	0.1
859.668	2.7
859.839	3.35
860.009	2.94
860.18	2.31
860.351	3.42
860.522	5.81
860.692	12.85
860.863	12.87
861.034	15.79
861.204	21.31
861.375	24.83
861.546	21.84
861.716	22.04
861.887	17.37
862.057	14.95
862.228	16.18
862.398	14.69
862.569	10.01
862.739	5.52
862.91	1.4
863.08	-2.74
863.251	-8.48
863.421	-11.23
863.592	-13.14
863.762	-2.44
863.932	6.92
864.103	4.18
864.273	4.14
864.443	4.08
864.614	8.77
864.784	9.83
864.954	9.22
865.125	14.88
865.295	20.74
865.465	21.24
865.635	19.13
865.805	14.71
865.976	19.21
866.146	18.97
866.316	17.49
866.486	13.45
866.656	12.89
866.826	14.36
866.996	9.07
867.166	5.03
867.336	6.48
867.506	4.37
867.676	4.5
867.846	-0.89
868.016	-1.53
868.186	0.63
868.356	2.02
868.526	5.08
868.696	-0.69
868.866	0.36
869.036	4.17
869.206	6.32
869.376	1.57
869.545	0.87
869.715	2.5
869.885	3.78
870.055	4.92
870.224	9.32
870.394	9.37
870.564	12.33
870.734	16.67
870.903	11.46
871.073	7.24
871.243	11.96
871.412	11.81
871.582	11.52
871.751	10.81
871.921	12.61
872.091	8.44
872.26	4.04
872.43	9.9
872.599	5.57
872.769	11.25
872.938	12.47
873.108	9.85
873.277	13.31
873.446	14.59
873.616	19.3
873.785	16.08
873.955	16.93
874.124	18.89
874.293	16.05
874.463	18.5
874.632	16.09
874.801	21.21
874.971	20.41
875.14	17.46
875.309	15.84
875.478	11.16
875.647	13.5
875.817	10.43
875.986	7.83
876.155	7.96
876.324	8.22
876.493	7.64
876.662	4.5
876.831	7.48
877	9.53
877.17	11.77
877.339	15.86
877.508	18
877.677	20.9
877.846	20.94
878.015	20.21
878.184	17.07
878.352	15.97
878.521	15.39
878.69	15.12
878.859	15.83
879.028	16.89
879.197	17.2
879.366	15.25
879.534	14.9
879.703	19.17
879.872	22.16
880.041	23.9
880.21	24.67
880.378	25.43
880.547	24.7
880.716	23.63
880.884	24.52
881.053	24.04
881.222	24.7
881.39	24.82
881.559	24.72
881.727	24.05
881.896	23.95
882.065	23.69
882.233	23.37
882.402	23.27
882.57	23.61
882.739	23.07
882.907	22.77
883.076	22.68
883.244	23.74
883.412	24.39
883.581	23.9
883.749	23.85
883.918	23.36
884.086	23.66
884.254	23.96
884.423	23.54
884.591	23.73
884.759	24.22
884.927	23.97
885.096	21.19
885.264	19.06
885.432	18.21
885.6	17.26
885.769	17.46
885.937	16.13
886.105	15.46
886.273	16.98
886.441	12.55
886.609	9.54
886.777	6.19
886.945	6.77
887.113	4.27
887.281	6.33
887.449	5.23
887.617	5.63
887.785	5.38
887.953	5.85
888.121	0.56
888.289	4.5
888.457	7.14
888.625	7.04
888.793	3.25
888.961	3.65
889.129	3.29
889.296	1.61
889.464	0.15
889.632	-0.6
889.8	-3.9
889.967	-1.18
890.135	-4.22
