Data from 2938500_Reflection_00-18-38-856.txt Node
Date: Wed Jun 17 00:18:38 EDT 2015
User: robert
Spectrometer: USB4E03002
Autoset integration time: false
Trigger mode: 4
Integration Time (sec): 1.000000E-1
Scans to average: 10
Electric dark correction enabled: true
Nonlinearity correction enabled: false
Boxcar width: 5
Stray light correction enabled: false
XAxis mode: Wavelengths
Stop averaging: false
Number of Pixels in Spectrum: 3648
>>>>>Begin Spectral Data<<<<<
177.575	43.76
177.794	-940.74
178.014	220.98
178.233	72.39
178.452	102.03
178.672	69.9
178.891	-72.83
179.11	-173.37
179.33	-45.73
179.549	-78.52
179.768	600
179.987	187.66
180.207	259.84
180.426	-844.44
180.645	318.01
180.864	1533.86
181.084	-568.19
181.303	-285.33
181.522	-3487.05
181.741	-962.25
181.96	274.8
182.179	446.88
182.398	-251.9
182.618	-623.06
182.837	89.2
183.056	875.63
183.275	97.97
183.494	-448.13
183.713	-1268.75
183.932	105.82
184.151	244.59
184.37	26.35
184.589	66.62
184.808	97.68
185.027	123.13
185.246	140.61
185.465	154.08
185.684	200.11
185.903	199.63
186.122	337.06
186.341	241.91
186.56	1474.14
186.779	-383.02
186.998	-303.25
187.216	-71.17
187.435	-47.2
187.654	-43.97
187.873	-86.85
188.092	-108.85
188.311	-187.86
188.53	-151.86
188.748	-531.59
188.967	-152.4
189.186	-173.53
189.405	-23.88
189.623	-188.77
189.842	266.83
190.061	-514.29
190.28	197.7
190.498	889.76
190.717	911.7
190.936	-2276.11
191.154	-168.06
191.373	5517.39
191.592	8006.98
191.81	470.64
192.029	274.84
192.248	1358.73
192.466	309.02
192.685	-352.01
192.904	-42.85
193.122	-121.47
193.341	-274.41
193.559	2081.27
193.778	-982.7
193.996	-564.45
194.215	300.41
194.433	1345.83
194.652	1843.48
194.87	6734.71
195.089	563.73
195.307	418.25
195.526	415.4
195.744	307.58
195.963	392.33
196.181	628.14
196.399	309.37
196.618	-178.92
196.836	1144.38
197.055	-984.13
197.273	-64.7
197.491	-28.54
197.71	-66.03
197.928	-76.29
198.146	-35.84
198.365	-47.92
198.583	-126.58
198.801	-45.42
199.019	-138.51
199.238	-127.19
199.456	-107.06
199.674	-102.72
199.892	-39.1
200.111	-53.27
200.329	-149.5
200.547	-4302.08
200.765	-43.14
200.983	21
201.202	-25.85
201.42	22.34
201.638	15.24
201.856	17.63
202.074	-28.59
202.292	-29.65
202.51	-23.81
202.728	30.34
202.946	18.77
203.165	-13.75
203.383	-13.02
203.601	-1.54
203.819	16.31
204.037	-76.48
204.255	-273.22
204.473	-198.97
204.691	-249.71
204.909	-202.09
205.127	-676.58
205.345	113700
205.562	91.9
205.78	211.89
205.998	347.89
206.216	-17540.91
206.434	-159.03
206.652	-33.89
206.87	27.05
207.088	65.55
207.306	50.74
207.523	20.96
207.741	24.57
207.959	-1.72
208.177	-21.65
208.395	-18.63
208.612	-30.44
208.83	3.63
209.048	-46.06
209.266	-124.77
209.483	-270.63
209.701	-460.05
209.919	-297.01
210.136	-205.25
210.354	-286.14
210.572	-147.53
210.79	-293.31
211.007	-269.57
211.225	-128.4
211.442	-150.52
211.66	-125.5
211.878	-55.36
212.095	-49.49
212.313	-53.7
212.53	-113.48
212.748	-84.77
212.966	-104.26
213.183	-54.47
213.401	-40.93
213.618	-113.57
213.836	-113.85
214.053	-77.44
214.271	-172.5
214.488	-362.94
214.705	-942.4
214.923	-181.39
215.14	-203.79
215.358	-826.43
215.575	299.48
215.793	2358.1
216.01	441.19
216.227	460.94
216.445	699.77
216.662	463.73
216.879	742.58
217.097	853.58
217.314	599.05
217.531	814.22
217.749	821.23
217.966	-553.12
218.183	3533.23
218.4	-1970.91
218.618	-209.47
218.835	-250.05
219.052	-181.51
219.269	-37.07
219.487	-15.37
219.704	-18.81
219.921	-53.94
220.138	-47.28
220.355	-52.73
220.572	-54.05
220.79	-27.73
221.007	-50.18
221.224	-62.81
221.441	-62.34
221.658	-111.29
221.875	-110.76
222.092	-78.15
222.309	-44.85
222.526	-43.93
222.743	-47.26
222.96	-15.3
223.177	-24.66
223.394	-7.5
223.611	-8.91
223.828	6.7
224.045	13.08
224.262	12.79
224.479	16.72
224.696	16.95
224.913	17.93
225.13	13.68
225.347	10.42
225.564	13.13
225.781	11.7
225.997	12.61
226.214	13.28
226.431	14.06
226.648	15.58
226.865	15.55
227.082	12.48
227.298	11.5
227.515	12.48
227.732	9.11
227.949	7.72
228.165	6.37
228.382	9.62
228.599	7.83
228.816	7.15
229.032	4.78
229.249	3.83
229.466	5.81
229.682	5.04
229.899	6.71
230.116	10.75
230.332	12.16
230.549	13.55
230.765	10.15
230.982	11.24
231.199	11.2
231.415	15.15
231.632	14.05
231.848	13.47
232.065	11.84
232.281	13.12
232.498	12.19
232.714	8.95
232.931	7.44
233.147	7.75
233.364	7.89
233.58	8.73
233.797	5.08
234.013	7.78
234.23	6.81
234.446	6.03
234.662	1.14
234.879	0.67
235.095	4.23
235.312	4.23
235.528	6.67
235.744	8.15
235.961	10.55
236.177	11.91
236.393	12.03
236.61	15.22
236.826	17.78
237.042	19.5
237.258	19.12
237.475	20.05
237.691	20.89
237.907	16.54
238.123	14.76
238.339	10.39
238.556	11.83
238.772	7.41
238.988	4.87
239.204	7.12
239.42	7.15
239.636	8.24
239.853	9.3
240.069	10.02
240.285	12.25
240.501	12.86
240.717	13.46
240.933	14.32
241.149	15.08
241.365	16.96
241.581	15.09
241.797	15.67
242.013	15.39
242.229	14.94
242.445	14.39
242.661	13.91
242.877	13.43
243.093	13.91
243.309	12.43
243.525	12.7
243.741	11.37
243.957	11.71
244.173	10.94
244.388	10.59
244.604	11.44
244.82	12.05
245.036	12.51
245.252	11.93
245.468	11.98
245.683	11.94
245.899	12.33
246.115	12.28
246.331	13.4
246.547	13.69
246.762	14.07
246.978	13.7
247.194	13.77
247.409	13.51
247.625	13.79
247.841	13.89
248.057	14.23
248.272	14.33
248.488	14.39
248.703	13
248.919	13.41
249.135	11.79
249.35	10.88
249.566	10.34
249.782	9.66
249.997	9.28
250.213	7.66
250.428	6.19
250.644	5.88
250.859	6.22
251.075	7.24
251.29	6.92
251.506	7.83
251.721	8.27
251.937	8.09
252.152	8.61
252.368	9.1
252.583	8.72
252.798	10.85
253.014	11.31
253.229	11.5
253.445	8.23
253.66	7.58
253.875	6.44
254.091	6.73
254.306	5.41
254.521	3.05
254.737	3.55
254.952	3.28
255.167	3.96
255.383	3.45
255.598	2.05
255.813	4.28
256.028	4.55
256.244	4.98
256.459	5.21
256.674	6.12
256.889	7.56
257.104	7.71
257.32	8.97
257.535	8.62
257.75	9.06
257.965	9.91
258.18	9.27
258.395	9.3
258.61	9.5
258.826	9.28
259.041	9.32
259.256	8.92
259.471	8.9
259.686	8.76
259.901	8.84
260.116	8.58
260.331	7.83
260.546	8.52
260.761	8.14
260.976	7.76
261.191	7.7
261.406	7.36
261.621	7.35
261.836	6.87
262.05	5.61
262.265	6.05
262.48	5.16
262.695	6.03
262.91	4.51
263.125	4.48
263.34	4.52
263.555	5.32
263.769	4.67
263.984	5.4
264.199	5.48
264.414	6.33
264.629	5.82
264.843	6.34
265.058	6.99
265.273	7.5
265.488	7.38
265.702	7.27
265.917	7.23
266.132	8.12
266.346	8.41
266.561	8.64
266.776	8.28
266.99	8.8
267.205	8.98
267.42	8.57
267.634	9.1
267.849	9.06
268.063	9.96
268.278	9.28
268.492	8.89
268.707	9.19
268.922	9.1
269.136	9.24
269.351	8.73
269.565	8.36
269.78	7.94
269.994	7.71
270.209	7.51
270.423	7.14
270.637	7.66
270.852	8.02
271.066	6.94
271.281	5.94
271.495	5.78
271.709	5.61
271.924	5.74
272.138	6.48
272.353	6.22
272.567	6.97
272.781	7.09
272.996	5.77
273.21	5.24
273.424	4.95
273.638	6.1
273.853	6.58
274.067	5.43
274.281	4.29
274.495	3
274.71	3.6
274.924	3.46
275.138	3.26
275.352	4.94
275.566	4.62
275.781	6.11
275.995	6.1
276.209	5.69
276.423	6.48
276.637	7.7
276.851	7.99
277.065	7.23
277.279	7.01
277.493	7.82
277.707	7.27
277.921	7.11
278.135	6.46
278.349	6.11
278.563	6.63
278.777	6.78
278.991	5.44
279.205	5.4
279.419	6.77
279.633	7.48
279.847	7.27
280.061	7
280.275	7.6
280.489	8.11
280.703	8.52
280.917	8.25
281.131	7.82
281.344	9
281.558	8.73
281.772	8.24
281.986	7.32
282.2	6.83
282.414	6.64
282.627	6.55
282.841	5.5
283.055	4.96
283.269	4.96
283.482	5.68
283.696	5.48
283.91	5.92
284.123	5.82
284.337	6.3
284.551	6.11
284.764	6.46
284.978	6.47
285.192	6.59
285.405	7.05
285.619	7.07
285.833	7.08
286.046	7.77
286.26	7.36
286.473	7.72
286.687	8.34
286.9	8.4
287.114	8.94
287.327	9.4
287.541	9.73
287.754	9.33
287.968	9.33
288.181	9.18
288.395	8.3
288.608	8.35
288.822	7.69
289.035	7.27
289.248	7.16
289.462	6.56
289.675	5.95
289.889	5.25
290.102	5.59
290.315	5.64
290.529	5.56
290.742	5.29
290.955	5.18
291.169	5.53
291.382	5.35
291.595	5.97
291.808	5.67
292.022	6.1
292.235	7.2
292.448	6.78
292.661	6.47
292.875	6.88
293.088	7.21
293.301	7.32
293.514	7.56
293.727	7.09
293.94	6.65
294.153	7
294.367	7.08
294.58	6.91
294.793	7.13
295.006	7.82
295.219	7.6
295.432	7.74
295.645	7.93
295.858	7.87
296.071	8.52
296.284	8.71
296.497	8.49
296.71	8.55
296.923	8.5
297.136	8.28
297.349	7.34
297.562	7.04
297.775	6.71
297.988	6.66
298.201	6.28
298.414	5.59
298.626	5.35
298.839	6.01
299.052	5.51
299.265	4.99
299.478	5.48
299.691	6.81
299.903	5.99
300.116	6.11
300.329	6.07
300.542	5.82
300.755	5.39
300.967	5.51
301.18	5.24
301.393	6
301.605	6.47
301.818	5.79
302.031	5.02
302.243	5.79
302.456	6.38
302.669	6.5
302.881	6.27
303.094	7.57
303.307	7.76
303.519	7.71
303.732	6.94
303.944	7.16
304.157	7.95
304.37	7.68
304.582	8.09
304.795	7.74
305.007	6.8
305.22	6.62
305.432	6.95
305.645	6.24
305.857	5.84
306.069	6.2
306.282	6.26
306.494	5.72
306.707	6.11
306.919	5.85
307.132	5.78
307.344	6.88
307.556	7.2
307.769	6.66
307.981	6.84
308.193	6.99
308.406	6.45
308.618	6.69
308.83	6.86
309.043	7.19
309.255	7.32
309.467	6.83
309.679	6.17
309.892	6.27
310.104	5.76
310.316	5.9
310.528	5.9
310.74	6.35
310.953	6.1
311.165	6.04
311.377	5.55
311.589	5.16
311.801	5.31
312.013	5.69
312.225	5.41
312.437	5.72
312.649	5.62
312.862	5.13
313.074	5.29
313.286	5.31
313.498	5.17
313.71	5.28
313.922	5.74
314.134	5.74
314.346	6.38
314.558	7.01
314.77	7.26
314.982	7.08
315.193	7.28
315.405	6.81
315.617	6.58
315.829	6.63
316.041	6.18
316.253	6.63
316.465	6.69
316.677	6.24
316.888	5.84
317.1	5.58
317.312	5.84
317.524	6.68
317.736	7.11
317.947	7.75
318.159	8.19
318.371	9.02
318.583	7.95
318.794	8.1
319.006	8.07
319.218	8.05
319.43	8.27
319.641	8.42
319.853	7.39
320.064	6.7
320.276	6.83
320.488	6.56
320.699	6.08
320.911	7.05
321.123	7.04
321.334	7.07
321.546	7.42
321.757	7.3
321.969	7.89
322.18	8.62
322.392	9.21
322.603	8.02
322.815	7.69
323.026	7.27
323.238	7.36
323.449	7.12
323.661	7.04
323.872	6.99
324.083	7.06
324.295	6.51
324.506	6.73
324.718	6.85
324.929	7.79
325.14	8.09
325.352	8.42
325.563	8
325.774	8.95
325.986	8.56
326.197	8.99
326.408	8.61
326.62	8.9
326.831	8.68
327.042	8.76
327.253	8.52
327.464	8.25
327.676	8.36
327.887	8.7
328.098	8.54
328.309	8.87
328.52	8.77
328.732	9.61
328.943	9.8
329.154	10.05
329.365	9.87
329.576	9.66
329.787	10.15
329.998	10.41
330.209	9.96
330.42	9.9
330.631	10.32
330.842	9.95
331.053	9.63
331.264	9.69
331.475	9.07
331.686	8.89
331.897	9.56
332.108	9.8
332.319	10.03
332.53	10.13
332.741	9.42
332.952	8.87
333.163	9.04
333.374	8.7
333.585	8.13
333.795	8.48
334.006	8.33
334.217	8.01
334.428	7.65
334.639	7.55
334.849	7.84
335.06	7.65
335.271	7.87
335.482	7.87
335.692	8.57
335.903	8.98
336.114	8.71
336.325	8.77
336.535	8.62
336.746	8.43
336.957	8.17
337.167	7.85
337.378	8.51
337.589	8.28
337.799	8.13
338.01	7.75
338.22	7.38
338.431	7.49
338.642	7.41
338.852	7.4
339.063	7.17
339.273	7.3
339.484	7.52
339.694	7.77
339.905	8.45
340.115	8.91
340.326	8.56
340.536	8.37
340.746	8.34
340.957	8.08
341.167	8.41
341.378	8.62
341.588	8.78
341.799	8.75
342.009	8.37
342.219	8
342.43	7.64
342.64	7.73
342.85	7.67
343.061	7.96
343.271	8.18
343.481	7.68
343.691	7.69
343.902	7.79
344.112	7.82
344.322	7.91
344.532	7.63
344.743	7.49
344.953	7.68
345.163	7.98
345.373	7.73
345.583	8.06
345.793	8.29
346.004	8.33
346.214	7.88
346.424	7.32
346.634	7.05
346.844	7.19
347.054	7.3
347.264	7.37
347.474	7.12
347.684	7.09
347.894	6.67
348.104	6.35
348.314	6.36
348.524	6.34
348.734	6.56
348.944	6.47
349.154	6.63
349.364	6.63
349.574	6.55
349.784	6.77
349.994	6.73
350.204	7.06
350.413	7.53
350.623	7.81
350.833	7.82
351.043	7.67
351.253	8.12
351.463	7.97
351.672	7.9
351.882	8.22
352.092	8.04
352.302	8.24
352.511	8.33
352.721	7.85
352.931	7.66
353.141	7.77
353.35	7.85
353.56	7.53
353.77	7.53
353.979	7.84
354.189	7.37
354.399	7.56
354.608	7.38
354.818	6.89
355.027	7.14
355.237	6.97
355.447	6.92
355.656	6.89
355.866	6.97
356.075	6.86
356.285	6.51
356.494	6.66
356.704	6.34
356.913	6.25
357.123	6.42
357.332	6.15
357.542	6.25
357.751	6.26
357.96	6.45
358.17	6.5
358.379	6.57
358.589	6.71
358.798	6.49
359.007	6.53
359.217	6.64
359.426	6.91
359.635	6.78
359.845	6.69
360.054	6.61
360.263	6.7
360.472	6.76
360.682	6.85
360.891	6.78
361.1	6.8
361.309	6.98
361.519	6.62
361.728	6.3
361.937	6.52
362.146	6.41
362.355	6.37
362.564	6.2
362.774	6
362.983	5.86
363.192	5.96
363.401	6.07
363.61	5.91
363.819	6.22
364.028	6.14
364.237	6.19
364.446	6.28
364.655	6.12
364.864	6.05
365.073	6.14
365.282	6.17
365.491	6.04
365.7	5.8
365.909	5.69
366.118	5.56
366.327	5.65
366.536	5.62
366.745	5.38
366.954	5.51
367.162	5.69
367.371	5.55
367.58	5.75
367.789	5.96
367.998	6.04
368.207	5.92
368.415	6.16
368.624	6.49
368.833	6.33
369.042	6.67
369.25	6.63
369.459	6.28
369.668	6.36
369.877	6.08
370.085	5.88
370.294	6.03
370.503	6.6
370.711	6.32
370.92	6.12
371.129	6.1
371.337	6.01
371.546	6.1
371.754	6.07
371.963	5.69
372.171	5.86
372.38	5.98
372.589	5.89
372.797	5.56
373.006	5.83
373.214	5.6
373.423	5.64
373.631	5.68
373.84	5.79
374.048	5.95
374.256	6.35
374.465	6.12
374.673	5.89
374.882	5.73
375.09	5.87
375.298	5.72
375.507	5.85
375.715	5.65
375.923	5.68
376.132	5.57
376.34	5.76
376.548	5.57
376.757	5.66
376.965	5.62
377.173	5.91
377.381	5.72
377.59	5.8
377.798	5.98
378.006	6.27
378.214	5.9
378.423	5.68
378.631	5.63
378.839	5.67
379.047	5.46
379.255	5.43
379.463	5.02
379.671	4.84
379.879	4.88
380.088	4.88
380.296	4.84
380.504	5.06
380.712	5.4
380.92	5.14
381.128	5
381.336	5.3
381.544	5.48
381.752	5.54
381.96	5.66
382.168	5.72
382.376	5.41
382.584	5.38
382.791	5.26
382.999	5.34
383.207	5.37
383.415	5.7
383.623	5.61
383.831	5.56
384.039	5.82
384.247	5.97
384.454	5.8
384.662	5.72
384.87	5.64
385.078	5.91
385.285	5.88
385.493	5.88
385.701	5.46
385.909	5.51
386.116	5.51
386.324	5.5
386.532	5.3
386.739	5.33
386.947	5.42
387.155	5.4
387.362	5.29
387.57	5.38
387.778	5.48
387.985	5.66
388.193	5.58
388.4	5.49
388.608	5.35
388.816	5.5
389.023	5.5
389.231	5.68
389.438	5.76
389.646	5.77
389.853	5.56
390.061	5.49
390.268	5.53
390.475	5.46
390.683	5.42
390.89	5.37
391.098	5.17
391.305	5.07
391.512	5.1
391.72	5.07
391.927	4.8
392.135	4.86
392.342	4.8
392.549	4.82
392.756	4.98
392.964	5.06
393.171	5.1
393.378	5.24
393.586	5.26
393.793	5.24
394	5.25
394.207	5.55
394.414	5.56
394.622	5.65
394.829	5.58
395.036	5.37
395.243	5.52
395.45	5.55
395.657	5.6
395.864	5.79
396.072	5.62
396.279	5.57
396.486	5.43
396.693	5.16
396.9	5.11
397.107	5.23
397.314	5.38
397.521	5.08
397.728	5.02
397.935	4.92
398.142	4.61
398.349	4.54
398.556	4.62
398.763	4.59
398.97	4.76
399.177	4.73
399.383	4.66
399.59	4.76
399.797	4.73
400.004	4.61
400.211	4.83
400.418	4.89
400.625	4.83
400.831	4.54
401.038	4.6
401.245	4.5
401.452	4.58
401.658	4.57
401.865	4.45
402.072	4.59
402.279	4.62
402.485	4.47
402.692	4.45
402.899	4.46
403.105	4.59
403.312	4.57
403.519	4.55
403.725	4.44
403.932	4.5
404.138	4.64
404.345	4.65
404.552	4.57
404.758	4.54
404.965	4.51
405.171	4.57
405.378	4.66
405.584	4.75
405.791	4.7
405.997	4.83
406.204	4.87
406.41	4.77
406.617	4.75
406.823	4.8
407.029	4.77
407.236	4.95
407.442	5.06
407.649	5.04
407.855	4.87
408.061	5.02
408.268	4.99
408.474	4.97
408.68	4.8
408.887	4.75
409.093	4.81
409.299	4.88
409.505	4.73
409.712	4.54
409.918	4.54
410.124	4.67
410.33	4.61
410.537	4.63
410.743	4.59
410.949	4.69
411.155	4.73
411.361	4.75
411.567	4.77
411.773	4.87
411.98	4.87
412.186	4.88
412.392	4.83
412.598	4.86
412.804	4.9
413.01	4.93
413.216	5.18
413.422	5.17
413.628	5.05
413.834	5.04
414.04	5.08
414.246	5.16
414.452	5.07
414.658	4.99
414.864	4.94
415.07	4.83
415.275	4.73
415.481	4.62
415.687	4.6
415.893	4.73
416.099	4.67
416.305	4.78
416.511	4.93
416.716	4.94
416.922	5.04
417.128	5.09
417.334	5.03
417.539	5.01
417.745	4.9
417.951	4.94
418.157	4.96
418.362	5.01
418.568	4.92
418.774	4.74
418.979	4.76
419.185	4.72
419.391	4.66
419.596	4.79
419.802	4.74
420.008	4.74
420.213	5.3
420.419	5.2
420.624	5.21
420.83	5.18
421.035	5.27
421.241	5.34
421.446	5.36
421.652	5.44
421.857	5.42
422.063	5.44
422.268	5.44
422.474	4.84
422.679	4.86
422.885	4.84
423.09	4.86
423.295	4.88
423.501	4.77
423.706	4.72
423.911	4.72
424.117	4.61
424.322	4.67
424.527	4.67
424.733	4.64
424.938	4.7
425.143	4.66
425.349	4.67
425.554	4.61
425.759	4.66
425.964	4.76
426.169	4.69
426.375	4.76
426.58	4.78
426.785	4.76
426.99	4.77
427.195	4.68
427.4	4.79
427.605	4.79
427.811	4.78
428.016	4.77
428.221	4.75
428.426	4.84
428.631	4.88
428.836	4.72
429.041	4.79
429.246	4.79
429.451	4.81
429.656	4.62
429.861	4.58
430.066	4.69
430.271	4.7
430.476	4.58
430.681	4.58
430.886	4.6
431.09	4.71
431.295	4.65
431.5	4.71
431.705	4.74
431.91	4.82
432.115	4.79
432.32	4.7
432.524	4.76
432.729	4.73
432.934	4.75
433.139	4.75
433.343	4.73
433.548	4.81
433.753	4.82
433.958	4.91
434.162	4.95
434.367	4.93
434.572	4.89
434.776	4.83
434.981	4.87
435.186	4.85
435.39	4.75
435.595	4.76
435.799	4.75
436.004	4.78
436.209	4.65
436.413	4.65
436.618	4.79
436.822	4.99
437.027	4.92
437.231	4.89
437.436	4.79
437.64	4.83
437.845	4.86
438.049	4.82
438.253	4.79
438.458	4.81
438.662	4.7
438.867	4.63
439.071	4.42
439.275	4.52
439.48	4.58
439.684	4.59
439.888	4.62
440.093	4.6
440.297	4.6
440.501	4.64
440.706	4.6
440.91	4.63
441.114	4.62
441.318	4.74
441.523	4.66
441.727	4.65
441.931	4.63
442.135	4.65
442.339	4.59
442.543	4.63
442.748	4.54
442.952	4.57
443.156	4.67
443.36	4.69
443.564	4.67
443.768	4.71
443.972	4.74
444.176	4.74
444.38	4.7
444.584	4.81
444.788	4.78
444.992	4.79
445.196	4.83
445.4	4.73
445.604	4.67
445.808	4.63
446.012	4.66
446.216	4.69
446.42	4.72
446.624	4.62
446.828	4.61
447.032	4.57
447.235	4.58
447.439	4.58
447.643	4.57
447.847	4.61
448.051	4.69
448.254	4.59
448.458	4.53
448.662	4.54
448.866	4.64
449.069	4.56
449.273	4.65
449.477	4.71
449.681	4.7
449.884	4.68
450.088	4.75
450.292	4.8
450.495	4.79
450.699	4.69
450.902	4.73
451.106	4.75
451.31	4.7
451.513	4.57
451.717	4.46
451.92	4.37
452.124	4.49
452.327	4.47
452.531	4.48
452.734	4.54
452.938	4.6
453.141	4.54
453.345	4.44
453.548	4.5
453.752	4.56
453.955	4.66
454.158	4.69
454.362	4.58
454.565	4.53
454.769	4.32
454.972	4.34
455.175	4.25
455.379	4.24
455.582	4.31
455.785	4.31
455.988	4.34
456.192	4.26
456.395	4.36
456.598	4.38
456.801	4.48
457.005	4.63
457.208	4.66
457.411	4.65
457.614	4.58
457.817	4.63
458.021	4.6
458.224	4.67
458.427	4.75
458.63	4.68
458.833	4.73
459.036	4.62
459.239	4.57
459.442	4.49
459.645	4.47
459.848	4.57
460.051	4.51
460.254	4.51
460.457	4.36
460.66	4.26
460.863	4.21
461.066	4.11
461.269	4.13
461.472	4.02
461.675	4.13
461.878	4.29
462.081	4.31
462.284	4.39
462.486	4.47
462.689	4.54
462.892	4.68
463.095	4.79
463.298	4.86
463.5	4.92
463.703	5.06
463.906	4.91
464.109	4.9
464.311	4.85
464.514	4.77
464.717	4.68
464.92	4.55
465.122	4.39
465.325	4.39
465.528	4.51
465.73	4.53
465.933	4.47
466.135	4.59
466.338	4.57
466.541	4.56
466.743	4.59
466.946	4.56
467.148	4.68
467.351	4.72
467.553	4.6
467.756	4.5
467.958	4.41
468.161	4.42
468.363	4.34
468.566	4.33
468.768	4.37
468.971	4.45
469.173	4.46
469.375	4.36
469.578	4.35
469.78	4.44
469.983	4.34
470.185	4.49
470.387	4.53
470.59	4.58
470.792	4.63
470.994	4.67
471.196	4.55
471.399	4.57
471.601	4.71
471.803	4.69
472.005	4.65
472.208	4.7
472.41	4.63
472.612	4.53
472.814	4.55
473.016	4.44
473.218	4.34
473.421	4.32
473.623	4.41
473.825	4.38
474.027	4.36
474.229	4.38
474.431	4.46
474.633	4.55
474.835	4.6
475.037	4.71
475.239	4.81
475.441	4.83
475.643	4.89
475.845	4.76
476.047	4.75
476.249	4.86
476.451	4.84
476.653	4.77
476.855	4.78
477.057	4.84
477.258	4.77
477.46	4.75
477.662	4.69
477.864	4.71
478.066	4.86
478.268	4.86
478.469	4.75
478.671	4.77
478.873	4.84
479.075	4.77
479.276	4.74
479.478	4.72
479.68	4.74
479.882	4.78
480.083	4.76
480.285	4.72
480.487	4.75
480.688	4.84
480.89	4.88
481.091	4.91
481.293	4.94
481.495	4.98
481.696	4.97
481.898	4.99
482.099	4.98
482.301	4.97
482.502	4.99
482.704	4.94
482.905	4.94
483.107	4.94
483.308	4.9
483.51	4.9
483.711	4.87
483.913	4.81
484.114	4.76
484.315	4.79
484.517	4.8
484.718	4.78
484.92	4.81
485.121	4.76
485.322	4.77
485.524	4.82
485.725	4.83
485.926	4.82
486.127	4.87
486.329	4.9
486.53	4.85
486.731	4.8
486.932	4.78
487.134	4.78
487.335	4.88
487.536	4.89
487.737	4.83
487.938	4.79
488.139	4.8
488.341	4.8
488.542	4.8
488.743	4.83
488.944	4.86
489.145	4.88
489.346	4.9
489.547	4.85
489.748	4.79
489.949	4.81
490.15	4.82
490.351	4.84
490.552	4.86
490.753	4.86
490.954	4.87
491.155	4.85
491.356	4.9
491.557	4.9
491.758	4.91
491.959	5.01
492.159	5.05
492.36	5.12
492.561	5.13
492.762	5.13
492.963	5.16
493.164	5.16
493.364	5.24
493.565	5.22
493.766	5.26
493.967	5.29
494.167	5.21
494.368	5.18
494.569	5.2
494.769	5.18
494.97	5.21
495.171	5.21
495.371	5.18
495.572	5.16
495.773	5.13
495.973	5.07
496.174	5
496.375	5.05
496.575	5.03
496.776	5.04
496.976	5.04
497.177	5.01
497.377	4.97
497.578	5.02
497.778	5.07
497.979	4.99
498.179	5.08
498.38	5.08
498.58	5.04
498.78	4.99
498.981	5
499.181	5.06
499.382	5.08
499.582	5.15
499.782	5.17
499.983	5.08
500.183	5.18
500.383	5.13
500.584	5.2
500.784	5.19
500.984	5.19
501.184	5.1
501.385	5.15
501.585	5.23
501.785	5.21
501.985	5.17
502.185	5.17
502.386	5.21
502.586	5.15
502.786	5.12
502.986	5.14
503.186	5.32
503.386	5.32
503.586	5.21
503.786	5.21
503.987	5.18
504.187	5.15
504.387	5.27
504.587	5.22
504.787	5.34
504.987	5.39
505.187	5.37
505.387	5.29
505.587	5.24
505.786	5.2
505.986	5.19
506.186	5.22
506.386	5.3
506.586	5.23
506.786	5.37
506.986	5.45
507.186	5.45
507.386	5.35
507.585	5.31
507.785	5.35
507.985	5.5
508.185	5.49
508.384	5.54
508.584	5.52
508.784	5.55
508.984	5.48
509.183	5.4
509.383	5.46
509.583	5.53
509.782	5.6
509.982	5.66
510.182	5.62
510.381	5.62
510.581	5.56
510.781	5.58
510.98	5.66
511.18	5.71
511.379	5.74
511.579	5.62
511.778	5.7
511.978	5.74
512.177	5.8
512.377	5.85
512.576	5.88
512.776	5.98
512.975	6.03
513.175	6.02
513.374	6.01
513.573	5.94
513.773	6
513.972	5.99
514.172	5.99
514.371	5.93
514.57	5.88
514.77	5.89
514.969	5.9
515.168	5.92
515.367	6.02
515.567	6.06
515.766	6.16
515.965	6.21
516.164	6.22
516.364	6.22
516.563	6.34
516.762	6.43
516.961	6.41
517.16	6.33
517.359	6.36
517.559	6.29
517.758	6.27
517.957	6.29
518.156	6.3
518.355	6.37
518.554	6.43
518.753	6.39
518.952	6.33
519.151	6.41
519.35	6.52
519.549	6.51
519.748	6.49
519.947	6.57
520.146	6.61
520.345	6.66
520.544	6.66
520.743	6.71
520.942	6.71
521.141	6.82
521.339	6.83
521.538	6.89
521.737	6.98
521.936	7.06
522.135	7.06
522.333	7.06
522.532	7.1
522.731	7.09
522.93	7.06
523.129	7.08
523.327	7.04
523.526	7.04
523.725	7.06
523.923	7.09
524.122	7.17
524.321	7.2
524.519	7.19
524.718	7.2
524.917	7.24
525.115	7.27
525.314	7.32
525.512	7.4
525.711	7.47
525.909	7.52
526.108	7.55
526.306	7.53
526.505	7.58
526.703	7.59
526.902	7.6
527.1	7.65
527.299	7.67
527.497	7.65
527.696	7.64
527.894	7.61
528.092	7.58
528.291	7.56
528.489	7.57
528.688	7.53
528.886	7.55
529.084	7.51
529.283	7.46
529.481	7.46
529.679	7.5
529.877	7.56
530.076	7.62
530.274	7.67
530.472	7.69
530.67	7.7
530.869	7.81
531.067	7.85
531.265	7.97
531.463	8.01
531.661	8.02
531.859	8.03
532.057	8.01
532.255	8.01
532.454	7.98
532.652	7.98
532.85	8.04
533.048	8.02
533.246	8.02
533.444	8
533.642	8.01
533.84	8.03
534.038	8.06
534.236	8.14
534.434	8.18
534.632	8.29
534.83	8.32
535.027	8.37
535.225	8.34
535.423	8.33
535.621	8.35
535.819	8.38
536.017	8.4
536.215	8.43
536.412	8.38
536.61	8.38
536.808	8.34
537.006	8.35
537.203	8.28
537.401	8.41
537.599	8.48
537.797	8.56
537.994	8.62
538.192	8.71
538.39	8.76
538.587	8.81
538.785	8.91
538.983	9.02
539.18	9.09
539.378	9.15
539.575	9.14
539.773	9.19
539.97	9.22
540.168	9.22
540.366	9.24
540.563	9.25
540.761	9.25
540.958	9.27
541.155	9.24
541.353	9.24
541.55	9.27
541.748	9.25
541.945	9.27
542.143	9.31
542.34	9.3
542.537	9.28
542.735	9.32
542.932	9.38
543.129	9.38
543.327	9.52
543.524	9.55
543.721	9.52
543.919	9.67
544.116	9.64
544.313	9.63
544.51	9.7
544.708	9.76
544.905	9.82
545.102	9.85
545.299	9.92
545.496	9.87
545.693	9.93
545.891	9.91
546.088	9.83
546.285	9.88
546.482	9.88
546.679	9.89
546.876	9.97
547.073	10
547.27	9.95
547.467	9.95
547.664	9.99
547.861	9.99
548.058	10.11
548.255	10.24
548.452	10.31
548.649	10.42
548.846	10.48
549.043	10.56
549.24	10.5
549.437	10.62
549.633	10.66
549.83	10.66
550.027	10.63
550.224	10.71
550.421	10.76
550.618	10.83
550.814	10.8
551.011	10.92
551.208	10.9
551.405	10.97
551.601	11.01
551.798	11.13
551.995	11.18
552.191	11.26
552.388	11.33
552.585	11.36
552.781	11.4
552.978	11.48
553.175	11.41
553.371	11.41
553.568	11.48
553.764	11.59
553.961	11.53
554.157	11.55
554.354	11.81
554.55	11.77
554.747	11.79
554.943	11.72
555.14	11.78
555.336	11.97
555.533	12.02
555.729	12.03
555.926	12.07
556.122	12.15
556.318	12.23
556.515	12.16
556.711	12.32
556.907	12.4
557.104	12.65
557.3	12.75
557.496	12.64
557.693	12.73
557.889	12.76
558.085	12.83
558.281	12.89
558.478	13.03
558.674	12.94
558.87	12.94
559.066	13.04
559.262	12.95
559.459	12.88
559.655	13.12
559.851	13.15
560.047	13.27
560.243	13.16
560.439	13.21
560.635	13.16
560.831	13.31
561.027	13.31
561.223	13.31
561.419	13.44
561.615	13.54
561.811	13.51
562.007	13.55
562.203	13.53
562.399	13.66
562.595	13.61
562.791	13.61
562.987	13.74
563.183	13.94
563.379	14.01
563.575	14.08
563.771	14.23
563.966	14.27
564.162	14.24
564.358	14.34
564.554	14.42
564.75	14.49
564.945	14.57
565.141	14.56
565.337	14.53
565.533	14.55
565.728	14.66
565.924	14.66
566.12	14.77
566.315	14.89
566.511	14.89
566.707	14.78
566.902	14.91
567.098	14.99
567.293	14.98
567.489	15.03
567.684	15.1
567.88	14.98
568.076	14.93
568.271	14.82
568.467	14.87
568.662	14.9
568.858	15.1
569.053	15.09
569.248	15.04
569.444	15.08
569.639	15.18
569.835	15.25
570.03	15.33
570.225	15.39
570.421	15.51
570.616	15.58
570.812	15.62
571.007	15.65
571.202	15.78
571.397	15.84
571.593	15.97
571.788	15.91
571.983	15.96
572.178	15.98
572.374	16.11
572.569	16.18
572.764	16.22
572.959	16.37
573.154	16.49
573.35	16.51
573.545	16.62
573.74	16.63
573.935	16.67
574.13	16.65
574.325	16.75
574.52	16.77
574.715	16.81
574.91	16.81
575.105	16.8
575.3	16.72
575.495	16.7
575.69	16.86
575.885	16.88
576.08	16.91
576.275	16.92
576.47	17.05
576.665	17.05
576.86	16.95
577.055	17
577.25	16.93
577.444	17
577.639	17.04
577.834	16.91
578.029	16.94
578.224	17.07
578.418	17.11
578.613	17.08
578.808	17.16
579.003	17.47
579.197	17.58
579.392	17.68
579.587	17.71
579.781	17.75
579.976	17.7
580.171	17.74
580.365	17.71
580.56	17.77
580.755	17.69
580.949	17.65
581.144	17.45
581.338	17.35
581.533	17.34
581.727	17.38
581.922	17.25
582.116	17.36
582.311	17.36
582.505	17.47
582.7	17.7
582.894	17.78
583.089	17.91
583.283	18.09
583.478	18.16
583.672	18.25
583.866	18.32
584.061	18.49
584.255	18.59
584.449	18.64
584.644	18.79
584.838	18.69
585.032	18.84
585.226	18.73
585.421	18.63
585.615	18.68
585.809	18.68
586.003	18.7
586.198	18.78
586.392	18.82
586.586	18.81
586.78	18.73
586.974	18.77
587.168	18.68
587.363	18.89
587.557	18.77
587.751	18.81
587.945	18.91
588.139	19.09
588.333	19.16
588.527	19.25
588.721	19.23
588.915	19.28
589.109	19.35
589.303	19.4
589.497	19.38
589.691	19.44
589.885	19.47
590.079	19.4
590.273	19.21
590.466	19.08
590.66	18.99
590.854	19.09
591.048	19.02
591.242	19
591.436	19.09
591.629	19.03
591.823	19.11
592.017	19.23
592.211	19.37
592.404	19.53
592.598	19.55
592.792	19.54
592.986	19.57
593.179	19.56
593.373	19.61
593.567	19.69
593.76	19.83
593.954	19.92
594.147	19.94
594.341	19.98
594.535	19.99
594.728	20.07
594.922	20.21
595.115	20.25
595.309	20.27
595.502	20.25
595.696	20.15
595.889	20.03
596.083	20.13
596.276	20.11
596.47	20.07
596.663	20.07
596.856	20.09
597.05	20
597.243	20.07
597.437	20.22
597.63	20.25
597.823	20.3
598.017	20.39
598.21	20.31
598.403	20.37
598.596	20.39
598.79	20.31
598.983	20.32
599.176	20.42
599.369	20.37
599.563	20.18
599.756	20.18
599.949	20.12
600.142	20.16
600.335	20.11
600.528	20.06
600.722	20.18
600.915	20.3
601.108	20.35
601.301	20.43
601.494	20.45
601.687	20.55
601.88	20.66
602.073	20.67
602.266	20.64
602.459	20.68
602.652	20.64
602.845	20.61
603.038	20.53
603.231	20.49
603.424	20.43
603.617	20.45
603.809	20.51
604.002	20.39
604.195	20.47
604.388	20.57
604.581	20.67
604.774	20.66
604.966	20.65
605.159	20.65
605.352	20.74
605.545	20.8
605.737	20.72
605.93	20.69
606.123	20.67
606.316	20.86
606.508	20.83
606.701	20.78
606.894	20.92
607.086	20.93
607.279	21.16
607.471	21.17
607.664	21.13
607.857	21.23
608.049	21.21
608.242	21.3
608.434	21.19
608.627	21.13
608.819	21.22
609.012	21.09
609.204	21.06
609.397	21.03
609.589	20.87
609.782	20.92
609.974	20.76
610.166	20.69
610.359	20.65
610.551	20.61
610.743	20.63
610.936	20.46
611.128	20.6
611.32	20.7
611.513	20.52
611.705	20.78
611.897	20.82
612.09	21.05
612.282	21.08
612.474	20.98
612.666	20.97
612.858	20.97
613.051	21.01
613.243	20.92
613.435	20.92
613.627	20.99
613.819	20.83
614.011	20.67
614.203	20.7
614.395	20.74
614.588	20.98
614.78	20.96
614.972	21.18
615.164	21.17
615.356	21.45
615.548	21.35
615.74	21.34
615.932	21.38
616.124	21.46
616.315	21.32
616.507	21.44
616.699	21.27
616.891	21.32
617.083	21.15
617.275	21.24
617.467	21.07
617.659	21.16
617.85	21.2
618.042	21.29
618.234	21.34
618.426	21.27
618.618	21.2
618.809	21.3
619.001	21.37
619.193	21.35
619.384	21.31
619.576	21.23
619.768	21.17
619.959	21.35
620.151	21.52
620.343	21.39
620.534	21.29
620.726	21.27
620.917	21.29
621.109	21.24
621.301	21.29
621.492	21.36
621.684	21.38
621.875	21.42
622.067	21.28
622.258	21.09
622.45	21.13
622.641	21.31
622.832	21.51
623.024	21.69
623.215	21.76
623.407	21.81
623.598	21.7
623.789	21.75
623.981	21.91
624.172	22.01
624.363	21.99
624.555	22.01
624.746	22.07
624.937	21.98
625.129	21.81
625.32	21.79
625.511	21.76
625.702	21.71
625.893	21.79
626.085	21.8
626.276	21.75
626.467	21.82
626.658	21.78
626.849	21.93
627.04	21.92
627.231	21.9
627.422	21.83
627.614	21.86
627.805	22.02
627.996	21.94
628.187	21.86
628.378	21.78
628.569	21.83
628.76	21.95
628.951	21.8
629.142	21.69
629.332	21.72
629.523	21.68
629.714	21.65
629.905	21.7
630.096	21.67
630.287	21.59
630.478	21.63
630.669	21.55
630.859	21.74
631.05	21.91
631.241	22.08
631.432	22.23
631.623	22.42
631.813	22.55
632.004	22.52
632.195	22.47
632.385	22.44
632.576	22.52
632.767	22.37
632.957	22.2
633.148	21.94
633.339	21.96
633.529	21.87
633.72	21.74
633.91	21.6
634.101	21.54
634.292	21.75
634.482	21.89
634.673	21.79
634.863	21.94
635.054	22.09
635.244	22.26
635.435	22.14
635.625	21.95
635.815	22.02
636.006	22.12
636.196	22.13
636.387	22.07
636.577	22.09
636.767	22.09
636.958	22.28
637.148	22.25
637.338	22.44
637.529	22.54
637.719	22.79
637.909	22.82
638.099	22.82
638.29	22.67
638.48	22.44
638.67	22.37
638.86	22.56
639.05	22.31
639.241	22.16
639.431	22.02
639.621	21.91
639.811	21.89
640.001	21.81
640.191	21.84
640.381	21.92
640.571	22.17
640.761	22.1
640.951	21.98
641.141	22.03
641.331	22.06
641.521	21.95
641.711	21.98
641.901	22.09
642.091	22.2
642.281	21.99
642.471	22.07
642.661	22.11
642.851	22.19
643.041	22.06
643.231	22.28
643.42	22.3
643.61	22.34
643.8	22.45
643.99	22.19
644.18	22.25
644.369	22.47
644.559	22.62
644.749	22.52
644.939	22.35
645.128	22.64
645.318	22.63
645.508	22.66
645.697	22.43
645.887	22.49
646.076	22.61
646.266	22.34
646.456	22.38
646.645	22.24
646.835	22.32
647.024	22.56
647.214	22.47
647.403	22.19
647.593	22.33
647.782	22.57
647.972	22.44
648.161	22.58
648.351	22.71
648.54	22.79
648.73	22.67
648.919	22.79
649.108	22.68
649.298	22.72
649.487	22.78
649.677	22.71
649.866	22.75
650.055	22.72
650.244	22.6
650.434	22.63
650.623	22.42
650.812	22.37
651.002	22.16
651.191	22.09
651.38	22.12
651.569	22.35
651.758	22.04
651.947	22.03
652.137	22.08
652.326	22.14
652.515	21.96
652.704	22.19
652.893	22.61
653.082	22.74
653.271	22.78
653.46	22.9
653.649	22.61
653.838	22.8
654.027	22.87
654.216	22.9
654.405	22.97
654.594	23.18
654.783	23.22
654.972	22.96
655.161	22.65
655.35	22.92
655.539	22.87
655.728	22.97
655.916	23.09
656.105	23.12
656.294	23.06
656.483	22.94
656.672	22.83
656.86	22.9
657.049	22.99
657.238	23.2
657.427	23.05
657.615	22.96
657.804	22.9
657.993	22.77
658.181	22.65
658.37	22.67
658.559	22.55
658.747	22.76
658.936	22.41
659.125	22
659.313	22.07
659.502	22.15
659.69	22.04
659.879	22.1
660.067	22.36
660.256	22.36
660.444	22.41
660.633	22.6
660.821	22.4
661.01	22.71
661.198	23.17
661.387	23.18
661.575	23.16
661.763	23.29
661.952	23.32
662.14	23.27
662.328	23.53
662.517	23.38
662.705	23.57
662.893	23.48
663.082	23.33
663.27	23.26
663.458	23.39
663.646	23.34
663.834	23.33
664.023	23.32
664.211	23.42
664.399	23.11
664.587	23.16
664.775	22.96
664.963	22.97
665.152	23
665.34	23.2
665.528	23.23
665.716	23.26
665.904	23.28
666.092	23.16
666.28	22.66
666.468	22.46
666.656	22.49
666.844	22.31
667.032	22.55
667.22	22.94
667.408	22.82
667.596	22.43
667.784	22.42
667.971	22.4
668.159	22.54
668.347	22.78
668.535	23.15
668.723	23.08
668.911	23.37
669.098	23.19
669.286	22.63
669.474	22.57
669.662	22.62
669.849	22.52
670.037	22.48
670.225	22.49
670.413	22.4
670.6	22.51
670.788	22.47
670.976	22.16
671.163	22.36
671.351	22.74
671.538	22.68
671.726	22.78
671.913	22.96
672.101	23.09
672.289	22.87
672.476	22.88
672.664	22.81
672.851	22.83
673.039	23.15
673.226	23.13
673.413	22.92
673.601	23.05
673.788	22.98
673.976	22.92
674.163	22.49
674.35	22.49
674.538	22.43
674.725	22.57
674.912	22.82
675.1	22.59
675.287	22.68
675.474	22.78
675.662	22.88
675.849	22.83
676.036	22.73
676.223	23.03
676.411	23.09
676.598	23.34
676.785	23
676.972	22.71
677.159	22.78
677.346	22.8
677.533	22.53
677.721	22.37
677.908	22.5
678.095	22.61
678.282	22.67
678.469	22.77
678.656	22.74
678.843	22.99
679.03	23.22
679.217	23.24
679.404	22.98
679.591	23.22
679.778	23.19
679.964	23.18
680.151	23.15
680.338	23.16
680.525	23.31
680.712	23.4
680.899	23.44
681.086	23.45
681.272	23.37
681.459	23.68
681.646	23.57
681.833	23.6
682.02	23.53
682.206	23.73
682.393	23.59
682.58	23.35
682.766	23.33
682.953	22.97
683.14	22.9
683.326	22.98
683.513	23
683.7	23.05
683.886	23.02
684.073	22.92
684.259	22.58
684.446	22.98
684.632	22.94
684.819	22.79
685.005	22.98
685.192	22.82
685.378	22.65
685.565	22.35
685.751	22.19
685.938	22.17
686.124	22.16
686.31	22.2
686.497	21.78
686.683	21.92
686.87	21.73
687.056	21.59
687.242	21.7
687.429	22.08
687.615	22.05
687.801	22.27
687.987	22.44
688.174	22.68
688.36	22.85
688.546	22.88
688.732	22.68
688.918	22.93
689.105	23.08
689.291	23.3
689.477	23.16
689.663	23.26
689.849	23.11
690.035	23.05
690.221	23.19
690.407	23.02
690.593	23.1
690.779	23.39
690.965	23.37
691.151	23.35
691.337	23.17
691.523	23.15
691.709	23.23
691.895	23.54
692.081	23.64
692.267	23.44
692.453	23.36
692.639	23.37
692.825	23.21
693.011	23.17
693.196	23.45
693.382	23.39
693.568	23.31
693.754	23.05
693.94	22.98
694.125	23.1
694.311	23.08
694.497	23.07
694.682	22.94
694.868	22.91
695.054	22.96
695.239	22.58
695.425	22.78
695.611	22.6
695.796	23.04
695.982	22.99
696.168	23.05
696.353	23.28
696.539	23.67
696.724	23.87
696.91	24.08
697.095	24.07
697.281	23.88
697.466	23.82
697.652	23.94
697.837	23.91
698.023	24.07
698.208	24.09
698.393	23.98
698.579	23.79
698.764	23.66
698.949	23.61
699.135	23.7
699.32	23.86
699.505	23.99
699.691	24.07
699.876	24.03
700.061	24.11
700.246	24
700.432	24.03
700.617	24.38
700.802	23.86
700.987	23.95
701.172	23.43
701.358	23.42
701.543	23.4
701.728	23.09
701.913	22.63
702.098	22.29
702.283	22.46
702.468	22.49
702.653	22.04
702.838	22.95
703.023	22.46
703.208	22.74
703.393	23.11
703.578	22.95
703.763	23.53
703.948	23.87
704.133	23.79
704.318	23.59
704.503	23.32
704.688	23.55
704.873	23.43
705.057	23.62
705.242	23.53
705.427	23.69
705.612	24.01
705.797	23.64
705.981	23.31
706.166	23.46
706.351	23.3
706.536	23.59
706.72	23.37
706.905	22.97
707.09	23.52
707.274	23.59
707.459	23.15
707.644	22.96
707.828	22.97
708.013	23.43
708.197	23.5
708.382	23.66
708.567	23.78
708.751	23.79
708.936	24.33
709.12	23.61
709.305	23.54
709.489	23.32
709.673	23.02
709.858	23.17
710.042	23
710.227	22.71
710.411	22.72
710.596	22.42
710.78	22.75
710.964	22.5
711.149	22.76
711.333	22.69
711.517	23.26
711.702	23.45
711.886	23.25
712.07	23.21
712.254	23.24
712.438	23.24
712.623	23.09
712.807	22.92
712.991	22.96
713.175	22.99
713.359	23.35
713.544	23.15
713.728	23.05
713.912	23.12
714.096	22.96
714.28	23.14
714.464	22.91
714.648	23.07
714.832	22.94
715.016	22.63
715.2	22.31
715.384	22.11
715.568	22.02
715.752	22.05
715.936	21.83
716.12	21.9
716.304	21.92
716.488	21.91
716.671	21.61
716.855	21.44
717.039	21.89
717.223	22.3
717.407	22.44
717.59	22.32
717.774	22.08
717.958	22.57
718.142	22.31
718.325	22.04
718.509	21.73
718.693	21.73
718.877	21.63
719.06	21.25
719.244	20.97
719.428	20.88
719.611	20.97
719.795	21.53
719.978	20.93
720.162	21.24
720.345	21.55
720.529	22.17
720.713	22.97
720.896	23.18
721.08	23.1
721.263	23.27
721.446	23.19
721.63	23.32
721.813	23.01
721.997	23.11
722.18	23.19
722.364	22.72
722.547	22.94
722.73	22.64
722.914	22.36
723.097	22.77
723.28	22.8
723.464	22.91
723.647	23.05
723.83	23.04
724.013	23.04
724.197	23.29
724.38	23.76
724.563	23.4
724.746	23.16
724.929	23.52
725.112	23.29
725.296	23.51
725.479	23.75
725.662	23.13
725.845	22.8
726.028	22.86
726.211	22.42
726.394	22.65
726.577	22.65
726.76	22.36
726.943	22.1
727.126	22
727.309	21.81
727.492	21.49
727.675	22.02
727.858	22.1
728.041	22.05
728.224	22.27
728.407	21.87
728.589	21.93
728.772	22.34
728.955	22.36
729.138	22.56
729.321	22.46
729.503	22.45
729.686	21.85
729.869	22.1
730.052	22.29
730.234	22.41
730.417	21.92
730.6	21.74
730.782	21.76
730.965	21.74
731.148	21.94
731.33	21.72
731.513	21.96
731.695	22.35
731.878	22.09
732.061	22.14
732.243	22.28
732.426	22.47
732.608	22.71
732.791	22.46
732.973	22.47
733.156	22.28
733.338	22.65
733.52	22.13
733.703	22.06
733.885	22.29
734.068	22.43
734.25	22.06
734.432	21.46
734.615	21.69
734.797	22.32
734.979	22.83
735.162	22.98
735.344	22.73
735.526	23.03
735.708	22.84
735.891	22.71
736.073	21.79
736.255	21.84
736.437	22.71
736.619	22.08
736.802	21.6
736.984	21.17
737.166	20.74
737.348	20.88
737.53	21.14
737.712	21.34
737.894	21.26
738.076	22.04
738.258	22.41
738.44	22.33
738.622	22.5
738.804	22.2
738.986	22.25
739.168	22.33
739.35	23.1
739.532	23.01
739.714	22.59
739.896	22.99
740.078	22.39
740.259	22.23
740.441	22.08
740.623	21.78
740.805	22.42
740.987	22.07
741.168	22.39
741.35	21.37
741.532	21.41
741.714	21.78
741.895	21.96
742.077	22.02
742.259	21.47
742.44	20.96
742.622	21.6
742.804	21.1
742.985	21.68
743.167	21.42
743.348	21.02
743.53	20.94
743.711	20.96
743.893	20.74
744.075	21.07
744.256	21.67
744.438	22.11
744.619	21.89
744.8	21.94
744.982	21.23
745.163	20.92
745.345	21.49
745.526	21.2
745.707	21.84
745.889	21.87
746.07	21.86
746.252	22.01
746.433	22.73
746.614	22.11
746.795	22.06
746.977	22.51
747.158	22.81
747.339	22.92
747.52	23.05
747.702	22.19
747.883	21.99
748.064	21.93
748.245	21.48
748.426	20.97
748.607	21.34
748.788	21.58
748.97	21.72
749.151	21.45
749.332	21.32
749.513	21.68
749.694	21.98
749.875	22.26
750.056	22.33
750.237	22.35
750.418	22.08
750.599	22.64
750.78	22.21
750.96	22.16
751.141	22.22
751.322	22.27
751.503	21.52
751.684	21.13
751.865	20.69
752.046	20.69
752.226	20.59
752.407	21.05
752.588	20.52
752.769	20.65
752.949	20.53
753.13	21.04
753.311	21.37
753.492	22.51
753.672	23.44
753.853	23.69
754.034	23.16
754.214	22.97
754.395	22.27
754.575	22.18
754.756	22.15
754.937	22.4
755.117	21.74
755.298	21.19
755.478	20.04
755.659	19.24
755.839	19.34
756.02	19.63
756.2	19.99
756.381	20.57
756.561	20.87
756.741	20.55
756.922	20.09
757.102	20.27
757.283	20.71
757.463	20.75
757.643	20.86
757.823	20.98
758.004	21.21
758.184	20.89
758.364	20.61
758.545	20.54
758.725	20.75
758.905	20.95
759.085	21.16
759.265	20.73
759.446	21.04
759.626	21.06
759.806	21.02
759.986	21.19
760.166	21.14
760.346	21.18
760.526	21.03
760.706	20.86
760.886	21.39
761.066	21.38
761.246	20.92
761.426	21.21
761.606	21.35
761.786	21.12
761.966	20.91
762.146	21.35
762.326	21.55
762.506	21.45
762.686	21.68
762.866	21.61
763.046	21.51
763.225	21.83
763.405	21.99
763.585	22.24
763.765	22.24
763.945	22.54
764.124	22.75
764.304	22.79
764.484	23.22
764.664	23.42
764.843	23.41
765.023	23.7
765.203	23.69
765.382	23.15
765.562	22.98
765.741	22.94
765.921	22.85
766.101	22.61
766.28	22.33
766.46	21.8
766.639	21.41
766.819	21.28
766.998	21.02
767.178	21.25
767.357	21.86
767.537	21.73
767.716	21.81
767.896	21.64
768.075	21.79
768.254	22.06
768.434	21.72
768.613	21.48
768.792	20.72
768.972	20.56
769.151	21.22
769.33	20.62
769.51	20.38
769.689	20.22
769.868	20.53
770.047	19.82
770.226	19.86
770.406	20.32
770.585	21.44
770.764	22.12
770.943	21.94
771.122	21.55
771.301	21.94
771.48	21.52
771.66	21.25
771.839	20.86
772.018	20.2
772.197	20.18
772.376	20.53
772.555	20.27
772.734	20.68
772.913	20.92
773.092	20.2
773.271	19.96
773.449	20.94
773.628	21.6
773.807	21.6
773.986	22.6
774.165	22.62
774.344	22.29
774.523	22.59
774.701	22.59
774.88	23.71
775.059	24.16
775.238	24.37
775.417	24.3
775.595	23.55
775.774	23.24
775.953	22.64
776.131	22.42
776.31	22.91
776.489	21.49
776.667	21.1
776.846	19.38
777.025	20.09
777.203	19.94
777.382	19.41
777.56	19.85
777.739	20.53
777.917	21.36
778.096	21.75
778.274	21.54
778.453	22.29
778.631	22.06
778.81	22.55
778.988	21.41
779.166	21.6
779.345	21.58
779.523	22.06
779.702	21.36
779.88	20.87
780.058	21.17
780.237	20.4
780.415	20.43
780.593	20.72
780.771	20.96
780.95	21.97
781.128	21.96
781.306	22.07
781.484	21.2
781.662	21.67
781.841	21.58
782.019	20.94
782.197	21.47
782.375	21.76
782.553	21.19
782.731	21.47
782.909	20.89
783.087	20.47
783.265	21.5
783.443	21.84
783.621	20.86
783.799	20.88
783.977	20.78
784.155	20.95
784.333	21.45
784.511	21.22
784.689	21.77
784.867	21.44
785.045	20.97
785.223	20.02
785.4	20.17
785.578	21.03
785.756	21.35
785.934	21.44
786.112	21.61
786.289	19.79
786.467	20.05
786.645	18.82
786.823	19.24
787	18.84
787.178	18.57
787.356	18.4
787.533	17.93
787.711	17.76
787.889	17.43
788.066	16.7
788.244	17.08
788.421	16.92
788.599	17.31
788.776	16.26
788.954	17.54
789.131	17.24
789.309	18.18
789.486	19.11
789.664	18.8
789.841	18.77
790.019	18.71
790.196	19.62
790.373	20.71
790.551	20.12
790.728	20.61
790.906	19.81
791.083	20.25
791.26	19.09
791.437	19.26
791.615	19.83
791.792	20.9
791.969	21.31
792.146	20.14
792.324	19.05
792.501	20.09
792.678	21.1
792.855	21.7
793.032	21.68
793.209	22.61
793.387	22.13
793.564	21.88
793.741	20.74
793.918	20.93
794.095	22.13
794.272	22.08
794.449	21.25
794.626	21.3
794.803	20.22
794.98	20.31
795.157	20.51
795.334	20.47
795.511	20.96
795.688	21.61
795.864	20.97
796.041	20.15
796.218	20.85
796.395	21.05
796.572	20.74
796.749	22.17
796.925	22.03
797.102	21.23
797.279	20.56
797.456	19.29
797.632	20.35
797.809	20.62
797.986	20.65
798.162	20.25
798.339	19.63
798.516	19.12
798.692	18.54
798.869	18.34
799.046	17.78
799.222	18.41
799.399	18.96
799.575	18.16
799.752	18.56
799.928	18.66
800.105	19.33
800.281	20.33
800.458	19.68
800.634	19.55
800.811	20.96
800.987	21.75
801.163	21.93
801.34	22.47
801.516	21.76
801.692	21.88
801.869	21.92
802.045	20.82
802.221	20.48
802.398	20.6
802.574	20.04
802.75	18.93
802.926	18.97
803.103	18.36
803.279	18.22
803.455	18.58
803.631	19.44
803.807	20.53
803.983	21.35
804.16	21.45
804.336	21.9
804.512	21.95
804.688	22.01
804.864	21.81
805.04	21.21
805.216	21.98
805.392	21.84
805.568	21.34
805.744	20.31
805.92	21.07
806.096	21.21
806.272	21.18
806.448	20.96
806.623	21.46
806.799	21.96
806.975	22.18
807.151	20.67
807.327	20.18
807.503	18.92
807.678	18.77
807.854	18.56
808.03	19.13
808.206	19.65
808.381	20.65
808.557	20.52
808.733	19.52
808.908	19.87
809.084	20.93
809.26	20.47
809.435	20.81
809.611	20.63
809.787	19.53
809.962	18.8
810.138	18.14
810.313	18.07
810.489	17.95
810.664	18.53
810.84	19.52
811.015	19.02
811.191	18.38
811.366	18.76
811.542	20
811.717	19.86
811.892	20.08
812.068	20.38
812.243	19.21
812.419	19.6
812.594	19.43
812.769	18.5
812.944	18.45
813.12	20.32
813.295	21.03
813.47	20.92
813.645	20.79
813.821	20.97
813.996	19.51
814.171	21.83
814.346	20.29
814.521	20.71
814.697	21.35
814.872	20.93
815.047	20.73
815.222	18.25
815.397	17.26
815.572	17.67
815.747	18.21
815.922	20.54
816.097	18.63
816.272	18.46
816.447	17.68
816.622	18.35
816.797	19.21
816.972	18.81
817.147	20.37
817.322	19.9
817.496	19.37
817.671	18.76
817.846	18.49
818.021	18.1
818.196	18.93
818.371	19.34
818.545	18.73
818.72	18.92
818.895	18.73
819.069	18.5
819.244	18.57
819.419	18.88
819.594	18.41
819.768	18.59
819.943	20.39
820.117	20.04
820.292	20.64
820.467	20.11
820.641	19.56
820.816	20.22
820.99	20.32
821.165	20.72
821.339	21.02
821.514	21.23
821.688	21.06
821.863	20.94
822.037	21.05
822.212	20.73
822.386	21.18
822.56	21.38
822.735	21.24
822.909	21.55
823.084	21.44
823.258	21.72
823.432	21.62
823.606	21.63
823.781	21.7
823.955	21.52
824.129	21.64
824.303	21.22
824.478	20.96
824.652	21.23
824.826	20.88
825	20.88
825.174	19.87
825.348	20.09
825.523	20.17
825.697	19.95
825.871	20.47
826.045	20.75
826.219	20.81
826.393	21.11
826.567	20.7
826.741	20.57
826.915	20.66
827.089	21.02
827.263	21.16
827.437	21.22
827.611	20.94
827.784	20.9
827.958	20.61
828.132	20.46
828.306	21.07
828.48	21.01
828.654	21.18
828.827	20.44
829.001	20.15
829.175	19.61
829.349	19.43
829.522	20.19
829.696	19.99
829.87	19.35
830.044	19.7
830.217	18.5
830.391	19.03
830.565	18.57
830.738	20.17
830.912	20.4
831.085	20.11
831.259	20.38
831.432	18.81
831.606	18.53
831.779	19.21
831.953	17.79
832.126	18.21
832.3	17.58
832.473	17.94
832.647	18.01
832.82	19.38
832.994	19.9
833.167	19.52
833.34	19.78
833.514	19.58
833.687	19.69
833.86	21.21
834.034	21.89
834.207	22.19
834.38	21.86
834.553	21.68
834.727	21.11
834.9	20.89
835.073	20.47
835.246	20.65
835.419	20.85
835.593	20.38
835.766	19.52
835.939	18.45
836.112	18.82
836.285	19.34
836.458	19.45
836.631	18.19
836.804	18.31
836.977	19.84
837.15	19.93
837.323	21.64
837.496	21.28
837.669	22.03
837.842	23.09
838.015	21.47
838.188	21.31
838.361	20.7
838.533	21.93
838.706	22.65
838.879	21.56
839.052	21.25
839.225	19.95
839.398	21.43
839.57	20.04
839.743	18.74
839.916	20.92
840.088	20.85
840.261	20.15
840.434	19.45
840.607	18.5
840.779	19.56
840.952	20.28
841.124	19.1
841.297	18.12
841.47	18.52
841.642	19.35
841.815	20.2
841.987	20.9
842.16	22.14
842.332	20.63
842.505	19.93
842.677	17.97
842.85	17.34
843.022	21.24
843.194	21.1
843.367	22.32
843.539	22.48
843.712	20.8
843.884	18.57
844.056	19.25
844.229	20.37
844.401	22.81
844.573	24.49
844.745	22.94
844.918	17.86
845.09	17.25
845.262	15.89
845.434	13.13
845.606	8.83
845.779	9.73
845.951	9.76
846.123	10.38
846.295	9.77
846.467	8.67
846.639	11.23
846.811	11.89
846.983	14.57
847.155	13.33
847.327	12.05
847.499	11.82
847.671	14.79
847.843	13.56
848.015	13.93
848.187	10.25
848.359	7.43
848.531	3.71
848.703	-0.07
848.875	-3.73
849.047	0.03
849.218	3.43
849.39	6.72
849.562	4.04
849.734	2.33
849.905	-2.96
850.077	0.62
850.249	2.34
850.421	6.78
850.592	9.47
850.764	9.51
850.936	8.95
851.107	11.01
851.279	14.24
851.451	16.98
851.622	17.5
851.794	20.28
851.965	18.83
852.137	17.35
852.308	15.33
852.48	14.02
852.651	15.11
852.823	15.3
852.994	12.62
853.166	7.98
853.337	9.25
853.509	6.44
853.68	5.08
853.851	5.51
854.023	8.77
854.194	8.65
854.365	8.14
854.537	10.55
854.708	8.07
854.879	6.33
855.05	7.38
855.222	-1.45
855.393	1.58
855.564	6.26
855.735	-0.09
855.906	0.1
856.078	-0.51
856.249	0.04
856.42	-3.07
856.591	-1.2
856.762	-0.24
856.933	1.21
857.104	5.86
857.275	4.36
857.446	3.66
857.617	7.29
857.788	6.96
857.959	5.77
858.13	8.96
858.301	11.72
858.472	10.23
858.643	13.29
858.814	9.69
858.985	10.01
859.155	8.85
859.326	8.99
859.497	7.21
859.668	9.09
859.839	10.4
860.009	8.79
860.18	6.97
860.351	11.65
860.522	7.95
860.692	10.56
860.863	11.24
861.034	11.84
861.204	4.62
861.375	10.6
861.546	6.91
861.716	5.71
861.887	3.46
862.057	-2.41
862.228	-6.27
862.398	-6
862.569	-6.62
862.739	-2.22
862.91	5.22
863.08	11.23
863.251	8.02
863.421	8.77
863.592	11.77
863.762	13.66
863.932	19.94
864.103	18.38
864.273	20.87
864.443	23.7
864.614	15.58
864.784	11.11
864.954	11.54
865.125	13.44
865.295	15.99
865.465	10.64
865.635	14.51
865.805	10.4
865.976	12.73
866.146	12.05
866.316	9.18
866.486	8.99
866.656	8.3
866.826	8.57
866.996	6.68
867.166	5.18
867.336	9.03
867.506	6.47
867.676	7.22
867.846	13.52
868.016	16.05
868.186	15.15
868.356	18.27
868.526	19.29
868.696	20.04
868.866	23.02
869.036	28.14
869.206	30.75
869.376	32.16
869.545	31.37
869.715	26.21
869.885	23.12
870.055	28.53
870.224	27.34
870.394	26.49
870.564	27.3
870.734	24.78
870.903	19.83
871.073	14.63
871.243	11.92
871.412	11.11
871.582	12.31
871.751	14.39
871.921	12.3
872.091	12.59
872.26	15.86
872.43	15.07
872.599	15.09
872.769	19.91
872.938	20.15
873.108	22.66
873.277	23.54
873.446	24.14
873.616	25.25
873.785	23.43
873.955	25.86
874.124	26.94
874.293	23.87
874.463	21.71
874.632	22.58
874.801	23.2
874.971	18.98
875.14	18.88
875.309	19.28
875.478	17.99
875.647	14.49
875.817	15.55
875.986	7.52
876.155	9.14
876.324	13.81
876.493	9.97
876.662	13.21
876.831	18.97
877	16.84
877.17	16.04
877.339	12.27
877.508	14.42
877.677	16.79
877.846	18.61
878.015	20.19
878.184	18.5
878.352	17.19
878.521	16.76
878.69	13.54
878.859	15.25
879.028	15.44
879.197	18.13
879.366	17.44
879.534	14.39
879.703	15.53
879.872	17.35
880.041	19.8
880.21	20.09
880.378	19.7
880.547	19.72
880.716	19.41
880.884	20.41
881.053	19.88
881.222	18.64
881.39	18.78
881.559	18.79
881.727	18.34
881.896	17.69
882.065	17.51
882.233	18.05
882.402	18.48
882.57	19.01
882.739	18.01
882.907	18.33
883.076	19.74
883.244	19.23
883.412	19.35
883.581	19.89
883.749	20.68
883.918	21.57
884.086	21.34
884.254	21.84
884.423	22.19
884.591	23.36
884.759	23.35
884.927	22.99
885.096	24.19
885.264	23.72
885.432	22.77
885.6	20.5
885.769	19.89
885.937	18.24
886.105	17.54
886.273	19.18
886.441	16.31
886.609	16.96
886.777	15.93
886.945	12.53
887.113	10.6
887.281	10.64
887.449	12.34
887.617	8.7
887.785	9.16
887.953	5.39
888.121	0.85
888.289	1.37
888.457	-1.44
888.625	-2.57
888.793	-2.15
888.961	5.5
889.129	3.58
889.296	2.87
889.464	5.93
889.632	8.12
889.8	11.12
889.967	7.13
890.135	7.94
