Data from 2938468_Reflection_2.txt Node
Date: Wed Jun 17 13:42:21 EDT 2015
User: robert
Spectrometer: USB4E03002
Autoset integration time: false
Trigger mode: 4
Integration Time (sec): 1.000000E-1
Scans to average: 10
Electric dark correction enabled: true
Nonlinearity correction enabled: false
Boxcar width: 5
Stray light correction enabled: false
XAxis mode: Wavelengths
Stop averaging: false
Number of Pixels in Spectrum: 3648
>>>>>Begin Spectral Data<<<<<
177.575	-45.12
177.794	-8.64
178.014	-22.25
178.233	-18.19
178.452	-6.61
178.672	7.56
178.891	-60.82
179.11	20.03
179.33	43.89
179.549	26.89
179.768	29.43
179.987	23.95
180.207	23.54
180.426	30.9
180.645	14.31
180.864	31.59
181.084	51.06
181.303	167.68
181.522	-127.66
181.741	11.65
181.96	10.96
182.179	46.68
182.398	39.67
182.618	19.03
182.837	39.84
183.056	-5.49
183.275	-17.29
183.494	21.74
183.713	38.27
183.932	43.33
184.151	58.65
184.37	110.59
184.589	118.38
184.808	108.2
185.027	137.17
185.246	163.11
185.465	156.8
185.684	222.7
185.903	319.94
186.122	463.7
186.341	3031.56
186.56	3165.63
186.779	348.2
186.998	1220.43
187.216	-117.79
187.435	-549.45
187.654	8211.63
187.873	-1252.47
188.092	214.64
188.311	205.9
188.53	244.86
188.748	192.08
188.967	601.76
189.186	-51.07
189.405	-13638.71
189.623	363.09
189.842	142.82
190.061	99.87
190.28	191.5
190.498	-60.54
190.717	-1040.09
190.936	1590.53
191.154	719.29
191.373	272.94
191.592	248.74
191.81	257.01
192.029	347.83
192.248	479.1
192.466	-538.56
192.685	-804.27
192.904	208.6
193.122	312.85
193.341	301.93
193.559	321.41
193.778	337.52
193.996	445.03
194.215	2659.46
194.433	601.27
194.652	526.66
194.87	194.9
195.089	275.33
195.307	1627.61
195.526	802.9
195.744	802.9
195.963	437.38
196.181	374.96
196.399	291.78
196.618	227.18
196.836	300.83
197.055	341.18
197.273	628.63
197.491	322.55
197.71	237.63
197.928	304.63
198.146	352.01
198.365	407.35
198.583	3954.4
198.801	-115.73
199.019	-168.08
199.238	-51.33
199.456	90.52
199.674	175.08
199.892	452.57
200.111	186.11
200.329	-6.66
200.547	1036.99
200.765	60.16
200.983	146.51
201.202	29.4
201.42	-27.9
201.638	190.25
201.856	169.8
202.074	129.98
202.292	127.5
202.51	139.98
202.728	284.4
202.946	192.58
203.165	156.86
203.383	144.62
203.601	84.82
203.819	89.59
204.037	57.4
204.255	67.6
204.473	1010.14
204.691	234.12
204.909	361.03
205.127	43.12
205.345	-32.65
205.562	-64.22
205.78	11.88
205.998	-50.94
206.216	-119.93
206.434	-566.79
206.652	176.1
206.87	82.82
207.088	111.24
207.306	70
207.523	39.77
207.741	44.31
207.959	86.76
208.177	38.98
208.395	44.34
208.612	56.92
208.83	19.37
209.048	15.15
209.266	44.74
209.483	24.16
209.701	14.05
209.919	49.98
210.136	62.87
210.354	60.6
210.572	65.45
210.79	54.49
211.007	37.7
211.225	58.42
211.442	73.44
211.66	49.99
211.878	45.82
212.095	-11.69
212.313	-16.74
212.53	-31.52
212.748	-20.84
212.966	-19.19
213.183	-35.11
213.401	-41.69
213.618	-58.03
213.836	-68.79
214.053	-119.62
214.271	-173.16
214.488	-68.67
214.705	-53.01
214.923	-91.65
215.14	-118.57
215.358	-90.04
215.575	-76.89
215.793	-145.11
216.01	11.43
216.227	34.83
216.445	43.37
216.662	33.78
216.879	43.9
217.097	36.34
217.314	43.68
217.531	71.6
217.749	70.62
217.966	56.57
218.183	56.37
218.4	50.72
218.618	42.02
218.835	55.1
219.052	62.11
219.269	57.88
219.487	46.94
219.704	41.66
219.921	17.13
220.138	22.16
220.355	36.31
220.572	36.42
220.79	42.04
221.007	45.98
221.224	42.08
221.441	41.15
221.658	49.96
221.875	57.74
222.092	54.65
222.309	50.36
222.526	44.77
222.743	35.51
222.96	41.29
223.177	35.66
223.394	26.73
223.611	22.58
223.828	32.36
224.045	28.96
224.262	27.57
224.479	27.29
224.696	26.59
224.913	26.03
225.13	26
225.347	20.37
225.564	20.46
225.781	21
225.997	18.94
226.214	16.92
226.431	14.11
226.648	13.76
226.865	14.04
227.082	13.98
227.298	13.95
227.515	13.25
227.732	13.37
227.949	13.28
228.165	12.22
228.382	13.88
228.599	14.13
228.816	15.07
229.032	14.89
229.249	14.72
229.466	14.19
229.682	13.16
229.899	13.95
230.116	11.75
230.332	10.69
230.549	10.87
230.765	9.84
230.982	6.45
231.199	7.26
231.415	8.16
231.632	8.99
231.848	10.93
232.065	10.95
232.281	10.61
232.498	12.99
232.714	13.1
232.931	14.07
233.147	14.16
233.364	15.43
233.58	13.94
233.797	13.63
234.013	12.94
234.23	12.67
234.446	14.01
234.662	14.59
234.879	15.62
235.095	17.98
235.312	17.85
235.528	16.8
235.744	15.93
235.961	16.96
236.177	17.61
236.393	17.25
236.61	16.28
236.826	14.13
237.042	13.18
237.258	12.27
237.475	9.09
237.691	10.25
237.907	10.53
238.123	13.49
238.339	12.82
238.556	11.57
238.772	11.93
238.988	10.88
239.204	11.03
239.42	11.87
239.636	11.86
239.853	12.38
240.069	12.12
240.285	11.78
240.501	10.46
240.717	10.71
240.933	11.09
241.149	11.14
241.365	11.66
241.581	11.76
241.797	10.61
242.013	10.45
242.229	10.36
242.445	9.74
242.661	9.82
242.877	11.18
243.093	11.04
243.309	10.22
243.525	9.95
243.741	10.88
243.957	11.61
244.173	11.92
244.388	11.64
244.604	11.46
244.82	12.14
245.036	11.53
245.252	11.08
245.468	11.13
245.683	11.6
245.899	11.22
246.115	10.84
246.331	10.48
246.547	10.61
246.762	10.55
246.978	10.81
247.194	10.46
247.409	10.58
247.625	10.41
247.841	10.59
248.057	9.95
248.272	10.3
248.488	10.18
248.703	10.27
248.919	10.4
249.135	10.72
249.35	10.08
249.566	10.13
249.782	9.55
249.997	9.42
250.213	9.26
250.428	9.78
250.644	9.88
250.859	10.28
251.075	9.66
251.29	9.15
251.506	9.35
251.721	9.36
251.937	8.82
252.152	9.44
252.368	9.56
252.583	9.17
252.798	9.75
253.014	9.64
253.229	9.05
253.445	9.47
253.66	10
253.875	9.96
254.091	9.94
254.306	10.52
254.521	11.43
254.737	11.01
254.952	10.69
255.167	9.45
255.383	10.11
255.598	9.84
255.813	9.74
256.028	9.86
256.244	9.11
256.459	9.03
256.674	8.52
256.889	7.69
257.104	7.15
257.32	7.64
257.535	7.67
257.75	7.33
257.965	7.43
258.18	7.42
258.395	7.42
258.61	7.65
258.826	7.49
259.041	7.6
259.256	7.33
259.471	7.65
259.686	6.89
259.901	6.96
260.116	6.78
260.331	7.06
260.546	6.72
260.761	6.11
260.976	5.44
261.191	5.2
261.406	4.55
261.621	4.96
261.836	4.77
262.05	5.89
262.265	5.76
262.48	5.82
262.695	5.04
262.91	5.77
263.125	7.13
263.34	8.07
263.555	8.13
263.769	8.53
263.984	8.53
264.199	8.97
264.414	8.44
264.629	9.17
264.843	9.44
265.058	9.07
265.273	9.01
265.488	8.59
265.702	8.5
265.917	8.88
266.132	8.85
266.346	8.92
266.561	9.05
266.776	9.4
266.99	8.73
267.205	8.55
267.42	8.94
267.634	9.23
267.849	8.75
268.063	7.97
268.278	8.12
268.492	8.04
268.707	8.16
268.922	7.46
269.136	6.33
269.351	6.2
269.565	5.96
269.78	5.62
269.994	5.14
270.209	5.7
270.423	6.12
270.637	5.82
270.852	5.99
271.066	5.81
271.281	5.89
271.495	6.52
271.709	6.68
271.924	6.89
272.138	7.05
272.353	7.94
272.567	7.06
272.781	6.91
272.996	6.86
273.21	7.19
273.424	7.33
273.638	8.12
273.853	8.23
274.067	7.8
274.281	7.43
274.495	8
274.71	7.16
274.924	7.81
275.138	7.57
275.352	8.09
275.566	7.9
275.781	7.99
275.995	7.01
276.209	7.69
276.423	7.85
276.637	8.1
276.851	7.16
277.065	6.57
277.279	6.87
277.493	7.43
277.707	6.99
277.921	6.73
278.135	6.7
278.349	6.33
278.563	5.35
278.777	5.34
278.991	5.32
279.205	5.9
279.419	6.17
279.633	6.08
279.847	6.41
280.061	6.32
280.275	6.19
280.489	6.09
280.703	7.16
280.917	7.35
281.131	7.42
281.344	7.2
281.558	6.74
281.772	6.92
281.986	6.39
282.2	6.14
282.414	6.08
282.627	6.16
282.841	6.01
283.055	5.83
283.269	5.99
283.482	6.21
283.696	6.07
283.91	6.58
284.123	6.68
284.337	7.1
284.551	6.82
284.764	7.12
284.978	7.12
285.192	7.04
285.405	6.85
285.619	6.84
285.833	6.85
286.046	7.48
286.26	7.26
286.473	7.36
286.687	7.23
286.9	7.54
287.114	7.57
287.327	7.85
287.541	8.18
287.754	8.1
287.968	8.03
288.181	7.8
288.395	7.61
288.608	7.87
288.822	7.69
289.035	7.91
289.248	7.93
289.462	7.98
289.675	7.59
289.889	7.78
290.102	7.45
290.315	7.61
290.529	7.69
290.742	7.83
290.955	7.86
291.169	7.97
291.382	7.74
291.595	7.73
291.808	7.7
292.022	7.64
292.235	7.34
292.448	7.79
292.661	7.76
292.875	7.68
293.088	7.6
293.301	7.7
293.514	7.81
293.727	7.95
293.94	7.86
294.153	7.74
294.367	8.13
294.58	8.25
294.793	8.44
295.006	8.63
295.219	8.89
295.432	8.95
295.645	8.96
295.858	8.72
296.071	8.35
296.284	8.59
296.497	8.78
296.71	8.65
296.923	8.54
297.136	8.6
297.349	8.6
297.562	8.36
297.775	8.54
297.988	8.34
298.201	8.76
298.414	9.26
298.626	9.2
298.839	9.04
299.052	9.04
299.265	8.87
299.478	8.76
299.691	8.47
299.903	8.45
300.116	8.24
300.329	8.38
300.542	8.21
300.755	8.36
300.967	8.04
301.18	8.8
301.393	9.21
301.605	9.91
301.818	9.55
302.031	9.7
302.243	9.95
302.456	10.14
302.669	10.01
302.881	10.21
303.094	10.27
303.307	10.22
303.519	9.49
303.732	9.38
303.944	9.33
304.157	9.94
304.37	10.09
304.582	9.62
304.795	9.51
305.007	9.69
305.22	9.66
305.432	9.21
305.645	9.43
305.857	9.73
306.069	10.3
306.282	10.15
306.494	9.86
306.707	9.89
306.919	10.86
307.132	10.72
307.344	10.89
307.556	10.48
307.769	10.55
307.981	10.74
308.193	10.52
308.406	9.91
308.618	9.66
308.83	9.85
309.043	9.8
309.255	9.24
309.467	9.2
309.679	9.02
309.892	8.84
310.104	8.98
310.316	8.69
310.528	8.78
310.74	9.05
310.953	9.33
311.165	8.78
311.377	8.98
311.589	9.12
311.801	9.62
312.013	9.77
312.225	10.31
312.437	10.23
312.649	10.76
312.862	10.94
313.074	10.54
313.286	10.43
313.498	10.59
313.71	10.53
313.922	10.82
314.134	10.6
314.346	10.33
314.558	10.58
314.77	10.32
314.982	10.02
315.193	9.89
315.405	9.97
315.617	9.87
315.829	10.18
316.041	9.86
316.253	9.66
316.465	9.88
316.677	9.8
316.888	9.92
317.1	10.63
317.312	10.7
317.524	10.65
317.736	10.79
317.947	11.48
318.159	11.31
318.371	11.17
318.583	10.91
318.794	10.68
319.006	10.96
319.218	10.68
319.43	10.88
319.641	11.29
319.853	10.99
320.064	11.13
320.276	10.58
320.488	10.63
320.699	10.77
320.911	11.35
321.123	11.27
321.334	11.24
321.546	11.15
321.757	10.5
321.969	9.95
322.18	10.32
322.392	10.16
322.603	10.58
322.815	10.02
323.026	10.01
323.238	9.41
323.449	9.44
323.661	9.07
323.872	9.72
324.083	10.37
324.295	10.47
324.506	10.65
324.718	10.35
324.929	10.23
325.14	11.13
325.352	11.51
325.563	11.99
325.774	11.98
325.986	12.33
326.197	11.82
326.408	11.53
326.62	11.45
326.831	11.3
327.042	11.79
327.253	11.54
327.464	11.16
327.676	11.18
327.887	10.87
328.098	11.1
328.309	10.89
328.52	10.86
328.732	10.69
328.943	11.22
329.154	11.3
329.365	11.15
329.576	11.16
329.787	11.56
329.998	11.15
330.209	11.25
330.42	10.88
330.631	11.14
330.842	10.82
331.053	10.64
331.264	9.69
331.475	9.77
331.686	9.39
331.897	9.47
332.108	9.18
332.319	9.26
332.53	9.24
332.741	9.11
332.952	8.78
333.163	8.82
333.374	8.84
333.585	9.37
333.795	9.47
334.006	9.93
334.217	9.95
334.428	10.18
334.639	10.23
334.849	10.4
335.06	10.51
335.271	10.75
335.482	11.13
335.692	10.99
335.903	10.92
336.114	10.38
336.325	10.16
336.535	10.48
336.746	10.39
336.957	10.51
337.167	10.2
337.378	10.12
337.589	10.13
337.799	9.83
338.01	10.26
338.22	10.47
338.431	10.21
338.642	10.28
338.852	9.69
339.063	9.42
339.273	9.23
339.484	9.32
339.694	9.59
339.905	9.53
340.115	9.99
340.326	9.53
340.536	9.4
340.746	9.58
340.957	9.7
341.167	9.53
341.378	9.81
341.588	9.98
341.799	9.97
342.009	9.7
342.219	9.41
342.43	9.02
342.64	9.29
342.85	9.27
343.061	9.46
343.271	9.49
343.481	9.87
343.691	9.73
343.902	9.76
344.112	9.86
344.322	10.04
344.532	10.16
344.743	10.09
344.953	9.82
345.163	9.73
345.373	9.85
345.583	9.3
345.793	9
346.004	8.96
346.214	8.79
346.424	8.34
346.634	8.28
346.844	8.27
347.054	8.09
347.264	8.29
347.474	8.4
347.684	8.29
347.894	8.6
348.104	8.65
348.314	8.69
348.524	8.43
348.734	8.89
348.944	8.68
349.154	8.77
349.364	8.99
349.574	8.78
349.784	9.02
349.994	8.94
350.204	9.49
350.413	9.59
350.623	9.78
350.833	9.73
351.043	9.43
351.253	9.7
351.463	9.64
351.672	9.67
351.882	9.82
352.092	9.4
352.302	9.47
352.511	9.04
352.721	9.05
352.931	8.82
353.141	9.03
353.35	9.1
353.56	9.13
353.77	8.99
353.979	8.77
354.189	9.02
354.399	9.07
354.608	9.04
354.818	9.02
355.027	9.12
355.237	8.8
355.447	8.46
355.656	8.37
355.866	8.08
356.075	8.2
356.285	8.1
356.494	7.97
356.704	7.86
356.913	7.92
357.123	7.6
357.332	7.44
357.542	7.73
357.751	7.99
357.96	8.26
358.17	8.37
358.379	8.49
358.589	8.59
358.798	8.42
359.007	8.43
359.217	8.43
359.426	8.58
359.635	8.32
359.845	8.29
360.054	8.28
360.263	7.98
360.472	7.82
360.682	7.81
360.891	7.9
361.1	8.02
361.309	8.15
361.519	8.15
361.728	8.05
361.937	8.3
362.146	8.32
362.355	8.2
362.564	8.6
362.774	8.65
362.983	8.35
363.192	7.99
363.401	8.1
363.61	7.86
363.819	7.78
364.028	7.83
364.237	7.75
364.446	7.37
364.655	7.68
364.864	7.37
365.073	7.27
365.282	7.35
365.491	7.67
365.7	7.43
365.909	7.46
366.118	7.36
366.327	7.56
366.536	7.75
366.745	7.93
366.954	7.58
367.162	7.18
367.371	7.25
367.58	7.49
367.789	7.46
367.998	7.5
368.207	7.56
368.415	7.41
368.624	7.01
368.833	6.88
369.042	7.09
369.25	7.04
369.459	7.7
369.668	7.54
369.877	7.23
370.085	7.12
370.294	6.79
370.503	6.63
370.711	6.84
370.92	6.83
371.129	6.59
371.337	6.46
371.546	6.49
371.754	6.07
371.963	6.16
372.171	6.3
372.38	6.21
372.589	6.41
372.797	6.43
373.006	6.08
373.214	6.33
373.423	6.29
373.631	6.23
373.84	6.08
374.048	6.42
374.256	6.48
374.465	6.54
374.673	6.7
374.882	6.86
375.09	6.85
375.298	7.1
375.507	7.09
375.715	7.32
375.923	7.36
376.132	7.53
376.34	7.5
376.548	7.63
376.757	7.51
376.965	7.31
377.173	7.1
377.381	7.04
377.59	6.99
377.798	7.01
378.006	6.91
378.214	6.9
378.423	6.99
378.631	6.54
378.839	6.49
379.047	6.49
379.255	6.78
379.463	6.86
379.671	7.13
379.879	7.12
380.088	7.01
380.296	7.13
380.504	7.16
380.712	6.97
380.92	7.07
381.128	6.92
381.336	6.74
381.544	6.62
381.752	6.5
381.96	6.41
382.168	6.36
382.376	6.39
382.584	6.16
382.791	6.13
382.999	6.39
383.207	6.56
383.415	6.59
383.623	6.9
383.831	6.76
384.039	6.83
384.247	6.86
384.454	6.81
384.662	6.85
384.87	6.94
385.078	6.8
385.285	6.51
385.493	6.57
385.701	6.57
385.909	6.47
386.116	6.6
386.324	6.39
386.532	6.19
386.739	6.02
386.947	5.89
387.155	5.93
387.362	6.14
387.57	6.23
387.778	6.3
387.985	6.23
388.193	6.24
388.4	6.12
388.608	6.27
388.816	6.31
389.023	6.63
389.231	6.67
389.438	6.54
389.646	6.62
389.853	6.65
390.061	6.47
390.268	6.56
390.475	6.51
390.683	6.49
390.89	6.49
391.098	6.63
391.305	6.68
391.512	6.58
391.72	6.52
391.927	6.22
392.135	6.33
392.342	6.21
392.549	6.29
392.756	6.21
392.964	6.37
393.171	6.33
393.378	6.23
393.586	6.08
393.793	6.2
394	6.4
394.207	6.44
394.414	6.21
394.622	6.5
394.829	6.27
395.036	6.26
395.243	6.19
395.45	6.17
395.657	6.28
395.864	6.25
396.072	6.37
396.279	6.33
396.486	6.41
396.693	6.6
396.9	6.21
397.107	6.24
397.314	6.35
397.521	6.34
397.728	6.53
397.935	6.23
398.142	6.22
398.349	6.06
398.556	5.97
398.763	5.83
398.97	5.66
399.177	5.69
399.383	5.73
399.59	5.7
399.797	5.83
400.004	5.89
400.211	5.99
400.418	6.01
400.625	6.1
400.831	6.12
401.038	6.1
401.245	6.09
401.452	6.09
401.658	6.08
401.865	6.16
402.072	6
402.279	5.91
402.485	5.82
402.692	5.82
402.899	5.73
403.105	5.67
403.312	5.96
403.519	6.07
403.725	6.25
403.932	6.32
404.138	6.23
404.345	6.3
404.552	6.06
404.758	6.19
404.965	6.18
405.171	6.16
405.378	6.08
405.584	5.87
405.791	5.84
405.997	5.62
406.204	5.44
406.41	5.61
406.617	5.66
406.823	5.82
407.029	5.53
407.236	5.51
407.442	5.6
407.649	5.93
407.855	6.06
408.061	5.93
408.268	6.01
408.474	6.08
408.68	5.91
408.887	5.84
409.093	5.79
409.299	6.24
409.505	6.22
409.712	6.13
409.918	6.03
410.124	5.88
410.33	5.93
410.537	6
410.743	6.16
410.949	6.06
411.155	6.09
411.361	6.13
411.567	5.83
411.773	5.87
411.98	5.79
412.186	5.82
412.392	5.84
412.598	5.93
412.804	5.97
413.01	5.78
413.216	5.76
413.422	5.69
413.628	5.78
413.834	5.9
414.04	5.85
414.246	5.82
414.452	5.79
414.658	5.8
414.864	5.81
415.07	5.84
415.275	5.85
415.481	5.84
415.687	5.92
415.893	5.93
416.099	5.86
416.305	5.97
416.511	5.94
416.716	5.86
416.922	5.86
417.128	5.8
417.334	5.81
417.539	5.68
417.745	5.71
417.951	5.66
418.157	5.66
418.362	5.59
418.568	5.52
418.774	5.59
418.979	5.62
419.185	5.58
419.391	5.6
419.596	5.47
419.802	5.58
420.008	5.58
420.213	5.63
420.419	5.53
420.624	5.63
420.83	5.55
421.035	5.54
421.241	5.59
421.446	5.63
421.652	5.64
421.857	5.68
422.063	5.67
422.268	5.74
422.474	5.63
422.679	5.69
422.885	5.71
423.09	5.8
423.295	5.83
423.501	5.77
423.706	5.79
423.911	5.74
424.117	5.73
424.322	5.73
424.527	5.59
424.733	5.66
424.938	5.57
425.143	5.48
425.349	5.44
425.554	5.49
425.759	5.5
425.964	5.5
426.169	5.49
426.375	5.62
426.58	5.56
426.785	5.66
426.99	5.68
427.195	5.67
427.4	5.71
427.605	5.73
427.811	5.62
428.016	5.55
428.221	5.54
428.426	5.59
428.631	5.57
428.836	5.63
429.041	5.62
429.246	5.48
429.451	5.61
429.656	5.73
429.861	5.75
430.066	5.75
430.271	5.79
430.476	5.89
430.681	5.85
430.886	5.74
431.09	5.75
431.295	5.75
431.5	5.79
431.705	5.73
431.91	5.64
432.115	5.65
432.32	5.61
432.524	5.54
432.729	5.4
432.934	5.28
433.139	5.47
433.343	5.46
433.548	5.49
433.753	5.47
433.958	5.58
434.162	5.64
434.367	5.69
434.572	5.61
434.776	5.61
434.981	5.71
435.186	5.87
435.39	5.72
435.595	5.79
435.799	5.71
436.004	5.86
436.209	5.82
436.413	5.72
436.618	5.58
436.822	5.68
437.027	5.77
437.231	5.77
437.436	5.7
437.64	5.6
437.845	5.53
438.049	5.56
438.253	5.59
438.458	5.58
438.662	5.65
438.867	5.77
439.071	5.91
439.275	5.84
439.48	5.76
439.684	5.83
439.888	5.9
440.093	6
440.297	6.09
440.501	5.96
440.706	5.97
440.91	6.03
441.114	5.98
441.318	5.88
441.523	5.87
441.727	6
441.931	6.04
442.135	5.93
442.339	5.83
442.543	5.67
442.748	5.66
442.952	5.59
443.156	5.53
443.36	5.52
443.564	5.54
443.768	5.59
443.972	5.56
444.176	5.47
444.38	5.56
444.584	5.63
444.788	5.74
444.992	5.76
445.196	5.79
445.4	5.8
445.604	5.71
445.808	5.7
446.012	5.71
446.216	5.66
446.42	5.69
446.624	5.65
446.828	5.55
447.032	5.47
447.235	5.51
447.439	5.43
447.643	5.35
447.847	5.45
448.051	5.48
448.254	5.46
448.458	5.58
448.662	5.54
448.866	5.64
449.069	5.59
449.273	5.59
449.477	5.58
449.681	5.74
449.884	5.88
450.088	5.93
450.292	5.73
450.495	5.7
450.699	5.69
450.902	5.74
451.106	5.73
451.31	5.73
451.513	5.75
451.717	5.69
451.92	5.63
452.124	5.52
452.327	5.41
452.531	5.56
452.734	5.64
452.938	5.44
453.141	5.43
453.345	5.43
453.548	5.49
453.752	5.52
453.955	5.48
454.158	5.46
454.362	5.49
454.565	5.57
454.769	5.67
454.972	5.59
455.175	5.71
455.379	5.64
455.582	5.62
455.785	5.56
455.988	5.53
456.192	5.51
456.395	5.42
456.598	5.47
456.801	5.41
457.005	5.23
457.208	5.29
457.411	5.32
457.614	5.34
457.817	5.41
458.021	5.44
458.224	5.45
458.427	5.55
458.63	5.67
458.833	5.64
459.036	5.6
459.239	5.72
459.442	5.65
459.645	5.62
459.848	5.69
460.051	5.61
460.254	5.72
460.457	5.71
460.66	5.7
460.863	5.59
461.066	5.55
461.269	5.6
461.472	5.51
461.675	5.47
461.878	5.5
462.081	5.45
462.284	5.53
462.486	5.42
462.689	5.4
462.892	5.42
463.095	5.49
463.298	5.51
463.5	5.57
463.703	5.67
463.906	5.7
464.109	5.69
464.311	5.75
464.514	5.77
464.717	5.86
464.92	5.95
465.122	6.02
465.325	6.01
465.528	6.07
465.73	6.1
465.933	6.05
466.135	6.08
466.338	6.04
466.541	5.86
466.743	5.79
466.946	5.76
467.148	5.71
467.351	5.59
467.553	5.58
467.756	5.48
467.958	5.42
468.161	5.38
468.363	5.36
468.566	5.36
468.768	5.6
468.971	5.7
469.173	5.64
469.375	5.73
469.578	5.64
469.78	5.59
469.983	5.66
470.185	5.62
470.387	5.61
470.59	5.67
470.792	5.7
470.994	5.58
471.196	5.53
471.399	5.52
471.601	5.39
471.803	5.44
472.005	5.5
472.208	5.43
472.41	5.51
472.612	5.49
472.814	5.4
473.016	5.4
473.218	5.44
473.421	5.41
473.623	5.39
473.825	5.47
474.027	5.55
474.229	5.46
474.431	5.52
474.633	5.55
474.835	5.54
475.037	5.63
475.239	5.64
475.441	5.51
475.643	5.57
475.845	5.6
476.047	5.58
476.249	5.54
476.451	5.65
476.653	5.64
476.855	5.67
477.057	5.71
477.258	5.74
477.46	5.7
477.662	5.7
477.864	5.58
478.066	5.62
478.268	5.64
478.469	5.63
478.671	5.57
478.873	5.57
479.075	5.55
479.276	5.56
479.478	5.48
479.68	5.47
479.882	5.53
480.083	5.58
480.285	5.53
480.487	5.5
480.688	5.55
480.89	5.59
481.091	5.62
481.293	5.6
481.495	5.61
481.696	5.61
481.898	5.59
482.099	5.56
482.301	5.54
482.502	5.54
482.704	5.52
482.905	5.5
483.107	5.49
483.308	5.46
483.51	5.49
483.711	5.49
483.913	5.5
484.114	5.5
484.315	5.49
484.517	5.51
484.718	5.51
484.92	5.58
485.121	5.6
485.322	5.56
485.524	5.58
485.725	5.58
485.926	5.58
486.127	5.56
486.329	5.57
486.53	5.58
486.731	5.57
486.932	5.6
487.134	5.6
487.335	5.6
487.536	5.59
487.737	5.6
487.938	5.52
488.139	5.53
488.341	5.55
488.542	5.58
488.743	5.62
488.944	5.63
489.145	5.6
489.346	5.56
489.547	5.57
489.748	5.6
489.949	5.61
490.15	5.66
490.351	5.63
490.552	5.69
490.753	5.69
490.954	5.69
491.155	5.69
491.356	5.72
491.557	5.76
491.758	5.78
491.959	5.75
492.159	5.76
492.36	5.72
492.561	5.73
492.762	5.65
492.963	5.64
493.164	5.66
493.364	5.67
493.565	5.62
493.766	5.56
493.967	5.54
494.167	5.61
494.368	5.63
494.569	5.67
494.769	5.73
494.97	5.78
495.171	5.83
495.371	5.8
495.572	5.84
495.773	5.85
495.973	5.9
496.174	5.87
496.375	5.84
496.575	5.78
496.776	5.85
496.976	5.9
497.177	5.82
497.377	5.88
497.578	5.86
497.778	5.78
497.979	5.78
498.179	5.81
498.38	5.94
498.58	5.94
498.78	6.06
498.981	5.98
499.181	5.94
499.382	6.08
499.582	5.95
499.782	6.04
499.983	6.21
500.183	6.25
500.383	6.26
500.584	6.12
500.784	6.25
500.984	6.18
501.184	6.21
501.385	6.2
501.585	6.21
501.785	6.26
501.985	6.29
502.185	6.15
502.386	6.13
502.586	6.1
502.786	6.15
502.986	6.08
503.186	6.16
503.386	6.18
503.586	6.25
503.786	6.16
503.987	6.14
504.187	6.11
504.387	6.18
504.587	6.18
504.787	6.17
504.987	6.17
505.187	6.21
505.387	6.17
505.587	6.16
505.786	6.12
505.986	6.2
506.186	6.23
506.386	6.32
506.586	6.41
506.786	6.43
506.986	6.45
507.186	6.48
507.386	6.54
507.585	6.52
507.785	6.56
507.985	6.55
508.185	6.56
508.384	6.57
508.584	6.5
508.784	6.44
508.984	6.46
509.183	6.49
509.383	6.44
509.583	6.34
509.782	6.37
509.982	6.42
510.182	6.48
510.381	6.5
510.581	6.48
510.781	6.46
510.98	6.45
511.18	6.51
511.379	6.5
511.579	6.57
511.778	6.67
511.978	6.72
512.177	6.74
512.377	6.71
512.576	6.7
512.776	6.84
512.975	6.87
513.175	6.92
513.374	6.88
513.573	6.91
513.773	6.92
513.972	6.89
514.172	6.88
514.371	6.95
514.57	6.97
514.77	7.04
514.969	6.96
515.168	6.96
515.367	7.01
515.567	7.05
515.766	7.01
515.965	7.06
516.164	7.11
516.364	7.11
516.563	6.95
516.762	6.98
516.961	7.03
517.16	7.03
517.359	7.04
517.559	7.04
517.758	7.08
517.957	7.15
518.156	7.21
518.355	7.17
518.554	7.17
518.753	7.26
518.952	7.27
519.151	7.28
519.35	7.36
519.549	7.4
519.748	7.36
519.947	7.41
520.146	7.4
520.345	7.37
520.544	7.42
520.743	7.53
520.942	7.58
521.141	7.64
521.339	7.62
521.538	7.62
521.737	7.69
521.936	7.75
522.135	7.7
522.333	7.64
522.532	7.68
522.731	7.72
522.93	7.66
523.129	7.68
523.327	7.62
523.526	7.64
523.725	7.67
523.923	7.69
524.122	7.72
524.321	7.69
524.519	7.78
524.718	7.81
524.917	7.8
525.115	7.83
525.314	7.84
525.512	7.85
525.711	7.82
525.909	7.81
526.108	7.78
526.306	7.8
526.505	7.86
526.703	7.87
526.902	7.87
527.1	7.88
527.299	7.87
527.497	7.86
527.696	7.92
527.894	7.95
528.092	7.98
528.291	8.02
528.489	8.04
528.688	8.07
528.886	8.08
529.084	8.12
529.283	8.18
529.481	8.25
529.679	8.28
529.877	8.26
530.076	8.25
530.274	8.23
530.472	8.2
530.67	8.18
530.869	8.15
531.067	8.18
531.265	8.17
531.463	8.17
531.661	8.16
531.859	8.21
532.057	8.27
532.255	8.29
532.454	8.33
532.652	8.41
532.85	8.45
533.048	8.47
533.246	8.53
533.444	8.58
533.642	8.63
533.84	8.66
534.038	8.65
534.236	8.67
534.434	8.76
534.632	8.75
534.83	8.71
535.027	8.72
535.225	8.74
535.423	8.66
535.621	8.6
535.819	8.57
536.017	8.68
536.215	8.67
536.412	8.63
536.61	8.56
536.808	8.62
537.006	8.64
537.203	8.63
537.401	8.69
537.599	8.78
537.797	8.92
537.994	8.91
538.192	8.94
538.39	9.05
538.587	9.09
538.785	9.18
538.983	9.2
539.18	9.23
539.378	9.23
539.575	9.24
539.773	9.24
539.97	9.23
540.168	9.22
540.366	9.22
540.563	9.23
540.761	9.25
540.958	9.25
541.155	9.23
541.353	9.25
541.55	9.27
541.748	9.29
541.945	9.31
542.143	9.31
542.34	9.36
542.537	9.4
542.735	9.34
542.932	9.37
543.129	9.35
543.327	9.39
543.524	9.44
543.721	9.54
543.919	9.59
544.116	9.58
544.313	9.64
544.51	9.65
544.708	9.65
544.905	9.77
545.102	9.83
545.299	9.91
545.496	9.93
545.693	9.91
545.891	9.9
546.088	9.89
546.285	9.98
546.482	10.08
546.679	10.1
546.876	10.1
547.073	10.11
547.27	10.08
547.467	10.12
547.664	10.17
547.861	10.2
548.058	10.18
548.255	10.18
548.452	10.14
548.649	10.07
548.846	10.21
549.043	10.28
549.24	10.28
549.437	10.32
549.633	10.3
549.83	10.27
550.027	10.33
550.224	10.47
550.421	10.63
550.618	10.76
550.814	10.78
551.011	10.7
551.208	10.78
551.405	10.87
551.601	10.96
551.798	11.1
551.995	11.24
552.191	11.29
552.388	11.29
552.585	11.33
552.781	11.37
552.978	11.42
553.175	11.54
553.371	11.53
553.568	11.61
553.764	11.65
553.961	11.63
554.157	11.69
554.354	11.79
554.55	11.88
554.747	11.86
554.943	11.87
555.14	11.88
555.336	11.96
555.533	12.04
555.729	12.09
555.926	12.14
556.122	12.14
556.318	12.21
556.515	12.22
556.711	12.21
556.907	12.29
557.104	12.45
557.3	12.6
557.496	12.53
557.693	12.54
557.889	12.63
558.085	12.72
558.281	12.87
558.478	12.8
558.674	12.82
558.87	12.7
559.066	12.74
559.262	12.66
559.459	12.5
559.655	12.58
559.851	12.65
560.047	12.67
560.243	12.73
560.439	12.72
560.635	12.8
560.831	12.96
561.027	13.15
561.223	13.11
561.419	13.1
561.615	13.26
561.811	13.3
562.007	13.37
562.203	13.29
562.399	13.22
562.595	13.28
562.791	13.39
562.987	13.52
563.183	13.61
563.379	13.69
563.575	13.87
563.771	13.89
563.966	13.94
564.162	14
564.358	14.14
564.554	14.17
564.75	14.22
564.945	14.23
565.141	14.24
565.337	14.24
565.533	14.4
565.728	14.36
565.924	14.46
566.12	14.56
566.315	14.55
566.511	14.6
566.707	14.72
566.902	14.8
567.098	14.94
567.293	14.97
567.489	15.06
567.684	14.92
567.88	15.01
568.076	15.04
568.271	15.05
568.467	15.18
568.662	15.26
568.858	15.4
569.053	15.48
569.248	15.43
569.444	15.41
569.639	15.46
569.835	15.58
570.03	15.69
570.225	15.75
570.421	15.82
570.616	15.87
570.812	15.83
571.007	15.79
571.202	15.88
571.397	16.06
571.593	16.03
571.788	16.15
571.983	16.28
572.178	16.26
572.374	16.3
572.569	16.38
572.764	16.4
572.959	16.45
573.154	16.55
573.35	16.48
573.545	16.43
573.74	16.66
573.935	16.57
574.13	16.51
574.325	16.64
574.52	16.73
574.715	16.67
574.91	16.66
575.105	16.75
575.3	16.81
575.495	16.78
575.69	16.86
575.885	16.76
576.08	16.81
576.275	16.89
576.47	16.92
576.665	16.91
576.86	17.07
577.055	17.16
577.25	17.18
577.444	17.15
577.639	17.35
577.834	17.4
578.029	17.56
578.224	17.57
578.418	17.71
578.613	17.63
578.808	17.85
579.003	17.86
579.197	17.85
579.392	17.95
579.587	17.98
579.781	18.09
579.976	18.16
580.171	18.09
580.365	18.31
580.56	18.22
580.755	18.34
580.949	18.22
581.144	18.23
581.338	18.22
581.533	18.22
581.727	18.3
581.922	18.12
582.116	18.06
582.311	18.09
582.505	18.07
582.7	18.15
582.894	18.19
583.089	18.23
583.283	18.15
583.478	18.44
583.672	18.61
583.866	18.67
584.061	18.68
584.255	18.68
584.449	18.66
584.644	18.69
584.838	18.7
585.032	18.69
585.226	18.66
585.421	18.91
585.615	18.83
585.809	18.78
586.003	18.85
586.198	19.04
586.392	19.14
586.586	19.33
586.78	19.39
586.974	19.48
587.168	19.56
587.363	19.76
587.557	19.73
587.751	19.77
587.945	19.85
588.139	19.85
588.333	19.85
588.527	19.9
588.721	19.84
588.915	19.83
589.109	19.95
589.303	19.99
589.497	19.94
589.691	19.91
589.885	20.02
590.079	19.98
590.273	20.09
590.466	20.18
590.66	20.21
590.854	20.24
591.048	20.26
591.242	20.23
591.436	20.36
591.629	20.37
591.823	20.6
592.017	20.4
592.211	20.44
592.404	20.33
592.598	20.35
592.792	20.28
592.986	20.48
593.179	20.62
593.373	20.68
593.567	20.61
593.76	20.73
593.954	20.62
594.147	20.84
594.341	20.93
594.535	21.05
594.728	21.18
594.922	21.3
595.115	21.39
595.309	21.27
595.502	21.31
595.696	21.49
595.889	21.44
596.083	21.55
596.276	21.47
596.47	21.48
596.663	21.46
596.856	21.43
597.05	21.51
597.243	21.39
597.437	21.56
597.63	21.59
597.823	21.55
598.017	21.61
598.21	21.6
598.403	21.63
598.596	21.73
598.79	21.73
598.983	21.72
599.176	21.71
599.369	21.73
599.563	21.72
599.756	21.73
599.949	21.72
600.142	21.71
600.335	21.75
600.528	21.96
600.722	21.98
600.915	22.07
601.108	22.19
601.301	22.22
601.494	22.27
601.687	22.2
601.88	22.39
602.073	22.49
602.266	22.61
602.459	22.59
602.652	22.54
602.845	22.36
603.038	22.43
603.231	22.39
603.424	22.36
603.617	22.34
603.809	22.42
604.002	22.27
604.195	22.26
604.388	22.22
604.581	22.27
604.774	22.36
604.966	22.47
605.159	22.4
605.352	22.26
605.545	22.47
605.737	22.59
605.93	22.72
606.123	22.75
606.316	22.81
606.508	23
606.701	23.1
606.894	22.98
607.086	23.12
607.279	23.14
607.471	23.29
607.664	23.22
607.857	23.26
608.049	23.21
608.242	23.2
608.434	23.12
608.627	23.07
608.819	23
609.012	22.97
609.204	22.99
609.397	23.16
609.589	23.27
609.782	23.15
609.974	23.12
610.166	23.12
610.359	23.34
610.551	23.25
610.743	23.12
610.936	23.19
611.128	23.27
611.32	23.23
611.513	23.2
611.705	23.14
611.897	23.43
612.09	23.5
612.282	23.63
612.474	23.54
612.666	23.59
612.858	23.81
613.051	23.82
613.243	23.99
613.435	23.95
613.627	24.03
613.819	23.96
614.011	24.29
614.203	24.27
614.395	24.11
614.588	24.21
614.78	24.36
614.972	24.34
615.164	24.39
615.356	24.31
615.548	24.4
615.74	24.19
615.932	24.3
616.124	23.91
616.315	24.14
616.507	24.43
616.699	24.33
616.891	24.4
617.083	24.31
617.275	24.31
617.467	24.46
617.659	24.62
617.85	24.81
618.042	24.82
618.234	24.72
618.426	24.45
618.618	24.36
618.809	24.4
619.001	24.38
619.193	24.53
619.384	24.43
619.576	24.43
619.768	24.31
619.959	24.19
620.151	24.19
620.343	24.32
620.534	24.33
620.726	24.25
620.917	24.23
621.109	24.36
621.301	24.48
621.492	24.7
621.684	24.71
621.875	24.68
622.067	24.67
622.258	24.74
622.45	24.78
622.641	24.81
622.832	24.79
623.024	24.83
623.215	24.65
623.407	24.6
623.598	24.67
623.789	24.7
623.981	24.74
624.172	24.78
624.363	24.86
624.555	24.79
624.746	24.92
624.937	25.11
625.129	25.37
625.32	25.48
625.511	25.48
625.702	25.32
625.893	25.34
626.085	25.43
626.276	25.33
626.467	25.31
626.658	25.32
626.849	25.27
627.04	25.26
627.231	25.04
627.422	25
627.614	25.02
627.805	25
627.996	24.83
628.187	24.79
628.378	25.05
628.569	25.03
628.76	25.06
628.951	25.04
629.142	25.1
629.332	25.03
629.523	24.99
629.714	25
629.905	25.27
630.096	25.4
630.287	25.57
630.478	25.44
630.669	25.49
630.859	25.6
631.05	25.54
631.241	25.51
631.432	25.57
631.623	25.7
631.813	25.86
632.004	25.66
632.195	25.69
632.385	25.63
632.576	25.72
632.767	25.81
632.957	25.78
633.148	25.86
633.339	25.75
633.529	25.77
633.72	25.89
633.91	25.78
634.101	25.94
634.292	25.91
634.482	25.85
634.673	26.05
634.863	26
635.054	26.04
635.244	26.14
635.435	26.3
635.625	26.37
635.815	26.13
636.006	26.04
636.196	25.83
636.387	25.88
636.577	26.02
636.767	25.87
636.958	25.87
637.148	25.9
637.338	25.92
637.529	25.89
637.719	26.11
637.909	26.24
638.099	26.6
638.29	26.78
638.48	26.86
638.67	26.79
638.86	26.75
639.05	26.87
639.241	26.91
639.431	26.95
639.621	26.96
639.811	26.81
640.001	26.74
640.191	26.4
640.381	26.51
640.571	26.54
640.761	26.6
640.951	26.81
641.141	26.74
641.331	26.65
641.521	26.51
641.711	26.49
641.901	26.29
642.091	26.5
642.281	26.56
642.471	26.56
642.661	26.71
642.851	26.75
643.041	26.46
643.231	26.48
643.42	26.62
643.61	26.81
643.8	26.93
643.99	27.19
644.18	27.04
644.369	27.24
644.559	27.1
644.749	26.99
644.939	26.94
645.128	27.12
645.318	27.26
645.508	27.29
645.697	27.27
645.887	27.1
646.076	27.19
646.266	27.33
646.456	27.16
646.645	27.55
646.835	27.4
647.024	27.48
647.214	27.53
647.403	27.32
647.593	27.21
647.782	27.3
647.972	27.4
648.161	27.34
648.351	27.21
648.54	27.22
648.73	27.1
648.919	27.1
649.108	27.02
649.298	27.09
649.487	27.08
649.677	27.15
649.866	27.01
650.055	27.11
650.244	27.21
650.434	27.31
650.623	27.48
650.812	27.42
651.002	27.54
651.191	27.58
651.38	27.53
651.569	27.73
651.758	27.63
651.947	27.74
652.137	27.66
652.326	27.52
652.515	27.79
652.704	27.82
652.893	27.79
653.082	27.85
653.271	27.99
653.46	28.09
653.649	27.92
653.838	27.97
654.027	27.92
654.216	28.09
654.405	28.21
654.594	27.97
654.783	28.07
654.972	28.2
655.161	28.37
655.35	28.16
655.539	28.07
655.728	28.14
655.916	28.18
656.105	28.29
656.294	28.39
656.483	28.27
656.672	28.26
656.86	27.99
657.049	27.84
657.238	27.58
657.427	27.77
657.615	27.88
657.804	27.93
657.993	27.91
658.181	27.97
658.37	27.79
658.559	27.85
658.747	27.89
658.936	28.07
659.125	28.43
659.313	28.57
659.502	28.7
659.69	28.71
659.879	28.79
660.067	28.78
660.256	28.76
660.444	28.88
660.633	29
660.821	29.19
661.01	29.06
661.198	28.58
661.387	28.55
661.575	28.32
661.763	28.41
661.952	28.31
662.14	28.68
662.328	28.69
662.517	28.61
662.705	28.45
662.893	28.08
663.082	28.33
663.27	28.45
663.458	28.41
663.646	28.49
663.834	28.57
664.023	28.54
664.211	28.23
664.399	28.16
664.587	28.26
664.775	28.19
664.963	28.51
665.152	28.39
665.34	28.46
665.528	28.63
665.716	28.74
665.904	28.6
666.092	28.81
666.28	28.91
666.468	28.92
666.656	29.07
666.844	29.43
667.032	29.51
667.22	29.48
667.408	29.5
667.596	29.54
667.784	29.53
667.971	29.48
668.159	29.28
668.347	29.16
668.535	29.13
668.723	29.17
668.911	29
669.098	29.12
669.286	29.38
669.474	29.57
669.662	29.58
669.849	29.54
670.037	29.7
670.225	29.99
670.413	30.22
670.6	30.55
670.788	30.3
670.976	30.36
671.163	30.15
671.351	29.67
671.538	29.61
671.726	29.56
671.913	29.38
672.101	29.21
672.289	29.11
672.476	29.15
672.664	28.86
672.851	28.91
673.039	28.88
673.226	28.98
673.413	29.05
673.601	28.93
673.788	28.92
673.976	29.12
674.163	29.39
674.35	29.45
674.538	29.53
674.725	29.79
674.912	29.83
675.1	29.91
675.287	29.96
675.474	30.3
675.662	30.42
675.849	30.53
676.036	30.32
676.223	30.27
676.411	30.32
676.598	30.25
676.785	30.36
676.972	30.48
677.159	30.54
677.346	30.44
677.533	30.43
677.721	30.37
677.908	30.56
678.095	30.67
678.282	30.78
678.469	30.85
678.656	30.8
678.843	30.63
679.03	30.61
679.217	30.85
679.404	30.81
679.591	30.78
679.778	30.68
679.964	30.76
680.151	30.78
680.338	30.68
680.525	30.47
680.712	30.49
680.899	30.63
681.086	30.66
681.272	30.29
681.459	30.59
681.646	30.56
681.833	30.58
682.02	30.39
682.206	30.52
682.393	30.51
682.58	30.84
682.766	30.79
682.953	30.65
683.14	30.51
683.326	31.04
683.513	30.9
683.7	30.81
683.886	31.2
684.073	31.25
684.259	31.25
684.446	31.18
684.632	31.02
684.819	31.15
685.005	31.09
685.192	31.23
685.378	30.96
685.565	30.85
685.751	30.79
685.938	30.5
686.124	30.53
686.31	30.44
686.497	30.2
686.683	29.97
686.87	30.21
687.056	30.23
687.242	30.12
687.429	30.29
687.615	30.48
687.801	30.75
687.987	30.98
688.174	30.77
688.36	31.27
688.546	31.61
688.732	31.93
688.918	31.85
689.105	32.06
689.291	32.24
689.477	32.05
689.663	32.12
689.849	32.22
690.035	32.15
690.221	32.47
690.407	32.25
690.593	32.2
690.779	32.1
690.965	32.1
691.151	31.95
691.337	31.91
691.523	32.17
691.709	32.08
691.895	31.85
692.081	31.79
692.267	31.71
692.453	31.69
692.639	31.75
692.825	31.56
693.011	31.31
693.196	31.27
693.382	31.26
693.568	30.87
693.754	30.71
693.94	30.81
694.125	30.95
694.311	31.03
694.497	31.01
694.682	31.15
694.868	31.54
695.054	31.66
695.239	31.91
695.425	31.95
695.611	32.12
695.796	32.25
695.982	32.3
696.168	32.21
696.353	32.02
696.539	32.18
696.724	31.93
696.91	31.71
697.095	31.77
697.281	31.89
697.466	31.83
697.652	31.94
697.837	31.89
698.023	31.87
698.208	31.93
698.393	31.98
698.579	31.82
698.764	31.82
698.949	31.91
699.135	31.82
699.32	31.82
699.505	31.77
699.691	31.52
699.876	31.34
700.061	31.46
700.246	31.21
700.432	31.18
700.617	30.91
700.802	31.23
700.987	31.35
701.172	31.46
701.358	30.88
701.543	31.22
701.728	31.31
701.913	31.84
702.098	31.88
702.283	32.22
702.468	31.96
702.653	32.41
702.838	32.01
703.023	32.04
703.208	32.2
703.393	32.8
703.578	32.64
703.763	32.53
703.948	32.58
704.133	32.54
704.318	32.53
704.503	32.88
704.688	32.78
704.873	33.2
705.057	33.26
705.242	33.17
705.427	33.09
705.612	33.28
705.797	33.39
705.981	33.05
706.166	33.05
706.351	32.86
706.536	32.51
706.72	32.38
706.905	32.34
707.09	32.4
707.274	32.56
707.459	32.75
707.644	32.76
707.828	32.93
708.013	33.05
708.197	32.67
708.382	32.84
708.567	33.27
708.751	33.24
708.936	33.28
709.12	33.16
709.305	32.9
709.489	32.7
709.673	32.45
709.858	32.43
710.042	32.5
710.227	32.75
710.411	32.61
710.596	32.72
710.78	32.78
710.964	32.94
711.149	32.95
711.333	33.19
711.517	33.3
711.702	33.74
711.886	33.34
712.07	33.22
712.254	33.15
712.438	33.47
712.623	33.48
712.807	33.25
712.991	32.87
713.175	32.9
713.359	32.88
713.544	32.8
713.728	32.39
713.912	32.44
714.096	32.59
714.28	32.78
714.464	32.79
714.648	32.68
714.832	32.99
715.016	33.35
715.2	33.54
715.384	33.73
715.568	33.82
715.752	33.99
715.936	34.24
716.12	34.16
716.304	34.41
716.488	34.37
716.671	34.33
716.855	34.39
717.039	34.11
717.223	33.79
717.407	33.25
717.59	33.11
717.774	32.9
717.958	32.82
718.142	33.22
718.325	33.01
718.509	32.89
718.693	32.95
718.877	32.92
719.06	33.1
719.244	33.28
719.428	34.06
719.611	34.08
719.795	34.24
719.978	34.2
720.162	33.75
720.345	33.72
720.529	33.69
720.713	33.7
720.896	33.77
721.08	33.56
721.263	33.93
721.446	33.06
721.63	33.28
721.813	32.87
721.997	32.98
722.18	32.84
722.364	33
722.547	32.78
722.73	32.23
722.914	32.17
723.097	32.19
723.28	31.99
723.464	31.85
723.647	31.89
723.83	32.06
724.013	32.07
724.197	32.53
724.38	32.09
724.563	32.33
724.746	32.72
724.929	32.9
725.112	32.46
725.296	31.96
725.479	32.65
725.662	32.35
725.845	32.31
726.028	32.26
726.211	32.3
726.394	31.95
726.577	31.84
726.76	32.29
726.943	32.04
727.126	32.79
727.309	32.67
727.492	32.34
727.675	31.9
727.858	32.34
728.041	32.43
728.224	31.99
728.407	32.38
728.589	32.61
728.772	32.19
728.955	32.5
729.138	32.29
729.321	32.72
729.503	32.64
729.686	33
729.869	32.96
730.052	32.88
730.234	33.15
730.417	33.33
730.6	33.37
730.782	33.27
730.965	32.94
731.148	33.17
731.33	33.35
731.513	33.57
731.695	33.49
731.878	33.54
732.061	34.02
732.243	34.13
732.426	34.27
732.608	34.22
732.791	34.5
732.973	34.54
733.156	34.25
733.338	34.03
733.52	34.03
733.703	33.98
733.885	33.68
734.068	32.69
734.25	32.5
734.432	32.14
734.615	31.97
734.797	32.48
734.979	32.27
735.162	31.82
735.344	32
735.526	31.73
735.708	31.96
735.891	32.13
736.073	32.47
736.255	31.83
736.437	31.96
736.619	31.82
736.802	31.21
736.984	31.48
737.166	32.53
737.348	32.48
737.53	32.32
737.712	32.56
737.894	32.63
738.076	32.6
738.258	33.63
738.44	33.76
738.622	34.24
738.804	33.87
738.986	33.83
739.168	33.58
739.35	33.54
739.532	33.69
739.714	33.03
739.896	32.88
740.078	33.24
740.259	32.48
740.441	32.74
740.623	32.68
740.805	33.49
740.987	33.87
741.168	33.18
741.35	33.45
741.532	33.57
741.714	33.91
741.895	33.92
742.077	34.12
742.259	34.26
742.44	33.76
742.622	33.16
742.804	33.09
742.985	33.04
743.167	33.98
743.348	32.93
743.53	33.01
743.711	33.53
743.893	33.09
744.075	32.95
744.256	33.13
744.438	33.3
744.619	34.19
744.8	33.94
744.982	32.94
745.163	32.2
745.345	33.39
745.526	33.51
745.707	33.1
745.889	32.72
746.07	32.06
746.252	32.77
746.433	33.3
746.614	32.51
746.795	31.33
746.977	32.31
747.158	32.75
747.339	33
747.52	33.21
747.702	32.78
747.883	33.51
748.064	33.65
748.245	32.67
748.426	32.09
748.607	32.55
748.788	33.93
748.97	33.5
749.151	33.25
749.332	32.74
749.513	32.7
749.694	33.68
749.875	34.61
750.056	35.34
750.237	35.61
750.418	35.9
750.599	35.57
750.78	34.86
750.96	35.02
751.141	35.18
751.322	34.52
751.503	34.22
751.684	33.49
751.865	32.6
752.046	32.57
752.226	32.46
752.407	32.26
752.588	32.41
752.769	33.03
752.949	32.57
753.13	33.16
753.311	33.46
753.492	33.73
753.672	34.37
753.853	34.49
754.034	33.83
754.214	34.08
754.395	34.2
754.575	34.24
754.756	33.44
754.937	34.43
755.117	33.74
755.298	33.91
755.478	33.64
755.659	33.53
755.839	33.67
756.02	33.46
756.2	33.75
756.381	33
756.561	32.64
756.741	33.23
756.922	32.82
757.102	31.83
757.283	31.75
757.463	32.69
757.643	32.22
757.823	32.5
758.004	33.64
758.184	32.96
758.364	32.98
758.545	33.22
758.725	33.35
758.905	33.18
759.085	34.4
759.265	34.31
759.446	32.85
759.626	33.65
759.806	33.49
759.986	33.15
760.166	32.49
760.346	32.97
760.526	32.81
760.706	33.29
760.886	33.51
761.066	33.98
761.246	34.41
761.426	35.29
761.606	34.71
761.786	34.58
761.966	34.56
762.146	35.25
762.326	35.3
762.506	35.25
762.686	34.95
762.866	34.9
763.046	34.72
763.225	34.67
763.405	34.65
763.585	34.8
763.765	34.59
763.945	34.17
764.124	34.15
764.304	34.46
764.484	34.27
764.664	33.71
764.843	33.51
765.023	33.05
765.203	32.5
765.382	32.2
765.562	32.05
765.741	32.35
765.921	33.16
766.101	33.18
766.28	32.61
766.46	32.99
766.639	33.41
766.819	33.86
766.998	34.4
767.178	34.77
767.357	34.86
767.537	35.05
767.716	34.81
767.896	34.72
768.075	34.07
768.254	34.59
768.434	35
768.613	34.76
768.792	33.84
768.972	33.28
769.151	33.24
769.33	32.63
769.51	32.62
769.689	32.64
769.868	32.26
770.047	33.57
770.226	33.51
770.406	33.67
770.585	33.48
770.764	33.78
770.943	33.39
771.122	33.39
771.301	34.81
771.48	34.11
771.66	34.43
771.839	34.28
772.018	33.12
772.197	33.05
772.376	32.37
772.555	33.1
772.734	33.39
772.913	34.1
773.092	34.02
773.271	32.72
773.449	33.16
773.628	33.15
773.807	33.39
773.986	33.61
774.165	33.23
774.344	33.44
774.523	33.51
774.701	33.52
774.88	32.98
775.059	33.38
775.238	34.36
775.417	34.43
775.595	34.25
775.774	34.06
775.953	34.06
776.131	34.75
776.31	34.25
776.489	33.97
776.667	34.01
776.846	33.98
777.025	33.63
777.203	32.36
777.382	32.16
777.56	31.5
777.739	31.67
777.917	32.15
778.096	31.35
778.274	31.75
778.453	31.89
778.631	32.52
778.81	32.52
778.988	32.94
779.166	33.63
779.345	33.99
779.523	34.53
779.702	34.02
779.88	33.24
780.058	33.34
780.237	33.68
780.415	34.29
780.593	33.98
780.771	34.57
780.95	34.03
781.128	34.75
781.306	34.84
781.484	34.76
781.662	35.77
781.841	35.57
782.019	35.44
782.197	35.17
782.375	34.76
782.553	34.83
782.731	34.85
782.909	34.78
783.087	35.3
783.265	34.47
783.443	34.6
783.621	34.68
783.799	35.32
783.977	36.67
784.155	36.41
784.333	36.45
784.511	36.03
784.689	35.39
784.867	35.09
785.045	34.12
785.223	35.24
785.4	35.58
785.578	36.08
785.756	35.81
785.934	34.51
786.112	34.45
786.289	33.87
786.467	34.69
786.645	34.46
786.823	35.17
787	34.9
787.178	34.47
787.356	34.23
787.533	32.72
787.711	33.96
787.889	34.24
788.066	34.9
788.244	34.94
788.421	34.49
788.599	35.33
788.776	35.44
788.954	35.84
789.131	35.87
789.309	36.1
789.486	36.38
789.664	35.83
789.841	36.47
790.019	35.77
790.196	36.25
790.373	35.76
790.551	34.98
790.728	34.83
790.906	35.02
791.083	36.03
791.26	36.4
791.437	36.29
791.615	35.56
791.792	35.35
791.969	34.88
792.146	34.81
792.324	36.33
792.501	36.81
792.678	36.57
792.855	36.18
793.032	34.96
793.209	34.04
793.387	35.1
793.564	35.82
793.741	34.41
793.918	34.26
794.095	35.05
794.272	33.54
794.449	32.56
794.626	32.44
794.803	32.31
794.98	32.52
795.157	33.05
795.334	32.08
795.511	32.26
795.688	33.44
795.864	33.43
796.041	32.37
796.218	33.93
796.395	35.57
796.572	36.56
796.749	36.49
796.925	35.33
797.102	35.61
797.279	35.54
797.456	35.15
797.632	35.44
797.809	37.2
797.986	37.48
798.162	36.29
798.339	35.45
798.516	34.69
798.692	35.56
798.869	37.11
799.046	36.21
799.222	36.23
799.399	37.24
799.575	37.18
799.752	37.02
799.928	36.91
800.105	36.86
800.281	37.74
800.458	37.66
800.634	36.65
800.811	35.85
800.987	35.42
801.163	36.57
801.34	36.09
801.516	34.76
801.692	33.78
801.869	34.35
802.045	35.14
802.221	34.81
802.398	35.36
802.574	34.66
802.75	35.04
802.926	36.76
803.103	35.68
803.279	35.54
803.455	35.8
803.631	37.16
803.807	37.06
803.983	36.72
804.16	38.07
804.336	37.45
804.512	38.16
804.688	38.48
804.864	37.67
805.04	38.48
805.216	37.73
805.392	37.7
805.568	36.69
805.744	36.57
805.92	36.89
806.096	35.36
806.272	35.92
806.448	36.76
806.623	37
806.799	36.87
806.975	36.58
807.151	37.04
807.327	38.16
807.503	37.58
807.678	37.97
807.854	37.78
808.03	37.79
808.206	38.11
808.381	37.78
808.557	38.38
808.733	38.89
808.908	38.16
809.084	38.57
809.26	38.58
809.435	39.22
809.611	37.96
809.787	37.03
809.962	36.8
810.138	35.9
810.313	35.54
810.489	33.19
810.664	32.66
810.84	32.58
811.015	32.1
811.191	31.26
811.366	32.41
811.542	32.73
811.717	32.61
811.892	31.97
812.068	32.1
812.243	30.73
812.419	32.38
812.594	33.08
812.769	34.27
812.944	34.21
813.12	33.93
813.295	32.96
813.47	32.6
813.645	33.87
813.821	34.62
813.996	34.5
814.171	35.75
814.346	35.58
814.521	36.25
814.697	36.78
814.872	35.99
815.047	37.04
815.222	37.35
815.397	37.05
815.572	37.02
815.747	37.61
815.922	37.76
816.097	37.71
816.272	38.45
816.447	37.98
816.622	36.74
816.797	37.58
816.972	37.72
817.147	38.19
817.322	40.02
817.496	40.34
817.671	39.19
817.846	39.13
818.021	38.19
818.196	37.55
818.371	37.79
818.545	37.87
818.72	38.63
818.895	38.8
819.069	36.77
819.244	35.77
819.419	35.59
819.594	36.04
819.768	36.36
819.943	36.98
820.117	36.58
820.292	35.81
820.467	36.24
820.641	35.87
820.816	35.8
820.99	35.82
821.165	35.9
821.339	35.21
821.514	35.11
821.688	34.8
821.863	34.54
822.037	34.49
822.212	34.42
822.386	34.25
822.56	34.17
822.735	34.17
822.909	34.35
823.084	34.06
823.258	34.29
823.432	34.14
823.606	34.14
823.781	34.45
823.955	34.77
824.129	35.25
824.303	35.22
824.478	34.89
824.652	34.17
824.826	34.41
825	34.82
825.174	34.8
825.348	34.7
825.523	34.78
825.697	34.88
825.871	34.71
826.045	34.39
826.219	34.59
826.393	35.05
826.567	35.72
826.741	35.79
826.915	35.78
827.089	35.96
827.263	36.5
827.437	37.12
827.611	37
827.784	37.69
827.958	38.22
828.132	37.9
828.306	38.16
828.48	38.42
828.654	38.2
828.827	37.99
829.001	38.18
829.175	38.36
829.349	37.57
829.522	38.21
829.696	37.16
829.87	36.27
830.044	37.02
830.217	37.47
830.391	37.57
830.565	37.42
830.738	38.38
830.912	37.67
831.085	37.53
831.259	37.58
831.432	36.9
831.606	36.81
831.779	36.88
831.953	36.55
832.126	35.63
832.3	35.54
832.473	35.15
832.647	34.28
832.82	34.04
832.994	34.13
833.167	34.37
833.34	34.76
833.514	34.6
833.687	34.67
833.86	34.81
834.034	34.53
834.207	34.03
834.38	34.91
834.553	35.71
834.727	36.27
834.9	35.75
835.073	35.73
835.246	34.85
835.419	35.16
835.593	35.24
835.766	34.84
835.939	34.6
836.112	34.93
836.285	34.75
836.458	34.29
836.631	34.79
836.804	36.08
836.977	36.96
837.15	37.43
837.323	36.51
837.496	36.99
837.669	37.66
837.842	37.96
838.015	36.85
838.188	37.47
838.361	36.56
838.533	36.04
838.706	34.69
838.879	32.97
839.052	33.33
839.225	35.56
839.398	34.93
839.57	34.3
839.743	35.07
839.916	35.7
840.088	35.28
840.261	36.84
840.434	34.83
840.607	34.49
840.779	34.73
840.952	33.5
841.124	31.56
841.297	30.19
841.47	31.1
841.642	31.39
841.815	30.16
841.987	28.1
842.16	26.71
842.332	28.17
842.505	30.01
842.677	32.51
842.85	33.19
843.022	34.46
843.194	34.69
843.367	32.94
843.539	35.31
843.712	34.24
843.884	36.1
844.056	38.4
844.229	38.76
844.401	34.43
844.573	31.4
844.745	33.91
844.918	35.53
845.09	35.97
845.262	41.2
845.434	39.75
845.606	39.92
845.779	38.62
845.951	37.76
846.123	35.34
846.295	36.97
846.467	35.71
846.639	38.51
846.811	36.55
846.983	38.53
847.155	34.26
847.327	30.8
847.499	34.9
847.671	35.11
847.843	33.76
848.015	36.68
848.187	37.45
848.359	39.92
848.531	33.95
848.703	35.44
848.875	37.43
849.047	37.06
849.218	37.59
849.39	33.18
849.562	30.84
849.734	32.94
849.905	34.2
850.077	36.54
850.249	35.95
850.421	38.96
850.592	35.24
850.764	33.12
850.936	33.75
851.107	34.37
851.279	38.61
851.451	44.38
851.622	46.18
851.794	47.14
851.965	45.98
852.137	47.96
852.308	46.26
852.48	49.71
852.651	49.35
852.823	54.79
852.994	54.95
853.166	55.04
853.337	52.69
853.509	49.03
853.68	50.61
853.851	47.18
854.023	45.02
854.194	43.04
854.365	41.06
854.537	40.7
854.708	40.6
854.879	42.86
855.05	45.18
855.222	42.88
855.393	45.45
855.564	43.26
855.735	47.15
855.906	47.21
856.078	47.17
856.249	47.4
856.42	47.93
856.591	49.07
856.762	49.66
856.933	43.29
857.104	40.48
857.275	37.2
857.446	34.36
857.617	36.06
857.788	39.45
857.959	38.24
858.13	45.38
858.301	43.33
858.472	40.56
858.643	37.82
858.814	39.59
858.985	42.98
859.155	44.03
859.326	46.28
859.497	41.2
859.668	36.62
859.839	36.2
860.009	29.22
860.18	31.52
860.351	27.88
860.522	27.99
860.692	29.52
860.863	27.98
861.034	28.37
861.204	25.58
861.375	24.19
861.546	30.04
861.716	32.69
861.887	36.02
862.057	37.95
862.228	38.25
862.398	38.94
862.569	36.77
862.739	37.93
862.91	37.88
863.08	38.33
863.251	38.59
863.421	34.73
863.592	38.2
863.762	37.05
863.932	32.11
864.103	32.21
864.273	31.69
864.443	35.09
864.614	35.14
864.784	38.69
864.954	38.27
865.125	46.03
865.295	51.11
865.465	49.39
865.635	48.5
865.805	58.21
865.976	59.02
866.146	58.46
866.316	54.43
866.486	55.35
866.656	53.82
866.826	51.79
866.996	46.35
867.166	45.4
867.336	45.2
867.506	46.84
867.676	39.23
867.846	39.73
868.016	42.5
868.186	39.51
868.356	40.33
868.526	37.15
868.696	40.87
868.866	34.83
869.036	30.26
869.206	26.21
869.376	24.06
869.545	23.39
869.715	25.03
869.885	19.29
870.055	28.96
870.224	26.33
870.394	28.4
870.564	30.89
870.734	39.99
870.903	38.8
871.073	38.29
871.243	42.03
871.412	41.66
871.582	39.75
871.751	46.84
871.921	46.39
872.091	45.98
872.26	48.28
872.43	43.66
872.599	44.28
872.769	40.95
872.938	44.63
873.108	40.91
873.277	42.52
873.446	41.72
873.616	34.61
873.785	33.52
873.955	34.21
874.124	32.39
874.293	33
874.463	27.32
874.632	32.89
874.801	30.34
874.971	32.46
875.14	31.24
875.309	31.41
875.478	31.31
875.647	33.02
875.817	32.98
875.986	32.06
876.155	34.09
876.324	34.4
876.493	32.57
876.662	36.97
876.831	38.28
877	41.6
877.17	43.38
877.339	46.97
877.508	42.34
877.677	44.49
877.846	43.14
878.015	40.22
878.184	40.82
878.352	38.76
878.521	34.82
878.69	34.57
878.859	34.45
879.028	34.73
879.197	35.68
879.366	35.49
879.534	34.9
879.703	36.17
879.872	37.24
880.041	36.73
880.21	35.72
880.378	35.89
880.547	36.41
880.716	36.98
880.884	36.52
881.053	35.84
881.222	36.77
881.39	35.79
881.559	35.49
881.727	34.21
881.896	35.01
882.065	35.94
882.233	36.16
882.402	35.92
882.57	35.65
882.739	35.69
882.907	35.65
883.076	36.23
883.244	36.96
883.412	36.77
883.581	38.17
883.749	37.41
883.918	37.77
884.086	38.06
884.254	38.09
884.423	38.42
884.591	38.43
884.759	38.48
884.927	36.59
885.096	35.82
885.264	37.46
885.432	37.86
885.6	38.7
885.769	38.27
885.937	38.84
886.105	39.05
886.273	41.3
886.441	41.36
886.609	42.37
886.777	43.6
886.945	48.1
887.113	49.45
887.281	46.97
887.449	48.76
887.617	50.09
887.785	48.5
887.953	50.02
888.121	44.74
888.289	41.36
888.457	42.39
888.625	43.22
888.793	38.62
888.961	35.78
889.129	37.92
889.296	39.53
889.464	38.34
889.632	38.83
889.8	35.13
889.967	40.85
890.135	50.27
