Data from 2938505_Reflection_1.txt Node
Date: Tue Jun 16 23:05:57 EDT 2015
User: robert
Spectrometer: USB4E03002
Autoset integration time: false
Trigger mode: 4
Integration Time (sec): 1.000000E-1
Scans to average: 10
Electric dark correction enabled: true
Nonlinearity correction enabled: false
Boxcar width: 5
Stray light correction enabled: false
XAxis mode: Wavelengths
Stop averaging: false
Number of Pixels in Spectrum: 3648
>>>>>Begin Spectral Data<<<<<
177.575	216
177.794	57.68
178.014	63.18
178.233	54.58
178.452	55.62
178.672	46.62
178.891	47.43
179.11	2075
179.33	-132.29
179.549	-1062.44
179.768	-59.34
179.987	1138.96
180.207	-74.54
180.426	-2.91
180.645	8.18
180.864	15.32
181.084	13.8
181.303	10.04
181.522	15.6
181.741	8.88
181.96	49.3
182.179	49.8
182.398	50.06
182.618	54.66
182.837	57.33
183.056	35.99
183.275	44.9
183.494	40.61
183.713	22.27
183.932	25.14
184.151	44.78
184.37	27.19
184.589	22.27
184.808	38.24
185.027	33.91
185.246	36.15
185.465	46.07
185.684	32.26
185.903	22.47
186.122	38.14
186.341	16.8
186.56	-52.18
186.779	-251.86
186.998	-53.95
187.216	-63.68
187.435	-22.66
187.654	-72.02
187.873	-28.54
188.092	18.59
188.311	36.97
188.53	34.83
188.748	24.69
188.967	32.17
189.186	28.77
189.405	25.94
189.623	30.98
189.842	12.5
190.061	5.23
190.28	-3.65
190.498	2.49
190.717	-10.97
190.936	6.8
191.154	21.54
191.373	32.57
191.592	41.78
191.81	49.03
192.029	29.66
192.248	30.42
192.466	34.66
192.685	17.85
192.904	18.69
193.122	22.96
193.341	16.47
193.559	12.67
193.778	5.66
193.996	-14.42
194.215	-14.92
194.433	-3.91
194.652	-1.8
194.87	3.35
195.089	19.42
195.307	4.51
195.526	0.24
195.744	-9.47
195.963	-8.01
196.181	-59.3
196.399	-22.39
196.618	-1.49
196.836	10.47
197.055	11.48
197.273	-7.8
197.491	-19.21
197.71	-30.95
197.928	-21.1
198.146	-11.39
198.365	1.22
198.583	0.91
198.801	21.81
199.019	8.99
199.238	8.19
199.456	4.43
199.674	22.93
199.892	32.57
200.111	38.8
200.329	41.15
200.547	54.4
200.765	50.08
200.983	57.9
201.202	35.6
201.42	72.88
201.638	78.33
201.856	106.83
202.074	51.05
202.292	44.59
202.51	25.62
202.728	5.87
202.946	-39.58
203.165	-25.96
203.383	-5.32
203.601	5.52
203.819	-71.76
204.037	-92.79
204.255	-77.89
204.473	-59.61
204.691	-77.98
204.909	-105.52
205.127	-58.37
205.345	-64.98
205.562	-76.77
205.78	-66.58
205.998	-82.44
206.216	-39.72
206.434	-41.7
206.652	-19.64
206.87	-11.91
207.088	14.24
207.306	24.06
207.523	8.61
207.741	22.61
207.959	34.56
208.177	38.34
208.395	27.94
208.612	22.09
208.83	16.99
209.048	23.24
209.266	12.47
209.483	-7.34
209.701	-14.39
209.919	2.38
210.136	2.43
210.354	-12.57
210.572	-7.45
210.79	-3.43
211.007	7.55
211.225	5.27
211.442	-3.3
211.66	-13.64
211.878	-6.04
212.095	-4.41
212.313	1.79
212.53	9.32
212.748	7.21
212.966	8.83
213.183	18.01
213.401	3.77
213.618	-6.93
213.836	6.84
214.053	16.58
214.271	24.45
214.488	21.56
214.705	15.16
214.923	2.09
215.14	-4.22
215.358	16.83
215.575	41.3
215.793	43.5
216.01	59.2
216.227	57.87
216.445	51.63
216.662	48.26
216.879	47.99
217.097	44.98
217.314	38.1
217.531	33.5
217.749	21.2
217.966	15.34
218.183	15.92
218.4	2.62
218.618	-13.23
218.835	-8.82
219.052	-14.24
219.269	-42.05
219.487	-54.29
219.704	-33.52
219.921	-24.64
220.138	-21
220.355	-27.88
220.572	-21.05
220.79	-7.18
221.007	-7.97
221.224	-0.21
221.441	-2.38
221.658	10.65
221.875	14.95
222.092	15.86
222.309	16.67
222.526	16.85
222.743	15.25
222.96	14.35
223.177	17.59
223.394	20.7
223.611	18.34
223.828	20.17
224.045	16.94
224.262	18.69
224.479	16.95
224.696	11.37
224.913	9.74
225.13	12.74
225.347	10.81
225.564	9.72
225.781	10.15
225.997	11.07
226.214	13.4
226.431	12.51
226.648	12.55
226.865	12.9
227.082	13.99
227.298	13.43
227.515	12.43
227.732	13.3
227.949	12.08
228.165	11.63
228.382	10.23
228.599	9.29
228.816	10.61
229.032	10.78
229.249	11.17
229.466	10.53
229.682	10.34
229.899	9.32
230.116	8.06
230.332	9.46
230.549	9.87
230.765	9.64
230.982	7.91
231.199	6.88
231.415	6.28
231.632	3.43
231.848	2.13
232.065	5.4
232.281	6.42
232.498	8.09
232.714	9.52
232.931	10.23
233.147	11.77
233.364	12.38
233.58	10.6
233.797	9.7
234.013	9.86
234.23	13.67
234.446	11.75
234.662	10.95
234.879	7.82
235.095	4.58
235.312	2.46
235.528	1.17
235.744	0.78
235.961	1.8
236.177	1.42
236.393	1.28
236.61	-0.44
236.826	-1.15
237.042	-2.44
237.258	-1.61
237.475	-2.02
237.691	-0.78
237.907	0.58
238.123	1.73
238.339	2.39
238.556	3.43
238.772	4.95
238.988	5.41
239.204	7.01
239.42	8.91
239.636	9.32
239.853	10.68
240.069	11.91
240.285	11.32
240.501	12.04
240.717	12.49
240.933	11.86
241.149	11.88
241.365	11.94
241.581	10.98
241.797	10.81
242.013	10.63
242.229	10.74
242.445	9.84
242.661	10.23
242.877	9.21
243.093	8.52
243.309	8.94
243.525	9.19
243.741	8.96
243.957	9.49
244.173	9.05
244.388	9.55
244.604	9.12
244.82	8.64
245.036	8.58
245.252	8.46
245.468	8.42
245.683	8.31
245.899	8.44
246.115	8.64
246.331	8.72
246.547	8.93
246.762	8.79
246.978	8.53
247.194	8.7
247.409	8.95
247.625	8.9
247.841	9.21
248.057	9.44
248.272	8.66
248.488	8.21
248.703	7.82
248.919	6.9
249.135	6.92
249.35	7.4
249.566	7.74
249.782	7.08
249.997	7.22
250.213	6.94
250.428	6.74
250.644	7.3
250.859	8.11
251.075	7.67
251.29	8.62
251.506	7.94
251.721	7.75
251.937	7.09
252.152	7.38
252.368	7.64
252.583	7.15
252.798	7.17
253.014	6.78
253.229	4.74
253.445	6.42
253.66	5.71
253.875	6.96
254.091	6.86
254.306	7.78
254.521	7.64
254.737	8.14
254.952	8.78
255.167	8.35
255.383	8.27
255.598	8.88
255.813	8
256.028	8.38
256.244	7.89
256.459	7.35
256.674	7.19
256.889	6.99
257.104	6.4
257.32	6.34
257.535	6.22
257.75	6.25
257.965	6.28
258.18	6.72
258.395	6.4
258.61	6.89
258.826	7.02
259.041	7.04
259.256	7.1
259.471	7.5
259.686	7.14
259.901	7.2
260.116	6.99
260.331	6.9
260.546	6
260.761	5.87
260.976	5.09
261.191	4.91
261.406	4.65
261.621	4.36
261.836	3.61
262.05	4.56
262.265	4.84
262.48	5.05
262.695	5.56
262.91	6.93
263.125	7.26
263.34	7.57
263.555	7.61
263.769	7.61
263.984	8.04
264.199	8.72
264.414	7.86
264.629	6.74
264.843	7.13
265.058	6.62
265.273	6.35
265.488	6.54
265.702	5.93
265.917	6.02
266.132	6.08
266.346	6.03
266.561	5.48
266.776	5.32
266.99	6.3
267.205	6
267.42	5.97
267.634	5.64
267.849	5.33
268.063	5.8
268.278	5.59
268.492	5.05
268.707	5.04
268.922	5.28
269.136	5.89
269.351	6.26
269.565	6.34
269.78	6.27
269.994	6.18
270.209	6.1
270.423	5.93
270.637	6.25
270.852	6.78
271.066	6.67
271.281	6.42
271.495	6.29
271.709	5.5
271.924	5.46
272.138	5.8
272.353	5.68
272.567	5.6
272.781	5.75
272.996	5.52
273.21	4.92
273.424	4.69
273.638	4.35
273.853	3.82
274.067	4.25
274.281	4.26
274.495	4.53
274.71	4.67
274.924	4.3
275.138	4.2
275.352	4.22
275.566	4.25
275.781	3.89
275.995	4.54
276.209	5.26
276.423	5.42
276.637	5.89
276.851	5.14
277.065	4.86
277.279	6.34
277.493	6.54
277.707	6.28
277.921	6.12
278.135	6.78
278.349	6.7
278.563	6.77
278.777	6.63
278.991	6.18
279.205	6.49
279.419	6.93
279.633	6.14
279.847	6.08
280.061	6.58
280.275	6.72
280.489	7.22
280.703	7.58
280.917	7.33
281.131	7.35
281.344	7.13
281.558	7.05
281.772	6.81
281.986	6.52
282.2	6.26
282.414	5.65
282.627	5.8
282.841	5.24
283.055	4.7
283.269	4.89
283.482	5.17
283.696	4.99
283.91	5.08
284.123	5.3
284.337	5.43
284.551	5.66
284.764	6.25
284.978	6.36
285.192	6.23
285.405	6.42
285.619	6.38
285.833	5.89
286.046	6.14
286.26	6.29
286.473	5.87
286.687	5.95
286.9	5.68
287.114	5.19
287.327	5.12
287.541	4.96
287.754	4.81
287.968	4.99
288.181	5.05
288.395	5.24
288.608	5.31
288.822	5.64
289.035	5.84
289.248	5.75
289.462	5.8
289.675	5.6
289.889	5.92
290.102	5.41
290.315	4.89
290.529	5.07
290.742	4.42
290.955	4.27
291.169	4.28
291.382	3.93
291.595	4.13
291.808	4.3
292.022	4.49
292.235	4.9
292.448	5.62
292.661	6.15
292.875	6.3
293.088	6.75
293.301	6.36
293.514	6.1
293.727	6.35
293.94	6.5
294.153	6.29
294.367	6.48
294.58	6.23
294.793	6.09
295.006	6.14
295.219	6.04
295.432	5.97
295.645	6.21
295.858	6.19
296.071	6.39
296.284	6.26
296.497	6.41
296.71	6.31
296.923	6.2
297.136	5.95
297.349	5.56
297.562	5.45
297.775	5.45
297.988	5.4
298.201	5.8
298.414	5.35
298.626	5.36
298.839	5.38
299.052	5.75
299.265	5.82
299.478	6.33
299.691	6.56
299.903	6.77
300.116	7.17
300.329	6.79
300.542	6.59
300.755	7.03
300.967	7.09
301.18	7.22
301.393	6.95
301.605	6.76
301.818	6.93
302.031	7.03
302.243	6.93
302.456	7.07
302.669	7.37
302.881	7.19
303.094	7.05
303.307	7.53
303.519	7.52
303.732	7.11
303.944	7.35
304.157	6.99
304.37	7.06
304.582	6.92
304.795	6.5
305.007	6.81
305.22	6.49
305.432	6.22
305.645	5.74
305.857	5.56
306.069	5.81
306.282	5.63
306.494	6
306.707	5.72
306.919	5.97
307.132	6.16
307.344	6.07
307.556	6.48
307.769	6.58
307.981	6.37
308.193	6.57
308.406	6.68
308.618	7.04
308.83	6.83
309.043	6.96
309.255	7.12
309.467	7.06
309.679	7.02
309.892	7.19
310.104	7.22
310.316	7.38
310.528	7.43
310.74	7.27
310.953	6.91
311.165	6.96
311.377	7.26
311.589	7.53
311.801	7.6
312.013	7.33
312.225	7.08
312.437	7.14
312.649	7.57
312.862	7.33
313.074	7.63
313.286	7.86
313.498	7.94
313.71	7.8
313.922	7.23
314.134	7.22
314.346	6.87
314.558	7.12
314.77	7.32
314.982	7.06
315.193	6.77
315.405	6.75
315.617	6.55
315.829	6.46
316.041	6.34
316.253	5.86
316.465	5.91
316.677	6.72
316.888	6.42
317.1	6.66
317.312	6.53
317.524	6.19
317.736	6.41
317.947	6.54
318.159	6.23
318.371	6.09
318.583	6.93
318.794	6.51
319.006	6.3
319.218	6.58
319.43	6.18
319.641	6.38
319.853	7.86
320.064	7.17
320.276	7.1
320.488	7.7
320.699	7.67
320.911	7.34
321.123	7.92
321.334	8.2
321.546	8.72
321.757	8.53
321.969	7.88
322.18	7.2
322.392	7.58
322.603	7.79
322.815	7.63
323.026	7.39
323.238	7.19
323.449	6.82
323.661	6.52
323.872	6.33
324.083	5.87
324.295	6.13
324.506	6.49
324.718	6.57
324.929	6.48
325.14	6.09
325.352	6.35
325.563	6.72
325.774	7.06
325.986	7.07
326.197	6.57
326.408	7.14
326.62	7.08
326.831	6.94
327.042	6.29
327.253	6.18
327.464	6.51
327.676	6.4
327.887	6.23
328.098	5.91
328.309	5.8
328.52	6.38
328.732	6.53
328.943	6.4
329.154	6.37
329.365	6.81
329.576	6.96
329.787	7.02
329.998	7.72
330.209	7.75
330.42	7.86
330.631	7.93
330.842	7.73
331.053	7.18
331.264	7.64
331.475	7.44
331.686	7.6
331.897	7.34
332.108	7.07
332.319	6.59
332.53	6.86
332.741	6.91
332.952	6.61
333.163	6.42
333.374	6.86
333.585	6.45
333.795	6.21
334.006	5.96
334.217	6.46
334.428	6.44
334.639	6.42
334.849	5.9
335.06	6.04
335.271	6.39
335.482	6.15
335.692	6.19
335.903	6.69
336.114	6.68
336.325	6.9
336.535	6.72
336.746	6.88
336.957	7.36
337.167	7.54
337.378	7.11
337.589	6.57
337.799	6.78
338.01	6.42
338.22	6.3
338.431	6.5
338.642	6.26
338.852	6.21
339.063	6.1
339.273	5.68
339.484	5.83
339.694	5.96
339.905	6.72
340.115	6.7
340.326	6.71
340.536	6.55
340.746	6.53
340.957	6.6
341.167	6.59
341.378	6.85
341.588	6.47
341.799	6.24
342.009	5.87
342.219	5.33
342.43	5.43
342.64	5.39
342.85	5.34
343.061	5.54
343.271	5.44
343.481	5.43
343.691	5.55
343.902	5.55
344.112	5.66
344.322	5.71
344.532	6.27
344.743	6.18
344.953	6.31
345.163	6.41
345.373	6.03
345.583	6.08
345.793	6.27
346.004	6.07
346.214	6.28
346.424	6.38
346.634	6.5
346.844	6.12
347.054	5.97
347.264	6.02
347.474	6.09
347.684	6.3
347.894	6.43
348.104	6.27
348.314	6.19
348.524	6.16
348.734	6.27
348.944	6.28
349.154	5.96
349.364	5.86
349.574	5.68
349.784	5.45
349.994	5.32
350.204	5.15
350.413	5.29
350.623	5.15
350.833	5.14
351.043	4.67
351.253	4.91
351.463	4.95
351.672	5.01
351.882	4.9
352.092	5.09
352.302	4.92
352.511	5.2
352.721	5.38
352.931	5.31
353.141	5.58
353.35	5.76
353.56	5.67
353.77	5.94
353.979	6.09
354.189	6.62
354.399	6.72
354.608	6.95
354.818	6.69
355.027	6.43
355.237	6.86
355.447	6.57
355.656	6.58
355.866	6.49
356.075	6.43
356.285	6.45
356.494	6.11
356.704	5.94
356.913	6.04
357.123	6.18
357.332	5.92
357.542	5.58
357.751	5.53
357.96	5.72
358.17	5.48
358.379	5.47
358.589	5.49
358.798	5.42
359.007	5.33
359.217	5.46
359.426	5.38
359.635	5.43
359.845	5.48
360.054	5.62
360.263	5.38
360.472	5.35
360.682	5.4
360.891	5.36
361.1	5.56
361.309	5.52
361.519	5.34
361.728	5.45
361.937	5.78
362.146	5.84
362.355	5.95
362.564	6.01
362.774	6.25
362.983	6.25
363.192	6.3
363.401	6.11
363.61	6.29
363.819	6.3
364.028	6.23
364.237	5.9
364.446	5.65
364.655	5.56
364.864	5.61
365.073	5.56
365.282	5.51
365.491	5.62
365.7	5.81
365.909	5.62
366.118	5.38
366.327	5.35
366.536	5.15
366.745	5.45
366.954	5.37
367.162	5.38
367.371	5.51
367.58	5.55
367.789	5.46
367.998	5.38
368.207	5.44
368.415	5.49
368.624	5.46
368.833	5.7
369.042	5.71
369.25	5.82
369.459	5.5
369.668	5.19
369.877	5.18
370.085	4.98
370.294	4.88
370.503	5.03
370.711	4.72
370.92	4.61
371.129	4.59
371.337	4.6
371.546	4.32
371.754	4.37
371.963	4.47
372.171	4.29
372.38	4.23
372.589	3.88
372.797	3.62
373.006	3.91
373.214	4.13
373.423	4.01
373.631	4.13
373.84	4.22
374.048	4.55
374.256	4.62
374.465	4.77
374.673	5.09
374.882	5.42
375.09	5.49
375.298	5.63
375.507	5.17
375.715	5.31
375.923	5.25
376.132	5.29
376.34	4.94
376.548	4.87
376.757	5
376.965	4.57
377.173	4.36
377.381	4.27
377.59	4.08
377.798	4.36
378.006	4.32
378.214	4.07
378.423	3.97
378.631	3.84
378.839	4.12
379.047	4.07
379.255	4.24
379.463	4.43
379.671	4.56
379.879	4.74
380.088	4.78
380.296	4.5
380.504	4.61
380.712	4.9
380.92	5.21
381.128	5.1
381.336	5.12
381.544	5.42
381.752	5.33
381.96	5.27
382.168	5.31
382.376	5.25
382.584	5.35
382.791	5.19
382.999	4.85
383.207	4.87
383.415	4.78
383.623	4.46
383.831	4.22
384.039	4.15
384.247	3.99
384.454	3.75
384.662	3.53
384.87	3.54
385.078	3.53
385.285	3.64
385.493	3.73
385.701	3.47
385.909	3.54
386.116	3.2
386.324	3.35
386.532	3.46
386.739	3.43
386.947	3.6
387.155	3.48
387.362	3.55
387.57	3.55
387.778	3.17
387.985	3.48
388.193	3.56
388.4	3.82
388.608	3.89
388.816	4
389.023	4.06
389.231	4.18
389.438	4.18
389.646	4.12
389.853	3.99
390.061	4.19
390.268	3.98
390.475	4.07
390.683	4.03
390.89	3.89
391.098	3.77
391.305	3.66
391.512	3.67
391.72	3.64
391.927	3.84
392.135	3.97
392.342	4.1
392.549	4.27
392.756	4.13
392.964	4.09
393.171	4.04
393.378	3.93
393.586	4.04
393.793	3.99
394	4.19
394.207	4.13
394.414	4.07
394.622	3.72
394.829	3.76
395.036	3.75
395.243	3.76
395.45	3.9
395.657	4.07
395.864	4.09
396.072	4.11
396.279	4.08
396.486	4.04
396.693	4.08
396.9	4.09
397.107	4.02
397.314	3.81
397.521	3.96
397.728	3.84
397.935	3.77
398.142	3.63
398.349	3.64
398.556	3.46
398.763	3.32
398.97	3.22
399.177	3.36
399.383	3.11
399.59	3.37
399.797	3.17
400.004	3.03
400.211	3.18
400.418	3.19
400.625	2.96
400.831	3.05
401.038	3.09
401.245	2.95
401.452	2.97
401.658	3.18
401.865	3.13
402.072	3.2
402.279	3.14
402.485	3.16
402.692	3.22
402.899	3.45
403.105	3.41
403.312	3.47
403.519	3.72
403.725	3.66
403.932	3.48
404.138	3.44
404.345	3.36
404.552	3.54
404.758	3.41
404.965	3.44
405.171	3.12
405.378	3.23
405.584	3.15
405.791	2.94
405.997	3
406.204	3.11
406.41	3.21
406.617	3.64
406.823	3.54
407.029	3.44
407.236	3.32
407.442	3.46
407.649	3.29
407.855	3.4
408.061	3.29
408.268	3.23
408.474	3.24
408.68	3.05
408.887	2.69
409.093	2.81
409.299	2.9
409.505	3.09
409.712	3.23
409.918	3.27
410.124	3.04
410.33	3.04
410.537	2.94
410.743	3.05
410.949	3.19
411.155	3.37
411.361	3.26
411.567	3.33
411.773	3.4
411.98	3.18
412.186	3.19
412.392	3.38
412.598	3.6
412.804	3.73
413.01	3.79
413.216	3.69
413.422	3.55
413.628	3.6
413.834	3.43
414.04	3.35
414.246	3.4
414.452	3.41
414.658	3.42
414.864	3.45
415.07	3.43
415.275	3.29
415.481	3.32
415.687	3.25
415.893	3.29
416.099	3.36
416.305	3.2
416.511	3.24
416.716	3.12
416.922	3.02
417.128	2.98
417.334	3
417.539	3.02
417.745	3.07
417.951	3.11
418.157	3.03
418.362	2.95
418.568	2.99
418.774	2.98
418.979	3.06
419.185	3.11
419.391	3.06
419.596	2.99
419.802	2.91
420.008	2.83
420.213	3.5
420.419	3.58
420.624	3.57
420.83	3.57
421.035	3.55
421.241	3.51
421.446	3.45
421.652	3.42
421.857	3.44
422.063	3.49
422.268	3.54
422.474	2.86
422.679	2.73
422.885	2.85
423.09	2.92
423.295	2.91
423.501	2.99
423.706	3.05
423.911	3.17
424.117	3.2
424.322	3.21
424.527	3.18
424.733	3.26
424.938	3.33
425.143	3.24
425.349	3.21
425.554	3.3
425.759	3.19
425.964	3.17
426.169	2.91
426.375	2.93
426.58	2.99
426.785	2.99
426.99	2.85
427.195	2.9
427.4	2.93
427.605	2.92
427.811	2.78
428.016	2.74
428.221	2.64
428.426	2.74
428.631	2.63
428.836	2.61
429.041	2.55
429.246	2.47
429.451	2.36
429.656	2.31
429.861	2.36
430.066	2.46
430.271	2.45
430.476	2.55
430.681	2.58
430.886	2.61
431.09	2.6
431.295	2.68
431.5	2.7
431.705	2.76
431.91	2.85
432.115	2.88
432.32	2.84
432.524	2.92
432.729	2.75
432.934	2.75
433.139	2.73
433.343	2.67
433.548	2.59
433.753	2.55
433.958	2.51
434.162	2.47
434.367	2.33
434.572	2.3
434.776	2.37
434.981	2.41
435.186	2.32
435.39	2.31
435.595	2.34
435.799	2.41
436.004	2.52
436.209	2.48
436.413	2.37
436.618	2.27
436.822	2.31
437.027	2.33
437.231	2.37
437.436	2.49
437.64	2.5
437.845	2.4
438.049	2.3
438.253	2.23
438.458	2.26
438.662	2.34
438.867	2.47
439.071	2.43
439.275	2.38
439.48	2.37
439.684	2.35
439.888	2.3
440.093	2.36
440.297	2.44
440.501	2.53
440.706	2.51
440.91	2.55
441.114	2.57
441.318	2.54
441.523	2.51
441.727	2.54
441.931	2.51
442.135	2.47
442.339	2.4
442.543	2.36
442.748	2.43
442.952	2.57
443.156	2.46
443.36	2.46
443.564	2.47
443.768	2.42
443.972	2.43
444.176	2.5
444.38	2.66
444.584	2.77
444.788	2.8
444.992	2.7
445.196	2.57
445.4	2.58
445.604	2.49
445.808	2.46
446.012	2.54
446.216	2.6
446.42	2.54
446.624	2.39
446.828	2.28
447.032	2.23
447.235	2.21
447.439	2.37
447.643	2.39
447.847	2.51
448.051	2.53
448.254	2.57
448.458	2.36
448.662	2.39
448.866	2.54
449.069	2.62
449.273	2.58
449.477	2.68
449.681	2.65
449.884	2.59
450.088	2.55
450.292	2.58
450.495	2.6
450.699	2.72
450.902	2.65
451.106	2.64
451.31	2.55
451.513	2.52
451.717	2.42
451.92	2.32
452.124	2.33
452.327	2.28
452.531	2.3
452.734	2.15
452.938	2.22
453.141	2.24
453.345	2.27
453.548	2.32
453.752	2.28
453.955	2.27
454.158	2.29
454.362	2.17
454.565	2.2
454.769	2.07
454.972	2.06
455.175	1.95
455.379	1.98
455.582	1.88
455.785	1.97
455.988	2.02
456.192	1.95
456.395	1.96
456.598	2.16
456.801	2.19
457.005	2.26
457.208	2.27
457.411	2.34
457.614	2.33
457.817	2.33
458.021	2.27
458.224	2.35
458.427	2.42
458.63	2.37
458.833	2.35
459.036	2.37
459.239	2.37
459.442	2.36
459.645	2.34
459.848	2.32
460.051	2.33
460.254	2.36
460.457	2.35
460.66	2.26
460.863	2.32
461.066	2.22
461.269	2.18
461.472	2.19
461.675	2.29
461.878	2.26
462.081	2.26
462.284	2.35
462.486	2.46
462.689	2.42
462.892	2.59
463.095	2.57
463.298	2.72
463.5	2.62
463.703	2.57
463.906	2.46
464.109	2.5
464.311	2.5
464.514	2.34
464.717	2.19
464.92	2.28
465.122	2.29
465.325	2.18
465.528	2.15
465.73	2.21
465.933	2.27
466.135	2.28
466.338	2.31
466.541	2.3
466.743	2.41
466.946	2.52
467.148	2.46
467.351	2.27
467.553	2.35
467.756	2.33
467.958	2.41
468.161	2.45
468.363	2.55
468.566	2.54
468.768	2.5
468.971	2.45
469.173	2.42
469.375	2.49
469.578	2.59
469.78	2.7
469.983	2.67
470.185	2.57
470.387	2.51
470.59	2.32
470.792	2.31
470.994	2.37
471.196	2.48
471.399	2.5
471.601	2.47
471.803	2.5
472.005	2.43
472.208	2.36
472.41	2.48
472.612	2.45
472.814	2.55
473.016	2.55
473.218	2.54
473.421	2.57
473.623	2.47
473.825	2.3
474.027	2.31
474.229	2.28
474.431	2.35
474.633	2.25
474.835	2.36
475.037	2.41
475.239	2.44
475.441	2.41
475.643	2.28
475.845	2.35
476.047	2.45
476.249	2.45
476.451	2.34
476.653	2.38
476.855	2.46
477.057	2.42
477.258	2.26
477.46	2.24
477.662	2.33
477.864	2.39
478.066	2.41
478.268	2.34
478.469	2.35
478.671	2.5
478.873	2.43
479.075	2.38
479.276	2.29
479.478	2.34
479.68	2.36
479.882	2.28
480.083	2.29
480.285	2.27
480.487	2.28
480.688	2.28
480.89	2.24
481.091	2.27
481.293	2.23
481.495	2.25
481.696	2.29
481.898	2.25
482.099	2.26
482.301	2.28
482.502	2.26
482.704	2.28
482.905	2.32
483.107	2.36
483.308	2.37
483.51	2.39
483.711	2.41
483.913	2.41
484.114	2.42
484.315	2.46
484.517	2.42
484.718	2.43
484.92	2.43
485.121	2.36
485.322	2.35
485.524	2.33
485.725	2.34
485.926	2.35
486.127	2.36
486.329	2.36
486.53	2.35
486.731	2.34
486.932	2.29
487.134	2.29
487.335	2.31
487.536	2.24
487.737	2.23
487.938	2.21
488.139	2.2
488.341	2.18
488.542	2.22
488.743	2.22
488.944	2.26
489.145	2.35
489.346	2.34
489.547	2.29
489.748	2.35
489.949	2.35
490.15	2.36
490.351	2.34
490.552	2.34
490.753	2.34
490.954	2.32
491.155	2.3
491.356	2.29
491.557	2.29
491.758	2.33
491.959	2.31
492.159	2.36
492.36	2.41
492.561	2.43
492.762	2.42
492.963	2.35
493.164	2.39
493.364	2.41
493.565	2.41
493.766	2.4
493.967	2.42
494.167	2.43
494.368	2.42
494.569	2.3
494.769	2.29
494.97	2.35
495.171	2.4
495.371	2.39
495.572	2.43
495.773	2.4
495.973	2.36
496.174	2.33
496.375	2.29
496.575	2.38
496.776	2.47
496.976	2.48
497.177	2.49
497.377	2.48
497.578	2.47
497.778	2.43
497.979	2.48
498.179	2.51
498.38	2.48
498.58	2.51
498.78	2.45
498.981	2.4
499.181	2.47
499.382	2.41
499.582	2.43
499.782	2.49
499.983	2.52
500.183	2.49
500.383	2.64
500.584	2.7
500.784	2.71
500.984	2.73
501.184	2.77
501.385	2.76
501.585	2.81
501.785	2.76
501.985	2.77
502.185	2.84
502.386	2.89
502.586	2.84
502.786	2.85
502.986	2.85
503.186	2.8
503.386	2.74
503.586	2.75
503.786	2.75
503.987	2.8
504.187	2.77
504.387	2.71
504.587	2.67
504.787	2.66
504.987	2.69
505.187	2.74
505.387	2.74
505.587	2.77
505.786	2.77
505.986	2.72
506.186	2.79
506.386	2.82
506.586	2.84
506.786	2.88
506.986	2.85
507.186	2.83
507.386	2.82
507.585	2.84
507.785	2.86
507.985	2.85
508.185	2.88
508.384	2.88
508.584	2.92
508.784	2.89
508.984	2.93
509.183	2.96
509.383	2.91
509.583	2.91
509.782	2.94
509.982	2.97
510.182	2.99
510.381	3.02
510.581	3.03
510.781	2.93
510.98	2.89
511.18	2.94
511.379	2.91
511.579	3
511.778	3.08
511.978	3.06
512.177	3.08
512.377	3.09
512.576	3.08
512.776	3.07
512.975	3.2
513.175	3.29
513.374	3.26
513.573	3.3
513.773	3.31
513.972	3.27
514.172	3.24
514.371	3.32
514.57	3.33
514.77	3.32
514.969	3.41
515.168	3.35
515.367	3.36
515.567	3.35
515.766	3.42
515.965	3.43
516.164	3.5
516.364	3.57
516.563	3.59
516.762	3.6
516.961	3.64
517.16	3.57
517.359	3.61
517.559	3.6
517.758	3.58
517.957	3.64
518.156	3.64
518.355	3.59
518.554	3.58
518.753	3.59
518.952	3.63
519.151	3.6
519.35	3.63
519.549	3.65
519.748	3.7
519.947	3.72
520.146	3.71
520.345	3.72
520.544	3.7
520.743	3.77
520.942	3.7
521.141	3.69
521.339	3.73
521.538	3.74
521.737	3.73
521.936	3.78
522.135	3.87
522.333	3.89
522.532	3.88
522.731	3.94
522.93	3.91
523.129	3.97
523.327	3.98
523.526	3.98
523.725	4.01
523.923	4.05
524.122	4.06
524.321	4.08
524.519	4.06
524.718	4.06
524.917	4.08
525.115	4.11
525.314	4.15
525.512	4.18
525.711	4.19
525.909	4.19
526.108	4.18
526.306	4.15
526.505	4.15
526.703	4.16
526.902	4.18
527.1	4.19
527.299	4.21
527.497	4.23
527.696	4.24
527.894	4.3
528.092	4.34
528.291	4.42
528.489	4.49
528.688	4.52
528.886	4.56
529.084	4.6
529.283	4.61
529.481	4.63
529.679	4.67
529.877	4.71
530.076	4.71
530.274	4.74
530.472	4.7
530.67	4.71
530.869	4.72
531.067	4.72
531.265	4.75
531.463	4.81
531.661	4.82
531.859	4.88
532.057	4.86
532.255	4.85
532.454	4.83
532.652	4.87
532.85	4.89
533.048	4.91
533.246	4.94
533.444	5
533.642	5.03
533.84	5.06
534.038	5.01
534.236	5.08
534.434	5.15
534.632	5.21
534.83	5.17
535.027	5.23
535.225	5.26
535.423	5.28
535.621	5.33
535.819	5.29
536.017	5.27
536.215	5.28
536.412	5.33
536.61	5.31
536.808	5.34
537.006	5.39
537.203	5.33
537.401	5.4
537.599	5.47
537.797	5.44
537.994	5.5
538.192	5.58
538.39	5.61
538.587	5.64
538.785	5.66
538.983	5.65
539.18	5.68
539.378	5.72
539.575	5.73
539.773	5.71
539.97	5.75
540.168	5.78
540.366	5.79
540.563	5.85
540.761	5.89
540.958	5.9
541.155	5.97
541.353	5.98
541.55	6.01
541.748	6
541.945	6.03
542.143	6.06
542.34	6.09
542.537	6.11
542.735	6.16
542.932	6.16
543.129	6.21
543.327	6.19
543.524	6.29
543.721	6.26
543.919	6.36
544.116	6.44
544.313	6.43
544.51	6.48
544.708	6.53
544.905	6.53
545.102	6.55
545.299	6.57
545.496	6.64
545.693	6.67
545.891	6.72
546.088	6.68
546.285	6.75
546.482	6.83
546.679	6.89
546.876	6.86
547.073	6.9
547.27	6.89
547.467	6.93
547.664	6.94
547.861	6.89
548.058	6.92
548.255	7.02
548.452	7.01
548.649	7.12
548.846	7.13
549.043	7.22
549.24	7.28
549.437	7.37
549.633	7.56
549.83	7.62
550.027	7.7
550.224	7.84
550.421	7.81
550.618	7.89
550.814	7.91
551.011	7.89
551.208	8.02
551.405	8
551.601	8.1
551.798	8.13
551.995	8.18
552.191	8.3
552.388	8.27
552.585	8.37
552.781	8.41
552.978	8.42
553.175	8.45
553.371	8.5
553.568	8.48
553.764	8.58
553.961	8.65
554.157	8.71
554.354	8.73
554.55	8.91
554.747	8.99
554.943	8.95
555.14	8.99
555.336	9.1
555.533	9.18
555.729	9.36
555.926	9.29
556.122	9.18
556.318	9.26
556.515	9.22
556.711	9.27
556.907	9.2
557.104	9.27
557.3	9.39
557.496	9.43
557.693	9.48
557.889	9.6
558.085	9.6
558.281	9.67
558.478	9.78
558.674	9.92
558.87	9.86
559.066	10.02
559.262	10.13
559.459	10.13
559.655	10.24
559.851	10.33
560.047	10.34
560.243	10.49
560.439	10.5
560.635	10.44
560.831	10.5
561.027	10.61
561.223	10.78
561.419	10.81
561.615	10.99
561.811	11.1
562.007	11.18
562.203	11.13
562.399	11.17
562.595	11.39
562.791	11.56
562.987	11.57
563.183	11.63
563.379	11.54
563.575	11.58
563.771	11.51
563.966	11.5
564.162	11.52
564.358	11.64
564.554	11.77
564.75	11.78
564.945	11.83
565.141	11.92
565.337	12.03
565.533	12.11
565.728	12.25
565.924	12.25
566.12	12.3
566.315	12.42
566.511	12.46
566.707	12.48
566.902	12.6
567.098	12.49
567.293	12.67
567.489	12.67
567.684	12.74
567.88	12.72
568.076	12.94
568.271	13.03
568.467	13.11
568.662	13.13
568.858	13.22
569.053	13.36
569.248	13.58
569.444	13.52
569.639	13.47
569.835	13.54
570.03	13.64
570.225	13.72
570.421	13.83
570.616	13.83
570.812	13.98
571.007	13.94
571.202	13.85
571.397	13.92
571.593	13.94
571.788	14.13
571.983	14.29
572.178	14.37
572.374	14.43
572.569	14.39
572.764	14.48
572.959	14.48
573.154	14.61
573.35	14.69
573.545	14.67
573.74	14.72
573.935	14.73
574.13	14.65
574.325	14.65
574.52	14.56
574.715	14.65
574.91	14.71
575.105	14.8
575.3	14.82
575.495	14.87
575.69	14.98
575.885	15.15
576.08	15.18
576.275	15.29
576.47	15.32
576.665	15.44
576.86	15.47
577.055	15.46
577.25	15.46
577.444	15.64
577.639	15.71
577.834	15.68
578.029	15.63
578.224	15.86
578.418	15.8
578.613	15.96
578.808	16.12
579.003	16.15
579.197	16.26
579.392	16.34
579.587	16.16
579.781	16.15
579.976	16.21
580.171	16.17
580.365	16.16
580.56	16.33
580.755	16.44
580.949	16.39
581.144	16.48
581.338	16.4
581.533	16.33
581.727	16.45
581.922	16.4
582.116	16.59
582.311	16.68
582.505	16.69
582.7	16.87
582.894	16.84
583.089	16.86
583.283	16.85
583.478	16.82
583.672	16.95
583.866	17.07
584.061	17.2
584.255	17.21
584.449	17.32
584.644	17.25
584.838	17.13
585.032	17.03
585.226	17.16
585.421	17.27
585.615	17.48
585.809	17.56
586.003	17.51
586.198	17.58
586.392	17.47
586.586	17.49
586.78	17.47
586.974	17.5
587.168	17.52
587.363	17.24
587.557	17.22
587.751	17.21
587.945	17.25
588.139	17.29
588.333	17.39
588.527	17.49
588.721	17.51
588.915	17.65
589.109	17.68
589.303	17.84
589.497	18.08
589.691	18.01
589.885	18.09
590.079	18.17
590.273	18.21
590.466	18.16
590.66	18.21
590.854	18.31
591.048	18.34
591.242	18.34
591.436	18.36
591.629	18.42
591.823	18.57
592.017	18.74
592.211	18.76
592.404	18.87
592.598	18.96
592.792	19.12
592.986	19.11
593.179	19.16
593.373	19.16
593.567	19.16
593.76	19.07
593.954	19.12
594.147	19.11
594.341	19.06
594.535	19.02
594.728	18.96
594.922	18.81
595.115	18.8
595.309	18.73
595.502	18.79
595.696	18.78
595.889	18.81
596.083	18.92
596.276	18.88
596.47	18.87
596.663	18.86
596.856	18.94
597.05	18.93
597.243	18.88
597.437	18.88
597.63	18.89
597.823	19.07
598.017	19.18
598.21	19.04
598.403	18.99
598.596	18.94
598.79	19.02
598.983	18.95
599.176	19.02
599.369	19.1
599.563	19.19
599.756	19.21
599.949	19.01
600.142	19.04
600.335	19.14
600.528	19.14
600.722	19.18
600.915	19.05
601.108	19.23
601.301	19.36
601.494	19.42
601.687	19.44
601.88	19.53
602.073	19.69
602.266	19.62
602.459	19.64
602.652	19.6
602.845	19.76
603.038	19.88
603.231	19.77
603.424	19.75
603.617	19.74
603.809	19.8
604.002	19.81
604.195	19.77
604.388	19.88
604.581	20.01
604.774	20.13
604.966	20.1
605.159	20.13
605.352	20.21
605.545	20.24
605.737	20.45
605.93	20.4
606.123	20.48
606.316	20.57
606.508	20.57
606.701	20.37
606.894	20.29
607.086	20.29
607.279	20.34
607.471	20.41
607.664	20.37
607.857	20.27
608.049	20.3
608.242	20.2
608.434	20.16
608.627	20.18
608.819	20.23
609.012	20.29
609.204	20.27
609.397	20.19
609.589	20.01
609.782	19.97
609.974	19.95
610.166	20.07
610.359	20.24
610.551	20.3
610.743	20.44
610.936	20.49
611.128	20.52
611.32	20.81
611.513	20.95
611.705	21.16
611.897	21.3
612.09	21.37
612.282	21.22
612.474	21.04
612.666	20.81
612.858	20.74
613.051	20.7
613.243	20.63
613.435	20.43
613.627	20.43
613.819	20.62
614.011	20.49
614.203	20.52
614.395	20.6
614.588	20.75
614.78	20.79
614.972	20.66
615.164	20.59
615.356	20.73
615.548	20.62
615.74	20.48
615.932	20.25
616.124	20.54
616.315	20.5
616.507	20.42
616.699	20.43
616.891	20.71
617.083	20.69
617.275	20.94
617.467	21.02
617.659	21.15
617.85	21.41
618.042	21.64
618.234	21.39
618.426	21.4
618.618	21.49
618.809	21.33
619.001	21.23
619.193	21.27
619.384	21.25
619.576	21.19
619.768	21.14
619.959	21.06
620.151	21.02
620.343	21.25
620.534	21.28
620.726	21.27
620.917	21.45
621.109	21.45
621.301	21.42
621.492	21.38
621.684	21.34
621.875	21.3
622.067	21.31
622.258	21.3
622.45	21.36
622.641	21.46
622.832	21.39
623.024	21.34
623.215	21.44
623.407	21.69
623.598	21.57
623.789	21.64
623.981	21.81
624.172	21.85
624.363	22
624.555	21.79
624.746	21.74
624.937	21.88
625.129	21.87
625.32	21.91
625.511	21.64
625.702	21.68
625.893	21.64
626.085	21.54
626.276	21.44
626.467	21.34
626.658	21.36
626.849	21.39
627.04	21.39
627.231	21.48
627.422	21.35
627.614	21.53
627.805	21.59
627.996	21.6
628.187	21.64
628.378	21.69
628.569	21.66
628.76	21.71
628.951	21.75
629.142	21.61
629.332	21.58
629.523	21.56
629.714	21.6
629.905	21.61
630.096	21.75
630.287	21.86
630.478	21.96
630.669	22.01
630.859	21.99
631.05	21.93
631.241	22.18
631.432	22.02
631.623	22.16
631.813	22.04
632.004	22.21
632.195	22.11
632.385	22.15
632.576	22.04
632.767	22.08
632.957	22.17
633.148	22.23
633.339	22.21
633.529	22.41
633.72	22.46
633.91	22.67
634.101	22.64
634.292	22.8
634.482	22.65
634.673	22.68
634.863	22.62
635.054	22.72
635.244	22.84
635.435	22.65
635.625	22.52
635.815	22.51
636.006	22.38
636.196	22.35
636.387	22.31
636.577	22.34
636.767	22.38
636.958	22.34
637.148	22.36
637.338	22.29
637.529	22.46
637.719	22.47
637.909	22.51
638.099	22.55
638.29	22.54
638.48	22.51
638.67	22.42
638.86	22.36
639.05	22.51
639.241	22.32
639.431	22.42
639.621	22.41
639.811	22.76
640.001	22.61
640.191	22.7
640.381	22.59
640.571	22.46
640.761	22.59
640.951	22.71
641.141	22.65
641.331	22.75
641.521	22.58
641.711	22.67
641.901	22.49
642.091	22.5
642.281	22.48
642.471	22.65
642.661	22.75
642.851	22.93
643.041	22.84
643.231	22.85
643.42	22.83
643.61	22.87
643.8	22.92
643.99	22.91
644.18	23
644.369	23.19
644.559	23.03
644.749	23.17
644.939	22.97
645.128	23.22
645.318	23.12
645.508	23.2
645.697	23.12
645.887	23.15
646.076	23.19
646.266	23.3
646.456	23.11
646.645	23.23
646.835	22.87
647.024	22.96
647.214	22.76
647.403	23.03
647.593	23.09
647.782	23.16
647.972	23.01
648.161	22.95
648.351	22.98
648.54	23.03
648.73	23.01
648.919	23.32
649.108	23.26
649.298	23.34
649.487	23.28
649.677	23.18
649.866	23.13
650.055	23.15
650.244	23.1
650.434	23.06
650.623	23.02
650.812	23.16
651.002	23.2
651.191	23.42
651.38	23.56
651.569	23.53
651.758	23.53
651.947	23.38
652.137	23.35
652.326	23.41
652.515	23.26
652.704	23.18
652.893	23.08
653.082	23.02
653.271	22.85
653.46	22.76
653.649	22.76
653.838	22.83
654.027	23.2
654.216	23.22
654.405	23.29
654.594	23.2
654.783	23.38
654.972	23.35
655.161	23.4
655.35	23.41
655.539	23.5
655.728	23.52
655.916	23.46
656.105	23.44
656.294	23.46
656.483	23.52
656.672	23.67
656.86	23.49
657.049	23.54
657.238	23.58
657.427	23.54
657.615	23.4
657.804	23.37
657.993	23.33
658.181	23.25
658.37	23.34
658.559	23.39
658.747	23.54
658.936	23.7
659.125	23.4
659.313	23.19
659.502	23.3
659.69	23.32
659.879	23.34
660.067	23.39
660.256	23.51
660.444	23.29
660.633	23.23
660.821	23.23
661.01	23.22
661.198	23.54
661.387	23.72
661.575	23.85
661.763	23.87
661.952	23.56
662.14	23.58
662.328	23.52
662.517	23.64
662.705	23.56
662.893	23.34
663.082	23.27
663.27	23.22
663.458	23.34
663.646	23.14
663.834	23.18
664.023	23.48
664.211	23.75
664.399	23.54
664.587	23.54
664.775	23.45
664.963	23.61
665.152	23.42
665.34	23.46
665.528	23.55
665.716	23.49
665.904	23.72
666.092	23.64
666.28	23.43
666.468	23.8
666.656	23.97
666.844	23.99
667.032	23.96
667.22	24.22
667.408	24.13
667.596	23.78
667.784	24.04
667.971	23.97
668.159	23.79
668.347	23.79
668.535	23.78
668.723	23.79
668.911	23.91
669.098	23.92
669.286	23.96
669.474	24.14
669.662	24.25
669.849	24.04
670.037	23.88
670.225	24.33
670.413	24.24
670.6	24.21
670.788	24.47
670.976	24.67
671.163	24.93
671.351	24.84
671.538	24.66
671.726	24.78
671.913	25.07
672.101	24.99
672.289	24.88
672.476	24.95
672.664	25.07
672.851	24.62
673.039	24.45
673.226	24.21
673.413	24.12
673.601	24.26
673.788	24.1
673.976	24.02
674.163	24.35
674.35	24.32
674.538	24.37
674.725	24.32
674.912	24.42
675.1	24.32
675.287	24.24
675.474	24.61
675.662	24.74
675.849	24.84
676.036	24.74
676.223	24.5
676.411	24.45
676.598	24.31
676.785	24.12
676.972	24.2
677.159	24.08
677.346	24.13
677.533	23.9
677.721	23.86
677.908	23.76
678.095	23.93
678.282	23.91
678.469	23.96
678.656	24.07
678.843	24.04
679.03	24.1
679.217	24.18
679.404	24.14
679.591	24.09
679.778	24.06
679.964	24.23
680.151	23.96
680.338	24.01
680.525	24.07
680.712	23.88
680.899	23.84
681.086	23.85
681.272	23.96
681.459	24.09
681.646	24.21
681.833	24.46
682.02	24.65
682.206	24.72
682.393	24.98
682.58	24.83
682.766	25.1
682.953	25.33
683.14	25.15
683.326	25.19
683.513	25.21
683.7	25.03
683.886	24.83
684.073	24.71
684.259	24.91
684.446	24.72
684.632	24.92
684.819	24.74
685.005	24.62
685.192	24.75
685.378	24.73
685.565	24.77
685.751	24.86
685.938	24.84
686.124	24.74
686.31	24.54
686.497	24.63
686.683	24.68
686.87	25.07
687.056	25.18
687.242	25.21
687.429	25.15
687.615	24.85
687.801	24.89
687.987	25.01
688.174	25.05
688.36	25.27
688.546	25.43
688.732	25.24
688.918	25.01
689.105	24.85
689.291	24.7
689.477	24.41
689.663	24.64
689.849	24.77
690.035	24.87
690.221	24.88
690.407	24.56
690.593	24.32
690.779	24.39
690.965	24.43
691.151	24.29
691.337	24.48
691.523	24.81
691.709	24.82
691.895	24.7
692.081	24.5
692.267	24.45
692.453	24.47
692.639	24.39
692.825	24.34
693.011	24.41
693.196	24.66
693.382	24.57
693.568	24.59
693.754	24.5
693.94	24.51
694.125	24.48
694.311	24.39
694.497	24.6
694.682	24.78
694.868	24.75
695.054	24.88
695.239	24.92
695.425	25.07
695.611	25.23
695.796	25.19
695.982	25.17
696.168	25.31
696.353	25.47
696.539	25.44
696.724	25.3
696.91	25.43
697.095	25.46
697.281	25.58
697.466	25.19
697.652	25.21
697.837	25.28
698.023	25.5
698.208	25.22
698.393	25.21
698.579	25.12
698.764	25.25
698.949	25.15
699.135	24.89
699.32	24.81
699.505	25.1
699.691	25.06
699.876	25.12
700.061	24.88
700.246	25.23
700.432	25.04
700.617	25.46
700.802	25.42
700.987	25.32
701.172	25.5
701.358	25.63
701.543	25.64
701.728	25.53
701.913	25.32
702.098	25.49
702.283	25.38
702.468	25.61
702.653	25.34
702.838	25.34
703.023	25.62
703.208	25.76
703.393	25.73
703.578	25.83
703.763	26.16
703.948	26.31
704.133	26.44
704.318	26.49
704.503	26.67
704.688	26.72
704.873	26.31
705.057	26.16
705.242	26.23
705.427	25.96
705.612	26.14
705.797	26.12
705.981	26.03
706.166	25.73
706.351	25.52
706.536	25.03
706.72	24.68
706.905	24.77
707.09	25.01
707.274	24.59
707.459	24.46
707.644	24.11
707.828	23.68
708.013	23.46
708.197	23.81
708.382	23.96
708.567	24.23
708.751	24.32
708.936	24.56
709.12	24.44
709.305	24.65
709.489	24.73
709.673	24.87
709.858	25.13
710.042	25.59
710.227	25.15
710.411	25.21
710.596	25.54
710.78	25.89
710.964	25.6
711.149	25.54
711.333	25.62
711.517	25.81
711.702	25.88
711.886	25.67
712.07	25.09
712.254	24.9
712.438	25.17
712.623	25.27
712.807	24.81
712.991	25.28
713.175	25.4
713.359	25.46
713.544	25.46
713.728	25.32
713.912	25.49
714.096	26.09
714.28	26.18
714.464	25.93
714.648	25.61
714.832	25.81
715.016	25.67
715.2	25.4
715.384	24.97
715.568	24.84
715.752	24.8
715.936	24.64
716.12	24.45
716.304	24.19
716.488	24.22
716.671	24.09
716.855	24.06
717.039	23.96
717.223	24.24
717.407	24.64
717.59	24.49
717.774	24.53
717.958	24.23
718.142	24.13
718.325	24.61
718.509	24.6
718.693	24.46
718.877	24.17
719.06	24.07
719.244	24.27
719.428	24.22
719.611	24.42
719.795	24.26
719.978	24.64
720.162	24.68
720.345	24.86
720.529	24.84
720.713	25.12
720.896	25.42
721.08	25.36
721.263	25.25
721.446	24.83
721.63	24.82
721.813	24.75
721.997	24.37
722.18	24.12
722.364	24.18
722.547	24.34
722.73	24.41
722.914	24.45
723.097	24.71
723.28	24.33
723.464	24.69
723.647	24.52
723.83	25.01
724.013	25.56
724.197	25.56
724.38	25.68
724.563	25.68
724.746	25.35
724.929	25.51
725.112	26.19
725.296	26.45
725.479	26.29
725.662	26.53
725.845	26.48
726.028	26.67
726.211	27.18
726.394	27.07
726.577	26.68
726.76	27.14
726.943	27.29
727.126	26.58
727.309	26.43
727.492	26.66
727.675	26.69
727.858	26.46
728.041	25.96
728.224	25.65
728.407	25.45
728.589	25.49
728.772	25.27
728.955	25.17
729.138	25.63
729.321	25.57
729.503	25.19
729.686	24.9
729.869	25.05
730.052	24.86
730.234	24.67
730.417	25.01
730.6	24.95
730.782	25.5
730.965	25.21
731.148	24.54
731.33	24.56
731.513	24.85
731.695	25.12
731.878	24.9
732.061	25.14
732.243	25.55
732.426	25.29
732.608	25.23
732.791	24.73
732.973	24.65
733.156	24.82
733.338	24.83
733.52	25.17
733.703	25.08
733.885	25.44
734.068	25.39
734.25	25.29
734.432	25.45
734.615	25.66
734.797	25.38
734.979	25.75
735.162	25.93
735.344	26.17
735.526	25.79
735.708	25.76
735.891	25.29
736.073	25.18
736.255	24.91
736.437	24.34
736.619	24.5
736.802	25.05
736.984	25.02
737.166	24.82
737.348	24.61
737.53	24.94
737.712	24.96
737.894	25.23
738.076	25.63
738.258	26.02
738.44	26.45
738.622	25.84
738.804	25.82
738.986	25.59
739.168	25.49
739.35	25.38
739.532	25.06
739.714	25.21
739.896	25.22
740.078	25.11
740.259	24.39
740.441	24.32
740.623	24.97
740.805	24.52
740.987	24.59
741.168	24.7
741.35	24.82
741.532	24.29
741.714	24.35
741.895	24.51
742.077	24.3
742.259	24.73
742.44	25.14
742.622	25.23
742.804	25.69
742.985	26.14
743.167	26.3
743.348	26.69
743.53	26.6
743.711	26.26
743.893	25.8
744.075	26.11
744.256	26.06
744.438	25.49
744.619	24.87
744.8	24.76
744.982	24.16
745.163	24.22
745.345	23.24
745.526	23.5
745.707	24.07
745.889	24.69
746.07	24.79
746.252	24.36
746.433	24.29
746.614	24.63
746.795	23.59
746.977	23.27
747.158	23.11
747.339	23.86
747.52	23.45
747.702	23.23
747.883	23.47
748.064	22.63
748.245	22.94
748.426	22.37
748.607	22.58
748.788	23.8
748.97	24.27
749.151	23.81
749.332	23.16
749.513	23.36
749.694	22.81
749.875	22.3
750.056	23.07
750.237	22.85
750.418	23.2
750.599	22.76
750.78	22.34
750.96	21.86
751.141	22.68
751.322	23.74
751.503	24.09
751.684	24.83
751.865	24.69
752.046	24.29
752.226	25.68
752.407	26.23
752.588	26.58
752.769	26.69
752.949	27.64
753.13	27.06
753.311	26.99
753.492	27
753.672	27.02
753.853	26.73
754.034	27.03
754.214	26.16
754.395	26.09
754.575	26.2
754.756	25.84
754.937	25.6
755.117	26.15
755.298	26.03
755.478	25.78
755.659	25.11
755.839	25.45
756.02	25.28
756.2	24.89
756.381	25.13
756.561	25.39
756.741	25.34
756.922	25.28
757.102	24.93
757.283	24.72
757.463	25.12
757.643	25.34
757.823	25.01
758.004	25.24
758.184	25.19
758.364	25.12
758.545	24.59
758.725	24.64
758.905	24.24
759.085	24.49
759.265	24.8
759.446	24.56
759.626	24.49
759.806	24.8
759.986	24.52
760.166	24.91
760.346	24.11
760.526	23.82
760.706	23.82
760.886	23.98
761.066	23.6
761.246	23.66
761.426	23.95
761.606	24.02
761.786	24.41
761.966	24.92
762.146	24.71
762.326	25.44
762.506	25.48
762.686	25.74
762.866	26.36
763.046	26.77
763.225	26.82
763.405	26.74
763.585	26.68
763.765	26.42
763.945	26.15
764.124	26.57
764.304	26.19
764.484	26.7
764.664	26.33
764.843	25.68
765.023	25.9
765.203	25.5
765.382	25.6
765.562	25.5
765.741	25.4
765.921	25.52
766.101	25.17
766.28	25.61
766.46	25.04
766.639	25.29
766.819	24.33
766.998	23.48
767.178	23.47
767.357	23.03
767.537	22.93
767.716	23.46
767.896	23.41
768.075	23.24
768.254	22.3
768.434	22.36
768.613	22.02
768.792	23.45
768.972	23.33
769.151	23.08
769.33	23.62
769.51	23.88
769.689	23.06
769.868	22.86
770.047	23.19
770.226	23.7
770.406	24.11
770.585	24.95
770.764	24.25
770.943	25.09
771.122	25.69
771.301	25.57
771.48	25.68
771.66	25.51
771.839	25.86
772.018	25.31
772.197	25.45
772.376	24.6
772.555	24.41
772.734	25.04
772.913	24.51
773.092	24.37
773.271	23.61
773.449	24.15
773.628	23.87
773.807	24.01
773.986	24.68
774.165	25.39
774.344	26.64
774.523	25.94
774.701	25.7
774.88	25.47
775.059	24.43
775.238	25
775.417	23.8
775.595	25.21
775.774	24.86
775.953	25.64
776.131	24.86
776.31	24.36
776.489	25.25
776.667	25.47
776.846	26.1
777.025	26.63
777.203	26.34
777.382	27.22
777.56	27.4
777.739	27.58
777.917	26.62
778.096	26.98
778.274	26.35
778.453	26.07
778.631	26.1
778.81	25.37
778.988	26.05
779.166	26.93
779.345	26.6
779.523	25.62
779.702	25.23
779.88	25.6
780.058	25.26
780.237	27.35
780.415	26.61
780.593	26.04
780.771	26.32
780.95	26.04
781.128	25.24
781.306	25.47
781.484	25.27
781.662	24.58
781.841	23.87
782.019	23.82
782.197	22.3
782.375	23.65
782.553	23.4
782.731	23.38
782.909	23.38
783.087	23.92
783.265	24.07
783.443	24.82
783.621	25.6
783.799	25.27
783.977	25.39
784.155	24.91
784.333	24.02
784.511	24.77
784.689	25.18
784.867	25.13
785.045	25.42
785.223	25.11
785.4	25.39
785.578	25.72
785.756	26.46
785.934	26.25
786.112	25.83
786.289	25.8
786.467	26.01
786.645	24.89
786.823	24.6
787	24.37
787.178	24.43
787.356	24.37
787.533	23.74
787.711	24.04
787.889	24.16
788.066	24.41
788.244	24.11
788.421	24.05
788.599	25.62
788.776	25.76
788.954	24.86
789.131	25.56
789.309	25.7
789.486	26.31
789.664	26.35
789.841	26.99
790.019	27.39
790.196	27.79
790.373	27.23
790.551	25.85
790.728	25.76
790.906	26.76
791.083	25.06
791.26	24.09
791.437	22.77
791.615	21.6
791.792	20.92
791.969	21.34
792.146	21.23
792.324	21.38
792.501	23.08
792.678	23.23
792.855	23.25
793.032	24.15
793.209	25.62
793.387	26.98
793.564	26.94
793.741	26.53
793.918	26.56
794.095	27.45
794.272	27.64
794.449	27.28
794.626	27.39
794.803	27.51
794.98	27.04
795.157	26.01
795.334	25.54
795.511	27.13
795.688	27.85
795.864	26.96
796.041	26.95
796.218	27.51
796.395	27.42
796.572	27.28
796.749	27.08
796.925	27.1
797.102	26.56
797.279	26.36
797.456	24.9
797.632	24.8
797.809	25.23
797.986	25.3
798.162	24.43
798.339	23.87
798.516	23.92
798.692	24.03
798.869	24.53
799.046	24.49
799.222	24.23
799.399	24.98
799.575	24.17
799.752	24.48
799.928	23.72
800.105	23.99
800.281	23.6
800.458	23.1
800.634	21.42
800.811	20.78
800.987	21.25
801.163	21.56
801.34	21.39
801.516	23.18
801.692	23.07
801.869	22.95
802.045	24.18
802.221	23.8
802.398	24.98
802.574	26.95
802.75	27.83
802.926	28.6
803.103	29.64
803.279	29.41
803.455	28.65
803.631	28.02
803.807	28.61
803.983	27.22
804.16	28.3
804.336	28.06
804.512	27.79
804.688	28.05
804.864	27.05
805.04	25.55
805.216	24.44
805.392	24.88
805.568	24.76
805.744	24.9
805.92	25.08
806.096	24.69
806.272	23.4
806.448	22.78
806.623	22.18
806.799	22.96
806.975	23.69
807.151	24.81
807.327	24.27
807.503	25.14
807.678	24.31
807.854	24.5
808.03	24.5
808.206	25.49
808.381	25.44
808.557	25.31
808.733	24.75
808.908	24.04
809.084	25.11
809.26	24.8
809.435	23.63
809.611	23.66
809.787	24.12
809.962	24.78
810.138	24.78
810.313	25.41
810.489	26.16
810.664	26.71
810.84	27.91
811.015	26.47
811.191	25.84
811.366	26.51
811.542	26.19
811.717	26.17
811.892	24.99
812.068	25.26
812.243	24.64
812.419	23.35
812.594	22.47
812.769	21.22
812.944	22.46
813.12	22.87
813.295	22.51
813.47	22.42
813.645	21.02
813.821	21.57
813.996	21.01
814.171	21.56
814.346	21.87
814.521	23.14
814.697	24.07
814.872	23.88
815.047	23.85
815.222	23.54
815.397	22.54
815.572	23.87
815.747	23.59
815.922	24.75
816.097	23.79
816.272	24.43
816.447	24.32
816.622	24.37
816.797	23.18
816.972	22.46
817.147	22.81
817.322	24.2
817.496	23
817.671	23.29
817.846	22.67
818.021	23.36
818.196	23.19
818.371	22.36
818.545	22.14
818.72	22.59
818.895	22.77
819.069	23.27
819.244	23.27
819.419	23.6
819.594	24.07
819.768	23.59
819.943	24.14
820.117	24.24
820.292	24.74
820.467	25.4
820.641	25.55
820.816	26
820.99	25.9
821.165	25.66
821.339	25.84
821.514	25.57
821.688	25.95
821.863	25.96
822.037	26.3
822.212	26.21
822.386	26.09
822.56	26.3
822.735	26.28
822.909	26.3
823.084	26.45
823.258	26.31
823.432	26.55
823.606	26.46
823.781	26.41
823.955	26.2
824.129	26.13
824.303	26.36
824.478	26.36
824.652	26.44
824.826	26.41
825	26.47
825.174	26.72
825.348	27
825.523	26.89
825.697	26.71
825.871	26.2
826.045	26.35
826.219	25.91
826.393	24.98
826.567	25.3
826.741	25.67
826.915	26.41
827.089	26.5
827.263	25.95
827.437	26.03
827.611	26.38
827.784	26.68
827.958	26.64
828.132	26.78
828.306	27.61
828.48	26.9
828.654	27.1
828.827	26.37
829.001	26.61
829.175	27.18
829.349	27.28
829.522	27.22
829.696	27.39
829.87	27.8
830.044	27.43
830.217	27.41
830.391	28
830.565	26.52
830.738	26.67
830.912	26.03
831.085	25.71
831.259	24.61
831.432	24.66
831.606	24.74
831.779	24.18
831.953	24.26
832.126	25.19
832.3	25.8
832.473	26.62
832.647	26.78
832.82	26.43
832.994	25.82
833.167	26.23
833.34	25.75
833.514	25.25
833.687	24.75
833.86	24.79
834.034	24.42
834.207	23.97
834.38	23.77
834.553	22.97
834.727	23.21
834.9	23.38
835.073	22.82
835.246	23.08
835.419	23.67
835.593	24.75
835.766	24.64
835.939	23.96
836.112	24.04
836.285	23.86
836.458	23.96
836.631	23
836.804	23.2
836.977	23.14
837.15	22.61
837.323	22.67
837.496	21.43
837.669	22.37
837.842	23.51
838.015	23.04
838.188	23.88
838.361	24.01
838.533	25.16
838.706	25.3
838.879	26.11
839.052	25.26
839.225	24.68
839.398	26.9
839.57	24.91
839.743	24.58
839.916	25.01
840.088	24.13
840.261	25.35
840.434	24.7
840.607	24.79
840.779	24.66
840.952	26.13
841.124	26.39
841.297	25.04
841.47	27.25
841.642	26.36
841.815	24.92
841.987	26.52
842.16	24.21
842.332	24.62
842.505	23.5
842.677	22.83
842.85	22.68
843.022	22.01
843.194	20.18
843.367	19.68
843.539	20.21
843.712	19.67
843.884	17.97
844.056	21.37
844.229	20.83
844.401	21.09
844.573	21.33
844.745	19.04
844.918	19.53
845.09	21.11
845.262	19.06
845.434	19.58
845.606	22.58
845.779	25.21
845.951	20.49
846.123	22.7
846.295	18.26
846.467	17.57
846.639	20.68
846.811	20.05
846.983	20.37
847.155	18.75
847.327	18.64
847.499	18.28
847.671	13.16
847.843	14.1
848.015	12.87
848.187	19.34
848.359	21.27
848.531	20.13
848.703	22.81
848.875	22.95
849.047	25
849.218	20.95
849.39	21.85
849.562	25.43
849.734	26.86
849.905	23.2
850.077	21.81
850.249	20.58
850.421	20.67
850.592	17.64
850.764	17.26
850.936	20.36
851.107	24.7
851.279	20.8
851.451	21.21
851.622	21.46
851.794	24.77
851.965	22.9
852.137	26.68
852.308	27.05
852.48	27.01
852.651	26.71
852.823	22.53
852.994	22.98
853.166	26.78
853.337	26.01
853.509	25
853.68	24.02
853.851	29.75
854.023	27.91
854.194	32.16
854.365	32.91
854.537	34.11
854.708	35.17
854.879	35.22
855.05	31.67
855.222	27.43
855.393	26.36
855.564	28.36
855.735	25.39
855.906	26.49
856.078	20.64
856.249	16.86
856.42	16.79
856.591	16.76
856.762	15
856.933	16.13
857.104	19.25
857.275	17.05
857.446	14.44
857.617	12.23
857.788	10.69
857.959	10.89
858.13	15.44
858.301	14.69
858.472	14.32
858.643	15.03
858.814	16.66
858.985	19.62
859.155	24.17
859.326	24.69
859.497	24.06
859.668	27.01
859.839	25.75
860.009	22.32
860.18	21.27
860.351	20.43
860.522	19.07
860.692	20.38
860.863	16.39
861.034	15.27
861.204	15.7
861.375	17.59
861.546	13.52
861.716	14.69
861.887	17.95
862.057	18.04
862.228	21.12
862.398	21.02
862.569	17.47
862.739	17.22
862.91	16.76
863.08	20.44
863.251	22.62
863.421	25.51
863.592	24.19
863.762	20.81
863.932	22.16
864.103	24.07
864.273	27.67
864.443	28.4
864.614	31.38
864.784	33.23
864.954	28.48
865.125	27.25
865.295	27.24
865.465	28.08
865.635	31.23
865.805	29.71
865.976	26.41
866.146	25.48
866.316	26.78
866.486	27.44
866.656	23.89
866.826	23.85
866.996	20.52
867.166	18
867.336	18.22
867.506	16.66
867.676	21.92
867.846	23.16
868.016	21.85
868.186	21.25
868.356	18.2
868.526	20.23
868.696	22.98
868.866	26.97
869.036	28.09
869.206	27.63
869.376	27.65
869.545	21.77
869.715	19.78
869.885	14.67
870.055	12.81
870.224	14.91
870.394	16.35
870.564	18.28
870.734	23.76
870.903	23.75
871.073	25.5
871.243	24.2
871.412	25.72
871.582	27.39
871.751	29.95
871.921	29.13
872.091	26.59
872.26	26.36
872.43	23.42
872.599	15.21
872.769	14.62
872.938	12.32
873.108	13.21
873.277	14.91
873.446	16.19
873.616	19.16
873.785	21.43
873.955	24.09
874.124	25.34
874.293	25.59
874.463	28.54
874.632	27.61
874.801	27
874.971	27.09
875.14	27.07
875.309	23.73
875.478	24.35
875.647	28.15
875.817	29.29
875.986	25.53
876.155	28.12
876.324	25.76
876.493	30.11
876.662	33.19
876.831	33.05
877	29.07
877.17	29.07
877.339	30.3
877.508	26.55
877.677	21.5
877.846	19.91
878.015	20.63
878.184	18.6
878.352	18.71
878.521	18.64
878.69	19.9
878.859	22.19
879.028	25.16
879.197	27.45
879.366	27.83
879.534	30.84
879.703	33.2
879.872	31.12
880.041	32.9
880.21	31.22
880.378	31.99
880.547	31.46
880.716	31.38
880.884	30.63
881.053	28.64
881.222	28.27
881.39	27.67
881.559	27.51
881.727	26.95
881.896	26.36
882.065	26.96
882.233	26.35
882.402	26.76
882.57	26.1
882.739	25.01
882.907	24.66
883.076	24.66
883.244	24.69
883.412	24.75
883.581	25.44
883.749	25.68
883.918	24.94
884.086	24.86
884.254	23.43
884.423	23.62
884.591	23.59
884.759	24.22
884.927	24.69
885.096	23.85
885.264	23.46
885.432	22.55
885.6	23.03
885.769	22.88
885.937	23.22
886.105	24.4
886.273	25.74
886.441	26.58
886.609	25.54
886.777	24.36
886.945	24.18
887.113	20.72
887.281	23.35
887.449	22.69
887.617	20.9
887.785	19.57
887.953	17.59
888.121	15.52
888.289	18.1
888.457	17.58
888.625	20.67
888.793	19.23
888.961	23.26
889.129	22.4
889.296	20.86
889.464	23.92
889.632	23.96
889.8	26.46
889.967	26.88
890.135	23.99
