Data from 2938507_Reflection_2.txt Node
Date: Tue Jun 16 22:57:51 EDT 2015
User: robert
Spectrometer: USB4E03002
Autoset integration time: false
Trigger mode: 4
Integration Time (sec): 1.000000E-1
Scans to average: 10
Electric dark correction enabled: true
Nonlinearity correction enabled: false
Boxcar width: 5
Stray light correction enabled: false
XAxis mode: Wavelengths
Stop averaging: false
Number of Pixels in Spectrum: 3648
>>>>>Begin Spectral Data<<<<<
177.575	-16.71
177.794	-40.72
178.014	-13.6
178.233	-53.4
178.452	-34.33
178.672	-180.64
178.891	598.8
179.11	-560.45
179.33	-933.87
179.549	-49
179.768	-54.45
179.987	-9.21
180.207	-39.16
180.426	-7.08
180.645	-1307.41
180.864	994.43
181.084	121.45
181.303	64.12
181.522	67.94
181.741	97.4
181.96	72.18
182.179	83.95
182.398	115.96
182.618	122.62
182.837	169.06
183.056	183.81
183.275	227.01
183.494	285.7
183.713	-317.17
183.932	-685.76
184.151	-697.13
184.37	-3677.18
184.589	429.96
184.808	225.59
185.027	236.16
185.246	140.95
185.465	136.46
185.684	119.35
185.903	185.54
186.122	148.41
186.341	141.59
186.56	129.8
186.779	209.88
186.998	347.37
187.216	486.15
187.435	307.23
187.654	309.57
187.873	492.52
188.092	529.08
188.311	346.88
188.53	377.58
188.748	910.18
188.967	5489.25
189.186	156.26
189.405	103.4
189.623	90.79
189.842	99.88
190.061	124.48
190.28	115.97
190.498	77.83
190.717	60.73
190.936	52.97
191.154	63.55
191.373	69.45
191.592	74.57
191.81	71.81
192.029	71.4
192.248	58.11
192.466	41.81
192.685	46.33
192.904	75.57
193.122	147.22
193.341	13.21
193.559	48.51
193.778	42.69
193.996	66.86
194.215	-40.22
194.433	-54.58
194.652	-60.3
194.87	379.52
195.089	59.65
195.307	26.84
195.526	21.19
195.744	86.19
195.963	127.19
196.181	113.06
196.399	126.68
196.618	130.33
196.836	121.34
197.055	105.75
197.273	115.12
197.491	136.04
197.71	127.62
197.928	162.57
198.146	177.14
198.365	155.98
198.583	219.98
198.801	173.63
199.019	126.86
199.238	120.83
199.456	285.23
199.674	168.64
199.892	216.15
200.111	189.5
200.329	127.62
200.547	71.4
200.765	66.51
200.983	60.28
201.202	61.33
201.42	72.92
201.638	74.08
201.856	81.55
202.074	79.05
202.292	72.27
202.51	45.02
202.728	57.92
202.946	89.49
203.165	110.12
203.383	96.87
203.601	96.34
203.819	124.95
204.037	127.79
204.255	80.66
204.473	98.54
204.691	93.3
204.909	122.83
205.127	156.07
205.345	159.73
205.562	108.63
205.78	115.63
205.998	119.69
206.216	98.53
206.434	119.89
206.652	252.37
206.87	248.57
207.088	278.46
207.306	286.12
207.523	178.6
207.741	171.67
207.959	206.47
208.177	150.57
208.395	111.85
208.612	77.93
208.83	65.42
209.048	61.44
209.266	50.31
209.483	41.06
209.701	37.34
209.919	53.31
210.136	57.2
210.354	54.66
210.572	65.27
210.79	61.37
211.007	73.98
211.225	80.14
211.442	81.09
211.66	74.08
211.878	74.4
212.095	73.94
212.313	68.49
212.53	63.09
212.748	61.69
212.966	56.07
213.183	71.74
213.401	86.76
213.618	83.02
213.836	81.1
214.053	87.48
214.271	88.76
214.488	72.34
214.705	74.49
214.923	93.99
215.14	79.09
215.358	84.93
215.575	73.55
215.793	56.92
216.01	57.97
216.227	65.3
216.445	72.38
216.662	73.98
216.879	80.24
217.097	68.54
217.314	60.25
217.531	63.34
217.749	37.96
217.966	40.66
218.183	38.49
218.4	31.12
218.618	16.19
218.835	22.04
219.052	5.31
219.269	-2.08
219.487	18.2
219.704	21.47
219.921	22.21
220.138	29.14
220.355	25.68
220.572	21.21
220.79	26.42
221.007	32.58
221.224	23.03
221.441	22.74
221.658	24.67
221.875	28.6
222.092	24.56
222.309	15.74
222.526	13.97
222.743	14.77
222.96	14.38
223.177	20.89
223.394	26.77
223.611	31.35
223.828	32.74
224.045	35.16
224.262	26.33
224.479	25.6
224.696	27.88
224.913	29.64
225.13	27.67
225.347	26.6
225.564	22.83
225.781	18.3
225.997	14.91
226.214	12.88
226.431	10.12
226.648	9.87
226.865	9.83
227.082	8.68
227.298	9.12
227.515	8.26
227.732	8.35
227.949	7.67
228.165	7.34
228.382	7.28
228.599	7.45
228.816	7.29
229.032	8.1
229.249	7.9
229.466	9.62
229.682	6.9
229.899	7.01
230.116	6.92
230.332	7.09
230.549	6.11
230.765	6.46
230.982	5.99
231.199	7.34
231.415	6.94
231.632	6.38
231.848	4.7
232.065	7.92
232.281	9.79
232.498	9.91
232.714	10.03
232.931	13.2
233.147	11.69
233.364	12.75
233.58	10.74
233.797	10.33
234.013	9.63
234.23	9.19
234.446	7.54
234.662	5.85
234.879	6.79
235.095	8.84
235.312	8.99
235.528	11.59
235.744	11.89
235.961	14.04
236.177	16.18
236.393	18.81
236.61	21.05
236.826	20.73
237.042	21.39
237.258	18.86
237.475	17.81
237.691	15.7
237.907	13.84
238.123	12.28
238.339	11.55
238.556	10.45
238.772	8.74
238.988	7.93
239.204	9.12
239.42	8.57
239.636	8.58
239.853	8.65
240.069	8.91
240.285	8.88
240.501	9.5
240.717	9.65
240.933	9.23
241.149	9.6
241.365	9.27
241.581	8.44
241.797	8.21
242.013	8.4
242.229	7.56
242.445	7.25
242.661	6.94
242.877	6.29
243.093	6.45
243.309	6.19
243.525	6.32
243.741	6.5
243.957	7.18
244.173	7.16
244.388	7.14
244.604	7.33
244.82	6.99
245.036	6.92
245.252	7.28
245.468	6.99
245.683	7.3
245.899	7.24
246.115	7.46
246.331	7.31
246.547	7.43
246.762	7.38
246.978	7.7
247.194	8.14
247.409	8.49
247.625	8.31
247.841	8.64
248.057	8.47
248.272	8.57
248.488	8.66
248.703	8.38
248.919	8.64
249.135	9.07
249.35	9.1
249.566	8.77
249.782	8.59
249.997	8.66
250.213	8.59
250.428	8.26
250.644	8.19
250.859	7.3
251.075	8.37
251.29	7.88
251.506	7.63
251.721	6.54
251.937	6.88
252.152	6.25
252.368	6.34
252.583	5.91
252.798	6.57
253.014	6.57
253.229	7.62
253.445	5.88
253.66	5.95
253.875	6.35
254.091	7.47
254.306	7.24
254.521	8.17
254.737	8
254.952	8
255.167	7.43
255.383	7.88
255.598	7.43
255.813	7.73
256.028	7.35
256.244	7.13
256.459	6.73
256.674	6.19
256.889	6.44
257.104	6
257.32	6.28
257.535	6.02
257.75	5.96
257.965	5.81
258.18	6.08
258.395	6.01
258.61	5.89
258.826	5.66
259.041	5.83
259.256	5.46
259.471	5.59
259.686	5.36
259.901	5.31
260.116	5.02
260.331	5.26
260.546	4.54
260.761	4.37
260.976	4.56
261.191	4.67
261.406	4.07
261.621	4.56
261.836	4.65
262.05	5.19
262.265	5.09
262.48	5.41
262.695	5.29
262.91	5.68
263.125	6.18
263.34	6.73
263.555	6.7
263.769	7.09
263.984	6.12
264.199	6.12
264.414	5.55
264.629	6.01
264.843	5.95
265.058	5.98
265.273	5.81
265.488	6.16
265.702	5.47
265.917	5.95
266.132	6.31
266.346	7.04
266.561	6.93
266.776	7.44
266.99	7.11
267.205	7.25
267.42	7.26
267.634	7.55
267.849	6.82
268.063	7.22
268.278	6.79
268.492	6.57
268.707	6.72
268.922	6.79
269.136	6.58
269.351	6.99
269.565	6.51
269.78	6.18
269.994	6.04
270.209	5.91
270.423	5.43
270.637	5.43
270.852	5.58
271.066	5.16
271.281	5.44
271.495	5.27
271.709	5.31
271.924	5.18
272.138	4.99
272.353	5.31
272.567	5.74
272.781	5.93
272.996	6.39
273.21	5.96
273.424	6.33
273.638	5.77
273.853	5.14
274.067	5.07
274.281	5.56
274.495	6.38
274.71	6.27
274.924	6.1
275.138	6.19
275.352	5.77
275.566	6.22
275.781	5.91
275.995	5.82
276.209	6.23
276.423	6.35
276.637	5.95
276.851	5.63
277.065	5.6
277.279	5.86
277.493	6.39
277.707	6.3
277.921	6.17
278.135	6.65
278.349	6.51
278.563	6.48
278.777	6.5
278.991	6.98
279.205	6.89
279.419	6.79
279.633	6.44
279.847	6.09
280.061	6.29
280.275	6.29
280.489	5.69
280.703	5.6
280.917	5.79
281.131	5.32
281.344	4.66
281.558	4.86
281.772	4.74
281.986	4.55
282.2	4.92
282.414	4.86
282.627	4.93
282.841	5.11
283.055	5.09
283.269	4.91
283.482	4.9
283.696	5.6
283.91	4.93
284.123	5.16
284.337	5.36
284.551	5.27
284.764	5.1
284.978	4.69
285.192	4.64
285.405	5.03
285.619	5.04
285.833	5.07
286.046	4.92
286.26	5.1
286.473	5.12
286.687	5.49
286.9	5.08
287.114	5.63
287.327	5.94
287.541	6.03
287.754	5.92
287.968	6.14
288.181	6.08
288.395	6.01
288.608	6.59
288.822	6.57
289.035	6.28
289.248	6.55
289.462	6.22
289.675	5.89
289.889	5.91
290.102	5.85
290.315	6.09
290.529	6.17
290.742	6.37
290.955	6.47
291.169	7.01
291.382	6.95
291.595	6.83
291.808	7.04
292.022	6.87
292.235	6.68
292.448	6.98
292.661	6.64
292.875	7
293.088	6.4
293.301	6.21
293.514	5.69
293.727	6.07
293.94	5.76
294.153	6.03
294.367	6.74
294.58	6.77
294.793	6.76
295.006	6.89
295.219	6.8
295.432	6.5
295.645	6.68
295.858	6.86
296.071	6.84
296.284	7.18
296.497	7
296.71	6.91
296.923	7.22
297.136	7.34
297.349	7.5
297.562	7.76
297.775	8.37
297.988	8.34
298.201	8.63
298.414	8.63
298.626	8.38
298.839	8.59
299.052	8.15
299.265	8.2
299.478	7.78
299.691	7.71
299.903	7.18
300.116	7.51
300.329	7.43
300.542	7.59
300.755	7.75
300.967	8.05
301.18	8.07
301.393	8.36
301.605	8.55
301.818	8.94
302.031	9.14
302.243	9.37
302.456	9.22
302.669	9.36
302.881	9
303.094	9.04
303.307	8.87
303.519	8.65
303.732	9.21
303.944	8.96
304.157	8.83
304.37	8.46
304.582	8.7
304.795	8.97
305.007	9.16
305.22	9.2
305.432	9.41
305.645	9.35
305.857	9.39
306.069	9.25
306.282	9.54
306.494	9.3
306.707	9.47
306.919	9.38
307.132	9.05
307.344	8.78
307.556	8.69
307.769	8.29
307.981	8.56
308.193	8.66
308.406	8.38
308.618	7.94
308.83	8.44
309.043	8.92
309.255	9
309.467	9.12
309.679	8.96
309.892	8.82
310.104	8.72
310.316	8.53
310.528	8.43
310.74	8.54
310.953	9.11
311.165	9.06
311.377	8.76
311.589	8.62
311.801	8.52
312.013	8.86
312.225	9.03
312.437	9.08
312.649	9.14
312.862	9.43
313.074	10.12
313.286	9.66
313.498	9.46
313.71	8.98
313.922	9.42
314.134	9.55
314.346	9.12
314.558	9.27
314.77	9.46
314.982	9.59
315.193	9.4
315.405	8.79
315.617	9.08
315.829	9.21
316.041	9.33
316.253	9.46
316.465	9.45
316.677	9.83
316.888	9.73
317.1	9.85
317.312	10.31
317.524	10.37
317.736	10.25
317.947	10.27
318.159	10.57
318.371	10.51
318.583	9.76
318.794	9.71
319.006	9.53
319.218	9.28
319.43	9.53
319.641	8.9
319.853	8.82
320.064	8.92
320.276	8.98
320.488	8.7
320.699	9.1
320.911	9.36
321.123	9.58
321.334	10.22
321.546	11
321.757	10.65
321.969	11.1
322.18	10.85
322.392	10.83
322.603	10.51
322.815	10.33
323.026	9.91
323.238	9.94
323.449	10.14
323.661	9.5
323.872	9.4
324.083	9.35
324.295	9.34
324.506	9.86
324.718	9.48
324.929	9.64
325.14	9.68
325.352	9.88
325.563	9.85
325.774	9.89
325.986	9.97
326.197	9.75
326.408	9.61
326.62	9.7
326.831	9.29
327.042	9.48
327.253	9.79
327.464	9.7
327.676	9.65
327.887	10.01
328.098	9.01
328.309	9.31
328.52	9.11
328.732	9.04
328.943	8.79
329.154	9.09
329.365	9.06
329.576	8.95
329.787	9.37
329.998	9.29
330.209	9.27
330.42	9.82
330.631	9.49
330.842	9.35
331.053	9.82
331.264	9.54
331.475	9.51
331.686	9.68
331.897	9.39
332.108	8.98
332.319	9.28
332.53	9.02
332.741	9.12
332.952	9.06
333.163	9.12
333.374	9.01
333.585	9.07
333.795	8.71
334.006	8.56
334.217	8.45
334.428	8.74
334.639	8.71
334.849	8.99
335.06	9.01
335.271	9.27
335.482	9.37
335.692	8.99
335.903	9.22
336.114	9.35
336.325	9.2
336.535	9.51
336.746	9.33
336.957	9.71
337.167	9.42
337.378	9.56
337.589	9.09
337.799	9.43
338.01	10.1
338.22	9.8
338.431	9.71
338.642	9.95
338.852	10.12
339.063	10.24
339.273	9.88
339.484	9.56
339.694	9.42
339.905	9.72
340.115	9.3
340.326	9.03
340.536	9.26
340.746	9.49
340.957	9.41
341.167	8.99
341.378	8.76
341.588	8.63
341.799	8.83
342.009	8.94
342.219	8.82
342.43	8.86
342.64	8.83
342.85	8.84
343.061	8.91
343.271	8.81
343.481	8.59
343.691	8.75
343.902	8.35
344.112	8.69
344.322	8.51
344.532	8.39
344.743	8.34
344.953	8.21
345.163	8.24
345.373	7.92
345.583	7.9
345.793	7.86
346.004	7.86
346.214	8.08
346.424	7.98
346.634	8.17
346.844	8.24
347.054	8.3
347.264	8.47
347.474	8.36
347.684	8.54
347.894	8.97
348.104	9.41
348.314	9.03
348.524	9.1
348.734	8.92
348.944	8.7
349.154	8.98
349.364	8.64
349.574	8.81
349.784	8.54
349.994	8.76
350.204	8.63
350.413	8.51
350.623	8.98
350.833	9.05
351.043	8.94
351.253	9.22
351.463	8.97
351.672	9.11
351.882	8.5
352.092	9.01
352.302	8.81
352.511	8.93
352.721	8.75
352.931	8.6
353.141	8.61
353.35	8.69
353.56	8.41
353.77	8.55
353.979	8.35
354.189	8.86
354.399	8.36
354.608	8.09
354.818	8.06
355.027	8.21
355.237	8.23
355.447	8.13
355.656	8.03
355.866	7.9
356.075	7.87
356.285	8.16
356.494	7.86
356.704	7.79
356.913	7.88
357.123	7.7
357.332	7.5
357.542	7.43
357.751	7.48
357.96	7.67
358.17	7.55
358.379	7.7
358.589	7.57
358.798	7.34
359.007	7.42
359.217	7.58
359.426	7.45
359.635	7.43
359.845	7.33
360.054	7.21
360.263	7.16
360.472	7.31
360.682	7.15
360.891	7.18
361.1	7.57
361.309	7.52
361.519	7.27
361.728	7.44
361.937	7.49
362.146	7.47
362.355	7.55
362.564	7.45
362.774	7.45
362.983	7.49
363.192	7.57
363.401	7.42
363.61	7.65
363.819	7.67
364.028	7.29
364.237	7.27
364.446	7.4
364.655	7.48
364.864	7.37
365.073	7.19
365.282	7.04
365.491	6.88
365.7	6.97
365.909	6.78
366.118	6.77
366.327	7.07
366.536	7.17
366.745	6.83
366.954	6.77
367.162	6.72
367.371	6.91
367.58	6.99
367.789	6.91
367.998	6.61
368.207	6.69
368.415	6.67
368.624	6.51
368.833	6.33
369.042	6.68
369.25	6.65
369.459	6.86
369.668	6.7
369.877	6.63
370.085	6.56
370.294	6.68
370.503	6.65
370.711	6.76
370.92	6.97
371.129	7.1
371.337	6.83
371.546	6.8
371.754	6.47
371.963	6.71
372.171	6.73
372.38	6.97
372.589	6.93
372.797	6.87
373.006	6.82
373.214	6.53
373.423	6.54
373.631	6.68
373.84	6.73
374.048	6.83
374.256	6.62
374.465	6.68
374.673	6.45
374.882	6.3
375.09	6.22
375.298	6.22
375.507	6.18
375.715	5.92
375.923	6.05
376.132	6
376.34	5.85
376.548	5.98
376.757	5.94
376.965	5.99
377.173	6.07
377.381	6.01
377.59	6.01
377.798	6.12
378.006	6.24
378.214	6.24
378.423	6.31
378.631	6.44
378.839	6.31
379.047	6.18
379.255	6.19
379.463	6.25
379.671	6.53
379.879	6.42
380.088	6.37
380.296	6.34
380.504	6.13
380.712	6.06
380.92	5.92
381.128	6.02
381.336	6.01
381.544	6.11
381.752	6.12
381.96	5.63
382.168	5.7
382.376	5.59
382.584	5.76
382.791	5.7
382.999	5.47
383.207	5.6
383.415	5.26
383.623	5.31
383.831	5.4
384.039	5.19
384.247	5.47
384.454	5.52
384.662	5.75
384.87	5.63
385.078	5.93
385.285	6
385.493	5.9
385.701	6.17
385.909	6.14
386.116	5.85
386.324	5.99
386.532	5.88
386.739	5.84
386.947	5.8
387.155	5.78
387.362	5.46
387.57	5.56
387.778	5.68
387.985	5.69
388.193	5.84
388.4	5.81
388.608	5.94
388.816	5.93
389.023	6.02
389.231	5.95
389.438	5.99
389.646	5.99
389.853	5.84
390.061	5.82
390.268	5.82
390.475	5.65
390.683	5.67
390.89	5.34
391.098	5.49
391.305	5.53
391.512	5.5
391.72	5.31
391.927	5.34
392.135	5.46
392.342	5.33
392.549	5.31
392.756	5.38
392.964	5.51
393.171	5.7
393.378	5.75
393.586	5.46
393.793	5.5
394	5.66
394.207	5.75
394.414	5.71
394.622	5.63
394.829	5.57
395.036	5.28
395.243	5.08
395.45	4.97
395.657	4.68
395.864	4.71
396.072	4.68
396.279	4.67
396.486	4.49
396.693	4.62
396.9	4.65
397.107	4.57
397.314	4.74
397.521	4.81
397.728	4.75
397.935	4.93
398.142	4.98
398.349	4.99
398.556	4.94
398.763	4.97
398.97	4.86
399.177	5.25
399.383	5.18
399.59	5.3
399.797	5.14
400.004	4.96
400.211	4.85
400.418	4.71
400.625	4.61
400.831	4.55
401.038	4.47
401.245	4.28
401.452	3.98
401.658	3.98
401.865	3.82
402.072	3.93
402.279	4.07
402.485	4.12
402.692	4.34
402.899	4.36
403.105	4.24
403.312	4.19
403.519	4.42
403.725	4.4
403.932	4.49
404.138	4.43
404.345	4.38
404.552	4.51
404.758	4.47
404.965	4.22
405.171	4.21
405.378	4.46
405.584	4.55
405.791	4.32
405.997	4.15
406.204	4.24
406.41	4.46
406.617	4.47
406.823	4.56
407.029	4.67
407.236	4.77
407.442	4.75
407.649	4.57
407.855	4.56
408.061	4.55
408.268	4.79
408.474	4.7
408.68	4.72
408.887	4.85
409.093	4.72
409.299	4.64
409.505	4.67
409.712	4.75
409.918	4.67
410.124	4.78
410.33	4.8
410.537	4.67
410.743	4.59
410.949	4.43
411.155	4.44
411.361	4.35
411.567	4.2
411.773	4.32
411.98	4.21
412.186	4.13
412.392	3.94
412.598	4.01
412.804	4.01
413.01	4.07
413.216	4.02
413.422	4
413.628	4.11
413.834	4.2
414.04	3.9
414.246	3.89
414.452	3.91
414.658	3.96
414.864	3.91
415.07	3.96
415.275	3.98
415.481	3.88
415.687	3.77
415.893	3.79
416.099	3.89
416.305	4.01
416.511	4.09
416.716	4.18
416.922	4.22
417.128	4.2
417.334	4.19
417.539	4.15
417.745	4.24
417.951	4.24
418.157	4.19
418.362	4.06
418.568	3.96
418.774	3.88
418.979	3.8
419.185	3.78
419.391	3.78
419.596	3.7
419.802	3.66
420.008	3.67
420.213	3.25
420.419	3.19
420.624	3.22
420.83	3.29
421.035	3.38
421.241	3.47
421.446	3.42
421.652	3.32
421.857	3.3
422.063	3.29
422.268	3.24
422.474	3.64
422.679	3.67
422.885	3.6
423.09	3.57
423.295	3.47
423.501	3.39
423.706	3.42
423.911	3.48
424.117	3.63
424.322	3.64
424.527	3.67
424.733	3.67
424.938	3.63
425.143	3.66
425.349	3.64
425.554	3.6
425.759	3.6
425.964	3.56
426.169	3.6
426.375	3.51
426.58	3.55
426.785	3.57
426.99	3.54
427.195	3.57
427.4	3.64
427.605	3.68
427.811	3.81
428.016	3.92
428.221	3.92
428.426	3.89
428.631	3.83
428.836	3.95
429.041	3.93
429.246	4.01
429.451	3.97
429.656	3.93
429.861	3.9
430.066	3.81
430.271	3.72
430.476	3.8
430.681	3.79
430.886	3.85
431.09	3.71
431.295	3.69
431.5	3.65
431.705	3.68
431.91	3.67
432.115	3.71
432.32	3.7
432.524	3.72
432.729	3.64
432.934	3.64
433.139	3.58
433.343	3.6
433.548	3.52
433.753	3.41
433.958	3.4
434.162	3.35
434.367	3.27
434.572	3.23
434.776	3.28
434.981	3.21
435.186	3.22
435.39	3.15
435.595	3.2
435.799	3.2
436.004	3.25
436.209	3.25
436.413	3.32
436.618	3.36
436.822	3.41
437.027	3.28
437.231	3.3
437.436	3.3
437.64	3.33
437.845	3.31
438.049	3.44
438.253	3.45
438.458	3.41
438.662	3.38
438.867	3.33
439.071	3.31
439.275	3.41
439.48	3.52
439.684	3.49
439.888	3.38
440.093	3.36
440.297	3.23
440.501	3.17
440.706	3.24
440.91	3.18
441.114	3.21
441.318	3.21
441.523	3.2
441.727	3.19
441.931	3.3
442.135	3.5
442.339	3.46
442.543	3.54
442.748	3.65
442.952	3.67
443.156	3.68
443.36	3.71
443.564	3.7
443.768	3.62
443.972	3.44
444.176	3.33
444.38	3.26
444.584	3.31
444.788	3.27
444.992	3.13
445.196	3.11
445.4	3.06
445.604	3.04
445.808	3.11
446.012	3.11
446.216	3.23
446.42	3.23
446.624	3.25
446.828	3.23
447.032	3.26
447.235	3.36
447.439	3.27
447.643	3.39
447.847	3.39
448.051	3.35
448.254	3.33
448.458	3.29
448.662	3.24
448.866	3.15
449.069	3.1
449.273	3.08
449.477	3.18
449.681	3.19
449.884	3.13
450.088	3.17
450.292	3.19
450.495	3.17
450.699	3.14
450.902	3.24
451.106	3.31
451.31	3.27
451.513	3.25
451.717	3.12
451.92	3.09
452.124	3.09
452.327	3.02
452.531	2.97
452.734	2.96
452.938	2.85
453.141	2.89
453.345	2.91
453.548	3
453.752	3.06
453.955	3.05
454.158	3.1
454.362	3.05
454.565	3.13
454.769	3.15
454.972	3.18
455.175	3.28
455.379	3.24
455.582	3.25
455.785	3.19
455.988	3.17
456.192	3.22
456.395	3.15
456.598	3.21
456.801	3.11
457.005	2.99
457.208	3.01
457.411	3.03
457.614	3.04
457.817	3.05
458.021	3.06
458.224	3.05
458.427	3.04
458.63	3.02
458.833	3.01
459.036	3.01
459.239	3.08
459.442	3.11
459.645	3.15
459.848	3.13
460.051	3.13
460.254	3.14
460.457	3.11
460.66	3.06
460.863	3.24
461.066	3.23
461.269	3.31
461.472	3.35
461.675	3.33
461.878	3.22
462.081	3.11
462.284	3.06
462.486	3.01
462.689	3.04
462.892	3.09
463.095	3.05
463.298	3.11
463.5	3.03
463.703	3.09
463.906	3.05
464.109	3.22
464.311	3.3
464.514	3.36
464.717	3.38
464.92	3.41
465.122	3.42
465.325	3.36
465.528	3.36
465.73	3.47
465.933	3.44
466.135	3.53
466.338	3.42
466.541	3.36
466.743	3.43
466.946	3.4
467.148	3.42
467.351	3.35
467.553	3.33
467.756	3.23
467.958	3.23
468.161	3.21
468.363	3.15
468.566	3.26
468.768	3.42
468.971	3.29
469.173	3.31
469.375	3.28
469.578	3.32
469.78	3.36
469.983	3.39
470.185	3.33
470.387	3.39
470.59	3.43
470.792	3.32
470.994	3.24
471.196	3.23
471.399	3.26
471.601	3.26
471.803	3.33
472.005	3.34
472.208	3.25
472.41	3.29
472.612	3.21
472.814	3.16
473.016	3.14
473.218	3.18
473.421	3.25
473.623	3.29
473.825	3.18
474.027	3.13
474.229	3.02
474.431	3.16
474.633	3.1
474.835	3.13
475.037	3.14
475.239	3.21
475.441	3.11
475.643	3.08
475.845	3.02
476.047	3.14
476.249	3.09
476.451	3.09
476.653	3.09
476.855	3.15
477.057	3.05
477.258	3.04
477.46	2.99
477.662	2.99
477.864	3.02
478.066	3.07
478.268	3.03
478.469	3.09
478.671	3.19
478.873	3.12
479.075	3.07
479.276	3.19
479.478	3.26
479.68	3.29
479.882	3.34
480.083	3.28
480.285	3.23
480.487	3.17
480.688	3.2
480.89	3.14
481.091	3.15
481.293	3.12
481.495	3.08
481.696	3.02
481.898	2.99
482.099	2.96
482.301	2.99
482.502	2.99
482.704	3
482.905	2.98
483.107	2.98
483.308	2.99
483.51	2.99
483.711	2.98
483.913	3
484.114	3.02
484.315	3
484.517	2.97
484.718	2.99
484.92	3.02
485.121	3.01
485.322	3.03
485.524	3.02
485.725	3.09
485.926	3.11
486.127	3.07
486.329	3.06
486.53	3.1
486.731	3.09
486.932	3.1
487.134	3.1
487.335	3.13
487.536	3.18
487.737	3.18
487.938	3.12
488.139	3.1
488.341	3.16
488.542	3.18
488.743	3.19
488.944	3.25
489.145	3.23
489.346	3.24
489.547	3.25
489.748	3.21
489.949	3.25
490.15	3.28
490.351	3.3
490.552	3.34
490.753	3.4
490.954	3.41
491.155	3.39
491.356	3.39
491.557	3.39
491.758	3.43
491.959	3.47
492.159	3.45
492.36	3.41
492.561	3.45
492.762	3.44
492.963	3.34
493.164	3.35
493.364	3.32
493.565	3.4
493.766	3.4
493.967	3.3
494.167	3.31
494.368	3.22
494.569	3.26
494.769	3.22
494.97	3.21
495.171	3.25
495.371	3.27
495.572	3.34
495.773	3.28
495.973	3.31
496.174	3.36
496.375	3.41
496.575	3.46
496.776	3.55
496.976	3.57
497.177	3.51
497.377	3.55
497.578	3.64
497.778	3.62
497.979	3.6
498.179	3.61
498.38	3.61
498.58	3.58
498.78	3.61
498.981	3.55
499.181	3.51
499.382	3.49
499.582	3.44
499.782	3.3
499.983	3.3
500.183	3.43
500.383	3.38
500.584	3.4
500.784	3.35
500.984	3.4
501.184	3.35
501.385	3.42
501.585	3.45
501.785	3.52
501.985	3.57
502.185	3.56
502.386	3.57
502.586	3.55
502.786	3.48
502.986	3.55
503.186	3.55
503.386	3.59
503.586	3.66
503.786	3.68
503.987	3.63
504.187	3.71
504.387	3.77
504.587	3.66
504.787	3.72
504.987	3.8
505.187	3.73
505.387	3.71
505.587	3.75
505.786	3.77
505.986	3.81
506.186	3.81
506.386	3.74
506.586	3.7
506.786	3.72
506.986	3.75
507.186	3.78
507.386	3.88
507.585	3.96
507.785	4.01
507.985	3.99
508.185	4.03
508.384	4.06
508.584	4.11
508.784	4.17
508.984	4.26
509.183	4.2
509.383	4.18
509.583	4.21
509.782	4.18
509.982	4.15
510.182	4.13
510.381	4.06
510.581	4.14
510.781	4.14
510.98	4.17
511.18	4.15
511.379	4.26
511.579	4.27
511.778	4.23
511.978	4.16
512.177	4.19
512.377	4.19
512.576	4.22
512.776	4.17
512.975	4.25
513.175	4.28
513.374	4.35
513.573	4.41
513.773	4.42
513.972	4.44
514.172	4.55
514.371	4.57
514.57	4.67
514.77	4.76
514.969	4.84
515.168	4.77
515.367	4.74
515.567	4.64
515.766	4.58
515.965	4.57
516.164	4.59
516.364	4.58
516.563	4.61
516.762	4.55
516.961	4.55
517.16	4.54
517.359	4.6
517.559	4.65
517.758	4.7
517.957	4.75
518.156	4.78
518.355	4.78
518.554	4.88
518.753	4.87
518.952	4.94
519.151	5.03
519.35	5.09
519.549	5.11
519.748	5.14
519.947	5.25
520.146	5.3
520.345	5.35
520.544	5.46
520.743	5.31
520.942	5.27
521.141	5.24
521.339	5.19
521.538	5.11
521.737	5.12
521.936	5.19
522.135	5.09
522.333	5
522.532	4.99
522.731	4.9
522.93	5.03
523.129	5.13
523.327	5.17
523.526	5.22
523.725	5.34
523.923	5.34
524.122	5.29
524.321	5.3
524.519	5.39
524.718	5.43
524.917	5.49
525.115	5.46
525.314	5.41
525.512	5.38
525.711	5.36
525.909	5.28
526.108	5.27
526.306	5.27
526.505	5.27
526.703	5.25
526.902	5.27
527.1	5.29
527.299	5.35
527.497	5.4
527.696	5.44
527.894	5.49
528.092	5.57
528.291	5.62
528.489	5.66
528.688	5.72
528.886	5.78
529.084	5.83
529.283	5.82
529.481	5.82
529.679	5.86
529.877	5.88
530.076	5.86
530.274	5.9
530.472	5.89
530.67	5.9
530.869	5.94
531.067	5.95
531.265	5.93
531.463	5.97
531.661	5.95
531.859	5.92
532.057	5.95
532.255	5.99
532.454	6.01
532.652	6.08
532.85	6.14
533.048	6.15
533.246	6.18
533.444	6.26
533.642	6.32
533.84	6.41
534.038	6.48
534.236	6.52
534.434	6.53
534.632	6.51
534.83	6.51
535.027	6.53
535.225	6.58
535.423	6.58
535.621	6.62
535.819	6.64
536.017	6.69
536.215	6.81
536.412	6.83
536.61	6.89
536.808	6.9
537.006	6.91
537.203	6.91
537.401	6.86
537.599	6.92
537.797	6.91
537.994	6.96
538.192	7.03
538.39	6.95
538.587	6.93
538.785	6.98
538.983	7.06
539.18	7.1
539.378	7.13
539.575	7.19
539.773	7.21
539.97	7.26
540.168	7.21
540.366	7.21
540.563	7.27
540.761	7.34
540.958	7.37
541.155	7.42
541.353	7.48
541.55	7.57
541.748	7.63
541.945	7.71
542.143	7.68
542.34	7.8
542.537	7.83
542.735	7.87
542.932	7.93
543.129	7.98
543.327	8.04
543.524	8
543.721	8.04
543.919	8.01
544.116	8.04
544.313	8.17
544.51	8.27
544.708	8.3
544.905	8.32
545.102	8.35
545.299	8.39
545.496	8.37
545.693	8.51
545.891	8.54
546.088	8.69
546.285	8.7
546.482	8.68
546.679	8.68
546.876	8.73
547.073	8.87
547.27	8.91
547.467	8.97
547.664	9.06
547.861	9.05
548.058	9.11
548.255	9.16
548.452	9.24
548.649	9.36
548.846	9.52
549.043	9.63
549.24	9.62
549.437	9.75
549.633	9.77
549.83	9.95
550.027	10.02
550.224	10.04
550.421	10.03
550.618	10.15
550.814	10.23
551.011	10.2
551.208	10.26
551.405	10.38
551.601	10.4
551.798	10.33
551.995	10.31
552.191	10.37
552.388	10.49
552.585	10.6
552.781	10.64
552.978	10.65
553.175	10.77
553.371	10.81
553.568	10.84
553.764	10.98
553.961	11.18
554.157	11.31
554.354	11.4
554.55	11.54
554.747	11.59
554.943	11.62
555.14	11.8
555.336	11.78
555.533	11.84
555.729	11.97
555.926	11.91
556.122	12.01
556.318	11.96
556.515	12.09
556.711	12.08
556.907	12.29
557.104	12.48
557.3	12.45
557.496	12.52
557.693	12.63
557.889	12.63
558.085	12.78
558.281	12.89
558.478	13.09
558.674	13.07
558.87	13.22
559.066	13.21
559.262	13.33
559.459	13.45
559.655	13.63
559.851	13.65
560.047	13.75
560.243	13.78
560.439	13.75
560.635	13.76
560.831	13.9
561.027	13.91
561.223	13.95
561.419	13.98
561.615	14.11
561.811	14.27
562.007	14.51
562.203	14.6
562.399	14.72
562.595	14.82
562.791	14.86
562.987	14.91
563.183	14.99
563.379	15.16
563.575	15.17
563.771	15.2
563.966	15.15
564.162	15.11
564.358	15.21
564.554	15.31
564.75	15.47
564.945	15.57
565.141	15.66
565.337	15.73
565.533	15.67
565.728	15.74
565.924	15.83
566.12	15.88
566.315	16
566.511	16
566.707	16.02
566.902	16.09
567.098	16.17
567.293	16.3
567.489	16.32
567.684	16.42
567.88	16.54
568.076	16.53
568.271	16.61
568.467	16.66
568.662	16.78
568.858	16.89
569.053	16.86
569.248	16.94
569.444	17.03
569.639	17.15
569.835	17.19
570.03	17.22
570.225	17.27
570.421	17.29
570.616	17.29
570.812	17.3
571.007	17.43
571.202	17.5
571.397	17.61
571.593	17.61
571.788	17.75
571.983	17.77
572.178	17.81
572.374	17.91
572.569	17.99
572.764	18.1
572.959	18.24
573.154	18.26
573.35	18.4
573.545	18.45
573.74	18.46
573.935	18.47
574.13	18.6
574.325	18.74
574.52	18.71
574.715	18.9
574.91	18.99
575.105	19.02
575.3	19.05
575.495	19.04
575.69	19.08
575.885	19.15
576.08	19.12
576.275	19.09
576.47	19.04
576.665	19.2
576.86	19.27
577.055	19.26
577.25	19.21
577.444	19.26
577.639	19.45
577.834	19.45
578.029	19.5
578.224	19.56
578.418	19.69
578.613	19.82
578.808	19.86
579.003	19.81
579.197	19.82
579.392	20.04
579.587	20.14
579.781	20.08
579.976	20.18
580.171	20.28
580.365	20.38
580.56	20.47
580.755	20.58
580.949	20.71
581.144	20.61
581.338	20.8
581.533	20.65
581.727	20.75
581.922	20.72
582.116	20.73
582.311	20.73
582.505	20.76
582.7	20.74
582.894	20.77
583.089	20.75
583.283	20.86
583.478	20.93
583.672	21.17
583.866	21.09
584.061	21.1
584.255	21.13
584.449	21.18
584.644	21.24
584.838	21.26
585.032	21.3
585.226	21.45
585.421	21.47
585.615	21.32
585.809	21.27
586.003	21.33
586.198	21.49
586.392	21.43
586.586	21.39
586.78	21.39
586.974	21.45
587.168	21.42
587.363	21.36
587.557	21.37
587.751	21.48
587.945	21.36
588.139	21.41
588.333	21.4
588.527	21.53
588.721	21.63
588.915	21.68
589.109	21.75
589.303	21.76
589.497	21.79
589.691	21.9
589.885	22.01
590.079	22.3
590.273	22.38
590.466	22.46
590.66	22.53
590.854	22.59
591.048	22.66
591.242	22.56
591.436	22.59
591.629	22.78
591.823	22.91
592.017	22.84
592.211	22.63
592.404	22.59
592.598	22.64
592.792	22.53
592.986	22.55
593.179	22.55
593.373	22.67
593.567	22.63
593.76	22.59
593.954	22.54
594.147	22.71
594.341	22.9
594.535	22.95
594.728	22.85
594.922	23.02
595.115	22.98
595.309	23.01
595.502	23.16
595.696	23.17
595.889	23.14
596.083	23.11
596.276	23.02
596.47	23
596.663	23.03
596.856	23.17
597.05	23.27
597.243	23.35
597.437	23.42
597.63	23.37
597.823	23.44
598.017	23.48
598.21	23.59
598.403	23.57
598.596	23.68
598.79	23.76
598.983	23.7
599.176	23.55
599.369	23.62
599.563	23.64
599.756	23.63
599.949	23.64
600.142	23.59
600.335	23.65
600.528	23.72
600.722	23.68
600.915	23.88
601.108	23.93
601.301	23.9
601.494	23.82
601.687	23.69
601.88	23.77
602.073	23.73
602.266	23.75
602.459	23.63
602.652	23.73
602.845	23.75
603.038	23.52
603.231	23.56
603.424	23.59
603.617	23.7
603.809	23.71
604.002	23.67
604.195	23.74
604.388	23.88
604.581	24.11
604.774	24.16
604.966	24.07
605.159	24.28
605.352	24.26
605.545	24.28
605.737	24.31
605.93	24.54
606.123	24.49
606.316	24.48
606.508	24.48
606.701	24.35
606.894	24.29
607.086	24.55
607.279	24.45
607.471	24.5
607.664	24.5
607.857	24.49
608.049	24.48
608.242	24.56
608.434	24.73
608.627	24.64
608.819	24.88
609.012	24.77
609.204	24.73
609.397	24.69
609.589	24.7
609.782	24.77
609.974	24.87
610.166	24.97
610.359	25.12
610.551	25.07
610.743	25.23
610.936	25.03
611.128	25.23
611.32	25.17
611.513	25.33
611.705	25.41
611.897	25.62
612.09	25.64
612.282	25.66
612.474	25.41
612.666	25.4
612.858	25.28
613.051	25.21
613.243	25.05
613.435	25.1
613.627	24.89
613.819	24.89
614.011	24.79
614.203	24.67
614.395	24.57
614.588	24.81
614.78	24.64
614.972	24.72
615.164	24.79
615.356	24.8
615.548	24.98
615.74	25.01
615.932	25.07
616.124	25.09
616.315	25.03
616.507	24.98
616.699	25.03
616.891	25.29
617.083	25.37
617.275	25.48
617.467	25.6
617.659	25.5
617.85	25.66
618.042	25.49
618.234	25.32
618.426	25.41
618.618	25.44
618.809	25.21
619.001	25.06
619.193	24.86
619.384	24.73
619.576	24.77
619.768	24.7
619.959	24.65
620.151	24.8
620.343	25.02
620.534	25.06
620.726	25.25
620.917	25.29
621.109	25.39
621.301	25.45
621.492	25.44
621.684	25.27
621.875	25.27
622.067	25.4
622.258	25.34
622.45	25.36
622.641	25.25
622.832	25.15
623.024	25.09
623.215	25.14
623.407	25.18
623.598	25.28
623.789	25.51
623.981	25.45
624.172	25.24
624.363	25.23
624.555	25.01
624.746	25.14
624.937	25.15
625.129	25.27
625.32	25.16
625.511	25.25
625.702	25.21
625.893	25.06
626.085	25.26
626.276	25.37
626.467	25.45
626.658	25.67
626.849	25.52
627.04	25.66
627.231	25.72
627.422	25.76
627.614	25.72
627.805	25.87
627.996	25.89
628.187	25.87
628.378	25.97
628.569	26.03
628.76	25.99
628.951	26.06
629.142	25.96
629.332	25.88
629.523	26
629.714	26.17
629.905	26.04
630.096	26.29
630.287	26.3
630.478	26.41
630.669	26.3
630.859	26.31
631.05	26.33
631.241	26.14
631.432	26.12
631.623	25.98
631.813	25.86
632.004	25.88
632.195	25.76
632.385	25.76
632.576	25.56
632.767	25.55
632.957	25.61
633.148	25.72
633.339	25.74
633.529	25.82
633.72	25.94
633.91	26.06
634.101	26.06
634.292	26.24
634.482	26.17
634.673	26.13
634.863	26.16
635.054	26.02
635.244	25.91
635.435	26.04
635.625	25.96
635.815	25.84
636.006	25.58
636.196	25.34
636.387	25.31
636.577	25.4
636.767	25.63
636.958	25.62
637.148	25.74
637.338	25.85
637.529	25.84
637.719	25.9
637.909	26.01
638.099	26.15
638.29	26.52
638.48	26.31
638.67	26.15
638.86	26.04
639.05	25.95
639.241	26.07
639.431	26.22
639.621	26.3
639.811	26.35
640.001	26.32
640.191	26.22
640.381	26.28
640.571	26.54
640.761	26.66
640.951	26.76
641.141	26.86
641.331	26.81
641.521	26.64
641.711	26.6
641.901	26.52
642.091	26.61
642.281	26.75
642.471	26.61
642.661	26.41
642.851	26.38
643.041	26.05
643.231	26.3
643.42	26.13
643.61	26.08
643.8	26.19
643.99	26.24
644.18	26.12
644.369	26
644.559	26.19
644.749	26.21
644.939	26.26
645.128	26.44
645.318	26.32
645.508	26.24
645.697	26.14
645.887	26.15
646.076	26
646.266	25.95
646.456	26.1
646.645	26.02
646.835	26.02
647.024	26.1
647.214	25.95
647.403	25.84
647.593	25.81
647.782	25.9
647.972	25.78
648.161	25.94
648.351	26.19
648.54	26.14
648.73	26.09
648.919	26.12
649.108	26.14
649.298	26.24
649.487	26.27
649.677	26.53
649.866	26.57
650.055	26.84
650.244	27.02
650.434	27.15
650.623	27.24
650.812	27.23
651.002	27.07
651.191	27.05
651.38	27.24
651.569	27.26
651.758	27.12
651.947	27.27
652.137	27.15
652.326	27.07
652.515	26.98
652.704	26.9
652.893	26.91
653.082	27.08
653.271	26.95
653.46	26.93
653.649	26.9
653.838	26.87
654.027	26.73
654.216	26.75
654.405	26.83
654.594	26.85
654.783	27.04
654.972	27.21
655.161	27.27
655.35	27.29
655.539	27.28
655.728	27.29
655.916	27.32
656.105	27.31
656.294	27.1
656.483	26.76
656.672	26.48
656.86	26.17
657.049	25.98
657.238	25.98
657.427	25.96
657.615	25.65
657.804	25.81
657.993	25.91
658.181	25.83
658.37	25.95
658.559	26.07
658.747	26.3
658.936	26.48
659.125	26.81
659.313	26.76
659.502	26.87
659.69	27.16
659.879	27.11
660.067	27.02
660.256	27.21
660.444	27.17
660.633	27.13
660.821	26.97
661.01	26.96
661.198	26.67
661.387	26.77
661.575	26.72
661.763	27.07
661.952	26.92
662.14	26.86
662.328	26.93
662.517	27.01
662.705	27.12
662.893	27.18
663.082	27.07
663.27	26.8
663.458	26.71
663.646	26.64
663.834	26.33
664.023	26.43
664.211	26.47
664.399	26.3
664.587	26.27
664.775	26.29
664.963	26.42
665.152	26.49
665.34	26.78
665.528	26.83
665.716	26.87
665.904	26.82
666.092	26.75
666.28	27.05
666.468	27.06
666.656	27.21
666.844	27.17
667.032	26.86
667.22	26.76
667.408	26.54
667.596	26.77
667.784	26.77
667.971	26.88
668.159	26.82
668.347	26.66
668.535	26.68
668.723	26.38
668.911	26.3
669.098	26.66
669.286	27.03
669.474	27.32
669.662	26.99
669.849	27.2
670.037	27.03
670.225	27.24
670.413	27.24
670.6	27.04
670.788	27.34
670.976	27.42
671.163	27.46
671.351	27.35
671.538	27.31
671.726	27.5
671.913	27.29
672.101	27.23
672.289	27.18
672.476	27.27
672.664	27.52
672.851	26.99
673.039	26.99
673.226	27.12
673.413	27.15
673.601	27.07
673.788	27.03
673.976	27.13
674.163	27
674.35	26.7
674.538	26.49
674.725	26.47
674.912	26.73
675.1	26.46
675.287	26.21
675.474	25.97
675.662	25.99
675.849	25.74
676.036	25.59
676.223	25.8
676.411	26.15
676.598	26.19
676.785	26.02
676.972	26.17
677.159	26.3
677.346	26.4
677.533	26.58
677.721	26.41
677.908	26.59
678.095	26.73
678.282	26.84
678.469	26.78
678.656	26.87
678.843	27.21
679.03	27.16
679.217	27.28
679.404	27.17
679.591	27.07
679.778	27.27
679.964	27.31
680.151	27.26
680.338	27.35
680.525	27.29
680.712	27.19
680.899	27.19
681.086	27.23
681.272	27.18
681.459	27.1
681.646	27.11
681.833	27.01
682.02	27
682.206	27.08
682.393	26.72
682.58	26.83
682.766	26.92
682.953	26.51
683.14	26.6
683.326	26.77
683.513	26.91
683.7	26.78
683.886	26.92
684.073	27.15
684.259	26.99
684.446	27.29
684.632	27.33
684.819	27.67
685.005	27.94
685.192	27.84
685.378	27.84
685.565	28.06
685.751	28.17
685.938	28.11
686.124	27.97
686.31	27.85
686.497	27.65
686.683	28.03
686.87	27.85
687.056	27.75
687.242	27.83
687.429	27.72
687.615	27.39
687.801	27.46
687.987	27.4
688.174	27.3
688.36	27.69
688.546	27.74
688.732	27.26
688.918	27.04
689.105	26.94
689.291	27.03
689.477	27.07
689.663	27.25
689.849	27.34
690.035	27.42
690.221	27.35
690.407	27.26
690.593	27.42
690.779	27.08
690.965	27.24
691.151	27.33
691.337	27.24
691.523	27.15
691.709	27.19
691.895	27.02
692.081	26.9
692.267	27
692.453	26.85
692.639	26.51
692.825	26.76
693.011	26.85
693.196	27
693.382	27.11
693.568	27.36
693.754	27.36
693.94	27.44
694.125	27.61
694.311	27.55
694.497	27.61
694.682	27.87
694.868	27.82
695.054	27.8
695.239	27.85
695.425	27.53
695.611	27.25
695.796	27.11
695.982	27.1
696.168	26.99
696.353	27.13
696.539	27.08
696.724	26.94
696.91	27.03
697.095	27.04
697.281	26.84
697.466	26.84
697.652	27.04
697.837	27.02
698.023	26.97
698.208	26.92
698.393	26.8
698.579	26.84
698.764	27.02
698.949	27.3
699.135	27.39
699.32	27.74
699.505	27.63
699.691	27.68
699.876	27.86
700.061	28.14
700.246	28.28
700.432	28.38
700.617	28.33
700.802	28.17
700.987	27.69
701.172	27.05
701.358	26.89
701.543	27.47
701.728	27.22
701.913	26.86
702.098	26.87
702.283	26.93
702.468	27.2
702.653	27.48
702.838	27.52
703.023	27.28
703.208	27.78
703.393	27.64
703.578	26.97
703.763	26.91
703.948	27.34
704.133	26.84
704.318	27.03
704.503	26.6
704.688	26.49
704.873	26.74
705.057	27.28
705.242	27.44
705.427	27.1
705.612	27.34
705.797	27.31
705.981	27.16
706.166	27.36
706.351	27.31
706.536	27.59
706.72	27.77
706.905	27.5
707.09	27.69
707.274	27.57
707.459	27.9
707.644	27.72
707.828	27.92
708.013	28.02
708.197	28.4
708.382	27.96
708.567	27.91
708.751	27.36
708.936	27.61
709.12	27.19
709.305	27.04
709.489	26.99
709.673	27.32
709.858	27.15
710.042	26.69
710.227	26.2
710.411	26.33
710.596	26.45
710.78	26.63
710.964	26.34
711.149	26.48
711.333	26.54
711.517	26.83
711.702	26.73
711.886	26.63
712.07	27.09
712.254	27.34
712.438	27.63
712.623	27.46
712.807	27.38
712.991	27.53
713.175	27.4
713.359	27.39
713.544	26.99
713.728	26.89
713.912	27.06
714.096	26.89
714.28	26.84
714.464	26.84
714.648	26.72
714.832	26.57
715.016	26.67
715.2	26.86
715.384	27.16
715.568	27.05
715.752	27
715.936	26.93
716.12	26.87
716.304	26.86
716.488	26.67
716.671	26.76
716.855	26.72
717.039	26.67
717.223	26.65
717.407	26.36
717.59	26.62
717.774	26.78
717.958	27.1
718.142	27.12
718.325	26.74
718.509	26.67
718.693	26.72
718.877	26.84
719.06	26.4
719.244	26.33
719.428	26.56
719.611	26.52
719.795	27.01
719.978	26.77
720.162	26.84
720.345	27.53
720.529	27.77
720.713	27.6
720.896	28.22
721.08	28.67
721.263	28.61
721.446	28.59
721.63	28.69
721.813	28.58
721.997	28.7
722.18	28.98
722.364	28.8
722.547	28.4
722.73	28.83
722.914	28.47
723.097	28.43
723.28	28.19
723.464	27.82
723.647	27.63
723.83	27.21
724.013	27.29
724.197	27.07
724.38	27.15
724.563	27.55
724.746	27.16
724.929	27.28
725.112	27.39
725.296	27.68
725.479	27.85
725.662	28.01
725.845	28.08
726.028	28.01
726.211	28.11
726.394	27.8
726.577	27.7
726.76	27.5
726.943	27.73
727.126	27.39
727.309	27.44
727.492	27.23
727.675	27.31
727.858	27.21
728.041	27.26
728.224	27.13
728.407	27.53
728.589	27.29
728.772	27.38
728.955	27.15
729.138	27.42
729.321	27.36
729.503	27.49
729.686	27.46
729.869	27.76
730.052	27.99
730.234	27.88
730.417	27.61
730.6	27.76
730.782	27.91
730.965	27.73
731.148	27.69
731.33	27.59
731.513	27.91
731.695	27.6
731.878	26.89
732.061	26.71
732.243	26.76
732.426	26.74
732.608	26.34
732.791	26.37
732.973	26.65
733.156	27.02
733.338	27.28
733.52	27.19
733.703	27.28
733.885	27.62
734.068	27.24
734.25	27.23
734.432	27.42
734.615	27.8
734.797	27.7
734.979	27.71
735.162	27.48
735.344	27.54
735.526	26.93
735.708	26.88
735.891	27.43
736.073	28.17
736.255	27.79
736.437	27.52
736.619	27.95
736.802	27.96
736.984	27.75
737.166	27.54
737.348	27.38
737.53	27.66
737.712	27.52
737.894	27.53
738.076	27.23
738.258	27.58
738.44	27.42
738.622	27.39
738.804	27.53
738.986	27.68
739.168	27.81
739.35	28.04
739.532	28.25
739.714	28.6
739.896	28.1
740.078	27.82
740.259	27.81
740.441	28.21
740.623	27.39
740.805	27.48
740.987	27.47
741.168	27.27
741.35	26.96
741.532	27.04
741.714	27.26
741.895	27.43
742.077	27.63
742.259	27.36
742.44	27.64
742.622	28.31
742.804	28.27
742.985	28.24
743.167	28.2
743.348	28.25
743.53	27.76
743.711	27.76
743.893	27.31
744.075	27.16
744.256	27.51
744.438	27.1
744.619	26.64
744.8	26.26
744.982	26.3
745.163	26.63
745.345	26.29
745.526	26.63
745.707	26.93
745.889	27.62
746.07	27.23
746.252	27.2
746.433	27.35
746.614	26.87
746.795	27.45
746.977	27.84
747.158	27.4
747.339	28.16
747.52	28.11
747.702	27.99
747.883	27.75
748.064	27.62
748.245	27.62
748.426	27.41
748.607	28.15
748.788	27.73
748.97	27.15
749.151	27.29
749.332	26.87
749.513	26.67
749.694	26.33
749.875	26.08
750.056	26.96
750.237	26.92
750.418	27.27
750.599	27.85
750.78	28.05
750.96	28.29
751.141	28.33
751.322	27.7
751.503	28.1
751.684	28.37
751.865	29.02
752.046	28.79
752.226	29.05
752.407	28.55
752.588	27.82
752.769	27.97
752.949	28.07
753.13	28.68
753.311	29.39
753.492	29.4
753.672	29.03
753.853	29.04
754.034	29.34
754.214	28.94
754.395	29.31
754.575	29.16
754.756	28.69
754.937	28.52
755.117	27.96
755.298	28.77
755.478	28.67
755.659	29.25
755.839	28.38
756.02	27.9
756.2	28.81
756.381	28.44
756.561	28.75
756.741	29.29
756.922	29.02
757.102	29.41
757.283	28.72
757.463	28.68
757.643	28.21
757.823	28.66
758.004	29.2
758.184	28.52
758.364	28.56
758.545	28.64
758.725	28.46
758.905	29.01
759.085	28.93
759.265	28.53
759.446	28.58
759.626	28.08
759.806	28.22
759.986	28.08
760.166	28.11
760.346	28.05
760.526	27.88
760.706	27.74
760.886	27.19
761.066	27.26
761.246	27.38
761.426	27.33
761.606	27.19
761.786	27.28
761.966	26.69
762.146	26.77
762.326	26.74
762.506	26.76
762.686	26.6
762.866	26.92
763.046	26.74
763.225	26.52
763.405	26.24
763.585	26.91
763.765	26.59
763.945	26.7
764.124	26.58
764.304	26.68
764.484	26.62
764.664	26.85
764.843	26.89
765.023	26.76
765.203	26.95
765.382	26.84
765.562	26.65
765.741	26.73
765.921	26.74
766.101	27.04
766.28	26.82
766.46	26.57
766.639	26.35
766.819	25.98
766.998	26.44
767.178	26.75
767.357	26.95
767.537	27.03
767.716	27.25
767.896	27.78
768.075	27.49
768.254	28.32
768.434	28.29
768.613	28.37
768.792	28.29
768.972	27.74
769.151	27
769.33	27.11
769.51	26.18
769.689	26.1
769.868	25.37
770.047	25.55
770.226	24.92
770.406	25.69
770.585	26.34
770.764	26.23
770.943	25.88
771.122	26.47
771.301	27.19
771.48	28.51
771.66	29.01
771.839	29.86
772.018	29.57
772.197	29.49
772.376	29.16
772.555	28.46
772.734	28.7
772.913	29.39
773.092	29.13
773.271	28.63
773.449	28.87
773.628	28.28
773.807	28.12
773.986	28.13
774.165	28.39
774.344	28.01
774.523	28.09
774.701	28.37
774.88	28.21
775.059	28.3
775.238	29.18
775.417	28.28
775.595	29
775.774	29.17
775.953	29.16
776.131	29.14
776.31	30.15
776.489	30.8
776.667	30.23
776.846	30.31
777.025	30.75
777.203	30.23
777.382	30
777.56	28.97
777.739	27.81
777.917	27.86
778.096	27.5
778.274	26.21
778.453	25.53
778.631	25.36
778.81	25.7
778.988	24.82
779.166	24.9
779.345	24.66
779.523	23.94
779.702	25.33
779.88	25.33
780.058	25.78
780.237	26.53
780.415	26.8
780.593	27.63
780.771	27.61
780.95	28.14
781.128	27.71
781.306	28.39
781.484	29.49
781.662	28.46
781.841	28.33
782.019	27.47
782.197	27.64
782.375	27.16
782.553	27.39
782.731	27.23
782.909	27.58
783.087	28.42
783.265	28.14
783.443	27.21
783.621	27.84
783.799	27.98
783.977	28.69
784.155	28.59
784.333	28.81
784.511	27.96
784.689	28.45
784.867	28.99
785.045	27.59
785.223	27.05
785.4	28.02
785.578	28.13
785.756	29
785.934	29.21
786.112	29.65
786.289	29.78
786.467	29.63
786.645	29.61
786.823	28.28
787	29.03
787.178	29.79
787.356	30.67
787.533	30.25
787.711	29.24
787.889	28.93
788.066	27.57
788.244	27.65
788.421	28.2
788.599	27.53
788.776	28.04
788.954	26.94
789.131	26.15
789.309	24.96
789.486	25.22
789.664	25.2
789.841	25.09
790.019	25.92
790.196	26.04
790.373	26.17
790.551	26.49
790.728	25.73
790.906	26.84
791.083	27.49
791.26	27.57
791.437	27.22
791.615	27.12
791.792	27.5
791.969	26.86
792.146	26.67
792.324	26.67
792.501	26.37
792.678	27.11
792.855	26.97
793.032	26.23
793.209	26.07
793.387	25.88
793.564	25.54
793.741	25.07
793.918	26.13
794.095	26.84
794.272	26.4
794.449	26.52
794.626	26.53
794.803	27.01
794.98	28.19
795.157	28.15
795.334	28.91
795.511	30.38
795.688	30.42
795.864	30.77
796.041	30.56
796.218	30.97
796.395	29.8
796.572	29.65
796.749	29.7
796.925	29.44
797.102	30.25
797.279	29.93
797.456	28.49
797.632	28.51
797.809	27.63
797.986	27.88
798.162	27.02
798.339	27.27
798.516	27.95
798.692	27.15
798.869	26.56
799.046	26.38
799.222	26.79
799.399	28.17
799.575	28.51
799.752	28.37
799.928	28.18
800.105	28.76
800.281	28.96
800.458	28.37
800.634	29.18
800.811	29.92
800.987	29.44
801.163	29.32
801.34	27.6
801.516	27.51
801.692	28.92
801.869	27.32
802.045	27.23
802.221	27.99
802.398	28.4
802.574	28.24
802.75	27.94
802.926	28.76
803.103	28.28
803.279	29.78
803.455	30.74
803.631	30.38
803.807	30.37
803.983	29.91
804.16	30.52
804.336	30.39
804.512	30.11
804.688	30.63
804.864	30.02
805.04	31.06
805.216	31.56
805.392	30.38
805.568	29.69
805.744	30.59
805.92	30.66
806.096	29.13
806.272	28.29
806.448	27.9
806.623	27.47
806.799	27.24
806.975	27.09
807.151	25.44
807.327	26.34
807.503	27.34
807.678	27.62
807.854	28.75
808.03	30.12
808.206	30.81
808.381	31.02
808.557	30.87
808.733	29.82
808.908	27.37
809.084	27.81
809.26	26.22
809.435	25.06
809.611	24.06
809.787	22.61
809.962	21.59
810.138	20.85
810.313	20.85
810.489	20.36
810.664	22.22
810.84	23.82
811.015	24.65
811.191	25.48
811.366	25.92
811.542	26.42
811.717	26.92
811.892	27.91
812.068	28.52
812.243	28.51
812.419	29.52
812.594	28.65
812.769	29.82
812.944	29.75
813.12	30
813.295	30.55
813.47	30.74
813.645	30.02
813.821	29.58
813.996	30.11
814.171	30.01
814.346	29.09
814.521	29.1
814.697	28.57
814.872	27.38
815.047	27.01
815.222	26.44
815.397	27.1
815.572	28.81
815.747	28.77
815.922	28.12
816.097	28.52
816.272	27.54
816.447	27.5
816.622	27.83
816.797	28.01
816.972	28.71
817.147	28.68
817.322	28.04
817.496	27.47
817.671	27.97
817.846	28.91
818.021	29.12
818.196	30.7
818.371	31.2
818.545	30.5
818.72	29.73
818.895	28.54
819.069	28.57
819.244	29.07
819.419	29.23
819.594	29.04
819.768	27.73
819.943	27.32
820.117	26.37
820.292	26.13
820.467	26.12
820.641	26.78
820.816	26.99
820.99	26.76
821.165	26.28
821.339	26.01
821.514	25.85
821.688	26.03
821.863	25.94
822.037	26.4
822.212	26.53
822.386	26.49
822.56	26.26
822.735	26.31
822.909	26.39
823.084	26.42
823.258	26.42
823.432	26.66
823.606	26.82
823.781	27.21
823.955	27.03
824.129	26.91
824.303	27.28
824.478	27.66
824.652	27.58
824.826	27.59
825	27.86
825.174	28.25
825.348	27.57
825.523	27.23
825.697	26.6
825.871	26.48
826.045	26.42
826.219	26.08
826.393	25.9
826.567	25.93
826.741	25.85
826.915	26.07
827.089	26.02
827.263	26.29
827.437	26.3
827.611	26.37
827.784	26.48
827.958	26.38
828.132	26.26
828.306	26.18
828.48	26.65
828.654	26.77
828.827	26.27
829.001	26.06
829.175	26.34
829.349	26.63
829.522	26.97
829.696	27.66
829.87	28.17
830.044	27.84
830.217	28.01
830.391	27.19
830.565	26.95
830.738	27.99
830.912	28.26
831.085	28.3
831.259	28.28
831.432	28.43
831.606	27.98
831.779	27.07
831.953	27.72
832.126	27.77
832.3	28.02
832.473	27.55
832.647	25.86
832.82	25.47
832.994	25.86
833.167	25.91
833.34	25.48
833.514	25.5
833.687	26.08
833.86	26.13
834.034	25.96
834.207	26.18
834.38	27.16
834.553	27.76
834.727	28.44
834.9	28.53
835.073	28.92
835.246	29.95
835.419	29.49
835.593	29.02
835.766	28.99
835.939	29.3
836.112	28.93
836.285	28.03
836.458	29.31
836.631	29.05
836.804	28.35
836.977	28.19
837.15	28.11
837.323	27.32
837.496	28.43
837.669	28.29
837.842	27.8
838.015	27.95
838.188	29.33
838.361	27.6
838.533	26.51
838.706	26.75
838.879	27.05
839.052	25.2
839.225	27.13
839.398	27.83
839.57	28.14
839.743	29.03
839.916	28.94
840.088	27.55
840.261	27.64
840.434	28.95
840.607	29.8
840.779	29.32
840.952	29.47
841.124	29.36
841.297	28.99
841.47	28.65
841.642	29.46
841.815	29.27
841.987	29.77
842.16	29.62
842.332	29.5
842.505	29.29
842.677	28.14
842.85	29.76
843.022	26.55
843.194	25.66
843.367	26.35
843.539	25.04
843.712	25.41
843.884	25.09
844.056	25.83
844.229	26.58
844.401	25.12
844.573	27.31
844.745	25.34
844.918	28.53
845.09	29.79
845.262	30.85
845.434	30.73
845.606	29.94
845.779	30.89
845.951	30.42
846.123	27.33
846.295	26.93
846.467	26.13
846.639	25.38
846.811	24.53
846.983	26.82
847.155	25.43
847.327	26.7
847.499	29.73
847.671	28.55
847.843	29.75
848.015	31.96
848.187	32.62
848.359	31.1
848.531	33.95
848.703	34.73
848.875	32.49
849.047	33.73
849.218	33.22
849.39	32.15
849.562	36.04
849.734	35.71
849.905	33.75
850.077	35.56
850.249	38.84
850.421	35.84
850.592	36.55
850.764	34.96
850.936	34.21
851.107	33.05
851.279	33.38
851.451	27.78
851.622	27.29
851.794	29.83
851.965	27.93
852.137	28.73
852.308	29.89
852.48	30.96
852.651	32.17
852.823	33.78
852.994	32.65
853.166	29.56
853.337	30.18
853.509	33.31
853.68	35.07
853.851	36.67
854.023	36.42
854.194	38.98
854.365	34.9
854.537	37.13
854.708	35.08
854.879	36.89
855.05	42.69
855.222	46.32
855.393	43.54
855.564	40.36
855.735	39.31
855.906	35.08
856.078	29.85
856.249	33.99
856.42	30.17
856.591	30.15
856.762	29.16
856.933	27.1
857.104	31.21
857.275	34.1
857.446	38.39
857.617	37.81
857.788	38.18
857.959	39.94
858.13	35.99
858.301	40.05
858.472	37.14
858.643	37.18
858.814	37.26
858.985	29.89
859.155	24.4
859.326	23.33
859.497	28.24
859.668	30.95
859.839	30.99
860.009	33.28
860.18	29.71
860.351	31.97
860.522	31.13
860.692	29.58
860.863	31.63
861.034	32.63
861.204	30.96
861.375	29.52
861.546	28.34
861.716	31.37
861.887	32.2
862.057	31.8
862.228	33.18
862.398	33.06
862.569	36.33
862.739	33.91
862.91	34.77
863.08	33.68
863.251	33.76
863.421	37.45
863.592	36.05
863.762	35.23
863.932	40.93
864.103	40.99
864.273	39.89
864.443	34.92
864.614	37.08
864.784	39.39
864.954	39.6
865.125	39.23
865.295	36.29
865.465	35.66
865.635	34.11
865.805	32.27
865.976	29.55
866.146	33.02
866.316	35.57
866.486	34.11
866.656	33.57
866.826	31.35
866.996	30.88
867.166	31.95
867.336	30.67
867.506	34.28
867.676	33.64
867.846	35.12
868.016	35.95
868.186	34.86
868.356	35.69
868.526	37.35
868.696	37.37
868.866	35.13
869.036	39.25
869.206	40.54
869.376	35.3
869.545	33.15
869.715	31.37
869.885	29.81
870.055	31.83
870.224	34.6
870.394	31.33
870.564	37.21
870.734	36.98
870.903	28.54
871.073	31.74
871.243	34.16
871.412	35.15
871.582	35.73
871.751	35.8
871.921	32.94
872.091	30.22
872.26	30.95
872.43	26.19
872.599	27.75
872.769	29.57
872.938	27.31
873.108	28.62
873.277	25.18
873.446	26.3
873.616	25.74
873.785	30.41
873.955	30.39
874.124	31.21
874.293	31.28
874.463	30.32
874.632	31.91
874.801	32.78
874.971	29.53
875.14	28.65
875.309	28.46
875.478	27.89
875.647	26.01
875.817	24.27
875.986	19.82
876.155	18.68
876.324	21.28
876.493	18.72
876.662	18.02
876.831	20.12
877	21.96
877.17	24.74
877.339	26.88
877.508	27.68
877.677	29.07
877.846	35.08
878.015	36.31
878.184	34.92
878.352	39
878.521	37.91
878.69	36.42
878.859	37.11
879.028	35.54
879.197	35.85
879.366	33.48
879.534	32.16
879.703	29.09
879.872	29.6
880.041	29.69
880.21	25.76
880.378	25.46
880.547	25.24
880.716	24.26
880.884	24.3
881.053	23.28
881.222	23.34
881.39	23.65
881.559	24.57
881.727	24.73
881.896	25.18
882.065	25.52
882.233	25.27
882.402	26.11
882.57	25.53
882.739	26.15
882.907	26.91
883.076	27.61
883.244	28.09
883.412	27.06
883.581	26.95
883.749	26.75
883.918	27.5
884.086	29.23
884.254	28.39
884.423	29.23
884.591	28.68
884.759	27.77
884.927	27.84
885.096	27.62
885.264	29.21
885.432	28.84
885.6	29.53
885.769	28.45
885.937	27.74
886.105	28.18
886.273	29.15
886.441	29.32
886.609	29.05
886.777	28.48
886.945	28.76
887.113	29.51
887.281	29.29
887.449	29.23
887.617	31.98
887.785	29.68
887.953	30.06
888.121	29.48
888.289	30.79
888.457	31.91
888.625	31.45
888.793	29.33
888.961	27.08
889.129	31.78
889.296	27.1
889.464	26.63
889.632	27.64
889.8	28.14
889.967	28.8
890.135	24.56
