Data from 2938465_Reflection_3.txt Node
Date: Wed Jun 17 13:52:11 EDT 2015
User: robert
Spectrometer: USB4E03002
Autoset integration time: false
Trigger mode: 4
Integration Time (sec): 1.000000E-1
Scans to average: 10
Electric dark correction enabled: true
Nonlinearity correction enabled: false
Boxcar width: 5
Stray light correction enabled: false
XAxis mode: Wavelengths
Stop averaging: false
Number of Pixels in Spectrum: 3648
>>>>>Begin Spectral Data<<<<<
177.575	31.19
177.794	110.77
178.014	116.9
178.233	225.85
178.452	-73.25
178.672	-350.1
178.891	-26.9
179.11	59.79
179.33	418.75
179.549	-1506.17
179.768	18.66
179.987	29.49
180.207	19.85
180.426	203.79
180.645	-103.49
180.864	-53.59
181.084	-46.44
181.303	-2.15
181.522	-16.12
181.741	-164.35
181.96	-70.45
182.179	-4.43
182.398	14.42
182.618	33.01
182.837	89.3
183.056	313.54
183.275	304.31
183.494	252.7
183.713	267.03
183.932	2137.61
184.151	997.39
184.37	450.23
184.589	306.23
184.808	253.14
185.027	650.39
185.246	340.11
185.465	231.6
185.684	252.95
185.903	314.49
186.122	238.44
186.341	148.67
186.56	159.75
186.779	241.53
186.998	257.1
187.216	193.46
187.435	152.74
187.654	151.12
187.873	152.87
188.092	151.63
188.311	130.23
188.53	143.71
188.748	173.77
188.967	158.88
189.186	130.99
189.405	159.5
189.623	64.68
189.842	223.6
190.061	-1637.2
190.28	-105.79
190.498	-99.83
190.717	-850.81
190.936	-156.9
191.154	-13.3
191.373	-13.48
191.592	-571.76
191.81	105.11
192.029	-272.22
192.248	422.08
192.466	78.38
192.685	16.51
192.904	-6.35
193.122	-46.14
193.341	19.59
193.559	41.84
193.778	50.35
193.996	70.94
194.215	70.84
194.433	89.74
194.652	76.35
194.87	107.96
195.089	131.75
195.307	185.26
195.526	369.79
195.744	263.13
195.963	219.99
196.181	193.58
196.399	133.99
196.618	122.04
196.836	138.06
197.055	139.91
197.273	119.39
197.491	125.37
197.71	110.2
197.928	125.08
198.146	100.87
198.365	110.81
198.583	122.27
198.801	113.56
199.019	129.06
199.238	108.19
199.456	99.08
199.674	105.91
199.892	103.99
200.111	79.96
200.329	83.94
200.547	125.39
200.765	125.41
200.983	131.71
201.202	153.38
201.42	137.97
201.638	138.56
201.856	116.16
202.074	79.24
202.292	78.21
202.51	72.46
202.728	51.68
202.946	46.63
203.165	10.64
203.383	15.32
203.601	23.08
203.819	26.2
204.037	2.63
204.255	30.96
204.473	50.71
204.691	62.31
204.909	87.94
205.127	72.9
205.345	61.71
205.562	81.78
205.78	102.53
205.998	84.69
206.216	82.37
206.434	88.93
206.652	82.11
206.87	81.61
207.088	82.16
207.306	66.36
207.523	66.79
207.741	69.14
207.959	68.66
208.177	58.56
208.395	55.07
208.612	60.75
208.83	64.34
209.048	54.89
209.266	58.66
209.483	55.75
209.701	73.42
209.919	83.95
210.136	98.7
210.354	78.43
210.572	78.74
210.79	79.87
211.007	82.7
211.225	76.62
211.442	89.28
211.66	89.64
211.878	89.93
212.095	152.28
212.313	139.98
212.53	121.46
212.748	158.02
212.966	166.65
213.183	158.69
213.401	146.26
213.618	127.71
213.836	121.9
214.053	110.68
214.271	100.61
214.488	39.89
214.705	51.62
214.923	58.83
215.14	49.62
215.358	57.84
215.575	69.57
215.793	62.18
216.01	66.4
216.227	70.47
216.445	68.17
216.662	74.26
216.879	81.07
217.097	68.66
217.314	62.31
217.531	66.41
217.749	66.48
217.966	57.21
218.183	51.09
218.4	35
218.618	25.73
218.835	-4.71
219.052	2.56
219.269	-26.36
219.487	-18.28
219.704	16.77
219.921	19.47
220.138	-1.21
220.355	10.6
220.572	22.9
220.79	30.11
221.007	41.42
221.224	57.02
221.441	51.98
221.658	49.14
221.875	55.26
222.092	45.34
222.309	41.36
222.526	42.96
222.743	38.15
222.96	39.45
223.177	39.93
223.394	36.28
223.611	28.54
223.828	31.21
224.045	28.99
224.262	21.98
224.479	19.41
224.696	22.35
224.913	22.72
225.13	23.51
225.347	21.84
225.564	19.87
225.781	17.78
225.997	17.51
226.214	18.42
226.431	16.67
226.648	16.24
226.865	16.85
227.082	17.03
227.298	16.81
227.515	16.6
227.732	14.83
227.949	15.75
228.165	15.93
228.382	16.64
228.599	15.03
228.816	15.76
229.032	15.75
229.249	15.31
229.466	15.66
229.682	17.66
229.899	19.66
230.116	21.35
230.332	19.64
230.549	19.32
230.765	20
230.982	20.8
231.199	22.69
231.415	26.45
231.632	28.32
231.848	28.53
232.065	26.53
232.281	22.7
232.498	22.16
232.714	24.7
232.931	24.63
233.147	24.39
233.364	22.64
233.58	21.83
233.797	20.53
234.013	19.23
234.23	15.1
234.446	15.01
234.662	15.35
234.879	13.64
235.095	11.14
235.312	10.56
235.528	10.07
235.744	11.23
235.961	10.88
236.177	8.84
236.393	10.35
236.61	11.14
236.826	9.33
237.042	11.14
237.258	15.52
237.475	16.12
237.691	17.67
237.907	15.07
238.123	14.53
238.339	14.92
238.556	16.57
238.772	15.2
238.988	15.86
239.204	15.47
239.42	15.06
239.636	14.57
239.853	14.4
240.069	13.81
240.285	13.68
240.501	13.99
240.717	13.31
240.933	12.51
241.149	12.61
241.365	13.17
241.581	14.39
241.797	14.17
242.013	13.95
242.229	14.17
242.445	13.99
242.661	14.38
242.877	15.29
243.093	15.83
243.309	16.14
243.525	16.12
243.741	15.19
243.957	14.38
244.173	14.27
244.388	13.65
244.604	13.23
244.82	13.18
245.036	13.39
245.252	12.69
245.468	12.16
245.683	12.42
245.899	12.45
246.115	12.35
246.331	12.27
246.547	12.06
246.762	12.17
246.978	12.02
247.194	12.57
247.409	12.6
247.625	12.41
247.841	12.88
248.057	12.74
248.272	13.02
248.488	13.17
248.703	12.78
248.919	12.72
249.135	12.39
249.35	13.11
249.566	12.61
249.782	12.4
249.997	12.5
250.213	11.84
250.428	11.77
250.644	10.95
250.859	10.56
251.075	10.88
251.29	11.3
251.506	11.78
251.721	11.85
251.937	11.98
252.152	11.74
252.368	12.36
252.583	13.22
252.798	13.12
253.014	14.01
253.229	15.89
253.445	15.63
253.66	16.16
253.875	15.85
254.091	15.8
254.306	14.9
254.521	15.26
254.737	14.4
254.952	13.88
255.167	13.41
255.383	12.67
255.598	11.76
255.813	11.64
256.028	11
256.244	10.1
256.459	9.31
256.674	9.41
256.889	9.47
257.104	9.33
257.32	9.67
257.535	9.33
257.75	9.67
257.965	9.56
258.18	9.54
258.395	9.5
258.61	9.88
258.826	10.15
259.041	10.11
259.256	9.86
259.471	10.19
259.686	10.2
259.901	10.74
260.116	10.38
260.331	10.4
260.546	10.12
260.761	9.86
260.976	9.92
261.191	9.62
261.406	9.83
261.621	9.66
261.836	9.39
262.05	8.82
262.265	8
262.48	7.83
262.695	7.45
262.91	8.26
263.125	8.79
263.34	8.43
263.555	8.64
263.769	9.1
263.984	9.03
264.199	9.34
264.414	9.06
264.629	9.67
264.843	9.9
265.058	9.83
265.273	9.86
265.488	9.68
265.702	9.76
265.917	9.66
266.132	9.43
266.346	10.04
266.561	9.84
266.776	10.95
266.99	11.03
267.205	10.89
267.42	10.74
267.634	10.81
267.849	11.61
268.063	11.6
268.278	11.83
268.492	11.39
268.707	10.86
268.922	10.86
269.136	10.14
269.351	9.98
269.565	10.26
269.78	10.39
269.994	10.54
270.209	9.74
270.423	9.58
270.637	8.85
270.852	8.94
271.066	9.27
271.281	8.95
271.495	8.62
271.709	8.5
271.924	8.32
272.138	8.38
272.353	7.97
272.567	7.87
272.781	7.73
272.996	8.3
273.21	8.25
273.424	8
273.638	8.2
273.853	8.71
274.067	8.52
274.281	8.73
274.495	8.93
274.71	9.17
274.924	8.8
275.138	8.93
275.352	8.65
275.566	8.56
275.781	8.7
275.995	9.33
276.209	9.19
276.423	9.25
276.637	8.86
276.851	8.62
277.065	8.48
277.279	9.61
277.493	9.33
277.707	9.55
277.921	9.58
278.135	8.68
278.349	8.59
278.563	8.52
278.777	8.27
278.991	8.25
279.205	8.8
279.419	9.03
279.633	8.7
279.847	8.8
280.061	8.75
280.275	9
280.489	9.89
280.703	9.68
280.917	9.75
281.131	10.29
281.344	10.51
281.558	10.13
281.772	9.73
281.986	9.74
282.2	9.95
282.414	10.15
282.627	10.28
282.841	10.02
283.055	9.58
283.269	9.88
283.482	9.69
283.696	9.4
283.91	9.56
284.123	9.48
284.337	9.39
284.551	9.2
284.764	9.27
284.978	9.36
285.192	9.4
285.405	9.76
285.619	9.48
285.833	9.65
286.046	9.63
286.26	9.58
286.473	10
286.687	10.14
286.9	10.68
287.114	9.95
287.327	9.53
287.541	9.5
287.754	9.32
287.968	9.21
288.181	8.75
288.395	9.14
288.608	9.22
288.822	8.87
289.035	8.35
289.248	8.29
289.462	8.83
289.675	8.8
289.889	8.63
290.102	8.69
290.315	8.31
290.529	8.79
290.742	8.96
290.955	8.69
291.169	8.85
291.382	9.69
291.595	9.62
291.808	9.45
292.022	9.66
292.235	9.71
292.448	10.05
292.661	10.7
292.875	10.73
293.088	10.74
293.301	11.16
293.514	11.16
293.727	10.94
293.94	11.03
294.153	11.63
294.367	11.41
294.58	11.44
294.793	11.33
295.006	11.36
295.219	11.44
295.432	11.45
295.645	11.46
295.858	11.44
296.071	11.36
296.284	11.27
296.497	10.85
296.71	11.27
296.923	11.75
297.136	11.61
297.349	11.56
297.562	11.67
297.775	11.65
297.988	11.82
298.201	12.18
298.414	12.49
298.626	12.47
298.839	12.54
299.052	12.23
299.265	11.86
299.478	12.18
299.691	12.99
299.903	12.9
300.116	13.17
300.329	12.77
300.542	12.6
300.755	12.71
300.967	13.34
301.18	13.93
301.393	14.15
301.605	14.39
301.818	14.07
302.031	13.46
302.243	13.3
302.456	13.21
302.669	12.93
302.881	13.23
303.094	12.74
303.307	12.68
303.519	13.07
303.732	13.42
303.944	13.54
304.157	14.07
304.37	14.12
304.582	14.63
304.795	14.95
305.007	15.58
305.22	15.26
305.432	15.83
305.645	15.38
305.857	14.58
306.069	14.45
306.282	14.13
306.494	13.99
306.707	14.26
306.919	13.87
307.132	13.68
307.344	13.71
307.556	14.3
307.769	14.23
307.981	14.48
308.193	14.64
308.406	14.64
308.618	15.14
308.83	15.07
309.043	14.91
309.255	15.15
309.467	14.71
309.679	14.54
309.892	14.52
310.104	14.48
310.316	14.47
310.528	14.61
310.74	14.67
310.953	14.45
311.165	14.15
311.377	13.87
311.589	13.68
311.801	14.4
312.013	14.48
312.225	14.21
312.437	14.39
312.649	14.44
312.862	14.07
313.074	14.33
313.286	14.42
313.498	15.23
313.71	15.83
313.922	16.17
314.134	15.8
314.346	15.79
314.558	15.96
314.77	16.23
314.982	16.47
315.193	17.12
315.405	16.78
315.617	17.04
315.829	16.74
316.041	16.68
316.253	16.4
316.465	16.62
316.677	16.83
316.888	16.82
317.1	16.56
317.312	16.62
317.524	16.3
317.736	16.54
317.947	15.76
318.159	16.22
318.371	16.6
318.583	16.62
318.794	16.47
319.006	16.7
319.218	16.71
319.43	17.06
319.641	17.1
319.853	17.31
320.064	17.29
320.276	18.21
320.488	17.9
320.699	17.91
320.911	18.34
321.123	18.48
321.334	18.64
321.546	18.82
321.757	18.57
321.969	18.81
322.18	18.61
322.392	18.66
322.603	18.69
322.815	19.19
323.026	19.17
323.238	19.64
323.449	19.85
323.661	19.7
323.872	19.68
324.083	19.87
324.295	20.24
324.506	20.64
324.718	20.94
324.929	21.68
325.14	21.78
325.352	22.05
325.563	22.02
325.774	22.69
325.986	23.66
326.197	24.49
326.408	24.81
326.62	24.75
326.831	25.4
327.042	25.75
327.253	25.47
327.464	25.47
327.676	25.73
327.887	25.7
328.098	25.85
328.309	25.64
328.52	25.91
328.732	26.62
328.943	27.27
329.154	26.65
329.365	27.06
329.576	27.16
329.787	28.02
329.998	28.76
330.209	29.81
330.42	29.92
330.631	30.34
330.842	30.36
331.053	30.12
331.264	30.72
331.475	31.47
331.686	31.91
331.897	32.25
332.108	32.39
332.319	32.36
332.53	31.84
332.741	32.47
332.952	32.52
333.163	32.81
333.374	32.88
333.585	32.53
333.795	32.82
334.006	32.84
334.217	33.23
334.428	33.59
334.639	33.43
334.849	33.97
335.06	33.73
335.271	33.6
335.482	33.51
335.692	33.93
335.903	34.04
336.114	34.07
336.325	34.11
336.535	34.17
336.746	34.25
336.957	34.83
337.167	35.07
337.378	35.13
337.589	35.8
337.799	35.92
338.01	36.38
338.22	36.59
338.431	36.77
338.642	37.06
338.852	37.04
339.063	36.99
339.273	36.43
339.484	36.15
339.694	36.51
339.905	36.42
340.115	36.64
340.326	36.44
340.536	36.53
340.746	36.46
340.957	36.54
341.167	36.72
341.378	36.48
341.588	37.12
341.799	37.46
342.009	37.13
342.219	37.14
342.43	37.38
342.64	37.12
342.85	37.35
343.061	37.07
343.271	37.03
343.481	36.95
343.691	37.04
343.902	36.4
344.112	36.22
344.322	36.3
344.532	36.18
344.743	35.66
344.953	35.83
345.163	35.34
345.373	35.59
345.583	35.34
345.793	35.38
346.004	35.66
346.214	35.76
346.424	35.73
346.634	35.74
346.844	35.73
347.054	36.06
347.264	36.4
347.474	36.63
347.684	36.69
347.894	36.75
348.104	36.4
348.314	36.21
348.524	36.26
348.734	36.4
348.944	36.26
349.154	36.34
349.364	36.07
349.574	35.26
349.784	35.19
349.994	35.19
350.204	35.47
350.413	36.2
350.623	36.23
350.833	36.55
351.043	36.3
351.253	36.24
351.463	36.13
351.672	36.02
351.882	36.39
352.092	36.12
352.302	36.03
352.511	35.75
352.721	35.23
352.931	35.16
353.141	35.15
353.35	34.95
353.56	34.87
353.77	34.55
353.979	34.66
354.189	34.45
354.399	34.46
354.608	34.3
354.818	34.31
355.027	34.48
355.237	34.34
355.447	34.18
355.656	34.32
355.866	34.64
356.075	35.03
356.285	35.09
356.494	34.86
356.704	34.88
356.913	34.68
357.123	34.6
357.332	34.41
357.542	34.41
357.751	34.35
357.96	34.47
358.17	34.42
358.379	34.54
358.589	34.53
358.798	34.91
359.007	34.72
359.217	34.99
359.426	35.04
359.635	34.92
359.845	34.82
360.054	34.74
360.263	34.79
360.472	34.73
360.682	34.26
360.891	34.25
361.1	34.23
361.309	34.37
361.519	34.4
361.728	34.33
361.937	34.41
362.146	34.69
362.355	34.43
362.564	34.39
362.774	34.36
362.983	34.59
363.192	34.51
363.401	34.28
363.61	34.07
363.819	34.21
364.028	34.01
364.237	33.79
364.446	33.3
364.655	33.53
364.864	33.49
365.073	33.41
365.282	33.27
365.491	33.01
365.7	33.12
365.909	33.24
366.118	33.09
366.327	33.06
366.536	33.49
366.745	33.62
366.954	33.72
367.162	33.5
367.371	33.52
367.58	33.44
367.789	33.45
367.998	33.04
368.207	33
368.415	32.79
368.624	32.89
368.833	32.5
369.042	32.42
369.25	32.42
369.459	32.65
369.668	32.31
369.877	32.62
370.085	32.67
370.294	32.85
370.503	32.59
370.711	32.79
370.92	32.43
371.129	32.44
371.337	32.57
371.546	32.25
371.754	32.08
371.963	32.18
372.171	31.95
372.38	32.08
372.589	32.63
372.797	33.11
373.006	32.86
373.214	33.04
373.423	33
373.631	32.91
373.84	33.03
374.048	33.14
374.256	33.27
374.465	33.3
374.673	33.06
374.882	32.5
375.09	32.09
375.298	32.02
375.507	31.82
375.715	31.7
375.923	31.62
376.132	31.56
376.34	31.17
376.548	31.04
376.757	30.83
376.965	31
377.173	31.05
377.381	31.13
377.59	31.14
377.798	31.29
378.006	31.18
378.214	31.17
378.423	31.09
378.631	31.13
378.839	31.04
379.047	31.18
379.255	30.87
379.463	30.82
379.671	30.48
379.879	30.36
380.088	30.41
380.296	30.42
380.504	30.3
380.712	30.26
380.92	30.31
381.128	30.34
381.336	30.16
381.544	30.28
381.752	30.13
381.96	30.38
382.168	30.36
382.376	30.25
382.584	30.16
382.791	30.26
382.999	30.36
383.207	30.17
383.415	30.02
383.623	30.18
383.831	30.27
384.039	30.31
384.247	30.26
384.454	30.15
384.662	30.27
384.87	30.32
385.078	30.16
385.285	29.97
385.493	29.9
385.701	29.97
385.909	29.9
386.116	29.76
386.324	29.56
386.532	29.52
386.739	29.63
386.947	29.67
387.155	30.01
387.362	30.14
387.57	30.18
387.778	30.29
387.985	30.15
388.193	30.17
388.4	30.11
388.608	30.24
388.816	30.06
389.023	30.1
389.231	29.86
389.438	29.62
389.646	29.46
389.853	29.62
390.061	29.49
390.268	29.49
390.475	29.25
390.683	29.28
390.89	29.32
391.098	29.52
391.305	29.37
391.512	29.28
391.72	29.2
391.927	29.25
392.135	28.93
392.342	29.09
392.549	29.29
392.756	29.49
392.964	29.52
393.171	29.62
393.378	29.57
393.586	29.72
393.793	29.67
394	29.61
394.207	29.57
394.414	29.83
394.622	29.81
394.829	29.67
395.036	29.39
395.243	29.23
395.45	29.05
395.657	29.04
395.864	29.04
396.072	29.24
396.279	29.1
396.486	29.09
396.693	29
396.9	28.95
397.107	28.97
397.314	29.29
397.521	29.31
397.728	29.54
397.935	29.68
398.142	29.47
398.349	29.23
398.556	29.54
398.763	29.51
398.97	29.65
399.177	29.81
399.383	29.71
399.59	29.59
399.797	29.68
400.004	29.52
400.211	29.49
400.418	29.59
400.625	29.72
400.831	29.42
401.038	29.37
401.245	29.15
401.452	29.08
401.658	28.97
401.865	28.87
402.072	28.89
402.279	28.91
402.485	28.67
402.692	28.76
402.899	28.9
403.105	29.03
403.312	29.15
403.519	29.28
403.725	29.13
403.932	29.25
404.138	29.36
404.345	29.27
404.552	29.24
404.758	29.41
404.965	29.32
405.171	29.17
405.378	29.22
405.584	29.12
405.791	28.93
405.997	28.92
406.204	28.92
406.41	28.7
406.617	28.64
406.823	28.7
407.029	28.72
407.236	28.82
407.442	28.93
407.649	29.03
407.855	28.85
408.061	28.98
408.268	29.17
408.474	29.22
408.68	29.28
408.887	29.49
409.093	29.37
409.299	29.29
409.505	29.1
409.712	28.97
409.918	28.62
410.124	28.76
410.33	28.8
410.537	28.58
410.743	28.37
410.949	28.23
411.155	28.05
411.361	27.95
411.567	27.77
411.773	27.73
411.98	27.8
412.186	28.02
412.392	28.01
412.598	27.84
412.804	27.81
413.01	27.83
413.216	27.93
413.422	27.87
413.628	27.81
413.834	28.02
414.04	27.83
414.246	27.66
414.452	27.51
414.658	27.38
414.864	27.28
415.07	27.37
415.275	27.3
415.481	27.29
415.687	27.33
415.893	27.31
416.099	27.11
416.305	27.2
416.511	27.25
416.716	27.25
416.922	27.36
417.128	27.42
417.334	27.31
417.539	27.28
417.745	27.16
417.951	27.1
418.157	27.04
418.362	26.95
418.568	26.83
418.774	26.73
418.979	26.82
419.185	26.76
419.391	26.63
419.596	26.61
419.802	26.59
420.008	26.68
420.213	27.09
420.419	27.07
420.624	27.03
420.83	27.07
421.035	27.06
421.241	26.98
421.446	26.85
421.652	26.92
421.857	26.9
422.063	26.85
422.268	26.67
422.474	26.21
422.679	26.21
422.885	26.29
423.09	26.22
423.295	26.25
423.501	26.11
423.706	26.13
423.911	26.14
424.117	26.13
424.322	26.17
424.527	26.37
424.733	26.32
424.938	26.27
425.143	26.29
425.349	26.35
425.554	26.26
425.759	26.36
425.964	26.3
426.169	26.17
426.375	26.02
426.58	26.03
426.785	25.86
426.99	25.93
427.195	26.02
427.4	25.83
427.605	25.95
427.811	25.95
428.016	25.87
428.221	26.06
428.426	26.07
428.631	26.22
428.836	26.22
429.041	26.26
429.246	26.3
429.451	26.3
429.656	26.4
429.861	26.45
430.066	26.46
430.271	26.52
430.476	26.41
430.681	26.45
430.886	26.48
431.09	26.54
431.295	26.51
431.5	26.53
431.705	26.49
431.91	26.58
432.115	26.51
432.32	26.52
432.524	26.47
432.729	26.34
432.934	26.37
433.139	26.3
433.343	26.22
433.548	26.16
433.753	26.02
433.958	26.06
434.162	25.98
434.367	25.91
434.572	25.85
434.776	25.93
434.981	26.04
435.186	25.87
435.39	25.88
435.595	25.82
435.799	25.89
436.004	25.93
436.209	25.83
436.413	25.78
436.618	25.73
436.822	25.81
437.027	25.78
437.231	25.84
437.436	26.03
437.64	26.02
437.845	26.08
438.049	26.11
438.253	26.11
438.458	26.24
438.662	26.33
438.867	26.43
439.071	26.5
439.275	26.58
439.48	26.46
439.684	26.33
439.888	26.32
440.093	26.37
440.297	26.34
440.501	26.31
440.706	26.29
440.91	26.31
441.114	26.18
441.318	26.02
441.523	25.88
441.727	26.09
441.931	26.33
442.135	26.36
442.339	26.42
442.543	26.5
442.748	26.49
442.952	26.51
443.156	26.39
443.36	26.47
443.564	26.5
443.768	26.54
443.972	26.39
444.176	26.25
444.38	26.23
444.584	26.08
444.788	25.91
444.992	25.8
445.196	25.68
445.4	25.74
445.604	25.62
445.808	25.62
446.012	25.57
446.216	25.49
446.42	25.43
446.624	25.36
446.828	25.32
447.032	25.32
447.235	25.43
447.439	25.44
447.643	25.38
447.847	25.49
448.051	25.46
448.254	25.43
448.458	25.55
448.662	25.59
448.866	25.62
449.069	25.56
449.273	25.64
449.477	25.58
449.681	25.63
449.884	25.69
450.088	25.69
450.292	25.79
450.495	25.72
450.699	25.77
450.902	25.73
451.106	25.77
451.31	25.75
451.513	25.73
451.717	25.75
451.92	25.72
452.124	25.55
452.327	25.49
452.531	25.42
452.734	25.39
452.938	25.27
453.141	25.24
453.345	25.14
453.548	25.23
453.752	25.31
453.955	25.3
454.158	25.18
454.362	25.26
454.565	25.36
454.769	25.39
454.972	25.55
455.175	25.65
455.379	25.61
455.582	25.65
455.785	25.76
455.988	25.7
456.192	25.64
456.395	25.75
456.598	25.76
456.801	25.76
457.005	25.74
457.208	25.7
457.411	25.62
457.614	25.59
457.817	25.64
458.021	25.61
458.224	25.66
458.427	25.61
458.63	25.55
458.833	25.55
459.036	25.46
459.239	25.41
459.442	25.31
459.645	25.3
459.848	25.31
460.051	25.25
460.254	25.2
460.457	25.12
460.66	25.19
460.863	25.31
461.066	25.3
461.269	25.25
461.472	25.27
461.675	25.36
461.878	25.37
462.081	25.6
462.284	25.59
462.486	25.62
462.689	25.68
462.892	25.72
463.095	25.66
463.298	25.71
463.5	25.84
463.703	25.78
463.906	25.86
464.109	25.88
464.311	25.79
464.514	25.89
464.717	25.96
464.92	25.92
465.122	25.93
465.325	25.95
465.528	25.91
465.73	26
465.933	26.06
466.135	26.08
466.338	26.11
466.541	26.07
466.743	25.93
466.946	25.88
467.148	25.87
467.351	25.82
467.553	25.89
467.756	25.94
467.958	25.93
468.161	25.96
468.363	25.91
468.566	25.93
468.768	25.99
468.971	26.07
469.173	26.22
469.375	26.21
469.578	26.13
469.78	26.03
469.983	26.02
470.185	25.93
470.387	25.96
470.59	26.09
470.792	25.94
470.994	25.91
471.196	26.03
471.399	25.92
471.601	25.92
471.803	26.03
472.005	26.13
472.208	26.15
472.41	26.11
472.612	26.02
472.814	25.89
473.016	26.14
473.218	26.14
473.421	26.07
473.623	26.07
473.825	26.1
474.027	26.15
474.229	26.07
474.431	26.07
474.633	26.13
474.835	26.25
475.037	26.34
475.239	26.21
475.441	26.21
475.643	26.18
475.845	26.15
476.047	26.13
476.249	26.11
476.451	26.06
476.653	26.01
476.855	26.06
477.057	26.02
477.258	25.85
477.46	25.94
477.662	25.91
477.864	25.9
478.066	25.9
478.268	25.96
478.469	26.04
478.671	26.01
478.873	26.07
479.075	26.09
479.276	26.09
479.478	26.16
479.68	26.09
479.882	26.13
480.083	26.13
480.285	26.18
480.487	26.16
480.688	26.15
480.89	26.21
481.091	26.15
481.293	26.11
481.495	26.08
481.696	26.09
481.898	26.05
482.099	26
482.301	25.97
482.502	25.87
482.704	25.81
482.905	25.71
483.107	25.62
483.308	25.58
483.51	25.52
483.711	25.49
483.913	25.45
484.114	25.47
484.315	25.45
484.517	25.39
484.718	25.41
484.92	25.47
485.121	25.55
485.322	25.66
485.524	25.68
485.725	25.71
485.926	25.67
486.127	25.7
486.329	25.68
486.53	25.68
486.731	25.7
486.932	25.73
487.134	25.67
487.335	25.62
487.536	25.58
487.737	25.62
487.938	25.66
488.139	25.75
488.341	25.78
488.542	25.8
488.743	25.88
488.944	25.9
489.145	25.97
489.346	26.06
489.547	26.14
489.748	26.13
489.949	26.09
490.15	26.08
490.351	25.97
490.552	25.96
490.753	25.92
490.954	25.85
491.155	25.85
491.356	25.79
491.557	25.74
491.758	25.71
491.959	25.78
492.159	25.82
492.36	25.77
492.561	25.82
492.762	25.85
492.963	25.85
493.164	25.96
493.364	26.02
493.565	26.06
493.766	26.12
493.967	26.19
494.167	26.17
494.368	26.13
494.569	26.25
494.769	26.29
494.97	26.23
495.171	26.38
495.371	26.39
495.572	26.45
495.773	26.44
495.973	26.44
496.174	26.4
496.375	26.48
496.575	26.58
496.776	26.63
496.976	26.69
497.177	26.79
497.377	26.75
497.578	26.75
497.778	26.74
497.979	26.89
498.179	26.86
498.38	27.01
498.58	27.02
498.78	27.02
498.981	27.05
499.181	27.11
499.382	27.15
499.582	27.23
499.782	27.29
499.983	27.36
500.183	27.4
500.383	27.52
500.584	27.44
500.784	27.43
500.984	27.55
501.184	27.52
501.385	27.56
501.585	27.64
501.785	27.64
501.985	27.66
502.185	27.73
502.386	27.73
502.586	27.7
502.786	27.85
502.986	27.89
503.186	27.88
503.386	27.95
503.586	28.04
503.786	27.98
503.987	28.12
504.187	28.21
504.387	28.23
504.587	28.31
504.787	28.41
504.987	28.48
505.187	28.58
505.387	28.69
505.587	28.72
505.786	28.76
505.986	28.93
506.186	28.95
506.386	28.99
506.586	29.01
506.786	29.06
506.986	29.14
507.186	29.19
507.386	29.24
507.585	29.23
507.785	29.31
507.985	29.37
508.185	29.44
508.384	29.46
508.584	29.55
508.784	29.59
508.984	29.59
509.183	29.62
509.383	29.6
509.583	29.73
509.782	29.85
509.982	29.84
510.182	29.86
510.381	29.89
510.581	29.99
510.781	30.02
510.98	30.15
511.18	30.22
511.379	30.27
511.579	30.42
511.778	30.34
511.978	30.34
512.177	30.51
512.377	30.6
512.576	30.68
512.776	30.77
512.975	30.78
513.175	30.85
513.374	31.03
513.573	31.21
513.773	31.29
513.972	31.42
514.172	31.64
514.371	31.7
514.57	31.81
514.77	31.92
514.969	32.04
515.168	32.33
515.367	32.43
515.567	32.56
515.766	32.66
515.965	32.82
516.164	32.96
516.364	33.01
516.563	33.14
516.762	33.16
516.961	33.22
517.16	33.25
517.359	33.11
517.559	33.19
517.758	33.2
517.957	33.31
518.156	33.36
518.355	33.37
518.554	33.4
518.753	33.39
518.952	33.47
519.151	33.49
519.35	33.67
519.549	33.94
519.748	33.95
519.947	34.03
520.146	34
520.345	34.05
520.544	34.16
520.743	34.3
520.942	34.38
521.141	34.5
521.339	34.72
521.538	34.75
521.737	34.76
521.936	34.92
522.135	35.14
522.333	35.28
522.532	35.41
522.731	35.55
522.93	35.7
523.129	35.87
523.327	35.99
523.526	36.04
523.725	36.11
523.923	36.29
524.122	36.43
524.321	36.44
524.519	36.57
524.718	36.62
524.917	36.65
525.115	36.78
525.314	36.8
525.512	36.92
525.711	37.05
525.909	37.24
526.108	37.3
526.306	37.37
526.505	37.42
526.703	37.44
526.902	37.45
527.1	37.46
527.299	37.41
527.497	37.41
527.696	37.39
527.894	37.35
528.092	37.28
528.291	37.22
528.489	37.15
528.688	37.11
528.886	37.07
529.084	37.08
529.283	37.14
529.481	37.22
529.679	37.34
529.877	37.42
530.076	37.54
530.274	37.71
530.472	37.96
530.67	38.21
530.869	38.4
531.067	38.57
531.265	38.71
531.463	38.83
531.661	38.84
531.859	38.93
532.057	38.91
532.255	38.82
532.454	38.79
532.652	38.74
532.85	38.7
533.048	38.67
533.246	38.63
533.444	38.61
533.642	38.54
533.84	38.6
534.038	38.61
534.236	38.73
534.434	38.94
534.632	38.96
534.83	39.08
535.027	39.13
535.225	39.24
535.423	39.37
535.621	39.34
535.819	39.38
536.017	39.35
536.215	39.33
536.412	39.32
536.61	39.27
536.808	39.34
537.006	39.3
537.203	39.3
537.401	39.29
537.599	39.31
537.797	39.53
537.994	39.69
538.192	39.92
538.39	40.13
538.587	40.36
538.785	40.51
538.983	40.59
539.18	40.69
539.378	40.71
539.575	40.78
539.773	40.82
539.97	40.7
540.168	40.71
540.366	40.62
540.563	40.5
540.761	40.41
540.958	40.37
541.155	40.31
541.353	40.23
541.55	40.24
541.748	40.22
541.945	40.18
542.143	40.26
542.34	40.22
542.537	40.23
542.735	40.32
542.932	40.36
543.129	40.45
543.327	40.49
543.524	40.64
543.721	40.74
543.919	40.76
544.116	40.74
544.313	40.83
544.51	40.92
544.708	40.98
544.905	41.1
545.102	41.17
545.299	41.2
545.496	41.27
545.693	41.14
545.891	41.12
546.088	41.16
546.285	41.23
546.482	41.19
546.679	41.31
546.876	41.31
547.073	41.28
547.27	41.24
547.467	41.3
547.664	41.38
547.861	41.56
548.058	41.61
548.255	41.55
548.452	41.67
548.649	41.72
548.846	41.58
549.043	41.67
549.24	41.73
549.437	41.83
549.633	41.79
549.83	41.9
550.027	41.99
550.224	42.11
550.421	42.33
550.618	42.38
550.814	42.5
551.011	42.59
551.208	42.55
551.405	42.56
551.601	42.64
551.798	42.68
551.995	42.51
552.191	42.44
552.388	42.27
552.585	42.23
552.781	42.18
552.978	42.03
553.175	42.01
553.371	42.1
553.568	42.02
553.764	42.13
553.961	42.08
554.157	42.25
554.354	42.27
554.55	42.4
554.747	42.47
554.943	42.53
555.14	42.71
555.336	42.79
555.533	42.83
555.729	42.99
555.926	42.89
556.122	42.91
556.318	42.92
556.515	42.97
556.711	43.04
556.907	43.03
557.104	43.04
557.3	43.06
557.496	42.98
557.693	43.1
557.889	43.14
558.085	43.12
558.281	43.2
558.478	43.19
558.674	43.35
558.87	43.42
559.066	43.43
559.262	43.39
559.459	43.32
559.655	43.36
559.851	43.42
560.047	43.49
560.243	43.47
560.439	43.49
560.635	43.59
560.831	43.48
561.027	43.4
561.223	43.42
561.419	43.55
561.615	43.65
561.811	43.95
562.007	43.89
562.203	44.06
562.399	44.24
562.595	44.22
562.791	44.28
562.987	44.48
563.183	44.74
563.379	44.79
563.575	44.81
563.771	44.93
563.966	44.86
564.162	44.88
564.358	44.76
564.554	44.72
564.75	44.78
564.945	44.72
565.141	44.71
565.337	44.59
565.533	44.66
565.728	44.65
565.924	44.57
566.12	44.59
566.315	44.6
566.511	44.5
566.707	44.56
566.902	44.56
567.098	44.73
567.293	44.72
567.489	44.79
567.684	44.76
567.88	44.71
568.076	44.84
568.271	44.76
568.467	44.86
568.662	45
568.858	45.06
569.053	45.1
569.248	45.15
569.444	45.14
569.639	45.24
569.835	45.33
570.03	45.49
570.225	45.48
570.421	45.55
570.616	45.58
570.812	45.63
571.007	45.48
571.202	45.57
571.397	45.48
571.593	45.48
571.788	45.36
571.983	45.33
572.178	45.24
572.374	45.37
572.569	45.35
572.764	45.34
572.959	45.3
573.154	45.5
573.35	45.49
573.545	45.58
573.74	45.72
573.935	45.84
574.13	45.89
574.325	45.89
574.52	45.77
574.715	45.8
574.91	45.76
575.105	45.8
575.3	45.74
575.495	45.73
575.69	45.6
575.885	45.56
576.08	45.56
576.275	45.55
576.47	45.6
576.665	45.64
576.86	45.64
577.055	45.68
577.25	45.83
577.444	45.9
577.639	45.89
577.834	46
578.029	46
578.224	45.89
578.418	45.93
578.613	45.98
578.808	46.02
579.003	46.06
579.197	46.13
579.392	46.11
579.587	46.06
579.781	46.09
579.976	46.05
580.171	46.06
580.365	46.23
580.56	46.26
580.755	46.3
580.949	46.35
581.144	46.39
581.338	46.33
581.533	46.27
581.727	46.32
581.922	46.53
582.116	46.73
582.311	46.89
582.505	46.89
582.7	46.88
582.894	46.91
583.089	46.91
583.283	47.01
583.478	47.13
583.672	47.26
583.866	47.28
584.061	47.34
584.255	47.33
584.449	47.28
584.644	47.22
584.838	47.32
585.032	47.31
585.226	47.44
585.421	47.39
585.615	47.47
585.809	47.52
586.003	47.54
586.198	47.38
586.392	47.47
586.586	47.45
586.78	47.67
586.974	47.78
587.168	47.86
587.363	47.86
587.557	47.88
587.751	47.98
587.945	47.95
588.139	48.02
588.333	48.18
588.527	48.15
588.721	48.39
588.915	48.46
589.109	48.41
589.303	48.43
589.497	48.32
589.691	48.53
589.885	48.33
590.079	48.16
590.273	48.28
590.466	48.25
590.66	48.22
590.854	48.26
591.048	48.14
591.242	48.22
591.436	48.29
591.629	48.44
591.823	48.24
592.017	48.62
592.211	48.88
592.404	48.93
592.598	48.98
592.792	49.06
592.986	48.89
593.179	49.02
593.373	48.97
593.567	49.01
593.76	49.06
593.954	49.25
594.147	49.24
594.341	49.26
594.535	49.28
594.728	49.21
594.922	49.28
595.115	49.22
595.309	49.2
595.502	49.36
595.696	49.35
595.889	49.25
596.083	49.22
596.276	49.13
596.47	49.16
596.663	49.16
596.856	49.21
597.05	49.11
597.243	49.25
597.437	49.19
597.63	49.09
597.823	49
598.017	49.12
598.21	49.15
598.403	49.15
598.596	49.2
598.79	49.37
598.983	49.51
599.176	49.63
599.369	49.68
599.563	49.91
599.756	50.09
599.949	50.21
600.142	50.28
600.335	50.34
600.528	50.38
600.722	50.3
600.915	50.19
601.108	50.33
601.301	50.61
601.494	50.69
601.687	50.69
601.88	50.6
602.073	50.64
602.266	50.59
602.459	50.66
602.652	50.66
602.845	50.66
603.038	50.5
603.231	50.44
603.424	50.36
603.617	50.27
603.809	50.18
604.002	50.18
604.195	50.13
604.388	50.12
604.581	50.12
604.774	50.13
604.966	50.07
605.159	50.12
605.352	50.07
605.545	49.89
605.737	49.91
605.93	50.1
606.123	50.26
606.316	50.33
606.508	50.52
606.701	50.63
606.894	50.62
607.086	50.77
607.279	50.96
607.471	50.95
607.664	51.17
607.857	51.17
608.049	51.13
608.242	51.04
608.434	50.92
608.627	50.86
608.819	50.71
609.012	50.82
609.204	50.88
609.397	50.89
609.589	50.86
609.782	50.77
609.974	50.85
610.166	50.76
610.359	50.61
610.551	50.93
610.743	51.08
610.936	51.18
611.128	51.19
611.32	51.17
611.513	51.11
611.705	51.1
611.897	51.05
612.09	51.18
612.282	51.17
612.474	51.36
612.666	51.15
612.858	51.03
613.051	50.93
613.243	50.85
613.435	50.78
613.627	50.73
613.819	50.89
614.011	51.13
614.203	50.88
614.395	50.99
614.588	51.12
614.78	51.25
614.972	51.21
615.164	51.32
615.356	51.3
615.548	51.21
615.74	51.11
615.932	51.13
616.124	50.75
616.315	50.89
616.507	50.89
616.699	50.73
616.891	50.88
617.083	51.01
617.275	51.09
617.467	51.07
617.659	51.17
617.85	51.29
618.042	51.27
618.234	51.49
618.426	51.39
618.618	51.29
618.809	51.26
619.001	51.24
619.193	51.15
619.384	50.99
619.576	51.15
619.768	51.1
619.959	51.32
620.151	51.34
620.343	51.29
620.534	51.36
620.726	51.36
620.917	51.68
621.109	51.54
621.301	51.5
621.492	51.69
621.684	51.56
621.875	51.69
622.067	51.6
622.258	51.56
622.45	51.55
622.641	51.51
622.832	51.52
623.024	51.39
623.215	51.31
623.407	51.43
623.598	51.29
623.789	51.47
623.981	51.21
624.172	51.31
624.363	51.21
624.555	51.35
624.746	51.47
624.937	51.58
625.129	51.53
625.32	51.62
625.511	51.66
625.702	51.63
625.893	51.48
626.085	51.64
626.276	51.54
626.467	51.7
626.658	51.67
626.849	51.58
627.04	51.5
627.231	51.6
627.422	51.64
627.614	51.52
627.805	51.61
627.996	51.82
628.187	51.96
628.378	51.98
628.569	51.85
628.76	51.86
628.951	51.93
629.142	51.96
629.332	51.7
629.523	51.6
629.714	51.6
629.905	51.41
630.096	51.2
630.287	51.07
630.478	51.04
630.669	51.18
630.859	51.47
631.05	51.53
631.241	51.53
631.432	51.65
631.623	51.76
631.813	51.77
632.004	51.87
632.195	51.96
632.385	52.05
632.576	52.21
632.767	52.11
632.957	51.96
633.148	51.99
633.339	51.89
633.529	51.84
633.72	51.88
633.91	51.87
634.101	51.83
634.292	51.86
634.482	51.77
634.673	51.67
634.863	51.66
635.054	51.53
635.244	51.34
635.435	51.59
635.625	51.49
635.815	51.4
636.006	51.4
636.196	51.32
636.387	51.24
636.577	51.15
636.767	51.09
636.958	51.08
637.148	51.14
637.338	51.19
637.529	51.09
637.719	51.24
637.909	51.27
638.099	51.23
638.29	51.64
638.48	51.76
638.67	51.85
638.86	51.93
639.05	51.93
639.241	51.83
639.431	51.86
639.621	51.89
639.811	51.85
640.001	51.58
640.191	51.71
640.381	51.47
640.571	51.29
640.761	51.25
640.951	51.32
641.141	51.3
641.331	51.38
641.521	51.51
641.711	51.4
641.901	51.51
642.091	51.8
642.281	51.7
642.471	51.67
642.661	51.75
642.851	51.93
643.041	51.72
643.231	51.71
643.42	51.53
643.61	51.33
643.8	51.29
643.99	51.3
644.18	51.2
644.369	51.36
644.559	51.43
644.749	51.57
644.939	51.69
645.128	51.76
645.318	52.17
645.508	52.43
645.697	52.56
645.887	52.62
646.076	52.52
646.266	52.82
646.456	52.62
646.645	52.69
646.835	52.73
647.024	52.59
647.214	52.49
647.403	52.04
647.593	51.98
647.782	52.05
647.972	51.98
648.161	52.07
648.351	51.96
648.54	52.06
648.73	52.14
648.919	51.96
649.108	51.98
649.298	52.22
649.487	52.45
649.677	52.47
649.866	52.57
650.055	52.82
650.244	52.8
650.434	52.72
650.623	52.78
650.812	52.69
651.002	52.78
651.191	52.61
651.38	52.52
651.569	52.3
651.758	52.25
651.947	52.02
652.137	51.87
652.326	52.04
652.515	52.02
652.704	52.13
652.893	52.09
653.082	52.13
653.271	52.27
653.46	52.2
653.649	52.45
653.838	52.51
654.027	52.6
654.216	52.48
654.405	52.55
654.594	52.8
654.783	52.51
654.972	52.45
655.161	52.65
655.35	52.88
655.539	53.11
655.728	53.04
655.916	53.02
656.105	53.03
656.294	53.19
656.483	53.05
656.672	52.95
656.86	53.09
657.049	53.21
657.238	52.99
657.427	53.01
657.615	53.07
657.804	53.21
657.993	53.28
658.181	53.34
658.37	53.58
658.559	53.57
658.747	53.38
658.936	53.29
659.125	53.25
659.313	53.28
659.502	53.12
659.69	52.99
659.879	53.04
660.067	52.78
660.256	52.75
660.444	52.52
660.633	52.41
660.821	52.61
661.01	52.75
661.198	52.71
661.387	52.69
661.575	52.7
661.763	52.82
661.952	52.52
662.14	52.55
662.328	52.5
662.517	52.43
662.705	52.45
662.893	52.26
663.082	52.23
663.27	52.37
663.458	52.66
663.646	52.71
663.834	52.64
664.023	52.63
664.211	52.53
664.399	52.56
664.587	52.36
664.775	52.52
664.963	52.78
665.152	52.59
665.34	52.61
665.528	52.34
665.716	52.21
665.904	51.97
666.092	52.04
666.28	52.29
666.468	52.26
666.656	52.56
666.844	52.43
667.032	52.46
667.22	52.73
667.408	52.79
667.596	52.74
667.784	52.93
667.971	53.05
668.159	53.15
668.347	53.08
668.535	53.01
668.723	52.98
668.911	53.14
669.098	52.97
669.286	52.81
669.474	52.84
669.662	52.91
669.849	52.84
670.037	52.93
670.225	53.03
670.413	53.29
670.6	53.3
670.788	53.25
670.976	53.3
671.163	53.31
671.351	53.2
671.538	53.14
671.726	52.91
671.913	52.75
672.101	52.66
672.289	52.4
672.476	52
672.664	52.07
672.851	51.91
673.039	51.81
673.226	51.83
673.413	52.12
673.601	52.2
673.788	52.24
673.976	52.18
674.163	52.14
674.35	52.31
674.538	52.61
674.725	52.6
674.912	52.81
675.1	53.06
675.287	53.28
675.474	53.43
675.662	53.36
675.849	53.81
676.036	53.89
676.223	53.92
676.411	53.99
676.598	53.68
676.785	53.91
676.972	53.84
677.159	53.72
677.346	53.62
677.533	53.64
677.721	53.42
677.908	53.26
678.095	53.33
678.282	53.24
678.469	53.12
678.656	53.43
678.843	53.19
679.03	53.24
679.217	53.34
679.404	53.43
679.591	53.25
679.778	53.35
679.964	53.32
680.151	53.16
680.338	53.34
680.525	53.69
680.712	53.45
680.899	53.44
681.086	53.31
681.272	52.95
681.459	53
681.646	53.06
681.833	52.91
682.02	52.76
682.206	52.71
682.393	52.52
682.58	52.12
682.766	52.36
682.953	52.36
683.14	52.18
683.326	52.71
683.513	52.65
683.7	52.64
683.886	52.91
684.073	52.72
684.259	52.92
684.446	53.32
684.632	53.16
684.819	53.13
685.005	53
685.192	53.33
685.378	53.07
685.565	52.89
685.751	52.78
685.938	52.57
686.124	52.79
686.31	52.53
686.497	52.34
686.683	52.4
686.87	52.2
687.056	52.45
687.242	52.42
687.429	52.07
687.615	52.09
687.801	52.04
687.987	52.37
688.174	52.64
688.36	53.18
688.546	53.23
688.732	53.33
688.918	53.51
689.105	53.49
689.291	53.35
689.477	53.26
689.663	53.36
689.849	53.56
690.035	53.28
690.221	53.13
690.407	52.67
690.593	52.39
690.779	52.38
690.965	52.17
691.151	52.28
691.337	52.32
691.523	52.57
691.709	52.4
691.895	52.28
692.081	52.31
692.267	52.43
692.453	52.73
692.639	52.96
692.825	52.89
693.011	53.35
693.196	53.21
693.382	53.17
693.568	53.06
693.754	53.17
693.94	53.35
694.125	53.43
694.311	53.37
694.497	53.17
694.682	53.19
694.868	53.4
695.054	53
695.239	53.1
695.425	53.3
695.611	53.51
695.796	53.61
695.982	53.58
696.168	53.61
696.353	53.62
696.539	53.8
696.724	54.14
696.91	54.02
697.095	54.03
697.281	53.81
697.466	53.78
697.652	53.72
697.837	53.41
698.023	53.28
698.208	53.11
698.393	52.91
698.579	52.63
698.764	52.13
698.949	52.06
699.135	52.08
699.32	52.1
699.505	52.1
699.691	52.06
699.876	52.19
700.061	52.04
700.246	52.07
700.432	52.24
700.617	52.48
700.802	52.56
700.987	52.67
701.172	52.35
701.358	52.12
701.543	52.06
701.728	51.69
701.913	51.83
702.098	51.97
702.283	52.01
702.468	51.85
702.653	51.86
702.838	51.98
703.023	51.74
703.208	52.26
703.393	52.84
703.578	52.84
703.763	53.45
703.948	53.55
704.133	53.46
704.318	53.56
704.503	53.73
704.688	53.78
704.873	53.54
705.057	53.8
705.242	53.69
705.427	53.17
705.612	52.88
705.797	52.63
705.981	52.39
706.166	52.71
706.351	53.04
706.536	53
706.72	52.85
706.905	52.95
707.09	53
707.274	53.19
707.459	53.5
707.644	53.73
707.828	53.8
708.013	53.57
708.197	53.48
708.382	52.91
708.567	52.63
708.751	52.79
708.936	53.15
709.12	52.92
709.305	52.53
709.489	52.34
709.673	52.26
709.858	52.3
710.042	52.66
710.227	52.63
710.411	52.96
710.596	53.19
710.78	52.97
710.964	53.09
711.149	52.89
711.333	52.88
711.517	52.88
711.702	52.65
711.886	52.51
712.07	52.2
712.254	51.77
712.438	51.73
712.623	51.66
712.807	51.53
712.991	50.87
713.175	51.43
713.359	51.66
713.544	51.88
713.728	52.14
713.912	52.18
714.096	52.32
714.28	52.57
714.464	52.74
714.648	52.78
714.832	52.81
715.016	52.82
715.2	52.48
715.384	52.61
715.568	52.4
715.752	52.37
715.936	52.56
716.12	52.53
716.304	52.79
716.488	52.38
716.671	52.43
716.855	52.96
717.039	53.29
717.223	53.39
717.407	53.35
717.59	53.28
717.774	53.48
717.958	53.22
718.142	53.39
718.325	53.13
718.509	53.84
718.693	54.04
718.877	53.75
719.06	53.36
719.244	53.63
719.428	53.54
719.611	53.86
719.795	53.76
719.978	53.65
720.162	53.63
720.345	54.01
720.529	53.37
720.713	52.86
720.896	52.74
721.08	52.96
721.263	53.16
721.446	53.09
721.63	52.81
721.813	52.69
721.997	52.86
722.18	52.6
722.364	52.26
722.547	52.32
722.73	52.61
722.914	52.73
723.097	52.49
723.28	52.02
723.464	52.03
723.647	52.26
723.83	51.9
724.013	52.12
724.197	52.28
724.38	52.03
724.563	52.26
724.746	52.15
724.929	52.15
725.112	52.52
725.296	52.6
725.479	52.53
725.662	52.69
725.845	53.56
726.028	53.29
726.211	53.18
726.394	53.7
726.577	53.21
726.76	53.22
726.943	53.56
727.126	53.33
727.309	53.53
727.492	53.9
727.675	54.05
727.858	53.75
728.041	53.68
728.224	53.88
728.407	53.22
728.589	53.49
728.772	53.53
728.955	53.04
729.138	52.65
729.321	52.4
729.503	52
729.686	51.98
729.869	52
730.052	52.41
730.234	52.2
730.417	52.37
730.6	52.4
730.782	52.26
730.965	52.49
731.148	53.15
731.33	53.24
731.513	53.3
731.695	52.69
731.878	52.57
732.061	52.43
732.243	52.98
732.426	53.59
732.608	53.42
732.791	53.34
732.973	52.81
733.156	52.83
733.338	52.83
733.52	52.9
733.703	52.97
733.885	52.87
734.068	52.89
734.25	52.16
734.432	50.71
734.615	50.66
734.797	50.53
734.979	50.2
735.162	50.17
735.344	49.86
735.526	49.86
735.708	50.09
735.891	49.99
736.073	49.8
736.255	50.26
736.437	50.87
736.619	50.91
736.802	51.15
736.984	51.94
737.166	51.2
737.348	51.09
737.53	50.63
737.712	50.49
737.894	50.72
738.076	50.64
738.258	50.77
738.44	50.69
738.622	50.73
738.804	50.77
738.986	50.89
739.168	51.93
739.35	52.18
739.532	52.48
739.714	52.88
739.896	52.35
740.078	52.62
740.259	52.78
740.441	53.52
740.623	53.71
740.805	53.92
740.987	53.39
741.168	52.67
741.35	52.67
741.532	52.51
741.714	52.28
741.895	53.06
742.077	52.59
742.259	51.2
742.44	50.85
742.622	50.58
742.804	50.51
742.985	50.65
743.167	50.7
743.348	50.39
743.53	51.06
743.711	51.09
743.893	50.51
744.075	50.77
744.256	51.35
744.438	51.31
744.619	51.55
744.8	51.02
744.982	50.69
745.163	50.74
745.345	50.85
745.526	49.98
745.707	50.41
745.889	51.4
746.07	51.27
746.252	51.59
746.433	51.88
746.614	52.55
746.795	53.02
746.977	53.85
747.158	54.52
747.339	54.72
747.52	55.3
747.702	54.84
747.883	53.89
748.064	53.65
748.245	54.38
748.426	54.66
748.607	54.05
748.788	54.39
748.97	54.19
749.151	53.96
749.332	54.45
749.513	54.54
749.694	54.3
749.875	54.86
750.056	54.49
750.237	53.49
750.418	52.7
750.599	52.6
750.78	52.54
750.96	52.09
751.141	51.82
751.322	52.15
751.503	51.78
751.684	51.79
751.865	51.32
752.046	52.17
752.226	51.85
752.407	51.91
752.588	52.01
752.769	52.05
752.949	52.23
753.13	52.87
753.311	52.97
753.492	53.3
753.672	54.12
753.853	54.86
754.034	54.17
754.214	55.48
754.395	55.93
754.575	56.27
754.756	56.34
754.937	57.15
755.117	56.33
755.298	55.01
755.478	53.95
755.659	53.85
755.839	53.57
756.02	54.66
756.2	53.79
756.381	52.9
756.561	53.06
756.741	52.68
756.922	51.58
757.102	51.43
757.283	52.22
757.463	52.84
757.643	52.07
757.823	51.37
758.004	50.64
758.184	51.04
758.364	51.48
758.545	50.21
758.725	50.05
758.905	50.6
759.085	50.72
759.265	51
759.446	50.57
759.626	50.68
759.806	51.19
759.986	51.35
760.166	50.8
760.346	51.62
760.526	52.67
760.706	53.04
760.886	52.9
761.066	53.23
761.246	52.67
761.426	52.49
761.606	52.63
761.786	52.85
761.966	53.5
762.146	53.18
762.326	52.65
762.506	52.7
762.686	52.2
762.866	52.32
763.046	52
763.225	52.09
763.405	53.05
763.585	52.99
763.765	52.42
763.945	51.47
764.124	51.67
764.304	51.48
764.484	51.49
764.664	51.6
764.843	51.58
765.023	51.84
765.203	51.74
765.382	51.05
765.562	51.03
765.741	51.45
765.921	52.3
766.101	52.73
766.28	52.89
766.46	52.27
766.639	52.6
766.819	52.27
766.998	52.62
767.178	52.17
767.357	51.99
767.537	52.01
767.716	51.73
767.896	51.15
768.075	50.88
768.254	51.04
768.434	51.1
768.613	51.23
768.792	51.61
768.972	51.41
769.151	51.64
769.33	52.85
769.51	53.13
769.689	53.63
769.868	54.08
770.047	54.63
770.226	54.35
770.406	54.47
770.585	54.96
770.764	54.67
770.943	54.14
771.122	53.97
771.301	53.09
771.48	53.1
771.66	53.01
771.839	53.58
772.018	53
772.197	53.21
772.376	53.26
772.555	52.99
772.734	53.13
772.913	53.07
773.092	53.55
773.271	53.02
773.449	52.63
773.628	52.29
773.807	51.8
773.986	51.61
774.165	51.6
774.344	51.67
774.523	50.89
774.701	51.25
774.88	50.89
775.059	50.93
775.238	51.35
775.417	51.85
775.595	52.52
775.774	52.15
775.953	52.3
776.131	52.76
776.31	52.8
776.489	53.19
776.667	52.46
776.846	52.66
777.025	52.52
777.203	52.91
777.382	53.76
777.56	53.53
777.739	52.93
777.917	52.89
778.096	52.24
778.274	52.34
778.453	51.84
778.631	52.34
778.81	52.06
778.988	52.97
779.166	52.81
779.345	51.74
779.523	51.12
779.702	51.97
779.88	52.01
780.058	51.45
780.237	51.26
780.415	51.57
780.593	51.71
780.771	52.33
780.95	51.75
781.128	51.07
781.306	50.45
781.484	50.28
781.662	49.47
781.841	49.68
782.019	50.97
782.197	50.06
782.375	49.46
782.553	48.97
782.731	48.83
782.909	47.42
783.087	48.38
783.265	48.43
783.443	50.15
783.621	50.34
783.799	49.9
783.977	49.96
784.155	51.01
784.333	52.5
784.511	53.41
784.689	53.77
784.867	55.48
785.045	55.01
785.223	54.64
785.4	53.31
785.578	53.48
785.756	53.51
785.934	53.04
786.112	53.23
786.289	51.9
786.467	51.97
786.645	52.16
786.823	51.7
787	50.89
787.178	51.12
787.356	50.62
787.533	50.71
787.711	50.51
787.889	51.01
788.066	51.04
788.244	51.61
788.421	50.51
788.599	50.29
788.776	50.05
788.954	50.73
789.131	50.88
789.309	51.28
789.486	50.78
789.664	51.51
789.841	50.95
790.019	50.63
790.196	50.77
790.373	51.73
790.551	52.12
790.728	52.44
790.906	52.32
791.083	52.52
791.26	52.57
791.437	53.05
791.615	53.3
791.792	53.34
791.969	53.13
792.146	52.81
792.324	51.23
792.501	50.48
792.678	51.27
792.855	52.08
793.032	52.25
793.209	53.34
793.387	53.51
793.564	54.02
793.741	53.98
793.918	53.98
794.095	54.6
794.272	55.49
794.449	56.3
794.626	55.15
794.803	54.51
794.98	53.77
795.157	53.43
795.334	53.17
795.511	52.95
795.688	53.01
795.864	53.01
796.041	52.63
796.218	53.31
796.395	52.22
796.572	52.56
796.749	52.72
796.925	53.53
797.102	53.62
797.279	54.72
797.456	54.45
797.632	54.22
797.809	54.43
797.986	54.66
798.162	54.13
798.339	55.43
798.516	55.45
798.692	56.18
798.869	55.56
799.046	54.64
799.222	53.69
799.399	53.37
799.575	53.75
799.752	53.07
799.928	53.03
800.105	52.36
800.281	51.12
800.458	50.04
800.634	48.96
800.811	49.71
800.987	50.48
801.163	50.88
801.34	50.91
801.516	50.26
801.692	50.58
801.869	49.75
802.045	50.59
802.221	51.27
802.398	51.88
802.574	52.46
802.75	51.48
802.926	51.04
803.103	51.03
803.279	50.56
803.455	50.93
803.631	51.17
803.807	51.49
803.983	50.38
804.16	49.64
804.336	50.1
804.512	50.15
804.688	51.83
804.864	51.96
805.04	50.82
805.216	51.17
805.392	51.62
805.568	52.13
805.744	51.87
805.92	52.53
806.096	53.36
806.272	53.89
806.448	53.55
806.623	52.17
806.799	52.58
806.975	54.06
807.151	53.42
807.327	51.96
807.503	51.29
807.678	51.62
807.854	52.19
808.03	53.27
808.206	53.38
808.381	53.16
808.557	52.34
808.733	52.08
808.908	51.64
809.084	51.81
809.26	52.85
809.435	52.16
809.611	53.24
809.787	52.3
809.962	50.72
810.138	49.61
810.313	50.33
810.489	51.04
810.664	51.57
810.84	51.24
811.015	50.78
811.191	50.88
811.366	51.43
811.542	50.66
811.717	50.67
811.892	51.46
812.068	51.76
812.243	51.88
812.419	52.93
812.594	52.08
812.769	52.53
812.944	52.95
813.12	54.01
813.295	55.07
813.47	55.04
813.645	56.3
813.821	55.36
813.996	55.5
814.171	54.41
814.346	55.79
814.521	55.74
814.697	55.24
814.872	55.46
815.047	54.05
815.222	53.47
815.397	52.44
815.572	50.96
815.747	50.87
815.922	51.09
816.097	51.4
816.272	49.75
816.447	49.39
816.622	49.88
816.797	50.52
816.972	51.73
817.147	51.6
817.322	52.02
817.496	51.88
817.671	52.5
817.846	52.45
818.021	52.49
818.196	52.72
818.371	52.68
818.545	51.75
818.72	50.4
818.895	50.11
819.069	50.03
819.244	51.51
819.419	52.3
819.594	52
819.768	51.26
819.943	52.8
820.117	52.74
820.292	52.66
820.467	52.9
820.641	52.93
820.816	53.16
820.99	53.21
821.165	52.7
821.339	52.43
821.514	52.57
821.688	53
821.863	52.29
822.037	52.24
822.212	52.27
822.386	51.86
822.56	51.69
822.735	51.16
822.909	50.99
823.084	50.85
823.258	50.89
823.432	50.6
823.606	50.18
823.781	50.17
823.955	50.05
824.129	49.86
824.303	50.29
824.478	50.52
824.652	50.59
824.826	50.49
825	50.58
825.174	50.47
825.348	50.3
825.523	50.1
825.697	50.14
825.871	50.3
826.045	50.1
826.219	50.25
826.393	50.05
826.567	50.36
826.741	50.64
826.915	50.53
827.089	50.78
827.263	50.71
827.437	50.88
827.611	50.66
827.784	50.04
827.958	50.04
828.132	49.46
828.306	49.45
828.48	49.73
828.654	48.89
828.827	48.61
829.001	48.54
829.175	48.64
829.349	48.78
829.522	48.25
829.696	48.76
829.87	49.54
830.044	50.48
830.217	50.29
830.391	50.1
830.565	51.29
830.738	52.53
830.912	52.59
831.085	52.45
831.259	53.48
831.432	54.24
831.606	55.02
831.779	54.19
831.953	54.17
832.126	56.05
832.3	55.56
832.473	55.44
832.647	54.08
832.82	52.67
832.994	53.07
833.167	52.17
833.34	52.31
833.514	51.84
833.687	52.12
833.86	51.58
834.034	51.06
834.207	50.39
834.38	49.99
834.553	50.6
834.727	50.97
834.9	50.79
835.073	51.07
835.246	51.18
835.419	50.57
835.593	51.13
835.766	50.86
835.939	50.87
836.112	51.93
836.285	52.37
836.458	52.45
836.631	52.08
836.804	52.1
836.977	51.82
837.15	52.46
837.323	52.62
837.496	51.19
837.669	51.55
837.842	51.66
838.015	51.47
838.188	50.11
838.361	48.05
838.533	49.85
838.706	50.3
838.879	48.91
839.052	48.31
839.225	48.15
839.398	49.07
839.57	50.08
839.743	50.12
839.916	48.33
840.088	49.98
840.261	49.78
840.434	49.59
840.607	48.88
840.779	50.85
840.952	50.41
841.124	50.88
841.297	50.36
841.47	50.39
841.642	49.5
841.815	50.36
841.987	48.91
842.16	50.45
842.332	49.77
842.505	49.89
842.677	50.78
842.85	51.34
843.022	50.7
843.194	49.95
843.367	48.21
843.539	47.4
843.712	47.56
843.884	49.74
844.056	48.72
844.229	48.53
844.401	49.24
844.573	49.02
844.745	48.22
844.918	49.14
845.09	47.97
845.262	50.02
845.434	50.14
845.606	53.75
845.779	53.86
845.951	53.55
846.123	54.67
846.295	54.62
846.467	53.19
846.639	56.66
846.811	57.69
846.983	59.25
847.155	57.79
847.327	59.85
847.499	57.55
847.671	57.29
847.843	60
848.015	56.06
848.187	58.28
848.359	58.22
848.531	55.07
848.703	56.14
848.875	58.7
849.047	59.79
849.218	58.64
849.39	56.91
849.562	55.46
849.734	55.28
849.905	58.98
850.077	59.11
850.249	59.27
850.421	57.79
850.592	54
850.764	53.25
850.936	49.98
851.107	48.36
851.279	51.56
851.451	50.4
851.622	47.57
851.794	48.35
851.965	47.93
852.137	48.56
852.308	49.19
852.48	55.14
852.651	52.27
852.823	53.73
852.994	54.98
853.166	55.12
853.337	57.06
853.509	58.09
853.68	58.84
853.851	55.21
854.023	57.05
854.194	58.82
854.365	57.09
854.537	58.08
854.708	62.44
854.879	61.59
855.05	60.78
855.222	61.04
855.393	62.53
855.564	61.97
855.735	61.07
855.906	58.57
856.078	57.73
856.249	57.17
856.42	57.51
856.591	53.54
856.762	56.54
856.933	57.69
857.104	56.5
857.275	54.98
857.446	54.35
857.617	57.84
857.788	58.19
857.959	57.7
858.13	58.01
858.301	59.25
858.472	60.07
858.643	57.26
858.814	56.95
858.985	59.11
859.155	59.44
859.326	59.26
859.497	59.11
859.668	57.42
859.839	59.73
860.009	59.21
860.18	58.48
860.351	58.93
860.522	61.22
860.692	60.42
860.863	54.9
861.034	59.67
861.204	59.32
861.375	57.02
861.546	57.52
861.716	59.32
861.887	60.25
862.057	55.48
862.228	53.58
862.398	55.02
862.569	55.59
862.739	58.31
862.91	57.06
863.08	55.6
863.251	54.93
863.421	57.5
863.592	53.32
863.762	49.86
863.932	55.95
864.103	55.78
864.273	56.31
864.443	55.44
864.614	54.6
864.784	54.56
864.954	56.37
865.125	60.42
865.295	54.84
865.465	52.1
865.635	48.55
865.805	49.47
865.976	45.71
866.146	43.29
866.316	44.37
866.486	46.07
866.656	46.31
866.826	50.47
866.996	49.76
867.166	54.04
867.336	57.09
867.506	65.59
867.676	63.98
867.846	66.37
868.016	65.53
868.186	67.14
868.356	69.34
868.526	65.48
868.696	64.47
868.866	66.84
869.036	66.1
869.206	64.08
869.376	63.1
869.545	65.59
869.715	69.84
869.885	70.26
870.055	62.61
870.224	65.45
870.394	66.74
870.564	67.61
870.734	62.79
870.903	62.15
871.073	68.22
871.243	65.58
871.412	63.42
871.582	60.9
871.751	64.18
871.921	72.21
872.091	63.88
872.26	57.61
872.43	54.35
872.599	51.96
872.769	49.71
872.938	43.37
873.108	48.43
873.277	47.55
873.446	50.02
873.616	49.72
873.785	50.98
873.955	53
874.124	57.02
874.293	56.25
874.463	58.06
874.632	59.99
874.801	62.61
874.971	59.1
875.14	62.4
875.309	63.2
875.478	60.47
875.647	57
875.817	58.32
875.986	60.79
876.155	62.83
876.324	63.54
876.493	63.27
876.662	60.81
876.831	62.59
877	59.48
877.17	55.68
877.339	55.47
877.508	56
877.677	56.23
877.846	52.18
878.015	50.06
878.184	48.19
878.352	48.43
878.521	50.48
878.69	49.73
878.859	50.31
879.028	52.64
879.197	54.66
879.366	52.3
879.534	52.73
879.703	53.93
879.872	54.3
880.041	55.58
880.21	55.58
880.378	56
880.547	54.61
880.716	52.36
880.884	51.91
881.053	51.3
881.222	51.29
881.39	50.58
881.559	50.5
881.727	49.88
881.896	48.69
882.065	48.78
882.233	48.31
882.402	48.26
882.57	49
882.739	49.23
882.907	49.54
883.076	49.35
883.244	48.51
883.412	48.92
883.581	49.23
883.749	50.56
883.918	50.5
884.086	50.4
884.254	51.48
884.423	50.91
884.591	50.3
884.759	49.47
884.927	50.71
885.096	52.18
885.264	52.28
885.432	52.21
885.6	51.5
885.769	50.51
885.937	50.6
886.105	49.92
886.273	50.37
886.441	49.99
886.609	51.85
886.777	49.46
886.945	47.83
887.113	45.5
887.281	46.73
887.449	45.91
887.617	44.59
887.785	45.04
887.953	45.5
888.121	46
888.289	45.94
888.457	45.03
888.625	43.26
888.793	43.63
888.961	45.34
889.129	46.56
889.296	48.5
889.464	52.51
889.632	50.84
889.8	47.97
889.967	47.23
890.135	49.37
