Data from 2938488_Reflection_3.txt Node
Date: Wed Jun 17 00:52:48 EDT 2015
User: robert
Spectrometer: USB4E03002
Autoset integration time: false
Trigger mode: 4
Integration Time (sec): 1.000000E-1
Scans to average: 10
Electric dark correction enabled: true
Nonlinearity correction enabled: false
Boxcar width: 5
Stray light correction enabled: false
XAxis mode: Wavelengths
Stop averaging: false
Number of Pixels in Spectrum: 3648
>>>>>Begin Spectral Data<<<<<
177.575	-89.36
177.794	231.44
178.014	113.37
178.233	30.3
178.452	68.5
178.672	198.34
178.891	92.05
179.11	41.29
179.33	44.68
179.549	40.81
179.768	-44.75
179.987	13.81
180.207	32.17
180.426	-25.75
180.645	0.03
180.864	-135
181.084	-19.68
181.303	-35.89
181.522	9.28
181.741	20.66
181.96	12.03
182.179	150.95
182.398	224.67
182.618	142.06
182.837	-3.81
183.056	-48.22
183.275	-129.56
183.494	-0.08
183.713	7.04
183.932	149.39
184.151	-31.99
184.37	204.36
184.589	330.99
184.808	-395.94
185.027	-3.77
185.246	-2738.1
185.465	618.58
185.684	231.93
185.903	181.92
186.122	133.88
186.341	111.69
186.56	128.19
186.779	236.62
186.998	352.02
187.216	429.38
187.435	474.28
187.654	1035
187.873	-590.58
188.092	-794.04
188.311	4525.88
188.53	-580.38
188.748	-29.7
188.967	-110.52
189.186	-463.81
189.405	-1093.75
189.623	2713.14
189.842	-142.82
190.061	-954.43
190.28	207.16
190.498	-408.68
190.717	-155.33
190.936	148.66
191.154	417.67
191.373	268.56
191.592	440.25
191.81	491.33
192.029	291.58
192.248	361.38
192.466	321.37
192.685	608.4
192.904	5775.81
193.122	865.37
193.341	-87.46
193.559	-165.12
193.778	-575.95
193.996	-286.57
194.215	-220.75
194.433	-120.45
194.652	-166.98
194.87	-114.37
195.089	-47.26
195.307	-470.29
195.526	1710.04
195.744	441.36
195.963	231.05
196.181	283.68
196.399	269.23
196.618	196.4
196.836	237.28
197.055	269.03
197.273	203.11
197.491	180.9
197.71	215.09
197.928	489.9
198.146	-2345.89
198.365	-526.27
198.583	-1031.89
198.801	616.34
199.019	738.81
199.238	-430.79
199.456	4765.28
199.674	1091.13
199.892	-153.07
200.111	-238.75
200.329	-96.15
200.547	-169.96
200.765	-82.25
200.983	-387.1
201.202	-102.6
201.42	-181.17
201.638	-14378.13
201.856	-320.06
202.074	-66.98
202.292	-78.28
202.51	-55.19
202.728	779.04
202.946	887.56
203.165	-2089.87
203.383	-475.46
203.601	-748.84
203.819	-860.76
204.037	-490.34
204.255	714.68
204.473	168.53
204.691	147.44
204.909	129.14
205.127	376.97
205.345	-257.89
205.562	-1201.71
205.78	-54.56
205.998	-348.99
206.216	-564.91
206.434	-115.33
206.652	-73.13
206.87	-15.47
207.088	-68.96
207.306	-172.27
207.523	-71.94
207.741	213.82
207.959	-51.62
208.177	863.02
208.395	128.92
208.612	109.81
208.83	-15.55
209.048	15.41
209.266	18.58
209.483	18.96
209.701	-38.63
209.919	16.45
210.136	-12.92
210.354	-6.95
210.572	-8.93
210.79	-1.57
211.007	-9.83
211.225	15.84
211.442	18.91
211.66	23.18
211.878	14.93
212.095	21.08
212.313	17.14
212.53	45.16
212.748	35.64
212.966	59.11
213.183	76.4
213.401	86.98
213.618	112.81
213.836	92.96
214.053	85.54
214.271	106.78
214.488	105.11
214.705	121.93
214.923	99.3
215.14	118.49
215.358	101.36
215.575	78.93
215.793	66.47
216.01	48
216.227	65.03
216.445	82.86
216.662	78.83
216.879	70.22
217.097	40.46
217.314	48.25
217.531	5.04
217.749	15.74
217.966	51.26
218.183	62.89
218.4	59.27
218.618	62.95
218.835	70.6
219.052	61.57
219.269	57.03
219.487	71.17
219.704	70.68
219.921	84.67
220.138	86.4
220.355	67.96
220.572	70.64
220.79	66.55
221.007	51.93
221.224	37.15
221.441	48.81
221.658	57.03
221.875	58.28
222.092	66.83
222.309	62.43
222.526	49.69
222.743	49.41
222.96	46.25
223.177	56.45
223.394	43.29
223.611	43.96
223.828	29.97
224.045	24.1
224.262	21.42
224.479	12.86
224.696	10.35
224.913	13.06
225.13	13.41
225.347	12.45
225.564	9.42
225.781	12.75
225.997	13.59
226.214	16.75
226.431	15.92
226.648	16.37
226.865	16.07
227.082	15.85
227.298	15.11
227.515	13.93
227.732	13.9
227.949	15.47
228.165	15.4
228.382	15.47
228.599	15.09
228.816	15.48
229.032	15.78
229.249	15.87
229.466	15.61
229.682	16.94
229.899	18.24
230.116	17.72
230.332	17.18
230.549	19.46
230.765	18.42
230.982	16.83
231.199	17.36
231.415	16.29
231.632	16.53
231.848	17.52
232.065	19.8
232.281	20.04
232.498	18.52
232.714	15.79
232.931	15.38
233.147	16.31
233.364	19.14
233.58	18.43
233.797	17.87
234.013	18.1
234.23	15.62
234.446	10.85
234.662	10.25
234.879	14.2
235.095	14.62
235.312	13.99
235.528	13.35
235.744	7.61
235.961	7.01
236.177	7.27
236.393	5
236.61	6.71
236.826	6.62
237.042	6.44
237.258	5.56
237.475	9.49
237.691	8.28
237.907	8.34
238.123	11.29
238.339	12.81
238.556	13.83
238.772	16.12
238.988	15.51
239.204	15.83
239.42	15.71
239.636	15.49
239.853	14.99
240.069	15.83
240.285	15.19
240.501	14.58
240.717	13.51
240.933	13.06
241.149	12.3
241.365	11.66
241.581	10.9
241.797	10.31
242.013	9.67
242.229	8.5
242.445	7.55
242.661	7.69
242.877	8.09
243.093	8.16
243.309	8.2
243.525	8.63
243.741	9.22
243.957	10.1
244.173	10.48
244.388	10.98
244.604	11.08
244.82	10.48
245.036	10.37
245.252	10.67
245.468	11.16
245.683	10.89
245.899	10.41
246.115	10.56
246.331	10.23
246.547	10.05
246.762	10.3
246.978	10.32
247.194	10.71
247.409	10.85
247.625	10.39
247.841	10.35
248.057	11.12
248.272	12.09
248.488	12.04
248.703	12.82
248.919	12.29
249.135	10.98
249.35	10.73
249.566	11.19
249.782	10.83
249.997	10.63
250.213	9.93
250.428	8.99
250.644	8.46
250.859	8.69
251.075	8.38
251.29	8.93
251.506	8.29
251.721	8.23
251.937	8.41
252.152	9.39
252.368	9.9
252.583	10.8
252.798	12.46
253.014	12.57
253.229	12.58
253.445	12.87
253.66	13.32
253.875	15.14
254.091	15.93
254.306	14.03
254.521	12.86
254.737	11.38
254.952	9.55
255.167	8.78
255.383	8.34
255.598	8.59
255.813	9.31
256.028	9.51
256.244	9.43
256.459	8.34
256.674	8.2
256.889	7.98
257.104	7.78
257.32	8.11
257.535	7.77
257.75	7.79
257.965	7.29
258.18	6.85
258.395	6.81
258.61	6.87
258.826	7.15
259.041	7.19
259.256	7.05
259.471	7.34
259.686	7.06
259.901	6.96
260.116	7.05
260.331	7.29
260.546	7.49
260.761	7.26
260.976	6.88
261.191	6.02
261.406	6.49
261.621	7.53
261.836	6.99
262.05	7.72
262.265	8.42
262.48	9.5
262.695	9.29
262.91	8.62
263.125	7.99
263.34	7.3
263.555	8.28
263.769	8
263.984	6.96
264.199	7.82
264.414	7.51
264.629	7.63
264.843	6.39
265.058	6.79
265.273	7.76
265.488	8.09
265.702	8.74
265.917	8.33
266.132	8.63
266.346	8.66
266.561	8.28
266.776	8.79
266.99	8.26
267.205	8.6
267.42	8.29
267.634	8
267.849	8.39
268.063	8.56
268.278	9.11
268.492	8.61
268.707	8.63
268.922	8.83
269.136	8.2
269.351	8.47
269.565	8.25
269.78	8.05
269.994	8.14
270.209	8.1
270.423	7.87
270.637	7.84
270.852	7.76
271.066	7.93
271.281	8.03
271.495	8.05
271.709	7.78
271.924	7.99
272.138	8.26
272.353	7.86
272.567	7.57
272.781	7.65
272.996	7.42
273.21	7.91
273.424	7.43
273.638	7.17
273.853	7.51
274.067	7.21
274.281	6.99
274.495	6.91
274.71	7.41
274.924	7.87
275.138	7.94
275.352	7.94
275.566	7.7
275.781	8.15
275.995	8.07
276.209	7.85
276.423	8.1
276.637	7.68
276.851	7.93
277.065	7.36
277.279	6.62
277.493	6.79
277.707	7.04
277.921	6.88
278.135	6.58
278.349	6.54
278.563	6.65
278.777	6.48
278.991	7.01
279.205	7.04
279.419	7.54
279.633	8.03
279.847	7.57
280.061	7.5
280.275	7.61
280.489	7.83
280.703	7.74
280.917	7.46
281.131	7.86
281.344	7.98
281.558	7.86
281.772	7.32
281.986	7.33
282.2	7.44
282.414	7.43
282.627	6.86
282.841	6.51
283.055	6.62
283.269	6.84
283.482	6.58
283.696	6.27
283.91	6.39
284.123	6.51
284.337	6.24
284.551	6.35
284.764	6.35
284.978	6.74
285.192	6.64
285.405	6.6
285.619	6.7
285.833	7.13
286.046	7.19
286.26	7.27
286.473	7.17
286.687	7.37
286.9	7.76
287.114	7.73
287.327	7.63
287.541	7.88
287.754	8.04
287.968	7.43
288.181	6.78
288.395	6.87
288.608	6.47
288.822	6.93
289.035	7
289.248	6.24
289.462	6.17
289.675	6.33
289.889	6.61
290.102	6.85
290.315	7.57
290.529	7.97
290.742	7.66
290.955	8.19
291.169	8.06
291.382	8.02
291.595	8.43
291.808	8.27
292.022	7.91
292.235	7.57
292.448	6.79
292.661	6.52
292.875	6.74
293.088	7.3
293.301	6.91
293.514	6.58
293.727	6.26
293.94	5.87
294.153	6.18
294.367	6.62
294.58	6.94
294.793	7.16
295.006	6.77
295.219	6.27
295.432	6.17
295.645	5.98
295.858	5.96
296.071	6.07
296.284	6.55
296.497	6.29
296.71	6.23
296.923	6.18
297.136	5.95
297.349	6.36
297.562	6.52
297.775	6.31
297.988	6.71
298.201	7.2
298.414	7.1
298.626	6.97
298.839	6.95
299.052	6.78
299.265	6.45
299.478	6.89
299.691	6.7
299.903	6.58
300.116	6.48
300.329	6.24
300.542	5.99
300.755	6.05
300.967	5.97
301.18	5.94
301.393	6.06
301.605	6.21
301.818	6.1
302.031	6.4
302.243	6.62
302.456	6.92
302.669	6.87
302.881	7.09
303.094	7.38
303.307	7.25
303.519	7.54
303.732	7.76
303.944	7.68
304.157	7.86
304.37	7.68
304.582	7.78
304.795	7.55
305.007	7.17
305.22	7.1
305.432	7.1
305.645	7.09
305.857	7.14
306.069	6.51
306.282	6.2
306.494	5.98
306.707	6.09
306.919	6.26
307.132	6.16
307.344	6.37
307.556	6.12
307.769	6.08
307.981	6.03
308.193	6.18
308.406	6.55
308.618	6.84
308.83	6.8
309.043	6.68
309.255	6.21
309.467	6.36
309.679	6.49
309.892	6.39
310.104	6.44
310.316	6.51
310.528	6.43
310.74	6.24
310.953	6.44
311.165	6.56
311.377	6.43
311.589	7.07
311.801	7.42
312.013	7.74
312.225	7.93
312.437	7.89
312.649	7.77
312.862	8
313.074	7.91
313.286	7.03
313.498	6.92
313.71	7.26
313.922	6.9
314.134	6.71
314.346	6.24
314.558	6.3
314.77	6.44
314.982	6.66
315.193	6.58
315.405	6.47
315.617	7.56
315.829	7.77
316.041	8.09
316.253	7.83
316.465	8.48
316.677	8.77
316.888	8.6
317.1	8.43
317.312	8.15
317.524	7.67
317.736	7.91
317.947	7.53
318.159	7.35
318.371	7.19
318.583	7.57
318.794	6.71
319.006	6.68
319.218	6.76
319.43	6.7
319.641	7.29
319.853	7.36
320.064	7.11
320.276	6.84
320.488	7.11
320.699	6.69
320.911	6.66
321.123	7.08
321.334	6.92
321.546	6.62
321.757	6.33
321.969	6.3
322.18	6.3
322.392	6.69
322.603	7.3
322.815	7.34
323.026	7.13
323.238	7.34
323.449	7.09
323.661	7.4
323.872	8.07
324.083	8.57
324.295	8.26
324.506	7.91
324.718	7.4
324.929	7.05
325.14	7.02
325.352	7.07
325.563	6.69
325.774	6.5
325.986	6.84
326.197	6.65
326.408	6.31
326.62	6.78
326.831	7.69
327.042	8.29
327.253	8.42
327.464	8.47
327.676	8.85
327.887	8.87
328.098	8.86
328.309	8.57
328.52	8.36
328.732	8.43
328.943	8.12
329.154	7.7
329.365	7.39
329.576	6.8
329.787	6.63
329.998	6.55
330.209	6.68
330.42	7.21
330.631	7.24
330.842	7.43
331.053	7.35
331.264	7.22
331.475	7.26
331.686	7.01
331.897	7.54
332.108	7.28
332.319	6.95
332.53	7.12
332.741	6.82
332.952	6.33
333.163	6.69
333.374	6.44
333.585	6.76
333.795	6.36
334.006	6.38
334.217	5.89
334.428	5.97
334.639	6.41
334.849	6.46
335.06	6.39
335.271	6.81
335.482	6.15
335.692	6.09
335.903	5.79
336.114	6.02
336.325	6.39
336.535	6.91
336.746	7.29
336.957	6.58
337.167	5.84
337.378	5.59
337.589	5.59
337.799	5.99
338.01	6.55
338.22	6.61
338.431	6.32
338.642	6.19
338.852	6.13
339.063	5.62
339.273	6.23
339.484	6.8
339.694	6.84
339.905	7.13
340.115	6.73
340.326	6.31
340.536	6.22
340.746	6.32
340.957	6.06
341.167	5.91
341.378	5.88
341.588	5.77
341.799	5.71
342.009	5.67
342.219	4.96
342.43	4.94
342.64	5.15
342.85	5.04
343.061	5.32
343.271	5.48
343.481	5.16
343.691	5.68
343.902	5.41
344.112	5.45
344.322	5.78
344.532	6.03
344.743	6.11
344.953	6.23
345.163	6.2
345.373	5.89
345.583	5.98
345.793	6.27
346.004	5.79
346.214	6.07
346.424	5.97
346.634	5.82
346.844	5.82
347.054	5.81
347.264	5.07
347.474	5.19
347.684	5.49
347.894	5.35
348.104	5.41
348.314	5.65
348.524	5.54
348.734	5.5
348.944	5.62
349.154	5.63
349.364	5.51
349.574	6
349.784	5.83
349.994	5.47
350.204	5.58
350.413	5.82
350.623	5.65
350.833	5.85
351.043	5.8
351.253	5.45
351.463	5.53
351.672	5.64
351.882	5.61
352.092	5.91
352.302	6.27
352.511	6.34
352.721	6.25
352.931	6.03
353.141	5.59
353.35	5.91
353.56	5.91
353.77	5.75
353.979	5.75
354.189	5.65
354.399	5.25
354.608	4.89
354.818	5.05
355.027	4.8
355.237	5.09
355.447	5.48
355.656	5.28
355.866	5.38
356.075	5.27
356.285	5.26
356.494	5.34
356.704	5.61
356.913	5.65
357.123	5.26
357.332	5.36
357.542	5.13
357.751	4.95
357.96	4.83
358.17	4.92
358.379	4.93
358.589	5.1
358.798	5.14
359.007	4.92
359.217	5.02
359.426	5
359.635	4.77
359.845	4.94
360.054	5.16
360.263	5.27
360.472	4.97
360.682	5.1
360.891	4.84
361.1	4.7
361.309	4.99
361.519	5
361.728	5.08
361.937	5.36
362.146	5.36
362.355	5.2
362.564	5.01
362.774	5.1
362.983	4.77
363.192	4.89
363.401	5.06
363.61	4.94
363.819	4.76
364.028	4.78
364.237	4.67
364.446	4.56
364.655	4.71
364.864	5.1
365.073	5.16
365.282	5.26
365.491	5.52
365.7	5.47
365.909	5.27
366.118	5.45
366.327	5.72
366.536	5.57
366.745	5.54
366.954	5.34
367.162	4.96
367.371	4.95
367.58	5.15
367.789	5.08
367.998	4.96
368.207	5.2
368.415	4.99
368.624	4.85
368.833	4.88
369.042	4.8
369.25	4.89
369.459	5.03
369.668	5.21
369.877	5.22
370.085	5
370.294	5.06
370.503	5.05
370.711	5.4
370.92	5.32
371.129	5.4
371.337	5.55
371.546	5.37
371.754	5.15
371.963	5.01
372.171	4.87
372.38	4.67
372.589	4.87
372.797	4.78
373.006	4.54
373.214	4.4
373.423	4.54
373.631	4.55
373.84	4.47
374.048	4.52
374.256	4.47
374.465	4.66
374.673	4.41
374.882	4.32
375.09	4.13
375.298	4.26
375.507	4.15
375.715	3.9
375.923	3.62
376.132	3.66
376.34	3.64
376.548	3.83
376.757	3.66
376.965	4.04
377.173	4.02
377.381	4.33
377.59	4.21
377.798	4.44
378.006	4.21
378.214	4.46
378.423	4.37
378.631	4.48
378.839	4.49
379.047	4.48
379.255	4.44
379.463	4.55
379.671	4.33
379.879	4.3
380.088	4.26
380.296	4.78
380.504	4.95
380.712	5.28
380.92	5.3
381.128	5.08
381.336	4.87
381.544	4.65
381.752	4.5
381.96	4.41
382.168	4.44
382.376	4.38
382.584	4.13
382.791	3.95
382.999	3.76
383.207	3.64
383.415	3.86
383.623	3.83
383.831	3.85
384.039	3.82
384.247	3.89
384.454	3.73
384.662	3.58
384.87	3.89
385.078	3.62
385.285	3.46
385.493	3.6
385.701	3.19
385.909	3.27
386.116	3.43
386.324	3.55
386.532	3.63
386.739	3.88
386.947	3.93
387.155	3.83
387.362	4
387.57	4.12
387.778	3.83
387.985	4.23
388.193	4.43
388.4	4.58
388.608	4.42
388.816	4.53
389.023	4.29
389.231	4.3
389.438	4.34
389.646	4.33
389.853	4.29
390.061	4.5
390.268	4.28
390.475	4.25
390.683	3.96
390.89	3.92
391.098	3.72
391.305	3.82
391.512	3.84
391.72	3.62
391.927	3.72
392.135	3.75
392.342	3.69
392.549	3.82
392.756	3.71
392.964	3.87
393.171	3.89
393.378	3.72
393.586	3.72
393.793	3.8
394	3.69
394.207	3.71
394.414	3.76
394.622	3.63
394.829	3.59
395.036	3.65
395.243	3.72
395.45	3.58
395.657	3.68
395.864	3.56
396.072	3.4
396.279	3.43
396.486	3.35
396.693	3.23
396.9	3.39
397.107	3.23
397.314	3.36
397.521	2.98
397.728	3.16
397.935	3.35
398.142	3.51
398.349	3.68
398.556	3.82
398.763	3.71
398.97	3.72
399.177	3.68
399.383	3.68
399.59	3.44
399.797	3.63
400.004	3.4
400.211	3.23
400.418	3.07
400.625	2.85
400.831	2.86
401.038	3.07
401.245	3.12
401.452	3.1
401.658	3.15
401.865	3.28
402.072	3.45
402.279	3.58
402.485	3.57
402.692	3.69
402.899	3.87
403.105	3.74
403.312	3.69
403.519	3.66
403.725	3.79
403.932	3.75
404.138	3.54
404.345	3.45
404.552	3.5
404.758	3.59
404.965	3.51
405.171	3.34
405.378	3.5
405.584	3.4
405.791	3.3
405.997	3.2
406.204	3.28
406.41	3.37
406.617	3.38
406.823	3.42
407.029	3.41
407.236	3.4
407.442	3.47
407.649	3.44
407.855	3.42
408.061	3.57
408.268	3.47
408.474	3.34
408.68	3.31
408.887	3.26
409.093	3.11
409.299	3.13
409.505	3.23
409.712	3.34
409.918	3.37
410.124	3.35
410.33	3.39
410.537	3.63
410.743	3.83
410.949	3.84
411.155	3.87
411.361	3.9
411.567	3.86
411.773	3.77
411.98	3.78
412.186	3.6
412.392	3.64
412.598	3.55
412.804	3.39
413.01	3.2
413.216	3.37
413.422	3.39
413.628	3.53
413.834	3.41
414.04	3.35
414.246	3.08
414.452	3.12
414.658	3.09
414.864	2.99
415.07	3
415.275	3.12
415.481	3.12
415.687	2.98
415.893	2.89
416.099	2.84
416.305	2.72
416.511	2.86
416.716	2.84
416.922	2.9
417.128	2.95
417.334	2.87
417.539	2.87
417.745	2.82
417.951	2.9
418.157	2.87
418.362	2.83
418.568	2.93
418.774	2.9
418.979	2.96
419.185	2.91
419.391	2.9
419.596	2.87
419.802	2.79
420.008	2.76
420.213	3.39
420.419	3.41
420.624	3.47
420.83	3.44
421.035	3.47
421.241	3.48
421.446	3.46
421.652	3.53
421.857	3.53
422.063	3.56
422.268	3.59
422.474	2.96
422.679	2.91
422.885	2.93
423.09	2.95
423.295	2.97
423.501	2.85
423.706	2.88
423.911	2.8
424.117	2.91
424.322	2.93
424.527	2.8
424.733	2.78
424.938	2.83
425.143	2.91
425.349	2.91
425.554	2.92
425.759	3.07
425.964	3.01
426.169	2.99
426.375	2.96
426.58	3.07
426.785	3.19
426.99	3.18
427.195	3.09
427.4	2.96
427.605	2.97
427.811	2.99
428.016	2.94
428.221	3.01
428.426	2.98
428.631	2.92
428.836	2.8
429.041	2.83
429.246	2.85
429.451	2.92
429.656	2.93
429.861	2.87
430.066	2.83
430.271	2.8
430.476	2.79
430.681	2.81
430.886	2.83
431.09	2.82
431.295	2.74
431.5	2.81
431.705	2.68
431.91	2.81
432.115	2.73
432.32	2.7
432.524	2.7
432.729	2.58
432.934	2.59
433.139	2.58
433.343	2.67
433.548	2.69
433.753	2.65
433.958	2.82
434.162	2.67
434.367	2.74
434.572	2.73
434.776	2.77
434.981	2.78
435.186	2.81
435.39	2.74
435.595	2.65
435.799	2.73
436.004	2.63
436.209	2.61
436.413	2.62
436.618	2.62
436.822	2.56
437.027	2.54
437.231	2.57
437.436	2.49
437.64	2.47
437.845	2.46
438.049	2.42
438.253	2.44
438.458	2.49
438.662	2.41
438.867	2.42
439.071	2.37
439.275	2.35
439.48	2.36
439.684	2.41
439.888	2.42
440.093	2.38
440.297	2.31
440.501	2.36
440.706	2.3
440.91	2.31
441.114	2.34
441.318	2.36
441.523	2.32
441.727	2.22
441.931	2.25
442.135	2.26
442.339	2.31
442.543	2.35
442.748	2.34
442.952	2.32
443.156	2.46
443.36	2.4
443.564	2.43
443.768	2.42
443.972	2.5
444.176	2.52
444.38	2.52
444.584	2.41
444.788	2.5
444.992	2.43
445.196	2.46
445.4	2.41
445.604	2.45
445.808	2.47
446.012	2.52
446.216	2.6
446.42	2.5
446.624	2.51
446.828	2.49
447.032	2.44
447.235	2.51
447.439	2.44
447.643	2.49
447.847	2.48
448.051	2.52
448.254	2.44
448.458	2.29
448.662	2.4
448.866	2.42
449.069	2.58
449.273	2.58
449.477	2.51
449.681	2.51
449.884	2.4
450.088	2.38
450.292	2.26
450.495	2.35
450.699	2.45
450.902	2.4
451.106	2.51
451.31	2.37
451.513	2.32
451.717	2.32
451.92	2.35
452.124	2.37
452.327	2.43
452.531	2.33
452.734	2.33
452.938	2.26
453.141	2.3
453.345	2.15
453.548	2.29
453.752	2.4
453.955	2.41
454.158	2.38
454.362	2.35
454.565	2.23
454.769	2.37
454.972	2.33
455.175	2.36
455.379	2.41
455.582	2.49
455.785	2.44
455.988	2.33
456.192	2.31
456.395	2.37
456.598	2.44
456.801	2.47
457.005	2.47
457.208	2.48
457.411	2.4
457.614	2.34
457.817	2.28
458.021	2.2
458.224	2.22
458.427	2.16
458.63	2.14
458.833	2.1
459.036	2.09
459.239	2.15
459.442	2.17
459.645	2.21
459.848	2.17
460.051	2.15
460.254	2.19
460.457	2.2
460.66	2.33
460.863	2.37
461.066	2.44
461.269	2.45
461.472	2.38
461.675	2.38
461.878	2.34
462.081	2.35
462.284	2.43
462.486	2.5
462.689	2.44
462.892	2.36
463.095	2.32
463.298	2.3
463.5	2.35
463.703	2.44
463.906	2.36
464.109	2.29
464.311	2.39
464.514	2.27
464.717	2.31
464.92	2.35
465.122	2.38
465.325	2.39
465.528	2.37
465.73	2.34
465.933	2.25
466.135	2.23
466.338	2.3
466.541	2.27
466.743	2.33
466.946	2.27
467.148	2.27
467.351	2.31
467.553	2.32
467.756	2.38
467.958	2.32
468.161	2.24
468.363	2.24
468.566	2.31
468.768	2.33
468.971	2.34
469.173	2.37
469.375	2.35
469.578	2.33
469.78	2.23
469.983	2.15
470.185	2.2
470.387	2.32
470.59	2.37
470.792	2.34
470.994	2.42
471.196	2.45
471.399	2.39
471.601	2.45
471.803	2.4
472.005	2.43
472.208	2.48
472.41	2.43
472.612	2.32
472.814	2.35
473.016	2.36
473.218	2.28
473.421	2.23
473.623	2.26
473.825	2.21
474.027	2.21
474.229	2.23
474.431	2.14
474.633	2.25
474.835	2.31
475.037	2.3
475.239	2.26
475.441	2.19
475.643	2.29
475.845	2.28
476.047	2.28
476.249	2.31
476.451	2.35
476.653	2.42
476.855	2.35
477.057	2.39
477.258	2.34
477.46	2.33
477.662	2.3
477.864	2.29
478.066	2.35
478.268	2.3
478.469	2.26
478.671	2.16
478.873	2.08
479.075	2.1
479.276	2.08
479.478	2.18
479.68	2.17
479.882	2.18
480.083	2.12
480.285	2.05
480.487	2.09
480.688	2.07
480.89	2.13
481.091	2.13
481.293	2.09
481.495	2.07
481.696	2.02
481.898	2.04
482.099	2.07
482.301	2.08
482.502	2.09
482.704	2.09
482.905	2.12
483.107	2.12
483.308	2.15
483.51	2.16
483.711	2.17
483.913	2.18
484.114	2.21
484.315	2.19
484.517	2.2
484.718	2.18
484.92	2.17
485.121	2.14
485.322	2.13
485.524	2.09
485.725	2.09
485.926	2.08
486.127	2.05
486.329	2
486.53	1.99
486.731	1.98
486.932	2.02
487.134	2.03
487.335	2.02
487.536	2.03
487.737	2.07
487.938	2.09
488.139	2.1
488.341	2.15
488.542	2.16
488.743	2.17
488.944	2.12
489.145	2.08
489.346	2.11
489.547	2.12
489.748	2.09
489.949	2.09
490.15	2.05
490.351	2.07
490.552	2.05
490.753	2.11
490.954	2.13
491.155	2.17
491.356	2.16
491.557	2.15
491.758	2.15
491.959	2.18
492.159	2.13
492.36	2.19
492.561	2.15
492.762	2.16
492.963	2.13
493.164	2.15
493.364	2.13
493.565	2.18
493.766	2.17
493.967	2.14
494.167	2.1
494.368	2.24
494.569	2.14
494.769	2.16
494.97	2.21
495.171	2.28
495.371	2.33
495.572	2.33
495.773	2.33
495.973	2.33
496.174	2.33
496.375	2.38
496.575	2.4
496.776	2.49
496.976	2.43
497.177	2.35
497.377	2.29
497.578	2.21
497.778	2.16
497.979	2.17
498.179	2.21
498.38	2.22
498.58	2.26
498.78	2.13
498.981	2.17
499.181	2.22
499.382	2.32
499.582	2.3
499.782	2.34
499.983	2.44
500.183	2.55
500.383	2.52
500.584	2.52
500.784	2.4
500.984	2.4
501.184	2.27
501.385	2.28
501.585	2.27
501.785	2.28
501.985	2.26
502.185	2.35
502.386	2.25
502.586	2.3
502.786	2.26
502.986	2.32
503.186	2.39
503.386	2.5
503.586	2.47
503.786	2.44
503.987	2.51
504.187	2.57
504.387	2.48
504.587	2.47
504.787	2.4
504.987	2.48
505.187	2.52
505.387	2.59
505.587	2.58
505.786	2.6
505.986	2.61
506.186	2.55
506.386	2.58
506.586	2.62
506.786	2.58
506.986	2.62
507.186	2.65
507.386	2.67
507.585	2.6
507.785	2.56
507.985	2.62
508.185	2.69
508.384	2.72
508.584	2.68
508.784	2.71
508.984	2.75
509.183	2.84
509.383	2.87
509.583	2.89
509.782	2.94
509.982	2.99
510.182	3.02
510.381	2.99
510.581	3.02
510.781	3.07
510.98	3.07
511.18	3.14
511.379	3.1
511.579	3.05
511.778	3.02
511.978	2.99
512.177	2.95
512.377	2.93
512.576	2.89
512.776	2.85
512.975	2.79
513.175	2.76
513.374	2.76
513.573	2.72
513.773	2.75
513.972	2.82
514.172	2.92
514.371	2.97
514.57	2.93
514.77	3.04
514.969	3.05
515.168	3.13
515.367	3.13
515.567	3.09
515.766	3.16
515.965	3.15
516.164	3.09
516.364	3.01
516.563	3.02
516.762	3.07
516.961	3.08
517.16	3.14
517.359	3.04
517.559	3.07
517.758	3.12
517.957	3.07
518.156	3.12
518.355	3.2
518.554	3.19
518.753	3.17
518.952	3.17
519.151	3.12
519.35	3.11
519.549	3.21
519.748	3.19
519.947	3.16
520.146	3.21
520.345	3.19
520.544	3.06
520.743	3.04
520.942	3.13
521.141	3.16
521.339	3.26
521.538	3.35
521.737	3.43
521.936	3.47
522.135	3.49
522.333	3.42
522.532	3.47
522.731	3.58
522.93	3.63
523.129	3.62
523.327	3.59
523.526	3.56
523.725	3.48
523.923	3.48
524.122	3.43
524.321	3.38
524.519	3.41
524.718	3.41
524.917	3.4
525.115	3.43
525.314	3.43
525.512	3.44
525.711	3.46
525.909	3.49
526.108	3.46
526.306	3.49
526.505	3.53
526.703	3.57
526.902	3.58
527.1	3.58
527.299	3.61
527.497	3.62
527.696	3.63
527.894	3.64
528.092	3.66
528.291	3.71
528.489	3.73
528.688	3.76
528.886	3.8
529.084	3.83
529.283	3.92
529.481	3.9
529.679	3.9
529.877	3.93
530.076	3.95
530.274	3.94
530.472	3.9
530.67	3.92
530.869	3.92
531.067	3.9
531.265	3.88
531.463	3.84
531.661	3.84
531.859	3.89
532.057	3.92
532.255	3.93
532.454	3.94
532.652	3.93
532.85	3.98
533.048	4.01
533.246	4.05
533.444	4.13
533.642	4.15
533.84	4.22
534.038	4.24
534.236	4.25
534.434	4.25
534.632	4.28
534.83	4.31
535.027	4.33
535.225	4.35
535.423	4.34
535.621	4.32
535.819	4.32
536.017	4.31
536.215	4.3
536.412	4.35
536.61	4.42
536.808	4.43
537.006	4.49
537.203	4.51
537.401	4.53
537.599	4.54
537.797	4.52
537.994	4.62
538.192	4.62
538.39	4.67
538.587	4.68
538.785	4.65
538.983	4.65
539.18	4.67
539.378	4.68
539.575	4.66
539.773	4.67
539.97	4.71
540.168	4.68
540.366	4.77
540.563	4.78
540.761	4.82
540.958	4.91
541.155	4.97
541.353	5.02
541.55	5.04
541.748	5.12
541.945	5.14
542.143	5.21
542.34	5.29
542.537	5.25
542.735	5.28
542.932	5.32
543.129	5.28
543.327	5.34
543.524	5.28
543.721	5.43
543.919	5.46
544.116	5.5
544.313	5.52
544.51	5.57
544.708	5.59
544.905	5.61
545.102	5.61
545.299	5.66
545.496	5.69
545.693	5.82
545.891	5.79
546.088	5.8
546.285	5.81
546.482	5.8
546.679	5.8
546.876	5.84
547.073	5.99
547.27	6.03
547.467	5.96
547.664	5.91
547.861	5.87
548.058	6.01
548.255	6.06
548.452	6.21
548.649	6.28
548.846	6.37
549.043	6.4
549.24	6.32
549.437	6.39
549.633	6.49
549.83	6.62
550.027	6.65
550.224	6.59
550.421	6.56
550.618	6.5
550.814	6.6
551.011	6.6
551.208	6.67
551.405	6.74
551.601	6.84
551.798	6.96
551.995	6.93
552.191	7.01
552.388	7.12
552.585	7.24
552.781	7.33
552.978	7.37
553.175	7.46
553.371	7.41
553.568	7.44
553.764	7.29
553.961	7.34
554.157	7.49
554.354	7.46
554.55	7.39
554.747	7.41
554.943	7.41
555.14	7.45
555.336	7.41
555.533	7.54
555.729	7.62
555.926	7.81
556.122	7.79
556.318	7.76
556.515	7.84
556.711	7.84
556.907	7.87
557.104	7.95
557.3	7.79
557.496	7.86
557.693	7.89
557.889	7.78
558.085	7.75
558.281	7.8
558.478	7.8
558.674	7.85
558.87	7.92
559.066	7.97
559.262	8.13
559.459	8.25
559.655	8.35
559.851	8.38
560.047	8.45
560.243	8.52
560.439	8.6
560.635	8.7
560.831	8.72
561.027	8.77
561.223	8.8
561.419	8.62
561.615	8.75
561.811	8.7
562.007	8.83
562.203	9
562.399	9.11
562.595	9.03
562.791	9.04
562.987	9.06
563.183	9.13
563.379	9.19
563.575	9.4
563.771	9.44
563.966	9.49
564.162	9.59
564.358	9.67
564.554	9.67
564.75	9.87
564.945	9.89
565.141	9.97
565.337	10
565.533	10
565.728	10.06
565.924	10.11
566.12	10.16
566.315	10.12
566.511	10.16
566.707	10.19
566.902	10.12
567.098	10.22
567.293	10.3
567.489	10.3
567.684	10.38
567.88	10.46
568.076	10.43
568.271	10.5
568.467	10.56
568.662	10.55
568.858	10.61
569.053	10.64
569.248	10.59
569.444	10.64
569.639	10.78
569.835	10.84
570.03	10.76
570.225	10.91
570.421	10.99
570.616	11.14
570.812	11.19
571.007	11.29
571.202	11.38
571.397	11.51
571.593	11.67
571.788	11.73
571.983	11.81
572.178	11.89
572.374	11.99
572.569	12.09
572.764	12.05
572.959	12.11
573.154	12.2
573.35	12.19
573.545	12.25
573.74	12.15
573.935	12.15
574.13	12.2
574.325	12.24
574.52	12.09
574.715	12.03
574.91	12.04
575.105	12.03
575.3	11.99
575.495	12.04
575.69	12.13
575.885	12.06
576.08	12.01
576.275	12.02
576.47	11.98
576.665	12.11
576.86	12.18
577.055	12.19
577.25	12.32
577.444	12.22
577.639	12.17
577.834	12.13
578.029	12.33
578.224	12.48
578.418	12.53
578.613	12.81
578.808	12.83
579.003	12.9
579.197	13.09
579.392	13.15
579.587	13.44
579.781	13.58
579.976	13.63
580.171	13.6
580.365	13.66
580.56	13.69
580.755	13.62
580.949	13.7
581.144	13.72
581.338	13.66
581.533	13.67
581.727	13.7
581.922	13.66
582.116	13.67
582.311	13.7
582.505	13.65
582.7	13.63
582.894	13.56
583.089	13.58
583.283	13.48
583.478	13.35
583.672	13.39
583.866	13.38
584.061	13.56
584.255	13.58
584.449	13.74
584.644	13.85
584.838	14
585.032	14.23
585.226	14.17
585.421	14.4
585.615	14.56
585.809	14.55
586.003	14.46
586.198	14.4
586.392	14.46
586.586	14.38
586.78	14.36
586.974	14.42
587.168	14.36
587.363	14.57
587.557	14.51
587.751	14.51
587.945	14.49
588.139	14.63
588.333	14.76
588.527	14.84
588.721	14.93
588.915	14.9
589.109	14.91
589.303	14.94
589.497	14.94
589.691	15.07
589.885	15.06
590.079	15.09
590.273	14.99
590.466	14.91
590.66	14.84
590.854	14.76
591.048	14.82
591.242	14.75
591.436	14.69
591.629	14.66
591.823	14.6
592.017	14.66
592.211	14.75
592.404	14.7
592.598	14.75
592.792	14.72
592.986	14.84
593.179	14.98
593.373	15.05
593.567	15.14
593.76	15.1
593.954	15.12
594.147	15.28
594.341	15.3
594.535	15.37
594.728	15.46
594.922	15.53
595.115	15.46
595.309	15.42
595.502	15.33
595.696	15.42
595.889	15.52
596.083	15.55
596.276	15.57
596.47	15.58
596.663	15.63
596.856	15.55
597.05	15.67
597.243	15.73
597.437	15.79
597.63	15.91
597.823	15.91
598.017	15.86
598.21	15.86
598.403	15.92
598.596	16.03
598.79	16.1
598.983	16.1
599.176	15.91
599.369	15.9
599.563	15.84
599.756	15.93
599.949	15.94
600.142	15.93
600.335	15.95
600.528	15.85
600.722	15.81
600.915	15.89
601.108	15.98
601.301	16.09
601.494	16.22
601.687	16.15
601.88	16.18
602.073	16.22
602.266	16.29
602.459	16.39
602.652	16.53
602.845	16.41
603.038	16.32
603.231	16.37
603.424	16.44
603.617	16.39
603.809	16.46
604.002	16.36
604.195	16.33
604.388	16.29
604.581	16.24
604.774	16.12
604.966	16.18
605.159	16.21
605.352	16.21
605.545	16.23
605.737	16.29
605.93	16.25
606.123	16.42
606.316	16.49
606.508	16.61
606.701	16.57
606.894	16.65
607.086	16.73
607.279	16.76
607.471	16.78
607.664	16.83
607.857	16.81
608.049	16.83
608.242	16.78
608.434	16.79
608.627	16.68
608.819	16.83
609.012	16.75
609.204	16.8
609.397	17
609.589	17.05
609.782	17.06
609.974	17.19
610.166	17.32
610.359	17.37
610.551	17.36
610.743	17.53
610.936	17.44
611.128	17.61
611.32	17.51
611.513	17.38
611.705	17.54
611.897	17.53
612.09	17.44
612.282	17.41
612.474	17.5
612.666	17.48
612.858	17.42
613.051	17.46
613.243	17.55
613.435	17.7
613.627	17.72
613.819	17.57
614.011	17.56
614.203	17.79
614.395	17.84
614.588	17.78
614.78	17.89
614.972	17.78
615.164	17.91
615.356	17.76
615.548	17.64
615.74	17.62
615.932	17.54
616.124	17.57
616.315	17.61
616.507	17.78
616.699	17.7
616.891	17.72
617.083	18
617.275	17.96
617.467	17.92
617.659	18.08
617.85	18.05
618.042	18.04
618.234	17.94
618.426	17.76
618.618	17.75
618.809	18.08
619.001	17.97
619.193	18.01
619.384	18.14
619.576	18.21
619.768	18.27
619.959	18.32
620.151	18.32
620.343	18.53
620.534	18.57
620.726	18.58
620.917	18.36
621.109	18.53
621.301	18.56
621.492	18.58
621.684	18.67
621.875	18.69
622.067	18.66
622.258	18.64
622.45	18.59
622.641	18.49
622.832	18.29
623.024	18.34
623.215	18.34
623.407	18.24
623.598	18.2
623.789	18.11
623.981	17.96
624.172	18.12
624.363	18.33
624.555	18.44
624.746	18.48
624.937	18.69
625.129	18.52
625.32	18.49
625.511	18.48
625.702	18.44
625.893	18.45
626.085	18.64
626.276	18.58
626.467	18.56
626.658	18.4
626.849	18.46
627.04	18.26
627.231	18.4
627.422	18.36
627.614	18.39
627.805	18.24
627.996	18.35
628.187	18.23
628.378	18.22
628.569	18.17
628.76	18.33
628.951	18.49
629.142	18.59
629.332	18.7
629.523	18.86
629.714	18.96
629.905	19.18
630.096	19.2
630.287	19.47
630.478	19.6
630.669	19.67
630.859	19.59
631.05	19.34
631.241	19.43
631.432	19.4
631.623	19.36
631.813	19.41
632.004	19.39
632.195	19.45
632.385	19.27
632.576	19.19
632.767	19.16
632.957	19.21
633.148	19.32
633.339	19.25
633.529	19.22
633.72	19.24
633.91	19.24
634.101	19.27
634.292	19.04
634.482	19.07
634.673	19.14
634.863	19.17
635.054	19.19
635.244	19.4
635.435	19.44
635.625	19.38
635.815	19.31
636.006	19.29
636.196	19.37
636.387	19.57
636.577	19.56
636.767	19.43
636.958	19.63
637.148	19.61
637.338	19.51
637.529	19.64
637.719	19.46
637.909	19.42
638.099	19.41
638.29	19.57
638.48	19.41
638.67	19.72
638.86	20.06
639.05	19.91
639.241	20.07
639.431	19.91
639.621	19.82
639.811	20.21
640.001	20.44
640.191	20.67
640.381	20.58
640.571	20.72
640.761	20.4
640.951	20.37
641.141	20.38
641.331	20.26
641.521	20.32
641.711	20.27
641.901	20.39
642.091	20.41
642.281	20.21
642.471	19.99
642.661	20.2
642.851	20.22
643.041	20.05
643.231	20.05
643.42	20.05
643.61	20
643.8	20.16
643.99	20.01
644.18	20.18
644.369	20.21
644.559	20.62
644.749	20.31
644.939	20.31
645.128	20.48
645.318	20.71
645.508	20.88
645.697	20.96
645.887	21.03
646.076	21.07
646.266	20.82
646.456	20.77
646.645	20.6
646.835	20.86
647.024	20.94
647.214	20.83
647.403	20.72
647.593	20.63
647.782	20.67
647.972	20.71
648.161	20.61
648.351	20.72
648.54	20.77
648.73	20.78
648.919	20.98
649.108	21.09
649.298	21.14
649.487	21.16
649.677	21.29
649.866	21.2
650.055	21.22
650.244	21.37
650.434	21.49
650.623	21.57
650.812	21.52
651.002	21.52
651.191	21.64
651.38	21.67
651.569	21.67
651.758	21.35
651.947	21.6
652.137	21.71
652.326	21.73
652.515	21.77
652.704	21.76
652.893	21.9
653.082	21.68
653.271	21.43
653.46	21.51
653.649	21.62
653.838	22.02
654.027	22
654.216	21.75
654.405	21.8
654.594	21.5
654.783	21.44
654.972	21.4
655.161	21.57
655.35	21.65
655.539	21.62
655.728	21.8
655.916	21.83
656.105	21.66
656.294	21.9
656.483	21.79
656.672	21.83
656.86	21.95
657.049	22
657.238	21.88
657.427	21.83
657.615	21.88
657.804	21.7
657.993	21.73
658.181	21.76
658.37	21.71
658.559	21.74
658.747	21.99
658.936	21.99
659.125	21.83
659.313	21.89
659.502	22.03
659.69	22.06
659.879	22.01
660.067	21.97
660.256	21.99
660.444	21.99
660.633	21.99
660.821	21.78
661.01	21.83
661.198	22.08
661.387	22.23
661.575	22.24
661.763	22.36
661.952	22.46
662.14	22.46
662.328	22.47
662.517	22.48
662.705	22.71
662.893	22.88
663.082	23.03
663.27	23.11
663.458	22.98
663.646	22.92
663.834	23
664.023	23.02
664.211	22.89
664.399	23.33
664.587	23.65
664.775	23.56
664.963	23.36
665.152	23.26
665.34	23.17
665.528	23.31
665.716	23.46
665.904	23.29
666.092	23.31
666.28	23.64
666.468	23.31
666.656	23.04
666.844	23.06
667.032	23.33
667.22	23.32
667.408	23.32
667.596	23.2
667.784	22.88
667.971	22.96
668.159	22.94
668.347	22.85
668.535	23.05
668.723	23.05
668.911	22.79
669.098	22.44
669.286	22.45
669.474	22.44
669.662	22.62
669.849	22.99
670.037	22.92
670.225	22.94
670.413	22.59
670.6	22.69
670.788	22.94
670.976	23.17
671.163	23.41
671.351	23.43
671.538	23.6
671.726	23.54
671.913	23.45
672.101	23.57
672.289	23.49
672.476	23.84
672.664	23.77
672.851	23.71
673.039	23.88
673.226	23.96
673.413	23.85
673.601	23.79
673.788	23.61
673.976	23.59
674.163	23.54
674.35	23.76
674.538	23.74
674.725	23.97
674.912	24.18
675.1	24.18
675.287	24.47
675.474	24.37
675.662	24.33
675.849	24.5
676.036	24.52
676.223	24.31
676.411	24.21
676.598	23.98
676.785	23.45
676.972	23.45
677.159	23.28
677.346	22.99
677.533	22.97
677.721	23.13
677.908	23.1
678.095	23.21
678.282	23.5
678.469	23.5
678.656	23.59
678.843	23.75
679.03	23.36
679.217	23.54
679.404	23.48
679.591	23.59
679.778	23.44
679.964	23.35
680.151	23.4
680.338	23.09
680.525	23.37
680.712	23.41
680.899	23.6
681.086	23.79
681.272	23.6
681.459	23.73
681.646	23.77
681.833	24
682.02	24.16
682.206	23.88
682.393	24.07
682.58	23.88
682.766	24.17
682.953	23.9
683.14	23.9
683.326	24.18
683.513	24.24
683.7	24.55
683.886	24.4
684.073	24.42
684.259	24.79
684.446	25.1
684.632	24.97
684.819	24.69
685.005	24.88
685.192	24.75
685.378	24.38
685.565	24.46
685.751	24.33
685.938	24.42
686.124	24.41
686.31	24.09
686.497	23.74
686.683	23.93
686.87	24.31
687.056	24.32
687.242	24.68
687.429	24.97
687.615	25.06
687.801	25.13
687.987	25.15
688.174	24.98
688.36	25.2
688.546	25.21
688.732	25.11
688.918	24.87
689.105	24.92
689.291	24.7
689.477	24.79
689.663	24.98
689.849	24.87
690.035	24.67
690.221	24.9
690.407	25.05
690.593	25.48
690.779	25.56
690.965	25.65
691.151	25.58
691.337	25.78
691.523	25.75
691.709	25.23
691.895	25.48
692.081	25.84
692.267	25.86
692.453	25.87
692.639	25.62
692.825	25.69
693.011	25.43
693.196	25.52
693.382	25.26
693.568	25.14
693.754	25.21
693.94	24.87
694.125	24.68
694.311	24.76
694.497	24.69
694.682	24.76
694.868	24.86
695.054	25.27
695.239	25.52
695.425	25.68
695.611	25.76
695.796	25.81
695.982	25.96
696.168	25.97
696.353	25.84
696.539	25.7
696.724	25.48
696.91	25.21
697.095	24.99
697.281	25.03
697.466	24.76
697.652	24.95
697.837	25.02
698.023	24.93
698.208	24.9
698.393	25.17
698.579	25.29
698.764	25.43
698.949	25.4
699.135	25.55
699.32	25.38
699.505	25.66
699.691	25.58
699.876	25.53
700.061	25.76
700.246	25.9
700.432	25.23
700.617	25.28
700.802	25.11
700.987	25.56
701.172	25.39
701.358	25.39
701.543	25.49
701.728	25.41
701.913	25.87
702.098	25.5
702.283	25.35
702.468	25.92
702.653	25.6
702.838	26
703.023	26
703.208	25.94
703.393	25.87
703.578	25.73
703.763	25.9
703.948	25.62
704.133	25.95
704.318	26.11
704.503	26.07
704.688	26.45
704.873	26.2
705.057	26
705.242	26
705.427	26.11
705.612	26.01
705.797	26.01
705.981	25.92
706.166	26.26
706.351	26.34
706.536	26.38
706.72	26.65
706.905	26.82
707.09	26.79
707.274	27.1
707.459	27.03
707.644	27.4
707.828	27.2
708.013	27.34
708.197	27.17
708.382	27.16
708.567	26.97
708.751	26.83
708.936	26.76
709.12	27
709.305	26.81
709.489	26.75
709.673	26.79
709.858	26.72
710.042	26.74
710.227	26.66
710.411	26.62
710.596	26.52
710.78	26.44
710.964	26.22
711.149	25.77
711.333	26.01
711.517	26.08
711.702	25.89
711.886	26.29
712.07	26.16
712.254	26.16
712.438	26.42
712.623	26.72
712.807	26.39
712.991	26.69
713.175	27.24
713.359	27.32
713.544	27.84
713.728	27.95
713.912	27.8
714.096	27.55
714.28	27.47
714.464	27.24
714.648	27.34
714.832	27.68
715.016	27.43
715.2	27.2
715.384	26.99
715.568	26.68
715.752	26.48
715.936	25.94
716.12	26.73
716.304	26.9
716.488	27.05
716.671	27.1
716.855	26.9
717.039	27.42
717.223	27.49
717.407	27.56
717.59	27.51
717.774	28.01
717.958	28.5
718.142	28.23
718.325	27.84
718.509	27.54
718.693	27.67
718.877	28.22
719.06	28.07
719.244	28.28
719.428	28.49
719.611	28.58
719.795	28.24
719.978	28.32
720.162	28.01
720.345	28.9
720.529	29.13
720.713	29.44
720.896	29.14
721.08	29.01
721.263	28.83
721.446	28.62
721.63	28.54
721.813	28.42
721.997	28.76
722.18	29.36
722.364	29.04
722.547	29.15
722.73	29.07
722.914	28.99
723.097	28.76
723.28	28.61
723.464	28.56
723.647	29.06
723.83	29.26
724.013	29.35
724.197	29
724.38	28.95
724.563	28.66
724.746	28.33
724.929	28.57
725.112	28.85
725.296	29.34
725.479	29.37
725.662	29.06
725.845	28.56
726.028	28.28
726.211	28.18
726.394	28.26
726.577	28.7
726.76	29.03
726.943	29.09
727.126	28.95
727.309	28.6
727.492	28.55
727.675	28.73
727.858	29.29
728.041	28.96
728.224	29.02
728.407	29.18
728.589	28.81
728.772	28.1
728.955	28.28
729.138	28.43
729.321	28.39
729.503	28.14
729.686	28.09
729.869	27.8
730.052	27.93
730.234	28.09
730.417	27.89
730.6	27.89
730.782	28.24
730.965	27.8
731.148	28.04
731.33	28.62
731.513	29.14
731.695	29.16
731.878	29.25
732.061	29.52
732.243	29.53
732.426	29.45
732.608	29.96
732.791	29.69
732.973	30.14
733.156	29.95
733.338	29.54
733.52	29.54
733.703	29.86
733.885	29.91
734.068	29.78
734.25	29.74
734.432	29.56
734.615	29.32
734.797	29.79
734.979	29.67
735.162	29.98
735.344	29.92
735.526	30.2
735.708	29.39
735.891	30.09
736.073	30.05
736.255	29.92
736.437	29.96
736.619	29.81
736.802	29.86
736.984	29.95
737.166	30.12
737.348	30.23
737.53	29.62
737.712	29.98
737.894	29.63
738.076	29.65
738.258	30.06
738.44	30.26
738.622	30.42
738.804	30.28
738.986	29.74
739.168	29.88
739.35	29.55
739.532	29.23
739.714	29.04
739.896	28.9
740.078	28.94
740.259	28.5
740.441	28.72
740.623	28.88
740.805	29.01
740.987	29.13
741.168	28.45
741.35	28.52
741.532	29.85
741.714	30.33
741.895	30.26
742.077	30.62
742.259	30.82
742.44	31.13
742.622	30.54
742.804	30.32
742.985	30.54
743.167	30.91
743.348	31
743.53	30.48
743.711	30.28
743.893	30.84
744.075	30.63
744.256	30.77
744.438	30.09
744.619	30.29
744.8	30.09
744.982	29.76
745.163	29.73
745.345	30.06
745.526	30.29
745.707	29.66
745.889	29.8
746.07	29.39
746.252	29.08
746.433	28.88
746.614	28.9
746.795	28.89
746.977	29.18
747.158	29.07
747.339	28.56
747.52	28.47
747.702	28.78
747.883	27.84
748.064	28.21
748.245	28.57
748.426	28.92
748.607	28.78
748.788	29.01
748.97	28.95
749.151	28.63
749.332	28.9
749.513	28.18
749.694	28.29
749.875	28.8
750.056	29.06
750.237	28.85
750.418	29.46
750.599	29.12
750.78	28.61
750.96	29.16
751.141	29.29
751.322	29.61
751.503	30.24
751.684	30.23
751.865	30.46
752.046	29.95
752.226	29.79
752.407	29.59
752.588	31.18
752.769	32.12
752.949	31.58
753.13	31.03
753.311	31.99
753.492	32.11
753.672	32.26
753.853	31.98
754.034	32.61
754.214	32.99
754.395	32.12
754.575	31.32
754.756	30.97
754.937	31.34
755.117	31.57
755.298	30.52
755.478	29.81
755.659	29.91
755.839	30.15
756.02	29.75
756.2	29.54
756.381	30.48
756.561	30.62
756.741	30.41
756.922	30.24
757.102	31.01
757.283	30.57
757.463	31.02
757.643	30.81
757.823	31
758.004	30.95
758.184	30.68
758.364	30.58
758.545	30.28
758.725	30.95
758.905	31.44
759.085	31.52
759.265	32.23
759.446	32.95
759.626	33.17
759.806	32.37
759.986	32.74
760.166	33.06
760.346	32.7
760.526	33.07
760.706	32.19
760.886	31.19
761.066	31.29
761.246	31.02
761.426	29.98
761.606	29.59
761.786	29.97
761.966	29.42
762.146	29.45
762.326	29.85
762.506	29.96
762.686	30.17
762.866	30.54
763.046	30.15
763.225	30.24
763.405	30.62
763.585	30.71
763.765	30.44
763.945	30.83
764.124	31.07
764.304	30.93
764.484	30.49
764.664	30.64
764.843	30.74
765.023	30.93
765.203	30.57
765.382	30.23
765.562	30.57
765.741	30.89
765.921	30.9
766.101	31.23
766.28	31.57
766.46	32.06
766.639	32.48
766.819	32.39
766.998	32.47
767.178	32.79
767.357	33.32
767.537	33.03
767.716	33.21
767.896	33.22
768.075	32.43
768.254	31.95
768.434	31.92
768.613	32.17
768.792	32.02
768.972	32.04
769.151	32.03
769.33	31.8
769.51	31.94
769.689	31.61
769.868	31.27
770.047	31.78
770.226	31.13
770.406	30.71
770.585	30.04
770.764	30.07
770.943	29.91
771.122	29.78
771.301	30.02
771.48	30.17
771.66	30.43
771.839	30.83
772.018	30.96
772.197	31.32
772.376	31.7
772.555	31.77
772.734	32.6
772.913	32.7
773.092	32.7
773.271	32.64
773.449	33.1
773.628	32.4
773.807	32.21
773.986	32.05
774.165	32.84
774.344	32.05
774.523	31.79
774.701	30.81
774.88	30.9
775.059	31.18
775.238	30.16
775.417	30.2
775.595	30.38
775.774	30.54
775.953	30.81
776.131	30.1
776.31	30.7
776.489	30.92
776.667	31.28
776.846	31.45
777.025	31.68
777.203	32.53
777.382	32.9
777.56	33.83
777.739	33.42
777.917	32.2
778.096	32.49
778.274	32.02
778.453	32.21
778.631	31.82
778.81	32.04
778.988	32.47
779.166	32.42
779.345	31.23
779.523	30.52
779.702	30.86
779.88	31.39
780.058	30.59
780.237	30.69
780.415	30.03
780.593	29.95
780.771	29.07
780.95	28.79
781.128	28.55
781.306	28.59
781.484	29.53
781.662	29.08
781.841	29.76
782.019	30.44
782.197	31.31
782.375	31
782.553	31.25
782.731	31.53
782.909	31.07
783.087	31.73
783.265	32.58
783.443	32.31
783.621	32.67
783.799	31.82
783.977	32.76
784.155	32.65
784.333	34.59
784.511	34.96
784.689	34.79
784.867	34.71
785.045	34.84
785.223	34.15
785.4	33.82
785.578	33.9
785.756	34.84
785.934	34.78
786.112	33.7
786.289	32.38
786.467	32.27
786.645	32.32
786.823	32.44
787	32.25
787.178	32.58
787.356	32.53
787.533	32.36
787.711	31.81
787.889	31.29
788.066	31.24
788.244	31.02
788.421	31.12
788.599	31.42
788.776	31.68
788.954	31.88
789.131	31.32
789.309	30.55
789.486	29.75
789.664	29.33
789.841	28.94
790.019	30.07
790.196	30.17
790.373	29.64
790.551	30.46
790.728	30.62
790.906	29.49
791.083	30.89
791.26	31.62
791.437	32.09
791.615	33.2
791.792	33.65
791.969	33.38
792.146	35
792.324	35.64
792.501	33.64
792.678	33.77
792.855	35.22
793.032	33.71
793.209	33.29
793.387	34.13
793.564	32.39
793.741	32.27
793.918	31.38
794.095	30.88
794.272	32.01
794.449	33.52
794.626	33.19
794.803	32.88
794.98	34.11
795.157	33.53
795.334	34.42
795.511	35.52
795.688	35.55
795.864	36.46
796.041	35.58
796.218	34.45
796.395	33.64
796.572	33.77
796.749	32.74
796.925	32.2
797.102	33.45
797.279	32.88
797.456	32.89
797.632	32.6
797.809	32.65
797.986	33.34
798.162	33
798.339	32.55
798.516	32.22
798.692	32.31
798.869	31.39
799.046	30.2
799.222	29.46
799.399	29.4
799.575	29.11
799.752	28.47
799.928	27.2
800.105	28.03
800.281	28.24
800.458	28.12
800.634	28.45
800.811	29.36
800.987	29.57
801.163	29.04
801.34	28.37
801.516	28.69
801.692	28.48
801.869	29.75
802.045	29.53
802.221	30.54
802.398	31.03
802.574	32.18
802.75	32.29
802.926	32.79
803.103	34.07
803.279	34
803.455	34.44
803.631	35.64
803.807	35.23
803.983	35.69
804.16	35.92
804.336	34.9
804.512	33.76
804.688	33.74
804.864	33.23
805.04	32.39
805.216	32.63
805.392	31.9
805.568	30.71
805.744	30.46
805.92	29.05
806.096	30.14
806.272	30.2
806.448	32.32
806.623	32.24
806.799	32.45
806.975	33.1
807.151	33.64
807.327	35.19
807.503	36.52
807.678	35.85
807.854	35.93
808.03	34.8
808.206	34.53
808.381	32.39
808.557	32.31
808.733	32.16
808.908	31.74
809.084	31.65
809.26	31.9
809.435	30.23
809.611	31.64
809.787	32.33
809.962	31.5
810.138	32.33
810.313	32.42
810.489	31.85
810.664	32.82
810.84	32.8
811.015	32.18
811.191	30.46
811.366	31.47
811.542	32.19
811.717	32.14
811.892	34.22
812.068	34.12
812.243	34.76
812.419	35.4
812.594	33.73
812.769	32.91
812.944	33.49
813.12	35.49
813.295	35.1
813.47	32.47
813.645	32.53
813.821	29.62
813.996	29.22
814.171	28.63
814.346	28.88
814.521	31.42
814.697	31.91
814.872	32.63
815.047	31.17
815.222	32.64
815.397	34.86
815.572	35.28
815.747	35.57
815.922	36.27
816.097	35.7
816.272	35.48
816.447	33.96
816.622	33.61
816.797	32.94
816.972	33.72
817.147	30.86
817.322	31.42
817.496	31.3
817.671	32.55
817.846	32.08
818.021	33.53
818.196	32.73
818.371	33.45
818.545	34.57
818.72	34.49
818.895	33.52
819.069	34.39
819.244	33.4
819.419	32.9
819.594	31.96
819.768	33.03
819.943	32.67
820.117	33.17
820.292	33.56
820.467	33.07
820.641	33.07
820.816	33.72
820.99	33.91
821.165	33.68
821.339	33.58
821.514	33.86
821.688	33.82
821.863	33.89
822.037	33.66
822.212	33.26
822.386	33.08
822.56	33.06
822.735	32.75
822.909	32.64
823.084	32.82
823.258	32.78
823.432	32.87
823.606	32.6
823.781	32.52
823.955	32.6
824.129	32.57
824.303	33
824.478	32.98
824.652	33.2
824.826	33.22
825	33.05
825.174	33.3
825.348	33.11
825.523	32.86
825.697	32.84
825.871	32.8
826.045	33.59
826.219	33.52
826.393	33.19
826.567	33
826.741	33.09
826.915	33.29
827.089	33.52
827.263	33.12
827.437	33.62
827.611	33.29
827.784	33.3
827.958	32.74
828.132	32.69
828.306	33.42
828.48	33.89
828.654	33.95
828.827	34.02
829.001	34.13
829.175	34.52
829.349	33.52
829.522	33.49
829.696	33.32
829.87	34.03
830.044	34.19
830.217	34.1
830.391	33.42
830.565	33.46
830.738	33.65
830.912	32.7
831.085	32.58
831.259	33.94
831.432	34.82
831.606	35.14
831.779	33.8
831.953	32.82
832.126	33.58
832.3	33.74
832.473	33.8
832.647	33.48
832.82	33.33
832.994	33.68
833.167	33.38
833.34	33.54
833.514	33.89
833.687	34.23
833.86	34.38
834.034	33.75
834.207	33.31
834.38	33.13
834.553	33.23
834.727	32.89
834.9	32.66
835.073	33.08
835.246	32.4
835.419	32.74
835.593	32.92
835.766	34.07
835.939	34.79
836.112	35.56
836.285	36.54
836.458	37.64
836.631	38.95
836.804	40.25
836.977	40.56
837.15	41.03
837.323	40.41
837.496	41.51
837.669	40.88
837.842	39.38
838.015	38.73
838.188	38.03
838.361	36.69
838.533	37.48
838.706	35.71
838.879	35.2
839.052	35.42
839.225	36.51
839.398	35.96
839.57	35.95
839.743	35.87
839.916	37.34
840.088	37.26
840.261	37.84
840.434	36.26
840.607	37.18
840.779	37.16
840.952	36.7
841.124	35.29
841.297	33.3
841.47	34.52
841.642	35.98
841.815	36.2
841.987	35.28
842.16	33.72
842.332	35.74
842.505	36.61
842.677	38.07
842.85	39.16
843.022	39.59
843.194	40.72
843.367	37.6
843.539	37.24
843.712	35.97
843.884	36.95
844.056	36.49
844.229	35.55
844.401	33.88
844.573	35.02
844.745	35.75
844.918	36.48
845.09	36.86
845.262	37.93
845.434	36.46
845.606	32.25
845.779	30.63
845.951	33.61
846.123	32.1
846.295	35.09
846.467	33.85
846.639	35.59
846.811	36.82
846.983	38.71
847.155	38.18
847.327	39.17
847.499	42.8
847.671	44.93
847.843	42.04
848.015	42.69
848.187	38.07
848.359	35.01
848.531	32.42
848.703	30.34
848.875	30.31
849.047	31.93
849.218	32.13
849.39	34.06
849.562	30.75
849.734	31.84
849.905	36.27
850.077	40.3
850.249	40.03
850.421	40.57
850.592	38.73
850.764	42.06
850.936	39.98
851.107	40.27
851.279	38.63
851.451	41.62
851.622	42.03
851.794	38.94
851.965	37.35
852.137	38.97
852.308	37.77
852.48	37.15
852.651	33.09
852.823	36.47
852.994	38.67
853.166	36.94
853.337	38.31
853.509	37.3
853.68	34.49
853.851	35.16
854.023	34.31
854.194	36.03
854.365	39.05
854.537	37.57
854.708	35.86
854.879	34.73
855.05	37.08
855.222	36.2
855.393	35.94
855.564	39.61
855.735	44.93
855.906	46.01
856.078	45.76
856.249	46.78
856.42	45.75
856.591	44.36
856.762	42.54
856.933	45.86
857.104	46.1
857.275	49.05
857.446	46.51
857.617	42.45
857.788	40.36
857.959	36.49
858.13	36.33
858.301	37.71
858.472	38.92
858.643	40.83
858.814	36.06
858.985	35.65
859.155	36.61
859.326	36.46
859.497	37.59
859.668	39.93
859.839	42.51
860.009	45.79
860.18	48.23
860.351	47.36
860.522	43.64
860.692	44.83
860.863	46.67
861.034	44.91
861.204	45.61
861.375	46.08
861.546	48.57
861.716	50.48
861.887	43.82
862.057	40.55
862.228	41.6
862.398	46.24
862.569	47.83
862.739	46.91
862.91	47.04
863.08	46.52
863.251	44.43
863.421	39.68
863.592	42.4
863.762	41.79
863.932	43.76
864.103	42.86
864.273	39.64
864.443	41.96
864.614	42.56
864.784	43.2
864.954	42.19
865.125	42.68
865.295	47.94
865.465	48
865.635	49.12
865.805	51.18
865.976	50.22
866.146	51.98
866.316	47.73
866.486	45.64
866.656	42.47
866.826	43.86
866.996	45.09
867.166	40.69
867.336	37.53
867.506	38.57
867.676	34.88
867.846	36.2
868.016	36.1
868.186	37.26
868.356	37.7
868.526	40.36
868.696	40.04
868.866	39.69
869.036	44.73
869.206	42.56
869.376	43.01
869.545	39.09
869.715	42.47
869.885	43.74
870.055	42.17
870.224	39.74
870.394	40.76
870.564	40.57
870.734	37.28
870.903	38.7
871.073	44.12
871.243	39.98
871.412	46.68
871.582	45.88
871.751	43.94
871.921	47.87
872.091	50.32
872.26	51.2
872.43	50.52
872.599	47.82
872.769	40.82
872.938	45.98
873.108	49.16
873.277	49.43
873.446	47.79
873.616	45.71
873.785	46.78
873.955	43.01
874.124	39.44
874.293	39.25
874.463	42.57
874.632	45.85
874.801	40.25
874.971	46.42
875.14	44.46
875.309	42.55
875.478	48.54
875.647	49.5
875.817	57.98
875.986	55.5
876.155	53.77
876.324	50.99
876.493	51.2
876.662	49.19
876.831	44.88
877	46.76
877.17	51.27
877.339	50.66
877.508	44.12
877.677	40.37
877.846	45.14
878.015	48.38
878.184	49.5
878.352	48.84
878.521	49.97
878.69	50.2
878.859	47.44
879.028	45.1
879.197	43.66
879.366	45.79
879.534	45.05
879.703	43.63
879.872	42.15
880.041	42.58
880.21	42.24
880.378	41.25
880.547	39.81
880.716	39.72
880.884	38.49
881.053	37.97
881.222	37.03
881.39	36.73
881.559	36.63
881.727	36.56
881.896	36.13
882.065	35.65
882.233	35.37
882.402	35.54
882.57	35.36
882.739	36.32
882.907	36.35
883.076	36.67
883.244	37.77
883.412	37.12
883.581	36.83
883.749	36.63
883.918	36.71
884.086	36.76
884.254	36.69
884.423	36.83
884.591	36.4
884.759	37.53
884.927	38.16
885.096	36.39
885.264	38.37
885.432	39.48
885.6	40.41
885.769	40.04
885.937	38.9
886.105	39.69
886.273	40.48
886.441	39.79
886.609	39.53
886.777	41.37
886.945	42.56
887.113	40.03
887.281	40.34
887.449	40.82
887.617	43.17
887.785	47.69
887.953	45.38
888.121	46.8
888.289	47.95
888.457	46.34
888.625	43.71
888.793	45.06
888.961	47.33
889.129	45.06
889.296	44.74
889.464	43.97
889.632	43.17
889.8	47.35
889.967	45.56
890.135	46.24
