Data from 2938463_Reflection_2.txt Node
Date: Wed Jun 17 13:56:27 EDT 2015
User: robert
Spectrometer: USB4E03002
Autoset integration time: false
Trigger mode: 4
Integration Time (sec): 1.000000E-1
Scans to average: 10
Electric dark correction enabled: true
Nonlinearity correction enabled: false
Boxcar width: 5
Stray light correction enabled: false
XAxis mode: Wavelengths
Stop averaging: false
Number of Pixels in Spectrum: 3648
>>>>>Begin Spectral Data<<<<<
177.575	-122.04
177.794	-279.2
178.014	-150.51
178.233	-357.55
178.452	378.43
178.672	395.41
178.891	6.6
179.11	-230.34
179.33	3676.04
179.549	-9644.44
179.768	-901.04
179.987	-200.53
180.207	-1067.96
180.426	-336.1
180.645	259.21
180.864	217.96
181.084	198.3
181.303	194.11
181.522	178.71
181.741	235.65
181.96	218.06
182.179	239.47
182.398	220.75
182.618	202.88
182.837	221.29
183.056	854.69
183.275	533.23
183.494	635.6
183.713	551.24
183.932	4497.31
184.151	1568.37
184.37	667.14
184.589	388.19
184.808	367.26
185.027	1122.17
185.246	548.85
185.465	355.9
185.684	387.19
185.903	480.01
186.122	408.72
186.341	255.08
186.56	295.28
186.779	391.97
186.998	380.61
187.216	234.18
187.435	199.2
187.654	186.77
187.873	183.22
188.092	193.71
188.311	157.05
188.53	159.91
188.748	153.15
188.967	152.59
189.186	204.54
189.405	290.75
189.623	263.54
189.842	406.35
190.061	-2890.8
190.28	-187.5
190.498	-116.36
190.717	-829.8
190.936	-214.29
191.154	-165.33
191.373	-205.75
191.592	-558.78
191.81	207.53
192.029	-544.79
192.248	772.87
192.466	426.8
192.685	130.66
192.904	173.49
193.122	187.02
193.341	233.29
193.559	255.09
193.778	200.07
193.996	268.55
194.215	294.89
194.433	222.2
194.652	221.56
194.87	203.69
195.089	244.33
195.307	255.22
195.526	465.28
195.744	330.34
195.963	271.3
196.181	277.09
196.399	163.85
196.618	139.8
196.836	163.64
197.055	168
197.273	175.39
197.491	169.75
197.71	154.07
197.928	165.43
198.146	165.94
198.365	195.57
198.583	178.18
198.801	169.5
199.019	171.92
199.238	151.68
199.456	145.49
199.674	120.19
199.892	145.69
200.111	117.87
200.329	86.74
200.547	62.94
200.765	38.5
200.983	34.99
201.202	36.43
201.42	75.24
201.638	79.03
201.856	69.11
202.074	89.12
202.292	81.46
202.51	111.65
202.728	111.96
202.946	132.36
203.165	116.4
203.383	131.65
203.601	147.43
203.819	123.35
204.037	145.58
204.255	169.86
204.473	176.12
204.691	163.34
204.909	161.49
205.127	144.18
205.345	133.5
205.562	160.18
205.78	175.81
205.998	198.07
206.216	222.54
206.434	162.83
206.652	160.62
206.87	163.58
207.088	175.01
207.306	166.86
207.523	172.68
207.741	169.42
207.959	173.24
208.177	174.85
208.395	139.24
208.612	132.11
208.83	160.97
209.048	124.07
209.266	122.74
209.483	113.9
209.701	113.31
209.919	103.15
210.136	117.31
210.354	90.93
210.572	85.99
210.79	81.62
211.007	91.95
211.225	77.84
211.442	96.95
211.66	92.34
211.878	96.33
212.095	101.24
212.313	95.42
212.53	73.03
212.748	93.71
212.966	85.69
213.183	92.55
213.401	79.62
213.618	86.12
213.836	88.94
214.053	86.52
214.271	80.25
214.488	68.31
214.705	77.5
214.923	89.42
215.14	87.25
215.358	90.83
215.575	92.64
215.793	98.55
216.01	82.21
216.227	87.67
216.445	95.76
216.662	114.32
216.879	114.09
217.097	117.52
217.314	123.22
217.531	129.21
217.749	146.02
217.966	163.96
218.183	157.71
218.4	164.08
218.618	124.16
218.835	112.95
219.052	92.26
219.269	91.03
219.487	88.15
219.704	76
219.921	64.29
220.138	53.37
220.355	43.74
220.572	44.46
220.79	55.12
221.007	61.9
221.224	63.27
221.441	47.65
221.658	46.12
221.875	43.48
222.092	37.93
222.309	39.73
222.526	39.35
222.743	41.63
222.96	42.75
223.177	39.78
223.394	35.58
223.611	38.34
223.828	43.51
224.045	40.79
224.262	38
224.479	34.84
224.696	35.98
224.913	35.25
225.13	31.42
225.347	29.78
225.564	27.9
225.781	27.97
225.997	26.72
226.214	26.41
226.431	23.19
226.648	21.58
226.865	20.68
227.082	20.15
227.298	18.98
227.515	18.59
227.732	18.62
227.949	19.23
228.165	17.78
228.382	16.64
228.599	14.69
228.816	15.03
229.032	16.19
229.249	15.97
229.466	16.24
229.682	18.79
229.899	20.33
230.116	20.13
230.332	18.15
230.549	19.69
230.765	19.91
230.982	22.25
231.199	25
231.415	25.18
231.632	26.76
231.848	25.11
232.065	23.35
232.281	22.34
232.498	21.92
232.714	22.31
232.931	25.96
233.147	27.86
233.364	25.92
233.58	24.87
233.797	24.48
234.013	24.98
234.23	24.08
234.446	24.92
234.662	26.93
234.879	27.04
235.095	26.38
235.312	23.39
235.528	21.97
235.744	22.19
235.961	22.33
236.177	20.62
236.393	20.72
236.61	21.79
236.826	19.58
237.042	17.75
237.258	17.44
237.475	18.72
237.691	18.32
237.907	17.93
238.123	18.49
238.339	19.23
238.556	19.53
238.772	19.22
238.988	18.94
239.204	17.86
239.42	18.41
239.636	18.55
239.853	17.63
240.069	17.25
240.285	16.63
240.501	16.1
240.717	15.73
240.933	15.67
241.149	15.15
241.365	15.79
241.581	16.36
241.797	15.57
242.013	15.07
242.229	15.62
242.445	16.18
242.661	16.52
242.877	17.2
243.093	16.72
243.309	17.11
243.525	16.22
243.741	14.98
243.957	13.76
244.173	13.05
244.388	12.87
244.604	12.24
244.82	11.84
245.036	11.88
245.252	11.26
245.468	11.23
245.683	11.01
245.899	11.45
246.115	11.24
246.331	11.34
246.547	11.67
246.762	11.99
246.978	11.83
247.194	12.32
247.409	12.31
247.625	12.21
247.841	12.79
248.057	12.44
248.272	12.53
248.488	13
248.703	12.67
248.919	12.55
249.135	11.41
249.35	12.29
249.566	11.26
249.782	11.09
249.997	12.2
250.213	11.45
250.428	10.81
250.644	10.35
250.859	10.88
251.075	11.9
251.29	12.46
251.506	12.44
251.721	12.49
251.937	12.75
252.152	13.18
252.368	12.92
252.583	14.52
252.798	15.43
253.014	16.21
253.229	15.96
253.445	15.51
253.66	14.43
253.875	15.69
254.091	16.07
254.306	15.75
254.521	14.9
254.737	13.65
254.952	12.21
255.167	11.78
255.383	11.28
255.598	10.95
255.813	10.76
256.028	10.89
256.244	10.3
256.459	9.9
256.674	9.7
256.889	9.96
257.104	9.43
257.32	9.38
257.535	9.61
257.75	9.57
257.965	9.11
258.18	9.16
258.395	9.23
258.61	9.38
258.826	9.43
259.041	9.51
259.256	9.4
259.471	10.1
259.686	9.89
259.901	10.09
260.116	10.1
260.331	10.7
260.546	10.55
260.761	10.58
260.976	10.45
261.191	10.33
261.406	10.1
261.621	9.59
261.836	9.44
262.05	9.93
262.265	9.81
262.48	9.26
262.695	8.58
262.91	9.41
263.125	9.26
263.34	9.55
263.555	9.96
263.769	9.74
263.984	10.32
264.199	10.49
264.414	10.58
264.629	10.8
264.843	10.86
265.058	10.62
265.273	10.01
265.488	10.17
265.702	10.37
265.917	10.33
266.132	10.76
266.346	10.8
266.561	10.59
266.776	10.3
266.99	9.9
267.205	9.63
267.42	9.65
267.634	10.22
267.849	10.14
268.063	10.12
268.278	10.21
268.492	10.22
268.707	10.05
268.922	9.84
269.136	9.59
269.351	9.48
269.565	9.9
269.78	9.65
269.994	9.4
270.209	9.35
270.423	8.8
270.637	8.45
270.852	8.34
271.066	8.45
271.281	8.62
271.495	8.42
271.709	8.45
271.924	8.08
272.138	8.33
272.353	8.31
272.567	8.14
272.781	8.02
272.996	7.59
273.21	7.57
273.424	7.82
273.638	7.33
273.853	7.87
274.067	7.55
274.281	8.17
274.495	8.34
274.71	8.27
274.924	8.21
275.138	8.32
275.352	8.54
275.566	8.54
275.781	8.17
275.995	8.73
276.209	8.45
276.423	8.88
276.637	8.65
276.851	8.82
277.065	8.97
277.279	9.61
277.493	9.62
277.707	9.62
277.921	9.3
278.135	9.11
278.349	9.29
278.563	9.53
278.777	9.24
278.991	9.13
279.205	9.4
279.419	9.05
279.633	8.36
279.847	8.58
280.061	8.68
280.275	9.02
280.489	9.65
280.703	9.2
280.917	8.71
281.131	8.94
281.344	9.02
281.558	8.3
281.772	8.6
281.986	9.09
282.2	9.09
282.414	8.78
282.627	8.39
282.841	8.14
283.055	8.15
283.269	8.44
283.482	8.25
283.696	8.12
283.91	8.1
284.123	7.83
284.337	7.48
284.551	7.55
284.764	7.86
284.978	8.26
285.192	8.05
285.405	8.22
285.619	8.28
285.833	8.35
286.046	7.97
286.26	8.5
286.473	8.46
286.687	8.64
286.9	8.79
287.114	8.53
287.327	8.05
287.541	8.05
287.754	8.16
287.968	8.04
288.181	7.73
288.395	8.59
288.608	8.05
288.822	7.91
289.035	7.48
289.248	6.88
289.462	7.21
289.675	7.32
289.889	7.48
290.102	7.22
290.315	6.97
290.529	7.56
290.742	6.91
290.955	7.38
291.169	7.66
291.382	8.4
291.595	9.17
291.808	8.75
292.022	8.87
292.235	8.34
292.448	8.66
292.661	8.64
292.875	8.15
293.088	8.42
293.301	8.32
293.514	8.15
293.727	7.8
293.94	7.51
294.153	7.48
294.367	7.37
294.58	7.45
294.793	7.13
295.006	7.38
295.219	7.88
295.432	7.83
295.645	8.03
295.858	7.9
296.071	7.88
296.284	7.53
296.497	7.59
296.71	7.73
296.923	8.01
297.136	8.02
297.349	8.33
297.562	7.89
297.775	7.93
297.988	7.79
298.201	8.4
298.414	8.52
298.626	9.24
298.839	9.51
299.052	9.23
299.265	8.99
299.478	8.94
299.691	8.78
299.903	8.8
300.116	9.01
300.329	8.54
300.542	8.11
300.755	8.34
300.967	8.6
301.18	9.01
301.393	9.03
301.605	8.76
301.818	8.77
302.031	8.79
302.243	9.06
302.456	8.91
302.669	8.91
302.881	8.81
303.094	8.42
303.307	7.9
303.519	7.92
303.732	8.34
303.944	8.73
304.157	8.8
304.37	8.97
304.582	8.69
304.795	8.71
305.007	9.17
305.22	9.39
305.432	9.2
305.645	9.17
305.857	8.61
306.069	8.77
306.282	8.61
306.494	8.61
306.707	8.63
306.919	8.52
307.132	8.6
307.344	8.72
307.556	8.72
307.769	8.96
307.981	9.09
308.193	8.83
308.406	8.17
308.618	8.63
308.83	8.78
309.043	8.23
309.255	8.53
309.467	8.2
309.679	7.89
309.892	7.87
310.104	7.74
310.316	7.65
310.528	7.79
310.74	7.94
310.953	7.53
311.165	7.18
311.377	6.99
311.589	7.01
311.801	7.2
312.013	7.29
312.225	7.47
312.437	7.93
312.649	7.93
312.862	8.01
313.074	8.3
313.286	8.04
313.498	8.28
313.71	9.19
313.922	8.9
314.134	8.49
314.346	8.53
314.558	8.34
314.77	8.04
314.982	8.15
315.193	8.52
315.405	8.16
315.617	8.19
315.829	8.34
316.041	8.01
316.253	8.52
316.465	9.06
316.677	8.95
316.888	9.45
317.1	9.28
317.312	9.43
317.524	9.25
317.736	10.26
317.947	10.89
318.159	11.48
318.371	11.76
318.583	11.61
318.794	11.44
319.006	11.85
319.218	11.29
319.43	11.67
319.641	11.99
319.853	12.57
320.064	12.21
320.276	11.83
320.488	10.91
320.699	11.11
320.911	11.03
321.123	11.11
321.334	11.29
321.546	11.38
321.757	11.33
321.969	10.99
322.18	10.18
322.392	9.62
322.603	9.45
322.815	9.62
323.026	9.29
323.238	9.36
323.449	9.39
323.661	8.91
323.872	9.13
324.083	8.9
324.295	8.89
324.506	8.78
324.718	9.19
324.929	9.6
325.14	9.92
325.352	9.49
325.563	9.58
325.774	9.92
325.986	10.27
326.197	9.93
326.408	10.1
326.62	10.14
326.831	10.52
327.042	10.27
327.253	10.35
327.464	9.85
327.676	10.32
327.887	9.87
328.098	9.41
328.309	9.39
328.52	9.73
328.732	9.76
328.943	9.82
329.154	9.69
329.365	9.95
329.576	9.65
329.787	10.23
329.998	10.37
330.209	10.81
330.42	10.99
330.631	11.07
330.842	10.9
331.053	10.69
331.264	10.64
331.475	10.47
331.686	10.43
331.897	10.63
332.108	10.54
332.319	10.54
332.53	10.09
332.741	10.22
332.952	9.97
333.163	9.98
333.374	9.93
333.585	9.61
333.795	9.76
334.006	9.86
334.217	9.87
334.428	9.6
334.639	9.57
334.849	9.85
335.06	9.61
335.271	9.52
335.482	9.54
335.692	9.78
335.903	10.01
336.114	9.66
336.325	9.45
336.535	9.48
336.746	9.72
336.957	9.47
337.167	9.68
337.378	9.56
337.589	9.75
337.799	9.54
338.01	9.9
338.22	9.86
338.431	10.03
338.642	10.15
338.852	10.41
339.063	10.43
339.273	10.64
339.484	10.34
339.694	10.33
339.905	10.36
340.115	10.98
340.326	10.85
340.536	10.95
340.746	11.13
340.957	10.8
341.167	10.51
341.378	10.1
341.588	9.7
341.799	10
342.009	10.06
342.219	9.58
342.43	9.48
342.64	9.29
342.85	9.39
343.061	9.27
343.271	9.69
343.481	9.87
343.691	9.84
343.902	9.87
344.112	9.56
344.322	9.76
344.532	10.05
344.743	9.64
344.953	9.59
345.163	9.35
345.373	9.19
345.583	8.94
345.793	8.78
346.004	9.27
346.214	9.39
346.424	9.48
346.634	9.16
346.844	9.29
347.054	9.36
347.264	9.89
347.474	10.08
347.684	10.35
347.894	10.91
348.104	10.87
348.314	10.83
348.524	10.64
348.734	10.75
348.944	11.02
349.154	10.88
349.364	10.39
349.574	9.61
349.784	9.5
349.994	9.54
350.204	9.43
350.413	9.99
350.623	9.94
350.833	10.7
351.043	10.29
351.253	10.14
351.463	9.95
351.672	10.21
351.882	10.56
352.092	10.49
352.302	10.12
352.511	9.92
352.721	9.23
352.931	8.87
353.141	8.55
353.35	8.97
353.56	9.08
353.77	9.21
353.979	9.6
354.189	9.23
354.399	9.05
354.608	9.16
354.818	9.12
355.027	9.21
355.237	9.21
355.447	8.92
355.656	8.82
355.866	8.57
356.075	8.57
356.285	8.22
356.494	8.33
356.704	8.29
356.913	8.23
357.123	8.18
357.332	7.85
357.542	8.07
357.751	8.22
357.96	8.04
358.17	7.97
358.379	8.14
358.589	8.2
358.798	8.23
359.007	8.03
359.217	8.09
359.426	7.86
359.635	8.09
359.845	7.87
360.054	7.95
360.263	8.02
360.472	7.9
360.682	7.72
360.891	7.86
361.1	7.9
361.309	8.16
361.519	8.33
361.728	8.44
361.937	8.48
362.146	8.65
362.355	8.4
362.564	8.17
362.774	8.5
362.983	8.65
363.192	8.57
363.401	8.31
363.61	8.12
363.819	8.04
364.028	7.76
364.237	7.51
364.446	7.22
364.655	7.27
364.864	7.56
365.073	7.53
365.282	7.33
365.491	7.2
365.7	7.37
365.909	7.61
366.118	7.56
366.327	7.73
366.536	8.1
366.745	8.41
366.954	8.38
367.162	8.3
367.371	8.12
367.58	8.13
367.789	8.01
367.998	7.84
368.207	8.01
368.415	7.63
368.624	7.78
368.833	7.52
369.042	7.24
369.25	7.33
369.459	7.27
369.668	7.2
369.877	7.22
370.085	7.24
370.294	7.37
370.503	6.97
370.711	7.47
370.92	7.21
371.129	7.1
371.337	7.1
371.546	6.84
371.754	7.05
371.963	7.06
372.171	6.96
372.38	7.11
372.589	7.11
372.797	7.38
373.006	6.88
373.214	7.4
373.423	7.49
373.631	7.32
373.84	7.32
374.048	7.12
374.256	7.09
374.465	7.26
374.673	7.1
374.882	7.2
375.09	6.93
375.298	6.75
375.507	6.36
375.715	6.4
375.923	6.6
376.132	6.7
376.34	6.48
376.548	6.76
376.757	6.58
376.965	6.83
377.173	6.77
377.381	6.81
377.59	7.25
377.798	7.44
378.006	7.33
378.214	7.47
378.423	7.46
378.631	7.52
378.839	7.42
379.047	7.35
379.255	7.18
379.463	6.94
379.671	6.76
379.879	6.69
380.088	6.8
380.296	6.93
380.504	6.95
380.712	7.11
380.92	6.99
381.128	6.92
381.336	6.93
381.544	6.65
381.752	6.67
381.96	6.88
382.168	6.74
382.376	6.84
382.584	6.67
382.791	6.44
382.999	6.37
383.207	6.3
383.415	6.34
383.623	6.55
383.831	6.68
384.039	6.69
384.247	6.85
384.454	6.85
384.662	6.53
384.87	6.49
385.078	6.36
385.285	6.25
385.493	6.35
385.701	6.04
385.909	5.86
386.116	5.87
386.324	5.76
386.532	5.32
386.739	5.17
386.947	5.29
387.155	5.28
387.362	5.41
387.57	5.27
387.778	5.33
387.985	5.37
388.193	5.2
388.4	5.17
388.608	5.46
388.816	5.53
389.023	5.74
389.231	5.52
389.438	5.54
389.646	5.62
389.853	5.76
390.061	5.67
390.268	5.67
390.475	5.74
390.683	5.81
390.89	5.54
391.098	5.7
391.305	5.57
391.512	5.47
391.72	5.51
391.927	5.4
392.135	5.22
392.342	5.23
392.549	5.33
392.756	5.47
392.964	5.45
393.171	5.52
393.378	5.4
393.586	5.54
393.793	5.67
394	5.45
394.207	5.55
394.414	5.68
394.622	5.83
394.829	5.85
395.036	5.72
395.243	5.62
395.45	5.74
395.657	5.83
395.864	5.83
396.072	5.8
396.279	5.94
396.486	5.94
396.693	6.01
396.9	5.85
397.107	5.89
397.314	6.09
397.521	6.04
397.728	6.04
397.935	6.25
398.142	6.18
398.349	6
398.556	6.15
398.763	5.89
398.97	5.85
399.177	5.95
399.383	5.8
399.59	5.62
399.797	5.63
400.004	5.49
400.211	5.22
400.418	5.13
400.625	5.23
400.831	4.95
401.038	5.07
401.245	4.89
401.452	4.9
401.658	4.78
401.865	4.82
402.072	4.74
402.279	4.7
402.485	4.77
402.692	4.79
402.899	4.8
403.105	4.95
403.312	4.87
403.519	5.05
403.725	4.78
403.932	4.82
404.138	4.62
404.345	4.61
404.552	4.62
404.758	4.62
404.965	4.56
405.171	4.57
405.378	4.53
405.584	4.45
405.791	4.29
405.997	4.47
406.204	4.6
406.41	4.73
406.617	4.74
406.823	5.01
407.029	4.91
407.236	5.03
407.442	5.14
407.649	5.14
407.855	5.16
408.061	4.99
408.268	5.01
408.474	4.86
408.68	4.9
408.887	5.05
409.093	4.78
409.299	4.91
409.505	4.79
409.712	4.6
409.918	4.46
410.124	4.61
410.33	4.67
410.537	4.64
410.743	4.68
410.949	4.64
411.155	4.59
411.361	4.6
411.567	4.57
411.773	4.54
411.98	4.67
412.186	4.73
412.392	4.7
412.598	4.91
412.804	4.69
413.01	4.68
413.216	4.63
413.422	4.68
413.628	4.64
413.834	4.51
414.04	4.43
414.246	4.19
414.452	4.3
414.658	4.3
414.864	4.25
415.07	4.4
415.275	4.51
415.481	4.5
415.687	4.34
415.893	4.31
416.099	4.23
416.305	4.25
416.511	4.41
416.716	4.41
416.922	4.38
417.128	4.44
417.334	4.43
417.539	4.24
417.745	4.22
417.951	4.3
418.157	4.33
418.362	4.28
418.568	4.2
418.774	4.13
418.979	4.08
419.185	4.03
419.391	3.88
419.596	3.83
419.802	3.86
420.008	3.87
420.213	4.43
420.419	4.44
420.624	4.4
420.83	4.36
421.035	4.3
421.241	4.28
421.446	4.26
421.652	4.28
421.857	4.31
422.063	4.3
422.268	4.22
422.474	3.59
422.679	3.56
422.885	3.6
423.09	3.65
423.295	3.76
423.501	3.71
423.706	3.67
423.911	3.65
424.117	3.76
424.322	3.8
424.527	3.86
424.733	3.92
424.938	3.94
425.143	3.98
425.349	4.06
425.554	4.01
425.759	4.04
425.964	4.14
426.169	4.17
426.375	4.03
426.58	4.08
426.785	4.14
426.99	4.03
427.195	4.05
427.4	3.96
427.605	3.91
427.811	3.95
428.016	3.94
428.221	3.91
428.426	3.87
428.631	3.87
428.836	3.79
429.041	3.74
429.246	3.74
429.451	3.73
429.656	3.8
429.861	3.86
430.066	3.88
430.271	3.98
430.476	3.97
430.681	4.07
430.886	4.03
431.09	4.13
431.295	4.09
431.5	4.06
431.705	4.06
431.91	4.15
432.115	4.03
432.32	3.91
432.524	3.84
432.729	3.89
432.934	3.84
433.139	3.87
433.343	3.84
433.548	3.89
433.753	3.93
433.958	3.86
434.162	3.82
434.367	3.8
434.572	3.91
434.776	3.87
434.981	3.8
435.186	3.74
435.39	3.68
435.595	3.67
435.799	3.61
436.004	3.69
436.209	3.61
436.413	3.55
436.618	3.53
436.822	3.46
437.027	3.57
437.231	3.56
437.436	3.56
437.64	3.61
437.845	3.51
438.049	3.55
438.253	3.53
438.458	3.56
438.662	3.61
438.867	3.74
439.071	3.84
439.275	3.74
439.48	3.73
439.684	3.71
439.888	3.67
440.093	3.74
440.297	3.62
440.501	3.48
440.706	3.51
440.91	3.54
441.114	3.49
441.318	3.31
441.523	3.4
441.727	3.48
441.931	3.6
442.135	3.67
442.339	3.63
442.543	3.78
442.748	3.82
442.952	3.77
443.156	3.62
443.36	3.58
443.564	3.62
443.768	3.54
443.972	3.45
444.176	3.41
444.38	3.37
444.584	3.37
444.788	3.33
444.992	3.33
445.196	3.4
445.4	3.47
445.604	3.39
445.808	3.43
446.012	3.49
446.216	3.5
446.42	3.47
446.624	3.43
446.828	3.43
447.032	3.44
447.235	3.55
447.439	3.56
447.643	3.57
447.847	3.75
448.051	3.8
448.254	3.73
448.458	3.73
448.662	3.82
448.866	3.82
449.069	3.76
449.273	3.68
449.477	3.61
449.681	3.63
449.884	3.62
450.088	3.62
450.292	3.66
450.495	3.6
450.699	3.66
450.902	3.58
451.106	3.62
451.31	3.62
451.513	3.7
451.717	3.68
451.92	3.62
452.124	3.54
452.327	3.44
452.531	3.34
452.734	3.4
452.938	3.38
453.141	3.48
453.345	3.43
453.548	3.44
453.752	3.45
453.955	3.53
454.158	3.52
454.362	3.54
454.565	3.69
454.769	3.75
454.972	3.89
455.175	3.9
455.379	3.85
455.582	3.94
455.785	3.95
455.988	4.01
456.192	3.89
456.395	3.86
456.598	3.85
456.801	3.74
457.005	3.69
457.208	3.57
457.411	3.55
457.614	3.49
457.817	3.47
458.021	3.48
458.224	3.45
458.427	3.41
458.63	3.46
458.833	3.49
459.036	3.5
459.239	3.49
459.442	3.44
459.645	3.39
459.848	3.37
460.051	3.34
460.254	3.43
460.457	3.39
460.66	3.56
460.863	3.52
461.066	3.51
461.269	3.46
461.472	3.54
461.675	3.54
461.878	3.68
462.081	3.79
462.284	3.93
462.486	3.71
462.689	3.7
462.892	3.54
463.095	3.6
463.298	3.67
463.5	3.66
463.703	3.59
463.906	3.76
464.109	3.69
464.311	3.69
464.514	3.78
464.717	3.96
464.92	3.99
465.122	4.04
465.325	4.02
465.528	3.97
465.73	4.12
465.933	4.17
466.135	4.08
466.338	4.09
466.541	4.07
466.743	3.84
466.946	3.76
467.148	3.83
467.351	3.78
467.553	3.77
467.756	3.78
467.958	3.76
468.161	3.72
468.363	3.68
468.566	3.75
468.768	3.8
468.971	3.81
469.173	3.86
469.375	3.76
469.578	3.64
469.78	3.68
469.983	3.64
470.185	3.6
470.387	3.57
470.59	3.62
470.792	3.48
470.994	3.47
471.196	3.51
471.399	3.48
471.601	3.51
471.803	3.67
472.005	3.67
472.208	3.68
472.41	3.61
472.612	3.56
472.814	3.53
473.016	3.62
473.218	3.61
473.421	3.51
473.623	3.54
473.825	3.44
474.027	3.34
474.229	3.27
474.431	3.25
474.633	3.2
474.835	3.24
475.037	3.27
475.239	3.22
475.441	3.21
475.643	3.3
475.845	3.32
476.047	3.43
476.249	3.52
476.451	3.55
476.653	3.53
476.855	3.58
477.057	3.59
477.258	3.58
477.46	3.53
477.662	3.58
477.864	3.58
478.066	3.47
478.268	3.45
478.469	3.43
478.671	3.41
478.873	3.49
479.075	3.42
479.276	3.41
479.478	3.38
479.68	3.55
479.882	3.42
480.083	3.38
480.285	3.44
480.487	3.38
480.688	3.33
480.89	3.31
481.091	3.26
481.293	3.23
481.495	3.2
481.696	3.21
481.898	3.17
482.099	3.17
482.301	3.19
482.502	3.17
482.704	3.17
482.905	3.2
483.107	3.2
483.308	3.18
483.51	3.21
483.711	3.22
483.913	3.22
484.114	3.23
484.315	3.24
484.517	3.24
484.718	3.23
484.92	3.25
485.121	3.22
485.322	3.22
485.524	3.24
485.725	3.25
485.926	3.22
486.127	3.24
486.329	3.21
486.53	3.21
486.731	3.18
486.932	3.2
487.134	3.21
487.335	3.2
487.536	3.22
487.737	3.26
487.938	3.26
488.139	3.26
488.341	3.22
488.542	3.21
488.743	3.2
488.944	3.21
489.145	3.19
489.346	3.17
489.547	3.2
489.748	3.18
489.949	3.13
490.15	3.16
490.351	3.17
490.552	3.2
490.753	3.23
490.954	3.26
491.155	3.27
491.356	3.25
491.557	3.31
491.758	3.31
491.959	3.36
492.159	3.41
492.36	3.41
492.561	3.44
492.762	3.44
492.963	3.42
493.164	3.38
493.364	3.38
493.565	3.38
493.766	3.36
493.967	3.38
494.167	3.3
494.368	3.23
494.569	3.22
494.769	3.22
494.97	3.15
495.171	3.21
495.371	3.28
495.572	3.39
495.773	3.46
495.973	3.5
496.174	3.49
496.375	3.63
496.575	3.67
496.776	3.74
496.976	3.77
497.177	3.87
497.377	3.82
497.578	3.86
497.778	3.79
497.979	3.87
498.179	3.76
498.38	3.75
498.58	3.66
498.78	3.66
498.981	3.63
499.181	3.61
499.382	3.67
499.582	3.65
499.782	3.65
499.983	3.68
500.183	3.63
500.383	3.7
500.584	3.69
500.784	3.7
500.984	3.74
501.184	3.64
501.385	3.57
501.585	3.53
501.785	3.56
501.985	3.48
502.185	3.55
502.386	3.56
502.586	3.48
502.786	3.63
502.986	3.68
503.186	3.67
503.386	3.74
503.586	3.87
503.786	3.91
503.987	3.94
504.187	3.96
504.387	3.91
504.587	3.94
504.787	4.03
504.987	3.97
505.187	3.94
505.387	3.96
505.587	4.03
505.786	4
505.986	4.02
506.186	4.06
506.386	4.08
506.586	4.13
506.786	4.12
506.986	4.14
507.186	4.16
507.386	4.17
507.585	4.22
507.785	4.2
507.985	4.22
508.185	4.23
508.384	4.22
508.584	4.29
508.784	4.26
508.984	4.29
509.183	4.27
509.383	4.31
509.583	4.43
509.782	4.41
509.982	4.41
510.182	4.4
510.381	4.46
510.581	4.49
510.781	4.48
510.98	4.49
511.18	4.5
511.379	4.46
511.579	4.36
511.778	4.24
511.978	4.15
512.177	4.19
512.377	4.29
512.576	4.21
512.776	4.17
512.975	4.27
513.175	4.34
513.374	4.38
513.573	4.42
513.773	4.51
513.972	4.61
514.172	4.78
514.371	4.84
514.57	4.85
514.77	4.94
514.969	5
515.168	4.91
515.367	4.96
515.567	4.91
515.766	4.96
515.965	5.01
516.164	4.96
516.364	5.04
516.563	5.06
516.762	5.03
516.961	5.03
517.16	5.07
517.359	5.08
517.559	5.05
517.758	5.1
517.957	5.16
518.156	5.18
518.355	5.28
518.554	5.29
518.753	5.29
518.952	5.31
519.151	5.36
519.35	5.45
519.549	5.45
519.748	5.46
519.947	5.51
520.146	5.5
520.345	5.53
520.544	5.4
520.743	5.45
520.942	5.42
521.141	5.49
521.339	5.55
521.538	5.54
521.737	5.61
521.936	5.7
522.135	5.73
522.333	5.74
522.532	5.77
522.731	5.91
522.93	5.85
523.129	5.88
523.327	5.85
523.526	5.82
523.725	5.85
523.923	5.84
524.122	5.92
524.321	5.94
524.519	5.99
524.718	6
524.917	5.95
525.115	5.93
525.314	5.9
525.512	5.92
525.711	5.95
525.909	5.94
526.108	5.99
526.306	5.93
526.505	5.9
526.703	5.92
526.902	5.92
527.1	5.92
527.299	5.94
527.497	5.97
527.696	6
527.894	6.01
528.092	6.04
528.291	6.05
528.489	6.09
528.688	6.14
528.886	6.15
529.084	6.16
529.283	6.23
529.481	6.32
529.679	6.38
529.877	6.42
530.076	6.42
530.274	6.41
530.472	6.44
530.67	6.52
530.869	6.51
531.067	6.55
531.265	6.57
531.463	6.61
531.661	6.59
531.859	6.61
532.057	6.62
532.255	6.64
532.454	6.61
532.652	6.64
532.85	6.65
533.048	6.7
533.246	6.7
533.444	6.74
533.642	6.76
533.84	6.78
534.038	6.82
534.236	6.84
534.434	6.88
534.632	6.94
534.83	6.96
535.027	6.96
535.225	6.95
535.423	7
535.621	7.05
535.819	7.09
536.017	7.1
536.215	7.14
536.412	7.24
536.61	7.31
536.808	7.36
537.006	7.34
537.203	7.39
537.401	7.4
537.599	7.45
537.797	7.52
537.994	7.55
538.192	7.67
538.39	7.71
538.587	7.67
538.785	7.64
538.983	7.71
539.18	7.73
539.378	7.72
539.575	7.78
539.773	7.81
539.97	7.79
540.168	7.84
540.366	7.84
540.563	7.86
540.761	7.89
540.958	7.98
541.155	8.01
541.353	8.08
541.55	8.12
541.748	8.17
541.945	8.17
542.143	8.21
542.34	8.2
542.537	8.29
542.735	8.33
542.932	8.39
543.129	8.31
543.327	8.31
543.524	8.4
543.721	8.41
543.919	8.44
544.116	8.47
544.313	8.51
544.51	8.5
544.708	8.45
544.905	8.48
545.102	8.49
545.299	8.56
545.496	8.67
545.693	8.65
545.891	8.71
546.088	8.69
546.285	8.72
546.482	8.77
546.679	8.85
546.876	8.92
547.073	9.04
547.27	9.05
547.467	9.15
547.664	9.13
547.861	9.19
548.058	9.27
548.255	9.35
548.452	9.54
548.649	9.64
548.846	9.66
549.043	9.69
549.24	9.59
549.437	9.69
549.633	9.72
549.83	9.75
550.027	9.78
550.224	9.98
550.421	10.06
550.618	9.99
550.814	10.08
551.011	10.16
551.208	10.14
551.405	10.31
551.601	10.43
551.798	10.42
551.995	10.49
552.191	10.49
552.388	10.26
552.585	10.36
552.781	10.47
552.978	10.48
553.175	10.46
553.371	10.6
553.568	10.59
553.764	10.65
553.961	10.77
554.157	10.82
554.354	10.98
554.55	11.23
554.747	11.29
554.943	11.24
555.14	11.24
555.336	11.31
555.533	11.36
555.729	11.47
555.926	11.47
556.122	11.56
556.318	11.68
556.515	11.75
556.711	11.85
556.907	11.92
557.104	12
557.3	12.11
557.496	12.11
557.693	12.21
557.889	12.26
558.085	12.24
558.281	12.34
558.478	12.23
558.674	12.29
558.87	12.3
559.066	12.34
559.262	12.52
559.459	12.58
559.655	12.75
559.851	12.87
560.047	13.04
560.243	13.15
560.439	13.12
560.635	13.35
560.831	13.36
561.027	13.41
561.223	13.42
561.419	13.42
561.615	13.4
561.811	13.56
562.007	13.62
562.203	13.64
562.399	13.73
562.595	13.74
562.791	13.87
562.987	14.01
563.183	14.14
563.379	14.27
563.575	14.36
563.771	14.59
563.966	14.64
564.162	14.68
564.358	14.79
564.554	14.81
564.75	14.95
564.945	14.92
565.141	15
565.337	15.05
565.533	15.15
565.728	15.24
565.924	15.23
566.12	15.29
566.315	15.47
566.511	15.38
566.707	15.56
566.902	15.65
567.098	15.77
567.293	15.92
567.489	15.98
567.684	16.07
567.88	16.18
568.076	16.26
568.271	16.27
568.467	16.21
568.662	16.47
568.858	16.5
569.053	16.56
569.248	16.7
569.444	16.62
569.639	16.71
569.835	16.76
570.03	16.87
570.225	16.89
570.421	16.95
570.616	17.14
570.812	17.12
571.007	17.13
571.202	17.25
571.397	17.25
571.593	17.39
571.788	17.43
571.983	17.52
572.178	17.62
572.374	17.7
572.569	17.82
572.764	17.83
572.959	17.9
573.154	18.06
573.35	18.14
573.545	18.23
573.74	18.27
573.935	18.36
574.13	18.4
574.325	18.36
574.52	18.49
574.715	18.55
574.91	18.6
575.105	18.67
575.3	18.68
575.495	18.73
575.69	18.79
575.885	18.94
576.08	18.97
576.275	19.04
576.47	19.2
576.665	19.35
576.86	19.46
577.055	19.49
577.25	19.63
577.444	19.8
577.639	19.8
577.834	19.9
578.029	19.77
578.224	19.88
578.418	20.11
578.613	20.2
578.808	20.26
579.003	20.34
579.197	20.43
579.392	20.4
579.587	20.45
579.781	20.61
579.976	20.81
580.171	21.04
580.365	21.06
580.56	21
580.755	20.94
580.949	21.04
581.144	21.09
581.338	21.04
581.533	21.09
581.727	21.18
581.922	21.29
582.116	21.22
582.311	21.2
582.505	21.34
582.7	21.32
582.894	21.44
583.089	21.35
583.283	21.46
583.478	21.63
583.672	21.72
583.866	21.73
584.061	21.8
584.255	21.86
584.449	22.02
584.644	21.98
584.838	22.14
585.032	22.21
585.226	22.49
585.421	22.51
585.615	22.65
585.809	22.75
586.003	22.77
586.198	22.73
586.392	22.87
586.586	22.82
586.78	23.04
586.974	22.96
587.168	22.9
587.363	22.81
587.557	22.83
587.751	22.99
587.945	23.16
588.139	23.21
588.333	23.37
588.527	23.37
588.721	23.58
588.915	23.51
589.109	23.63
589.303	23.8
589.497	23.88
589.691	23.86
589.885	23.77
590.079	23.66
590.273	23.8
590.466	23.84
590.66	23.76
590.854	23.74
591.048	23.81
591.242	23.96
591.436	23.92
591.629	24.06
591.823	24.13
592.017	24.23
592.211	24.32
592.404	24.24
592.598	24.3
592.792	24.34
592.986	24.31
593.179	24.43
593.373	24.5
593.567	24.63
593.76	24.53
593.954	24.69
594.147	24.85
594.341	24.98
594.535	25.14
594.728	25.02
594.922	25.16
595.115	25.25
595.309	25.2
595.502	25.14
595.696	25.17
595.889	25.22
596.083	25.25
596.276	25.18
596.47	25.16
596.663	25.13
596.856	25.23
597.05	25.2
597.243	25.24
597.437	25.27
597.63	25.39
597.823	25.35
598.017	25.47
598.21	25.37
598.403	25.41
598.596	25.57
598.79	25.8
598.983	26.09
599.176	26.2
599.369	26.25
599.563	26.5
599.756	26.46
599.949	26.48
600.142	26.44
600.335	26.66
600.528	26.69
600.722	26.68
600.915	26.64
601.108	26.55
601.301	26.67
601.494	26.65
601.687	26.65
601.88	26.7
602.073	26.83
602.266	26.82
602.459	26.85
602.652	26.86
602.845	26.82
603.038	26.65
603.231	26.68
603.424	26.68
603.617	26.69
603.809	26.63
604.002	26.64
604.195	26.67
604.388	26.67
604.581	26.74
604.774	26.67
604.966	26.61
605.159	26.73
605.352	26.66
605.545	26.58
605.737	26.73
605.93	26.8
606.123	26.96
606.316	27.15
606.508	27.25
606.701	27.23
606.894	27.46
607.086	27.75
607.279	27.78
607.471	27.71
607.664	27.8
607.857	27.72
608.049	27.82
608.242	27.72
608.434	27.47
608.627	27.46
608.819	27.41
609.012	27.44
609.204	27.28
609.397	27.36
609.589	27.51
609.782	27.56
609.974	27.53
610.166	27.54
610.359	27.67
610.551	27.91
610.743	28
610.936	28.13
611.128	28.13
611.32	28.2
611.513	28.29
611.705	28.25
611.897	28.23
612.09	28.42
612.282	28.47
612.474	28.47
612.666	28.33
612.858	28.52
613.051	28.5
613.243	28.59
613.435	28.44
613.627	28.37
613.819	28.53
614.011	28.87
614.203	28.74
614.395	28.69
614.588	28.64
614.78	28.82
614.972	28.73
615.164	28.7
615.356	28.51
615.548	28.53
615.74	28.54
615.932	28.48
616.124	28.11
616.315	28.35
616.507	28.49
616.699	28.46
616.891	28.41
617.083	28.46
617.275	28.57
617.467	28.59
617.659	28.7
617.85	28.73
618.042	28.64
618.234	28.66
618.426	28.43
618.618	28.33
618.809	28.44
619.001	28.5
619.193	28.43
619.384	28.28
619.576	28.39
619.768	28.35
619.959	28.37
620.151	28.77
620.343	28.84
620.534	28.98
620.726	28.9
620.917	28.97
621.109	28.88
621.301	28.78
621.492	29.1
621.684	29.06
621.875	29.07
622.067	29.11
622.258	28.83
622.45	28.75
622.641	28.57
622.832	28.78
623.024	28.67
623.215	28.62
623.407	28.86
623.598	28.57
623.789	28.58
623.981	28.62
624.172	28.76
624.363	28.83
624.555	29.03
624.746	29.2
624.937	29.23
625.129	29.31
625.32	29.43
625.511	29.5
625.702	29.51
625.893	29.71
626.085	29.86
626.276	29.77
626.467	29.75
626.658	29.77
626.849	29.84
627.04	29.79
627.231	29.8
627.422	29.79
627.614	29.67
627.805	29.85
627.996	29.66
628.187	29.66
628.378	29.67
628.569	29.84
628.76	29.82
628.951	29.73
629.142	29.68
629.332	29.76
629.523	29.73
629.714	29.86
629.905	29.83
630.096	29.81
630.287	29.95
630.478	29.91
630.669	29.92
630.859	30.08
631.05	30.23
631.241	30.26
631.432	30.13
631.623	30.3
631.813	30.23
632.004	30.12
632.195	30.24
632.385	30.13
632.576	30.37
632.767	30.41
632.957	30.43
633.148	30.48
633.339	30.49
633.529	30.39
633.72	30.32
633.91	30.42
634.101	30.5
634.292	30.7
634.482	30.72
634.673	30.39
634.863	30.41
635.054	30.42
635.244	30.28
635.435	30.37
635.625	30.43
635.815	30.55
636.006	30.59
636.196	30.55
636.387	30.43
636.577	30.52
636.767	30.83
636.958	30.61
637.148	30.71
637.338	30.95
637.529	31.12
637.719	31.38
637.909	31.28
638.099	31.09
638.29	31.21
638.48	31.26
638.67	31.27
638.86	31.26
639.05	31.29
639.241	30.9
639.431	30.84
639.621	30.69
639.811	30.58
640.001	30.44
640.191	30.69
640.381	30.61
640.571	30.63
640.761	30.47
640.951	30.55
641.141	30.73
641.331	30.89
641.521	30.9
641.711	30.96
641.901	31.08
642.091	31.39
642.281	31.19
642.471	31.24
642.661	31.3
642.851	31.6
643.041	31.5
643.231	31.45
643.42	31.51
643.61	31.32
643.8	31.13
643.99	30.81
644.18	30.79
644.369	30.73
644.559	30.94
644.749	30.83
644.939	30.74
645.128	30.68
645.318	30.64
645.508	30.74
645.697	30.98
645.887	30.92
646.076	31.01
646.266	30.97
646.456	31.17
646.645	31.36
646.835	31.46
647.024	31.67
647.214	31.72
647.403	31.73
647.593	31.58
647.782	31.59
647.972	31.72
648.161	32.21
648.351	32.15
648.54	31.95
648.73	31.67
648.919	31.53
649.108	31.24
649.298	31.48
649.487	31.56
649.677	31.58
649.866	31.46
650.055	31.61
650.244	31.35
650.434	31.51
650.623	31.81
650.812	31.85
651.002	32.03
651.191	32.11
651.38	31.9
651.569	31.96
651.758	31.91
651.947	32.1
652.137	32.09
652.326	32.41
652.515	32.31
652.704	32.49
652.893	32.53
653.082	32.51
653.271	32.45
653.46	32.48
653.649	32.49
653.838	32.46
654.027	32.52
654.216	32.37
654.405	32.3
654.594	32.36
654.783	32.16
654.972	32.12
655.161	32.33
655.35	32.5
655.539	32.83
655.728	32.87
655.916	33
656.105	32.85
656.294	33.18
656.483	32.85
656.672	33.05
656.86	33.19
657.049	33.29
657.238	33.13
657.427	33.05
657.615	33.08
657.804	33.02
657.993	33.13
658.181	33.24
658.37	33.2
658.559	33.41
658.747	33.27
658.936	33.17
659.125	33.11
659.313	33.19
659.502	33.15
659.69	32.93
659.879	33.04
660.067	33.04
660.256	32.99
660.444	32.92
660.633	33.06
660.821	33.17
661.01	32.93
661.198	32.96
661.387	32.97
661.575	33.06
661.763	33.24
661.952	33.12
662.14	33
662.328	32.92
662.517	33.01
662.705	32.8
662.893	32.72
663.082	32.95
663.27	33.31
663.458	33.08
663.646	33.17
663.834	33.4
664.023	33.5
664.211	33.69
664.399	33.64
664.587	33.44
664.775	33.36
664.963	33.48
665.152	33.5
665.34	33.33
665.528	33.61
665.716	33.71
665.904	33.38
666.092	33.37
666.28	33.29
666.468	33.47
666.656	33.55
666.844	33.63
667.032	33.69
667.22	33.87
667.408	33.84
667.596	33.81
667.784	33.55
667.971	33.5
668.159	33.39
668.347	33.51
668.535	33.46
668.723	33.47
668.911	33.7
669.098	33.62
669.286	33.43
669.474	33.61
669.662	33.93
669.849	34.37
670.037	34.72
670.225	34.85
670.413	34.68
670.6	34.68
670.788	34.73
670.976	34.47
671.163	34.31
671.351	34.25
671.538	34.15
671.726	33.95
671.913	33.57
672.101	33.29
672.289	33.38
672.476	33.35
672.664	33.51
672.851	33.48
673.039	33.74
673.226	33.78
673.413	34.01
673.601	33.97
673.788	33.66
673.976	33.72
674.163	33.97
674.35	33.83
674.538	33.9
674.725	33.86
674.912	33.99
675.1	33.89
675.287	33.88
675.474	34.02
675.662	33.94
675.849	34.4
676.036	34.42
676.223	34.25
676.411	34.13
676.598	34.03
676.785	34.11
676.972	33.84
677.159	33.88
677.346	34.24
677.533	34.23
677.721	34.29
677.908	34.09
678.095	34.15
678.282	34.13
678.469	34.29
678.656	34.77
678.843	34.81
679.03	34.97
679.217	35.09
679.404	35.14
679.591	35.17
679.778	34.75
679.964	34.88
680.151	34.88
680.338	34.77
680.525	35.2
680.712	34.97
680.899	34.94
681.086	34.97
681.272	34.58
681.459	34.3
681.646	34.2
681.833	34.64
682.02	34.37
682.206	34.26
682.393	34.17
682.58	33.85
682.766	33.6
682.953	33.54
683.14	33.63
683.326	34.21
683.513	34.37
683.7	34.15
683.886	34.12
684.073	34.15
684.259	34.25
684.446	34.88
684.632	34.77
684.819	35.12
685.005	35.09
685.192	34.95
685.378	34.8
685.565	34.82
685.751	35.28
685.938	35.18
686.124	35.36
686.31	35.3
686.497	35.32
686.683	35.74
686.87	35.31
687.056	35.11
687.242	35.4
687.429	35.33
687.615	35.35
687.801	34.99
687.987	35.2
688.174	35.33
688.36	35.82
688.546	35.39
688.732	35.03
688.918	35.6
689.105	36.13
689.291	35.95
689.477	35.76
689.663	35.75
689.849	36.15
690.035	35.87
690.221	35.66
690.407	35.42
690.593	35.4
690.779	35.37
690.965	34.92
691.151	34.68
691.337	34.62
691.523	34.89
691.709	34.83
691.895	34.53
692.081	34.85
692.267	35.01
692.453	35.24
692.639	35.38
692.825	35.26
693.011	35.49
693.196	35.35
693.382	35.25
693.568	34.77
693.754	34.65
693.94	34.83
694.125	34.95
694.311	35.04
694.497	34.74
694.682	35.02
694.868	35.21
695.054	35.02
695.239	35.3
695.425	35.53
695.611	35.93
695.796	36.22
695.982	36.29
696.168	35.89
696.353	35.47
696.539	35.48
696.724	35.3
696.91	35.35
697.095	35.57
697.281	35.47
697.466	35.71
697.652	35.75
697.837	35.68
698.023	35.61
698.208	35.65
698.393	35.97
698.579	35.94
698.764	35.84
698.949	35.82
699.135	35.76
699.32	35.72
699.505	35.44
699.691	35.43
699.876	35.31
700.061	34.95
700.246	35.08
700.432	34.74
700.617	34.7
700.802	34.76
700.987	34.88
701.172	35.31
701.358	35.6
701.543	35.57
701.728	35.2
701.913	35.18
702.098	35.28
702.283	35.02
702.468	35.12
702.653	35.13
702.838	35.18
703.023	35.11
703.208	34.38
703.393	34.39
703.578	34.59
703.763	35.17
703.948	35.35
704.133	35.56
704.318	36.24
704.503	36.53
704.688	36.67
704.873	36.74
705.057	36.85
705.242	37.11
705.427	36.53
705.612	36.09
705.797	35.79
705.981	35.96
706.166	35.92
706.351	35.97
706.536	35.95
706.72	35.96
706.905	36.08
707.09	35.41
707.274	35.66
707.459	36.18
707.644	36.4
707.828	36.38
708.013	36.13
708.197	36.43
708.382	36.4
708.567	36.33
708.751	36.24
708.936	36.24
709.12	36.71
709.305	36.49
709.489	36.53
709.673	36.46
709.858	36.24
710.042	36.35
710.227	36.01
710.411	35.57
710.596	35.56
710.78	35.62
710.964	35.76
711.149	35.84
711.333	35.73
711.517	35.39
711.702	35.64
711.886	35.86
712.07	35.72
712.254	35.67
712.438	36.03
712.623	35.92
712.807	35.73
712.991	35.41
713.175	35.4
713.359	35.55
713.544	35.43
713.728	35.54
713.912	35.3
714.096	35.43
714.28	35.54
714.464	35.5
714.648	35.51
714.832	35.81
715.016	35.63
715.2	35.79
715.384	36
715.568	35.96
715.752	35.47
715.936	35.91
716.12	35.91
716.304	36.12
716.488	35.8
716.671	35.8
716.855	35.84
717.039	35.98
717.223	35.75
717.407	35.58
717.59	35.64
717.774	36.02
717.958	35.79
718.142	35.85
718.325	35.54
718.509	36.02
718.693	36.1
718.877	36.17
719.06	36.29
719.244	36.5
719.428	36.16
719.611	36.58
719.795	36.66
719.978	36.79
720.162	36.61
720.345	37.05
720.529	36.59
720.713	36.57
720.896	36.11
721.08	35.76
721.263	35.9
721.446	36.15
721.63	36.16
721.813	35.91
721.997	35.57
722.18	35.91
722.364	35.76
722.547	36.53
722.73	37.03
722.914	37.11
723.097	37.25
723.28	37.12
723.464	37.16
723.647	37.03
723.83	37.24
724.013	37.74
724.197	37.76
724.38	37.35
724.563	36.82
724.746	36.32
724.929	36.55
725.112	36.61
725.296	36.35
725.479	36.45
725.662	36.8
725.845	36.83
726.028	36.16
726.211	36.13
726.394	36.34
726.577	36.45
726.76	36.83
726.943	36.79
727.126	36.72
727.309	37.13
727.492	37.61
727.675	37.39
727.858	37.08
728.041	37.39
728.224	37.38
728.407	37.08
728.589	37.11
728.772	36.54
728.955	36.81
729.138	36.27
729.321	36.02
729.503	35.73
729.686	35.43
729.869	35.58
730.052	35.68
730.234	35.6
730.417	36.13
730.6	35.96
730.782	36.26
730.965	35.64
731.148	36.52
731.33	36.48
731.513	36.27
731.695	36.33
731.878	36.57
732.061	36.41
732.243	36.57
732.426	36.59
732.608	36.87
732.791	36.37
732.973	36.65
733.156	36.84
733.338	36.77
733.52	36.61
733.703	36.32
733.885	35.98
734.068	36.08
734.25	35.8
734.432	35.27
734.615	34.73
734.797	35.22
734.979	34.82
735.162	34.59
735.344	34.56
735.526	34.65
735.708	34.62
735.891	35.14
736.073	35.45
736.255	35.13
736.437	35.33
736.619	35.46
736.802	35.2
736.984	35.76
737.166	36.19
737.348	36.39
737.53	35.93
737.712	36.67
737.894	36.31
738.076	35.99
738.258	36.15
738.44	35.82
738.622	36.1
738.804	36.62
738.986	36.31
739.168	35.42
739.35	35.32
739.532	36.03
739.714	35.51
739.896	35.23
740.078	35.32
740.259	35.87
740.441	36.08
740.623	35.93
740.805	36.32
740.987	36.15
741.168	35.99
741.35	36.07
741.532	35.65
741.714	35.77
741.895	35.94
742.077	35.67
742.259	34.93
742.44	35.12
742.622	35.23
742.804	34.94
742.985	34.96
743.167	35.04
743.348	35.03
743.53	35.33
743.711	35.39
743.893	35.36
744.075	35.99
744.256	36.16
744.438	36.52
744.619	36.34
744.8	35.95
744.982	36
745.163	36.26
745.345	36.12
745.526	36.33
745.707	37.41
745.889	38.16
746.07	37.85
746.252	37.79
746.433	37.17
746.614	37.32
746.795	37.42
746.977	37.48
747.158	37.56
747.339	37.68
747.52	37.25
747.702	36.64
747.883	36.19
748.064	36.21
748.245	36.84
748.426	37.23
748.607	37.31
748.788	37.39
748.97	38.04
749.151	38.69
749.332	38.93
749.513	39.1
749.694	38.18
749.875	38.16
750.056	38.05
750.237	36.94
750.418	37.08
750.599	37.18
750.78	36.47
750.96	36.3
751.141	36.1
751.322	36.18
751.503	36.46
751.684	36.61
751.865	36.73
752.046	36.86
752.226	36.74
752.407	36.2
752.588	36.09
752.769	37.31
752.949	37.42
753.13	37.42
753.311	37.34
753.492	37.58
753.672	38.46
753.853	39.25
754.034	38.61
754.214	39.77
754.395	39.88
754.575	40.15
754.756	39.71
754.937	39.97
755.117	40.5
755.298	39.61
755.478	38.68
755.659	38.76
755.839	38.21
756.02	39.1
756.2	38.56
756.381	38.62
756.561	38.13
756.741	38
756.922	37.15
757.102	35.42
757.283	36.78
757.463	37.17
757.643	36.3
757.823	36.37
758.004	35.83
758.184	35.71
758.364	36.43
758.545	36.84
758.725	36.62
758.905	37.22
759.085	38.3
759.265	37.33
759.446	36.93
759.626	37.55
759.806	37.86
759.986	38.03
760.166	38.15
760.346	38.49
760.526	38.27
760.706	38.27
760.886	38.17
761.066	37.82
761.246	38.1
761.426	37.99
761.606	37.63
761.786	36.87
761.966	37.03
762.146	36.81
762.326	36.59
762.506	36.38
762.686	36.44
762.866	36.56
763.046	36.71
763.225	37.13
763.405	37.59
763.585	37.68
763.765	37.54
763.945	37.15
764.124	37.83
764.304	37.75
764.484	38.31
764.664	38.54
764.843	38.38
765.023	38.74
765.203	37.98
765.382	37.61
765.562	37.86
765.741	38.32
765.921	39.05
766.101	38.85
766.28	38.6
766.46	38.58
766.639	38.2
766.819	37.93
766.998	37.85
767.178	38.2
767.357	38.11
767.537	38.09
767.716	37.99
767.896	36.9
768.075	35.99
768.254	36.32
768.434	35.57
768.613	36.43
768.792	36.51
768.972	36.18
769.151	35.93
769.33	36.24
769.51	36.6
769.689	36.79
769.868	37.98
770.047	39.02
770.226	38.6
770.406	39.28
770.585	39.02
770.764	39.59
770.943	39.17
771.122	39.16
771.301	39.75
771.48	39.8
771.66	39.28
771.839	38.43
772.018	38.68
772.197	38.86
772.376	38.74
772.555	38.65
772.734	38.26
772.913	39.25
773.092	39.58
773.271	38.76
773.449	38.05
773.628	38.46
773.807	39.73
773.986	39.28
774.165	38.46
774.344	38.5
774.523	37.92
774.701	37.64
774.88	37.05
775.059	36.72
775.238	37.07
775.417	37.06
775.595	36.96
775.774	36.37
775.953	36.36
776.131	37.49
776.31	37.02
776.489	37.92
776.667	38.1
776.846	38.47
777.025	38.6
777.203	39
777.382	39.99
777.56	40.05
777.739	40.17
777.917	39.89
778.096	39.36
778.274	39.2
778.453	38.96
778.631	39.11
778.81	38.19
778.988	38.8
779.166	38.37
779.345	37.65
779.523	38.37
779.702	38.9
779.88	39.28
780.058	39.59
780.237	40.53
780.415	39.98
780.593	40.09
780.771	40.17
780.95	40.76
781.128	40.69
781.306	40.1
781.484	38.88
781.662	37.51
781.841	37.35
782.019	36.99
782.197	36.35
782.375	35.5
782.553	35.68
782.731	35.98
782.909	35.76
783.087	36.16
783.265	35.79
783.443	35.98
783.621	36.35
783.799	37.25
783.977	37.46
784.155	37.27
784.333	39.17
784.511	38.77
784.689	39.1
784.867	38.22
785.045	36.73
785.223	37.29
785.4	37.91
785.578	38
785.756	36.59
785.934	36.58
786.112	38.1
786.289	36.9
786.467	36.75
786.645	36.31
786.823	35.58
787	36.65
787.178	36.16
787.356	35.93
787.533	35.91
787.711	36.27
787.889	36.47
788.066	35.17
788.244	35.7
788.421	36.12
788.599	36.32
788.776	36.65
788.954	36.06
789.131	36.43
789.309	36.21
789.486	36.48
789.664	36.44
789.841	36.37
790.019	37.24
790.196	36.62
790.373	37.41
790.551	37.87
790.728	38.35
790.906	39.85
791.083	39.33
791.26	39.4
791.437	39.58
791.615	39.74
791.792	39.43
791.969	38.33
792.146	38.49
792.324	37.34
792.501	36.75
792.678	37.13
792.855	37.14
793.032	38.41
793.209	39.59
793.387	39.35
793.564	39.32
793.741	40.16
793.918	40.36
794.095	41.18
794.272	40.56
794.449	41.31
794.626	41.49
794.803	40.89
794.98	40.51
795.157	39
795.334	38.8
795.511	39.1
795.688	38.61
795.864	37.76
796.041	37.69
796.218	39.43
796.395	38.53
796.572	38.36
796.749	38.51
796.925	38.22
797.102	39.52
797.279	39.48
797.456	39.67
797.632	39.65
797.809	40.54
797.986	40.29
798.162	39.92
798.339	39.76
798.516	39
798.692	38.54
798.869	39.62
799.046	38.63
799.222	39.25
799.399	39.02
799.575	39.24
799.752	39.11
799.928	39.79
800.105	39.56
800.281	40.49
800.458	40.92
800.634	41.05
800.811	40.51
800.987	40.98
801.163	40.57
801.34	41.26
801.516	40.04
801.692	40.14
801.869	39.13
802.045	38.82
802.221	38.28
802.398	38.57
802.574	38.83
802.75	38.77
802.926	37.37
803.103	37.45
803.279	36.14
803.455	37.17
803.631	37.35
803.807	38.12
803.983	37.1
804.16	37.56
804.336	37.62
804.512	37.76
804.688	38.42
804.864	39.43
805.04	38.88
805.216	39.08
805.392	39.4
805.568	39.11
805.744	38.73
805.92	39.35
806.096	39.08
806.272	38.99
806.448	39.26
806.623	38.1
806.799	37.93
806.975	38.56
807.151	39.6
807.327	38.49
807.503	38.87
807.678	38.44
807.854	38.84
808.03	39.04
808.206	38.04
808.381	37.22
808.557	38.87
808.733	39.82
808.908	39.17
809.084	37.52
809.26	38.23
809.435	36.76
809.611	38.78
809.787	36.9
809.962	37.17
810.138	37.75
810.313	38.26
810.489	37
810.664	36.95
810.84	38.22
811.015	38.72
811.191	38.88
811.366	40.33
811.542	37.98
811.717	39.67
811.892	40.02
812.068	40.07
812.243	40.24
812.419	42.09
812.594	40.89
812.769	40.39
812.944	39.83
813.12	39.91
813.295	39.99
813.47	41.18
813.645	41.15
813.821	40.26
813.996	41.89
814.171	40.99
814.346	40.48
814.521	42.1
814.697	42.32
814.872	42.82
815.047	43.32
815.222	44.19
815.397	43.87
815.572	42.72
815.747	42.75
815.922	41.39
816.097	42.03
816.272	39.81
816.447	38.75
816.622	38.99
816.797	39.15
816.972	39.62
817.147	39.27
817.322	40.19
817.496	40.85
817.671	40.56
817.846	41.17
818.021	40.3
818.196	41.58
818.371	41.26
818.545	40.26
818.72	39.89
818.895	39.81
819.069	38.99
819.244	38.94
819.419	39.64
819.594	40.01
819.768	39.62
819.943	40.56
820.117	39.97
820.292	40.15
820.467	40.3
820.641	39.89
820.816	39.55
820.99	39.56
821.165	39.02
821.339	38.41
821.514	38.07
821.688	37.96
821.863	37.47
822.037	37.54
822.212	37.44
822.386	37.21
822.56	37
822.735	36.7
822.909	36.72
823.084	36.98
823.258	37.11
823.432	37.19
823.606	37.15
823.781	37.33
823.955	37.5
824.129	37.52
824.303	37.73
824.478	38.3
824.652	38.63
824.826	38.63
825	37.92
825.174	37.8
825.348	37.62
825.523	37.56
825.697	37.6
825.871	37.58
826.045	37.63
826.219	37.71
826.393	37.44
826.567	37.42
826.741	37.8
826.915	38.53
827.089	38.72
827.263	38.81
827.437	38.8
827.611	38.71
827.784	37.74
827.958	37.53
828.132	37.2
828.306	37.57
828.48	37.45
828.654	36.65
828.827	36.02
829.001	36.28
829.175	37.07
829.349	37.45
829.522	37.32
829.696	38.4
829.87	39.06
830.044	39.6
830.217	40.1
830.391	40.62
830.565	41.15
830.738	42.36
830.912	42.35
831.085	41.34
831.259	41.89
831.432	41.97
831.606	42.06
831.779	41.31
831.953	40.67
832.126	39.3
832.3	39
832.473	38.92
832.647	37.96
832.82	37.6
832.994	37.35
833.167	36.79
833.34	36.53
833.514	37.13
833.687	37
833.86	37.7
834.034	38.62
834.207	38.52
834.38	38.94
834.553	39.68
834.727	39.78
834.9	40.33
835.073	41.16
835.246	41.77
835.419	40.85
835.593	42.08
835.766	41.76
835.939	42.38
836.112	43.47
836.285	42.8
836.458	42.66
836.631	42.05
836.804	42.41
836.977	42.84
837.15	43.94
837.323	45.27
837.496	43.99
837.669	43.31
837.842	41.84
838.015	41.04
838.188	40.21
838.361	38.96
838.533	39.86
838.706	39.23
838.879	36.84
839.052	36.23
839.225	36.64
839.398	37.93
839.57	40.69
839.743	41.45
839.916	41.52
840.088	44.51
840.261	44.71
840.434	45.35
840.607	44.32
840.779	45.56
840.952	46.2
841.124	46.92
841.297	45.2
841.47	43.29
841.642	42.9
841.815	43.18
841.987	40.02
842.16	40.64
842.332	40.01
842.505	41.46
842.677	41.43
842.85	40.74
843.022	39.08
843.194	41.08
843.367	40.32
843.539	38.84
843.712	37.68
843.884	36.41
844.056	35.84
844.229	38.38
844.401	39.64
844.573	39.98
844.745	41.05
844.918	40.51
845.09	40.48
845.262	42.04
845.434	43.13
845.606	45.83
845.779	50.03
845.951	51.1
846.123	47.47
846.295	48.35
846.467	48.86
846.639	50.81
846.811	56.01
846.983	54.96
847.155	54.36
847.327	54.52
847.499	52.96
847.671	52.73
847.843	52.86
848.015	54.73
848.187	58.95
848.359	58.7
848.531	56.96
848.703	52.56
848.875	54.01
849.047	54.55
849.218	54.4
849.39	53.11
849.562	52.65
849.734	53.21
849.905	55.89
850.077	50.56
850.249	52.72
850.421	51.35
850.592	49.88
850.764	51.09
850.936	52.57
851.107	54.16
851.279	57.26
851.451	59.01
851.622	57.68
851.794	52.91
851.965	53.11
852.137	51.85
852.308	52.29
852.48	52.63
852.651	51.16
852.823	49.86
852.994	46.8
853.166	47.06
853.337	45.4
853.509	46.45
853.68	49.67
853.851	51.85
854.023	52.29
854.194	55.39
854.365	56.91
854.537	55.65
854.708	59.92
854.879	61.23
855.05	58.38
855.222	63.13
855.393	61.81
855.564	58.62
855.735	58.65
855.906	54.84
856.078	49.85
856.249	54.93
856.42	56.45
856.591	51.27
856.762	54.89
856.933	60.09
857.104	53.41
857.275	55.27
857.446	55.09
857.617	54.2
857.788	54.96
857.959	57.78
858.13	55.4
858.301	57.56
858.472	58.84
858.643	56.29
858.814	52.27
858.985	50.99
859.155	53
859.326	54.53
859.497	55.87
859.668	60.09
859.839	56.46
860.009	53.99
860.18	49.85
860.351	48.17
860.522	48.73
860.692	53.63
860.863	56.92
861.034	59.29
861.204	58.11
861.375	55.91
861.546	51.27
861.716	52.2
861.887	52.81
862.057	52.34
862.228	50.4
862.398	50.98
862.569	48.29
862.739	51.63
862.91	45.94
863.08	46.25
863.251	48.94
863.421	49.54
863.592	55.35
863.762	53.2
863.932	55.34
864.103	57.62
864.273	59.69
864.443	61.96
864.614	55.29
864.784	57.06
864.954	57.2
865.125	54.02
865.295	54.08
865.465	50.04
865.635	49.64
865.805	53.01
865.976	51.03
866.146	49.86
866.316	45.15
866.486	49.47
866.656	51.43
866.826	50.58
866.996	49.6
867.166	49.38
867.336	51.36
867.506	52.71
867.676	48.23
867.846	48.72
868.016	46.76
868.186	51.14
868.356	50.27
868.526	46.36
868.696	50.58
868.866	51.84
869.036	53.34
869.206	45.59
869.376	47.93
869.545	48.6
869.715	50.12
869.885	49.72
870.055	49.51
870.224	53.22
870.394	56.05
870.564	55.51
870.734	52.3
870.903	51.7
871.073	57.36
871.243	61.14
871.412	61.79
871.582	59.04
871.751	64.5
871.921	62.72
872.091	63.23
872.26	59.12
872.43	54.91
872.599	57.91
872.769	56.06
872.938	52.92
873.108	50.47
873.277	51.73
873.446	56.81
873.616	56.13
873.785	57.82
873.955	53.66
874.124	55.5
874.293	55.54
874.463	54.3
874.632	55.65
874.801	55.25
874.971	54.55
875.14	54.06
875.309	51.66
875.478	50.16
875.647	49.68
875.817	47.91
875.986	52.96
876.155	57.92
876.324	58.43
876.493	58.6
876.662	60.07
876.831	58.91
877	54.74
877.17	55.95
877.339	53.21
877.508	51.62
877.677	54.97
877.846	51.79
878.015	49.08
878.184	48.23
878.352	46.8
878.521	43.85
878.69	43.59
878.859	47.32
879.028	46.71
879.197	46.3
879.366	45.24
879.534	44.7
879.703	42.46
879.872	42.98
880.041	41.99
880.21	40.8
880.378	42.66
880.547	42.15
880.716	41.96
880.884	39.82
881.053	40.71
881.222	41.26
881.39	40.8
881.559	40.69
881.727	40.46
881.896	39.8
882.065	40.28
882.233	39.9
882.402	39.42
882.57	38.76
882.739	39.55
882.907	39.21
883.076	37.96
883.244	37.38
883.412	37.87
883.581	37.45
883.749	38.43
883.918	38.36
884.086	38.6
884.254	40.03
884.423	39.98
884.591	40.56
884.759	40.3
884.927	42.22
885.096	43.09
885.264	42.88
885.432	43.86
885.6	45.79
885.769	44.99
885.937	45.38
886.105	44.74
886.273	46.75
886.441	47.5
886.609	49.33
886.777	47.29
886.945	47.42
887.113	46.93
887.281	47.58
887.449	44.88
887.617	46.65
887.785	48.51
887.953	50.37
888.121	49.69
888.289	48.83
888.457	50.93
888.625	53.45
888.793	53.82
888.961	54.03
889.129	52.24
889.296	53.01
889.464	55.61
889.632	53.99
889.8	50.98
889.967	50.9
890.135	49.77
