Data from 2938500_Reflection_00-18-43-793.txt Node
Date: Wed Jun 17 00:18:43 EDT 2015
User: robert
Spectrometer: USB4E03002
Autoset integration time: false
Trigger mode: 4
Integration Time (sec): 1.000000E-1
Scans to average: 10
Electric dark correction enabled: true
Nonlinearity correction enabled: false
Boxcar width: 5
Stray light correction enabled: false
XAxis mode: Wavelengths
Stop averaging: false
Number of Pixels in Spectrum: 3648
>>>>>Begin Spectral Data<<<<<
177.575	115.39
177.794	5492.59
178.014	75.2
178.233	82.94
178.452	72.08
178.672	33.74
178.891	120.5
179.11	247.31
179.33	351.75
179.549	796.54
179.768	890.64
179.987	214.08
180.207	237.71
180.426	-120.75
180.645	361.29
180.864	1132.59
181.084	-521.17
181.303	-273.21
181.522	-4220.86
181.741	-1525.94
181.96	325.45
182.179	614.49
182.398	-675.23
182.618	-1200
182.837	944.88
183.056	1083.23
183.275	241.79
183.494	400.63
183.713	-566.25
183.932	80.33
184.151	507.53
184.37	471.13
184.589	791.59
184.808	256.39
185.027	435.78
185.246	284.72
185.465	373.29
185.684	402.99
185.903	469.98
186.122	655.95
186.341	556.09
186.56	4152.41
186.779	-538.54
186.998	-472.63
187.216	-122.88
187.435	-102.94
187.654	-61.37
187.873	-79.89
188.092	-142.15
188.311	-196.89
188.53	-159.72
188.748	-362.56
188.967	-130.2
189.186	-583.22
189.405	-118.12
189.623	-573.28
189.842	3405.53
190.061	-6420.63
190.28	727.56
190.498	2778.31
190.717	4220.47
190.936	-11358.41
191.154	-792.29
191.373	20523.19
191.592	29486.05
191.81	1335.32
192.029	704.61
192.248	2711.82
192.466	736.39
192.685	-1352.77
192.904	-306.57
193.122	-342.38
193.341	-784.97
193.559	3989.64
193.778	-1814.66
193.996	-990.8
194.215	445.35
194.433	2108.88
194.652	2986.14
194.87	9468.6
195.089	780.09
195.307	600.31
195.526	543.55
195.744	329.28
195.963	475.28
196.181	741.56
196.399	335.65
196.618	-233.36
196.836	1635.63
197.055	-1020.96
197.273	-125.33
197.491	-15.7
197.71	-37.65
197.928	-48.61
198.146	-65.97
198.365	-71.73
198.583	-105.46
198.801	-62.15
199.019	-85.08
199.238	-126.63
199.456	-138.48
199.674	-216.3
199.892	-143.79
200.111	-219.09
200.329	-377.15
200.547	-15283.33
200.765	-308.25
200.983	-225.1
201.202	-218.87
201.42	-230.83
201.638	-130.77
201.856	-130.81
202.074	-175.26
202.292	-291.95
202.51	-234.99
202.728	-137.36
202.946	-92.15
203.165	-96.34
203.383	-158.4
203.601	-133.87
203.819	-97.94
204.037	-270.75
204.255	-614.9
204.473	-390.95
204.691	-423.19
204.909	-329.71
205.127	-1176.58
205.345	217200
205.562	364.62
205.78	630.96
205.998	1207.92
206.216	-36004.55
206.434	-470.04
206.652	-165.33
206.87	-144.04
207.088	-54.91
207.306	-61.38
207.523	-69.41
207.741	-31.72
207.959	-25.56
208.177	-77.55
208.395	-49.44
208.612	-104.02
208.83	-135.19
209.048	-226.77
209.266	-306.84
209.483	-403.24
209.701	-790.77
209.919	-482.2
210.136	-365.91
210.354	-484.92
210.572	-266.1
210.79	-557.91
211.007	-414.24
211.225	-210.34
211.442	-275.49
211.66	-243.6
211.878	-177.2
212.095	-163.36
212.313	-198.06
212.53	-287.34
212.748	-245.56
212.966	-270.7
213.183	-180.92
213.401	-196.21
213.618	-270.58
213.836	-232.69
214.053	-182.6
214.271	-358.05
214.488	-619.42
214.705	-1447.79
214.923	-425.06
215.14	-391.12
215.358	-1156.23
215.575	418.37
215.793	2963.1
216.01	603.66
216.227	581.23
216.445	782.63
216.662	406.1
216.879	631.28
217.097	632.44
217.314	377.69
217.531	491.47
217.749	652.66
217.966	-331.65
218.183	2358.54
218.4	-1195.52
218.618	-127.48
218.835	-170.78
219.052	-222.62
219.269	-66.03
219.487	-61.81
219.704	-60.05
219.921	-98.53
220.138	-75.29
220.355	-69.71
220.572	-65.15
220.79	-39.01
221.007	-69.5
221.224	-80.14
221.441	-55.46
221.658	-115.36
221.875	-137.61
222.092	-98.9
222.309	-74.32
222.526	-69.81
222.743	-74.12
222.96	-56.54
223.177	-71.04
223.394	-56.45
223.611	-48.08
223.828	-43.56
224.045	-28.9
224.262	-23.37
224.479	-25.08
224.696	-19.92
224.913	-9.39
225.13	-16.13
225.347	-10.53
225.564	-4.84
225.781	-1.88
225.997	-1.13
226.214	2.99
226.431	5.1
226.648	10.09
226.865	9.56
227.082	7.84
227.298	5.06
227.515	6.87
227.732	5.89
227.949	4.9
228.165	3.79
228.382	5.8
228.599	3.67
228.816	1.27
229.032	-2.76
229.249	-1.73
229.466	-0.05
229.682	0.56
229.899	0.85
230.116	0.54
230.332	-1.11
230.549	0.19
230.765	-3.86
230.982	-4.67
231.199	-2.86
231.415	-0.13
231.632	-1.44
231.848	-3.09
232.065	-1.31
232.281	-3.22
232.498	-0.15
232.714	-1.03
232.931	-4.48
233.147	-3.07
233.364	0.18
233.58	1.71
233.797	-1.22
234.013	-0.96
234.23	-0.29
234.446	-5.08
234.662	-5.22
234.879	-10.93
235.095	-10.92
235.312	-9.22
235.528	-10.63
235.744	-10.76
235.961	-9.71
236.177	-5.39
236.393	-7.97
236.61	-8.63
236.826	-7.32
237.042	-7.77
237.258	-5.74
237.475	-2.75
237.691	-0.45
237.907	0.76
238.123	-1.28
238.339	-2.73
238.556	-1.8
238.772	-1.58
238.988	-2.24
239.204	0.18
239.42	2.08
239.636	4.25
239.853	4.51
240.069	5.17
240.285	6.69
240.501	7.67
240.717	8.57
240.933	7.81
241.149	8.17
241.365	9.6
241.581	8.59
241.797	9.2
242.013	9.34
242.229	9.53
242.445	8.63
242.661	8.28
242.877	7.93
243.093	8.54
243.309	9.15
243.525	10.21
243.741	9.86
243.957	10.83
244.173	10.64
244.388	10.48
244.604	10.54
244.82	10.59
245.036	10.98
245.252	10.98
245.468	9.85
245.683	10.03
245.899	10.21
246.115	10.1
246.331	10.9
246.547	10.78
246.762	10.8
246.978	11.19
247.194	11.45
247.409	11
247.625	11.09
247.841	11.43
248.057	11.25
248.272	10.97
248.488	12.08
248.703	10.72
248.919	11.12
249.135	10.14
249.35	9.85
249.566	9.03
249.782	8.56
249.997	8.25
250.213	8.24
250.428	6.87
250.644	6.88
250.859	4.67
251.075	5.32
251.29	4.82
251.506	4.79
251.721	3.5
251.937	3.37
252.152	2.89
252.368	2.22
252.583	1.02
252.798	2.83
253.014	2.99
253.229	5.16
253.445	4.37
253.66	5.45
253.875	5.98
254.091	7.92
254.306	8.63
254.521	7.78
254.737	8.1
254.952	7.11
255.167	6.06
255.383	6.81
255.598	5.76
255.813	5.44
256.028	5.52
256.244	4.84
256.459	4.93
256.674	5.49
256.889	6.37
257.104	7.32
257.32	8.24
257.535	8.01
257.75	7.48
257.965	8.16
258.18	7.7
258.395	6.96
258.61	7.15
258.826	6.62
259.041	6.62
259.256	6.42
259.471	5.75
259.686	5.74
259.901	6.05
260.116	5.96
260.331	5.1
260.546	5.83
260.761	5.65
260.976	5.82
261.191	5.7
261.406	5.29
261.621	5.31
261.836	4.98
262.05	4.44
262.265	4.7
262.48	4.47
262.695	4
262.91	3.33
263.125	4.14
263.34	3.22
263.555	4.27
263.769	4.49
263.984	5.18
264.199	4.41
264.414	4.31
264.629	4.43
264.843	5.05
265.058	5.4
265.273	5.91
265.488	6.27
265.702	6.94
265.917	6.9
266.132	6.96
266.346	7.41
266.561	9.29
266.776	9.57
266.99	9.93
267.205	9.89
267.42	9.76
267.634	8.9
267.849	7.98
268.063	8.35
268.278	8.05
268.492	8.19
268.707	7.41
268.922	6.51
269.136	6.56
269.351	5.4
269.565	5
269.78	4.93
269.994	5.41
270.209	5.59
270.423	5.45
270.637	5.52
270.852	5.06
271.066	5.55
271.281	5.4
271.495	4.65
271.709	5.09
271.924	4.5
272.138	4.48
272.353	4.48
272.567	4.65
272.781	4.83
272.996	3.47
273.21	3.92
273.424	3.05
273.638	3.71
273.853	4.52
274.067	3.66
274.281	3.82
274.495	4.15
274.71	4.35
274.924	4.39
275.138	4.24
275.352	6.45
275.566	5.57
275.781	6.47
275.995	6.77
276.209	5.96
276.423	6.57
276.637	7.38
276.851	7.04
277.065	6.69
277.279	6.46
277.493	6.34
277.707	5.95
277.921	6.57
278.135	5.8
278.349	3.96
278.563	5.01
278.777	5.09
278.991	4.05
279.205	5.03
279.419	4.59
279.633	5.13
279.847	5.45
280.061	5.43
280.275	5
280.489	5.36
280.703	6.56
280.917	6.45
281.131	6.19
281.344	6.79
281.558	6.36
281.772	6.95
281.986	6.94
282.2	6.36
282.414	5.71
282.627	5.68
282.841	4.98
283.055	4.36
283.269	4.48
283.482	5.26
283.696	5.87
283.91	5.55
284.123	5.76
284.337	5.92
284.551	5.83
284.764	5.76
284.978	6.38
285.192	6.68
285.405	6.85
285.619	6.9
285.833	6.32
286.046	6.3
286.26	6.15
286.473	5.71
286.687	6.11
286.9	5.97
287.114	6.61
287.327	6.49
287.541	6.66
287.754	6.68
287.968	6.26
288.181	6.38
288.395	6.26
288.608	6.64
288.822	6.86
289.035	6.61
289.248	6.86
289.462	6.55
289.675	6.08
289.889	5.36
290.102	5.54
290.315	6.14
290.529	5.84
290.742	5.21
290.955	5.33
291.169	5.39
291.382	5.61
291.595	5.58
291.808	5.05
292.022	4.94
292.235	5.82
292.448	5.83
292.661	5.6
292.875	5.69
293.088	5.78
293.301	4.7
293.514	5.3
293.727	4.16
293.94	4.67
294.153	5.58
294.367	6.29
294.58	6.07
294.793	6.53
295.006	6.39
295.219	7.23
295.432	7.46
295.645	8.05
295.858	7.59
296.071	8.25
296.284	7.74
296.497	7.19
296.71	6.73
296.923	7.12
297.136	6.3
297.349	6.47
297.562	5.45
297.775	4.89
297.988	4.85
298.201	4.65
298.414	4.08
298.626	4.46
298.839	5.26
299.052	5.25
299.265	4.15
299.478	4.18
299.691	4.17
299.903	3.9
300.116	4.24
300.329	4.96
300.542	4.98
300.755	4.92
300.967	4.93
301.18	4.26
301.393	5.06
301.605	5.35
301.818	5.66
302.031	5.93
302.243	6.43
302.456	6.89
302.669	7.1
302.881	6.7
303.094	7.68
303.307	7.37
303.519	7.37
303.732	6.54
303.944	7.38
304.157	7.82
304.37	7.32
304.582	7.08
304.795	6.99
305.007	5.6
305.22	5.88
305.432	5.38
305.645	5.26
305.857	5.06
306.069	5.32
306.282	5.01
306.494	3.91
306.707	3.81
306.919	4.02
307.132	3.66
307.344	4.42
307.556	5.36
307.769	5.49
307.981	6
308.193	6.06
308.406	6.12
308.618	6.23
308.83	6.28
309.043	6.6
309.255	6.96
309.467	6.9
309.679	7.09
309.892	6.23
310.104	5.6
310.316	5.5
310.528	5.39
310.74	5.13
310.953	5.27
311.165	5.47
311.377	5.2
311.589	4.72
311.801	4.37
312.013	3.76
312.225	3.99
312.437	4.27
312.649	4.1
312.862	4.5
313.074	4.81
313.286	4.02
313.498	4.12
313.71	4.67
313.922	5.18
314.134	5.07
314.346	5.62
314.558	5.45
314.77	5.8
314.982	5.45
315.193	5.05
315.405	4.64
315.617	5.26
315.829	5.36
316.041	5.24
316.253	5.47
316.465	5.68
316.677	5.43
316.888	5.97
317.1	5.34
317.312	5.89
317.524	6.65
317.736	7.66
317.947	7.37
318.159	7.56
318.371	7.58
318.583	6.49
318.794	6.9
319.006	6.4
319.218	5.5
319.43	6.35
319.641	6.18
319.853	5.5
320.064	4.76
320.276	5.2
320.488	5.14
320.699	5.2
320.911	6.29
321.123	6.6
321.334	6.64
321.546	7.26
321.757	6.86
321.969	6.73
322.18	7.44
322.392	7.98
322.603	7.35
322.815	7.43
323.026	7.07
323.238	6.78
323.449	6.33
323.661	6.74
323.872	6.57
324.083	6.54
324.295	6.61
324.506	6.62
324.718	5.92
324.929	6.11
325.14	6.17
325.352	6.16
325.563	6.37
325.774	7.03
325.986	6.64
326.197	6.88
326.408	6.57
326.62	6.56
326.831	5.75
327.042	6.08
327.253	6.23
327.464	5.86
327.676	6.06
327.887	5.8
328.098	5.6
328.309	5.72
328.52	6.27
328.732	7.02
328.943	7.08
329.154	7.74
329.365	7.33
329.576	7.4
329.787	7.88
329.998	8.23
330.209	7.94
330.42	8.14
330.631	8.59
330.842	7.62
331.053	7.16
331.264	7.78
331.475	7.64
331.686	7.84
331.897	8.17
332.108	7.92
332.319	7.3
332.53	7.78
332.741	7.18
332.952	6.6
333.163	6.74
333.374	6.69
333.585	5.79
333.795	5.92
334.006	5.84
334.217	5.37
334.428	5.23
334.639	5.43
334.849	5.49
335.06	5.8
335.271	6.19
335.482	6.58
335.692	6.76
335.903	7.28
336.114	6.86
336.325	7.23
336.535	7.28
336.746	7.58
336.957	7.56
337.167	6.82
337.378	6.45
337.589	5.85
337.799	5.78
338.01	5.89
338.22	5.7
338.431	5.98
338.642	5.36
338.852	5.48
339.063	5.56
339.273	5.19
339.484	5.95
339.694	6.53
339.905	7.27
340.115	7.44
340.326	7.21
340.536	7.24
340.746	7.03
340.957	7.25
341.167	6.93
341.378	6.81
341.588	7.1
341.799	6.65
342.009	6.35
342.219	6.18
342.43	5.78
342.64	5.92
342.85	5.62
343.061	5.77
343.271	6.18
343.481	6.34
343.691	6.12
343.902	6.6
344.112	6.87
344.322	6.83
344.532	6.73
344.743	6.32
344.953	6.21
345.163	6.58
345.373	6.43
345.583	6.03
345.793	6.43
346.004	6.49
346.214	5.96
346.424	5.8
346.634	5.38
346.844	5.24
347.054	5.83
347.264	6.17
347.474	5.73
347.684	5.67
347.894	5.9
348.104	5.52
348.314	5.51
348.524	5.33
348.734	4.8
348.944	4.97
349.154	5.34
349.364	5.49
349.574	5.25
349.784	5.37
349.994	5.47
350.204	5.53
350.413	5.36
350.623	5.51
350.833	5.65
351.043	6.27
351.253	6.89
351.463	6.77
351.672	6.67
351.882	6.7
352.092	6.92
352.302	6.94
352.511	7.03
352.721	6.8
352.931	6.62
353.141	6.78
353.35	6.65
353.56	5.99
353.77	5.88
353.979	6.19
354.189	6.31
354.399	6.14
354.608	6.14
354.818	6.18
355.027	6.57
355.237	6.71
355.447	6.5
355.656	6.3
355.866	6.61
356.075	6.39
356.285	6.03
356.494	6
356.704	5.97
356.913	5.95
357.123	5.67
357.332	5.65
357.542	5.6
357.751	5.63
357.96	5.86
358.17	5.8
358.379	5.93
358.589	6.11
358.798	5.76
359.007	5.87
359.217	5.99
359.426	6.1
359.635	5.87
359.845	5.86
360.054	5.81
360.263	5.83
360.472	5.89
360.682	6.02
360.891	5.77
361.1	5.96
361.309	6.05
361.519	5.83
361.728	5.66
361.937	5.82
362.146	5.85
362.355	5.88
362.564	5.64
362.774	5.31
362.983	5.45
363.192	5.27
363.401	5.17
363.61	4.86
363.819	4.7
364.028	4.48
364.237	4.42
364.446	4.41
364.655	4.49
364.864	4.68
365.073	4.87
365.282	4.64
365.491	4.78
365.7	4.64
365.909	4.54
366.118	4.83
366.327	5.06
366.536	5.18
366.745	5
366.954	4.94
367.162	4.89
367.371	4.67
367.58	4.89
367.789	5.09
367.998	5.16
368.207	5.17
368.415	5.17
368.624	5.43
368.833	5.23
369.042	5.25
369.25	5.21
369.459	4.97
369.668	5.27
369.877	4.81
370.085	4.81
370.294	4.8
370.503	5.29
370.711	5.03
370.92	5.11
371.129	5.21
371.337	5.39
371.546	5.44
371.754	5.54
371.963	5.53
372.171	5.66
372.38	5.49
372.589	5.61
372.797	5.34
373.006	5.7
373.214	5.35
373.423	5.29
373.631	5.34
373.84	5.37
374.048	5.33
374.256	5.21
374.465	5.27
374.673	5.46
374.882	5.45
375.09	5.56
375.298	5.39
375.507	5.23
375.715	5.3
375.923	5.29
376.132	5.13
376.34	5.33
376.548	5.34
376.757	5.37
376.965	5.19
377.173	5.16
377.381	4.74
377.59	4.67
377.798	4.98
378.006	4.81
378.214	4.54
378.423	4.4
378.631	4.25
378.839	4.38
379.047	4.15
379.255	4.04
379.463	3.86
379.671	3.96
379.879	4.23
380.088	4.39
380.296	4.4
380.504	4.49
380.712	4.99
380.92	4.91
381.128	4.53
381.336	4.66
381.544	4.85
381.752	4.95
381.96	5.09
382.168	5.2
382.376	5.01
382.584	5.09
382.791	4.91
382.999	4.93
383.207	4.8
383.415	5.27
383.623	5.49
383.831	5.46
384.039	5.55
384.247	5.68
384.454	5.31
384.662	5.28
384.87	5.31
385.078	5.55
385.285	5.28
385.493	5.53
385.701	5.11
385.909	4.89
386.116	4.85
386.324	4.81
386.532	4.88
386.739	4.88
386.947	4.76
387.155	4.58
387.362	4.58
387.57	4.72
387.778	4.75
387.985	4.96
388.193	4.97
388.4	4.94
388.608	4.85
388.816	4.61
389.023	4.68
389.231	4.67
389.438	4.81
389.646	4.75
389.853	4.54
390.061	4.45
390.268	4.3
390.475	4.41
390.683	4.37
390.89	4.4
391.098	4.35
391.305	4.34
391.512	4.55
391.72	4.54
391.927	4.52
392.135	4.61
392.342	4.75
392.549	4.96
392.756	4.76
392.964	4.74
393.171	4.69
393.378	4.76
393.586	4.93
393.793	4.72
394	4.69
394.207	4.73
394.414	4.7
394.622	4.55
394.829	4.59
395.036	4.69
395.243	4.87
395.45	4.89
395.657	4.85
395.864	4.95
396.072	4.91
396.279	4.87
396.486	4.79
396.693	4.6
396.9	4.55
397.107	4.45
397.314	4.38
397.521	4.11
397.728	4.22
397.935	4.22
398.142	3.79
398.349	3.7
398.556	3.66
398.763	3.58
398.97	3.76
399.177	3.86
399.383	3.8
399.59	3.8
399.797	3.77
400.004	3.54
400.211	3.55
400.418	3.85
400.625	3.9
400.831	3.86
401.038	4
401.245	3.78
401.452	3.71
401.658	3.85
401.865	3.89
402.072	4.09
402.279	4.14
402.485	4.16
402.692	3.92
402.899	3.9
403.105	3.98
403.312	3.96
403.519	4
403.725	4.03
403.932	3.91
404.138	4.09
404.345	4.03
404.552	4.09
404.758	4.03
404.965	3.99
405.171	4.1
405.378	4.2
405.584	4.18
405.791	4.28
405.997	4.31
406.204	4.41
406.41	4.33
406.617	4.35
406.823	4.34
407.029	4.37
407.236	4.61
407.442	4.53
407.649	4.51
407.855	4.46
408.061	4.67
408.268	4.53
408.474	4.45
408.68	4.37
408.887	4.39
409.093	4.36
409.299	4.52
409.505	4.43
409.712	4.54
409.918	4.48
410.124	4.43
410.33	4.3
410.537	4.49
410.743	4.46
410.949	4.61
411.155	4.71
411.361	4.8
411.567	4.72
411.773	4.66
411.98	4.55
412.186	4.49
412.392	4.49
412.598	4.43
412.804	4.48
413.01	4.49
413.216	4.38
413.422	4.22
413.628	3.98
413.834	3.92
414.04	4.05
414.246	4.21
414.452	4.23
414.658	4.26
414.864	4.32
415.07	4.12
415.275	4.19
415.481	4.23
415.687	4.25
415.893	4.38
416.099	4.41
416.305	4.44
416.511	4.4
416.716	4.4
416.922	4.45
417.128	4.47
417.334	4.51
417.539	4.48
417.745	4.41
417.951	4.47
418.157	4.55
418.362	4.55
418.568	4.56
418.774	4.51
418.979	4.52
419.185	4.56
419.391	4.57
419.596	4.62
419.802	4.63
420.008	4.65
420.213	5.14
420.419	5.09
420.624	5.13
420.83	5.08
421.035	5.06
421.241	5.2
421.446	5.14
421.652	5.14
421.857	5.16
422.063	5.11
422.268	5.06
422.474	4.54
422.679	4.54
422.885	4.51
423.09	4.49
423.295	4.55
423.501	4.36
423.706	4.38
423.911	4.35
424.117	4.26
424.322	4.27
424.527	4.33
424.733	4.29
424.938	4.27
425.143	4.18
425.349	4.22
425.554	4.16
425.759	4.25
425.964	4.25
426.169	4.19
426.375	4.19
426.58	4.16
426.785	4.06
426.99	4.04
427.195	4
427.4	4.04
427.605	4.04
427.811	4.01
428.016	3.93
428.221	3.88
428.426	3.93
428.631	4.15
428.836	4.11
429.041	4.2
429.246	4.29
429.451	4.31
429.656	4.31
429.861	4.3
430.066	4.42
430.271	4.5
430.476	4.47
430.681	4.43
430.886	4.37
431.09	4.41
431.295	4.37
431.5	4.3
431.705	4.41
431.91	4.44
432.115	4.43
432.32	4.33
432.524	4.35
432.729	4.25
432.934	4.31
433.139	4.24
433.343	4.22
433.548	4.22
433.753	4.26
433.958	4.29
434.162	4.25
434.367	4.23
434.572	4.29
434.776	4.19
434.981	4.33
435.186	4.31
435.39	4.15
435.595	4.28
435.799	4.32
436.004	4.34
436.209	4.24
436.413	4.25
436.618	4.36
436.822	4.38
437.027	4.38
437.231	4.35
437.436	4.35
437.64	4.47
437.845	4.42
438.049	4.43
438.253	4.38
438.458	4.35
438.662	4.28
438.867	4.18
439.071	4.13
439.275	4.24
439.48	4.31
439.684	4.19
439.888	4.2
440.093	4.24
440.297	4.2
440.501	4.23
440.706	4.24
440.91	4.33
441.114	4.41
441.318	4.42
441.523	4.28
441.727	4.27
441.931	4.36
442.135	4.43
442.339	4.35
442.543	4.33
442.748	4.19
442.952	4.21
443.156	4.2
443.36	4.17
443.564	4.21
443.768	4.2
443.972	4.29
444.176	4.3
444.38	4.29
444.584	4.26
444.788	4.33
444.992	4.46
445.196	4.44
445.4	4.42
445.604	4.43
445.808	4.41
446.012	4.49
446.216	4.4
446.42	4.37
446.624	4.31
446.828	4.33
447.032	4.23
447.235	4.24
447.439	4.29
447.643	4.27
447.847	4.21
448.051	4.23
448.254	4.15
448.458	4.17
448.662	4.19
448.866	4.26
449.069	4.23
449.273	4.31
449.477	4.31
449.681	4.21
449.884	4.2
450.088	4.26
450.292	4.25
450.495	4.3
450.699	4.17
450.902	4.25
451.106	4.14
451.31	4.17
451.513	4.18
451.717	4.05
451.92	4.11
452.124	4.17
452.327	4.2
452.531	4.19
452.734	4.11
452.938	4.16
453.141	4.13
453.345	3.98
453.548	3.97
453.752	3.99
453.955	3.94
454.158	3.82
454.362	3.81
454.565	3.77
454.769	3.75
454.972	3.93
455.175	3.81
455.379	3.74
455.582	3.89
455.785	3.81
455.988	3.75
456.192	3.88
456.395	4.12
456.598	4.05
456.801	4.02
457.005	4.08
457.208	4.07
457.411	4.1
457.614	4.09
457.817	4.12
458.021	4.14
458.224	4.23
458.427	4.3
458.63	4.24
458.833	4.32
459.036	4.29
459.239	4.24
459.442	4.16
459.645	4.21
459.848	4.22
460.051	4.24
460.254	4.32
460.457	4.19
460.66	4.09
460.863	4.03
461.066	3.92
461.269	4.04
461.472	3.99
461.675	4.02
461.878	4.05
462.081	4.12
462.284	4.21
462.486	4.22
462.689	4.26
462.892	4.32
463.095	4.38
463.298	4.42
463.5	4.36
463.703	4.43
463.906	4.3
464.109	4.33
464.311	4.35
464.514	4.13
464.717	4.03
464.92	3.79
465.122	3.7
465.325	3.63
465.528	3.69
465.73	3.74
465.933	3.72
466.135	3.83
466.338	3.86
466.541	3.86
466.743	4.07
466.946	4.14
467.148	4.37
467.351	4.46
467.553	4.42
467.756	4.46
467.958	4.34
468.161	4.29
468.363	4.23
468.566	4.21
468.768	4.21
468.971	4.11
469.173	3.98
469.375	3.91
469.578	3.83
469.78	3.94
469.983	3.75
470.185	3.82
470.387	3.84
470.59	3.91
470.792	3.97
470.994	3.92
471.196	3.86
471.399	3.94
471.601	4.08
471.803	4.15
472.005	4.13
472.208	4.16
472.41	4.05
472.612	4.1
472.814	4.09
473.016	3.91
473.218	3.91
473.421	4.02
473.623	4
473.825	4
474.027	4
474.229	4.02
474.431	4.05
474.633	4.13
474.835	4.15
475.037	4.19
475.239	4.32
475.441	4.34
475.643	4.27
475.845	4.31
476.047	4.2
476.249	4.21
476.451	4.17
476.653	4.19
476.855	4.3
477.057	4.34
477.258	4.35
477.46	4.29
477.662	4.27
477.864	4.32
478.066	4.31
478.268	4.34
478.469	4.34
478.671	4.33
478.873	4.35
479.075	4.29
479.276	4.27
479.478	4.22
479.68	4.24
479.882	4.23
480.083	4.25
480.285	4.24
480.487	4.3
480.688	4.27
480.89	4.32
481.091	4.36
481.293	4.39
481.495	4.4
481.696	4.41
481.898	4.44
482.099	4.43
482.301	4.43
482.502	4.45
482.704	4.46
482.905	4.47
483.107	4.49
483.308	4.49
483.51	4.44
483.711	4.47
483.913	4.44
484.114	4.45
484.315	4.48
484.517	4.51
484.718	4.51
484.92	4.5
485.121	4.49
485.322	4.46
485.524	4.49
485.725	4.56
485.926	4.53
486.127	4.59
486.329	4.54
486.53	4.51
486.731	4.47
486.932	4.46
487.134	4.43
487.335	4.5
487.536	4.52
487.737	4.48
487.938	4.44
488.139	4.47
488.341	4.45
488.542	4.47
488.743	4.52
488.944	4.51
489.145	4.52
489.346	4.56
489.547	4.53
489.748	4.45
489.949	4.47
490.15	4.46
490.351	4.47
490.552	4.47
490.753	4.48
490.954	4.49
491.155	4.52
491.356	4.56
491.557	4.53
491.758	4.52
491.959	4.59
492.159	4.6
492.36	4.63
492.561	4.6
492.762	4.6
492.963	4.64
493.164	4.56
493.364	4.53
493.565	4.5
493.766	4.58
493.967	4.57
494.167	4.57
494.368	4.56
494.569	4.56
494.769	4.58
494.97	4.62
495.171	4.61
495.371	4.71
495.572	4.71
495.773	4.69
495.973	4.64
496.174	4.66
496.375	4.65
496.575	4.65
496.776	4.63
496.976	4.6
497.177	4.52
497.377	4.48
497.578	4.51
497.778	4.55
497.979	4.51
498.179	4.55
498.38	4.52
498.58	4.53
498.78	4.54
498.981	4.6
499.181	4.6
499.382	4.66
499.582	4.72
499.782	4.64
499.983	4.61
500.183	4.63
500.383	4.58
500.584	4.62
500.784	4.57
500.984	4.55
501.184	4.55
501.385	4.56
501.585	4.6
501.785	4.66
501.985	4.66
502.185	4.59
502.386	4.61
502.586	4.71
502.786	4.68
502.986	4.67
503.186	4.72
503.386	4.71
503.586	4.71
503.786	4.67
503.987	4.6
504.187	4.58
504.387	4.7
504.587	4.7
504.787	4.64
504.987	4.63
505.187	4.7
505.387	4.72
505.587	4.63
505.786	4.57
505.986	4.52
506.186	4.59
506.386	4.67
506.586	4.67
506.786	4.69
506.986	4.72
507.186	4.73
507.386	4.58
507.585	4.62
507.785	4.73
507.985	4.83
508.185	4.86
508.384	4.88
508.584	4.82
508.784	4.84
508.984	4.81
509.183	4.86
509.383	4.87
509.583	4.98
509.782	4.96
509.982	4.89
510.182	4.93
510.381	4.97
510.581	4.92
510.781	4.92
510.98	4.93
511.18	5.02
511.379	4.96
511.579	4.94
511.778	4.94
511.978	4.97
512.177	5.05
512.377	5.07
512.576	5.05
512.776	5.11
512.975	5.12
513.175	5.17
513.374	5.14
513.573	5.15
513.773	5.19
513.972	5.19
514.172	5.19
514.371	5.15
514.57	5.1
514.77	5.13
514.969	5.11
515.168	5.09
515.367	5.12
515.567	5.11
515.766	5.18
515.965	5.2
516.164	5.26
516.364	5.26
516.563	5.35
516.762	5.41
516.961	5.43
517.16	5.38
517.359	5.37
517.559	5.28
517.758	5.3
517.957	5.29
518.156	5.3
518.355	5.36
518.554	5.39
518.753	5.32
518.952	5.28
519.151	5.27
519.35	5.3
519.549	5.4
519.748	5.44
519.947	5.51
520.146	5.52
520.345	5.51
520.544	5.45
520.743	5.47
520.942	5.55
521.141	5.6
521.339	5.6
521.538	5.7
521.737	5.72
521.936	5.7
522.135	5.64
522.333	5.67
522.532	5.68
522.731	5.75
522.93	5.71
523.129	5.7
523.327	5.68
523.526	5.71
523.725	5.71
523.923	5.67
524.122	5.77
524.321	5.77
524.519	5.78
524.718	5.82
524.917	5.77
525.115	5.8
525.314	5.83
525.512	5.88
525.711	5.96
525.909	6
526.108	6.06
526.306	6.06
526.505	6.14
526.703	6.12
526.902	6.12
527.1	6.18
527.299	6.21
527.497	6.19
527.696	6.19
527.894	6.18
528.092	6.17
528.291	6.17
528.489	6.15
528.688	6.08
528.886	6.11
529.084	6.08
529.283	6.05
529.481	6.02
529.679	6.07
529.877	6.08
530.076	6.12
530.274	6.13
530.472	6.16
530.67	6.2
530.869	6.26
531.067	6.3
531.265	6.38
531.463	6.44
531.661	6.43
531.859	6.41
532.057	6.41
532.255	6.41
532.454	6.37
532.652	6.37
532.85	6.42
533.048	6.46
533.246	6.47
533.444	6.47
533.642	6.47
533.84	6.51
534.038	6.55
534.236	6.64
534.434	6.64
534.632	6.78
534.83	6.72
535.027	6.74
535.225	6.65
535.423	6.66
535.621	6.69
535.819	6.66
536.017	6.68
536.215	6.65
536.412	6.61
536.61	6.58
536.808	6.51
537.006	6.57
537.203	6.49
537.401	6.58
537.599	6.56
537.797	6.58
537.994	6.66
538.192	6.69
538.39	6.72
538.587	6.79
538.785	6.85
538.983	6.99
539.18	7.04
539.378	7.14
539.575	7.2
539.773	7.25
539.97	7.25
540.168	7.3
540.366	7.33
540.563	7.37
540.761	7.41
540.958	7.42
541.155	7.4
541.353	7.38
541.55	7.44
541.748	7.44
541.945	7.47
542.143	7.54
542.34	7.51
542.537	7.5
542.735	7.5
542.932	7.47
543.129	7.54
543.327	7.63
543.524	7.72
543.721	7.66
543.919	7.7
544.116	7.72
544.313	7.68
544.51	7.75
544.708	7.83
544.905	7.91
545.102	7.98
545.299	8.05
545.496	7.99
545.693	8.03
545.891	7.99
546.088	8.03
546.285	7.98
546.482	8.02
546.679	8.04
546.876	8.01
547.073	8
547.27	8
547.467	7.92
547.664	7.97
547.861	7.94
548.058	8.09
548.255	8.05
548.452	8.15
548.649	8.18
548.846	8.19
549.043	8.3
549.24	8.32
549.437	8.29
549.633	8.44
549.83	8.45
550.027	8.47
550.224	8.57
550.421	8.72
550.618	8.85
550.814	8.92
551.011	8.95
551.208	8.95
551.405	8.93
551.601	9.04
551.798	9.04
551.995	9.09
552.191	9.12
552.388	9.06
552.585	9.11
552.781	9.1
552.978	9.1
553.175	9.18
553.371	9.14
553.568	9.33
553.764	9.36
553.961	9.32
554.157	9.31
554.354	9.47
554.55	9.5
554.747	9.45
554.943	9.42
555.14	9.45
555.336	9.58
555.533	9.67
555.729	9.61
555.926	9.59
556.122	9.71
556.318	9.84
556.515	9.84
556.711	9.9
556.907	10.06
557.104	10.18
557.3	10.27
557.496	10.21
557.693	10.34
557.889	10.42
558.085	10.47
558.281	10.53
558.478	10.55
558.674	10.51
558.87	10.63
559.066	10.55
559.262	10.46
559.459	10.4
559.655	10.48
559.851	10.51
560.047	10.64
560.243	10.6
560.439	10.66
560.635	10.73
560.831	10.78
561.027	10.76
561.223	10.85
561.419	11.07
561.615	11.27
561.811	11.36
562.007	11.38
562.203	11.25
562.399	11.42
562.595	11.47
562.791	11.49
562.987	11.67
563.183	11.81
563.379	11.92
563.575	11.99
563.771	12.01
563.966	11.99
564.162	11.87
564.358	12.04
564.554	12.04
564.75	12.06
564.945	12.15
565.141	12.13
565.337	12.14
565.533	12.17
565.728	12.16
565.924	12.26
566.12	12.41
566.315	12.6
566.511	12.61
566.707	12.65
566.902	12.7
567.098	12.64
567.293	12.67
567.489	12.81
567.684	12.84
567.88	12.87
568.076	12.76
568.271	12.73
568.467	12.74
568.662	12.77
568.858	12.88
569.053	12.9
569.248	12.98
569.444	13.04
569.639	13.01
569.835	13.11
570.03	13.2
570.225	13.27
570.421	13.32
570.616	13.4
570.812	13.45
571.007	13.45
571.202	13.48
571.397	13.46
571.593	13.57
571.788	13.63
571.983	13.59
572.178	13.57
572.374	13.61
572.569	13.64
572.764	13.68
572.959	13.77
573.154	13.84
573.35	14
573.545	14.18
573.74	14.18
573.935	14.19
574.13	14.3
574.325	14.39
574.52	14.38
574.715	14.52
574.91	14.57
575.105	14.57
575.3	14.55
575.495	14.41
575.69	14.51
575.885	14.53
576.08	14.54
576.275	14.59
576.47	14.62
576.665	14.8
576.86	14.67
577.055	14.62
577.25	14.59
577.444	14.74
577.639	14.83
577.834	14.73
578.029	14.88
578.224	14.87
578.418	14.86
578.613	14.93
578.808	14.83
579.003	15
579.197	15.11
579.392	15.23
579.587	15.26
579.781	15.37
579.976	15.38
580.171	15.32
580.365	15.4
580.56	15.43
580.755	15.31
580.949	15.4
581.144	15.32
581.338	15.18
581.533	15.33
581.727	15.24
581.922	15.09
582.116	15.16
582.311	15.1
582.505	15.31
582.7	15.43
582.894	15.61
583.089	15.64
583.283	15.75
583.478	15.9
583.672	15.79
583.866	15.9
584.061	15.94
584.255	16.02
584.449	16.03
584.644	16.02
584.838	16
585.032	16.02
585.226	16.06
585.421	15.99
585.615	16.05
585.809	15.97
586.003	16.02
586.198	16.31
586.392	16.51
586.586	16.43
586.78	16.32
586.974	16.34
587.168	16.39
587.363	16.42
587.557	16.37
587.751	16.49
587.945	16.74
588.139	16.86
588.333	16.84
588.527	16.72
588.721	16.85
588.915	16.88
589.109	16.99
589.303	16.86
589.497	16.99
589.691	17.1
589.885	17.09
590.079	16.89
590.273	16.68
590.466	16.59
590.66	16.61
590.854	16.8
591.048	16.86
591.242	16.78
591.436	16.87
591.629	16.73
591.823	16.72
592.017	16.75
592.211	16.86
592.404	17.05
592.598	17.09
592.792	17.04
592.986	17.01
593.179	17
593.373	17.05
593.567	17.23
593.76	17.38
593.954	17.52
594.147	17.6
594.341	17.76
594.535	17.8
594.728	17.87
594.922	17.97
595.115	17.9
595.309	17.97
595.502	17.96
595.696	17.94
595.889	17.87
596.083	17.93
596.276	17.85
596.47	17.83
596.663	17.83
596.856	17.71
597.05	17.67
597.243	17.81
597.437	17.79
597.63	17.83
597.823	17.69
598.017	17.78
598.21	17.63
598.403	17.76
598.596	17.59
598.79	17.46
598.983	17.58
599.176	17.54
599.369	17.44
599.563	17.33
599.756	17.43
599.949	17.57
600.142	17.46
600.335	17.51
600.528	17.48
600.722	17.63
600.915	17.8
601.108	17.89
601.301	17.89
601.494	17.9
601.687	18.01
601.88	17.95
602.073	17.96
602.266	18.1
602.459	18.21
602.652	18.28
602.845	18.15
603.038	18.11
603.231	18.08
603.424	18.27
603.617	18.17
603.809	18.31
604.002	18.26
604.195	18.36
604.388	18.29
604.581	18.29
604.774	18.1
604.966	18.31
605.159	18.33
605.352	18.29
605.545	18.1
605.737	18.23
605.93	18.08
606.123	18.1
606.316	18.03
606.508	18.18
606.701	18.1
606.894	18.25
607.086	18.29
607.279	18.34
607.471	18.51
607.664	18.66
607.857	18.62
608.049	18.61
608.242	18.65
608.434	18.64
608.627	18.56
608.819	18.58
609.012	18.49
609.204	18.4
609.397	18.5
609.589	18.45
609.782	18.36
609.974	18.35
610.166	18.38
610.359	18.33
610.551	18.3
610.743	18.19
610.936	18.33
611.128	18.49
611.32	18.5
611.513	18.24
611.705	18.27
611.897	18.35
612.09	18.53
612.282	18.58
612.474	18.58
612.666	18.7
612.858	18.78
613.051	18.68
613.243	18.54
613.435	18.65
613.627	18.89
613.819	18.92
614.011	18.81
614.203	18.73
614.395	18.66
614.588	18.92
614.78	18.72
614.972	18.84
615.164	18.72
615.356	18.79
615.548	18.71
615.74	18.61
615.932	18.61
616.124	18.57
616.315	18.5
616.507	18.55
616.699	18.42
616.891	18.5
617.083	18.54
617.275	18.64
617.467	18.73
617.659	18.6
617.85	18.55
618.042	18.43
618.234	18.52
618.426	18.73
618.618	18.75
618.809	18.65
619.001	18.82
619.193	18.69
619.384	18.84
619.576	18.8
619.768	18.96
619.959	19.12
620.151	19.12
620.343	19.18
620.534	18.99
620.726	19.13
620.917	19.17
621.109	19.16
621.301	19.09
621.492	18.91
621.684	19.03
621.875	18.99
622.067	18.95
622.258	18.94
622.45	18.97
622.641	18.93
622.832	19.02
623.024	19.14
623.215	19.11
623.407	19.26
623.598	19.33
623.789	19.13
623.981	19.28
624.172	19.26
624.363	19.31
624.555	19.28
624.746	19.35
624.937	19.21
625.129	19.34
625.32	19.39
625.511	19.16
625.702	19.16
625.893	19.25
626.085	19.21
626.276	19.31
626.467	19.41
626.658	19.48
626.849	19.68
627.04	19.47
627.231	19.32
627.422	19.16
627.614	19.47
627.805	19.4
627.996	19.48
628.187	19.44
628.378	19.42
628.569	19.35
628.76	19.31
628.951	19.08
629.142	19.18
629.332	19.21
629.523	19.12
629.714	18.98
629.905	18.99
630.096	18.98
630.287	18.84
630.478	18.77
630.669	18.74
630.859	18.84
631.05	18.86
631.241	19.01
631.432	18.92
631.623	19.15
631.813	19.28
632.004	19.5
632.195	19.52
632.385	19.56
632.576	19.51
632.767	19.43
632.957	19.34
633.148	19.27
633.339	19.14
633.529	19.14
633.72	18.96
633.91	18.88
634.101	18.73
634.292	18.7
634.482	18.91
634.673	18.91
634.863	19.08
635.054	19.23
635.244	19.34
635.435	19.32
635.625	19.14
635.815	19.45
636.006	19.48
636.196	19.39
636.387	19.38
636.577	19.2
636.767	19.23
636.958	19.22
637.148	19.1
637.338	19.24
637.529	19.41
637.719	19.59
637.909	19.6
638.099	19.41
638.29	19.24
638.48	19.23
638.67	19.3
638.86	19.32
639.05	19.33
639.241	19.33
639.431	19.18
639.621	19.02
639.811	18.93
640.001	18.61
640.191	18.83
640.381	19.03
640.571	18.96
640.761	18.98
640.951	19.06
641.141	18.89
641.331	18.91
641.521	18.9
641.711	19.06
641.901	19.39
642.091	19.62
642.281	19.45
642.471	19.5
642.661	19.59
642.851	19.54
643.041	19.5
643.231	19.77
643.42	19.67
643.61	19.58
643.8	19.51
643.99	19.4
644.18	19.44
644.369	19.49
644.559	19.68
644.749	19.82
644.939	19.68
645.128	19.78
645.318	19.75
645.508	19.87
645.697	20.06
645.887	20.19
646.076	20.26
646.266	20.03
646.456	20.17
646.645	20.09
646.835	20
647.024	20.26
647.214	20.18
647.403	19.89
647.593	19.81
647.782	19.81
647.972	19.69
648.161	19.53
648.351	19.56
648.54	19.36
648.73	19.23
648.919	19.32
649.108	19.16
649.298	19.17
649.487	19.52
649.677	19.72
649.866	19.86
650.055	19.74
650.244	19.89
650.434	20.15
650.623	20.33
650.812	20.35
651.002	20.25
651.191	20.37
651.38	20.43
651.569	20.42
651.758	20.2
651.947	19.99
652.137	20.39
652.326	20.27
652.515	20.08
652.704	20.05
652.893	20.21
653.082	20.2
653.271	20.12
653.46	20.15
653.649	20.06
653.838	20.14
654.027	20.13
654.216	19.83
654.405	20.05
654.594	20.18
654.783	20.19
654.972	20.16
655.161	20.08
655.35	20.23
655.539	20.06
655.728	20.15
655.916	20.16
656.105	20.38
656.294	20.41
656.483	20.39
656.672	20.22
656.86	20.3
657.049	20.36
657.238	20.44
657.427	20.34
657.615	20.42
657.804	20.51
657.993	20.5
658.181	20.48
658.37	20.59
658.559	20.5
658.747	20.74
658.936	20.72
659.125	20.65
659.313	20.58
659.502	20.54
659.69	20.58
659.879	20.57
660.067	20.7
660.256	20.67
660.444	20.68
660.633	20.88
660.821	20.42
661.01	20.15
661.198	20.08
661.387	20.18
661.575	20.24
661.763	20.27
661.952	20.16
662.14	20
662.328	20.05
662.517	20
662.705	19.65
662.893	19.95
663.082	20.15
663.27	20.19
663.458	20.32
663.646	20.29
663.834	20.17
664.023	20.17
664.211	20.3
664.399	20
664.587	19.88
664.775	19.91
664.963	19.78
665.152	19.86
665.34	20.08
665.528	20.03
665.716	20.03
665.904	20.19
666.092	20.03
666.28	19.81
666.468	19.87
666.656	19.92
666.844	20.16
667.032	20.52
667.22	20.7
667.408	20.52
667.596	20.42
667.784	20.36
667.971	20.12
668.159	20.53
668.347	20.57
668.535	20.49
668.723	20.43
668.911	20.38
669.098	20.24
669.286	19.98
669.474	19.9
669.662	19.7
669.849	19.8
670.037	19.78
670.225	19.68
670.413	19.65
670.6	19.73
670.788	19.68
670.976	19.61
671.163	19.46
671.351	19.65
671.538	19.64
671.726	19.78
671.913	19.98
672.101	20.31
672.289	20.09
672.476	19.8
672.664	19.87
672.851	20.04
673.039	20.12
673.226	20.46
673.413	20.34
673.601	20.66
673.788	20.96
673.976	20.83
674.163	20.69
674.35	20.52
674.538	20.93
674.725	21.03
674.912	21.34
675.1	21.13
675.287	20.95
675.474	21.07
675.662	21.06
675.849	20.98
676.036	21
676.223	21.11
676.411	21.28
676.598	21.36
676.785	21.23
676.972	20.81
677.159	21.07
677.346	21.13
677.533	21.24
677.721	21.07
677.908	21.13
678.095	21.22
678.282	21.06
678.469	21.1
678.656	21.15
678.843	21.34
679.03	21.55
679.217	21.43
679.404	21.27
679.591	21.29
679.778	21.06
679.964	21.01
680.151	20.93
680.338	20.92
680.525	20.8
680.712	20.85
680.899	20.69
681.086	20.77
681.272	20.59
681.459	20.8
681.646	20.64
681.833	20.97
682.02	20.75
682.206	20.73
682.393	20.83
682.58	20.93
682.766	20.6
682.953	20.49
683.14	20.35
683.326	20.74
683.513	20.74
683.7	20.79
683.886	20.77
684.073	20.94
684.259	20.81
684.446	20.98
684.632	21.16
684.819	21.24
685.005	21.47
685.192	21.46
685.378	21.22
685.565	20.93
685.751	20.69
685.938	20.6
686.124	20.38
686.31	20.55
686.497	20.12
686.683	19.87
686.87	19.71
687.056	19.62
687.242	19.71
687.429	19.83
687.615	20.06
687.801	20.11
687.987	20.1
688.174	20.47
688.36	20.5
688.546	20.72
688.732	20.86
688.918	21.33
689.105	21.35
689.291	21.39
689.477	21.27
689.663	20.97
689.849	21.16
690.035	21.29
690.221	21.34
690.407	21.22
690.593	21.18
690.779	21.07
690.965	20.94
691.151	20.96
691.337	20.88
691.523	21.22
691.709	21.25
691.895	21.28
692.081	20.98
692.267	21.01
692.453	20.83
692.639	21.03
692.825	21.22
693.011	21.09
693.196	21.44
693.382	21.08
693.568	20.68
693.754	21
693.94	21.03
694.125	21.53
694.311	21.42
694.497	21.54
694.682	21.36
694.868	21.34
695.054	21.63
695.239	21.21
695.425	21.46
695.611	21.29
695.796	21.32
695.982	21.48
696.168	21.26
696.353	21.44
696.539	21.74
696.724	21.77
696.91	21.9
697.095	21.88
697.281	22
697.466	22.06
697.652	22.21
697.837	22.15
698.023	22.15
698.208	22.33
698.393	22.11
698.579	22.12
698.764	22.13
698.949	21.96
699.135	21.82
699.32	21.7
699.505	21.79
699.691	21.9
699.876	21.89
700.061	21.89
700.246	21.78
700.432	21.87
700.617	21.88
700.802	21.59
700.987	21.85
701.172	21.32
701.358	21.4
701.543	21.31
701.728	21.13
701.913	21.04
702.098	20.63
702.283	20.07
702.468	20.11
702.653	19.78
702.838	20.18
703.023	19.86
703.208	20.35
703.393	20.55
703.578	20.27
703.763	20.81
703.948	21.09
704.133	21.28
704.318	21.77
704.503	21.61
704.688	21.35
704.873	21.54
705.057	21.53
705.242	21.63
705.427	21.64
705.612	21.56
705.797	20.78
705.981	20.28
706.166	20.06
706.351	19.9
706.536	20.17
706.72	20.3
706.905	19.84
707.09	19.83
707.274	19.56
707.459	19.18
707.644	19.31
707.828	19.77
708.013	20.23
708.197	20.54
708.382	20.95
708.567	20.83
708.751	21.27
708.936	21.57
709.12	21.43
709.305	21.47
709.489	21.43
709.673	21.32
709.858	20.97
710.042	20.88
710.227	20.84
710.411	20.47
710.596	20.18
710.78	20.13
710.964	19.84
711.149	19.95
711.333	20.32
711.517	20.49
711.702	21.18
711.886	21.59
712.07	21.67
712.254	21.48
712.438	21.74
712.623	21.98
712.807	21.96
712.991	22.41
713.175	22.7
713.359	22.56
713.544	22.68
713.728	22.18
713.912	21.95
714.096	21.76
714.28	21.79
714.464	21.63
714.648	21.72
714.832	21.38
715.016	21.24
715.2	21.03
715.384	20.96
715.568	20.8
715.752	20.52
715.936	20.14
716.12	20.26
716.304	20.28
716.488	20.11
716.671	20.06
716.855	20.54
717.039	20.55
717.223	20.73
717.407	20.76
717.59	20.83
717.774	20.82
717.958	21.4
718.142	21.42
718.325	21.36
718.509	21.47
718.693	21.12
718.877	20.45
719.06	20.14
719.244	19.91
719.428	20.31
719.611	20.02
719.795	20.58
719.978	20.88
720.162	20.72
720.345	20.81
720.529	20.87
720.713	21.32
720.896	21.5
721.08	21.56
721.263	21.48
721.446	20.76
721.63	20.74
721.813	20.56
721.997	20.03
722.18	20.54
722.364	19.96
722.547	19.91
722.73	19.55
722.914	19.45
723.097	19.09
723.28	19.64
723.464	20
723.647	20.37
723.83	20.46
724.013	20.02
724.197	19.49
724.38	19.79
724.563	19.41
724.746	19.65
724.929	20.16
725.112	20.55
725.296	20.59
725.479	20.02
725.662	19.84
725.845	19.66
726.028	20.1
726.211	20.44
726.394	20.5
726.577	20.92
726.76	20.61
726.943	20.05
727.126	20.52
727.309	19.99
727.492	20.36
727.675	20.71
727.858	20.63
728.041	20.39
728.224	20.42
728.407	20.76
728.589	21.02
728.772	21.13
728.955	21.11
729.138	20.74
729.321	20.53
729.503	20.81
729.686	20.41
729.869	20.78
730.052	21.1
730.234	20.47
730.417	20.17
730.6	20.03
730.782	20.03
730.965	19.98
731.148	19.95
731.33	19.96
731.513	19.76
731.695	19.82
731.878	19.22
732.061	19.32
732.243	19.64
732.426	19.92
732.608	19.65
732.791	19.47
732.973	19.74
733.156	19.98
733.338	20.24
733.52	20.1
733.703	20.23
733.885	20.5
734.068	20.42
734.25	20.71
734.432	20.14
734.615	20.46
734.797	21.04
734.979	21.1
735.162	20.91
735.344	20.82
735.526	21.16
735.708	20.99
735.891	20.73
736.073	20.35
736.255	19.66
736.437	19.91
736.619	20.02
736.802	19.73
736.984	19.41
737.166	19.49
737.348	19.35
737.53	19.32
737.712	19.5
737.894	19.57
738.076	19.98
738.258	20.72
738.44	20.48
738.622	20.15
738.804	20.01
738.986	20.37
739.168	20.66
739.35	20.72
739.532	20.46
739.714	20.09
739.896	20.06
740.078	19.85
740.259	19.14
740.441	18.96
740.623	18.88
740.805	19.19
740.987	18.95
741.168	18.56
741.35	18.45
741.532	18.18
741.714	18.35
741.895	19.18
742.077	19.25
742.259	19.51
742.44	19.79
742.622	20.05
742.804	20.02
742.985	20.29
743.167	20.45
743.348	20.44
743.53	20.52
743.711	20.14
743.893	19.04
744.075	19.17
744.256	19.8
744.438	20.15
744.619	20.08
744.8	19.87
744.982	19.59
745.163	18.88
745.345	19.2
745.526	19.12
745.707	19.71
745.889	20.08
746.07	19.93
746.252	19.88
746.433	19.75
746.614	19.54
746.795	19.53
746.977	19.7
747.158	20.38
747.339	20.73
747.52	21.01
747.702	20.26
747.883	20.21
748.064	20.27
748.245	19.3
748.426	19.36
748.607	19.26
748.788	19.44
748.97	19.51
749.151	18.88
749.332	18.54
749.513	18.88
749.694	19.78
749.875	20.37
750.056	20.33
750.237	20.75
750.418	20.71
750.599	20.96
750.78	20.66
750.96	20.54
751.141	20.91
751.322	20.95
751.503	20.42
751.684	20.33
751.865	19.63
752.046	19.81
752.226	19.96
752.407	20.49
752.588	19.94
752.769	19.56
752.949	19.37
753.13	19.06
753.311	18.77
753.492	19.86
753.672	19.87
753.853	19.77
754.034	19.34
754.214	19.25
754.395	18.3
754.575	18.32
754.756	18.87
754.937	19.33
755.117	19.81
755.298	20.31
755.478	18.56
755.659	18.17
755.839	18.24
756.02	18.05
756.2	17.96
756.381	18.24
756.561	18.71
756.741	18.48
756.922	18.35
757.102	18.17
757.283	17.75
757.463	18.62
757.643	19
757.823	19.38
758.004	20.18
758.184	20.06
758.364	20.13
758.545	19.6
758.725	19.45
758.905	19.18
759.085	19.24
759.265	19.26
759.446	19.55
759.626	19.66
759.806	19.72
759.986	19.48
760.166	19.64
760.346	19.26
760.526	18.99
760.706	19.35
760.886	20.07
761.066	19.77
761.246	19.01
761.426	18.86
761.606	18.93
761.786	19.15
761.966	19.15
762.146	19.42
762.326	19.59
762.506	20.34
762.686	20.25
762.866	19.86
763.046	20.15
763.225	20.73
763.405	21.07
763.585	20.96
763.765	20.71
763.945	20.7
764.124	20.99
764.304	21.24
764.484	21.41
764.664	21.47
764.843	21.49
765.023	21.55
765.203	21.08
765.382	20.22
765.562	20.52
765.741	20.45
765.921	20.75
766.101	20.28
766.28	20.64
766.46	19.83
766.639	20.06
766.819	20.52
766.998	20.31
767.178	20.82
767.357	21.7
767.537	20.66
767.716	20.78
767.896	20.19
768.075	20.73
768.254	19.87
768.434	19.92
768.613	19.35
768.792	18.43
768.972	18.04
769.151	18.38
769.33	18.63
769.51	19.44
769.689	19.35
769.868	19.59
770.047	18.83
770.226	19.04
770.406	19.19
770.585	19.56
770.764	19.78
770.943	19.64
771.122	19.56
771.301	18.53
771.48	18.45
771.66	18.08
771.839	17.93
772.018	17.57
772.197	18.17
772.376	18.48
772.555	18.01
772.734	18.18
772.913	18.95
773.092	18.01
773.271	18.29
773.449	18.48
773.628	18.87
773.807	19.13
773.986	19.44
774.165	19.16
774.344	18.94
774.523	19.47
774.701	19.74
774.88	19.99
775.059	20.56
775.238	20.45
775.417	19.76
775.595	19.81
775.774	19.27
775.953	19
776.131	18.51
776.31	18.75
776.489	18.78
776.667	18.96
776.846	18.47
777.025	18.78
777.203	18
777.382	17.89
777.56	18.25
777.739	18.35
777.917	18.52
778.096	18.96
778.274	19.57
778.453	20.02
778.631	19.07
778.81	18.86
778.988	18.8
779.166	19.86
779.345	20.91
779.523	20.76
779.702	20.82
779.88	21.83
780.058	21.98
780.237	21.17
780.415	21.23
780.593	21.89
780.771	22.77
780.95	23.22
781.128	23.4
781.306	21.87
781.484	22.25
781.662	21.32
781.841	20.64
782.019	20.37
782.197	20.09
782.375	19.27
782.553	18.78
782.731	18.02
782.909	17.24
783.087	16.52
783.265	17.83
783.443	17.41
783.621	17.57
783.799	16.83
783.977	16.51
784.155	16.89
784.333	17.24
784.511	16.81
784.689	17.55
784.867	17.16
785.045	17.42
785.223	17.52
785.4	17.13
785.578	17.36
785.756	18.32
785.934	18.84
786.112	18.59
786.289	17.48
786.467	17.06
786.645	16.09
786.823	16.66
787	16.39
787.178	16.07
787.356	16.1
787.533	16.1
787.711	15.57
787.889	14.6
788.066	14.83
788.244	15.02
788.421	15.99
788.599	16.11
788.776	15.19
788.954	15.21
789.131	15.01
789.309	15.89
789.486	16.78
789.664	17.46
789.841	18.26
790.019	17.81
790.196	18.4
790.373	17.83
790.551	17.58
790.728	18.11
790.906	18.59
791.083	18.75
791.26	17.84
791.437	17.67
791.615	17.16
791.792	18.21
791.969	18.21
792.146	17.31
792.324	17.39
792.501	18.24
792.678	19.12
792.855	18.4
793.032	18.36
793.209	18.74
793.387	18.29
793.564	17.87
793.741	17.74
793.918	17.69
794.095	18.98
794.272	19.33
794.449	18.27
794.626	17.89
794.803	17
794.98	16.77
795.157	16.95
795.334	17.09
795.511	17.02
795.688	15.77
795.864	15.18
796.041	14.51
796.218	14.56
796.395	15.21
796.572	15.21
796.749	17.41
796.925	17.55
797.102	17.12
797.279	16.95
797.456	16.27
797.632	16.68
797.809	17.88
797.986	17.74
798.162	17.87
798.339	18.22
798.516	17.6
798.692	16.89
798.869	16.97
799.046	17.59
799.222	18.05
799.399	18.7
799.575	19.01
799.752	19.11
799.928	19.88
800.105	19.34
800.281	18.96
800.458	18.53
800.634	18.36
800.811	19.12
800.987	18.68
801.163	18.85
801.34	19.47
801.516	19.55
801.692	17.97
801.869	17.51
802.045	17.36
802.221	16.83
802.398	17.91
802.574	16.7
802.75	15.59
802.926	14.94
803.103	13.94
803.279	13.68
803.455	13.19
803.631	14.85
803.807	15.94
803.983	16.08
804.16	16.34
804.336	15.69
804.512	16.69
804.688	16.71
804.864	17.33
805.04	18.01
805.216	18.93
805.392	18.51
805.568	17.66
805.744	16.42
805.92	17.19
806.096	16.39
806.272	15.88
806.448	15.68
806.623	16.38
806.799	16.73
806.975	15.98
807.151	14.22
807.327	14.72
807.503	14.98
807.678	14.56
807.854	13.46
808.03	14.98
808.206	14.9
808.381	15.1
808.557	14.14
808.733	13.76
808.908	14.17
809.084	14.68
809.26	13.38
809.435	13.35
809.611	14.51
809.787	16.16
809.962	15.3
810.138	16.46
810.313	16.84
810.489	17.93
810.664	17.39
810.84	18.24
811.015	18.75
811.191	19.64
811.366	19.68
811.542	19.62
811.717	19.09
811.892	20.88
812.068	21.4
812.243	20.01
812.419	21.03
812.594	21.2
812.769	21.09
812.944	20.44
813.12	20.92
813.295	20.45
813.47	19.57
813.645	19.59
813.821	18.23
813.996	17.93
814.171	19.24
814.346	16.51
814.521	17.78
814.697	17.53
814.872	18.39
815.047	17.59
815.222	18.26
815.397	19.27
815.572	19.9
815.747	20.03
815.922	20
816.097	20.6
816.272	21.93
816.447	20.09
816.622	21.65
816.797	21.95
816.972	21.91
817.147	22.62
817.322	22.81
817.496	21.95
817.671	21.6
817.846	21.89
818.021	20.53
818.196	19.58
818.371	19.67
818.545	18.35
818.72	16.41
818.895	16.76
819.069	15.87
819.244	15.45
819.419	15.55
819.594	15.55
819.768	15.07
819.943	15.75
820.117	16.22
820.292	16.63
820.467	16.91
820.641	17.91
820.816	18.1
820.99	18.79
821.165	19.19
821.339	19.41
821.514	19.68
821.688	19.48
821.863	19.79
822.037	20.15
822.212	20.53
822.386	20.56
822.56	20.57
822.735	20.71
822.909	20.53
823.084	20.33
823.258	20.66
823.432	20.68
823.606	20.98
823.781	20.95
823.955	20.42
824.129	20.15
824.303	20.17
824.478	20.18
824.652	20.35
824.826	20.86
825	20.83
825.174	20.03
825.348	20.25
825.523	20.11
825.697	20.49
825.871	20.98
826.045	20.96
826.219	20.73
826.393	20.9
826.567	20.94
826.741	20.1
826.915	20.15
827.089	20.13
827.263	19.8
827.437	20.3
827.611	19.58
827.784	19.37
827.958	19
828.132	18.91
828.306	18.71
828.48	18.4
828.654	18.84
828.827	18.34
829.001	18.19
829.175	17.79
829.349	17.51
829.522	17.17
829.696	16.64
829.87	16.75
830.044	16.54
830.217	16.08
830.391	15.77
830.565	15.25
830.738	17.12
830.912	17.18
831.085	17.25
831.259	15.98
831.432	16.21
831.606	17.5
831.779	18.39
831.953	18.59
832.126	18.78
832.3	19.02
832.473	19.15
832.647	18.29
832.82	19.21
832.994	18.93
833.167	19.36
833.34	19.66
833.514	18.94
833.687	18.39
833.86	18.71
834.034	18.9
834.207	19.28
834.38	18.88
834.553	18.76
834.727	18.29
834.9	19.28
835.073	19.42
835.246	18.91
835.419	19.69
835.593	19.9
835.766	19.56
835.939	18.61
836.112	18.13
836.285	19.23
836.458	19.92
836.631	19.18
836.804	17.3
836.977	16.59
837.15	18.06
837.323	17.53
837.496	17.11
837.669	16.29
837.842	17.7
838.015	17.04
838.188	15.97
838.361	14.83
838.533	15.75
838.706	16.87
838.879	16.87
839.052	16.13
839.225	17.2
839.398	16.9
839.57	17.34
839.743	15.76
839.916	15.69
840.088	15.29
840.261	14.58
840.434	15.24
840.607	14.5
840.779	14.58
840.952	12.28
841.124	10.09
841.297	9.72
841.47	9.28
841.642	11.2
841.815	10.73
841.987	10
842.16	12.24
842.332	11.21
842.505	10.99
842.677	10.61
842.85	13.4
843.022	16.32
843.194	16.11
843.367	15.37
843.539	13.06
843.712	13.52
843.884	13.14
844.056	11.44
844.229	12.68
844.401	12.04
844.573	12.11
844.745	8.26
844.918	2.09
845.09	3.47
845.262	7.75
845.434	9.64
845.606	9.36
845.779	10.43
845.951	10.27
846.123	7.15
846.295	8.23
846.467	10.39
846.639	12.05
846.811	15.55
846.983	13.97
847.155	10.47
847.327	7.46
847.499	5.59
847.671	4.7
847.843	2.25
848.015	0.02
848.187	-1.12
848.359	-5.69
848.531	-5.41
848.703	-8.37
848.875	-8.99
849.047	-9.67
849.218	-7.07
849.39	-7.86
849.562	-6.62
849.734	-5.11
849.905	-2.71
850.077	0.97
850.249	1.85
850.421	1.79
850.592	1.9
850.764	4.52
850.936	5.03
851.107	3.68
851.279	6.14
851.451	7.28
851.622	8.88
851.794	6.11
851.965	3.6
852.137	-2.12
852.308	0.27
852.48	-0.03
852.651	-0.48
852.823	-0.56
852.994	1.67
853.166	-0.28
853.337	0.88
853.509	-1.59
853.68	0.22
853.851	3.34
854.023	7.28
854.194	6.76
854.365	8.73
854.537	12.45
854.708	12.76
854.879	12.07
855.05	11.13
855.222	8.3
855.393	7.53
855.564	9.62
855.735	-1.69
855.906	5.36
856.078	4.57
856.249	3.91
856.42	2.73
856.591	10.09
856.762	12.05
856.933	12.01
857.104	10.62
857.275	11.83
857.446	6.91
857.617	12.95
857.788	10.03
857.959	10.12
858.13	8.35
858.301	9.15
858.472	2.69
858.643	-0.61
858.814	-6.13
858.985	-3.06
859.155	-9.33
859.326	-3.59
859.497	-5.16
859.668	-5.45
859.839	-6.91
860.009	-11.6
860.18	-17.59
860.351	-13.19
860.522	-15.72
860.692	-8.16
860.863	-6.01
861.034	-3.07
861.204	-6.29
861.375	-2.92
861.546	-2.35
861.716	-3.22
861.887	2.68
862.057	2.86
862.228	2.33
862.398	4.22
862.569	6.26
862.739	6.27
862.91	9.19
863.08	14.14
863.251	14.64
863.421	18.73
863.592	20.04
863.762	20.56
863.932	23.56
864.103	21.58
864.273	24.65
864.443	23.79
864.614	19.01
864.784	16.2
864.954	12.77
865.125	12.07
865.295	9.76
865.465	5.86
865.635	3.13
865.805	0.45
865.976	3.62
866.146	2.27
866.316	-1.38
866.486	-3.62
866.656	-3.59
866.826	-1.05
866.996	-6.06
867.166	-8.02
867.336	-2.73
867.506	-4.29
867.676	-5.27
867.846	-8.03
868.016	-6.26
868.186	-6.27
868.356	-3.85
868.526	-1.81
868.696	-4.8
868.866	-1.77
869.036	-0.1
869.206	-3.24
869.376	3.34
869.545	5.32
869.715	4.59
869.885	1.01
870.055	6.52
870.224	8.43
870.394	9.34
870.564	9.46
870.734	9.86
870.903	11.75
871.073	10.9
871.243	7.84
871.412	5.17
871.582	8.55
871.751	12.18
871.921	9.17
872.091	8.94
872.26	8.97
872.43	9.52
872.599	10.4
872.769	7.38
872.938	10.22
873.108	13.25
873.277	17.6
873.446	16.09
873.616	15.83
873.785	14.91
873.955	16.73
874.124	18.76
874.293	19.33
874.463	19.14
874.632	19.97
874.801	18.81
874.971	18.21
875.14	15.6
875.309	15.86
875.478	14.68
875.647	13.42
875.817	11.81
875.986	5.93
876.155	7.75
876.324	9.5
876.493	9.08
876.662	9.78
876.831	9.31
877	9.79
877.17	9.26
877.339	7.8
877.508	8.28
877.677	7.76
877.846	11.34
878.015	9.33
878.184	5.48
878.352	5.88
878.521	4.11
878.69	5.4
878.859	3.39
879.028	5.9
879.197	6.39
879.366	8.5
879.534	9.16
879.703	10.61
879.872	10.05
880.041	12.71
880.21	14.61
880.378	16.32
880.547	16.05
880.716	17.3
880.884	17.97
881.053	18.6
881.222	17.65
881.39	17.67
881.559	17.12
881.727	18.16
881.896	18.39
882.065	18.48
882.233	19.04
882.402	18.79
882.57	19.09
882.739	18.23
882.907	18.65
883.076	19.27
883.244	19.72
883.412	20.61
883.581	20.61
883.749	21.24
883.918	20.76
884.086	20.13
884.254	20.79
884.423	20.01
884.591	20.44
884.759	20.06
884.927	19.33
885.096	19.17
885.264	18.11
885.432	16.93
885.6	14.31
885.769	13.18
885.937	12.46
886.105	9.9
886.273	11.18
886.441	10.14
886.609	8.19
886.777	9.22
886.945	8.16
887.113	6.11
887.281	9.56
887.449	10.07
887.617	5.89
887.785	5.91
887.953	7.44
888.121	6
888.289	6.44
888.457	4.29
888.625	3.58
888.793	5.8
888.961	11.49
889.129	6.81
889.296	11.39
889.464	19.95
889.632	21.7
889.8	21.75
889.967	20.8
890.135	21.53
