Data from 2938445_Reflection_4.txt Node
Date: Fri Jun 19 18:12:25 EDT 2015
User: robert
Spectrometer: USB4E03002
Autoset integration time: false
Trigger mode: 4
Integration Time (sec): 1.000000E-1
Scans to average: 10
Electric dark correction enabled: true
Nonlinearity correction enabled: false
Boxcar width: 5
Stray light correction enabled: false
XAxis mode: Wavelengths
Stop averaging: false
Number of Pixels in Spectrum: 3648
>>>>>Begin Spectral Data<<<<<
177.575	-54.28
177.794	-38.25
178.014	-426.82
178.233	1515.04
178.452	928.9
178.672	204.65
178.891	134.21
179.11	-10.08
179.33	-308.43
179.549	55.2
179.768	-52.15
179.987	-10.84
180.207	867.67
180.426	-178.57
180.645	21.57
180.864	62.87
181.084	25.24
181.303	-5.83
181.522	-38.47
181.741	7.83
181.96	-16.54
182.179	-10.33
182.398	-18.92
182.618	26.64
182.837	-6.5
183.056	-59.15
183.275	7094
183.494	302.41
183.713	-1287.44
183.932	1139.26
184.151	308.53
184.37	1443.56
184.589	273.69
184.808	240.55
185.027	149.46
185.246	162.99
185.465	219.67
185.684	669.3
185.903	479.96
186.122	272.72
186.341	256.81
186.56	402.44
186.779	74.23
186.998	141.71
187.216	-155.5
187.435	-134.35
187.654	-131.01
187.873	-1518.77
188.092	8129.41
188.311	2756.52
188.53	-2560.99
188.748	-655.26
188.967	-370.48
189.186	-697.34
189.405	-686.84
189.623	-3614.29
189.842	1319.51
190.061	2937.46
190.28	-271.35
190.498	-643.26
190.717	-53720
190.936	-1006.47
191.154	-978.53
191.373	-1265.17
191.592	-56.33
191.81	-65.41
192.029	-54.13
192.248	-59.7
192.466	-87.13
192.685	-129.53
192.904	-84.8
193.122	-33.23
193.341	-37.58
193.559	-84.78
193.778	-42.87
193.996	-148.77
194.215	-63.12
194.433	-96.47
194.652	-104.56
194.87	-56.4
195.089	-44.91
195.307	-4.54
195.526	-26.26
195.744	-49.58
195.963	-55.23
196.181	-46.99
196.399	-51.14
196.618	-448.59
196.836	569.29
197.055	304.82
197.273	665.68
197.491	194.11
197.71	227.4
197.928	117.8
198.146	141.03
198.365	556.14
198.583	138.89
198.801	128.3
199.019	400.96
199.238	-78.43
199.456	1349.44
199.674	48.82
199.892	90.77
200.111	99.36
200.329	-216.12
200.547	196.03
200.765	341.75
200.983	-311.27
201.202	-96.73
201.42	-209.52
201.638	-385.6
201.856	-119.34
202.074	-228.1
202.292	-432.74
202.51	-154.38
202.728	-589.94
202.946	-333.54
203.165	-655.36
203.383	-501.99
203.601	-549.51
203.819	-749.03
204.037	-268.43
204.255	-845.92
204.473	2158.33
204.691	1440.11
204.909	-4901.79
205.127	-510.57
205.345	-411.42
205.562	-247.78
205.78	-545.01
205.998	-274.39
206.216	-157.21
206.434	-431.72
206.652	-139.07
206.87	-50.07
207.088	-30.69
207.306	-1.35
207.523	28.8
207.741	93.78
207.959	152.33
208.177	173.76
208.395	187.84
208.612	166.55
208.83	-16.26
209.048	-73.57
209.266	12.42
209.483	55.86
209.701	-68.89
209.919	-25.5
210.136	-66.56
210.354	-24.52
210.572	-3.75
210.79	31.11
211.007	-14.27
211.225	32.27
211.442	79.89
211.66	33.36
211.878	-70.14
212.095	-177.12
212.313	-164.62
212.53	-191.95
212.748	-130.02
212.966	-148.15
213.183	-173.51
213.401	-114.82
213.618	-116.76
213.836	-121.35
214.053	-72
214.271	-60.65
214.488	-5.26
214.705	-34.19
214.923	-24.96
215.14	-29.08
215.358	-12.57
215.575	-14.64
215.793	-20.41
216.01	-25.32
216.227	-41.67
216.445	-125.16
216.662	-98.02
216.879	-176.58
217.097	-129.44
217.314	-153.28
217.531	-159.15
217.749	-540.97
217.966	-559.54
218.183	-866.55
218.4	-478.22
218.618	-431.95
218.835	-565.91
219.052	-677.85
219.269	-302.82
219.487	-214.15
219.704	-220.62
219.921	-149.93
220.138	-56.53
220.355	-40.3
220.572	-19.09
220.79	-12.25
221.007	-19.95
221.224	-13.11
221.441	-12.31
221.658	-0.14
221.875	4.25
222.092	13.12
222.309	9.64
222.526	-22.76
222.743	-18.32
222.96	-28.94
223.177	-25.83
223.394	-9.87
223.611	-0.28
223.828	-2.39
224.045	-13.52
224.262	-14.9
224.479	-20.66
224.696	-19.69
224.913	-14.85
225.13	-13.05
225.347	-6.25
225.564	-1.81
225.781	-0.42
225.997	2.02
226.214	0.66
226.431	2.02
226.648	3.5
226.865	4.55
227.082	3.8
227.298	6.2
227.515	5.07
227.732	6.72
227.949	7.89
228.165	7.63
228.382	5.85
228.599	4.4
228.816	4.28
229.032	2.44
229.249	0.43
229.466	2.5
229.682	3.51
229.899	4.65
230.116	2.03
230.332	-0.05
230.549	-1.38
230.765	1.15
230.982	7.08
231.199	8.63
231.415	14.11
231.632	16.98
231.848	18.6
232.065	16.27
232.281	16.41
232.498	15.29
232.714	11.59
232.931	14.03
233.147	11.38
233.364	7.28
233.58	8.91
233.797	6.58
234.013	3.04
234.23	-1.26
234.446	1.17
234.662	1.8
234.879	3.02
235.095	5.19
235.312	6.87
235.528	7.7
235.744	9.13
235.961	7.96
236.177	6.35
236.393	8.74
236.61	11.38
236.826	9.7
237.042	8.1
237.258	8.57
237.475	3.63
237.691	3.21
237.907	1.65
238.123	3.74
238.339	2.58
238.556	5.68
238.772	8.04
238.988	7.05
239.204	6.98
239.42	9.51
239.636	9.19
239.853	12.32
240.069	11.21
240.285	12.17
240.501	11.85
240.717	12.39
240.933	11.38
241.149	10.9
241.365	10.46
241.581	11.45
241.797	9.82
242.013	9.68
242.229	9.78
242.445	9.28
242.661	9.03
242.877	9.03
243.093	9.3
243.309	8.02
243.525	8.06
243.741	8.75
243.957	6.9
244.173	8.2
244.388	9.08
244.604	8.62
244.82	9.86
245.036	10.34
245.252	10.38
245.468	10.35
245.683	11.07
245.899	11.13
246.115	11.85
246.331	12.31
246.547	12.07
246.762	11.83
246.978	11.79
247.194	11.53
247.409	10.63
247.625	9.97
247.841	9.14
248.057	9.25
248.272	8.82
248.488	7.65
248.703	7.85
248.919	7.68
249.135	6.96
249.35	7.15
249.566	7.36
249.782	6.68
249.997	7.35
250.213	8.93
250.428	8.85
250.644	9.4
250.859	9.21
251.075	8.34
251.29	8.51
251.506	9.45
251.721	9.38
251.937	8.15
252.152	9.38
252.368	9.43
252.583	8.68
252.798	9.42
253.014	8.92
253.229	9.45
253.445	10.06
253.66	10.64
253.875	8.67
254.091	7.09
254.306	7.86
254.521	7.58
254.737	7.31
254.952	7.75
255.167	7.33
255.383	7.26
255.598	8.19
255.813	8.27
256.028	7.51
256.244	6.84
256.459	7.65
256.674	8.05
256.889	8.09
257.104	8.1
257.32	7.77
257.535	7.62
257.75	7.5
257.965	7.42
258.18	7.91
258.395	7.65
258.61	8.27
258.826	8.31
259.041	8.13
259.256	8.55
259.471	8.47
259.686	8.28
259.901	8.44
260.116	8.49
260.331	8
260.546	8.07
260.761	8.5
260.976	8.09
261.191	7.61
261.406	6.99
261.621	6.94
261.836	7.02
262.05	6.85
262.265	5.84
262.48	4.9
262.695	5.29
262.91	4.37
263.125	5.24
263.34	6.38
263.555	7.57
263.769	8.02
263.984	8.11
264.199	8.07
264.414	8.16
264.629	7.47
264.843	8.37
265.058	7.94
265.273	7.55
265.488	6.43
265.702	5.61
265.917	5.75
266.132	6.26
266.346	5
266.561	4.9
266.776	5.88
266.99	6.92
267.205	6.61
267.42	6.6
267.634	6.65
267.849	7.73
268.063	7.87
268.278	7.21
268.492	7.25
268.707	8.13
268.922	8.08
269.136	7.09
269.351	6.8
269.565	6.98
269.78	6.56
269.994	7.21
270.209	7.1
270.423	7.08
270.637	7.19
270.852	6.52
271.066	6.26
271.281	6.1
271.495	6.45
271.709	5.69
271.924	5.58
272.138	6.96
272.353	6.76
272.567	6.05
272.781	6.03
272.996	5.59
273.21	6.31
273.424	6.9
273.638	7.28
273.853	7.06
274.067	7.87
274.281	7.24
274.495	6.75
274.71	6.24
274.924	6.01
275.138	6.42
275.352	6.77
275.566	6.44
275.781	6.18
275.995	5.91
276.209	7.33
276.423	7.19
276.637	7.78
276.851	7.51
277.065	6.83
277.279	7.63
277.493	7.9
277.707	8.06
277.921	8.74
278.135	8.97
278.349	9.15
278.563	7.9
278.777	8.43
278.991	8.5
279.205	8.62
279.419	8.76
279.633	8.75
279.847	8.23
280.061	8.61
280.275	8.61
280.489	8.3
280.703	8.3
280.917	8.55
281.131	8.83
281.344	8.4
281.558	8.06
281.772	8.54
281.986	8.37
282.2	8.24
282.414	8.21
282.627	7.5
282.841	7.88
283.055	7.66
283.269	7.54
283.482	7.51
283.696	8.28
283.91	7.93
284.123	7.85
284.337	8.09
284.551	7.62
284.764	7.58
284.978	8.03
285.192	7.61
285.405	7.88
285.619	7.32
285.833	7.2
286.046	7.2
286.26	7.13
286.473	7.14
286.687	6.93
286.9	7.6
287.114	7.11
287.327	6.85
287.541	7.1
287.754	7.3
287.968	8.11
288.181	8
288.395	8.35
288.608	8.74
288.822	8.92
289.035	9.53
289.248	9.73
289.462	10.53
289.675	10.57
289.889	11.21
290.102	10.7
290.315	11.46
290.529	11.87
290.742	11.5
290.955	11.82
291.169	11.93
291.382	11.41
291.595	11.09
291.808	10.99
292.022	10.41
292.235	9.48
292.448	10.48
292.661	8.93
292.875	8.78
293.088	8.68
293.301	8.38
293.514	8.37
293.727	8.5
293.94	8.46
294.153	8.23
294.367	9.13
294.58	9.17
294.793	9.07
295.006	9.74
295.219	9.41
295.432	9.21
295.645	9.48
295.858	9.43
296.071	8.93
296.284	10
296.497	10.48
296.71	10.4
296.923	11.35
297.136	10.99
297.349	11.11
297.562	11.03
297.775	12.08
297.988	12.13
298.201	12.33
298.414	13.41
298.626	12.65
298.839	12.49
299.052	12.49
299.265	12.08
299.478	12.46
299.691	11.76
299.903	12.33
300.116	11.33
300.329	11.31
300.542	11.87
300.755	11.47
300.967	11.69
301.18	12.21
301.393	11.49
301.605	11.08
301.818	10.78
302.031	11.74
302.243	12.52
302.456	12.84
302.669	13.85
302.881	14.24
303.094	14.88
303.307	15.08
303.519	13.74
303.732	14.67
303.944	14.73
304.157	14.94
304.37	14.23
304.582	13.89
304.795	14.28
305.007	13.86
305.22	12.65
305.432	12.19
305.645	12.38
305.857	13.38
306.069	13.53
306.282	13.18
306.494	13.64
306.707	14.5
306.919	14.7
307.132	13.49
307.344	13.51
307.556	13.94
307.769	14.31
307.981	14.79
308.193	14.96
308.406	14.72
308.618	15.38
308.83	15.12
309.043	14.32
309.255	13.93
309.467	14.53
309.679	13.99
309.892	13.99
310.104	13.26
310.316	12.67
310.528	12.15
310.74	11.74
310.953	11.72
311.165	12.15
311.377	12.97
311.589	12.97
311.801	13.47
312.013	13.86
312.225	14.21
312.437	14.43
312.649	14.35
312.862	13.82
313.074	14.14
313.286	14.12
313.498	14.24
313.71	14.36
313.922	14.47
314.134	14.12
314.346	13.83
314.558	13.16
314.77	13.05
314.982	13.66
315.193	14.99
315.405	15.66
315.617	16.14
315.829	16.02
316.041	15.12
316.253	15.72
316.465	16.27
316.677	17.55
316.888	17.52
317.1	18.9
317.312	18.56
317.524	17.51
317.736	18.3
317.947	18.12
318.159	18.17
318.371	18.92
318.583	18.31
318.794	18.1
319.006	17.82
319.218	19.03
319.43	18.38
319.641	18.46
319.853	19.2
320.064	18.62
320.276	18.32
320.488	18.32
320.699	18.32
320.911	18.49
321.123	18.51
321.334	18.76
321.546	18.52
321.757	18.24
321.969	19.02
322.18	18.53
322.392	18.37
322.603	18.22
322.815	18.58
323.026	18.62
323.238	19.43
323.449	19.98
323.661	19.56
323.872	20.46
324.083	21.29
324.295	21.28
324.506	21.73
324.718	22.39
324.929	23.59
325.14	24.04
325.352	24.42
325.563	25
325.774	24.96
325.986	25.87
326.197	25.79
326.408	25.94
326.62	25.75
326.831	27.2
327.042	26.99
327.253	27.06
327.464	27.57
327.676	29.3
327.887	29.8
328.098	30.03
328.309	30.06
328.52	31.29
328.732	32.88
328.943	34
329.154	34.67
329.365	36.32
329.576	37.24
329.787	37.14
329.998	37.06
330.209	37.24
330.42	38.71
330.631	39.86
330.842	39.81
331.053	39.8
331.264	40.58
331.475	41.1
331.686	42.35
331.897	42.87
332.108	43.57
332.319	43.39
332.53	43.81
332.741	44.4
332.952	44.89
333.163	45.66
333.374	46.37
333.585	46.53
333.795	47.12
334.006	46.13
334.217	46.11
334.428	46.32
334.639	47.49
334.849	48.55
335.06	48.74
335.271	49.1
335.482	49.09
335.692	48.99
335.903	49.79
336.114	49.6
336.325	50.39
336.535	51.15
336.746	51.44
336.957	50.82
337.167	49.87
337.378	50.05
337.589	50.65
337.799	50.95
338.01	51.06
338.22	50.92
338.431	50.7
338.642	50.23
338.852	49.82
339.063	50.15
339.273	49.89
339.484	49.95
339.694	49.38
339.905	48.02
340.115	47.71
340.326	47.88
340.536	47.58
340.746	48.1
340.957	49.13
341.167	49.39
341.378	49.3
341.588	50.02
341.799	51.13
342.009	51.32
342.219	52.59
342.43	52.56
342.64	52.93
342.85	53.27
343.061	52.78
343.271	52.61
343.481	52.08
343.691	51.87
343.902	51.52
344.112	51.54
344.322	51.91
344.532	51.48
344.743	51.9
344.953	52.1
345.163	52.02
345.373	52.34
345.583	52.07
345.793	52.22
346.004	53.52
346.214	53.94
346.424	53.72
346.634	53.79
346.844	54.18
347.054	53.46
347.264	52.74
347.474	53.14
347.684	52.85
347.894	52.66
348.104	53.23
348.314	52.6
348.524	52.55
348.734	52.11
348.944	51.42
349.154	50.57
349.364	51.48
349.574	52.07
349.784	51.77
349.994	52.5
350.204	52.49
350.413	52.27
350.623	52
350.833	51.75
351.043	52.27
351.253	52.43
351.463	52.88
351.672	52.88
351.882	52.8
352.092	52.67
352.302	52.66
352.511	53.14
352.721	52.66
352.931	52.56
353.141	53.36
353.35	53.17
353.56	53.62
353.77	53.16
353.979	53.17
354.189	52.58
354.399	52.72
354.608	52.06
354.818	51.84
355.027	52.33
355.237	52.3
355.447	51.98
355.656	51.98
355.866	51.79
356.075	52
356.285	51.34
356.494	51.71
356.704	51.1
356.913	51.52
357.123	51.64
357.332	51.34
357.542	51.61
357.751	51.38
357.96	51.07
358.17	51.01
358.379	51.1
358.589	51.47
358.798	51.37
359.007	51.62
359.217	51.53
359.426	50.82
359.635	50.98
359.845	50.59
360.054	50.26
360.263	50.16
360.472	50.13
360.682	49.9
360.891	49.31
361.1	49.28
361.309	48.75
361.519	48.24
361.728	48.86
361.937	48.77
362.146	48.75
362.355	48.6
362.564	48.56
362.774	48.34
362.983	47.9
363.192	48.12
363.401	47.6
363.61	47.66
363.819	47.71
364.028	46.74
364.237	46.22
364.446	45.87
364.655	46.14
364.864	45.76
365.073	45.52
365.282	45.55
365.491	45.29
365.7	44.82
365.909	44.34
366.118	43.88
366.327	44.12
366.536	43.96
366.745	43.97
366.954	43.53
367.162	43.41
367.371	43.27
367.58	43.13
367.789	42.98
367.998	43.48
368.207	43.91
368.415	43.82
368.624	43.32
368.833	42.94
369.042	43.17
369.25	43.06
369.459	42.84
369.668	42.61
369.877	42.03
370.085	41.79
370.294	41.18
370.503	40.7
370.711	40.68
370.92	40.68
371.129	40.81
371.337	40.05
371.546	39.55
371.754	39.6
371.963	39.32
372.171	39.26
372.38	39.28
372.589	39.07
372.797	39.09
373.006	38.91
373.214	39.06
373.423	38.73
373.631	38.25
373.84	37.4
374.048	37.06
374.256	36.86
374.465	36.85
374.673	36.55
374.882	36.48
375.09	36.37
375.298	35.8
375.507	35.15
375.715	35.13
375.923	35.02
376.132	35.62
376.34	35.27
376.548	35.33
376.757	34.96
376.965	34.63
377.173	34.51
377.381	33.83
377.59	33.9
377.798	34.14
378.006	33.64
378.214	33.67
378.423	33.29
378.631	33.12
378.839	32.62
379.047	32.66
379.255	32.54
379.463	32.45
379.671	32.87
379.879	32.75
380.088	32.36
380.296	32.23
380.504	31.91
380.712	31.61
380.92	31.47
381.128	31.53
381.336	31.01
381.544	30.81
381.752	30.04
381.96	29.87
382.168	29.54
382.376	29.09
382.584	28.86
382.791	28.87
382.999	28.79
383.207	28.46
383.415	27.74
383.623	27.81
383.831	27.94
384.039	28.14
384.247	27.62
384.454	27.17
384.662	27.04
384.87	26.79
385.078	26.5
385.285	26.27
385.493	26.43
385.701	26.71
385.909	25.96
386.116	25.19
386.324	24.48
386.532	24.34
386.739	24.36
386.947	24
387.155	23.38
387.362	22.92
387.57	22.41
387.778	21.8
387.985	21.33
388.193	21.64
388.4	21.49
388.608	21.66
388.816	21.27
389.023	21.35
389.231	21.15
389.438	21.33
389.646	21.35
389.853	21.44
390.061	21.36
390.268	21.21
390.475	20.86
390.683	20.97
390.89	20.56
391.098	20.53
391.305	20.06
391.512	20.04
391.72	19.88
391.927	19.66
392.135	19.36
392.342	19.27
392.549	19.17
392.756	19.16
392.964	18.86
393.171	18.93
393.378	18.99
393.586	18.97
393.793	18.88
394	18.79
394.207	18.87
394.414	18.9
394.622	18.68
394.829	18.49
395.036	18.34
395.243	18.35
395.45	18.33
395.657	18.08
395.864	18
396.072	17.78
396.279	17.57
396.486	17.32
396.693	17.37
396.9	17.28
397.107	17.29
397.314	17.41
397.521	17.27
397.728	17.37
397.935	17.42
398.142	17.24
398.349	17.1
398.556	16.99
398.763	16.72
398.97	16.52
399.177	16.35
399.383	16.32
399.59	15.99
399.797	16.17
400.004	15.85
400.211	15.64
400.418	15.79
400.625	16
400.831	16.08
401.038	16.1
401.245	16.03
401.452	16.07
401.658	16.18
401.865	16.1
402.072	15.84
402.279	15.78
402.485	15.82
402.692	15.62
402.899	15.47
403.105	15.36
403.312	15.45
403.519	15.34
403.725	15.37
403.932	15.2
404.138	15.27
404.345	15.21
404.552	15.35
404.758	15.3
404.965	15.4
405.171	15.4
405.378	15.46
405.584	15.47
405.791	15.5
405.997	15.48
406.204	15.43
406.41	15.23
406.617	15.25
406.823	15.01
407.029	14.86
407.236	14.67
407.442	14.51
407.649	14.51
407.855	14.29
408.061	14.36
408.268	14.25
408.474	14.23
408.68	14.29
408.887	14.18
409.093	14.34
409.299	14.31
409.505	14.32
409.712	14.3
409.918	14.34
410.124	14.48
410.33	14.29
410.537	14.48
410.743	14.43
410.949	14.49
411.155	14.58
411.361	14.29
411.567	14.25
411.773	14.27
411.98	14.38
412.186	14.13
412.392	13.88
412.598	13.95
412.804	13.55
413.01	13.64
413.216	13.58
413.422	13.68
413.628	13.72
413.834	13.8
414.04	13.82
414.246	13.72
414.452	13.94
414.658	14
414.864	14.06
415.07	14.26
415.275	14.24
415.481	14.13
415.687	14
415.893	14.04
416.099	14.04
416.305	13.92
416.511	13.91
416.716	13.74
416.922	13.8
417.128	13.78
417.334	13.79
417.539	13.77
417.745	13.9
417.951	13.86
418.157	13.86
418.362	13.75
418.568	13.8
418.774	13.84
418.979	13.9
419.185	13.86
419.391	13.74
419.596	13.64
419.802	13.6
420.008	13.51
420.213	13.54
420.419	13.48
420.624	13.55
420.83	13.47
421.035	13.49
421.241	13.47
421.446	13.44
421.652	13.51
421.857	13.48
422.063	13.43
422.268	13.4
422.474	13.29
422.679	13.31
422.885	13.24
423.09	13.26
423.295	13.13
423.501	13.09
423.706	13.09
423.911	13.02
424.117	13
424.322	12.98
424.527	13
424.733	13.04
424.938	12.97
425.143	12.89
425.349	12.8
425.554	12.78
425.759	12.72
425.964	12.58
426.169	12.54
426.375	12.55
426.58	12.64
426.785	12.59
426.99	12.61
427.195	12.72
427.4	12.71
427.605	12.79
427.811	12.84
428.016	12.8
428.221	12.93
428.426	12.88
428.631	12.81
428.836	12.79
429.041	12.76
429.246	12.64
429.451	12.61
429.656	12.58
429.861	12.57
430.066	12.64
430.271	12.62
430.476	12.59
430.681	12.6
430.886	12.68
431.09	12.65
431.295	12.67
431.5	12.66
431.705	12.6
431.91	12.67
432.115	12.67
432.32	12.56
432.524	12.48
432.729	12.53
432.934	12.63
433.139	12.6
433.343	12.59
433.548	12.62
433.753	12.71
433.958	12.76
434.162	12.84
434.367	12.83
434.572	12.91
434.776	13.01
434.981	12.96
435.186	12.9
435.39	12.99
435.595	13.03
435.799	12.96
436.004	12.98
436.209	12.91
436.413	12.79
436.618	12.87
436.822	12.84
437.027	12.84
437.231	12.86
437.436	12.9
437.64	12.77
437.845	12.73
438.049	12.79
438.253	12.77
438.458	12.81
438.662	12.8
438.867	12.67
439.071	12.62
439.275	12.65
439.48	12.68
439.684	12.67
439.888	12.63
440.093	12.64
440.297	12.63
440.501	12.6
440.706	12.54
440.91	12.67
441.114	12.72
441.318	12.81
441.523	12.79
441.727	12.72
441.931	12.77
442.135	12.89
442.339	12.93
442.543	12.93
442.748	12.94
442.952	12.95
443.156	12.75
443.36	12.71
443.564	12.62
443.768	12.62
443.972	12.59
444.176	12.49
444.38	12.38
444.584	12.35
444.788	12.35
444.992	12.37
445.196	12.34
445.4	12.31
445.604	12.24
445.808	12.27
446.012	12.23
446.216	12.21
446.42	12.29
446.624	12.35
446.828	12.26
447.032	12.2
447.235	12.1
447.439	12.15
447.643	12.17
447.847	12.25
448.051	12.22
448.254	12.28
448.458	12.24
448.662	12.09
448.866	12.06
449.069	12.16
449.273	12.14
449.477	12.07
449.681	12.06
449.884	12.11
450.088	12.2
450.292	12.19
450.495	12.19
450.699	12.35
450.902	12.42
451.106	12.48
451.31	12.32
451.513	12.3
451.717	12.28
451.92	12.29
452.124	12.29
452.327	12.16
452.531	12.19
452.734	12.24
452.938	12.08
453.141	11.97
453.345	11.93
453.548	12.06
453.752	12.16
453.955	12.27
454.158	12.19
454.362	12.22
454.565	12.22
454.769	12.16
454.972	12.15
455.175	12.19
455.379	12.27
455.582	12.23
455.785	12.22
455.988	12.09
456.192	12.16
456.395	12.2
456.598	12.12
456.801	12.17
457.005	12.18
457.208	12.14
457.411	12.14
457.614	12.15
457.817	12.21
458.021	12.16
458.224	12.22
458.427	12.18
458.63	12.21
458.833	12.21
459.036	12.16
459.239	12.12
459.442	12.06
459.645	12.14
459.848	12.17
460.051	12.14
460.254	12.24
460.457	12.23
460.66	12.18
460.863	12.14
461.066	12.23
461.269	12.22
461.472	12.29
461.675	12.38
461.878	12.28
462.081	12.18
462.284	12.22
462.486	12.05
462.689	12.05
462.892	12.21
463.095	12.17
463.298	12.16
463.5	12.22
463.703	12.27
463.906	12.22
464.109	12.23
464.311	12.29
464.514	12.33
464.717	12.39
464.92	12.34
465.122	12.3
465.325	12.44
465.528	12.53
465.73	12.56
465.933	12.57
466.135	12.6
466.338	12.66
466.541	12.71
466.743	12.62
466.946	12.67
467.148	12.78
467.351	12.68
467.553	12.66
467.756	12.62
467.958	12.64
468.161	12.64
468.363	12.69
468.566	12.69
468.768	12.65
468.971	12.67
469.173	12.64
469.375	12.66
469.578	12.7
469.78	12.67
469.983	12.64
470.185	12.65
470.387	12.65
470.59	12.7
470.792	12.78
470.994	12.86
471.196	12.91
471.399	13
471.601	12.99
471.803	13.09
472.005	13.07
472.208	13.06
472.41	13.08
472.612	13.09
472.814	12.98
473.016	12.93
473.218	12.8
473.421	12.73
473.623	12.73
473.825	12.7
474.027	12.66
474.229	12.7
474.431	12.76
474.633	12.64
474.835	12.66
475.037	12.73
475.239	12.71
475.441	12.84
475.643	12.88
475.845	12.8
476.047	12.77
476.249	12.78
476.451	12.77
476.653	12.78
476.855	12.84
477.057	12.84
477.258	12.84
477.46	12.9
477.662	12.84
477.864	12.87
478.066	12.85
478.268	12.85
478.469	12.77
478.671	12.72
478.873	12.69
479.075	12.72
479.276	12.65
479.478	12.58
479.68	12.56
479.882	12.57
480.083	12.56
480.285	12.59
480.487	12.63
480.688	12.67
480.89	12.71
481.091	12.72
481.293	12.7
481.495	12.72
481.696	12.77
481.898	12.75
482.099	12.7
482.301	12.67
482.502	12.67
482.704	12.65
482.905	12.62
483.107	12.58
483.308	12.55
483.51	12.54
483.711	12.53
483.913	12.48
484.114	12.46
484.315	12.45
484.517	12.46
484.718	12.45
484.92	12.47
485.121	12.53
485.322	12.63
485.524	12.67
485.725	12.69
485.926	12.72
486.127	12.77
486.329	12.79
486.53	12.81
486.731	12.82
486.932	12.81
487.134	12.8
487.335	12.79
487.536	12.76
487.737	12.73
487.938	12.74
488.139	12.75
488.341	12.73
488.542	12.79
488.743	12.83
488.944	12.86
489.145	12.91
489.346	13
489.547	12.99
489.748	13.01
489.949	13.03
490.15	13.03
490.351	13.04
490.552	13.02
490.753	13.01
490.954	12.97
491.155	12.98
491.356	12.95
491.557	12.92
491.758	12.93
491.959	12.88
492.159	12.9
492.36	12.93
492.561	12.97
492.762	13
492.963	12.99
493.164	13.08
493.364	13.12
493.565	13.22
493.766	13.16
493.967	13.21
494.167	13.32
494.368	13.28
494.569	13.37
494.769	13.36
494.97	13.4
495.171	13.44
495.371	13.46
495.572	13.5
495.773	13.57
495.973	13.6
496.174	13.67
496.375	13.69
496.575	13.72
496.776	13.75
496.976	13.8
497.177	13.85
497.377	13.88
497.578	13.94
497.778	13.99
497.979	14.03
498.179	14.13
498.38	14.12
498.58	14.2
498.78	14.39
498.981	14.39
499.181	14.44
499.382	14.5
499.582	14.49
499.782	14.55
499.983	14.65
500.183	14.56
500.383	14.69
500.584	14.75
500.784	14.83
500.984	14.73
501.184	14.86
501.385	14.9
501.585	15.05
501.785	15.15
501.985	15.22
502.185	15.18
502.386	15.31
502.586	15.22
502.786	15.36
502.986	15.4
503.186	15.54
503.386	15.55
503.586	15.59
503.786	15.61
503.987	15.76
504.187	15.78
504.387	15.86
504.587	15.93
504.787	16.06
504.987	16.04
505.187	16.06
505.387	16.2
505.587	16.27
505.786	16.35
505.986	16.36
506.186	16.39
506.386	16.54
506.586	16.64
506.786	16.72
506.986	16.8
507.186	16.83
507.386	16.9
507.585	16.89
507.785	16.84
507.985	16.86
508.185	16.9
508.384	16.96
508.584	16.96
508.784	17
508.984	17.13
509.183	17.17
509.383	17.29
509.583	17.36
509.782	17.4
509.982	17.59
510.182	17.67
510.381	17.78
510.581	17.8
510.781	17.89
510.98	18.01
511.18	18
511.379	18.08
511.579	18.18
511.778	18.24
511.978	18.35
512.177	18.48
512.377	18.61
512.576	18.62
512.776	18.67
512.975	18.7
513.175	18.67
513.374	18.75
513.573	18.78
513.773	18.83
513.972	18.89
514.172	19.01
514.371	19.08
514.57	19.1
514.77	19.2
514.969	19.45
515.168	19.64
515.367	19.84
515.567	20.05
515.766	20.18
515.965	20.29
516.164	20.39
516.364	20.43
516.563	20.47
516.762	20.6
516.961	20.72
517.16	20.76
517.359	20.74
517.559	20.84
517.758	20.83
517.957	20.86
518.156	20.88
518.355	20.93
518.554	20.99
518.753	21.06
518.952	21.08
519.151	21.12
519.35	21.11
519.549	21.17
519.748	21.17
519.947	21.27
520.146	21.35
520.345	21.41
520.544	21.59
520.743	21.71
520.942	21.8
521.141	21.93
521.339	22
521.538	22.16
521.737	22.34
521.936	22.43
522.135	22.52
522.333	22.67
522.532	22.86
522.731	22.86
522.93	22.87
523.129	22.89
523.327	22.98
523.526	23.03
523.725	23.08
523.923	23.12
524.122	23.21
524.321	23.26
524.519	23.28
524.718	23.28
524.917	23.36
525.115	23.45
525.314	23.58
525.512	23.65
525.711	23.77
525.909	23.85
526.108	23.94
526.306	24.02
526.505	24.06
526.703	24.1
526.902	24.14
527.1	24.15
527.299	24.15
527.497	24.15
527.696	24.18
527.894	24.2
528.092	24.18
528.291	24.15
528.489	24.13
528.688	24.15
528.886	24.17
529.084	24.21
529.283	24.28
529.481	24.37
529.679	24.45
529.877	24.53
530.076	24.58
530.274	24.73
530.472	24.89
530.67	25.04
530.869	25.11
531.067	25.2
531.265	25.29
531.463	25.36
531.661	25.42
531.859	25.39
532.057	25.38
532.255	25.39
532.454	25.43
532.652	25.38
532.85	25.35
533.048	25.42
533.246	25.45
533.444	25.46
533.642	25.47
533.84	25.5
534.038	25.6
534.236	25.68
534.434	25.82
534.632	25.83
534.83	25.94
535.027	26
535.225	26.08
535.423	26.08
535.621	26.12
535.819	26.14
536.017	26.23
536.215	26.26
536.412	26.29
536.61	26.31
536.808	26.43
537.006	26.43
537.203	26.49
537.401	26.45
537.599	26.5
537.797	26.53
537.994	26.63
538.192	26.69
538.39	26.79
538.587	26.86
538.785	26.91
538.983	26.91
539.18	26.96
539.378	27.02
539.575	27.08
539.773	27.13
539.97	27.13
540.168	27.12
540.366	27.07
540.563	27.08
540.761	27.03
540.958	27.03
541.155	27.04
541.353	27.04
541.55	27.01
541.748	27.02
541.945	27.03
542.143	27.02
542.34	27.04
542.537	27.09
542.735	27.11
542.932	27.22
543.129	27.23
543.327	27.24
543.524	27.31
543.721	27.42
543.919	27.43
544.116	27.48
544.313	27.62
544.51	27.65
544.708	27.74
544.905	27.76
545.102	27.77
545.299	27.87
545.496	27.86
545.693	27.89
545.891	27.89
546.088	27.88
546.285	27.83
546.482	27.81
546.679	27.88
546.876	27.83
547.073	27.83
547.27	27.78
547.467	27.7
547.664	27.82
547.861	27.8
548.058	27.79
548.255	27.89
548.452	28.04
548.649	28.15
548.846	28.22
549.043	28.23
549.24	28.33
549.437	28.39
549.633	28.36
549.83	28.42
550.027	28.45
550.224	28.51
550.421	28.6
550.618	28.62
550.814	28.61
551.011	28.52
551.208	28.61
551.405	28.68
551.601	28.73
551.798	28.86
551.995	28.84
552.191	28.82
552.388	28.85
552.585	28.86
552.781	28.82
552.978	28.79
553.175	28.89
553.371	28.8
553.568	28.7
553.764	28.69
553.961	28.74
554.157	28.8
554.354	28.96
554.55	28.93
554.747	28.91
554.943	28.89
555.14	29
555.336	29.13
555.533	29.38
555.729	29.41
555.926	29.45
556.122	29.31
556.318	29.28
556.515	29.34
556.711	29.37
556.907	29.38
557.104	29.42
557.3	29.54
557.496	29.49
557.693	29.47
557.889	29.4
558.085	29.51
558.281	29.83
558.478	30.02
558.674	30.1
558.87	30.16
559.066	30.23
559.262	30.37
559.459	30.28
559.655	30.38
559.851	30.36
560.047	30.61
560.243	30.57
560.439	30.5
560.635	30.38
560.831	30.24
561.027	30.22
561.223	30.22
561.419	30.12
561.615	30.09
561.811	29.99
562.007	30.05
562.203	29.93
562.399	29.99
562.595	30.03
562.791	30.15
562.987	30.33
563.183	30.46
563.379	30.55
563.575	30.71
563.771	30.89
563.966	30.88
564.162	30.97
564.358	31.07
564.554	31.15
564.75	31.19
564.945	31.18
565.141	31.13
565.337	31.18
565.533	31.18
565.728	31.21
565.924	31.15
566.12	31.26
566.315	31.19
566.511	31.23
566.707	31.23
566.902	31.19
567.098	31.19
567.293	31.23
567.489	31.24
567.684	31.23
567.88	31.25
568.076	31.28
568.271	31.28
568.467	31.36
568.662	31.33
568.858	31.32
569.053	31.48
569.248	31.51
569.444	31.53
569.639	31.49
569.835	31.56
570.03	31.62
570.225	31.78
570.421	31.78
570.616	31.86
570.812	32.07
571.007	32.07
571.202	32.02
571.397	32.07
571.593	32.1
571.788	32.22
571.983	32.17
572.178	32.09
572.374	32.16
572.569	32.19
572.764	32.2
572.959	32.15
573.154	32.19
573.35	32.26
573.545	32.28
573.74	32.3
573.935	32.34
574.13	32.5
574.325	32.64
574.52	32.45
574.715	32.55
574.91	32.44
575.105	32.43
575.3	32.48
575.495	32.55
575.69	32.65
575.885	32.56
576.08	32.43
576.275	32.43
576.47	32.48
576.665	32.63
576.86	32.64
577.055	32.86
577.25	32.92
577.444	33.06
577.639	33.01
577.834	32.99
578.029	33.23
578.224	33.2
578.418	33.2
578.613	33.11
578.808	33.12
579.003	32.99
579.197	32.91
579.392	32.91
579.587	32.93
579.781	32.92
579.976	32.97
580.171	33.12
580.365	33.34
580.56	33.31
580.755	33.4
580.949	33.51
581.144	33.7
581.338	33.74
581.533	33.79
581.727	33.62
581.922	33.64
582.116	33.65
582.311	33.5
582.505	33.46
582.7	33.53
582.894	33.49
583.089	33.5
583.283	33.47
583.478	33.56
583.672	33.47
583.866	33.55
584.061	33.51
584.255	33.54
584.449	33.54
584.644	33.67
584.838	33.67
585.032	33.89
585.226	33.87
585.421	33.88
585.615	33.74
585.809	33.96
586.003	34.02
586.198	34.11
586.392	34.14
586.586	34.22
586.78	34.22
586.974	34.29
587.168	34.21
587.363	34.28
587.557	34.34
587.751	34.47
587.945	34.47
588.139	34.47
588.333	34.52
588.527	34.47
588.721	34.5
588.915	34.48
589.109	34.44
589.303	34.47
589.497	34.24
589.691	34.18
589.885	34.25
590.079	34.1
590.273	34.08
590.466	34
590.66	34.1
590.854	34.22
591.048	34.2
591.242	34.17
591.436	34.19
591.629	34.42
591.823	34.55
592.017	34.54
592.211	34.78
592.404	34.88
592.598	35
592.792	34.97
592.986	34.89
593.179	35
593.373	35.18
593.567	35.14
593.76	35.19
593.954	35.14
594.147	35.24
594.341	35.17
594.535	35.13
594.728	35.26
594.922	35.29
595.115	35.39
595.309	35.4
595.502	35.34
595.696	35.44
595.889	35.4
596.083	35.48
596.276	35.43
596.47	35.38
596.663	35.51
596.856	35.47
597.05	35.49
597.243	35.33
597.437	35.26
597.63	35.28
597.823	35.32
598.017	35.33
598.21	35.38
598.403	35.43
598.596	35.55
598.79	35.54
598.983	35.62
599.176	35.6
599.369	35.68
599.563	35.69
599.756	35.77
599.949	35.79
600.142	35.92
600.335	35.81
600.528	36.01
600.722	36.17
600.915	36.15
601.108	36.21
601.301	36.41
601.494	36.56
601.687	36.62
601.88	36.55
602.073	36.51
602.266	36.52
602.459	36.59
602.652	36.49
602.845	36.3
603.038	36.34
603.231	36.26
603.424	36.11
603.617	36.03
603.809	36.05
604.002	36
604.195	35.98
604.388	35.86
604.581	35.75
604.774	35.7
604.966	35.66
605.159	35.48
605.352	35.43
605.545	35.48
605.737	35.53
605.93	35.55
606.123	35.76
606.316	35.83
606.508	35.94
606.701	36.11
606.894	36.2
607.086	36.31
607.279	36.49
607.471	36.49
607.664	36.59
607.857	36.63
608.049	36.58
608.242	36.56
608.434	36.65
608.627	36.71
608.819	36.66
609.012	36.52
609.204	36.47
609.397	36.58
609.589	36.69
609.782	36.56
609.974	36.44
610.166	36.34
610.359	36.37
610.551	36.25
610.743	36.15
610.936	36.06
611.128	36.07
611.32	36.16
611.513	36.05
611.705	36.02
611.897	36.17
612.09	36.35
612.282	36.49
612.474	36.33
612.666	36.4
612.858	36.51
613.051	36.67
613.243	36.84
613.435	36.86
613.627	36.79
613.819	36.69
614.011	36.63
614.203	36.66
614.395	36.98
614.588	37.15
614.78	37.05
614.972	37.04
615.164	36.88
615.356	36.78
615.548	36.8
615.74	36.94
615.932	37.04
616.124	37.08
616.315	36.93
616.507	36.55
616.699	36.3
616.891	36.19
617.083	36.13
617.275	36.33
617.467	36.33
617.659	36.38
617.85	36.34
618.042	36.23
618.234	36.33
618.426	36.45
618.618	36.45
618.809	36.68
619.001	36.71
619.193	36.72
619.384	37.01
619.576	37.06
619.768	37.13
619.959	37.18
620.151	37.19
620.343	36.92
620.534	36.97
620.726	36.97
620.917	36.78
621.109	36.71
621.301	36.71
621.492	36.41
621.684	36.33
621.875	36.28
622.067	36.36
622.258	36.58
622.45	36.9
622.641	36.89
622.832	36.92
623.024	37.08
623.215	37.45
623.407	37.6
623.598	37.81
623.789	37.86
623.981	37.7
624.172	37.64
624.363	37.55
624.555	37.45
624.746	37.51
624.937	37.53
625.129	37.71
625.32	37.44
625.511	37.3
625.702	37.13
625.893	37.16
626.085	37.16
626.276	37.22
626.467	37.28
626.658	37.17
626.849	37.13
627.04	37.16
627.231	37.08
627.422	37.3
627.614	37.4
627.805	37.41
627.996	37.43
628.187	37.61
628.378	37.44
628.569	37.4
628.76	37.47
628.951	37.32
629.142	37.35
629.332	37.27
629.523	37.32
629.714	37.26
629.905	37.2
630.096	37.3
630.287	37.23
630.478	37.25
630.669	37.19
630.859	37.2
631.05	37.36
631.241	37.34
631.432	37.41
631.623	37.28
631.813	37.26
632.004	37.27
632.195	37.12
632.385	37.11
632.576	37.22
632.767	37.29
632.957	37.36
633.148	37.38
633.339	37.37
633.529	37.45
633.72	37.38
633.91	37.37
634.101	37.38
634.292	37.4
634.482	37.39
634.673	37.36
634.863	37.32
635.054	37.09
635.244	36.98
635.435	37.06
635.625	36.94
635.815	36.99
636.006	37.2
636.196	37.25
636.387	37.3
636.577	37.3
636.767	37.13
636.958	37.16
637.148	37.37
637.338	37.47
637.529	37.34
637.719	37.15
637.909	37.27
638.099	37.13
638.29	37.02
638.48	36.94
638.67	36.94
638.86	37.05
639.05	37.14
639.241	37.1
639.431	37.02
639.621	37
639.811	37.15
640.001	36.96
640.191	36.79
640.381	37.02
640.571	37.08
640.761	36.97
640.951	36.86
641.141	36.72
641.331	36.68
641.521	36.71
641.711	36.71
641.901	36.44
642.091	36.44
642.281	36.64
642.471	36.45
642.661	36.34
642.851	36.56
643.041	36.58
643.231	36.62
643.42	36.88
643.61	36.87
643.8	36.91
643.99	37.16
644.18	37.48
644.369	37.52
644.559	37.65
644.749	37.9
644.939	37.78
645.128	38.09
645.318	38.01
645.508	37.96
645.697	37.89
645.887	37.91
646.076	37.95
646.266	37.74
646.456	37.79
646.645	37.85
646.835	37.74
647.024	37.81
647.214	37.56
647.403	37.76
647.593	37.72
647.782	37.79
647.972	37.91
648.161	38.2
648.351	38.25
648.54	37.95
648.73	37.78
648.919	37.66
649.108	37.45
649.298	37.64
649.487	37.55
649.677	37.36
649.866	37.33
650.055	37.21
650.244	37
650.434	36.95
650.623	37.04
650.812	37.25
651.002	37.59
651.191	37.78
651.38	37.79
651.569	37.75
651.758	37.9
651.947	38
652.137	38.14
652.326	38.24
652.515	38.25
652.704	38.01
652.893	37.76
653.082	37.45
653.271	37.42
653.46	37.18
653.649	37.17
653.838	37.25
654.027	37.07
654.216	37.06
654.405	36.74
654.594	36.69
654.783	36.93
654.972	37.11
655.161	37.19
655.35	37.24
655.539	37.48
655.728	37.48
655.916	37.2
656.105	37.14
656.294	37.27
656.483	37.43
656.672	37.67
656.86	37.87
657.049	37.84
657.238	37.92
657.427	37.87
657.615	37.87
657.804	37.85
657.993	38.03
658.181	38.32
658.37	38.06
658.559	38.05
658.747	37.82
658.936	37.68
659.125	37.95
659.313	37.81
659.502	37.64
659.69	37.63
659.879	37.63
660.067	37.58
660.256	37.27
660.444	37.38
660.633	37.26
660.821	37.25
661.01	37.28
661.198	36.97
661.387	37.09
661.575	37.19
661.763	37.07
661.952	37
662.14	37.04
662.328	37.23
662.517	37.31
662.705	37.35
662.893	37.55
663.082	37.58
663.27	37.69
663.458	37.7
663.646	38.02
663.834	38.18
664.023	38.28
664.211	38.31
664.399	38.25
664.587	38.03
664.775	38.26
664.963	38.06
665.152	38.07
665.34	38.16
665.528	37.95
665.716	37.91
665.904	37.91
666.092	37.71
666.28	37.68
666.468	37.75
666.656	37.92
666.844	37.71
667.032	37.92
667.22	37.91
667.408	37.8
667.596	38.07
667.784	37.89
667.971	37.8
668.159	37.74
668.347	37.8
668.535	37.68
668.723	37.56
668.911	37.77
669.098	37.58
669.286	37.83
669.474	37.65
669.662	37.55
669.849	37.39
670.037	37.51
670.225	37.8
670.413	37.75
670.6	38.01
670.788	38.24
670.976	37.99
671.163	37.99
671.351	37.85
671.538	37.84
671.726	37.78
671.913	37.98
672.101	37.58
672.289	37.27
672.476	36.89
672.664	36.56
672.851	36.23
673.039	36.35
673.226	36.55
673.413	36.23
673.601	36.26
673.788	36.34
673.976	36.55
674.163	37.07
674.35	37.28
674.538	37.77
674.725	37.81
674.912	38.09
675.1	38.2
675.287	38.13
675.474	38.34
675.662	38.4
675.849	38.44
676.036	38.4
676.223	38.3
676.411	38.38
676.598	38.1
676.785	38.25
676.972	38.27
677.159	38.37
677.346	38.32
677.533	38.19
677.721	38.01
677.908	37.81
678.095	37.81
678.282	37.74
678.469	37.88
678.656	38.28
678.843	38.27
679.03	38.1
679.217	37.97
679.404	38.21
679.591	38.37
679.778	38.39
679.964	38.35
680.151	38.4
680.338	38.5
680.525	38.31
680.712	37.91
680.899	37.78
681.086	37.86
681.272	37.59
681.459	37.3
681.646	37.18
681.833	37.36
682.02	37.66
682.206	37.35
682.393	37.39
682.58	37.6
682.766	37.84
682.953	38.05
683.14	37.91
683.326	38.28
683.513	38.35
683.7	38.5
683.886	38.39
684.073	38.39
684.259	38.37
684.446	37.94
684.632	37.79
684.819	37.57
685.005	37.37
685.192	37.55
685.378	37.59
685.565	37.8
685.751	37.77
685.938	38.05
686.124	38.03
686.31	38.2
686.497	38.38
686.683	38.5
686.87	38.52
687.056	38.61
687.242	38.53
687.429	38.26
687.615	38.15
687.801	38
687.987	37.54
688.174	37.45
688.36	37.68
688.546	37.42
688.732	37.3
688.918	37.64
689.105	37.68
689.291	37.79
689.477	38.1
689.663	38.05
689.849	38.29
690.035	38.49
690.221	38.78
690.407	38.66
690.593	39.22
690.779	39.73
690.965	39.55
691.151	39.45
691.337	39.36
691.523	39.27
691.709	39.67
691.895	39.33
692.081	39.19
692.267	38.94
692.453	38.85
692.639	38.41
692.825	37.85
693.011	37.89
693.196	37.68
693.382	37.38
693.568	36.96
693.754	36.4
693.94	36.74
694.125	37
694.311	36.89
694.497	36.93
694.682	37.03
694.868	37.28
695.054	37.12
695.239	37.23
695.425	37.33
695.611	37.74
695.796	38
695.982	37.75
696.168	37.71
696.353	37.64
696.539	37.38
696.724	37.44
696.91	37.25
697.095	37.33
697.281	37.35
697.466	37.56
697.652	37.61
697.837	37.48
698.023	37.45
698.208	37.41
698.393	37.57
698.579	37.53
698.764	37.59
698.949	37.66
699.135	37.59
699.32	37.67
699.505	37.71
699.691	37.35
699.876	37.41
700.061	37.52
700.246	37.25
700.432	37.03
700.617	37.25
700.802	37.01
700.987	36.92
701.172	37.02
701.358	37.3
701.543	36.85
701.728	36.8
701.913	36.6
702.098	36.6
702.283	37.16
702.468	37.02
702.653	36.92
702.838	37.3
703.023	37.53
703.208	37.33
703.393	37.22
703.578	37.55
703.763	37.78
703.948	38.15
704.133	37.84
704.318	37.55
704.503	37.92
704.688	37.75
704.873	37.48
705.057	37.19
705.242	37.35
705.427	37.14
705.612	37.33
705.797	37.5
705.981	37.31
706.166	37.6
706.351	37.7
706.536	37.74
706.72	38.22
706.905	38.27
707.09	38.5
707.274	38.66
707.459	38.41
707.644	38.11
707.828	38.19
708.013	38.01
708.197	38.37
708.382	38.41
708.567	38.42
708.751	38.12
708.936	38.14
709.12	38.07
709.305	37.73
709.489	37.97
709.673	38.09
709.858	37.54
710.042	37.99
710.227	37.59
710.411	37.4
710.596	37.31
710.78	37.38
710.964	37.21
711.149	37.22
711.333	37.21
711.517	37
711.702	37.03
711.886	37.61
712.07	37.52
712.254	37.79
712.438	37.93
712.623	37.68
712.807	37.89
712.991	38.33
713.175	38.41
713.359	38.46
713.544	38.85
713.728	39.04
713.912	38.47
714.096	38.17
714.28	38.05
714.464	37.91
714.648	38.28
714.832	37.94
715.016	37.74
715.2	37.52
715.384	37.48
715.568	37.5
715.752	37.49
715.936	37.89
716.12	37.89
716.304	38.15
716.488	38.24
716.671	38.19
716.855	38.43
717.039	38.32
717.223	38.19
717.407	38.05
717.59	37.99
717.774	37.78
717.958	37.93
718.142	37.96
718.325	37.5
718.509	37.48
718.693	37.35
718.877	37.57
719.06	37.62
719.244	37.84
719.428	38.37
719.611	38.35
719.795	38.45
719.978	38.13
720.162	37.79
720.345	38.02
720.529	38.2
720.713	38.24
720.896	37.76
721.08	37.43
721.263	37.8
721.446	37.4
721.63	37.31
721.813	36.93
721.997	37.01
722.18	37.4
722.364	36.86
722.547	36.72
722.73	36.48
722.914	36.92
723.097	37.3
723.28	36.84
723.464	37.19
723.647	37.02
723.83	37.05
724.013	37.09
724.197	37.24
724.38	37.36
724.563	36.96
724.746	37.09
724.929	36.97
725.112	36.57
725.296	36.84
725.479	36.7
725.662	37.02
725.845	37.64
726.028	38.33
726.211	38.02
726.394	38.19
726.577	38.61
726.76	38.6
726.943	38.45
727.126	38.49
727.309	38.53
727.492	38.69
727.675	38.62
727.858	38.08
728.041	37.77
728.224	37.64
728.407	37.79
728.589	38.17
728.772	38.32
728.955	38.54
729.138	39.1
729.321	38.93
729.503	38.92
729.686	38.56
729.869	39.07
730.052	38.66
730.234	38.74
730.417	38.28
730.6	37.82
730.782	37.33
730.965	37.27
731.148	37.21
731.33	37.39
731.513	37.17
731.695	37.29
731.878	36.72
732.061	36.78
732.243	36.81
732.426	37.49
732.608	37.96
732.791	38.11
732.973	38.14
733.156	37.68
733.338	37.45
733.52	37.21
733.703	37.14
733.885	37.54
734.068	37.24
734.25	36.96
734.432	36.27
734.615	35.47
734.797	35.75
734.979	35.43
735.162	35.41
735.344	35.19
735.526	35.39
735.708	35.83
735.891	35.45
736.073	35.98
736.255	36.14
736.437	36.14
736.619	36.33
736.802	35.97
736.984	35.9
737.166	35.76
737.348	35.5
737.53	35.69
737.712	35.43
737.894	35.45
738.076	35.41
738.258	35.8
738.44	36.51
738.622	36.62
738.804	36.91
738.986	36.84
739.168	37.25
739.35	37.52
739.532	37.08
739.714	37.15
739.896	37.36
740.078	37.35
740.259	37.79
740.441	37.45
740.623	37.31
740.805	37.32
740.987	37.6
741.168	37.38
741.35	37.28
741.532	37.77
741.714	37.31
741.895	36.99
742.077	36.96
742.259	36.52
742.44	36.77
742.622	37.32
742.804	36.87
742.985	37.17
743.167	37.37
743.348	37.99
743.53	37.55
743.711	38.36
743.893	39
744.075	38.61
744.256	38.56
744.438	38.06
744.619	37.32
744.8	36.53
744.982	36.27
745.163	36.23
745.345	35.37
745.526	35.81
745.707	35.06
745.889	34.52
746.07	34.85
746.252	34.75
746.433	34.74
746.614	35.4
746.795	36.9
746.977	36.82
747.158	37.15
747.339	38.22
747.52	38.4
747.702	38.69
747.883	38.59
748.064	38.33
748.245	37.76
748.426	37.51
748.607	37.21
748.788	37
748.97	37.01
749.151	36.17
749.332	35.65
749.513	35.26
749.694	34.76
749.875	35.08
750.056	35.44
750.237	36.34
750.418	36.59
750.599	36.55
750.78	35.9
750.96	36.02
751.141	37.09
751.322	37.25
751.503	36.98
751.684	37.94
751.865	38.07
752.046	38
752.226	37.59
752.407	37.8
752.588	37.31
752.769	37.36
752.949	37.24
753.13	37.1
753.311	37.47
753.492	37.91
753.672	38.14
753.853	37.65
754.034	37.76
754.214	38.23
754.395	38.02
754.575	38.62
754.756	38.62
754.937	38.39
755.117	38.31
755.298	37.64
755.478	37.43
755.659	37.05
755.839	37.41
756.02	37.24
756.2	36.52
756.381	36.04
756.561	35.79
756.741	36.21
756.922	36.48
757.102	36.08
757.283	36.2
757.463	36.38
757.643	36.23
757.823	36.16
758.004	35.79
758.184	36.06
758.364	36.65
758.545	36.91
758.725	37.31
758.905	37.58
759.085	37.77
759.265	37.94
759.446	37.46
759.626	37.23
759.806	37.02
759.986	37.51
760.166	38.01
760.346	38.33
760.526	38.17
760.706	37.99
760.886	37.5
761.066	37.52
761.246	37.39
761.426	37.68
761.606	38.28
761.786	38.49
761.966	38.58
762.146	38.18
762.326	37.94
762.506	38.07
762.686	38.54
762.866	38.66
763.046	38.69
763.225	38.68
763.405	38.39
763.585	38.11
763.765	38.31
763.945	38.24
764.124	38.43
764.304	38.53
764.484	38.84
764.664	38.57
764.843	38.53
765.023	38.46
765.203	38.32
765.382	38.77
765.562	38.67
765.741	38.33
765.921	38.06
766.101	38.26
766.28	37.86
766.46	37.19
766.639	36.57
766.819	37
766.998	37.1
767.178	37.65
767.357	37.45
767.537	37.44
767.716	37.46
767.896	37.72
768.075	37.09
768.254	37.4
768.434	37.66
768.613	38.33
768.792	37.55
768.972	37.44
769.151	37.07
769.33	37.43
769.51	37.46
769.689	37.94
769.868	37.67
770.047	38.14
770.226	38.41
770.406	38.04
770.585	36.89
770.764	37.57
770.943	36.66
771.122	36.85
771.301	37.44
771.48	37.35
771.66	36.3
771.839	35.93
772.018	35.63
772.197	35.78
772.376	36.6
772.555	36.27
772.734	35.9
772.913	37.16
773.092	36.92
773.271	34.96
773.449	34.97
773.628	35.85
773.807	36.24
773.986	36.15
774.165	36.07
774.344	35.84
774.523	36.65
774.701	36.71
774.88	36.3
775.059	36.44
775.238	37.23
775.417	37.33
775.595	37.05
775.774	36.51
775.953	36.32
776.131	35.62
776.31	35.11
776.489	35.71
776.667	35.69
776.846	36.29
777.025	35.75
777.203	35.8
777.382	35.41
777.56	36.1
777.739	36.66
777.917	36.61
778.096	36.2
778.274	36.8
778.453	36.39
778.631	36.44
778.81	35.95
778.988	36.83
779.166	37.28
779.345	37.33
779.523	36.22
779.702	35.42
779.88	36.24
780.058	36.43
780.237	34.95
780.415	35.8
780.593	35.33
780.771	35
780.95	34.05
781.128	33.82
781.306	34.31
781.484	34.85
781.662	35.33
781.841	35.74
782.019	36.17
782.197	36.82
782.375	35.65
782.553	35.87
782.731	34.78
782.909	34.72
783.087	34.57
783.265	34.06
783.443	33.91
783.621	34.02
783.799	33.55
783.977	33.82
784.155	34.32
784.333	34.73
784.511	35.59
784.689	36.73
784.867	37.09
785.045	37.45
785.223	38.18
785.4	38.1
785.578	38.05
785.756	37.35
785.934	36.66
786.112	36.77
786.289	36.33
786.467	34.76
786.645	34.54
786.823	34.72
787	34.79
787.178	33.33
787.356	33.19
787.533	33.69
787.711	33.66
787.889	33.89
788.066	33.66
788.244	33.9
788.421	34.54
788.599	35.59
788.776	35.2
788.954	34.51
789.131	34.9
789.309	35.54
789.486	34.9
789.664	34.42
789.841	34.55
790.019	34.53
790.196	34.96
790.373	34.16
790.551	33.63
790.728	33.69
790.906	34.62
791.083	36.32
791.26	35.73
791.437	36.04
791.615	36.87
791.792	37.15
791.969	37.66
792.146	36.13
792.324	37.39
792.501	38.67
792.678	37.15
792.855	36.49
793.032	34.5
793.209	34.45
793.387	34.55
793.564	34.96
793.741	35.39
793.918	34.32
794.095	36.09
794.272	36.11
794.449	33.45
794.626	36.23
794.803	35.89
794.98	37.18
795.157	37.32
795.334	36.94
795.511	36.32
795.688	34.92
795.864	34.5
796.041	33.7
796.218	33.7
796.395	34.82
796.572	33.34
796.749	33.48
796.925	32.9
797.102	32.79
797.279	32.97
797.456	32.34
797.632	33.63
797.809	34.72
797.986	34.84
798.162	33.87
798.339	34.34
798.516	33.93
798.692	34.36
798.869	34.46
799.046	34.07
799.222	34.03
799.399	35.37
799.575	34.66
799.752	34.9
799.928	34.5
800.105	34.95
800.281	34.63
800.458	35.8
800.634	36.13
800.811	36.65
800.987	38.35
801.163	39.09
801.34	37.96
801.516	39.21
801.692	39.13
801.869	39.96
802.045	40.1
802.221	39.29
802.398	38.45
802.574	37.93
802.75	36.95
802.926	36.43
803.103	35.6
803.279	36.37
803.455	35.91
803.631	35.95
803.807	34.76
803.983	34.28
804.16	34.63
804.336	35.65
804.512	35.75
804.688	35.31
804.864	34.26
805.04	34.48
805.216	33.06
805.392	32.68
805.568	31.71
805.744	32.89
805.92	33.98
806.096	34.27
806.272	33.65
806.448	32.94
806.623	33.07
806.799	33.09
806.975	33.17
807.151	33.96
807.327	33.97
807.503	34.81
807.678	34.94
807.854	34.92
808.03	34.47
808.206	34.07
808.381	34.48
808.557	36.25
808.733	38.05
808.908	38
809.084	38.71
809.26	38.81
809.435	37.39
809.611	37.29
809.787	35.34
809.962	35.75
810.138	35.64
810.313	34.98
810.489	33.11
810.664	31.13
810.84	31.37
811.015	31.05
811.191	29.46
811.366	31.1
811.542	31.13
811.717	32.39
811.892	33.63
812.068	33.49
812.243	33.27
812.419	33.25
812.594	32.44
812.769	33.43
812.944	34.38
813.12	34.53
813.295	35.23
813.47	34.22
813.645	35.46
813.821	34.12
813.996	36.35
814.171	36.37
814.346	37.29
814.521	39.74
814.697	38.38
814.872	36.21
815.047	36.95
815.222	37.43
815.397	37.4
815.572	35.56
815.747	36
815.922	34.01
816.097	35.83
816.272	36.42
816.447	35.66
816.622	37.38
816.797	37.72
816.972	38.38
817.147	37.24
817.322	37.41
817.496	37.41
817.671	37.7
817.846	37.91
818.021	36.25
818.196	35.35
818.371	34.31
818.545	33.27
818.72	34.78
818.895	34.34
819.069	33.71
819.244	33.64
819.419	34.77
819.594	35.22
819.768	35.87
819.943	36.28
820.117	36.51
820.292	36.8
820.467	36.85
820.641	36.63
820.816	36.76
820.99	37.49
821.165	37.54
821.339	37.53
821.514	37.6
821.688	37.9
821.863	38.11
822.037	38.15
822.212	38.13
822.386	38.2
822.56	38.17
822.735	38.23
822.909	38.06
823.084	38.3
823.258	38.43
823.432	38.22
823.606	37.91
823.781	37.59
823.955	37.63
824.129	37.66
824.303	37.42
824.478	37.63
824.652	37.68
824.826	37.68
825	37.07
825.174	36.72
825.348	36.73
825.523	36.55
825.697	36.79
825.871	36.52
826.045	36.61
826.219	37.06
826.393	36.55
826.567	36.72
826.741	36.44
826.915	36.92
827.089	37.15
827.263	37.03
827.437	37.16
827.611	37.18
827.784	37.59
827.958	37.53
828.132	37.18
828.306	37.41
828.48	37.22
828.654	37.46
828.827	36.99
829.001	36.93
829.175	37.22
829.349	36.71
829.522	37.02
829.696	36.17
829.87	36.63
830.044	36.36
830.217	35.84
830.391	35.19
830.565	34.58
830.738	34.92
830.912	33.82
831.085	33.71
831.259	34.29
831.432	33.67
831.606	33.62
831.779	33.17
831.953	33.56
832.126	34.74
832.3	35.84
832.473	36.86
832.647	36.91
832.82	37.49
832.994	36.98
833.167	37.25
833.34	37.2
833.514	37.53
833.687	37.84
833.86	38.02
834.034	37.57
834.207	37.13
834.38	37.08
834.553	37.02
834.727	37.13
834.9	37.18
835.073	36.37
835.246	36.99
835.419	36.94
835.593	36.63
835.766	36.6
835.939	36.15
836.112	35.3
836.285	34.26
836.458	34.39
836.631	33.69
836.804	34.31
836.977	34.92
837.15	34.22
837.323	33.03
837.496	32.24
837.669	31.25
837.842	33.29
838.015	34.49
838.188	34.88
838.361	35.09
838.533	34.61
838.706	33.97
838.879	33.69
839.052	33.52
839.225	34.59
839.398	34.45
839.57	34.53
839.743	32.65
839.916	33.64
840.088	34.86
840.261	32.84
840.434	32.12
840.607	32.7
840.779	31.89
840.952	30.58
841.124	29.72
841.297	30.67
841.47	29.78
841.642	31.03
841.815	28.82
841.987	27.12
842.16	27.76
842.332	28.74
842.505	26.54
842.677	26.46
842.85	26.9
843.022	28.5
843.194	29.4
843.367	29.5
843.539	28.37
843.712	28.91
843.884	28.4
844.056	31.09
844.229	30.67
844.401	29.05
844.573	28.72
844.745	27.76
844.918	23.9
845.09	19.63
845.262	21.01
845.434	21.99
845.606	20
845.779	22.4
845.951	19.8
846.123	20.45
846.295	24.2
846.467	22.44
846.639	24.95
846.811	26.81
846.983	30.83
847.155	28.25
847.327	25.98
847.499	27.79
847.671	25.29
847.843	26.77
848.015	25.59
848.187	27.39
848.359	31.6
848.531	33.22
848.703	35.63
848.875	34.87
849.047	38.17
849.218	35.32
849.39	34.65
849.562	35
849.734	33.53
849.905	33.02
850.077	31.34
850.249	30.77
850.421	28.69
850.592	27.97
850.764	29.47
850.936	24.4
851.107	31.44
851.279	28.29
851.451	25.36
851.622	22.27
851.794	20.96
851.965	18.44
852.137	14.78
852.308	13.94
852.48	15.08
852.651	11.68
852.823	16.66
852.994	12.39
853.166	12.37
853.337	15.75
853.509	17.01
853.68	20.32
853.851	18.45
854.023	19.63
854.194	22.57
854.365	22.36
854.537	25.07
854.708	22.03
854.879	22.99
855.05	28.04
855.222	25.75
855.393	28.01
855.564	28.52
855.735	35.08
855.906	38.84
856.078	31.2
856.249	28.78
856.42	32.69
856.591	36.18
856.762	34.73
856.933	35.23
857.104	34.77
857.275	35.75
857.446	32.04
857.617	31.49
857.788	28.89
857.959	33.2
858.13	35.01
858.301	28.83
858.472	28.3
858.643	28.22
858.814	26.13
858.985	26.13
859.155	24.63
859.326	25.1
859.497	23.34
859.668	26.85
859.839	25.67
860.009	21.4
860.18	22.15
860.351	20.89
860.522	24.98
860.692	23.65
860.863	23.95
861.034	21.73
861.204	23.63
861.375	25
861.546	22.23
861.716	22.41
861.887	23.98
862.057	23.03
862.228	26.65
862.398	23.46
862.569	25.59
862.739	22.58
862.91	24.76
863.08	20.7
863.251	16.5
863.421	11.54
863.592	11.33
863.762	15.49
863.932	16.36
864.103	12.15
864.273	10.04
864.443	7.09
864.614	12.37
864.784	7.27
864.954	8.9
865.125	10.99
865.295	19.01
865.465	23.32
865.635	22.52
865.805	26.23
865.976	30.81
866.146	38.07
866.316	39.55
866.486	37.62
866.656	41.69
866.826	41.63
866.996	41.57
867.166	37.18
867.336	30.71
867.506	28.85
867.676	26.14
867.846	22.53
868.016	19
868.186	15.67
868.356	12.77
868.526	13.48
868.696	12.62
868.866	12.35
869.036	14.16
869.206	17.48
869.376	12.75
869.545	10.81
869.715	12.28
869.885	13.47
870.055	16.02
870.224	20.53
870.394	22.01
870.564	22.13
870.734	22.03
870.903	19.45
871.073	18.38
871.243	26.8
871.412	26.3
871.582	25.65
871.751	23.16
871.921	27.71
872.091	23.53
872.26	20.27
872.43	23.29
872.599	21.52
872.769	23.69
872.938	27.3
873.108	23.77
873.277	27.79
873.446	24.47
873.616	25.18
873.785	23.15
873.955	25.17
874.124	25.24
874.293	28.42
874.463	33.21
874.632	30.89
874.801	30.99
874.971	33.42
875.14	31.51
875.309	34.41
875.478	33.3
875.647	33.65
875.817	30.42
875.986	32.43
876.155	25.18
876.324	18.67
876.493	22.8
876.662	19.99
876.831	20.4
877	22.48
877.17	20.42
877.339	23.04
877.508	19.77
877.677	18.61
877.846	17.96
878.015	23.97
878.184	27.15
878.352	26.6
878.521	29.81
878.69	26.89
878.859	23.73
879.028	25.73
879.197	28.12
879.366	28.79
879.534	29.9
879.703	31.33
879.872	30.32
880.041	31.86
880.21	32.15
880.378	33.38
880.547	33.45
880.716	34.51
880.884	34.72
881.053	34.53
881.222	35.99
881.39	36.72
881.559	37.06
881.727	37.49
881.896	38.05
882.065	38.11
882.233	37.38
882.402	38.24
882.57	38.83
882.739	39.66
882.907	39.19
883.076	38.48
883.244	38.91
883.412	39.28
883.581	38.34
883.749	37.21
883.918	36.76
884.086	37.09
884.254	36.35
884.423	35.69
884.591	34.39
884.759	33.92
884.927	33.99
885.096	31.23
885.264	30.5
885.432	31.58
885.6	31.91
885.769	32.06
885.937	30.68
886.105	31.07
886.273	30.13
886.441	26.48
886.609	27.58
886.777	25.48
886.945	28.84
887.113	26.37
887.281	24.63
887.449	24.21
887.617	25.2
887.785	24.67
887.953	21.23
888.121	17.39
888.289	22.33
888.457	20.19
888.625	21.08
888.793	18.13
888.961	15.84
889.129	14.55
889.296	14.31
889.464	9.97
889.632	7.77
889.8	7.92
889.967	14.79
890.135	10.98
