Data from 2938511_Reflection_2.txt Node
Date: Tue Jun 16 22:47:00 EDT 2015
User: robert
Spectrometer: USB4E03002
Autoset integration time: false
Trigger mode: 4
Integration Time (sec): 1.000000E-1
Scans to average: 10
Electric dark correction enabled: true
Nonlinearity correction enabled: false
Boxcar width: 5
Stray light correction enabled: false
XAxis mode: Wavelengths
Stop averaging: false
Number of Pixels in Spectrum: 3648
>>>>>Begin Spectral Data<<<<<
177.575	2.64
177.794	36.81
178.014	37.33
178.233	19.51
178.452	81.27
178.672	120.85
178.891	199.2
179.11	-402.27
179.33	-529.03
179.549	-4.09
179.768	37.19
179.987	94.39
180.207	170
180.426	81.81
180.645	515.82
180.864	-521.35
181.084	11.58
181.303	29.2
181.522	43.45
181.741	63.14
181.96	53.22
182.179	63.82
182.398	94.12
182.618	87.3
182.837	91.62
183.056	107.4
183.275	100.85
183.494	-3.95
183.713	27.32
183.932	138.05
184.151	29.35
184.37	-985.44
184.589	190.93
184.808	153.73
185.027	224.81
185.246	155.88
185.465	171.49
185.684	170.91
185.903	211
186.122	162.83
186.341	183.17
186.56	164.28
186.779	213.1
186.998	296.14
187.216	379.98
187.435	223.34
187.654	224.02
187.873	312.62
188.092	213.07
188.311	141.35
188.53	117.14
188.748	-124.34
188.967	-878.49
189.186	-21.61
189.405	71.44
189.623	26.22
189.842	-8.18
190.061	-43.55
190.28	-12.88
190.498	5.98
190.717	45.99
190.936	67.31
191.154	74.73
191.373	62.37
191.592	78.14
191.81	49.6
192.029	49.36
192.248	32.96
192.466	22.52
192.685	54.15
192.904	31.65
193.122	-112.19
193.341	464.28
193.559	252.99
193.778	261.96
193.996	278.7
194.215	605.47
194.433	233
194.652	293.93
194.87	-751
195.089	-292.52
195.307	-103.95
195.526	7.03
195.744	66.77
195.963	117.93
196.181	106.93
196.399	105.25
196.618	105.62
196.836	118.92
197.055	100.28
197.273	122.17
197.491	161.83
197.71	108.11
197.928	130.29
198.146	152.94
198.365	111.22
198.583	159.55
198.801	145.57
199.019	120.07
199.238	82.58
199.456	85.08
199.674	61.25
199.892	117.76
200.111	134.58
200.329	116.69
200.547	72.52
200.765	72.8
200.983	68.97
201.202	72.51
201.42	77.32
201.638	91.84
201.856	79.16
202.074	73.39
202.292	70.37
202.51	90.85
202.728	68.11
202.946	100.4
203.165	118.88
203.383	85.43
203.601	67.62
203.819	100
204.037	78.09
204.255	85.6
204.473	126.61
204.691	102.51
204.909	101.07
205.127	158.26
205.345	131.84
205.562	115.39
205.78	145.18
205.998	150.97
206.216	124.89
206.434	145.54
206.652	259.9
206.87	180.18
207.088	188.38
207.306	225.34
207.523	111.21
207.741	142.14
207.959	159.89
208.177	107.84
208.395	89.08
208.612	83.43
208.83	71.37
209.048	62.35
209.266	60.48
209.483	48.24
209.701	30.62
209.919	48.69
210.136	44.84
210.354	31.35
210.572	33.59
210.79	35.97
211.007	32.79
211.225	36.61
211.442	46.48
211.66	48.59
211.878	51.98
212.095	28.02
212.313	27.29
212.53	29.3
212.748	28.01
212.966	33.34
213.183	48.56
213.401	50.53
213.618	50.67
213.836	41.23
214.053	47.85
214.271	39.18
214.488	74.28
214.705	51.69
214.923	41.17
215.14	41.84
215.358	19.11
215.575	-8.12
215.793	3.92
216.01	-7.54
216.227	-0.23
216.445	-17.7
216.662	19.19
216.879	38.24
217.097	34.62
217.314	28.76
217.531	36.84
217.749	40.81
217.966	55.14
218.183	37.6
218.4	41.63
218.618	20.05
218.835	23.07
219.052	4.87
219.269	-7.34
219.487	-7.85
219.704	0.37
219.921	-4.82
220.138	-9.01
220.355	-11.53
220.572	-2.85
220.79	1.45
221.007	8.04
221.224	4.28
221.441	10.5
221.658	12.04
221.875	27.82
222.092	29.79
222.309	27.37
222.526	31.37
222.743	30.68
222.96	27.51
223.177	31.44
223.394	32.88
223.611	34.58
223.828	31.7
224.045	31.99
224.262	28.77
224.479	27.93
224.696	28.53
224.913	26.39
225.13	22.38
225.347	20.32
225.564	17.82
225.781	16.9
225.997	16.48
226.214	16.66
226.431	14.58
226.648	12.8
226.865	12.53
227.082	12.84
227.298	12.17
227.515	11.74
227.732	11.9
227.949	11.98
228.165	11.79
228.382	10.94
228.599	10.22
228.816	10.89
229.032	11.23
229.249	11.11
229.466	11.07
229.682	10.05
229.899	10.5
230.116	10.71
230.332	8.86
230.549	7.52
230.765	8.34
230.982	8.72
231.199	8.89
231.415	8.11
231.632	7.55
231.848	6.82
232.065	10.33
232.281	11.7
232.498	9.78
232.714	10.74
232.931	12.9
233.147	10.33
233.364	9.99
233.58	8.49
233.797	8.74
234.013	6.84
234.23	5.04
234.446	3.74
234.662	0.92
234.879	2.85
235.095	4.41
235.312	4.26
235.528	7.23
235.744	8.23
235.961	8.98
236.177	10.92
236.393	14.69
236.61	17.34
236.826	18.22
237.042	19.93
237.258	18.35
237.475	17.42
237.691	15.99
237.907	14.74
238.123	14.29
238.339	14.46
238.556	12.98
238.772	10.31
238.988	9.86
239.204	9.93
239.42	9.89
239.636	10.66
239.853	10.53
240.069	11
240.285	10.72
240.501	10.76
240.717	10.05
240.933	10.02
241.149	10.72
241.365	9.43
241.581	8.62
241.797	8.5
242.013	8.46
242.229	8.07
242.445	7.75
242.661	7.65
242.877	7.33
243.093	7.97
243.309	8.41
243.525	7.44
243.741	7.75
243.957	8.32
244.173	8.06
244.388	8.18
244.604	8.31
244.82	8.11
245.036	7.94
245.252	8.58
245.468	8.7
245.683	8.31
245.899	8.75
246.115	9.21
246.331	9.03
246.547	8.83
246.762	8.42
246.978	8.51
247.194	8.34
247.409	8.82
247.625	7.89
247.841	7.25
248.057	7.25
248.272	6.79
248.488	6.63
248.703	6.16
248.919	6.28
249.135	6.49
249.35	6.3
249.566	6.64
249.782	5.85
249.997	5.66
250.213	6.56
250.428	6.9
250.644	6.85
250.859	6.67
251.075	7.38
251.29	7.07
251.506	7.37
251.721	7.26
251.937	8.01
252.152	8.02
252.368	8.38
252.583	8.47
252.798	8.88
253.014	9.19
253.229	9.51
253.445	8.71
253.66	8.6
253.875	8.11
254.091	8.16
254.306	7.7
254.521	7.34
254.737	7.81
254.952	7.27
255.167	6.52
255.383	5.91
255.598	6.18
255.813	6.25
256.028	6.27
256.244	6.41
256.459	6.44
256.674	5.49
256.889	6.58
257.104	6.19
257.32	6.17
257.535	6.24
257.75	6.55
257.965	6.26
258.18	6.31
258.395	6.37
258.61	6.34
258.826	6.33
259.041	6.65
259.256	6.07
259.471	6.21
259.686	6.15
259.901	5.91
260.116	5.95
260.331	5.95
260.546	5.81
260.761	5.83
260.976	5.95
261.191	5.93
261.406	5.16
261.621	5.64
261.836	5.32
262.05	5.8
262.265	6.29
262.48	6.66
262.695	6.99
262.91	6.97
263.125	6.72
263.34	7.05
263.555	7.15
263.769	8.21
263.984	7.71
264.199	7.94
264.414	7.51
264.629	7.92
264.843	7.46
265.058	7.4
265.273	7.61
265.488	8.15
265.702	7.41
265.917	7.3
266.132	6.73
266.346	6.8
266.561	7.21
266.776	7.42
266.99	6.79
267.205	6.66
267.42	6.29
267.634	6.28
267.849	5.84
268.063	6.56
268.278	6.7
268.492	7.07
268.707	7.52
268.922	6.85
269.136	7.2
269.351	7.04
269.565	7.11
269.78	7.13
269.994	6.9
270.209	6.83
270.423	6.19
270.637	6.09
270.852	6
271.066	5.43
271.281	5.5
271.495	4.92
271.709	5.48
271.924	5.22
272.138	4.87
272.353	4.87
272.567	5.16
272.781	5.36
272.996	5.19
273.21	5.35
273.424	5.88
273.638	5.56
273.853	5.46
274.067	5.14
274.281	5.06
274.495	5.72
274.71	6.35
274.924	6.21
275.138	6.34
275.352	6.63
275.566	6.61
275.781	6.25
275.995	7.13
276.209	7.49
276.423	7.23
276.637	7.47
276.851	7.26
277.065	6.72
277.279	7.08
277.493	7.01
277.707	6.56
277.921	6.61
278.135	6.93
278.349	6.26
278.563	6.21
278.777	6.36
278.991	6.43
279.205	6.84
279.419	6.78
279.633	6.55
279.847	6.73
280.061	6.87
280.275	6.58
280.489	6.35
280.703	6.49
280.917	6.41
281.131	5.92
281.344	5.77
281.558	5.62
281.772	5.73
281.986	5.35
282.2	5.5
282.414	5.3
282.627	5.68
282.841	5.97
283.055	6.07
283.269	5.93
283.482	6.53
283.696	6.66
283.91	6.21
284.123	6.25
284.337	6.47
284.551	6.48
284.764	6.36
284.978	5.94
285.192	5.58
285.405	5.47
285.619	5.65
285.833	5.52
286.046	5.57
286.26	5.43
286.473	5.58
286.687	5.61
286.9	5.16
287.114	5.92
287.327	5.92
287.541	6.01
287.754	6.44
287.968	6.37
288.181	6.55
288.395	6.43
288.608	6.62
288.822	6.31
289.035	6.15
289.248	6.41
289.462	6.09
289.675	6.4
289.889	6.37
290.102	6.23
290.315	6.35
290.529	6.37
290.742	6.52
290.955	7.46
291.169	7.84
291.382	7.88
291.595	7.97
291.808	8.08
292.022	7.57
292.235	7.47
292.448	7.45
292.661	7.39
292.875	7.45
293.088	7.32
293.301	6.71
293.514	6.36
293.727	6.53
293.94	6.26
294.153	6.36
294.367	6.74
294.58	7.16
294.793	7.21
295.006	7.1
295.219	6.75
295.432	6.51
295.645	6.34
295.858	6.73
296.071	6.75
296.284	6.97
296.497	6.94
296.71	6.99
296.923	6.81
297.136	6.95
297.349	7.23
297.562	7.48
297.775	8.02
297.988	8.54
298.201	8.43
298.414	8.68
298.626	8.42
298.839	8.84
299.052	8.75
299.265	9.12
299.478	8.73
299.691	8.51
299.903	8.33
300.116	8.46
300.329	7.84
300.542	8.08
300.755	8.07
300.967	8.45
301.18	8.12
301.393	8.15
301.605	8.17
301.818	8.38
302.031	8.73
302.243	8.85
302.456	8.12
302.669	9.04
302.881	8.88
303.094	8.88
303.307	8.35
303.519	8.44
303.732	8.68
303.944	8.2
304.157	7.74
304.37	7.59
304.582	7.32
304.795	7.47
305.007	7.05
305.22	7.36
305.432	7.44
305.645	7.88
305.857	7.94
306.069	7.72
306.282	8
306.494	8.33
306.707	8.1
306.919	8.48
307.132	8.47
307.344	8.32
307.556	8.13
307.769	7.77
307.981	7.66
308.193	7.7
308.406	8.01
308.618	7.88
308.83	8.14
309.043	8.61
309.255	8.5
309.467	8.72
309.679	8.6
309.892	8.55
310.104	8.76
310.316	8.91
310.528	8.49
310.74	8.31
310.953	8.54
311.165	8.67
311.377	8.4
311.589	8.29
311.801	8.21
312.013	8.58
312.225	8.71
312.437	8.72
312.649	8.63
312.862	8.79
313.074	8.82
313.286	8.83
313.498	8.71
313.71	8.44
313.922	9.08
314.134	8.9
314.346	8.58
314.558	8.63
314.77	8.83
314.982	8.98
315.193	9.38
315.405	9.7
315.617	9.83
315.829	9.57
316.041	9.51
316.253	9.12
316.465	9.5
316.677	10
316.888	9.51
317.1	9.28
317.312	9.12
317.524	8.76
317.736	8.56
317.947	8.71
318.159	9.05
318.371	9.43
318.583	9.4
318.794	9.3
319.006	9.24
319.218	9.26
319.43	9.29
319.641	9.17
319.853	9.35
320.064	9.22
320.276	8.84
320.488	8.5
320.699	8.44
320.911	8.68
321.123	8.55
321.334	8.53
321.546	9
321.757	9.1
321.969	9.55
322.18	9.2
322.392	9.01
322.603	9.05
322.815	8.82
323.026	8.83
323.238	8.25
323.449	8.38
323.661	7.98
323.872	7.85
324.083	8.09
324.295	8.38
324.506	8.96
324.718	8.83
324.929	8.86
325.14	9.19
325.352	9.21
325.563	9.26
325.774	9.78
325.986	10.03
326.197	10.21
326.408	9.96
326.62	9.9
326.831	9.36
327.042	9.52
327.253	9.87
327.464	9.96
327.676	9.84
327.887	9.87
328.098	9.41
328.309	9.84
328.52	9.8
328.732	9.84
328.943	9.31
329.154	9.6
329.365	9.55
329.576	9.2
329.787	9.17
329.998	9.22
330.209	9.73
330.42	9.97
330.631	9.55
330.842	9.48
331.053	9.9
331.264	10.03
331.475	10.11
331.686	10.24
331.897	10.25
332.108	10.04
332.319	10.41
332.53	10.65
332.741	10.33
332.952	10.26
333.163	10.46
333.374	10.25
333.585	10.24
333.795	10.17
334.006	10.63
334.217	10.38
334.428	10.33
334.639	10.31
334.849	10.3
335.06	10.55
335.271	10.26
335.482	10.04
335.692	9.95
335.903	9.87
336.114	10.07
336.325	9.71
336.535	10.03
336.746	10.05
336.957	10.17
337.167	9.98
337.378	10.18
337.589	10.4
337.799	10.38
338.01	9.96
338.22	9.91
338.431	9.48
338.642	9.62
338.852	9.48
339.063	9.38
339.273	8.87
339.484	8.8
339.694	8.69
339.905	9.02
340.115	9.34
340.326	9.65
340.536	9.99
340.746	10.09
340.957	9.81
341.167	9.81
341.378	9.69
341.588	9.9
341.799	9.91
342.009	9.54
342.219	9.03
342.43	8.59
342.64	8.71
342.85	8.5
343.061	8.75
343.271	9.05
343.481	9.26
343.691	9.5
343.902	9.24
344.112	9.45
344.322	9.46
344.532	9.81
344.743	10.11
344.953	9.78
345.163	10.42
345.373	10.01
345.583	9.83
345.793	9.52
346.004	9.68
346.214	9.81
346.424	9.39
346.634	9.64
346.844	9.63
347.054	9.56
347.264	9.78
347.474	9.35
347.684	9.51
347.894	9.75
348.104	9.59
348.314	9.29
348.524	9.41
348.734	9.34
348.944	9.16
349.154	8.99
349.364	8.8
349.574	8.9
349.784	8.58
349.994	8.93
350.204	8.47
350.413	8.56
350.623	8.76
350.833	8.59
351.043	8.61
351.253	8.71
351.463	8.68
351.672	8.52
351.882	8.42
352.092	8.78
352.302	8.83
352.511	9.07
352.721	9.27
352.931	9.18
353.141	9.42
353.35	9.37
353.56	9.5
353.77	9.53
353.979	9.77
354.189	9.82
354.399	9.33
354.608	8.97
354.818	9.05
355.027	9.33
355.237	9.17
355.447	9.04
355.656	9.22
355.866	8.96
356.075	9.01
356.285	9.26
356.494	9.1
356.704	8.85
356.913	8.9
357.123	8.79
357.332	8.45
357.542	8.51
357.751	8.42
357.96	8.58
358.17	8.5
358.379	8.58
358.589	8.09
358.798	8.03
359.007	8.39
359.217	8.14
359.426	8.07
359.635	8.03
359.845	7.94
360.054	7.98
360.263	7.81
360.472	7.89
360.682	7.72
360.891	7.93
361.1	8.11
361.309	7.98
361.519	8.11
361.728	8.19
361.937	8.21
362.146	8.22
362.355	8.13
362.564	8.05
362.774	8.11
362.983	8.32
363.192	8.25
363.401	8.16
363.61	8.21
363.819	7.92
364.028	7.65
364.237	7.59
364.446	7.78
364.655	7.79
364.864	7.82
365.073	7.6
365.282	7.26
365.491	7.28
365.7	7.22
365.909	7.37
366.118	7.63
366.327	7.87
366.536	7.8
366.745	7.67
366.954	7.71
367.162	7.78
367.371	7.9
367.58	8.13
367.789	8.25
367.998	8.13
368.207	7.91
368.415	8.04
368.624	8.04
368.833	8.13
369.042	8.26
369.25	8.27
369.459	8.27
369.668	8.15
369.877	8.1
370.085	7.98
370.294	8.02
370.503	8.12
370.711	8.04
370.92	7.91
371.129	7.78
371.337	7.81
371.546	7.62
371.754	7.4
371.963	7.41
372.171	7.4
372.38	7.23
372.589	7.28
372.797	7.12
373.006	7.22
373.214	7.14
373.423	7.11
373.631	6.79
373.84	6.89
374.048	6.92
374.256	7
374.465	6.89
374.673	6.94
374.882	6.89
375.09	6.93
375.298	6.57
375.507	6.6
375.715	6.65
375.923	6.87
376.132	6.76
376.34	6.6
376.548	6.65
376.757	6.54
376.965	6.3
377.173	6.24
377.381	6.17
377.59	6.49
377.798	6.48
378.006	6.59
378.214	6.53
378.423	6.78
378.631	6.89
378.839	6.72
379.047	6.73
379.255	6.8
379.463	6.84
379.671	7.08
379.879	6.92
380.088	6.9
380.296	6.74
380.504	6.72
380.712	6.68
380.92	6.55
381.128	6.36
381.336	6.44
381.544	6.54
381.752	6.47
381.96	6.12
382.168	6.16
382.376	5.85
382.584	5.79
382.791	5.76
382.999	5.63
383.207	5.59
383.415	5.57
383.623	5.48
383.831	5.57
384.039	5.41
384.247	5.4
384.454	5.38
384.662	5.66
384.87	5.76
385.078	5.62
385.285	5.56
385.493	5.55
385.701	5.7
385.909	5.7
386.116	5.62
386.324	5.71
386.532	5.71
386.739	5.62
386.947	5.76
387.155	5.57
387.362	5.68
387.57	5.75
387.778	5.95
387.985	6.06
388.193	6.16
388.4	5.84
388.608	6.08
388.816	6.14
389.023	6.23
389.231	6.16
389.438	6.31
389.646	6.16
389.853	6.06
390.061	6.04
390.268	5.89
390.475	5.84
390.683	5.95
390.89	5.68
391.098	5.79
391.305	5.95
391.512	5.86
391.72	5.63
391.927	5.86
392.135	5.92
392.342	5.87
392.549	6.02
392.756	6.08
392.964	6.29
393.171	6.36
393.378	6.39
393.586	6
393.793	6.08
394	6.28
394.207	6.25
394.414	6.12
394.622	6.02
394.829	5.85
395.036	5.58
395.243	5.66
395.45	5.76
395.657	5.55
395.864	5.75
396.072	5.76
396.279	5.84
396.486	5.64
396.693	5.7
396.9	5.84
397.107	5.8
397.314	5.94
397.521	5.64
397.728	5.56
397.935	5.51
398.142	5.53
398.349	5.59
398.556	5.38
398.763	5.5
398.97	5.68
399.177	5.83
399.383	5.88
399.59	5.87
399.797	5.88
400.004	5.77
400.211	5.83
400.418	5.6
400.625	5.3
400.831	5.32
401.038	5.23
401.245	4.9
401.452	4.7
401.658	4.73
401.865	4.58
402.072	4.69
402.279	4.66
402.485	4.66
402.692	4.77
402.899	4.85
403.105	4.78
403.312	4.71
403.519	5.1
403.725	5.09
403.932	5.13
404.138	5.11
404.345	5.01
404.552	5.1
404.758	5.11
404.965	5.05
405.171	5
405.378	5.19
405.584	5.25
405.791	4.88
405.997	4.81
406.204	4.64
406.41	4.86
406.617	4.81
406.823	4.89
407.029	4.83
407.236	4.79
407.442	4.84
407.649	4.73
407.855	4.86
408.061	4.88
408.268	4.87
408.474	5
408.68	5.02
408.887	5.04
409.093	4.88
409.299	4.96
409.505	4.96
409.712	4.99
409.918	4.88
410.124	4.77
410.33	4.72
410.537	4.61
410.743	4.53
410.949	4.47
411.155	4.65
411.361	4.65
411.567	4.47
411.773	4.7
411.98	4.58
412.186	4.75
412.392	4.64
412.598	4.81
412.804	4.85
413.01	4.96
413.216	4.95
413.422	4.9
413.628	4.99
413.834	5.2
414.04	4.97
414.246	5.03
414.452	4.85
414.658	4.83
414.864	4.67
415.07	4.73
415.275	4.74
415.481	4.63
415.687	4.54
415.893	4.44
416.099	4.4
416.305	4.48
416.511	4.42
416.716	4.49
416.922	4.6
417.128	4.67
417.334	4.76
417.539	4.75
417.745	4.76
417.951	4.77
418.157	4.84
418.362	4.68
418.568	4.65
418.774	4.58
418.979	4.53
419.185	4.62
419.391	4.64
419.596	4.47
419.802	4.4
420.008	4.4
420.213	4.7
420.419	4.73
420.624	4.87
420.83	4.83
421.035	4.87
421.241	4.89
421.446	4.74
421.652	4.63
421.857	4.59
422.063	4.56
422.268	4.51
422.474	4.2
422.679	4.13
422.885	4.07
423.09	4.1
423.295	4.08
423.501	4.06
423.706	4.01
423.911	4.02
424.117	4.14
424.322	4.15
424.527	4.22
424.733	4.23
424.938	4.26
425.143	4.26
425.349	4.25
425.554	4.34
425.759	4.44
425.964	4.49
426.169	4.51
426.375	4.49
426.58	4.4
426.785	4.34
426.99	4.28
427.195	4.22
427.4	4.16
427.605	4.23
427.811	4.29
428.016	4.29
428.221	4.24
428.426	4.29
428.631	4.31
428.836	4.47
429.041	4.57
429.246	4.64
429.451	4.65
429.656	4.65
429.861	4.51
430.066	4.28
430.271	4.24
430.476	4.34
430.681	4.36
430.886	4.43
431.09	4.36
431.295	4.3
431.5	4.28
431.705	4.23
431.91	4.3
432.115	4.35
432.32	4.5
432.524	4.49
432.729	4.54
432.934	4.54
433.139	4.37
433.343	4.42
433.548	4.29
433.753	4.14
433.958	4.18
434.162	4.18
434.367	4.12
434.572	3.92
434.776	3.79
434.981	3.57
435.186	3.53
435.39	3.65
435.595	3.57
435.799	3.61
436.004	3.74
436.209	3.69
436.413	3.7
436.618	3.65
436.822	3.81
437.027	3.88
437.231	3.99
437.436	4.01
437.64	3.97
437.845	3.97
438.049	4.1
438.253	4.06
438.458	4.13
438.662	4.09
438.867	4.17
439.071	4.14
439.275	4.19
439.48	4.29
439.684	4.3
439.888	4.25
440.093	4.31
440.297	4.26
440.501	4.28
440.706	4.29
440.91	4.35
441.114	4.37
441.318	4.34
441.523	4.33
441.727	4.22
441.931	4.21
442.135	4.28
442.339	4.27
442.543	4.28
442.748	4.31
442.952	4.26
443.156	4.26
443.36	4.22
443.564	4.24
443.768	4.25
443.972	4.25
444.176	4.2
444.38	4.19
444.584	4.12
444.788	4.09
444.992	3.98
445.196	4.01
445.4	3.92
445.604	3.94
445.808	3.95
446.012	3.92
446.216	3.91
446.42	3.92
446.624	3.87
446.828	3.93
447.032	3.97
447.235	4.1
447.439	4.11
447.643	4.12
447.847	4.08
448.051	4.18
448.254	4.17
448.458	4.19
448.662	4.12
448.866	4.1
449.069	4.11
449.273	4.04
449.477	3.99
449.681	3.86
449.884	3.92
450.088	3.87
450.292	3.73
450.495	3.76
450.699	3.74
450.902	3.78
451.106	3.81
451.31	3.63
451.513	3.62
451.717	3.56
451.92	3.61
452.124	3.58
452.327	3.57
452.531	3.6
452.734	3.53
452.938	3.52
453.141	3.62
453.345	3.55
453.548	3.77
453.752	3.73
453.955	3.8
454.158	3.8
454.362	3.74
454.565	3.9
454.769	3.83
454.972	3.83
455.175	3.85
455.379	3.84
455.582	3.94
455.785	3.87
455.988	3.98
456.192	4
456.395	3.98
456.598	4.05
456.801	3.91
457.005	3.81
457.208	3.89
457.411	3.87
457.614	3.79
457.817	3.76
458.021	3.78
458.224	3.73
458.427	3.68
458.63	3.64
458.833	3.61
459.036	3.66
459.239	3.75
459.442	3.7
459.645	3.72
459.848	3.69
460.051	3.72
460.254	3.73
460.457	3.72
460.66	3.78
460.863	3.83
461.066	3.82
461.269	3.88
461.472	3.85
461.675	3.92
461.878	4
462.081	3.97
462.284	3.97
462.486	3.85
462.689	3.95
462.892	3.87
463.095	3.84
463.298	3.79
463.5	3.71
463.703	3.84
463.906	3.81
464.109	3.69
464.311	3.78
464.514	3.61
464.717	3.69
464.92	3.72
465.122	3.76
465.325	3.78
465.528	3.91
465.73	3.97
465.933	3.94
466.135	4
466.338	4
466.541	3.99
466.743	4.17
466.946	4.19
467.148	4.11
467.351	4.07
467.553	4.12
467.756	4.07
467.958	4.09
468.161	4.04
468.363	4
468.566	4.13
468.768	4.24
468.971	4.14
469.173	4.15
469.375	4.12
469.578	4.09
469.78	4.15
469.983	4.15
470.185	4.12
470.387	4.2
470.59	4.21
470.792	4.11
470.994	4.01
471.196	4.12
471.399	4.11
471.601	4.07
471.803	4.09
472.005	4.12
472.208	4.06
472.41	4.07
472.612	3.98
472.814	3.97
473.016	3.95
473.218	4.02
473.421	4.06
473.623	4.06
473.825	4.06
474.027	4.21
474.229	4.04
474.431	4.06
474.633	4.07
474.835	4.1
475.037	4.12
475.239	4.2
475.441	4.06
475.643	3.97
475.845	3.92
476.047	3.96
476.249	3.91
476.451	3.92
476.653	3.99
476.855	4
477.057	3.89
477.258	3.9
477.46	3.81
477.662	3.86
477.864	3.85
478.066	3.88
478.268	3.9
478.469	3.86
478.671	3.9
478.873	3.8
479.075	3.76
479.276	3.89
479.478	3.86
479.68	3.9
479.882	3.91
480.083	3.92
480.285	3.93
480.487	3.86
480.688	3.92
480.89	3.89
481.091	3.93
481.293	3.89
481.495	3.85
481.696	3.83
481.898	3.79
482.099	3.77
482.301	3.78
482.502	3.75
482.704	3.77
482.905	3.75
483.107	3.74
483.308	3.73
483.51	3.73
483.711	3.74
483.913	3.76
484.114	3.8
484.315	3.77
484.517	3.77
484.718	3.79
484.92	3.79
485.121	3.76
485.322	3.78
485.524	3.8
485.725	3.85
485.926	3.84
486.127	3.82
486.329	3.82
486.53	3.86
486.731	3.84
486.932	3.85
487.134	3.85
487.335	3.89
487.536	3.93
487.737	3.92
487.938	3.86
488.139	3.85
488.341	3.92
488.542	3.91
488.743	3.9
488.944	3.93
489.145	3.91
489.346	3.92
489.547	3.9
489.748	3.88
489.949	3.89
490.15	3.91
490.351	3.92
490.552	3.9
490.753	3.91
490.954	3.93
491.155	3.92
491.356	3.94
491.557	3.97
491.758	4.02
491.959	4.07
492.159	4.09
492.36	4.12
492.561	4.2
492.762	4.22
492.963	4.24
493.164	4.25
493.364	4.3
493.565	4.38
493.766	4.33
493.967	4.25
494.167	4.2
494.368	4.16
494.569	4.14
494.769	4.07
494.97	4.02
495.171	4
495.371	3.97
495.572	3.97
495.773	3.97
495.973	4.04
496.174	4.09
496.375	4.12
496.575	4.17
496.776	4.22
496.976	4.3
497.177	4.31
497.377	4.36
497.578	4.5
497.778	4.51
497.979	4.44
498.179	4.42
498.38	4.48
498.58	4.53
498.78	4.49
498.981	4.51
499.181	4.39
499.382	4.43
499.582	4.45
499.782	4.35
499.983	4.3
500.183	4.31
500.383	4.33
500.584	4.3
500.784	4.27
500.984	4.32
501.184	4.24
501.385	4.27
501.585	4.2
501.785	4.18
501.985	4.17
502.185	4.35
502.386	4.41
502.586	4.45
502.786	4.42
502.986	4.41
503.186	4.43
503.386	4.46
503.586	4.55
503.786	4.61
503.987	4.66
504.187	4.72
504.387	4.7
504.587	4.61
504.787	4.55
504.987	4.64
505.187	4.66
505.387	4.72
505.587	4.78
505.786	4.85
505.986	4.82
506.186	4.76
506.386	4.74
506.586	4.66
506.786	4.76
506.986	4.8
507.186	4.79
507.386	4.87
507.585	4.83
507.785	4.85
507.985	4.85
508.185	4.96
508.384	5.05
508.584	5.07
508.784	5.13
508.984	5.15
509.183	5.16
509.383	5.14
509.583	5.15
509.782	5.22
509.982	5.25
510.182	5.27
510.381	5.23
510.581	5.29
510.781	5.3
510.98	5.29
511.18	5.31
511.379	5.39
511.579	5.37
511.778	5.32
511.978	5.3
512.177	5.28
512.377	5.29
512.576	5.31
512.776	5.29
512.975	5.32
513.175	5.39
513.374	5.48
513.573	5.53
513.773	5.47
513.972	5.55
514.172	5.63
514.371	5.71
514.57	5.76
514.77	5.78
514.969	5.82
515.168	5.9
515.367	5.94
515.567	5.94
515.766	5.93
515.965	6.1
516.164	6.07
516.364	6.02
516.563	6.05
516.762	6.06
516.961	6.03
517.16	6.07
517.359	6.09
517.559	6.07
517.758	6.08
517.957	6.06
518.156	6.11
518.355	6.19
518.554	6.25
518.753	6.22
518.952	6.23
519.151	6.33
519.35	6.39
519.549	6.5
519.748	6.53
519.947	6.64
520.146	6.69
520.345	6.72
520.544	6.76
520.743	6.72
520.942	6.75
521.141	6.72
521.339	6.7
521.538	6.65
521.737	6.57
521.936	6.64
522.135	6.54
522.333	6.64
522.532	6.6
522.731	6.51
522.93	6.61
523.129	6.63
523.327	6.74
523.526	6.8
523.725	6.85
523.923	6.87
524.122	6.9
524.321	6.88
524.519	6.86
524.718	6.9
524.917	7
525.115	7.03
525.314	7.06
525.512	7.07
525.711	7.06
525.909	7.09
526.108	7.08
526.306	7.09
526.505	7.14
526.703	7.16
526.902	7.17
527.1	7.17
527.299	7.19
527.497	7.21
527.696	7.25
527.894	7.27
528.092	7.28
528.291	7.28
528.489	7.3
528.688	7.33
528.886	7.36
529.084	7.39
529.283	7.39
529.481	7.41
529.679	7.42
529.877	7.45
530.076	7.51
530.274	7.62
530.472	7.68
530.67	7.73
530.869	7.75
531.067	7.79
531.265	7.78
531.463	7.82
531.661	7.82
531.859	7.88
532.057	7.87
532.255	7.88
532.454	7.82
532.652	7.9
532.85	7.93
533.048	8
533.246	8.02
533.444	8.11
533.642	8.19
533.84	8.3
534.038	8.3
534.236	8.37
534.434	8.44
534.632	8.44
534.83	8.48
535.027	8.5
535.225	8.46
535.423	8.49
535.621	8.55
535.819	8.53
536.017	8.46
536.215	8.51
536.412	8.49
536.61	8.52
536.808	8.58
537.006	8.55
537.203	8.6
537.401	8.66
537.599	8.69
537.797	8.69
537.994	8.77
538.192	8.87
538.39	8.87
538.587	8.87
538.785	8.88
538.983	8.96
539.18	8.97
539.378	8.95
539.575	8.93
539.773	8.98
539.97	8.93
540.168	8.9
540.366	8.9
540.563	8.94
540.761	8.99
540.958	8.98
541.155	9.02
541.353	9.08
541.55	9.15
541.748	9.18
541.945	9.21
542.143	9.2
542.34	9.24
542.537	9.25
542.735	9.3
542.932	9.33
543.129	9.38
543.327	9.4
543.524	9.37
543.721	9.43
543.919	9.45
544.116	9.49
544.313	9.65
544.51	9.73
544.708	9.83
544.905	9.8
545.102	9.82
545.299	9.84
545.496	9.87
545.693	9.95
545.891	9.88
546.088	9.96
546.285	10
546.482	9.99
546.679	10.06
546.876	10.03
547.073	10.09
547.27	10.13
547.467	10.19
547.664	10.25
547.861	10.3
548.058	10.48
548.255	10.47
548.452	10.5
548.649	10.58
548.846	10.74
549.043	10.82
549.24	10.83
549.437	10.95
549.633	11.07
549.83	11.11
550.027	11.23
550.224	11.2
550.421	11.34
550.618	11.4
550.814	11.51
551.011	11.4
551.208	11.54
551.405	11.64
551.601	11.65
551.798	11.57
551.995	11.59
552.191	11.56
552.388	11.65
552.585	11.68
552.781	11.73
552.978	11.69
553.175	11.86
553.371	11.87
553.568	11.96
553.764	12.02
553.961	12.19
554.157	12.19
554.354	12.18
554.55	12.31
554.747	12.44
554.943	12.46
555.14	12.59
555.336	12.55
555.533	12.58
555.729	12.61
555.926	12.6
556.122	12.54
556.318	12.6
556.515	12.75
556.711	12.7
556.907	12.71
557.104	12.9
557.3	12.92
557.496	12.92
557.693	12.96
557.889	13.03
558.085	13.13
558.281	13.24
558.478	13.36
558.674	13.32
558.87	13.42
559.066	13.39
559.262	13.38
559.459	13.47
559.655	13.62
559.851	13.71
560.047	13.85
560.243	13.87
560.439	13.97
560.635	14.02
560.831	14.1
561.027	14.13
561.223	14.22
561.419	14.25
561.615	14.31
561.811	14.38
562.007	14.59
562.203	14.56
562.399	14.74
562.595	14.77
562.791	14.8
562.987	14.89
563.183	14.93
563.379	15.04
563.575	15.08
563.771	15.11
563.966	15.16
564.162	15.13
564.358	15.21
564.554	15.18
564.75	15.31
564.945	15.38
565.141	15.5
565.337	15.47
565.533	15.45
565.728	15.54
565.924	15.64
566.12	15.7
566.315	15.76
566.511	15.78
566.707	15.85
566.902	15.82
567.098	15.98
567.293	15.98
567.489	16.16
567.684	16.18
567.88	16.23
568.076	16.3
568.271	16.4
568.467	16.51
568.662	16.65
568.858	16.76
569.053	16.85
569.248	16.88
569.444	17.01
569.639	17.1
569.835	17.2
570.03	17.27
570.225	17.22
570.421	17.15
570.616	17.09
570.812	17.19
571.007	17.3
571.202	17.41
571.397	17.5
571.593	17.49
571.788	17.56
571.983	17.69
572.178	17.83
572.374	17.95
572.569	18.08
572.764	18.22
572.959	18.15
573.154	18.09
573.35	18.06
573.545	18.11
573.74	18.17
573.935	18.17
574.13	18.17
574.325	18.13
574.52	18.1
574.715	18.16
574.91	18.27
575.105	18.38
575.3	18.49
575.495	18.61
575.69	18.65
575.885	18.68
576.08	18.86
576.275	18.87
576.47	18.95
576.665	19.08
576.86	19.17
577.055	19.23
577.25	19.07
577.444	19.02
577.639	19.18
577.834	19.12
578.029	19.21
578.224	19.1
578.418	19.25
578.613	19.36
578.808	19.4
579.003	19.46
579.197	19.32
579.392	19.66
579.587	19.75
579.781	19.65
579.976	19.77
580.171	19.87
580.365	19.95
580.56	20
580.755	20.1
580.949	20.2
581.144	20.13
581.338	20.34
581.533	20.3
581.727	20.4
581.922	20.41
582.116	20.47
582.311	20.43
582.505	20.39
582.7	20.41
582.894	20.35
583.089	20.31
583.283	20.39
583.478	20.45
583.672	20.57
583.866	20.6
584.061	20.7
584.255	20.8
584.449	20.88
584.644	20.98
584.838	20.92
585.032	20.96
585.226	21.09
585.421	21.16
585.615	21.06
585.809	20.97
586.003	21.02
586.198	21.1
586.392	20.92
586.586	20.96
586.78	21
586.974	21.17
587.168	21.09
587.363	21.05
587.557	21.1
587.751	21.16
587.945	21.19
588.139	21.22
588.333	21.21
588.527	21.39
588.721	21.44
588.915	21.53
589.109	21.37
589.303	21.47
589.497	21.53
589.691	21.46
589.885	21.55
590.079	21.66
590.273	21.74
590.466	21.7
590.66	21.63
590.854	21.61
591.048	21.66
591.242	21.79
591.436	21.82
591.629	21.98
591.823	22.1
592.017	22.2
592.211	22.1
592.404	22.05
592.598	22.06
592.792	22.23
592.986	22.27
593.179	22.34
593.373	22.5
593.567	22.5
593.76	22.39
593.954	22.38
594.147	22.37
594.341	22.66
594.535	22.65
594.728	22.69
594.922	22.7
595.115	22.77
595.309	22.65
595.502	22.58
595.696	22.59
595.889	22.66
596.083	22.64
596.276	22.63
596.47	22.44
596.663	22.55
596.856	22.6
597.05	22.56
597.243	22.54
597.437	22.73
597.63	22.74
597.823	22.83
598.017	22.8
598.21	22.95
598.403	22.9
598.596	23.03
598.79	23.17
598.983	23.15
599.176	23.2
599.369	23.16
599.563	23.16
599.756	23.22
599.949	23.27
600.142	23.2
600.335	23.12
600.528	23.14
600.722	23.12
600.915	23.25
601.108	23.37
601.301	23.36
601.494	23.31
601.687	23.26
601.88	23.37
602.073	23.35
602.266	23.35
602.459	23.27
602.652	23.36
602.845	23.4
603.038	23.27
603.231	23.31
603.424	23.4
603.617	23.53
603.809	23.54
604.002	23.51
604.195	23.53
604.388	23.71
604.581	23.92
604.774	23.97
604.966	24.01
605.159	23.98
605.352	23.89
605.545	23.84
605.737	23.85
605.93	23.9
606.123	23.79
606.316	23.71
606.508	23.85
606.701	23.84
606.894	23.75
607.086	23.74
607.279	23.75
607.471	23.81
607.664	23.87
607.857	23.65
608.049	23.63
608.242	23.73
608.434	23.98
608.627	23.79
608.819	23.85
609.012	23.83
609.204	23.77
609.397	23.85
609.589	23.83
609.782	23.78
609.974	23.93
610.166	24.01
610.359	24.04
610.551	23.79
610.743	23.8
610.936	23.67
611.128	23.58
611.32	23.67
611.513	23.73
611.705	23.84
611.897	24.08
612.09	24.25
612.282	24.12
612.474	24.08
612.666	24.36
612.858	24.41
613.051	24.51
613.243	24.65
613.435	24.63
613.627	24.42
613.819	24.5
614.011	24.39
614.203	24.47
614.395	24.57
614.588	24.72
614.78	24.42
614.972	24.42
615.164	24.49
615.356	24.63
615.548	24.78
615.74	24.88
615.932	24.84
616.124	24.89
616.315	24.83
616.507	24.81
616.699	24.86
616.891	25.06
617.083	25.24
617.275	25.08
617.467	24.99
617.659	24.86
617.85	24.87
618.042	24.76
618.234	24.71
618.426	24.71
618.618	24.83
618.809	24.76
619.001	24.68
619.193	24.46
619.384	24.44
619.576	24.57
619.768	24.61
619.959	24.63
620.151	24.81
620.343	24.82
620.534	24.81
620.726	24.92
620.917	24.84
621.109	24.9
621.301	24.88
621.492	24.88
621.684	24.87
621.875	25.08
622.067	25.11
622.258	25.02
622.45	25.04
622.641	25.05
622.832	25.01
623.024	25.16
623.215	25.19
623.407	25.31
623.598	25.41
623.789	25.41
623.981	25.1
624.172	25.07
624.363	24.96
624.555	25
624.746	24.98
624.937	24.88
625.129	24.75
625.32	24.86
625.511	24.83
625.702	24.9
625.893	24.79
626.085	24.98
626.276	25.04
626.467	25.1
626.658	25
626.849	25.06
627.04	25.23
627.231	25.34
627.422	25.18
627.614	25.24
627.805	25.19
627.996	25.12
628.187	25.15
628.378	25.18
628.569	25.09
628.76	25.19
628.951	25.15
629.142	25.03
629.332	25.07
629.523	25.21
629.714	25.38
629.905	25.45
630.096	25.69
630.287	25.74
630.478	25.81
630.669	26.05
630.859	26.1
631.05	26.06
631.241	26.07
631.432	26.05
631.623	26.05
631.813	25.98
632.004	25.89
632.195	25.94
632.385	25.83
632.576	25.77
632.767	25.59
632.957	25.46
633.148	25.63
633.339	25.7
633.529	25.72
633.72	25.65
633.91	25.59
634.101	25.59
634.292	25.72
634.482	25.68
634.673	25.73
634.863	25.78
635.054	25.82
635.244	25.67
635.435	25.64
635.625	25.73
635.815	25.71
636.006	25.65
636.196	25.65
636.387	25.61
636.577	25.64
636.767	25.66
636.958	25.83
637.148	25.9
637.338	25.98
637.529	25.96
637.719	25.99
637.909	26.04
638.099	26.19
638.29	26.24
638.48	26.15
638.67	26.22
638.86	26.08
639.05	26.1
639.241	26.23
639.431	26.24
639.621	26.1
639.811	26.03
640.001	26.12
640.191	26.19
640.381	26.28
640.571	26.26
640.761	26.32
640.951	26.51
641.141	26.51
641.331	26.51
641.521	26.69
641.711	26.92
641.901	26.83
642.091	26.87
642.281	26.78
642.471	26.78
642.661	26.92
642.851	26.94
643.041	26.78
643.231	26.76
643.42	26.71
643.61	26.44
643.8	26.52
643.99	26.69
644.18	26.67
644.369	26.83
644.559	27.09
644.749	27.06
644.939	27.05
645.128	27.08
645.318	27.2
645.508	26.98
645.697	27.1
645.887	27.09
646.076	26.86
646.266	26.93
646.456	26.68
646.645	26.37
646.835	26.25
647.024	26.32
647.214	26.39
647.403	26.13
647.593	26.38
647.782	26.29
647.972	26.15
648.161	26.34
648.351	26.41
648.54	26.52
648.73	26.6
648.919	26.73
649.108	26.76
649.298	26.69
649.487	26.84
649.677	26.87
649.866	27.04
650.055	27.15
650.244	27.22
650.434	27.1
650.623	27.25
650.812	27.39
651.002	27.29
651.191	27.28
651.38	27.51
651.569	27.54
651.758	27.49
651.947	27.5
652.137	27.65
652.326	27.62
652.515	27.78
652.704	27.62
652.893	27.34
653.082	27.38
653.271	27.31
653.46	27.25
653.649	27.41
653.838	27.29
654.027	27.24
654.216	27.07
654.405	27.23
654.594	27.2
654.783	27.45
654.972	27.83
655.161	27.91
655.35	27.91
655.539	27.81
655.728	27.84
655.916	28
656.105	27.92
656.294	27.84
656.483	27.51
656.672	27.36
656.86	27.18
657.049	27
657.238	26.94
657.427	27.02
657.615	27.03
657.804	26.94
657.993	26.91
658.181	27
658.37	27.04
658.559	27.1
658.747	27.1
658.936	27.31
659.125	27.35
659.313	27.25
659.502	27.35
659.69	27.31
659.879	27.25
660.067	27.08
660.256	27.17
660.444	27.17
660.633	27.15
660.821	27.28
661.01	27.26
661.198	27.36
661.387	27.69
661.575	27.57
661.763	27.88
661.952	28.05
662.14	28.21
662.328	28.19
662.517	28.28
662.705	28.37
662.893	28.35
663.082	28.15
663.27	27.8
663.458	27.41
663.646	27.35
663.834	27.08
664.023	26.88
664.211	26.91
664.399	26.69
664.587	26.77
664.775	26.65
664.963	26.66
665.152	26.8
665.34	27.08
665.528	27.32
665.716	27.39
665.904	27.43
666.092	27.71
666.28	27.71
666.468	27.64
666.656	27.65
666.844	27.71
667.032	27.64
667.22	27.52
667.408	27.51
667.596	27.71
667.784	27.56
667.971	27.62
668.159	27.28
668.347	27.51
668.535	27.7
668.723	27.54
668.911	27.51
669.098	27.53
669.286	27.64
669.474	27.74
669.662	27.36
669.849	27.47
670.037	27.36
670.225	27.74
670.413	27.66
670.6	27.46
670.788	27.59
670.976	27.76
671.163	28.01
671.351	27.95
671.538	27.78
671.726	27.72
671.913	27.77
672.101	27.75
672.289	27.56
672.476	27.52
672.664	27.87
672.851	27.63
673.039	27.6
673.226	27.35
673.413	27.4
673.601	27.45
673.788	27.63
673.976	27.41
674.163	27.42
674.35	27.07
674.538	27.06
674.725	26.94
674.912	27
675.1	27.07
675.287	27.38
675.474	27.09
675.662	27.09
675.849	27.22
676.036	27.41
676.223	27.38
676.411	27.84
676.598	27.85
676.785	27.79
676.972	28.12
677.159	28
677.346	27.9
677.533	28.15
677.721	27.95
677.908	27.85
678.095	27.96
678.282	28.17
678.469	27.93
678.656	27.72
678.843	27.85
679.03	27.64
679.217	27.78
679.404	27.72
679.591	27.57
679.778	27.81
679.964	27.93
680.151	28
680.338	27.97
680.525	28.01
680.712	28.3
680.899	28.27
681.086	28.16
681.272	27.97
681.459	27.89
681.646	28.14
681.833	28.09
682.02	28.19
682.206	28.12
682.393	28
682.58	28.42
682.766	28.26
682.953	28.06
683.14	28.41
683.326	28.6
683.513	28.59
683.7	28.07
683.886	28.14
684.073	27.85
684.259	27.83
684.446	27.77
684.632	27.49
684.819	27.81
685.005	27.98
685.192	27.67
685.378	27.71
685.565	28.05
685.751	28.45
685.938	28.47
686.124	28.63
686.31	28.45
686.497	28.6
686.683	28.7
686.87	28.64
687.056	28.68
687.242	28.83
687.429	28.88
687.615	28.64
687.801	28.88
687.987	28.74
688.174	28.69
688.36	28.75
688.546	28.82
688.732	28.78
688.918	28.55
689.105	28.59
689.291	28.62
689.477	28.83
689.663	28.94
689.849	28.79
690.035	28.88
690.221	28.73
690.407	29.08
690.593	29.09
690.779	28.89
690.965	29.15
691.151	29.22
691.337	29.39
691.523	29.3
691.709	29.17
691.895	28.89
692.081	28.62
692.267	28.79
692.453	28.68
692.639	28.52
692.825	28.58
693.011	28.57
693.196	28.6
693.382	28.53
693.568	28.22
693.754	28.33
693.94	28.75
694.125	29.24
694.311	29.43
694.497	29.35
694.682	29.18
694.868	29.14
695.054	29.08
695.239	28.79
695.425	28.69
695.611	28.86
695.796	28.59
695.982	28.79
696.168	28.95
696.353	28.73
696.539	28.5
696.724	28.49
696.91	28.54
697.095	28.44
697.281	28.63
697.466	28.55
697.652	28.53
697.837	28.64
698.023	28.33
698.208	28.03
698.393	28.09
698.579	28.17
698.764	28.2
698.949	28.53
699.135	28.68
699.32	28.62
699.505	28.62
699.691	28.71
699.876	28.69
700.061	28.94
700.246	29.11
700.432	29.05
700.617	29.24
700.802	29.67
700.987	29.02
701.172	28.98
701.358	29.11
701.543	29.53
701.728	29.49
701.913	29.3
702.098	29.49
702.283	29.47
702.468	29.74
702.653	29.98
702.838	29.47
703.023	29.9
703.208	29.78
703.393	29.65
703.578	29.27
703.763	29.03
703.948	29.42
704.133	28.9
704.318	28.92
704.503	28.49
704.688	28.36
704.873	28.73
705.057	28.42
705.242	28.5
705.427	28.34
705.612	28.61
705.797	28.67
705.981	28.93
706.166	28.95
706.351	29.13
706.536	29.69
706.72	29.44
706.905	29.52
707.09	29.82
707.274	29.7
707.459	29.68
707.644	29.54
707.828	29.34
708.013	28.9
708.197	29.23
708.382	29.01
708.567	28.62
708.751	28.59
708.936	28.36
709.12	28.19
709.305	28.21
709.489	28.21
709.673	28.08
709.858	28.15
710.042	28.28
710.227	28.21
710.411	27.86
710.596	27.96
710.78	27.92
710.964	27.97
711.149	28.19
711.333	28.22
711.517	28.67
711.702	28.64
711.886	28.9
712.07	28.92
712.254	29.13
712.438	29.44
712.623	29.46
712.807	29.17
712.991	29.19
713.175	29.31
713.359	29.09
713.544	28.78
713.728	28.84
713.912	28.68
714.096	28.61
714.28	28.09
714.464	28.31
714.648	28.13
714.832	28.32
715.016	28.17
715.2	27.76
715.384	27.92
715.568	27.92
715.752	27.99
715.936	27.85
716.12	27.95
716.304	28.08
716.488	28.07
716.671	28.22
716.855	28.42
717.039	28.57
717.223	29.02
717.407	29.22
717.59	29.03
717.774	29.23
717.958	29.17
718.142	29.19
718.325	29.04
718.509	28.73
718.693	28.27
718.877	28.13
719.06	27.95
719.244	27.56
719.428	27.35
719.611	27.52
719.795	27.59
719.978	27.64
720.162	27.68
720.345	28.28
720.529	28.6
720.713	29.11
720.896	29.27
721.08	29.48
721.263	29.8
721.446	29.96
721.63	30.03
721.813	29.65
721.997	29.39
722.18	29.14
722.364	29.02
722.547	28.68
722.73	28.56
722.914	28.38
723.097	28.28
723.28	28.1
723.464	28.08
723.647	28.03
723.83	27.93
724.013	28.58
724.197	28.74
724.38	28.78
724.563	28.79
724.746	29.08
724.929	29.33
725.112	29.92
725.296	29.7
725.479	29.72
725.662	29.72
725.845	29.91
726.028	29.98
726.211	29.81
726.394	29.53
726.577	29.52
726.76	29.25
726.943	29.15
727.126	28.85
727.309	29.04
727.492	28.82
727.675	28.73
727.858	29.19
728.041	29.27
728.224	29.47
728.407	29.77
728.589	29.57
728.772	29.92
728.955	29.84
729.138	29.84
729.321	29.73
729.503	29.81
729.686	30.13
729.869	29.72
730.052	29.7
730.234	29.7
730.417	29.32
730.6	29.71
730.782	29.23
730.965	29.46
731.148	29.37
731.33	29.37
731.513	29.45
731.695	29.28
731.878	28.84
732.061	28.54
732.243	28.28
732.426	28.39
732.608	28.14
732.791	28.5
732.973	28.03
733.156	28.05
733.338	28.16
733.52	28.22
733.703	28.45
733.885	28.76
734.068	28.86
734.25	28.78
734.432	28.74
734.615	29.15
734.797	28.97
734.979	29.44
735.162	29.51
735.344	29.84
735.526	29.52
735.708	29.41
735.891	29.88
736.073	30.22
736.255	30.2
736.437	29.91
736.619	29.85
736.802	29.75
736.984	29.76
737.166	29.87
737.348	29.63
737.53	29.98
737.712	30.09
737.894	29.54
738.076	28.96
738.258	29.18
738.44	29.53
738.622	29.58
738.804	29.8
738.986	29.95
739.168	29.87
739.35	29.65
739.532	29.29
739.714	28.75
739.896	28.52
740.078	28.55
740.259	29.03
740.441	29.11
740.623	28.49
740.805	28.84
740.987	28.28
741.168	28.13
741.35	28.53
741.532	28.12
741.714	28.22
741.895	29.21
742.077	29.71
742.259	29.47
742.44	29.36
742.622	29.67
742.804	28.64
742.985	28.75
743.167	29.38
743.348	28.86
743.53	29.65
743.711	29.93
743.893	29.13
744.075	28.35
744.256	28.2
744.438	28.11
744.619	28.28
744.8	28.81
744.982	28.84
745.163	28.41
745.345	28.82
745.526	28.76
745.707	28.99
745.889	29.62
746.07	29.9
746.252	29.86
746.433	29.54
746.614	29.23
746.795	28.99
746.977	29.23
747.158	28.95
747.339	28.79
747.52	28.6
747.702	28.54
747.883	28.04
748.064	27.63
748.245	27.75
748.426	28.28
748.607	28.7
748.788	28.75
748.97	27.92
749.151	27.94
749.332	28.22
749.513	28.13
749.694	27.88
749.875	27.94
750.056	28.81
750.237	29.07
750.418	29.25
750.599	29.36
750.78	29.79
750.96	30.45
751.141	30.58
751.322	30.26
751.503	30.51
751.684	31.11
751.865	31.14
752.046	30.73
752.226	30.99
752.407	30.27
752.588	29.98
752.769	30.15
752.949	30.42
753.13	30.46
753.311	30.69
753.492	31.04
753.672	30.42
753.853	30.62
754.034	30.65
754.214	29.81
754.395	29.88
754.575	30.14
754.756	29.44
754.937	29.45
755.117	29.84
755.298	29.44
755.478	28.81
755.659	28.99
755.839	28.34
756.02	29.07
756.2	28.66
756.381	28.87
756.561	28.99
756.741	29.7
756.922	29.37
757.102	29.06
757.283	29.16
757.463	29.41
757.643	29.17
757.823	30.13
758.004	29.87
758.184	30.9
758.364	30.82
758.545	30.7
758.725	29.96
758.905	30.57
759.085	30.16
759.265	29.97
759.446	30.2
759.626	30.59
759.806	29.82
759.986	29.65
760.166	28.89
760.346	28.81
760.526	28.51
760.706	28.94
760.886	28.28
761.066	28.93
761.246	29.27
761.426	29.16
761.606	28.55
761.786	28.89
761.966	28.86
762.146	29.42
762.326	29.57
762.506	29.54
762.686	29.06
762.866	29.29
763.046	29.29
763.225	29.44
763.405	29.34
763.585	29.65
763.765	29.54
763.945	29.6
764.124	29.74
764.304	29.69
764.484	29.8
764.664	29.79
764.843	29.62
765.023	29.16
765.203	28.7
765.382	28.19
765.562	27.94
765.741	28.03
765.921	28.01
766.101	27.29
766.28	27.07
766.46	26.53
766.639	26.95
766.819	26.95
766.998	27.81
767.178	28.24
767.357	28.66
767.537	29.33
767.716	29.29
767.896	29.38
768.075	29.98
768.254	30.5
768.434	30.86
768.613	31.02
768.792	30.97
768.972	30.58
769.151	30.22
769.33	30.52
769.51	29.57
769.689	29.91
769.868	29.7
770.047	29.29
770.226	29.55
770.406	29.34
770.585	29.33
770.764	29.62
770.943	29.08
771.122	29.05
771.301	29.27
771.48	29.54
771.66	29.05
771.839	29.05
772.018	30.16
772.197	29.78
772.376	30.03
772.555	30.19
772.734	29.4
772.913	29.88
773.092	30.22
773.271	30.15
773.449	30.37
773.628	30.93
773.807	31.55
773.986	29.78
774.165	29.52
774.344	29.4
774.523	29.06
774.701	29.92
774.88	29.42
775.059	28.72
775.238	29.31
775.417	29.46
775.595	29.77
775.774	29.01
775.953	30.43
776.131	29.94
776.31	30.4
776.489	30.77
776.667	30.35
776.846	30.39
777.025	30.72
777.203	29.95
777.382	29.4
777.56	28.43
777.739	28.11
777.917	27.06
778.096	28.14
778.274	27.51
778.453	27.63
778.631	28.33
778.81	29.67
778.988	29.53
779.166	30.06
779.345	30.13
779.523	29.45
779.702	30.39
779.88	30.92
780.058	30.63
780.237	31.04
780.415	30.67
780.593	29.35
780.771	27.8
780.95	28.27
781.128	27.75
781.306	27.84
781.484	28.52
781.662	28.34
781.841	28.18
782.019	27.96
782.197	27.96
782.375	28.47
782.553	29.82
782.731	30.04
782.909	30.31
783.087	30.64
783.265	30.68
783.443	30.74
783.621	30.77
783.799	29.99
783.977	29.5
784.155	30.63
784.333	30.1
784.511	29.6
784.689	29.46
784.867	29.43
785.045	28.95
785.223	28.56
785.4	28.88
785.578	27.9
785.756	28.84
785.934	28.59
786.112	27.67
786.289	27.78
786.467	27.66
786.645	28.53
786.823	28.02
787	28.26
787.178	28.71
787.356	28.94
787.533	29.29
787.711	29.64
787.889	29.78
788.066	29.19
788.244	29.83
788.421	29.7
788.599	29.39
788.776	29.45
788.954	28.43
789.131	28.87
789.309	28.51
789.486	28.68
789.664	28.12
789.841	29.33
790.019	29.65
790.196	29.91
790.373	30.17
790.551	30.35
790.728	30.37
790.906	31.09
791.083	31.77
791.26	31.43
791.437	31.41
791.615	31.34
791.792	30.45
791.969	30.81
792.146	29.59
792.324	29.57
792.501	29.47
792.678	28.36
792.855	28.87
793.032	28.07
793.209	28.62
793.387	28.17
793.564	27.63
793.741	28.4
793.918	28.46
794.095	29.52
794.272	29.68
794.449	30
794.626	30.87
794.803	30.78
794.98	31.07
795.157	30.95
795.334	31.69
795.511	33.02
795.688	32.54
795.864	32.34
796.041	32.31
796.218	32.15
796.395	30.64
796.572	30.82
796.749	30.42
796.925	30.05
797.102	30.33
797.279	29.84
797.456	28.98
797.632	29.02
797.809	28.63
797.986	28.57
798.162	28.94
798.339	29.59
798.516	30.02
798.692	30.7
798.869	30.08
799.046	29.88
799.222	29.84
799.399	30.21
799.575	30.62
799.752	30.85
799.928	29.74
800.105	29.34
800.281	29.4
800.458	28.58
800.634	27.65
800.811	28.19
800.987	27.23
801.163	27.47
801.34	27.46
801.516	27.82
801.692	28.21
801.869	27.6
802.045	27.1
802.221	27.62
802.398	28.69
802.574	29.04
802.75	29.33
802.926	30.92
803.103	30.8
803.279	31
803.455	30.8
803.631	30.65
803.807	30.94
803.983	32.03
804.16	31.56
804.336	31.19
804.512	30.88
804.688	31.9
804.864	32.09
805.04	32.54
805.216	33.2
805.392	32.69
805.568	33.1
805.744	34.2
805.92	33.34
806.096	33.82
806.272	33.42
806.448	34.25
806.623	32.43
806.799	31.89
806.975	32.46
807.151	31.82
807.327	31.93
807.503	31.52
807.678	30.97
807.854	31.44
808.03	31.12
808.206	31.86
808.381	31.74
808.557	34.27
808.733	33.46
808.908	31.7
809.084	31.62
809.26	31.28
809.435	31.44
809.611	30.78
809.787	30.84
809.962	30.72
810.138	29.55
810.313	29.62
810.489	27.4
810.664	27.55
810.84	28.27
811.015	28.93
811.191	29.75
811.366	29.82
811.542	30.65
811.717	30.05
811.892	31.01
812.068	31.23
812.243	32.36
812.419	33.18
812.594	33.52
812.769	33.2
812.944	31.43
813.12	31.01
813.295	30.93
813.47	30.98
813.645	31.55
813.821	30.74
813.996	31.25
814.171	29.34
814.346	29.12
814.521	30.08
814.697	31.5
814.872	30.59
815.047	30.16
815.222	30.81
815.397	30.97
815.572	30.73
815.747	31.02
815.922	31.07
816.097	31.53
816.272	30.21
816.447	29.14
816.622	29.58
816.797	29.67
816.972	30.05
817.147	29.26
817.322	29.87
817.496	30.71
817.671	30.67
817.846	31.13
818.021	31.44
818.196	32.14
818.371	32.13
818.545	30.4
818.72	31.46
818.895	30.57
819.069	31.27
819.244	31.06
819.419	30.26
819.594	29.37
819.768	28.8
819.943	28.82
820.117	28.71
820.292	28.8
820.467	28.73
820.641	28.68
820.816	29.22
820.99	28.64
821.165	28.33
821.339	28.54
821.514	28.94
821.688	29.08
821.863	28.85
822.037	28.97
822.212	29.06
822.386	29.4
822.56	29.5
822.735	29.49
822.909	29.51
823.084	29.51
823.258	29.37
823.432	29.33
823.606	29.46
823.781	29.79
823.955	29.69
824.129	29.61
824.303	29.61
824.478	29.76
824.652	29.6
824.826	29.98
825	30.33
825.174	30.58
825.348	30.43
825.523	30.07
825.697	30.4
825.871	30.51
826.045	30.04
826.219	29.68
826.393	29.49
826.567	29.74
826.741	29.77
826.915	29.81
827.089	30.16
827.263	30.24
827.437	30
827.611	29.48
827.784	29.57
827.958	30.21
828.132	29.97
828.306	30.32
828.48	30.66
828.654	30.38
828.827	30.18
829.001	29.7
829.175	29.45
829.349	30.21
829.522	30.29
829.696	30.62
829.87	30.81
830.044	31.62
830.217	31.49
830.391	30.19
830.565	30.67
830.738	30.78
830.912	30.86
831.085	31.54
831.259	31.01
831.432	30.49
831.606	29.85
831.779	29.53
831.953	29.33
832.126	28.9
832.3	28.73
832.473	28.2
832.647	27.19
832.82	26.9
832.994	26.23
833.167	26.46
833.34	26.82
833.514	26.79
833.687	26.49
833.86	26.4
834.034	26.2
834.207	27.21
834.38	27.65
834.553	28.74
834.727	28.56
834.9	28.96
835.073	29.14
835.246	28.92
835.419	28.93
835.593	29.25
835.766	28.83
835.939	29.15
836.112	28.31
836.285	28.42
836.458	28.7
836.631	30.02
836.804	29.43
836.977	29.39
837.15	29.91
837.323	29.43
837.496	30.3
837.669	31.38
837.842	31.28
838.015	31.84
838.188	31.57
838.361	30.98
838.533	31.25
838.706	32.13
838.879	33.21
839.052	34.39
839.225	36.17
839.398	36.49
839.57	37.02
839.743	38.23
839.916	37.82
840.088	37.08
840.261	36.33
840.434	35.7
840.607	36.01
840.779	34.73
840.952	32.78
841.124	31.68
841.297	31.97
841.47	31.41
841.642	31.37
841.815	30.36
841.987	32.19
842.16	32.58
842.332	33.58
842.505	33.19
842.677	34.21
842.85	36.64
843.022	36.17
843.194	35.49
843.367	36.37
843.539	33.5
843.712	34.02
843.884	34.29
844.056	34.71
844.229	31.03
844.401	33.28
844.573	34.1
844.745	30.67
844.918	31.54
845.09	30.2
845.262	31.11
845.434	33.76
845.606	31.68
845.779	28.71
845.951	28.05
846.123	30.55
846.295	27.27
846.467	22.88
846.639	26.47
846.811	25.61
846.983	26.83
847.155	26.28
847.327	26.26
847.499	32.42
847.671	33.39
847.843	33.88
848.015	34.48
848.187	36.51
848.359	41.42
848.531	41.51
848.703	42.62
848.875	40.55
849.047	41.08
849.218	44.65
849.39	44.47
849.562	46.33
849.734	46.82
849.905	44.34
850.077	43.75
850.249	39.34
850.421	37.91
850.592	40.54
850.764	41.37
850.936	42.68
851.107	40.06
851.279	36.27
851.451	36.27
851.622	37.46
851.794	37.45
851.965	35.3
852.137	39
852.308	38.52
852.48	36.3
852.651	38.34
852.823	36.31
852.994	34.03
853.166	34.05
853.337	29.26
853.509	26.78
853.68	29.58
853.851	31.89
854.023	30.85
854.194	32.7
854.365	35
854.537	36
854.708	33.65
854.879	35.81
855.05	37.22
855.222	41.11
855.393	41.19
855.564	37.84
855.735	37.93
855.906	35.58
856.078	35.05
856.249	32.93
856.42	33.24
856.591	33.62
856.762	30.57
856.933	32.24
857.104	34.7
857.275	38
857.446	40.29
857.617	38.82
857.788	34.88
857.959	32.07
858.13	30.3
858.301	29.09
858.472	29.44
858.643	33.76
858.814	31.53
858.985	28.16
859.155	24.83
859.326	27.35
859.497	31.01
859.668	38.61
859.839	41.37
860.009	45.05
860.18	43.33
860.351	43.87
860.522	38.48
860.692	37.21
860.863	38.38
861.034	40.67
861.204	34.88
861.375	35.02
861.546	29.11
861.716	27.7
861.887	28.61
862.057	27.04
862.228	29.1
862.398	29.83
862.569	33.32
862.739	31.3
862.91	29.37
863.08	33.39
863.251	31.76
863.421	36.41
863.592	34.79
863.762	29.45
863.932	34.21
864.103	33.6
864.273	34.16
864.443	32.77
864.614	30.14
864.784	29.24
864.954	32.06
865.125	32.96
865.295	28.35
865.465	30.19
865.635	33.09
865.805	31.6
865.976	26.54
866.146	29.28
866.316	28.88
866.486	32.39
866.656	32.81
866.826	31.15
866.996	31.68
867.166	36.78
867.336	36.1
867.506	40.71
867.676	38.6
867.846	41.12
868.016	42.18
868.186	42.46
868.356	39.73
868.526	41.01
868.696	39.98
868.866	36.86
869.036	35.02
869.206	38.4
869.376	32.83
869.545	31.76
869.715	32.07
869.885	28.15
870.055	29.28
870.224	32.38
870.394	29.32
870.564	30.7
870.734	32.63
870.903	32.97
871.073	33
871.243	34.22
871.412	38.85
871.582	39.17
871.751	38.32
871.921	39.24
872.091	38.08
872.26	42.69
872.43	43.08
872.599	44.89
872.769	43.44
872.938	40.85
873.108	42.35
873.277	40.22
873.446	37.47
873.616	38.88
873.785	38.51
873.955	37.26
874.124	34.58
874.293	37.45
874.463	35.95
874.632	38.64
874.801	41.51
874.971	41.49
875.14	38.98
875.309	42.62
875.478	45.58
875.647	43.66
875.817	42.97
875.986	42.34
876.155	38.39
876.324	39.73
876.493	32.87
876.662	30.29
876.831	29.41
877	27.98
877.17	27.31
877.339	28.67
877.508	31.21
877.677	32.65
877.846	32.29
878.015	35.27
878.184	33.92
878.352	39.94
878.521	36.97
878.69	31.79
878.859	34.96
879.028	34.28
879.197	31.42
879.366	31.12
879.534	31.15
879.703	30.69
879.872	30.74
880.041	29.06
880.21	27.14
880.378	29.18
880.547	30.52
880.716	29.07
880.884	29.54
881.053	29.4
881.222	28.53
881.39	28.29
881.559	28.57
881.727	28.15
881.896	28.39
882.065	29.08
882.233	29.04
882.402	29.06
882.57	29.17
882.739	28.98
882.907	29.59
883.076	29.75
883.244	29.94
883.412	29.66
883.581	29.96
883.749	30.04
883.918	29.41
884.086	30.25
884.254	30.1
884.423	30.57
884.591	31.15
884.759	31.49
884.927	30.92
885.096	31.55
885.264	31.26
885.432	31.92
885.6	32.3
885.769	31.66
885.937	30.53
886.105	31.85
886.273	31.74
886.441	31.84
886.609	29.2
886.777	29.51
886.945	28.81
887.113	30.48
887.281	28.93
887.449	29.5
887.617	32.61
887.785	31.26
887.953	30.47
888.121	32.77
888.289	31.71
888.457	33.52
888.625	33.56
888.793	33.46
888.961	34.33
889.129	36.23
889.296	34.91
889.464	35.17
889.632	36.63
889.8	37.76
889.967	34.22
890.135	33.98
